# Simple Text Format
# Sampling Rate (Hz):= 360.00
# Resolution:= 12
# Labels:= ECG
1000.0
998.0
998.0
994.0
988.0
985.0
978.0
976.0
973.0
971.0
967.0
964.0
962.0
960.0
958.0
955.0
953.0
951.0
948.0
948.0
945.0
944.0
940.0
943.0
942.0
945.0
945.0
943.0
944.0
942.0
938.0
938.0
937.0
939.0
942.0
943.0
945.0
947.0
945.0
943.0
946.0
944.0
942.0
941.0
941.0
940.0
940.0
942.0
944.0
945.0
946.0
946.0
945.0
944.0
939.0
938.0
934.0
933.0
934.0
936.0
937.0
941.0
940.0
940.0
938.0
937.0
936.0
933.0
931.0
932.0
931.0
933.0
934.0
935.0
935.0
933.0
931.0
933.0
927.0
928.0
927.0
927.0
929.0
931.0
932.0
933.0
935.0
933.0
932.0
932.0
932.0
929.0
930.0
931.0
934.0
939.0
946.0
949.0
956.0
965.0
970.0
980.0
992.0
1004.0
1017.0
1035.0
1057.0
1080.0
1105.0
1131.0
1156.0
1179.0
1194.0
1212.0
1224.0
1228.0
1225.0
1218.0
1201.0
1180.0
1152.0
1125.0
1097.0
1068.0
1038.0
1008.0
980.0
955.0
932.0
917.0
905.0
900.0
895.0
890.0
890.0
889.0
884.0
880.0
873.0
868.0
864.0
855.0
853.0
856.0
854.0
854.0
855.0
857.0
854.0
852.0
849.0
848.0
846.0
845.0
845.0
844.0
840.0
841.0
838.0
836.0
837.0
833.0
830.0
829.0
823.0
824.0
823.0
823.0
825.0
823.0
826.0
820.0
819.0
816.0
814.0
812.0
807.0
806.0
802.0
800.0
798.0
798.0
796.0
793.0
793.0
790.0
790.0
784.0
784.0
783.0
782.0
780.0
779.0
781.0
781.0
780.0
781.0
782.0
783.0
783.0
783.0
782.0
782.0
785.0
790.0
793.0
800.0
804.0
810.0
812.0
817.0
818.0
822.0
831.0
836.0
843.0
849.0
856.0
861.0
863.0
861.0
862.0
865.0
866.0
866.0
870.0
871.0
873.0
878.0
880.0
883.0
882.0
879.0
880.0
882.0
883.0
883.0
886.0
886.0
888.0
889.0
889.0
889.0
887.0
887.0
884.0
882.0
882.0
880.0
881.0
878.0
882.0
881.0
884.0
884.0
883.0
883.0
881.0
881.0
876.0
875.0
876.0
878.0
880.0
877.0
879.0
880.0
882.0
883.0
887.0
887.0
887.0
886.0
889.0
890.0
893.0
896.0
893.0
891.0
885.0
882.0
881.0
883.0
887.0
899.0
913.0
923.0
932.0
937.0
934.0
934.0
931.0
922.0
905.0
882.0
856.0
828.0
808.0
790.0
774.0
764.0
753.0
739.0
729.0
722.0
716.0
717.0
720.0
729.0
740.0
752.0
762.0
772.0
782.0
789.0
796.0
804.0
811.0
820.0
828.0
835.0
843.0
852.0
862.0
868.0
875.0
881.0
885.0
890.0
895.0
899.0
901.0
905.0
907.0
912.0
912.0
916.0
919.0
921.0
921.0
920.0
922.0
919.0
920.0
917.0
918.0
921.0
923.0
924.0
929.0
930.0
932.0
934.0
935.0
939.0
938.0
940.0
943.0
947.0
952.0
956.0
961.0
965.0
969.0
971.0
973.0
978.0
982.0
986.0
989.0
991.0
998.0
1004.0
1007.0
1009.0
1012.0
1012.0
1014.0
1020.0
1022.0
1023.0
1029.0
1031.0
1032.0
1037.0
1037.0
1036.0
1034.0
1030.0
1028.0
1024.0
1018.0
1015.0
1014.0
1012.0
1012.0
1010.0
1008.0
1008.0
1005.0
1000.0
992.0
988.0
979.0
971.0
967.0
964.0
961.0
959.0
957.0
958.0
952.0
945.0
939.0
936.0
932.0
930.0
927.0
928.0
929.0
928.0
930.0
931.0
934.0
934.0
935.0
931.0
928.0
923.0
920.0
920.0
922.0
923.0
926.0
930.0
929.0
931.0
928.0
927.0
923.0
920.0
921.0
920.0
922.0
923.0
925.0
926.0
925.0
924.0
925.0
922.0
922.0
921.0
920.0
921.0
925.0
926.0
931.0
931.0
930.0
931.0
929.0
926.0
925.0
920.0
922.0
923.0
924.0
925.0
925.0
928.0
927.0
927.0
930.0
929.0
933.0
937.0
939.0
942.0
949.0
955.0
965.0
975.0
986.0
998.0
1018.0
1038.0
1061.0
1090.0
1120.0
1147.0
1171.0
1190.0
1202.0
1208.0
1204.0
1187.0
1166.0
1137.0
1105.0
1071.0
1039.0
1005.0
980.0
958.0
942.0
931.0
919.0
913.0
907.0
901.0
896.0
890.0
886.0
883.0
883.0
881.0
880.0
876.0
874.0
869.0
862.0
858.0
854.0
853.0
851.0
852.0
852.0
855.0
853.0
853.0
849.0
851.0
847.0
844.0
843.0
841.0
842.0
841.0
841.0
842.0
841.0
841.0
836.0
835.0
830.0
827.0
826.0
825.0
825.0
826.0
826.0
823.0
824.0
827.0
827.0
823.0
819.0
813.0
808.0
805.0
802.0
802.0
799.0
800.0
800.0
798.0
794.0
792.0
789.0
787.0
784.0
784.0
783.0
785.0
787.0
788.0
790.0
791.0
796.0
797.0
795.0
796.0
797.0
803.0
807.0
808.0
815.0
821.0
825.0
830.0
836.0
837.0
842.0
844.0
848.0
852.0
856.0
860.0
865.0
869.0
872.0
875.0
877.0
875.0
878.0
880.0
881.0
881.0
883.0
886.0
888.0
890.0
893.0
894.0
896.0
896.0
896.0
896.0
897.0
893.0
893.0
894.0
896.0
898.0
903.0
903.0
902.0
903.0
900.0
899.0
896.0
894.0
893.0
892.0
894.0
895.0
894.0
893.0
896.0
898.0
893.0
893.0
892.0
891.0
892.0
892.0
896.0
897.0
900.0
905.0
904.0
904.0
907.0
907.0
905.0
908.0
912.0
910.0
911.0
910.0
908.0
906.0
899.0
894.0
889.0
888.0
892.0
898.0
907.0
916.0
933.0
945.0
950.0
953.0
950.0
944.0
934.0
924.0
910.0
892.0
872.0
851.0
831.0
813.0
804.0
794.0
784.0
770.0
759.0
745.0
734.0
726.0
723.0
723.0
730.0
739.0
748.0
761.0
770.0
779.0
787.0
796.0
804.0
813.0
823.0
835.0
844.0
858.0
868.0
876.0
881.0
884.0
890.0
892.0
894.0
900.0
908.0
913.0
918.0
922.0
928.0
931.0
932.0
933.0
934.0
933.0
935.0
932.0
931.0
930.0
931.0
931.0
933.0
936.0
938.0
938.0
939.0
939.0
937.0
944.0
942.0
947.0
949.0
953.0
957.0
960.0
962.0
964.0
965.0
968.0
969.0
970.0
971.0
974.0
976.0
979.0
980.0
984.0
992.0
994.0
997.0
999.0
999.0
1001.0
1001.0
1008.0
1012.0
1018.0
1024.0
1035.0
1035.0
1037.0
1037.0
1036.0
1041.0
1044.0
1046.0
1051.0
1051.0
1054.0
1057.0
1057.0
1056.0
1056.0
1054.0
1051.0
1051.0
1045.0
1039.0
1036.0
1036.0
1033.0
1031.0
1029.0
1024.0
1020.0
1012.0
1006.0
1003.0
999.0
999.0
995.0
991.0
989.0
985.0
982.0
978.0
975.0
971.0
968.0
967.0
964.0
964.0
963.0
962.0
961.0
961.0
961.0
959.0
958.0
955.0
950.0
950.0
946.0
947.0
948.0
948.0
949.0
951.0
950.0
952.0
951.0
950.0
951.0
951.0
951.0
951.0
949.0
949.0
953.0
952.0
953.0
953.0
952.0
950.0
949.0
946.0
946.0
946.0
947.0
946.0
945.0
945.0
946.0
946.0
948.0
951.0
950.0
949.0
949.0
946.0
945.0
947.0
945.0
946.0
945.0
945.0
946.0
944.0
944.0
943.0
941.0
938.0
939.0
938.0
942.0
943.0
945.0
947.0
946.0
945.0
944.0
943.0
940.0
939.0
940.0
942.0
948.0
957.0
964.0
972.0
976.0
981.0
989.0
996.0
1009.0
1024.0
1041.0
1067.0
1092.0
1120.0
1155.0
1182.0
1206.0
1225.0
1230.0
1231.0
1221.0
1207.0
1186.0
1163.0
1134.0
1105.0
1077.0
1044.0
1015.0
987.0
965.0
945.0
934.0
927.0
921.0
917.0
910.0
905.0
902.0
901.0
896.0
891.0
888.0
883.0
880.0
877.0
874.0
874.0
871.0
875.0
877.0
879.0
875.0
871.0
869.0
865.0
863.0
861.0
857.0
858.0
857.0
854.0
850.0
854.0
851.0
850.0
848.0
847.0
844.0
840.0
840.0
838.0
835.0
833.0
832.0
826.0
823.0
820.0
817.0
814.0
811.0
807.0
802.0
800.0
803.0
800.0
800.0
799.0
796.0
794.0
788.0
788.0
784.0
782.0
783.0
782.0
786.0
789.0
791.0
794.0
795.0
796.0
798.0
799.0
800.0
800.0
801.0
806.0
813.0
821.0
829.0
833.0
838.0
843.0
842.0
845.0
850.0
856.0
862.0
867.0
871.0
874.0
877.0
880.0
880.0
883.0
885.0
888.0
890.0
891.0
892.0
891.0
895.0
894.0
895.0
891.0
894.0
895.0
891.0
891.0
892.0
897.0
899.0
897.0
899.0
899.0
901.0
900.0
896.0
896.0
895.0
891.0
887.0
884.0
886.0
886.0
888.0
890.0
892.0
892.0
890.0
889.0
888.0
888.0
889.0
889.0
888.0
892.0
892.0
897.0
902.0
908.0
906.0
905.0
903.0
894.0
886.0
882.0
878.0
876.0
879.0
884.0
897.0
911.0
924.0
934.0
945.0
949.0
950.0
945.0
938.0
925.0
905.0
881.0
855.0
831.0
811.0
791.0
772.0
754.0
737.0
725.0
719.0
721.0
730.0
740.0
752.0
764.0
772.0
779.0
784.0
790.0
793.0
799.0
809.0
820.0
830.0
841.0
852.0
865.0
873.0
881.0
887.0
889.0
893.0
893.0
895.0
898.0
903.0
908.0
911.0
915.0
919.0
921.0
918.0
915.0
915.0
916.0
917.0
921.0
922.0
924.0
925.0
924.0
924.0
923.0
923.0
925.0
927.0
931.0
932.0
935.0
936.0
935.0
935.0
938.0
943.0
944.0
945.0
951.0
950.0
953.0
954.0
955.0
960.0
965.0
973.0
978.0
981.0
985.0
989.0
991.0
992.0
996.0
1003.0
1008.0
1014.0
1019.0
1022.0
1028.0
1028.0
1032.0
1033.0
1033.0
1031.0
1027.0
1020.0
1015.0
1015.0
1014.0
1018.0
1019.0
1019.0
1017.0
1012.0
1006.0
999.0
990.0
988.0
986.0
983.0
983.0
981.0
976.0
971.0
966.0
959.0
953.0
949.0
946.0
944.0
942.0
941.0
941.0
941.0
938.0
933.0
929.0
926.0
923.0
919.0
918.0
920.0
921.0
925.0
929.0
931.0
930.0
927.0
923.0
915.0
908.0
900.0
899.0
898.0
899.0
901.0
905.0
906.0
910.0
911.0
914.0
916.0
915.0
912.0
906.0
904.0
905.0
906.0
906.0
908.0
910.0
909.0
909.0
905.0
906.0
907.0
904.0
903.0
901.0
901.0
901.0
908.0
909.0
909.0
908.0
908.0
907.0
905.0
903.0
899.0
898.0
900.0
901.0
907.0
916.0
922.0
934.0
939.0
945.0
948.0
956.0
965.0
981.0
1000.0
1023.0
1049.0
1073.0
1096.0
1120.0
1137.0
1150.0
1153.0
1155.0
1148.0
1137.0
1119.0
1098.0
1073.0
1042.0
1008.0
973.0
940.0
917.0
900.0
892.0
884.0
886.0
885.0
882.0
879.0
871.0
866.0
858.0
854.0
851.0
844.0
842.0
838.0
837.0
836.0
837.0
840.0
843.0
841.0
838.0
834.0
829.0
826.0
822.0
820.0
824.0
825.0
824.0
824.0
824.0
822.0
823.0
816.0
810.0
805.0
802.0
802.0
803.0
807.0
809.0
812.0
812.0
810.0
807.0
803.0
798.0
793.0
792.0
789.0
784.0
782.0
783.0
783.0
787.0
783.0
784.0
780.0
775.0
773.0
768.0
770.0
768.0
769.0
771.0
774.0
773.0
769.0
767.0
765.0
765.0
765.0
767.0
768.0
771.0
775.0
780.0
781.0
786.0
788.0
792.0
793.0
797.0
801.0
804.0
811.0
817.0
824.0
828.0
833.0
838.0
842.0
848.0
847.0
849.0
851.0
853.0
858.0
860.0
861.0
862.0
862.0
861.0
862.0
862.0
862.0
867.0
868.0
870.0
873.0
875.0
875.0
875.0
873.0
873.0
872.0
872.0
873.0
872.0
875.0
873.0
872.0
871.0
869.0
868.0
868.0
866.0
868.0
866.0
866.0
866.0
867.0
870.0
872.0
873.0
874.0
874.0
871.0
870.0
870.0
870.0
871.0
871.0
874.0
874.0
878.0
882.0
879.0
878.0
870.0
865.0
857.0
849.0
844.0
841.0
846.0
854.0
871.0
890.0
906.0
919.0
922.0
924.0
914.0
901.0
878.0
856.0
829.0
810.0
793.0
778.0
764.0
755.0
746.0
739.0
729.0
723.0
721.0
724.0
731.0
737.0
748.0
756.0
767.0
775.0
786.0
794.0
798.0
809.0
821.0
830.0
838.0
848.0
853.0
861.0
867.0
872.0
877.0
883.0
885.0
891.0
894.0
898.0
898.0
900.0
900.0
899.0
899.0
902.0
904.0
908.0
909.0
912.0
913.0
912.0
909.0
907.0
904.0
905.0
907.0
911.0
911.0
919.0
923.0
926.0
925.0
926.0
929.0
928.0
932.0
936.0
939.0
945.0
949.0
952.0
957.0
959.0
962.0
968.0
973.0
977.0
980.0
984.0
990.0
994.0
999.0
1002.0
1005.0
1011.0
1011.0
1012.0
1011.0
1013.0
1012.0
1013.0
1015.0
1017.0
1016.0
1019.0
1016.0
1016.0
1013.0
1012.0
1009.0
1007.0
1004.0
1003.0
1000.0
997.0
994.0
994.0
989.0
982.0
979.0
973.0
970.0
965.0
964.0
963.0
962.0
961.0
961.0
958.0
951.0
947.0
944.0
940.0
936.0
933.0
931.0
929.0
929.0
925.0
925.0
924.0
927.0
921.0
925.0
924.0
924.0
925.0
921.0
921.0
919.0
914.0
911.0
912.0
913.0
913.0
914.0
914.0
913.0
910.0
912.0
913.0
911.0
912.0
914.0
916.0
915.0
915.0
918.0
917.0
919.0
919.0
922.0
922.0
922.0
920.0
919.0
920.0
916.0
917.0
914.0
914.0
916.0
915.0
918.0
919.0
919.0
919.0
917.0
922.0
919.0
920.0
916.0
914.0
912.0
909.0
910.0
910.0
914.0
915.0
918.0
918.0
919.0
918.0
918.0
916.0
915.0
919.0
920.0
922.0
925.0
927.0
934.0
939.0
944.0
949.0
961.0
971.0
979.0
990.0
1007.0
1030.0
1056.0
1084.0
1117.0
1146.0
1171.0
1188.0
1195.0
1190.0
1173.0
1146.0
1115.0
1079.0
1045.0
1012.0
979.0
958.0
939.0
927.0
916.0
908.0
900.0
896.0
894.0
891.0
890.0
892.0
889.0
888.0
884.0
880.0
873.0
866.0
859.0
856.0
856.0
856.0
856.0
858.0
862.0
862.0
860.0
858.0
856.0
851.0
848.0
841.0
844.0
844.0
845.0
847.0
846.0
845.0
840.0
837.0
833.0
830.0
829.0
826.0
825.0
824.0
825.0
827.0
829.0
829.0
826.0
823.0
819.0
816.0
811.0
808.0
804.0
799.0
797.0
795.0
793.0
795.0
795.0
792.0
789.0
785.0
782.0
782.0
784.0
786.0
786.0
788.0
794.0
798.0
798.0
799.0
798.0
799.0
800.0
801.0
807.0
811.0
819.0
826.0
835.0
844.0
847.0
850.0
848.0
848.0
849.0
853.0
859.0
867.0
873.0
878.0
885.0
888.0
887.0
889.0
889.0
887.0
885.0
885.0
883.0
884.0
886.0
893.0
896.0
900.0
903.0
904.0
902.0
899.0
895.0
894.0
894.0
895.0
896.0
896.0
901.0
900.0
899.0
902.0
900.0
899.0
897.0
894.0
894.0
892.0
892.0
892.0
893.0
895.0
896.0
897.0
897.0
899.0
902.0
903.0
903.0
906.0
905.0
905.0
907.0
912.0
917.0
915.0
911.0
906.0
898.0
890.0
890.0
893.0
903.0
912.0
927.0
942.0
952.0
960.0
960.0
956.0
950.0
939.0
926.0
907.0
890.0
868.0
852.0
837.0
825.0
815.0
807.0
796.0
780.0
768.0
758.0
750.0
749.0
749.0
754.0
762.0
770.0
778.0
786.0
793.0
800.0
805.0
815.0
821.0
833.0
844.0
856.0
870.0
880.0
888.0
894.0
901.0
904.0
907.0
910.0
913.0
918.0
923.0
927.0
934.0
935.0
936.0
941.0
939.0
938.0
935.0
939.0
940.0
941.0
943.0
942.0
942.0
943.0
943.0
942.0
942.0
945.0
945.0
947.0
953.0
957.0
958.0
962.0
967.0
967.0
968.0
968.0
968.0
972.0
973.0
977.0
979.0
982.0
982.0
987.0
992.0
996.0
999.0
1003.0
1006.0
1006.0
1012.0
1014.0
1018.0
1024.0
1028.0
1032.0
1033.0
1037.0
1043.0
1043.0
1044.0
1045.0
1047.0
1052.0
1055.0
1059.0
1061.0
1062.0
1061.0
1055.0
1050.0
1045.0
1043.0
1038.0
1041.0
1034.0
1032.0
1028.0
1025.0
1026.0
1025.0
1022.0
1016.0
1009.0
1004.0
997.0
995.0
992.0
990.0
991.0
993.0
992.0
989.0
988.0
981.0
977.0
974.0
970.0
967.0
962.0
961.0
963.0
962.0
963.0
962.0
961.0
962.0
962.0
961.0
959.0
960.0
959.0
957.0
957.0
959.0
960.0
962.0
961.0
960.0
961.0
958.0
959.0
958.0
959.0
960.0
960.0
959.0
957.0
953.0
953.0
954.0
956.0
955.0
957.0
955.0
954.0
953.0
953.0
953.0
955.0
956.0
955.0
956.0
955.0
957.0
955.0
953.0
950.0
950.0
948.0
952.0
952.0
954.0
956.0
957.0
956.0
955.0
952.0
948.0
949.0
950.0
951.0
952.0
953.0
960.0
965.0
968.0
972.0
977.0
985.0
993.0
1006.0
1020.0
1038.0
1058.0
1079.0
1105.0
1131.0
1158.0
1185.0
1213.0
1233.0
1248.0
1257.0
1258.0
1251.0
1234.0
1210.0
1182.0
1151.0
1120.0
1091.0
1059.0
1031.0
1007.0
984.0
966.0
951.0
943.0
935.0
935.0
932.0
926.0
921.0
911.0
904.0
899.0
898.0
897.0
895.0
896.0
894.0
896.0
893.0
889.0
885.0
877.0
870.0
870.0
868.0
872.0
871.0
870.0
871.0
869.0
866.0
861.0
858.0
856.0
851.0
846.0
841.0
837.0
835.0
833.0
834.0
835.0
833.0
829.0
829.0
827.0
824.0
823.0
819.0
815.0
812.0
808.0
804.0
802.0
801.0
796.0
793.0
791.0
788.0
787.0
784.0
786.0
785.0
782.0
781.0
781.0
781.0
778.0
780.0
781.0
781.0
783.0
784.0
789.0
795.0
797.0
799.0
804.0
805.0
807.0
807.0
810.0
816.0
819.0
825.0
828.0
835.0
842.0
848.0
855.0
863.0
865.0
869.0
871.0
869.0
870.0
868.0
869.0
874.0
875.0
878.0
882.0
884.0
882.0
884.0
885.0
887.0
891.0
891.0
894.0
895.0
896.0
895.0
898.0
899.0
898.0
895.0
895.0
892.0
893.0
894.0
894.0
897.0
896.0
896.0
897.0
892.0
890.0
890.0
889.0
888.0
886.0
886.0
887.0
891.0
890.0
892.0
892.0
893.0
892.0
890.0
893.0
895.0
894.0
892.0
892.0
892.0
893.0
897.0
902.0
901.0
904.0
905.0
907.0
908.0
909.0
909.0
907.0
903.0
897.0
892.0
889.0
888.0
889.0
892.0
896.0
904.0
917.0
927.0
936.0
943.0
944.0
946.0
939.0
935.0
926.0
912.0
899.0
878.0
854.0
830.0
812.0
796.0
778.0
763.0
749.0
736.0
727.0
723.0
724.0
731.0
739.0
749.0
759.0
769.0
781.0
788.0
799.0
807.0
815.0
821.0
829.0
835.0
844.0
850.0
859.0
863.0
871.0
877.0
883.0
889.0
893.0
896.0
898.0
902.0
908.0
911.0
914.0
917.0
918.0
917.0
921.0
920.0
921.0
922.0
921.0
918.0
919.0
918.0
920.0
920.0
921.0
925.0
927.0
929.0
930.0
933.0
933.0
935.0
935.0
934.0
938.0
939.0
941.0
941.0
939.0
938.0
939.0
942.0
946.0
949.0
952.0
956.0
958.0
962.0
968.0
975.0
983.0
987.0
991.0
993.0
994.0
998.0
1002.0
1003.0
1008.0
1011.0
1012.0
1017.0
1021.0
1024.0
1025.0
1027.0
1027.0
1025.0
1024.0
1021.0
1020.0
1020.0
1020.0
1019.0
1019.0
1016.0
1014.0
1008.0
1002.0
993.0
984.0
978.0
975.0
972.0
969.0
969.0
971.0
972.0
968.0
961.0
949.0
943.0
936.0
933.0
931.0
929.0
928.0
929.0
932.0
931.0
933.0
931.0
929.0
927.0
925.0
922.0
917.0
920.0
921.0
923.0
926.0
928.0
928.0
927.0
925.0
922.0
920.0
918.0
920.0
920.0
923.0
925.0
925.0
926.0
926.0
925.0
928.0
926.0
926.0
923.0
921.0
923.0
922.0
923.0
926.0
926.0
925.0
925.0
923.0
921.0
924.0
925.0
926.0
927.0
928.0
929.0
927.0
926.0
925.0
925.0
926.0
929.0
933.0
939.0
943.0
948.0
958.0
967.0
979.0
995.0
1011.0
1028.0
1048.0
1069.0
1099.0
1128.0
1157.0
1182.0
1201.0
1214.0
1218.0
1209.0
1192.0
1171.0
1143.0
1116.0
1082.0
1052.0
1021.0
992.0
968.0
950.0
932.0
917.0
908.0
902.0
897.0
890.0
887.0
882.0
879.0
874.0
871.0
870.0
869.0
867.0
864.0
861.0
854.0
851.0
849.0
847.0
847.0
847.0
847.0
848.0
850.0
849.0
847.0
843.0
838.0
833.0
830.0
825.0
824.0
823.0
823.0
824.0
824.0
823.0
822.0
821.0
818.0
817.0
816.0
814.0
809.0
805.0
804.0
798.0
798.0
797.0
796.0
792.0
787.0
783.0
780.0
777.0
773.0
776.0
774.0
777.0
778.0
778.0
776.0
777.0
774.0
774.0
775.0
778.0
780.0
781.0
782.0
783.0
786.0
793.0
795.0
800.0
802.0
804.0
810.0
814.0
817.0
822.0
828.0
835.0
840.0
846.0
852.0
857.0
861.0
863.0
866.0
868.0
869.0
871.0
875.0
878.0
883.0
888.0
888.0
888.0
888.0
884.0
883.0
882.0
885.0
885.0
885.0
887.0
889.0
890.0
892.0
890.0
891.0
890.0
889.0
890.0
888.0
888.0
890.0
892.0
894.0
891.0
892.0
889.0
884.0
882.0
881.0
881.0
881.0
881.0
885.0
887.0
889.0
890.0
890.0
888.0
886.0
885.0
882.0
883.0
886.0
888.0
890.0
893.0
894.0
896.0
897.0
897.0
897.0
900.0
901.0
901.0
898.0
893.0
888.0
885.0
883.0
885.0
889.0
900.0
909.0
923.0
934.0
939.0
940.0
938.0
932.0
921.0
912.0
894.0
869.0
847.0
824.0
803.0
785.0
767.0
750.0
728.0
716.0
711.0
712.0
721.0
735.0
747.0
758.0
765.0
774.0
786.0
797.0
809.0
820.0
829.0
839.0
849.0
854.0
860.0
862.0
865.0
870.0
873.0
880.0
886.0
897.0
902.0
909.0
914.0
913.0
916.0
915.0
914.0
912.0
909.0
910.0
908.0
911.0
914.0
916.0
919.0
918.0
917.0
918.0
917.0
917.0
918.0
921.0
925.0
927.0
930.0
933.0
937.0
942.0
942.0
942.0
945.0
947.0
947.0
950.0
952.0
957.0
961.0
966.0
973.0
980.0
981.0
985.0
987.0
991.0
992.0
999.0
1005.0
1010.0
1016.0
1022.0
1023.0
1023.0
1022.0
1019.0
1018.0
1018.0
1019.0
1018.0
1018.0
1017.0
1013.0
1014.0
1009.0
1007.0
1001.0
995.0
991.0
988.0
988.0
984.0
985.0
984.0
982.0
977.0
975.0
968.0
963.0
961.0
960.0
952.0
950.0
947.0
943.0
943.0
940.0
942.0
936.0
933.0
929.0
929.0
927.0
924.0
922.0
917.0
917.0
916.0
919.0
919.0
921.0
919.0
918.0
913.0
909.0
909.0
909.0
914.0
917.0
920.0
922.0
922.0
923.0
920.0
920.0
917.0
916.0
913.0
912.0
912.0
911.0
913.0
916.0
917.0
918.0
917.0
919.0
917.0
917.0
915.0
916.0
914.0
916.0
916.0
915.0
915.0
915.0
916.0
915.0
912.0
911.0
909.0
907.0
908.0
906.0
907.0
906.0
907.0
909.0
907.0
909.0
909.0
908.0
908.0
907.0
909.0
907.0
909.0
912.0
913.0
914.0
907.0
906.0
906.0
905.0
906.0
913.0
921.0
927.0
935.0
944.0
953.0
964.0
975.0
988.0
1003.0
1024.0
1049.0
1078.0
1110.0
1140.0
1168.0
1183.0
1189.0
1185.0
1166.0
1138.0
1108.0
1072.0
1040.0
1007.0
981.0
957.0
937.0
918.0
905.0
897.0
889.0
882.0
876.0
874.0
869.0
864.0
862.0
858.0
851.0
847.0
846.0
843.0
839.0
839.0
838.0
836.0
836.0
836.0
837.0
838.0
837.0
835.0
835.0
833.0
830.0
828.0
827.0
821.0
817.0
816.0
815.0
814.0
815.0
813.0
814.0
808.0
806.0
807.0
805.0
804.0
804.0
803.0
800.0
795.0
792.0
791.0
788.0
788.0
785.0
783.0
780.0
777.0
774.0
771.0
768.0
764.0
761.0
760.0
760.0
761.0
761.0
764.0
764.0
762.0
761.0
758.0
760.0
762.0
761.0
764.0
768.0
768.0
771.0
777.0
777.0
781.0
782.0
786.0
793.0
796.0
805.0
811.0
819.0
826.0
829.0
835.0
838.0
842.0
841.0
842.0
843.0
846.0
852.0
854.0
856.0
860.0
862.0
864.0
865.0
866.0
866.0
867.0
867.0
870.0
871.0
874.0
873.0
875.0
875.0
874.0
874.0
870.0
870.0
869.0
868.0
868.0
870.0
872.0
877.0
878.0
876.0
872.0
869.0
867.0
862.0
864.0
862.0
864.0
868.0
869.0
871.0
871.0
871.0
871.0
869.0
868.0
868.0
871.0
873.0
877.0
878.0
880.0
880.0
880.0
876.0
871.0
868.0
863.0
857.0
855.0
852.0
851.0
854.0
863.0
876.0
892.0
906.0
919.0
925.0
927.0
924.0
921.0
916.0
905.0
892.0
867.0
846.0
822.0
800.0
782.0
769.0
759.0
746.0
732.0
720.0
707.0
696.0
687.0
686.0
690.0
695.0
706.0
718.0
727.0
737.0
742.0
750.0
761.0
773.0
784.0
794.0
810.0
818.0
827.0
830.0
836.0
840.0
847.0
854.0
861.0
867.0
874.0
878.0
882.0
887.0
889.0
889.0
891.0
890.0
888.0
887.0
889.0
891.0
894.0
899.0
900.0
901.0
903.0
901.0
900.0
898.0
897.0
898.0
899.0
898.0
901.0
907.0
913.0
916.0
916.0
920.0
922.0
922.0
923.0
924.0
922.0
928.0
932.0
938.0
944.0
946.0
952.0
954.0
955.0
954.0
955.0
955.0
961.0
965.0
972.0
976.0
980.0
984.0
987.0
988.0
990.0
994.0
995.0
999.0
1004.0
1008.0
1011.0
1011.0
1012.0
1010.0
1008.0
1006.0
1005.0
1002.0
998.0
995.0
991.0
987.0
985.0
981.0
980.0
977.0
973.0
969.0
964.0
960.0
956.0
954.0
950.0
946.0
942.0
939.0
937.0
932.0
927.0
922.0
920.0
917.0
915.0
914.0
913.0
910.0
907.0
909.0
907.0
906.0
903.0
904.0
905.0
905.0
901.0
902.0
899.0
900.0
898.0
899.0
900.0
897.0
897.0
897.0
897.0
896.0
899.0
901.0
903.0
902.0
901.0
900.0
900.0
899.0
896.0
893.0
894.0
892.0
891.0
891.0
893.0
892.0
894.0
897.0
897.0
893.0
894.0
895.0
896.0
895.0
893.0
893.0
892.0
890.0
896.0
897.0
899.0
898.0
897.0
891.0
892.0
890.0
888.0
888.0
887.0
888.0
890.0
890.0
891.0
894.0
895.0
891.0
892.0
892.0
893.0
892.0
889.0
884.0
882.0
881.0
878.0
882.0
883.0
885.0
885.0
887.0
886.0
889.0
892.0
894.0
899.0
902.0
909.0
914.0
918.0
929.0
939.0
951.0
967.0
982.0
1002.0
1025.0
1051.0
1076.0
1105.0
1132.0
1155.0
1176.0
1188.0
1192.0
1190.0
1181.0
1165.0
1149.0
1124.0
1098.0
1076.0
1049.0
1024.0
997.0
972.0
948.0
926.0
903.0
884.0
869.0
862.0
856.0
851.0
850.0
847.0
842.0
839.0
833.0
827.0
820.0
817.0
816.0
816.0
818.0
818.0
818.0
817.0
812.0
810.0
807.0
804.0
798.0
798.0
799.0
799.0
799.0
799.0
797.0
795.0
792.0
789.0
786.0
782.0
782.0
782.0
782.0
779.0
781.0
780.0
776.0
772.0
765.0
763.0
760.0
757.0
756.0
756.0
755.0
752.0
752.0
747.0
742.0
737.0
735.0
731.0
727.0
727.0
729.0
730.0
728.0
727.0
729.0
730.0
729.0
729.0
730.0
730.0
731.0
733.0
734.0
736.0
741.0
744.0
751.0
756.0
761.0
768.0
772.0
779.0
784.0
787.0
799.0
803.0
808.0
810.0
813.0
819.0
822.0
823.0
832.0
834.0
835.0
837.0
837.0
838.0
835.0
834.0
836.0
838.0
841.0
842.0
841.0
841.0
842.0
842.0
843.0
843.0
849.0
849.0
847.0
848.0
847.0
847.0
846.0
845.0
846.0
846.0
844.0
846.0
841.0
842.0
840.0
838.0
839.0
833.0
834.0
836.0
832.0
836.0
838.0
838.0
841.0
842.0
843.0
845.0
846.0
844.0
847.0
847.0
849.0
854.0
854.0
853.0
847.0
843.0
835.0
831.0
830.0
832.0
845.0
858.0
875.0
886.0
895.0
903.0
902.0
899.0
892.0
879.0
857.0
833.0
808.0
785.0
769.0
755.0
742.0
728.0
715.0
699.0
684.0
672.0
666.0
667.0
672.0
681.0
690.0
699.0
711.0
719.0
729.0
739.0
745.0
752.0
763.0
773.0
783.0
788.0
799.0
804.0
813.0
817.0
823.0
829.0
836.0
842.0
846.0
850.0
853.0
852.0
850.0
847.0
847.0
850.0
852.0
855.0
861.0
864.0
863.0
862.0
863.0
862.0
863.0
862.0
865.0
865.0
866.0
869.0
871.0
873.0
869.0
874.0
878.0
881.0
883.0
886.0
887.0
888.0
889.0
890.0
897.0
901.0
906.0
909.0
912.0
914.0
914.0
916.0
917.0
924.0
926.0
932.0
942.0
947.0
952.0
956.0
959.0
961.0
965.0
968.0
969.0
975.0
980.0
982.0
982.0
984.0
982.0
981.0
980.0
980.0
975.0
973.0
971.0
970.0
966.0
967.0
965.0
963.0
958.0
956.0
949.0
945.0
943.0
937.0
935.0
932.0
928.0
924.0
923.0
920.0
914.0
910.0
906.0
907.0
905.0
903.0
902.0
899.0
891.0
888.0
886.0
882.0
881.0
883.0
883.0
886.0
889.0
887.0
887.0
885.0
884.0
881.0
882.0
884.0
886.0
890.0
893.0
890.0
887.0
887.0
881.0
883.0
881.0
880.0
879.0
884.0
885.0
886.0
885.0
883.0
882.0
881.0
880.0
