# Simple Text Format
# Sampling Rate (Hz):= 360.00
# Resolution:= 12
# Labels:= ECG
880.0
882.0
884.0
889.0
892.0
890.0
885.0
883.0
877.0
874.0
871.0
868.0
872.0
876.0
879.0
881.0
883.0
884.0
888.0
888.0
888.0
884.0
880.0
873.0
871.0
873.0
878.0
886.0
891.0
891.0
890.0
886.0
879.0
877.0
873.0
875.0
880.0
891.0
901.0
914.0
927.0
934.0
940.0
950.0
963.0
982.0
1007.0
1038.0
1076.0
1118.0
1150.0
1178.0
1193.0
1197.0
1183.0
1160.0
1129.0
1091.0
1054.0
1021.0
992.0
968.0
946.0
926.0
909.0
891.0
876.0
863.0
854.0
849.0
844.0
843.0
841.0
839.0
834.0
831.0
826.0
824.0
822.0
820.0
820.0
820.0
818.0
816.0
814.0
811.0
810.0
807.0
806.0
805.0
805.0
805.0
804.0
803.0
799.0
795.0
792.0
789.0
789.0
786.0
787.0
786.0
785.0
785.0
781.0
774.0
770.0
766.0
764.0
761.0
761.0
759.0
760.0
761.0
758.0
755.0
748.0
741.0
737.0
733.0
732.0
729.0
732.0
734.0
739.0
737.0
738.0
737.0
736.0
736.0
736.0
737.0
741.0
745.0
752.0
754.0
761.0
764.0
766.0
769.0
774.0
776.0
784.0
784.0
790.0
793.0
801.0
805.0
812.0
815.0
818.0
821.0
820.0
821.0
824.0
824.0
827.0
831.0
836.0
839.0
843.0
845.0
847.0
844.0
840.0
838.0
831.0
827.0
825.0
830.0
833.0
836.0
841.0
842.0
841.0
839.0
839.0
836.0
836.0
835.0
838.0
838.0
839.0
840.0
840.0
839.0
839.0
838.0
836.0
836.0
834.0
831.0
830.0
830.0
829.0
832.0
834.0
837.0
838.0
838.0
835.0
835.0
834.0
836.0
840.0
846.0
849.0
852.0
854.0
856.0
854.0
851.0
845.0
837.0
833.0
831.0
828.0
829.0
838.0
845.0
856.0
867.0
876.0
885.0
891.0
887.0
883.0
877.0
871.0
861.0
846.0
826.0
807.0
786.0
767.0
751.0
739.0
728.0
714.0
701.0
690.0
679.0
677.0
678.0
680.0
688.0
696.0
706.0
718.0
728.0
736.0
743.0
752.0
766.0
779.0
792.0
804.0
811.0
815.0
818.0
823.0
825.0
834.0
838.0
846.0
850.0
855.0
859.0
860.0
860.0
861.0
865.0
867.0
865.0
866.0
862.0
864.0
865.0
869.0
870.0
874.0
875.0
874.0
876.0
879.0
877.0
877.0
880.0
884.0
888.0
891.0
895.0
900.0
901.0
903.0
905.0
903.0
901.0
900.0
902.0
906.0
913.0
919.0
927.0
933.0
940.0
943.0
946.0
944.0
946.0
945.0
945.0
948.0
956.0
963.0
967.0
970.0
969.0
970.0
970.0
971.0
975.0
975.0
976.0
975.0
971.0
972.0
971.0
971.0
968.0
961.0
961.0
956.0
949.0
943.0
943.0
941.0
936.0
932.0
928.0
924.0
920.0
918.0
914.0
908.0
901.0
894.0
890.0
888.0
889.0
889.0
892.0
892.0
887.0
883.0
883.0
884.0
885.0
885.0
880.0
874.0
870.0
864.0
863.0
864.0
869.0
871.0
876.0
875.0
871.0
870.0
867.0
864.0
867.0
866.0
867.0
867.0
868.0
867.0
865.0
864.0
862.0
863.0
862.0
863.0
863.0
866.0
868.0
871.0
873.0
876.0
878.0
879.0
873.0
868.0
862.0
858.0
856.0
854.0
861.0
864.0
865.0
866.0
865.0
861.0
860.0
860.0
858.0
858.0
861.0
864.0
865.0
868.0
870.0
864.0
860.0
856.0
856.0
865.0
876.0
888.0
899.0
913.0
925.0
942.0
962.0
979.0
998.0
1022.0
1051.0
1077.0
1103.0
1122.0
1133.0
1140.0
1140.0
1128.0
1113.0
1086.0
1058.0
1023.0
988.0
956.0
925.0
897.0
879.0
862.0
849.0
842.0
833.0
827.0
821.0
816.0
810.0
806.0
797.0
792.0
786.0
782.0
778.0
773.0
774.0
771.0
767.0
765.0
762.0
761.0
760.0
758.0
757.0
761.0
762.0
765.0
767.0
763.0
754.0
747.0
741.0
736.0
736.0
735.0
736.0
733.0
732.0
730.0
726.0
721.0
720.0
717.0
716.0
718.0
716.0
711.0
713.0
707.0
705.0
699.0
693.0
686.0
682.0
679.0
680.0
682.0
681.0
681.0
680.0
680.0
679.0
681.0
680.0
676.0
674.0
670.0
669.0
672.0
673.0
676.0
682.0
682.0
687.0
688.0
687.0
689.0
694.0
696.0
701.0
705.0
707.0
713.0
718.0
722.0
730.0
736.0
744.0
749.0
755.0
763.0
769.0
777.0
777.0
771.0
760.0
751.0
744.0
747.0
752.0
758.0
763.0
767.0
775.0
779.0
782.0
785.0
785.0
785.0
785.0
791.0
789.0
787.0
786.0
785.0
783.0
785.0
786.0
789.0
792.0
796.0
800.0
806.0
805.0
805.0
803.0
797.0
787.0
775.0
770.0
768.0
776.0
783.0
786.0
791.0
788.0
788.0
785.0
785.0
789.0
793.0
795.0
796.0
798.0
800.0
799.0
801.0
803.0
808.0
810.0
812.0
809.0
804.0
801.0
795.0
792.0
792.0
792.0
794.0
797.0
802.0
810.0
818.0
827.0
832.0
838.0
839.0
836.0
835.0
823.0
804.0
783.0
753.0
726.0
704.0
686.0
670.0
655.0
644.0
635.0
629.0
633.0
638.0
649.0
662.0
678.0
690.0
702.0
714.0
724.0
737.0
750.0
764.0
775.0
786.0
793.0
799.0
803.0
799.0
796.0
795.0
797.0
803.0
809.0
815.0
820.0
823.0
827.0
826.0
828.0
829.0
827.0
826.0
829.0
830.0
831.0
836.0
835.0
837.0
841.0
841.0
842.0
844.0
845.0
846.0
849.0
849.0
852.0
860.0
864.0
868.0
869.0
873.0
874.0
870.0
866.0
866.0
867.0
870.0
877.0
883.0
891.0
896.0
906.0
911.0
915.0
917.0
925.0
932.0
935.0
936.0
938.0
937.0
939.0
940.0
944.0
945.0
951.0
952.0
954.0
956.0
958.0
959.0
963.0
962.0
957.0
954.0
946.0
938.0
933.0
930.0
928.0
925.0
923.0
917.0
914.0
913.0
909.0
907.0
905.0
900.0
894.0
889.0
886.0
884.0
880.0
879.0
876.0
873.0
870.0
867.0
869.0
868.0
866.0
864.0
860.0
857.0
851.0
849.0
848.0
848.0
850.0
852.0
857.0
851.0
852.0
850.0
852.0
850.0
853.0
855.0
856.0
856.0
855.0
855.0
853.0
847.0
846.0
843.0
844.0
844.0
846.0
850.0
847.0
850.0
848.0
851.0
851.0
851.0
852.0
849.0
848.0
848.0
849.0
851.0
854.0
856.0
855.0
853.0
855.0
852.0
851.0
848.0
849.0
847.0
848.0
849.0
849.0
849.0
848.0
853.0
854.0
852.0
850.0
850.0
848.0
846.0
848.0
850.0
852.0
851.0
849.0
847.0
849.0
846.0
845.0
845.0
847.0
849.0
852.0
856.0
863.0
867.0
869.0
872.0
876.0
880.0
893.0
904.0
914.0
930.0
948.0
968.0
991.0
1015.0
1038.0
1060.0
1085.0
1105.0
1126.0
1141.0
1149.0
1143.0
1130.0
1105.0
1074.0
1042.0
1009.0
975.0
945.0
922.0
899.0
876.0
855.0
837.0
826.0
815.0
810.0
807.0
809.0
806.0
810.0
803.0
799.0
796.0
797.0
794.0
790.0
785.0
783.0
784.0
782.0
788.0
791.0
795.0
796.0
790.0
784.0
774.0
770.0
763.0
765.0
764.0
762.0
761.0
759.0
760.0
759.0
759.0
759.0
756.0
755.0
752.0
749.0
750.0
750.0
752.0
752.0
753.0
751.0
748.0
743.0
736.0
728.0
726.0
724.0
725.0
727.0
727.0
731.0
724.0
719.0
715.0
709.0
708.0
710.0
710.0
717.0
722.0
719.0
717.0
712.0
712.0
710.0
712.0
715.0
714.0
720.0
724.0
727.0
731.0
737.0
743.0
751.0
757.0
765.0
769.0
772.0
775.0
778.0
782.0
785.0
790.0
792.0
799.0
805.0
810.0
813.0
816.0
819.0
819.0
821.0
825.0
829.0
831.0
832.0
829.0
829.0
824.0
826.0
824.0
828.0
830.0
829.0
830.0
835.0
837.0
843.0
844.0
845.0
841.0
837.0
832.0
829.0
824.0
821.0
821.0
818.0
820.0
820.0
825.0
829.0
832.0
834.0
834.0
831.0
829.0
828.0
825.0
826.0
828.0
828.0
832.0
836.0
837.0
843.0
844.0
845.0
844.0
845.0
847.0
846.0
847.0
845.0
839.0
831.0
826.0
823.0
823.0
834.0
848.0
863.0
878.0
885.0
891.0
891.0
892.0
890.0
883.0
875.0
857.0
833.0
805.0
779.0
759.0
744.0
732.0
720.0
708.0
691.0
684.0
679.0
679.0
683.0
689.0
697.0
705.0
711.0
717.0
724.0
729.0
736.0
746.0
755.0
764.0
775.0
786.0
789.0
796.0
805.0
816.0
824.0
829.0
836.0
838.0
840.0
842.0
846.0
850.0
856.0
861.0
865.0
865.0
869.0
873.0
876.0
879.0
882.0
886.0
889.0
888.0
884.0
882.0
877.0
872.0
872.0
876.0
882.0
887.0
893.0
895.0
898.0
897.0
899.0
900.0
904.0
909.0
914.0
917.0
922.0
927.0
927.0
926.0
925.0
927.0
931.0
932.0
941.0
947.0
953.0
961.0
968.0
968.0
970.0
970.0
970.0
971.0
973.0
980.0
988.0
996.0
1003.0
1013.0
1016.0
1012.0
1011.0
1005.0
1000.0
1000.0
999.0
1000.0
1002.0
1003.0
1002.0
999.0
995.0
989.0
988.0
987.0
982.0
983.0
976.0
973.0
969.0
967.0
965.0
962.0
959.0
956.0
947.0
944.0
938.0
933.0
928.0
925.0
926.0
924.0
922.0
921.0
920.0
912.0
910.0
906.0
901.0
905.0
906.0
906.0
904.0
903.0
899.0
899.0
900.0
899.0
901.0
899.0
899.0
895.0
895.0
900.0
902.0
905.0
906.0
908.0
906.0
904.0
900.0
899.0
899.0
898.0
900.0
901.0
901.0
903.0
906.0
908.0
909.0
910.0
909.0
904.0
904.0
904.0
899.0
900.0
897.0
903.0
905.0
910.0
907.0
906.0
906.0
905.0
903.0
902.0
903.0
903.0
903.0
903.0
901.0
901.0
903.0
902.0
900.0
903.0
902.0
903.0
900.0
902.0
905.0
911.0
916.0
923.0
930.0
939.0
948.0
959.0
973.0
988.0
1008.0
1034.0
1063.0
1092.0
1122.0
1149.0
1174.0
1189.0
1195.0
1194.0
1185.0
1169.0
1147.0
1118.0
1088.0
1055.0
1024.0
997.0
972.0
948.0
928.0
914.0
899.0
892.0
885.0
880.0
876.0
876.0
873.0
871.0
871.0
865.0
857.0
854.0
849.0
846.0
845.0
844.0
842.0
839.0
842.0
843.0
842.0
843.0
842.0
841.0
842.0
841.0
838.0
834.0
833.0
833.0
831.0
831.0
828.0
826.0
821.0
818.0
815.0
815.0
811.0
809.0
810.0
809.0
808.0
806.0
805.0
806.0
804.0
801.0
796.0
794.0
791.0
785.0
788.0
786.0
784.0
783.0
782.0
782.0
781.0
779.0
780.0
778.0
776.0
774.0
778.0
778.0
780.0
780.0
782.0
782.0
781.0
781.0
779.0
783.0
785.0
789.0
794.0
802.0
808.0
815.0
821.0
827.0
832.0
835.0
836.0
838.0
836.0
839.0
847.0
852.0
857.0
861.0
870.0
873.0
875.0
876.0
875.0
877.0
878.0
880.0
881.0
885.0
887.0
889.0
891.0
891.0
892.0
894.0
895.0
894.0
892.0
889.0
889.0
889.0
893.0
895.0
900.0
900.0
902.0
901.0
901.0
899.0
898.0
899.0
899.0
900.0
900.0
900.0
899.0
899.0
898.0
897.0
897.0
896.0
894.0
894.0
897.0
900.0
903.0
902.0
907.0
907.0
909.0
914.0
915.0
919.0
920.0
923.0
923.0
921.0
921.0
916.0
912.0
908.0
904.0
901.0
900.0
896.0
900.0
911.0
925.0
940.0
954.0
962.0
967.0
960.0
958.0
951.0
943.0
929.0
909.0
889.0
866.0
845.0
830.0
818.0
806.0
792.0
775.0
761.0
748.0
742.0
738.0
745.0
755.0
769.0
781.0
798.0
807.0
819.0
830.0
838.0
847.0
857.0
867.0
878.0
890.0
899.0
909.0
914.0
919.0
924.0
928.0
934.0
939.0
944.0
945.0
947.0
947.0
954.0
956.0
957.0
960.0
962.0
961.0
958.0
960.0
956.0
955.0
954.0
956.0
958.0
960.0
968.0
971.0
974.0
976.0
980.0
977.0
978.0
980.0
984.0
984.0
988.0
991.0
994.0
997.0
998.0
1000.0
1004.0
1004.0
1009.0
1010.0
1018.0
1017.0
1022.0
1028.0
1033.0
1037.0
1040.0
1039.0
1044.0
1050.0
1052.0
1057.0
1060.0
1063.0
1067.0
1069.0
1072.0
1077.0
1076.0
1076.0
1076.0
1073.0
1070.0
1068.0
1066.0
1061.0
1058.0
1056.0
1055.0
1050.0
1043.0
1035.0
1029.0
1022.0
1017.0
1016.0
1011.0
1008.0
1008.0
1005.0
1003.0
1002.0
999.0
992.0
990.0
987.0
982.0
979.0
981.0
981.0
983.0
983.0
983.0
978.0
973.0
972.0
972.0
968.0
969.0
971.0
973.0
972.0
972.0
970.0
968.0
970.0
968.0
968.0
968.0
968.0
966.0
967.0
966.0
965.0
967.0
967.0
970.0
973.0
974.0
974.0
972.0
973.0
972.0
970.0
969.0
969.0
970.0
970.0
975.0
975.0
974.0
975.0
970.0
963.0
962.0
962.0
966.0
974.0
980.0
988.0
994.0
1004.0
1013.0
1023.0
1033.0
1052.0
1075.0
1098.0
1128.0
1160.0
1191.0
1222.0
1248.0
1265.0
1271.0
1267.0
1254.0
1230.0
1203.0
1174.0
1144.0
1110.0
1080.0
1049.0
1019.0
994.0
975.0
955.0
942.0
933.0
927.0
920.0
920.0
916.0
915.0
914.0
914.0
913.0
909.0
905.0
902.0
896.0
890.0
883.0
879.0
879.0
879.0
878.0
876.0
875.0
879.0
878.0
877.0
879.0
876.0
873.0
867.0
863.0
859.0
853.0
852.0
851.0
849.0
847.0
841.0
837.0
833.0
824.0
823.0
821.0
820.0
821.0
818.0
820.0
818.0
815.0
812.0
808.0
803.0
795.0
795.0
788.0
786.0
786.0
784.0
787.0
786.0
784.0
782.0
779.0
778.0
775.0
776.0
776.0
778.0
779.0
781.0
781.0
783.0
783.0
789.0
789.0
791.0
796.0
800.0
809.0
814.0
820.0
824.0
827.0
828.0
831.0
832.0
833.0
837.0
845.0
852.0
858.0
867.0
873.0
876.0
880.0
880.0
883.0
883.0
884.0
880.0
884.0
886.0
884.0
882.0
884.0
887.0
893.0
897.0
898.0
900.0
894.0
890.0
885.0
886.0
884.0
885.0
888.0
889.0
894.0
894.0
895.0
897.0
895.0
891.0
888.0
885.0
882.0
883.0
885.0
888.0
889.0
890.0
891.0
888.0
892.0
890.0
888.0
885.0
884.0
887.0
891.0
899.0
904.0
907.0
904.0
903.0
900.0
895.0
887.0
881.0
876.0
871.0
871.0
871.0
878.0
882.0
894.0
905.0
916.0
922.0
923.0
918.0
911.0
904.0
896.0
881.0
859.0
830.0
799.0
774.0
754.0
739.0
729.0
717.0
707.0
698.0
693.0
695.0
704.0
716.0
728.0
742.0
752.0
767.0
775.0
783.0
796.0
807.0
817.0
830.0
840.0
853.0
862.0
866.0
871.0
872.0
875.0
882.0
891.0
899.0
908.0
913.0
914.0
917.0
917.0
919.0
916.0
912.0
914.0
914.0
913.0
916.0
920.0
922.0
923.0
922.0
924.0
921.0
920.0
924.0
931.0
935.0
939.0
937.0
934.0
934.0
932.0
932.0
930.0
932.0
935.0
938.0
944.0
953.0
958.0
963.0
968.0
973.0
975.0
975.0
972.0
973.0
974.0
976.0
978.0
982.0
988.0
993.0
999.0
1005.0
1009.0
1010.0
1013.0
1018.0
1024.0
1030.0
1035.0
1034.0
1035.0
1033.0
1032.0
1032.0
1033.0
1034.0
1033.0
1029.0
1026.0
1021.0
1015.0
1013.0
1008.0
1008.0
1006.0
1004.0
1002.0
995.0
987.0
978.0
970.0
966.0
961.0
961.0
961.0
958.0
954.0
947.0
942.0
940.0
937.0
935.0
930.0
925.0
920.0
915.0
907.0
903.0
901.0
906.0
914.0
922.0
925.0
919.0
916.0
908.0
903.0
897.0
895.0
897.0
899.0
901.0
903.0
907.0
908.0
910.0
917.0
920.0
921.0
919.0
921.0
916.0
907.0
898.0
895.0
888.0
887.0
893.0
898.0
903.0
903.0
905.0
907.0
907.0
904.0
897.0
898.0
896.0
898.0
898.0
898.0
897.0
896.0
895.0
895.0
898.0
902.0
900.0
899.0
898.0
897.0
894.0
884.0
871.0
866.0
867.0
876.0
887.0
898.0
906.0
908.0
908.0
908.0
903.0
894.0
891.0
887.0
883.0
883.0
880.0
875.0
871.0
868.0
869.0
873.0
879.0
888.0
892.0
896.0
895.0
890.0
882.0
876.0
872.0
871.0
872.0
876.0
884.0
887.0
888.0
887.0
883.0
883.0
882.0
884.0
889.0
892.0
895.0
895.0
894.0
896.0
905.0
913.0
918.0
928.0
937.0
950.0
967.0
992.0
1012.0
1035.0
1063.0
1094.0
1127.0
1161.0
1189.0
1208.0
1211.0
1201.0
1177.0
1148.0
1120.0
1095.0
1069.0
1044.0
1015.0
987.0
959.0
931.0
900.0
873.0
853.0
846.0
846.0
846.0
848.0
842.0
832.0
822.0
814.0
814.0
819.0
824.0
829.0
833.0
829.0
820.0
808.0
800.0
796.0
799.0
804.0
806.0
810.0
808.0
805.0
803.0
802.0
803.0
802.0
800.0
798.0
791.0
781.0
772.0
774.0
777.0
780.0
789.0
793.0
798.0
797.0
794.0
787.0
775.0
770.0
768.0
772.0
770.0
767.0
765.0
766.0
770.0
764.0
755.0
747.0
733.0
722.0
720.0
723.0
735.0
748.0
758.0
761.0
758.0
750.0
742.0
737.0
733.0
729.0
731.0
733.0
734.0
736.0
738.0
739.0
739.0
743.0
746.0
749.0
754.0
759.0
765.0
772.0
780.0
788.0
792.0
799.0
802.0
804.0
803.0
802.0
801.0
803.0
809.0
816.0
824.0
831.0
837.0
844.0
851.0
849.0
846.0
843.0
842.0
844.0
844.0
842.0
840.0
841.0
844.0
847.0
846.0
847.0
851.0
857.0
857.0
858.0
860.0
859.0
860.0
857.0
858.0
861.0
860.0
857.0
852.0
843.0
840.0
837.0
838.0
840.0
841.0
840.0
845.0
853.0
860.0
867.0
871.0
874.0
879.0
876.0
873.0
869.0
863.0
857.0
852.0
848.0
841.0
835.0
830.0
831.0
836.0
848.0
866.0
884.0
899.0
909.0
909.0
904.0
897.0
881.0
859.0
833.0
800.0
766.0
736.0
716.0
699.0
684.0
670.0
660.0
651.0
645.0
645.0
648.0
658.0
669.0
684.0
698.0
710.0
719.0
726.0
732.0
734.0
735.0
739.0
748.0
764.0
781.0
797.0
812.0
828.0
841.0
854.0
865.0
877.0
887.0
889.0
891.0
892.0
892.0
895.0
897.0
904.0
910.0
914.0
913.0
911.0
907.0
902.0
897.0
892.0
887.0
889.0
894.0
902.0
907.0
910.0
913.0
914.0
917.0
918.0
918.0
916.0
913.0
913.0
916.0
922.0
927.0
936.0
939.0
942.0
944.0
942.0
951.0
956.0
961.0
968.0
975.0
984.0
988.0
993.0
992.0
990.0
990.0
991.0
995.0
997.0
998.0
1003.0
1011.0
1022.0
1032.0
1043.0
1046.0
1045.0
1039.0
1034.0
1030.0
1024.0
1024.0
1024.0
1027.0
1026.0
1023.0
1021.0
1015.0
1009.0
1004.0
998.0
992.0
989.0
983.0
976.0
972.0
967.0
962.0
957.0
951.0
947.0
945.0
946.0
944.0
941.0
936.0
929.0
925.0
921.0
918.0
916.0
919.0
919.0
922.0
927.0
929.0
925.0
924.0
915.0
909.0
904.0
903.0
903.0
909.0
913.0
918.0
916.0
913.0
908.0
907.0
905.0
906.0
910.0
916.0
920.0
916.0
912.0
915.0
914.0
916.0
914.0
913.0
909.0
906.0
903.0
907.0
913.0
919.0
920.0
921.0
915.0
909.0
902.0
898.0
903.0
913.0
921.0
925.0
919.0
907.0
895.0
890.0
891.0
896.0
904.0
917.0
927.0
937.0
939.0
936.0
927.0
918.0
911.0
905.0
902.0
902.0
904.0
906.0
911.0
918.0
924.0
934.0
945.0
954.0
963.0
969.0
983.0
1000.0
1021.0
1047.0
1080.0
1110.0
1138.0
1165.0
1188.0
1211.0
1216.0
1214.0
1203.0
1186.0
1166.0
1142.0
1116.0
1086.0
1055.0
1022.0
988.0
956.0
931.0
913.0
901.0
897.0
895.0
891.0
888.0
881.0
876.0
866.0
859.0
856.0
854.0
852.0
846.0
842.0
833.0
831.0
837.0
840.0
846.0
848.0
849.0
847.0
841.0
834.0
827.0
822.0
818.0
821.0
824.0
825.0
826.0
825.0
823.0
822.0
819.0
812.0
805.0
797.0
793.0
794.0
797.0
800.0
802.0
800.0
802.0
804.0
803.0
799.0
794.0
784.0
778.0
775.0
774.0
773.0
781.0
776.0
772.0
769.0
765.0
766.0
763.0
763.0
763.0
763.0
764.0
771.0
780.0
784.0
784.0
786.0
784.0
783.0
782.0
786.0
790.0
796.0
804.0
814.0
821.0
824.0
826.0
825.0
827.0
834.0
843.0
852.0
860.0
865.0
870.0
871.0
872.0
872.0
870.0
871.0
872.0
876.0
884.0
889.0
892.0
893.0
890.0
883.0
880.0
876.0
878.0
885.0
890.0
898.0
902.0
908.0
905.0
903.0
902.0
897.0
893.0
891.0
887.0
886.0
886.0
888.0
891.0
890.0
891.0
890.0
890.0
890.0
892.0
891.0
889.0
888.0
881.0
883.0
881.0
881.0
883.0
888.0
895.0
901.0
907.0
910.0
910.0
908.0
904.0
904.0
901.0
907.0
907.0
910.0
908.0
905.0
901.0
894.0
889.0
883.0
879.0
878.0
881.0
890.0
909.0
932.0
954.0
968.0
972.0
964.0
949.0
926.0
895.0
862.0
824.0
793.0
765.0
749.0
737.0
724.0
714.0
705.0
698.0
697.0
699.0
708.0
721.0
739.0
759.0
771.0
782.0
796.0
806.0
818.0
828.0
839.0
846.0
854.0
860.0
863.0
867.0
872.0
876.0
882.0
890.0
898.0
908.0
917.0
924.0
931.0
937.0
943.0
941.0
942.0
937.0
933.0
931.0
932.0
932.0
934.0
931.0
928.0
925.0
923.0
925.0
933.0
937.0
950.0
960.0
964.0
967.0
972.0
969.0
970.0
967.0
964.0
960.0
959.0
960.0
967.0
981.0
995.0
1002.0
1008.0
1007.0
1004.0
1001.0
1006.0
1015.0
1023.0
1032.0
1041.0
1044.0
1050.0
1055.0
1059.0
1061.0
1064.0
1064.0
1065.0
1066.0
1063.0
1058.0
1054.0
1053.0
1054.0
1054.0
1053.0
1050.0
1046.0
1039.0
1032.0
1024.0
1014.0
1010.0
1000.0
996.0
995.0
993.0
990.0
987.0
987.0
982.0
980.0
974.0
972.0
971.0
968.0
965.0
963.0
957.0
957.0
953.0
953.0
952.0
949.0
947.0
947.0
949.0
951.0
954.0
954.0
952.0
951.0
951.0
946.0
946.0
946.0
943.0
945.0
944.0
941.0
942.0
941.0
948.0
952.0
957.0
960.0
958.0
955.0
949.0
944.0
942.0
941.0
943.0
948.0
948.0
953.0
955.0
957.0
958.0
953.0
950.0
944.0
942.0
939.0
941.0
941.0
941.0
943.0
943.0
942.0
944.0
942.0
946.0
950.0
952.0
950.0
949.0
950.0
951.0
955.0
956.0
957.0
958.0
961.0
967.0
975.0
988.0
1006.0
1023.0
1040.0
1060.0
1082.0
1105.0
1127.0
1148.0
1168.0
1188.0
1207.0
1223.0
1240.0
1251.0
1256.0
1253.0
1242.0
1226.0
1205.0
1180.0
1151.0
1117.0
1082.0
1043.0
1014.0
984.0
961.0
936.0
920.0
910.0
903.0
899.0
897.0
895.0
890.0
883.0
881.0
877.0
874.0
868.0
865.0
862.0
866.0
868.0
868.0
867.0
863.0
858.0
855.0
855.0
855.0
855.0
853.0
849.0
845.0
838.0
837.0
839.0
847.0
852.0
851.0
845.0
836.0
829.0
824.0
825.0
832.0
835.0
837.0
837.0
832.0
827.0
821.0
815.0
809.0
808.0
807.0
809.0
808.0
804.0
803.0
796.0
794.0
790.0
788.0
786.0
787.0
787.0
787.0
786.0
786.0
789.0
790.0
790.0
785.0
780.0
777.0
776.0
781.0
788.0
794.0
798.0
800.0
799.0
800.0
800.0
799.0
801.0
806.0
810.0
819.0
829.0
839.0
850.0
855.0
855.0
857.0
858.0
860.0
865.0
871.0
876.0
881.0
886.0
887.0
888.0
895.0
897.0
900.0
897.0
897.0
898.0
898.0
898.0
899.0
901.0
907.0
912.0
918.0
919.0
917.0
913.0
905.0
900.0
900.0
901.0
900.0
906.0
908.0
912.0
912.0
909.0
905.0
904.0
903.0
905.0
907.0
909.0
910.0
909.0
908.0
907.0
902.0
900.0
897.0
899.0
901.0
903.0
905.0
907.0
907.0
910.0
917.0
923.0
922.0
923.0
920.0
915.0
911.0
908.0
904.0
900.0
901.0
903.0
908.0
916.0
934.0
951.0
971.0
987.0
994.0
988.0
970.0
939.0
896.0
853.0
815.0
788.0
768.0
757.0
748.0
736.0
726.0
715.0
711.0
714.0
724.0
743.0
764.0
782.0
796.0
801.0
810.0
819.0
831.0
841.0
850.0
857.0
864.0
869.0
875.0
878.0
881.0
883.0
890.0
898.0
909.0
925.0
935.0
940.0
941.0
938.0
935.0
932.0
933.0
931.0
933.0
937.0
937.0
938.0
938.0
941.0
942.0
946.0
947.0
944.0
943.0
943.0
946.0
949.0
950.0
950.0
951.0
947.0
949.0
954.0
964.0
975.0
984.0
989.0
992.0
989.0
987.0
990.0
996.0
1001.0
1007.0
1010.0
1013.0
1018.0
1025.0
1029.0
1032.0
1030.0
1036.0
1041.0
1053.0
1060.0
1067.0
1070.0
1069.0
1070.0
1072.0
1070.0
1070.0
1068.0
1067.0
1068.0
1068.0
1070.0
1070.0
1072.0
1071.0
1067.0
1059.0
1051.0
1048.0
1045.0
1043.0
1039.0
1032.0
1023.0
1016.0
1015.0
1014.0
1014.0
1014.0
1011.0
1006.0
1000.0
992.0
987.0
983.0
981.0
982.0
979.0
978.0
974.0
971.0
968.0
965.0
963.0
961.0
962.0
964.0
965.0
965.0
963.0
963.0
962.0
960.0
955.0
957.0
954.0
952.0
952.0
951.0
952.0
954.0
957.0
957.0
961.0
962.0
963.0
964.0
963.0
962.0
960.0
957.0
958.0
955.0
955.0
957.0
961.0
962.0
959.0
959.0
957.0
953.0
952.0
952.0
955.0
960.0
961.0
962.0
960.0
958.0
954.0
952.0
956.0
956.0
958.0
957.0
956.0
961.0
960.0
960.0
957.0
959.0
954.0
954.0
953.0
951.0
948.0
946.0
946.0
945.0
948.0
952.0
957.0
963.0
965.0
966.0
963.0
957.0
954.0
949.0
952.0
954.0
963.0
974.0
987.0
998.0
1012.0
1022.0
1033.0
1045.0
1061.0
1085.0
1111.0
1144.0
1175.0
1205.0
1231.0
1254.0
1263.0
1265.0
1254.0
1239.0
1222.0
1202.0
1182.0
1156.0
1127.0
1098.0
1066.0
1035.0
1004.0
972.0
951.0
931.0
922.0
916.0
916.0
918.0
919.0
917.0
911.0
902.0
891.0
881.0
877.0
879.0
883.0
889.0
893.0
891.0
889.0
884.0
880.0
876.0
874.0
872.0
874.0
874.0
876.0
873.0
871.0
868.0
863.0
860.0
858.0
858.0
858.0
857.0
857.0
854.0
851.0
850.0
849.0
850.0
849.0
849.0
845.0
842.0
838.0
834.0
827.0
823.0
818.0
815.0
815.0
814.0
815.0
816.0
814.0
811.0
806.0
803.0
797.0
798.0
799.0
799.0
802.0
803.0
803.0
807.0
808.0
810.0
811.0
814.0
817.0
817.0
820.0
821.0
828.0
833.0
840.0
847.0
852.0
854.0
859.0
862.0
866.0
872.0
876.0
885.0
892.0
896.0
899.0
899.0
899.0
899.0
900.0
901.0
903.0
902.0
904.0
909.0
913.0
917.0
920.0
921.0
919.0
924.0
925.0
930.0
931.0
926.0
924.0
924.0
925.0
924.0
926.0
927.0
929.0
929.0
932.0
930.0
927.0
925.0
921.0
919.0
920.0
919.0
917.0
921.0
923.0
926.0
929.0
930.0
925.0
924.0
923.0
922.0
923.0
924.0
924.0
924.0
925.0
926.0
928.0
932.0
936.0
941.0
945.0
944.0
941.0
934.0
929.0
928.0
926.0
926.0
928.0
930.0
939.0
950.0
966.0
981.0
993.0
1000.0
998.0
996.0
988.0
971.0
952.0
925.0
894.0
862.0
837.0
816.0
807.0
798.0
790.0
777.0
766.0
754.0
745.0
741.0
739.0
745.0
755.0
766.0
784.0
799.0
813.0
822.0
834.0
842.0
848.0
858.0
868.0
874.0
883.0
892.0
898.0
906.0
915.0
926.0
933.0
940.0
943.0
949.0
949.0
946.0
948.0
948.0
948.0
952.0
956.0
960.0
963.0
965.0
965.0
964.0
963.0
960.0
960.0
960.0
960.0
960.0
958.0
962.0
967.0
976.0
983.0
990.0
991.0
992.0
989.0
987.0
987.0
990.0
993.0
996.0
999.0
1003.0
1007.0
1008.0
1010.0
1012.0
1017.0
1022.0
1028.0
1034.0
1038.0
1042.0
1044.0
1049.0
1056.0
1057.0
1056.0
1057.0
1061.0
1066.0
1074.0
1078.0
1084.0
1087.0
1088.0
1089.0
1086.0
1086.0
1083.0
1080.0
1080.0
1079.0
1080.0
1078.0
1078.0
1077.0
1070.0
1069.0
1064.0
1057.0
1051.0
1045.0
1041.0
1041.0
1038.0
1035.0
1027.0
1022.0
1017.0
1011.0
1008.0
1007.0
1007.0
1003.0
996.0
992.0
989.0
988.0
987.0
987.0
986.0
985.0
983.0
979.0
975.0
973.0
970.0
968.0
969.0
970.0
973.0
977.0
978.0
977.0
973.0
968.0
965.0
960.0
957.0
960.0
965.0
969.0
971.0
973.0
971.0
968.0
966.0
965.0
966.0
968.0
969.0
969.0
967.0
964.0
963.0
966.0
963.0
961.0
959.0
963.0
966.0
968.0
970.0
964.0
962.0
960.0
959.0
961.0
960.0
960.0
960.0
963.0
966.0
965.0
962.0
961.0
960.0
960.0
962.0
967.0
964.0
965.0
960.0
958.0
957.0
955.0
954.0
955.0
957.0
961.0
970.0
978.0
989.0
996.0
1005.0
1015.0
1024.0
1040.0
1062.0
1090.0
1121.0
1153.0
1186.0
1215.0
1240.0
1257.0
1266.0
1265.0
1254.0
