# Simple Text Format
# Sampling Rate (Hz):= 360.00
# Resolution:= 12
# Labels:= ECG
949.0
945.0
945.0
943.0
942.0
939.0
941.0
944.0
945.0
945.0
945.0
946.0
944.0
942.0
940.0
939.0
941.0
941.0
944.0
944.0
941.0
948.0
947.0
946.0
950.0
948.0
947.0
952.0
958.0
965.0
972.0
984.0
996.0
1013.0
1032.0
1052.0
1076.0
1109.0
1144.0
1186.0
1231.0
1276.0
1316.0
1348.0
1368.0
1376.0
1373.0
1363.0
1344.0
1323.0
1292.0
1255.0
1211.0
1156.0
1095.0
1042.0
992.0
956.0
934.0
921.0
914.0
910.0
907.0
903.0
897.0
892.0
886.0
885.0
879.0
875.0
873.0
870.0
867.0
864.0
862.0
860.0
859.0
858.0
858.0
859.0
861.0
861.0
858.0
860.0
855.0
853.0
848.0
846.0
841.0
838.0
835.0
835.0
836.0
836.0
836.0
834.0
832.0
830.0
824.0
821.0
821.0
820.0
815.0
815.0
813.0
810.0
807.0
805.0
803.0
797.0
792.0
788.0
783.0
782.0
778.0
778.0
775.0
774.0
770.0
769.0
765.0
764.0
760.0
760.0
758.0
759.0
762.0
763.0
762.0
766.0
771.0
772.0
774.0
774.0
777.0
779.0
781.0
785.0
790.0
799.0
801.0
805.0
812.0
818.0
822.0
828.0
832.0
837.0
839.0
842.0
851.0
855.0
861.0
868.0
872.0
874.0
877.0
883.0
886.0
887.0
891.0
893.0
896.0
900.0
901.0
903.0
906.0
909.0
909.0
907.0
906.0
906.0
907.0
907.0
909.0
908.0
909.0
909.0
911.0
908.0
909.0
906.0
905.0
908.0
905.0
906.0
906.0
906.0
905.0
905.0
907.0
905.0
903.0
905.0
903.0
901.0
902.0
903.0
905.0
908.0
911.0
913.0
914.0
912.0
911.0
903.0
901.0
897.0
894.0
902.0
907.0
922.0
939.0
961.0
988.0
1017.0
1043.0
1064.0
1082.0
1096.0
1105.0
1109.0
1105.0
1093.0
1071.0
1045.0
1019.0
1000.0
981.0
964.0
950.0
933.0
912.0
888.0
864.0
838.0
818.0
802.0
795.0
790.0
790.0
790.0
794.0
797.0
799.0
802.0
805.0
807.0
814.0
824.0
836.0
843.0
852.0
861.0
867.0
874.0
880.0
889.0
896.0
903.0
910.0
913.0
915.0
915.0
913.0
910.0
908.0
906.0
908.0
906.0
907.0
906.0
905.0
906.0
905.0
902.0
900.0
895.0
892.0
888.0
887.0
884.0
886.0
888.0
889.0
891.0
896.0
894.0
893.0
896.0
897.0
898.0
899.0
899.0
901.0
905.0
908.0
911.0
914.0
916.0
920.0
919.0
926.0
929.0
934.0
942.0
947.0
954.0
961.0
970.0
975.0
979.0
987.0
994.0
997.0
1002.0
1007.0
1013.0
1017.0
1021.0
1026.0
1028.0
1029.0
1028.0
1026.0
1025.0
1022.0
1022.0
1015.0
1014.0
1011.0
1006.0
1005.0
1001.0
999.0
995.0
988.0
984.0
976.0
971.0
967.0
966.0
962.0
961.0
958.0
957.0
957.0
953.0
951.0
950.0
946.0
944.0
943.0
940.0
939.0
939.0
940.0
942.0
941.0
940.0
940.0
939.0
939.0
936.0
936.0
936.0
938.0
939.0
939.0
941.0
939.0
941.0
940.0
937.0
940.0
938.0
937.0
939.0
939.0
938.0
940.0
940.0
941.0
940.0
941.0
942.0
940.0
940.0
941.0
939.0
940.0
941.0
942.0
943.0
944.0
942.0
940.0
939.0
939.0
937.0
937.0
934.0
934.0
937.0
939.0
939.0
940.0
936.0
937.0
939.0
935.0
934.0
934.0
934.0
933.0
936.0
936.0
939.0
940.0
938.0
937.0
938.0
936.0
934.0
935.0
935.0
936.0
941.0
950.0
956.0
962.0
969.0
974.0
982.0
993.0
1002.0
1014.0
1028.0
1048.0
1070.0
1094.0
1126.0
1156.0
1190.0
1225.0
1253.0
1281.0
1304.0
1320.0
1332.0
1335.0
1333.0
1325.0
1316.0
1304.0
1289.0
1271.0
1246.0
1212.0
1170.0
1119.0
1066.0
1016.0
976.0
942.0
922.0
910.0
903.0
900.0
895.0
890.0
886.0
879.0
875.0
870.0
867.0
865.0
859.0
857.0
854.0
853.0
850.0
845.0
843.0
841.0
841.0
847.0
845.0
845.0
844.0
845.0
845.0
841.0
840.0
838.0
836.0
829.0
826.0
825.0
822.0
822.0
824.0
823.0
819.0
818.0
817.0
815.0
811.0
811.0
808.0
808.0
808.0
804.0
803.0
800.0
795.0
794.0
790.0
786.0
784.0
779.0
776.0
774.0
773.0
770.0
768.0
767.0
763.0
761.0
760.0
760.0
755.0
757.0
754.0
754.0
755.0
757.0
759.0
760.0
761.0
760.0
762.0
763.0
765.0
768.0
770.0
775.0
780.0
784.0
789.0
796.0
801.0
805.0
810.0
817.0
821.0
827.0
834.0
840.0
847.0
850.0
855.0
863.0
864.0
871.0
873.0
874.0
878.0
877.0
880.0
881.0
885.0
887.0
888.0
891.0
892.0
892.0
892.0
891.0
890.0
890.0
893.0
892.0
894.0
895.0
896.0
892.0
890.0
891.0
889.0
888.0
890.0
886.0
887.0
886.0
888.0
889.0
890.0
893.0
891.0
891.0
890.0
890.0
890.0
890.0
888.0
894.0
896.0
896.0
898.0
896.0
893.0
889.0
889.0
888.0
893.0
902.0
917.0
940.0
972.0
1004.0
1037.0
1066.0
1084.0
1093.0
1092.0
1071.0
1042.0
1004.0
973.0
947.0
926.0
904.0
881.0
858.0
831.0
808.0
793.0
787.0
784.0
787.0
795.0
802.0
811.0
816.0
822.0
829.0
834.0
842.0
846.0
850.0
857.0
862.0
865.0
868.0
874.0
878.0
881.0
886.0
886.0
885.0
885.0
888.0
887.0
884.0
887.0
887.0
889.0
892.0
895.0
895.0
896.0
896.0
892.0
892.0
891.0
888.0
887.0
885.0
885.0
885.0
885.0
885.0
887.0
885.0
886.0
888.0
888.0
888.0
888.0
892.0
893.0
896.0
898.0
902.0
903.0
908.0
909.0
914.0
917.0
922.0
926.0
933.0
940.0
949.0
954.0
960.0
965.0
972.0
974.0
979.0
981.0
987.0
991.0
997.0
1003.0
1008.0
1010.0
1014.0
1017.0
1016.0
1018.0
1015.0
1015.0
1014.0
1012.0
1011.0
1010.0
1011.0
1010.0
1008.0
1005.0
1002.0
994.0
990.0
987.0
981.0
978.0
976.0
973.0
971.0
971.0
969.0
965.0
959.0
956.0
953.0
952.0
948.0
948.0
945.0
944.0
942.0
944.0
943.0
940.0
938.0
936.0
934.0
933.0
934.0
932.0
933.0
931.0
934.0
937.0
936.0
937.0
935.0
937.0
935.0
933.0
933.0
932.0
933.0
934.0
935.0
936.0
939.0
937.0
940.0
940.0
938.0
935.0
934.0
934.0
935.0
936.0
937.0
937.0
940.0
938.0
940.0
937.0
937.0
933.0
934.0
932.0
932.0
935.0
932.0
936.0
936.0
935.0
935.0
934.0
932.0
930.0
930.0
931.0
929.0
933.0
932.0
935.0
936.0
935.0
935.0
934.0
932.0
931.0
930.0
932.0
932.0
934.0
936.0
937.0
937.0
936.0
937.0
938.0
938.0
942.0
948.0
954.0
959.0
966.0
979.0
991.0
1004.0
1018.0
1038.0
1060.0
1088.0
1120.0
1157.0
1194.0
1235.0
1271.0
1301.0
1320.0
1329.0
1326.0
1316.0
1300.0
1279.0
1258.0
1228.0
1197.0
1160.0
1114.0
1068.0
1021.0
983.0
949.0
927.0
911.0
901.0
896.0
890.0
888.0
886.0
883.0
878.0
876.0
872.0
866.0
863.0
856.0
854.0
851.0
851.0
853.0
853.0
853.0
854.0
854.0
854.0
851.0
853.0
846.0
845.0
842.0
839.0
836.0
837.0
834.0
831.0
829.0
829.0
826.0
824.0
823.0
824.0
819.0
817.0
813.0
813.0
809.0
808.0
804.0
803.0
801.0
798.0
791.0
786.0
783.0
777.0
774.0
768.0
768.0
767.0
765.0
767.0
768.0
768.0
767.0
767.0
767.0
767.0
769.0
770.0
773.0
779.0
780.0
785.0
789.0
793.0
795.0
800.0
803.0
808.0
815.0
820.0
829.0
835.0
842.0
847.0
856.0
859.0
865.0
868.0
871.0
871.0
878.0
881.0
884.0
886.0
892.0
896.0
898.0
899.0
900.0
900.0
898.0
899.0
900.0
901.0
900.0
904.0
907.0
907.0
908.0
909.0
908.0
907.0
906.0
905.0
903.0
904.0
904.0
904.0
905.0
906.0
904.0
904.0
903.0
903.0
901.0
901.0
901.0
900.0
906.0
907.0
909.0
911.0
912.0
910.0
906.0
901.0
898.0
896.0
896.0
901.0
919.0
937.0
964.0
995.0
1023.0
1048.0
1066.0
1084.0
1093.0
1093.0
1081.0
1059.0
1028.0
998.0
969.0
946.0
933.0
919.0
901.0
882.0
859.0
835.0
813.0
799.0
787.0
786.0
788.0
790.0
796.0
798.0
799.0
799.0
800.0
802.0
802.0
808.0
818.0
827.0
838.0
852.0
860.0
872.0
877.0
884.0
889.0
896.0
901.0
909.0
912.0
917.0
917.0
919.0
915.0
918.0
916.0
915.0
913.0
912.0
909.0
908.0
909.0
907.0
907.0
909.0
905.0
902.0
899.0
895.0
894.0
892.0
896.0
895.0
900.0
904.0
906.0
909.0
911.0
913.0
912.0
913.0
912.0
914.0
916.0
919.0
923.0
926.0
930.0
932.0
935.0
943.0
949.0
956.0
959.0
966.0
970.0
977.0
982.0
987.0
994.0
1003.0
1007.0
1011.0
1014.0
1015.0
1017.0
1021.0
1023.0
1026.0
1030.0
1034.0
1037.0
1038.0
1040.0
1038.0
1037.0
1035.0
1031.0
1025.0
1025.0
1023.0
1020.0
1019.0
1013.0
1010.0
1006.0
1000.0
996.0
992.0
988.0
981.0
980.0
973.0
971.0
968.0
967.0
965.0
961.0
960.0
958.0
953.0
952.0
948.0
951.0
947.0
947.0
948.0
949.0
948.0
946.0
951.0
947.0
946.0
943.0
945.0
944.0
942.0
946.0
946.0
949.0
951.0
949.0
946.0
946.0
946.0
946.0
947.0
944.0
944.0
947.0
949.0
950.0
953.0
952.0
954.0
951.0
949.0
948.0
946.0
946.0
946.0
948.0
947.0
950.0
949.0
950.0
948.0
946.0
946.0
943.0
943.0
939.0
939.0
943.0
941.0
944.0
946.0
946.0
944.0
942.0
942.0
938.0
940.0
938.0
938.0
939.0
941.0
942.0
944.0
942.0
941.0
940.0
938.0
939.0
938.0
936.0
938.0
940.0
941.0
940.0
944.0
944.0
942.0
943.0
941.0
942.0
942.0
946.0
950.0
955.0
963.0
971.0
981.0
990.0
1002.0
1014.0
1029.0
1043.0
1065.0
1092.0
1121.0
1154.0
1192.0
1233.0
1272.0
1307.0
1338.0
1359.0
1372.0
1377.0
1370.0
1359.0
1349.0
1333.0
1314.0
1290.0
1256.0
1209.0
1155.0
1096.0
1037.0
986.0
944.0
918.0
903.0
896.0
896.0
895.0
896.0
892.0
887.0
880.0
871.0
864.0
859.0
853.0
849.0
849.0
850.0
851.0
852.0
851.0
847.0
847.0
844.0
843.0
840.0
838.0
835.0
835.0
834.0
834.0
833.0
829.0
826.0
822.0
819.0
818.0
815.0
813.0
810.0
812.0
810.0
809.0
810.0
810.0
806.0
802.0
799.0
794.0
791.0
789.0
786.0
781.0
782.0
780.0
780.0
775.0
770.0
767.0
762.0
764.0
757.0
758.0
756.0
754.0
753.0
754.0
753.0
753.0
750.0
749.0
749.0
747.0
749.0
747.0
752.0
757.0
760.0
762.0
766.0
769.0
776.0
779.0
784.0
789.0
793.0
797.0
801.0
810.0
818.0
825.0
832.0
837.0
844.0
849.0
857.0
860.0
864.0
870.0
872.0
877.0
881.0
885.0
889.0
892.0
891.0
891.0
891.0
891.0
893.0
895.0
897.0
898.0
900.0
899.0
901.0
901.0
903.0
902.0
900.0
900.0
897.0
897.0
900.0
899.0
900.0
900.0
901.0
902.0
900.0
900.0
899.0
898.0
897.0
895.0
895.0
898.0
897.0
900.0
902.0
903.0
902.0
901.0
901.0
901.0
899.0
896.0
896.0
891.0
889.0
885.0
891.0
898.0
907.0
922.0
945.0
970.0
998.0
1023.0
1049.0
1073.0
1090.0
1104.0
1111.0
1104.0
1085.0
1059.0
1027.0
993.0
971.0
952.0
936.0
919.0
900.0
878.0
854.0
831.0
810.0
797.0
790.0
789.0
791.0
796.0
799.0
804.0
812.0
820.0
823.0
827.0
832.0
836.0
842.0
847.0
852.0
857.0
861.0
865.0
870.0
874.0
878.0
881.0
885.0
888.0
889.0
888.0
888.0
888.0
888.0
890.0
889.0
890.0
895.0
895.0
896.0
895.0
895.0
893.0
893.0
893.0
894.0
892.0
893.0
894.0
895.0
894.0
894.0
890.0
888.0
886.0
882.0
886.0
887.0
888.0
890.0
893.0
894.0
898.0
899.0
898.0
899.0
903.0
902.0
905.0
909.0
912.0
917.0
921.0
928.0
932.0
936.0
941.0
943.0
947.0
952.0
955.0
961.0
967.0
974.0
977.0
984.0
986.0
992.0
998.0
1001.0
1005.0
1007.0
1008.0
1012.0
1014.0
1016.0
1018.0
1023.0
1021.0
1021.0
1019.0
1018.0
1016.0
1014.0
1011.0
1008.0
1006.0
1004.0
1000.0
998.0
997.0
992.0
989.0
983.0
979.0
975.0
968.0
966.0
964.0
960.0
962.0
959.0
959.0
956.0
954.0
951.0
947.0
946.0
944.0
943.0
944.0
943.0
943.0
942.0
940.0
939.0
938.0
938.0
937.0
936.0
935.0
934.0
935.0
937.0
938.0
939.0
938.0
938.0
937.0
938.0
938.0
935.0
936.0
939.0
936.0
938.0
941.0
939.0
939.0
941.0
939.0
938.0
938.0
936.0
936.0
938.0
937.0
939.0
938.0
939.0
937.0
938.0
939.0
937.0
933.0
934.0
934.0
934.0
935.0
935.0
936.0
936.0
938.0
937.0
938.0
933.0
933.0
931.0
932.0
930.0
930.0
931.0
931.0
937.0
936.0
935.0
938.0
937.0
935.0
938.0
938.0
942.0
951.0
957.0
968.0
974.0
983.0
998.0
1012.0
1029.0
1050.0
1079.0
1108.0
1145.0
1182.0
1227.0
1265.0
1298.0
1323.0
1336.0
1341.0
1333.0
1322.0
1305.0
1286.0
1264.0
1234.0
1197.0
1149.0
1096.0
1041.0
992.0
951.0
925.0
905.0
896.0
889.0
889.0
887.0
884.0
880.0
877.0
872.0
867.0
859.0
853.0
848.0
844.0
842.0
843.0
845.0
842.0
843.0
845.0
845.0
844.0
842.0
838.0
837.0
834.0
832.0
828.0
826.0
826.0
823.0
822.0
821.0
819.0
816.0
813.0
810.0
806.0
806.0
805.0
804.0
804.0
801.0
800.0
797.0
793.0
789.0
784.0
781.0
775.0
770.0
768.0
765.0
764.0
763.0
764.0
761.0
758.0
756.0
754.0
751.0
751.0
750.0
750.0
750.0
752.0
755.0
758.0
760.0
762.0
763.0
765.0
767.0
770.0
773.0
776.0
782.0
785.0
792.0
801.0
805.0
811.0
819.0
823.0
826.0
830.0
835.0
842.0
846.0
852.0
856.0
864.0
869.0
872.0
876.0
876.0
880.0
878.0
880.0
880.0
884.0
886.0
887.0
890.0
892.0
892.0
890.0
890.0
891.0
890.0
890.0
893.0
891.0
891.0
890.0
891.0
893.0
890.0
890.0
890.0
888.0
889.0
889.0
888.0
887.0
889.0
889.0
891.0
890.0
889.0
890.0
889.0
886.0
884.0
889.0
890.0
892.0
894.0
895.0
897.0
898.0
895.0
893.0
886.0
887.0
889.0
893.0
905.0
922.0
945.0
973.0
1002.0
1029.0
1051.0
1070.0
1080.0
1087.0
1084.0
1074.0
1052.0
1030.0
1004.0
977.0
957.0
938.0
919.0
897.0
873.0
845.0
817.0
794.0
779.0
772.0
770.0
774.0
781.0
787.0
787.0
791.0
792.0
795.0
797.0
801.0
810.0
819.0
830.0
839.0
846.0
856.0
860.0
868.0
875.0
880.0
885.0
889.0
893.0
894.0
895.0
894.0
893.0
891.0
885.0
883.0
881.0
883.0
883.0
883.0
885.0
884.0
889.0
888.0
890.0
888.0
890.0
890.0
889.0
887.0
884.0
880.0
879.0
880.0
882.0
884.0
887.0
888.0
891.0
895.0
898.0
900.0
903.0
907.0
908.0
912.0
915.0
925.0
933.0
937.0
941.0
945.0
949.0
950.0
959.0
961.0
968.0
972.0
980.0
984.0
993.0
994.0
999.0
1002.0
1004.0
1007.0
1008.0
1010.0
1011.0
1014.0
1015.0
1015.0
1016.0
1017.0
1015.0
1012.0
1009.0
1006.0
1002.0
997.0
993.0
987.0
985.0
983.0
981.0
977.0
972.0
968.0
965.0
957.0
953.0
948.0
947.0
943.0
942.0
942.0
944.0
942.0
940.0
936.0
935.0
929.0
926.0
926.0
925.0
924.0
926.0
925.0
932.0
929.0
932.0
930.0
931.0
930.0
927.0
929.0
927.0
928.0
928.0
933.0
934.0
935.0
934.0
935.0
932.0
932.0
932.0
932.0
929.0
933.0
932.0
934.0
932.0
934.0
932.0
932.0
934.0
933.0
931.0
927.0
929.0
927.0
927.0
928.0
929.0
932.0
931.0
930.0
929.0
928.0
927.0
925.0
928.0
926.0
928.0
928.0
930.0
932.0
933.0
931.0
931.0
932.0
936.0
939.0
944.0
950.0
960.0
971.0
980.0
991.0
1002.0
1016.0
1031.0
1048.0
1073.0
1099.0
1131.0
1167.0
1204.0
1240.0
1273.0
1298.0
1313.0
1320.0
1318.0
1308.0
1294.0
1279.0
1260.0
1242.0
1217.0
1187.0
1153.0
1113.0
1070.0
1026.0
985.0
954.0
933.0
916.0
906.0
900.0
894.0
893.0
888.0
885.0
880.0
875.0
869.0
865.0
858.0
853.0
850.0
845.0
843.0
843.0
843.0
843.0
841.0
838.0
840.0
838.0
834.0
835.0
831.0
832.0
829.0
830.0
826.0
827.0
823.0
819.0
819.0
816.0
811.0
810.0
808.0
806.0
806.0
807.0
806.0
807.0
803.0
801.0
795.0
793.0
788.0
784.0
783.0
778.0
776.0
777.0
776.0
773.0
771.0
766.0
762.0
759.0
757.0
753.0
754.0
754.0
753.0
753.0
756.0
755.0
754.0
755.0
754.0
757.0
756.0
757.0
760.0
762.0
766.0
767.0
773.0
776.0
779.0
785.0
787.0
791.0
794.0
800.0
804.0
810.0
817.0
825.0
831.0
839.0
845.0
850.0
853.0
857.0
861.0
864.0
869.0
872.0
876.0
879.0
883.0
887.0
885.0
888.0
887.0
886.0
886.0
888.0
889.0
890.0
890.0
893.0
894.0
894.0
894.0
893.0
892.0
894.0
892.0
890.0
890.0
887.0
889.0
891.0
890.0
892.0
891.0
890.0
891.0
888.0
886.0
888.0
888.0
891.0
896.0
898.0
901.0
903.0
900.0
898.0
894.0
892.0
887.0
886.0
888.0
896.0
907.0
924.0
948.0
975.0
997.0
1024.0
1045.0
1065.0
1075.0
1080.0
1075.0
1058.0
1033.0
1001.0
970.0
944.0
918.0
897.0
875.0
849.0
821.0
800.0
783.0
775.0
774.0
775.0
779.0
788.0
793.0
796.0
800.0
803.0
808.0
815.0
826.0
835.0
846.0
857.0
865.0
872.0
876.0
884.0
887.0
890.0
892.0
891.0
891.0
888.0
889.0
887.0
886.0
885.0
886.0
888.0
888.0
885.0
886.0
888.0
887.0
889.0
891.0
891.0
892.0
894.0
893.0
893.0
891.0
890.0
889.0
887.0
883.0
884.0
888.0
886.0
885.0
887.0
888.0
890.0
892.0
893.0
895.0
897.0
900.0
901.0
907.0
914.0
920.0
926.0
929.0
937.0
944.0
946.0
951.0
955.0
961.0
966.0
971.0
979.0
983.0
991.0
995.0
1002.0
1002.0
1006.0
1007.0
1009.0
1015.0
1018.0
1021.0
1022.0
1022.0
1025.0
1024.0
1022.0
1019.0
1017.0
1014.0
1009.0
1007.0
1006.0
1003.0
1001.0
998.0
995.0
991.0
983.0
979.0
976.0
971.0
969.0
966.0
965.0
964.0
962.0
959.0
958.0
954.0
951.0
948.0
947.0
944.0
941.0
939.0
939.0
940.0
943.0
941.0
943.0
940.0
941.0
940.0
938.0
935.0
931.0
932.0
933.0
934.0
936.0
937.0
938.0
936.0
936.0
936.0
936.0
936.0
935.0
934.0
935.0
937.0
939.0
939.0
941.0
941.0
940.0
937.0
938.0
936.0
935.0
935.0
936.0
937.0
936.0
936.0
935.0
935.0
934.0
934.0
934.0
934.0
933.0
933.0
933.0
932.0
932.0
934.0
932.0
932.0
932.0
929.0
930.0
927.0
924.0
928.0
930.0
931.0
931.0
935.0
934.0
933.0
933.0
933.0
931.0
927.0
925.0
926.0
928.0
927.0
929.0
933.0
931.0
931.0
931.0
929.0
929.0
926.0
928.0
929.0
929.0
932.0
934.0
932.0
936.0
936.0
938.0
940.0
944.0
948.0
955.0
962.0
970.0
982.0
995.0
1011.0
1029.0
1051.0
1082.0
1119.0
1159.0
1200.0
1247.0
1290.0
1324.0
1345.0
1354.0
1351.0
1338.0
1315.0
1289.0
1255.0
1213.0
1158.0
1098.0
1040.0
988.0
946.0
917.0
902.0
895.0
890.0
888.0
885.0
882.0
874.0
866.0
859.0
853.0
850.0
846.0
847.0
847.0
846.0
847.0
847.0
842.0
839.0
839.0
839.0
838.0
837.0
834.0
834.0
832.0
829.0
825.0
822.0
818.0
816.0
815.0
811.0
812.0
810.0
811.0
811.0
807.0
806.0
802.0
797.0
792.0
784.0
781.0
779.0
777.0
774.0
773.0
769.0
766.0
762.0
759.0
754.0
752.0
749.0
746.0
743.0
741.0
743.0
744.0
745.0
746.0
746.0
749.0
749.0
752.0
751.0
754.0
757.0
761.0
766.0
771.0
777.0
782.0
787.0
792.0
797.0
803.0
805.0
813.0
815.0
823.0
831.0
840.0
847.0
852.0
857.0
859.0
862.0
868.0
868.0
870.0
873.0
876.0
880.0
883.0
886.0
887.0
888.0
890.0
888.0
889.0
888.0
888.0
890.0
890.0
892.0
894.0
894.0
894.0
893.0
895.0
894.0
892.0
891.0
889.0
888.0
885.0
890.0
890.0
890.0
893.0
894.0
891.0
892.0
892.0
891.0
888.0
892.0
894.0
894.0
894.0
891.0
889.0
883.0
879.0
877.0
878.0
878.0
889.0
907.0
929.0
957.0
983.0
1016.0
1038.0
1062.0
1078.0
1088.0
1089.0
1082.0
1065.0
1037.0
1006.0
975.0
949.0
929.0
919.0
907.0
892.0
869.0
845.0
818.0
795.0
780.0
768.0
767.0
767.0
771.0
776.0
778.0
780.0
782.0
784.0
785.0
788.0
791.0
798.0
808.0
816.0
825.0
837.0
843.0
850.0
858.0
861.0
865.0
873.0
882.0
889.0
897.0
901.0
903.0
902.0
903.0
899.0
899.0
899.0
897.0
895.0
898.0
893.0
893.0
895.0
895.0
894.0
891.0
889.0
887.0
883.0
878.0
875.0
876.0
876.0
878.0
881.0
884.0
885.0
887.0
888.0
889.0
888.0
891.0
891.0
896.0
898.0
900.0
907.0
909.0
912.0
917.0
920.0
922.0
922.0
927.0
933.0
941.0
947.0
957.0
964.0
970.0
976.0
983.0
988.0
993.0
992.0
996.0
999.0
1004.0
1008.0
1012.0
1013.0
1018.0
1021.0
1021.0
1020.0
1020.0
1018.0
1015.0
1012.0
1012.0
1011.0
1010.0
1009.0
1007.0
1007.0
1001.0
998.0
994.0
989.0
983.0
980.0
978.0
973.0
970.0
968.0
965.0
963.0
959.0
956.0
951.0
950.0
946.0
944.0
943.0
941.0
941.0
942.0
940.0
940.0
939.0
939.0
937.0
936.0
935.0
930.0
932.0
933.0
933.0
935.0
935.0
935.0
938.0
938.0
936.0
935.0
934.0
934.0
935.0
935.0
937.0
938.0
940.0
941.0
939.0
938.0
936.0
936.0
934.0
932.0
932.0
933.0
937.0
938.0
936.0
937.0
938.0
937.0
936.0
937.0
935.0
933.0
932.0
932.0
931.0
932.0
934.0
935.0
936.0
933.0
930.0
935.0
933.0
931.0
931.0
931.0
932.0
933.0
933.0
934.0
934.0
934.0
931.0
930.0
929.0
927.0
929.0
929.0
930.0
932.0
933.0
936.0
934.0
936.0
936.0
931.0
933.0
934.0
933.0
941.0
947.0
952.0
960.0
969.0
977.0
986.0
1000.0
1013.0
1030.0
1048.0
1073.0
1102.0
1138.0
1176.0
1217.0
1254.0
1290.0
1321.0
1343.0
1358.0
1363.0
1359.0
1353.0
1343.0
1329.0
1313.0
1293.0
1267.0
1228.0
1183.0
1130.0
1073.0
1022.0
977.0
942.0
922.0
908.0
899.0
896.0
892.0
888.0
884.0
879.0
870.0
863.0
858.0
852.0
848.0
846.0
845.0
845.0
847.0
846.0
845.0
843.0
843.0
840.0
838.0
835.0
835.0
835.0
834.0
831.0
829.0
825.0
824.0
822.0
821.0
815.0
811.0
812.0
810.0
811.0
810.0
809.0
809.0
807.0
803.0
801.0
796.0
794.0
789.0
787.0
783.0
781.0
779.0
778.0
776.0
773.0
769.0
767.0
760.0
758.0
755.0
754.0
754.0
752.0
752.0
752.0
749.0
750.0
750.0
748.0
747.0
746.0
747.0
749.0
750.0
750.0
757.0
759.0
762.0
765.0
767.0
771.0
774.0
778.0
782.0
787.0
793.0
798.0
806.0
814.0
823.0
828.0
833.0
839.0
845.0
847.0
851.0
856.0
856.0
860.0
865.0
872.0
876.0
878.0
880.0
881.0
882.0
883.0
883.0
884.0
886.0
886.0
887.0
890.0
893.0
893.0
890.0
890.0
893.0
891.0
890.0
889.0
889.0
890.0
888.0
891.0
890.0
890.0
889.0
891.0
886.0
886.0
885.0
884.0
885.0
885.0
889.0
885.0
887.0
886.0
887.0
887.0
888.0
885.0
889.0
888.0
891.0
892.0
894.0
893.0
889.0
887.0
884.0
883.0
883.0
887.0
893.0
906.0
927.0
952.0
980.0
1010.0
1038.0
1060.0
1076.0
1086.0
1081.0
1067.0
1039.0
1010.0
979.0
955.0
934.0
920.0
904.0
880.0
858.0
832.0
809.0
791.0
780.0
776.0
779.0
782.0
790.0
797.0
803.0
809.0
812.0
816.0
820.0
824.0
831.0
838.0
844.0
851.0
857.0
860.0
864.0
868.0
870.0
875.0
876.0
880.0
879.0
879.0
880.0
880.0
881.0
884.0
885.0
885.0
888.0
891.0
886.0
884.0
884.0
883.0
883.0
885.0
884.0
882.0
885.0
883.0
881.0
880.0
879.0
878.0
877.0
880.0
882.0
885.0
887.0
890.0
892.0
893.0
897.0
897.0
900.0
900.0
904.0
908.0
914.0
919.0
926.0
934.0
940.0
946.0
952.0
957.0
961.0
965.0
970.0
975.0
980.0
986.0
990.0
996.0
1003.0
1004.0
1008.0
1009.0
1009.0
1010.0
1011.0
1010.0
1008.0
1007.0
1007.0
1008.0
1005.0
1001.0
998.0
993.0
987.0
982.0
980.0
977.0
971.0
968.0
965.0
961.0
960.0
956.0
955.0
951.0
947.0
943.0
941.0
938.0
936.0
933.0
935.0
935.0
935.0
933.0
934.0
932.0
930.0
928.0
924.0
923.0
923.0
926.0
927.0
927.0
925.0
929.0
930.0
927.0
928.0
925.0
925.0
924.0
925.0
927.0
929.0
927.0
929.0
929.0
929.0
929.0
928.0
927.0
926.0
925.0
926.0
925.0
927.0
928.0
929.0
929.0
928.0
927.0
926.0
924.0
925.0
922.0
923.0
925.0
924.0
926.0
927.0
927.0
927.0
924.0
922.0
922.0
921.0
920.0
919.0
920.0
920.0
921.0
922.0
922.0
921.0
920.0
920.0
920.0
918.0
917.0
917.0
918.0
921.0
925.0
928.0
927.0
926.0
925.0
925.0
922.0
923.0
927.0
931.0
932.0
940.0
947.0
957.0
963.0
973.0
984.0
999.0
1017.0
1042.0
1068.0
1100.0
1137.0
1178.0
1219.0
1255.0
1287.0
1307.0
1316.0
1318.0
1310.0
1298.0
1281.0
1265.0
1244.0
1218.0
1182.0
1141.0
1094.0
1039.0
991.0
951.0
922.0
901.0
892.0
887.0
882.0
879.0
880.0
875.0
869.0
862.0
857.0
852.0
846.0
843.0
841.0
838.0
837.0
839.0
840.0
838.0
839.0
840.0
836.0
836.0
833.0
830.0
831.0
829.0
828.0
828.0
824.0
823.0
822.0
820.0
818.0
813.0
811.0
808.0
804.0
805.0
805.0
804.0
801.0
802.0
798.0
797.0
793.0
784.0
781.0
778.0
774.0
769.0
763.0
762.0
761.0
760.0
758.0
754.0
753.0
750.0
747.0
744.0
742.0
743.0
747.0
743.0
748.0
751.0
752.0
755.0
757.0
757.0
759.0
762.0
765.0
770.0
774.0
780.0
786.0
793.0
798.0
801.0
806.0
812.0
815.0
821.0
826.0
831.0
836.0
844.0
849.0
856.0
858.0
862.0
865.0
866.0
868.0
869.0
871.0
872.0
873.0
877.0
879.0
882.0
882.0
882.0
884.0
882.0
885.0
884.0
881.0
884.0
884.0
884.0
886.0
888.0
886.0
886.0
885.0
884.0
882.0
881.0
880.0
880.0
879.0
879.0
882.0
881.0
882.0
880.0
881.0
883.0
882.0
884.0
885.0
886.0
887.0
889.0
885.0
886.0
882.0
881.0
878.0
880.0
886.0
896.0
913.0
939.0
967.0
998.0
1024.0
1048.0
1064.0
1075.0
1076.0
1065.0
1046.0
1021.0
990.0
963.0
939.0
921.0
906.0
888.0
868.0
846.0
821.0
798.0
781.0
771.0
765.0
763.0
767.0
771.0
776.0
779.0
783.0
784.0
786.0
788.0
793.0
800.0
812.0
822.0
831.0
844.0
853.0
860.0
866.0
874.0
878.0
883.0
886.0
892.0
889.0
891.0
891.0
890.0
890.0
888.0
887.0
885.0
882.0
880.0
876.0
875.0
878.0
879.0
878.0
881.0
885.0
885.0
887.0
885.0
887.0
885.0
885.0
884.0
882.0
880.0
880.0
880.0
884.0
886.0
891.0
892.0
895.0
899.0
903.0
907.0
909.0
918.0
921.0
929.0
936.0
943.0
948.0
952.0
958.0
961.0
964.0
968.0
972.0
977.0
984.0
989.0
996.0
1000.0
1004.0
1008.0
1010.0
1012.0
1011.0
1013.0
1012.0
1012.0
1012.0
1011.0
1010.0
1008.0
1008.0
1004.0
1000.0
993.0
989.0
985.0
980.0
977.0
969.0
967.0
963.0
961.0
959.0
955.0
952.0
949.0
944.0
942.0
939.0
937.0
937.0
935.0
935.0
935.0
934.0
935.0
932.0
930.0
926.0
924.0
924.0
928.0
927.0
930.0
931.0
932.0
931.0
933.0
931.0
929.0
929.0
927.0
926.0
928.0
928.0
927.0
931.0
933.0
933.0
933.0
932.0
930.0
929.0
929.0
928.0
927.0
929.0
930.0
927.0
931.0
