# Simple Text Format
# Sampling Rate (Hz):= 360.00
# Resolution:= 12
# Labels:= ECG
865.0
868.0
873.0
876.0
881.0
885.0
891.0
898.0
904.0
910.0
914.0
917.0
921.0
924.0
927.0
927.0
928.0
931.0
934.0
938.0
942.0
944.0
942.0
944.0
941.0
942.0
942.0
943.0
943.0
943.0
943.0
945.0
947.0
946.0
947.0
945.0
944.0
945.0
942.0
939.0
939.0
939.0
939.0
941.0
941.0
944.0
944.0
946.0
945.0
945.0
944.0
944.0
942.0
941.0
936.0
930.0
925.0
920.0
917.0
915.0
918.0
923.0
934.0
950.0
968.0
988.0
1004.0
1018.0
1029.0
1030.0
1024.0
1003.0
970.0
933.0
894.0
862.0
838.0
823.0
809.0
794.0
778.0
766.0
761.0
760.0
766.0
775.0
786.0
800.0
812.0
827.0
842.0
858.0
872.0
888.0
896.0
908.0
917.0
924.0
929.0
937.0
946.0
956.0
966.0
973.0
979.0
982.0
982.0
983.0
982.0
978.0
976.0
975.0
975.0
979.0
978.0
980.0
984.0
984.0
984.0
984.0
983.0
978.0
979.0
979.0
979.0
980.0
983.0
987.0
989.0
993.0
993.0
991.0
992.0
993.0
992.0
995.0
998.0
998.0
1003.0
1006.0
1009.0
1013.0
1012.0
1016.0
1017.0
1018.0
1022.0
1023.0
1025.0
1031.0
1036.0
1041.0
1049.0
1055.0
1061.0
1063.0
1064.0
1067.0
1072.0
1073.0
1076.0
1078.0
1080.0
1081.0
1083.0
1086.0
1085.0
1084.0
1081.0
1078.0
1074.0
1069.0
1068.0
1061.0
1060.0
1058.0
1055.0
1052.0
1048.0
1046.0
1043.0
1037.0
1034.0
1027.0
1021.0
1018.0
1014.0
1012.0
1008.0
1010.0
1007.0
1004.0
999.0
997.0
995.0
991.0
989.0
988.0
989.0
989.0
988.0
988.0
986.0
984.0
983.0
980.0
980.0
978.0
979.0
978.0
978.0
979.0
981.0
979.0
983.0
984.0
983.0
984.0
980.0
979.0
979.0
978.0
977.0
978.0
977.0
980.0
980.0
978.0
975.0
976.0
975.0
974.0
973.0
972.0
970.0
972.0
976.0
977.0
978.0
978.0
976.0
973.0
971.0
972.0
970.0
971.0
972.0
973.0
971.0
974.0
972.0
970.0
971.0
966.0
962.0
962.0
962.0
960.0
962.0
965.0
964.0
966.0
965.0
962.0
963.0
962.0
960.0
957.0
960.0
956.0
959.0
962.0
964.0
964.0
963.0
961.0
960.0
956.0
954.0
955.0
953.0
955.0
958.0
957.0
960.0
962.0
961.0
960.0
959.0
959.0
958.0
957.0
956.0
952.0
953.0
954.0
954.0
953.0
957.0
955.0
957.0
955.0
956.0
956.0
956.0
956.0
958.0
958.0
958.0
958.0
960.0
962.0
963.0
961.0
963.0
970.0
973.0
980.0
985.0
992.0
1003.0
1016.0
1030.0
1044.0
1060.0
1078.0
1100.0
1126.0
1155.0
1186.0
1212.0
1237.0
1253.0
1263.0
1264.0
1251.0
1235.0
1211.0
1183.0
1156.0
1129.0
1105.0
1083.0
1062.0
1044.0
1027.0
1006.0
987.0
971.0
955.0
943.0
935.0
930.0
927.0
925.0
925.0
921.0
920.0
915.0
912.0
908.0
905.0
903.0
903.0
902.0
900.0
899.0
902.0
904.0
908.0
907.0
908.0
907.0
901.0
897.0
897.0
893.0
889.0
887.0
884.0
883.0
883.0
883.0
882.0
882.0
879.0
878.0
875.0
873.0
871.0
873.0
867.0
868.0
870.0
867.0
862.0
858.0
856.0
855.0
852.0
849.0
846.0
844.0
843.0
842.0
843.0
841.0
841.0
835.0
833.0
831.0
828.0
829.0
827.0
826.0
829.0
829.0
830.0
829.0
830.0
828.0
828.0
828.0
826.0
828.0
828.0
830.0
831.0
832.0
838.0
837.0
838.0
841.0
843.0
847.0
852.0
856.0
859.0
865.0
872.0
879.0
886.0
886.0
891.0
891.0
894.0
893.0
899.0
901.0
903.0
906.0
913.0
915.0
918.0
923.0
922.0
926.0
924.0
926.0
926.0
923.0
924.0
922.0
923.0
929.0
933.0
931.0
929.0
929.0
927.0
926.0
925.0
924.0
925.0
923.0
922.0
924.0
926.0
926.0
926.0
924.0
923.0
922.0
922.0
920.0
919.0
920.0
922.0
923.0
923.0
924.0
925.0
926.0
926.0
927.0
928.0
928.0
930.0
929.0
932.0
937.0
938.0
936.0
931.0
929.0
923.0
918.0
914.0
914.0
919.0
927.0
939.0
952.0
971.0
981.0
987.0
990.0
986.0
980.0
967.0
951.0
933.0
909.0
888.0
866.0
847.0
833.0
813.0
798.0
785.0
773.0
763.0
763.0
764.0
771.0
782.0
791.0
800.0
811.0
818.0
826.0
832.0
841.0
848.0
856.0
867.0
878.0
886.0
894.0
903.0
908.0
913.0
918.0
922.0
926.0
929.0
938.0
945.0
949.0
954.0
953.0
957.0
957.0
956.0
959.0
960.0
962.0
960.0
962.0
960.0
963.0
963.0
962.0
961.0
964.0
965.0
965.0
966.0
967.0
970.0
969.0
973.0
977.0
979.0
982.0
983.0
985.0
987.0
988.0
987.0
987.0
988.0
988.0
991.0
995.0
998.0
1003.0
1008.0
1012.0
1013.0
1017.0
1018.0
1022.0
1024.0
1031.0
1033.0
1036.0
1042.0
1044.0
1051.0
1055.0
1055.0
1057.0
1060.0
1064.0
1065.0
1067.0
1070.0
1072.0
1073.0
1077.0
1079.0
1079.0
1080.0
1080.0
1079.0
1077.0
1074.0
1070.0
1069.0
1068.0
1065.0
1064.0
1064.0
1060.0
1054.0
1052.0
1047.0
1044.0
1040.0
1035.0
1032.0
1027.0
1027.0
1025.0
1021.0
1019.0
1015.0
1011.0
1008.0
1005.0
1000.0
998.0
995.0
995.0
995.0
995.0
994.0
994.0
990.0
992.0
989.0
987.0
984.0
984.0
984.0
982.0
984.0
984.0
985.0
986.0
984.0
985.0
983.0
982.0
981.0
979.0
978.0
980.0
982.0
982.0
982.0
984.0
984.0
983.0
981.0
982.0
980.0
978.0
979.0
978.0
978.0
979.0
980.0
981.0
979.0
977.0
977.0
976.0
971.0
970.0
968.0
969.0
970.0
969.0
971.0
973.0
972.0
973.0
971.0
970.0
969.0
969.0
966.0
964.0
965.0
965.0
969.0
967.0
963.0
966.0
966.0
965.0
963.0
960.0
963.0
963.0
964.0
964.0
966.0
966.0
966.0
965.0
962.0
962.0
960.0
959.0
959.0
957.0
959.0
959.0
960.0
960.0
963.0
960.0
960.0
959.0
959.0
956.0
959.0
959.0
961.0
961.0
960.0
963.0
963.0
962.0
959.0
960.0
958.0
960.0
960.0
962.0
964.0
966.0
971.0
973.0
977.0
978.0
985.0
990.0
994.0
1004.0
1018.0
1031.0
1048.0
1065.0
1088.0
1113.0
1140.0
1170.0
1198.0
1227.0
1252.0
1274.0
1285.0
1290.0
1284.0
1268.0
1243.0
1216.0
1189.0
1161.0
1131.0
1102.0
1071.0
1044.0
1019.0
993.0
974.0
956.0
945.0
936.0
933.0
928.0
924.0
920.0
915.0
911.0
906.0
904.0
904.0
903.0
904.0
905.0
900.0
899.0
897.0
895.0
891.0
890.0
889.0
888.0
888.0
886.0
886.0
886.0
880.0
880.0
875.0
873.0
872.0
872.0
869.0
868.0
869.0
869.0
867.0
866.0
865.0
861.0
858.0
855.0
851.0
848.0
847.0
844.0
845.0
842.0
843.0
839.0
839.0
834.0
830.0
829.0
825.0
822.0
821.0
817.0
816.0
815.0
812.0
812.0
810.0
807.0
806.0
802.0
800.0
798.0
795.0
797.0
796.0
797.0
799.0
800.0
800.0
798.0
799.0
797.0
799.0
797.0
801.0
803.0
807.0
810.0
816.0
819.0
823.0
824.0
830.0
832.0
834.0
840.0
846.0
851.0
859.0
864.0
872.0
873.0
875.0
882.0
887.0
890.0
890.0
893.0
894.0
896.0
899.0
903.0
904.0
907.0
907.0
907.0
907.0
908.0
908.0
906.0
908.0
910.0
911.0
913.0
914.0
913.0
912.0
911.0
908.0
906.0
906.0
905.0
905.0
907.0
908.0
908.0
909.0
909.0
908.0
909.0
906.0
907.0
908.0
907.0
909.0
912.0
912.0
912.0
910.0
906.0
897.0
890.0
882.0
876.0
876.0
877.0
881.0
892.0
906.0
924.0
945.0
966.0
979.0
988.0
993.0
991.0
975.0
949.0
914.0
873.0
835.0
808.0
789.0
774.0
761.0
744.0
730.0
717.0
712.0
712.0
722.0
727.0
743.0
753.0
765.0
779.0
787.0
799.0
808.0
819.0
832.0
846.0
855.0
869.0
878.0
891.0
902.0
908.0
919.0
927.0
935.0
940.0
941.0
942.0
943.0
943.0
943.0
944.0
945.0
947.0
945.0
945.0
944.0
944.0
942.0
941.0
940.0
940.0
942.0
944.0
947.0
949.0
953.0
953.0
954.0
956.0
957.0
957.0
957.0
960.0
961.0
966.0
970.0
973.0
973.0
974.0
974.0
975.0
975.0
981.0
984.0
990.0
997.0
1004.0
1012.0
1017.0
1022.0
1027.0
1029.0
1033.0
1034.0
1037.0
1041.0
1045.0
1046.0
1050.0
1053.0
1056.0
1059.0
1061.0
1059.0
1058.0
1056.0
1053.0
1052.0
1048.0
1048.0
1047.0
1044.0
1042.0
1037.0
1032.0
1028.0
1023.0
1018.0
1013.0
1010.0
1008.0
1004.0
1001.0
998.0
997.0
990.0
986.0
983.0
977.0
975.0
974.0
968.0
967.0
968.0
964.0
963.0
962.0
964.0
963.0
960.0
956.0
956.0
956.0
953.0
954.0
953.0
955.0
956.0
955.0
955.0
955.0
954.0
952.0
951.0
950.0
950.0
948.0
949.0
952.0
951.0
955.0
954.0
954.0
952.0
951.0
949.0
949.0
950.0
948.0
949.0
948.0
950.0
949.0
948.0
950.0
949.0
947.0
944.0
943.0
942.0
943.0
941.0
944.0
945.0
945.0
945.0
944.0
942.0
943.0
937.0
938.0
939.0
939.0
937.0
939.0
941.0
941.0
940.0
939.0
938.0
939.0
939.0
938.0
938.0
937.0
937.0
937.0
939.0
940.0
940.0
939.0
935.0
934.0
933.0
932.0
933.0
933.0
934.0
932.0
936.0
938.0
937.0
938.0
932.0
932.0
928.0
929.0
932.0
931.0
932.0
932.0
936.0
937.0
938.0
940.0
937.0
935.0
935.0
932.0
937.0
941.0
946.0
953.0
958.0
967.0
972.0
980.0
990.0
1000.0
1013.0
1027.0
1045.0
1069.0
1096.0
1128.0
1154.0
1183.0
1209.0
1229.0
1241.0
1245.0
1242.0
1230.0
1212.0
1187.0
1166.0
1142.0
1115.0
1088.0
1063.0
1041.0
1016.0
987.0
965.0
942.0
925.0
913.0
906.0
904.0
902.0
898.0
896.0
894.0
887.0
882.0
879.0
874.0
870.0
870.0
867.0
867.0
869.0
871.0
870.0
867.0
865.0
863.0
862.0
861.0
859.0
858.0
858.0
858.0
854.0
849.0
849.0
847.0
847.0
844.0
844.0
841.0
840.0
840.0
840.0
839.0
837.0
836.0
833.0
831.0
828.0
824.0
820.0
818.0
817.0
814.0
814.0
811.0
810.0
808.0
808.0
803.0
800.0
797.0
796.0
793.0
791.0
791.0
792.0
790.0
790.0
789.0
790.0
787.0
788.0
788.0
787.0
787.0
788.0
790.0
790.0
796.0
796.0
801.0
803.0
805.0
806.0
808.0
811.0
813.0
819.0
824.0
829.0
835.0
841.0
847.0
852.0
856.0
858.0
860.0
865.0
867.0
870.0
871.0
874.0
876.0
880.0
885.0
888.0
889.0
890.0
892.0
891.0
889.0
890.0
892.0
893.0
893.0
896.0
894.0
896.0
896.0
895.0
893.0
892.0
892.0
888.0
888.0
890.0
889.0
890.0
890.0
889.0
889.0
888.0
884.0
886.0
885.0
883.0
883.0
886.0
890.0
892.0
895.0
895.0
898.0
899.0
900.0
899.0
898.0
899.0
895.0
892.0
890.0
887.0
885.0
884.0
884.0
886.0
891.0
902.0
914.0
928.0
941.0
945.0
947.0
942.0
932.0
912.0
885.0
852.0
825.0
798.0
780.0
766.0
753.0
742.0
732.0
724.0
713.0
714.0
719.0
725.0
739.0
751.0
763.0
776.0
786.0
797.0
809.0
817.0
829.0
841.0
848.0
857.0
863.0
866.0
870.0
877.0
884.0
890.0
897.0
903.0
910.0
915.0
917.0
919.0
918.0
917.0
918.0
917.0
921.0
922.0
924.0
927.0
928.0
929.0
930.0
927.0
926.0
925.0
924.0
925.0
926.0
928.0
931.0
933.0
937.0
938.0
940.0
941.0
941.0
941.0
939.0
944.0
946.0
944.0
948.0
953.0
955.0
958.0
961.0
963.0
965.0
968.0
970.0
974.0
974.0
979.0
983.0
989.0
992.0
997.0
999.0
1000.0
1003.0
1005.0
1010.0
1013.0
1022.0
1025.0
1026.0
1032.0
1033.0
1031.0
1031.0
1031.0
1028.0
1026.0
1028.0
1026.0
1023.0
1024.0
1023.0
1022.0
1021.0
1018.0
1012.0
1008.0
1003.0
996.0
992.0
991.0
987.0
985.0
981.0
980.0
977.0
976.0
973.0
967.0
961.0
959.0
958.0
957.0
954.0
953.0
951.0
950.0
947.0
947.0
946.0
943.0
940.0
938.0
937.0
936.0
936.0
937.0
936.0
935.0
934.0
935.0
938.0
935.0
934.0
933.0
932.0
930.0
931.0
932.0
932.0
935.0
934.0
934.0
935.0
934.0
934.0
934.0
933.0
932.0
933.0
934.0
933.0
936.0
938.0
936.0
935.0
933.0
932.0
933.0
932.0
931.0
931.0
932.0
931.0
930.0
931.0
932.0
930.0
932.0
930.0
929.0
928.0
928.0
928.0
929.0
930.0
932.0
934.0
933.0
930.0
929.0
929.0
924.0
924.0
925.0
924.0
925.0
929.0
930.0
931.0
933.0
931.0
929.0
929.0
927.0
926.0
927.0
927.0
928.0
926.0
928.0
933.0
935.0
934.0
933.0
934.0
932.0
929.0
929.0
933.0
936.0
941.0
948.0
955.0
961.0
970.0
982.0
994.0
1007.0
1024.0
1045.0
1075.0
1108.0
1143.0
1177.0
1206.0
1227.0
1233.0
1229.0
1214.0
1191.0
1161.0
1131.0
1100.0
1070.0
1042.0
1017.0
996.0
976.0
957.0
939.0
926.0
916.0
909.0
905.0
901.0
899.0
898.0
893.0
892.0
891.0
888.0
884.0
881.0
878.0
876.0
877.0
878.0
877.0
877.0
879.0
878.0
875.0
877.0
875.0
876.0
873.0
871.0
871.0
868.0
867.0
866.0
864.0
863.0
861.0
860.0
857.0
859.0
857.0
855.0
853.0
852.0
851.0
853.0
853.0
853.0
850.0
848.0
844.0
841.0
836.0
832.0
827.0
824.0
825.0
823.0
822.0
820.0
820.0
818.0
813.0
810.0
810.0
807.0
804.0
806.0
801.0
804.0
804.0
806.0
807.0
809.0
807.0
806.0
808.0
807.0
810.0
812.0
813.0
820.0
825.0
832.0
832.0
836.0
840.0
842.0
845.0
847.0
849.0
856.0
860.0
865.0
869.0
875.0
879.0
885.0
887.0
890.0
891.0
892.0
897.0
900.0
899.0
903.0
906.0
912.0
911.0
917.0
915.0
914.0
918.0
918.0
919.0
922.0
923.0
923.0
924.0
927.0
925.0
923.0
923.0
920.0
921.0
921.0
919.0
920.0
918.0
920.0
921.0
925.0
923.0
923.0
921.0
918.0
917.0
917.0
917.0
915.0
918.0
917.0
920.0
922.0
923.0
925.0
923.0
927.0
925.0
928.0
928.0
927.0
926.0
923.0
920.0
916.0
914.0
910.0
909.0
910.0
917.0
923.0
937.0
954.0
969.0
982.0
992.0
997.0
998.0
993.0
985.0
976.0
960.0
938.0
909.0
880.0
851.0
827.0
809.0
796.0
782.0
768.0
752.0
735.0
715.0
703.0
698.0
707.0
723.0
741.0
756.0
771.0
783.0
792.0
800.0
807.0
813.0
823.0
834.0
849.0
863.0
875.0
888.0
900.0
907.0
914.0
918.0
921.0
926.0
929.0
933.0
936.0
940.0
945.0
946.0
950.0
951.0
951.0
952.0
952.0
951.0
951.0
950.0
951.0
953.0
951.0
955.0
958.0
958.0
957.0
955.0
956.0
961.0
961.0
963.0
966.0
968.0
972.0
976.0
978.0
981.0
983.0
982.0
985.0
986.0
985.0
989.0
994.0
1000.0
1007.0
1009.0
1016.0
1018.0
1022.0
1025.0
1027.0
1032.0
1034.0
1040.0
1044.0
1048.0
1053.0
1058.0
1062.0
1068.0
1069.0
1071.0
1073.0
1071.0
1072.0
1071.0
1072.0
1070.0
1066.0
1067.0
1064.0
1061.0
1056.0
1051.0
1045.0
1039.0
1034.0
1030.0
1027.0
1024.0
1018.0
1016.0
1011.0
1008.0
1001.0
999.0
995.0
994.0
989.0
984.0
981.0
979.0
978.0
976.0
977.0
977.0
974.0
970.0
970.0
966.0
964.0
960.0
963.0
964.0
967.0
966.0
966.0
966.0
965.0
963.0
963.0
961.0
961.0
961.0
961.0
961.0
963.0
961.0
964.0
963.0
962.0
961.0
962.0
962.0
961.0
958.0
959.0
959.0
961.0
963.0
965.0
966.0
964.0
963.0
962.0
961.0
960.0
958.0
960.0
959.0
960.0
961.0
962.0
965.0
962.0
961.0
961.0
960.0
958.0
956.0
956.0
955.0
958.0
958.0
956.0
957.0
958.0
958.0
957.0
957.0
954.0
955.0
954.0
957.0
957.0
956.0
958.0
958.0
956.0
957.0
955.0
954.0
953.0
954.0
954.0
953.0
957.0
956.0
959.0
956.0
957.0
956.0
956.0
953.0
952.0
952.0
955.0
955.0
956.0
960.0
962.0
961.0
963.0
961.0
960.0
958.0
958.0
959.0
961.0
960.0
963.0
965.0
973.0
979.0
984.0
991.0
998.0
1007.0
1016.0
1028.0
1045.0
1063.0
1089.0
1120.0
1154.0
1190.0
1224.0
1254.0
1277.0
1287.0
1289.0
1278.0
1257.0
1234.0
1209.0
1179.0
1155.0
1127.0
1099.0
1071.0
1041.0
1015.0
990.0
970.0
956.0
945.0
939.0
937.0
933.0
928.0
927.0
923.0
916.0
911.0
905.0
899.0
900.0
900.0
900.0
900.0
902.0
900.0
900.0
900.0
896.0
895.0
892.0
890.0
890.0
889.0
889.0
888.0
888.0
887.0
883.0
881.0
880.0
876.0
872.0
873.0
875.0
877.0
878.0
877.0
875.0
874.0
872.0
870.0
868.0
865.0
864.0
860.0
858.0
856.0
855.0
854.0
851.0
849.0
845.0
841.0
836.0
831.0
826.0
826.0
821.0
821.0
819.0
819.0
819.0
818.0
814.0
816.0
813.0
810.0
808.0
805.0
809.0
810.0
812.0
814.0
816.0
819.0
820.0
823.0
825.0
827.0
827.0
830.0
835.0
837.0
844.0
846.0
854.0
860.0
863.0
870.0
870.0
871.0
872.0
877.0
880.0
884.0
890.0
896.0
903.0
906.0
908.0
910.0
910.0
911.0
910.0
908.0
913.0
912.0
916.0
919.0
921.0
924.0
924.0
923.0
922.0
920.0
919.0
923.0
920.0
921.0
922.0
923.0
924.0
923.0
924.0
923.0
922.0
921.0
917.0
918.0
917.0
917.0
918.0
919.0
919.0
920.0
918.0
920.0
919.0
921.0
921.0
923.0
924.0
929.0
933.0
933.0
930.0
926.0
920.0
913.0
906.0
899.0
902.0
906.0
918.0
931.0
951.0
971.0
984.0
989.0
989.0
985.0
975.0
959.0
934.0
906.0
876.0
844.0
822.0
804.0
793.0
781.0
769.0
756.0
744.0
737.0
729.0
735.0
742.0
752.0
767.0
778.0
786.0
796.0
802.0
811.0
818.0
824.0
834.0
845.0
852.0
867.0
876.0
886.0
898.0
906.0
916.0
926.0
932.0
939.0
943.0
943.0
945.0
946.0
948.0
952.0
952.0
956.0
956.0
957.0
956.0
958.0
957.0
957.0
959.0
959.0
961.0
963.0
965.0
964.0
964.0
965.0
963.0
964.0
966.0
971.0
975.0
978.0
982.0
986.0
989.0
993.0
995.0
997.0
1000.0
1002.0
1003.0
1007.0
1009.0
1014.0
1018.0
1022.0
1025.0
1031.0
1033.0
1037.0
1037.0
1045.0
1045.0
1048.0
1053.0
1054.0
1058.0
1061.0
1067.0
1066.0
1068.0
1071.0
1069.0
1070.0
1071.0
1068.0
1068.0
1067.0
1066.0
1064.0
1061.0
1058.0
1055.0
1048.0
1044.0
1039.0
1032.0
1027.0
1023.0
1018.0
1016.0
1010.0
1009.0
1006.0
1001.0
1000.0
996.0
991.0
985.0
981.0
981.0
975.0
977.0
975.0
975.0
978.0
978.0
976.0
973.0
972.0
970.0
967.0
962.0
966.0
964.0
965.0
967.0
967.0
968.0
964.0
966.0
965.0
964.0
962.0
962.0
963.0
961.0
961.0
963.0
965.0
965.0
967.0
966.0
964.0
964.0
963.0
964.0
965.0
964.0
966.0
967.0
964.0
965.0
964.0
963.0
960.0
959.0
959.0
961.0
958.0
961.0
960.0
963.0
963.0
961.0
961.0
958.0
959.0
957.0
957.0
955.0
956.0
959.0
957.0
959.0
957.0
957.0
956.0
955.0
957.0
956.0
954.0
954.0
955.0
957.0
957.0
959.0
961.0
959.0
959.0
957.0
956.0
955.0
955.0
954.0
954.0
954.0
957.0
960.0
960.0
960.0
963.0
963.0
967.0
970.0
973.0
977.0
983.0
990.0
997.0
1009.0
1022.0
1032.0
1046.0
1061.0
1075.0
1097.0
1123.0
1148.0
1172.0
1198.0
1216.0
1232.0
1238.0
1235.0
1227.0
1212.0
1189.0
1160.0
1131.0
1097.0
1066.0
1038.0
1013.0
993.0
974.0
960.0
947.0
936.0
929.0
924.0
919.0
914.0
909.0
907.0
904.0
900.0
901.0
899.0
898.0
893.0
892.0
891.0
891.0
892.0
890.0
891.0
891.0
891.0
889.0
885.0
884.0
880.0
878.0
875.0
872.0
871.0
871.0
869.0
869.0
870.0
869.0
871.0
870.0
868.0
868.0
867.0
861.0
859.0
859.0
857.0
856.0
855.0
855.0
850.0
849.0
845.0
839.0
835.0
834.0
831.0
830.0
828.0
828.0
826.0
826.0
826.0
823.0
820.0
819.0
817.0
815.0
815.0
815.0
819.0
822.0
824.0
827.0
827.0
830.0
829.0
830.0
830.0
831.0
835.0
843.0
848.0
856.0
862.0
869.0
873.0
878.0
880.0
882.0
885.0
887.0
892.0
896.0
900.0
904.0
909.0
911.0
911.0
917.0
918.0
919.0
920.0
920.0
920.0
922.0
922.0
922.0
923.0
927.0
929.0
929.0
927.0
924.0
926.0
927.0
926.0
926.0
929.0
925.0
928.0
930.0
929.0
925.0
925.0
924.0
923.0
923.0
922.0
923.0
924.0
922.0
926.0
927.0
924.0
925.0
922.0
924.0
923.0
925.0
926.0
928.0
932.0
935.0
937.0
933.0
931.0
925.0
918.0
910.0
908.0
908.0
912.0
919.0
934.0
954.0
970.0
984.0
991.0
990.0
984.0
970.0
955.0
928.0
898.0
867.0
839.0
817.0
803.0
792.0
779.0
769.0
757.0
747.0
739.0
736.0
739.0
749.0
760.0
772.0
785.0
796.0
806.0
815.0
819.0
826.0
831.0
838.0
849.0
858.0
870.0
879.0
889.0
896.0
902.0
910.0
914.0
917.0
923.0
925.0
934.0
939.0
945.0
950.0
956.0
959.0
960.0
961.0
959.0
962.0
962.0
964.0
967.0
969.0
968.0
969.0
969.0
970.0
969.0
967.0
964.0
966.0
971.0
970.0
975.0
978.0
983.0
990.0
993.0
996.0
998.0
1000.0
1001.0
1002.0
1006.0
1006.0
1008.0
1016.0
1021.0
1027.0
1032.0
1034.0
1036.0
1040.0
1043.0
1045.0
1050.0
1050.0
1055.0
1060.0
1064.0
1070.0
1073.0
1077.0
1078.0
1081.0
1080.0
1081.0
1082.0
1081.0
1083.0
1086.0
1086.0
1087.0
1082.0
1081.0
1080.0
1078.0
1073.0
1070.0
1066.0
1063.0
1059.0
1054.0
1052.0
1050.0
1048.0
1046.0
1039.0
1033.0
1026.0
1024.0
1017.0
1009.0
1004.0
1000.0
1000.0
999.0
999.0
996.0
992.0
987.0
984.0
981.0
979.0
978.0
978.0
977.0
976.0
978.0
977.0
979.0
978.0
976.0
977.0
976.0
973.0
974.0
972.0
972.0
973.0
976.0
978.0
978.0
977.0
976.0
975.0
976.0
973.0
972.0
971.0
971.0
974.0
974.0
978.0
978.0
975.0
973.0
972.0
974.0
973.0
971.0
972.0
973.0
975.0
976.0
976.0
977.0
977.0
975.0
974.0
973.0
972.0
970.0
971.0
971.0
973.0
970.0
971.0
971.0
971.0
970.0
971.0
968.0
967.0
965.0
966.0
965.0
966.0
964.0
967.0
966.0
968.0
965.0
964.0
964.0
964.0
964.0
963.0
963.0
961.0
965.0
963.0
961.0
963.0
963.0
963.0
962.0
961.0
960.0
959.0
959.0
961.0
964.0
966.0
969.0
966.0
968.0
965.0
965.0
967.0
970.0
972.0
977.0
981.0
991.0
997.0
1005.0
1015.0
1025.0
1036.0
1048.0
1066.0
1084.0
1107.0
1131.0
1160.0
1187.0
1212.0
1233.0
1250.0
1262.0
1270.0
1267.0
1262.0
1249.0
1233.0
1209.0
1186.0
1163.0
1139.0
1113.0
1087.0
1060.0
1031.0
1006.0
986.0
964.0
950.0
942.0
936.0
935.0
934.0
932.0
927.0
924.0
918.0
912.0
907.0
906.0
902.0
903.0
904.0
906.0
907.0
908.0
906.0
906.0
900.0
899.0
896.0
895.0
893.0
890.0
889.0
889.0
888.0
887.0
890.0
888.0
885.0
885.0
883.0
880.0
881.0
879.0
880.0
879.0
874.0
876.0
876.0
875.0
870.0
866.0
864.0
858.0
857.0
855.0
852.0
850.0
851.0
852.0
849.0
847.0
843.0
841.0
839.0
837.0
835.0
834.0
833.0
834.0
834.0
834.0
835.0
833.0
831.0
831.0
830.0
829.0
834.0
833.0
835.0
839.0
842.0
842.0
848.0
850.0
852.0
854.0
855.0
858.0
865.0
868.0
876.0
879.0
885.0
890.0
895.0
900.0
906.0
907.0
912.0
914.0
914.0
916.0
922.0
926.0
930.0
932.0
933.0
936.0
936.0
937.0
938.0
940.0
940.0
941.0
941.0
943.0
945.0
950.0
947.0
947.0
945.0
943.0
940.0
940.0
939.0
941.0
940.0
943.0
944.0
946.0
946.0
947.0
946.0
943.0
943.0
940.0
936.0
939.0
939.0
939.0
939.0
941.0
938.0
940.0
941.0
940.0
939.0
939.0
941.0
942.0
946.0
947.0
952.0
952.0
952.0
948.0
940.0
933.0
927.0
922.0
919.0
922.0
928.0
937.0
952.0
972.0
991.0
1002.0
1008.0
1006.0
999.0
986.0
964.0
937.0
906.0
876.0
852.0
833.0
821.0
809.0
798.0
788.0
777.0
766.0
760.0
761.0
768.0
780.0
789.0
803.0
812.0
815.0
824.0
832.0
839.0
847.0
855.0
866.0
878.0
890.0
903.0
915.0
923.0
927.0
932.0
939.0
945.0
949.0
954.0
959.0
963.0
966.0
969.0
972.0
974.0
977.0
976.0
977.0
980.0
980.0
976.0
976.0
978.0
981.0
983.0
986.0
987.0
986.0
985.0
983.0
983.0
982.0
983.0
984.0
988.0
990.0
996.0
999.0
1002.0
1005.0
1007.0
1007.0
1007.0
1011.0
1013.0
1016.0
1021.0
1024.0
1028.0
1034.0
1037.0
1038.0
1043.0
1048.0
1050.0
1052.0
1054.0
1058.0
1062.0
1066.0
1071.0
1075.0
1078.0
1081.0
1085.0
1087.0
1088.0
1090.0
1089.0
1090.0
1090.0
1095.0
1096.0
1095.0
1092.0
1092.0
1088.0
1085.0
1078.0
1076.0
1075.0
1068.0
1065.0
1060.0
1058.0
1056.0
1054.0
1051.0
1045.0
1042.0
1039.0
1033.0
1030.0
1025.0
1022.0
1020.0
1015.0
1014.0
1014.0
1009.0
1007.0
1004.0
998.0
999.0
996.0
991.0
992.0
992.0
993.0
992.0
992.0
989.0
986.0
985.0
984.0
986.0
986.0
985.0
986.0
988.0
989.0
988.0
986.0
985.0
988.0
984.0
986.0
985.0
984.0
984.0
983.0
987.0
986.0
989.0
987.0
987.0
987.0
986.0
987.0
985.0
984.0
985.0
985.0
987.0
986.0
989.0
986.0
986.0
986.0
984.0
981.0
982.0
981.0
980.0
980.0
982.0
981.0
984.0
983.0
984.0
982.0
982.0
980.0
978.0
978.0
977.0
977.0
977.0
981.0
982.0
981.0
980.0
981.0
978.0
976.0
974.0
974.0
975.0
977.0
979.0
977.0
982.0
979.0
981.0
981.0
981.0
978.0
978.0
979.0
979.0
979.0
980.0
985.0
988.0
991.0
996.0
1000.0
1008.0
1013.0
1022.0
1031.0
1041.0
1057.0
1076.0
1095.0
1118.0
1144.0
1169.0
1195.0
1218.0
1237.0
1251.0
1254.0
1248.0
1235.0
1217.0
1190.0
1160.0
1132.0
1100.0
1072.0
1048.0
1029.0
1010.0
995.0
980.0
971.0
968.0
957.0
953.0
950.0
946.0
945.0
941.0
935.0
931.0
925.0
922.0
920.0
921.0
921.0
924.0
925.0
925.0
921.0
922.0
919.0
915.0
913.0
912.0
912.0
913.0
912.0
915.0
913.0
911.0
911.0
906.0
902.0
900.0
899.0
898.0
897.0
899.0
899.0
900.0
900.0
903.0
898.0
896.0
894.0
892.0
888.0
887.0
885.0
885.0
885.0
884.0
880.0
878.0
873.0
871.0
867.0
864.0
858.0
860.0
859.0
858.0
854.0
855.0
855.0
853.0
849.0
847.0
848.0
847.0
845.0
845.0
844.0
846.0
850.0
851.0
853.0
855.0
854.0
854.0
854.0
858.0
859.0
863.0
867.0
871.0
874.0
878.0
885.0
887.0
891.0
895.0
896.0
900.0
906.0
910.0
915.0
919.0
924.0
928.0
932.0
936.0
938.0
938.0
938.0
939.0
940.0
943.0
945.0
946.0
951.0
953.0
954.0
954.0
954.0
954.0
950.0
954.0
952.0
952.0
951.0
954.0
953.0
957.0
956.0
955.0
956.0
954.0
951.0
951.0
948.0
947.0
949.0
952.0
952.0
948.0
951.0
947.0
946.0
946.0
946.0
946.0
948.0
950.0
951.0
956.0
958.0
961.0
962.0
965.0
962.0
955.0
947.0
942.0
938.0
934.0
937.0
946.0
958.0
974.0
991.0
1003.0
1011.0
1012.0
1010.0
997.0
984.0
964.0
939.0
911.0
882.0
859.0
841.0
827.0
815.0
801.0
789.0
777.0
767.0
765.0
768.0
778.0
792.0
808.0
823.0
833.0
845.0
850.0
859.0
867.0
879.0
890.0
902.0
913.0
921.0
931.0
938.0
945.0
950.0
954.0
959.0
964.0
967.0
973.0
975.0
977.0
984.0
987.0
988.0
988.0
990.0
990.0
989.0
990.0
988.0
989.0
990.0
991.0
993.0
993.0
995.0
996.0
995.0
996.0
994.0
998.0
1002.0
1005.0
1008.0
1013.0
1015.0
1018.0
1020.0
1023.0
1024.0
1026.0
1027.0
1027.0
1030.0
1035.0
1038.0
1042.0
1048.0
1054.0
1057.0
1059.0
1065.0
1067.0
1071.0
1072.0
1077.0
1082.0
1087.0
1093.0
1097.0
1101.0
