# Simple Text Format
# Sampling Rate (Hz):= 360.00
# Resolution:= 12
# Labels:= ECG
957.0
963.0
969.0
975.0
977.0
983.0
985.0
989.0
994.0
997.0
1002.0
1010.0
1013.0
1018.0
1018.0
1020.0
1018.0
1016.0
1015.0
1012.0
1007.0
1005.0
1005.0
1005.0
1005.0
1003.0
1000.0
996.0
994.0
988.0
984.0
977.0
971.0
970.0
967.0
964.0
962.0
960.0
957.0
953.0
952.0
946.0
944.0
940.0
940.0
940.0
936.0
936.0
934.0
936.0
936.0
932.0
931.0
929.0
928.0
926.0
924.0
926.0
930.0
929.0
931.0
930.0
929.0
929.0
929.0
928.0
927.0
926.0
924.0
924.0
925.0
928.0
929.0
929.0
929.0
931.0
930.0
928.0
928.0
926.0
925.0
926.0
927.0
927.0
926.0
930.0
932.0
929.0
929.0
926.0
925.0
924.0
923.0
923.0
923.0
924.0
925.0
927.0
931.0
928.0
928.0
926.0
923.0
923.0
920.0
921.0
921.0
922.0
922.0
924.0
924.0
924.0
924.0
921.0
918.0
919.0
918.0
919.0
920.0
921.0
922.0
922.0
924.0
924.0
922.0
919.0
919.0
919.0
917.0
915.0
916.0
919.0
922.0
921.0
924.0
923.0
924.0
920.0
918.0
916.0
916.0
918.0
918.0
918.0
919.0
921.0
922.0
921.0
922.0
922.0
921.0
922.0
921.0
922.0
923.0
925.0
931.0
935.0
941.0
949.0
956.0
966.0
977.0
988.0
1005.0
1024.0
1048.0
1075.0
1111.0
1150.0
1189.0
1229.0
1270.0
1305.0
1331.0
1345.0
1348.0
1342.0
1328.0
1309.0
1282.0
1248.0
1204.0
1152.0
1089.0
1030.0
978.0
935.0
911.0
895.0
884.0
881.0
884.0
880.0
879.0
870.0
867.0
858.0
856.0
851.0
850.0
848.0
849.0
850.0
851.0
850.0
849.0
849.0
843.0
842.0
842.0
839.0
836.0
833.0
831.0
827.0
823.0
823.0
822.0
818.0
818.0
814.0
813.0
811.0
808.0
807.0
805.0
805.0
802.0
802.0
797.0
794.0
791.0
785.0
780.0
777.0
772.0
769.0
769.0
768.0
768.0
764.0
763.0
759.0
755.0
756.0
751.0
750.0
747.0
746.0
746.0
745.0
746.0
749.0
750.0
750.0
751.0
752.0
754.0
755.0
755.0
757.0
761.0
763.0
769.0
773.0
777.0
781.0
788.0
792.0
794.0
797.0
798.0
806.0
811.0
818.0
826.0
833.0
840.0
842.0
847.0
851.0
854.0
855.0
857.0
863.0
869.0
872.0
876.0
877.0
879.0
881.0
881.0
882.0
884.0
885.0
884.0
884.0
886.0
888.0
890.0
892.0
894.0
893.0
893.0
891.0
889.0
886.0
887.0
886.0
885.0
884.0
886.0
889.0
889.0
887.0
887.0
885.0
885.0
886.0
886.0
888.0
891.0
893.0
894.0
893.0
893.0
888.0
883.0
876.0
873.0
872.0
871.0
879.0
890.0
905.0
924.0
947.0
976.0
1004.0
1027.0
1045.0
1062.0
1074.0
1076.0
1077.0
1066.0
1045.0
1016.0
984.0
953.0
926.0
908.0
892.0
879.0
859.0
837.0
813.0
788.0
772.0
760.0
756.0
758.0
763.0
767.0
773.0
776.0
779.0
783.0
787.0
793.0
801.0
812.0
824.0
834.0
844.0
852.0
857.0
864.0
870.0
875.0
884.0
893.0
897.0
901.0
901.0
902.0
902.0
900.0
899.0
898.0
898.0
897.0
895.0
894.0
897.0
897.0
896.0
895.0
894.0
888.0
889.0
887.0
880.0
879.0
880.0
879.0
879.0
881.0
883.0
886.0
885.0
885.0
887.0
891.0
895.0
895.0
898.0
901.0
904.0
909.0
910.0
915.0
918.0
920.0
921.0
921.0
924.0
930.0
935.0
943.0
952.0
959.0
967.0
974.0
981.0
988.0
992.0
999.0
1002.0
1004.0
1008.0
1015.0
1018.0
1022.0
1025.0
1025.0
1023.0
1025.0
1021.0
1019.0
1015.0
1010.0
1007.0
1005.0
1004.0
1002.0
1001.0
998.0
994.0
990.0
985.0
979.0
976.0
971.0
967.0
965.0
960.0
959.0
955.0
954.0
952.0
946.0
943.0
942.0
939.0
938.0
935.0
934.0
935.0
936.0
934.0
935.0
936.0
936.0
933.0
931.0
931.0
930.0
929.0
931.0
931.0
932.0
936.0
933.0
934.0
933.0
933.0
932.0
932.0
931.0
931.0
932.0
934.0
934.0
938.0
938.0
936.0
935.0
934.0
935.0
932.0
934.0
934.0
934.0
935.0
935.0
935.0
936.0
933.0
933.0
931.0
931.0
929.0
928.0
929.0
929.0
930.0
930.0
934.0
934.0
933.0
933.0
930.0
930.0
928.0
925.0
924.0
926.0
927.0
927.0
927.0
929.0
929.0
929.0
927.0
926.0
925.0
925.0
923.0
925.0
925.0
926.0
927.0
926.0
927.0
927.0
927.0
925.0
924.0
924.0
923.0
924.0
926.0
925.0
925.0
928.0
926.0
927.0
925.0
925.0
923.0
923.0
920.0
924.0
925.0
925.0
928.0
928.0
929.0
928.0
925.0
926.0
924.0
925.0
924.0
927.0
927.0
928.0
931.0
929.0
929.0
932.0
931.0
932.0
936.0
940.0
947.0
956.0
964.0
974.0
987.0
1003.0
1019.0
1035.0
1054.0
1079.0
1107.0
1139.0
1176.0
1215.0
1252.0
1290.0
1320.0
1344.0
1356.0
1360.0
1358.0
1348.0
1333.0
1315.0
1295.0
1268.0
1230.0
1185.0
1134.0
1075.0
1023.0
979.0
946.0
923.0
909.0
900.0
895.0
892.0
889.0
885.0
883.0
873.0
870.0
863.0
857.0
851.0
848.0
846.0
845.0
846.0
846.0
849.0
849.0
849.0
843.0
844.0
841.0
839.0
837.0
834.0
832.0
832.0
829.0
830.0
827.0
829.0
825.0
823.0
821.0
818.0
814.0
812.0
812.0
810.0
810.0
811.0
808.0
808.0
804.0
800.0
792.0
789.0
785.0
782.0
779.0
774.0
773.0
774.0
771.0
772.0
767.0
764.0
760.0
756.0
755.0
752.0
752.0
751.0
751.0
749.0
750.0
752.0
752.0
754.0
753.0
754.0
755.0
755.0
758.0
760.0
763.0
769.0
773.0
776.0
780.0
784.0
790.0
792.0
795.0
799.0
808.0
813.0
818.0
826.0
831.0
837.0
841.0
846.0
848.0
849.0
854.0
858.0
862.0
865.0
871.0
873.0
878.0
878.0
879.0
880.0
878.0
880.0
884.0
881.0
885.0
885.0
888.0
888.0
887.0
889.0
886.0
887.0
886.0
885.0
883.0
881.0
882.0
881.0
885.0
883.0
883.0
885.0
884.0
883.0
880.0
879.0
878.0
878.0
881.0
881.0
885.0
886.0
887.0
886.0
879.0
876.0
874.0
873.0
877.0
881.0
897.0
917.0
945.0
975.0
1008.0
1032.0
1053.0
1067.0
1072.0
1064.0
1048.0
1020.0
991.0
957.0
929.0
908.0
892.0
874.0
853.0
833.0
809.0
791.0
777.0
769.0
769.0
771.0
777.0
783.0
787.0
796.0
797.0
799.0
804.0
810.0
819.0
829.0
838.0
846.0
855.0
861.0
871.0
876.0
881.0
883.0
882.0
879.0
876.0
875.0
874.0
872.0
876.0
881.0
883.0
886.0
888.0
889.0
887.0
885.0
883.0
883.0
883.0
883.0
883.0
883.0
883.0
883.0
881.0
881.0
881.0
882.0
882.0
882.0
885.0
891.0
894.0
896.0
898.0
902.0
906.0
910.0
910.0
913.0
915.0
919.0
925.0
929.0
936.0
944.0
949.0
954.0
957.0
961.0
967.0
970.0
972.0
978.0
983.0
990.0
995.0
1000.0
1005.0
1008.0
1009.0
1012.0
1013.0
1013.0
1011.0
1009.0
1009.0
1010.0
1007.0
1005.0
1004.0
1001.0
998.0
993.0
990.0
982.0
977.0
972.0
969.0
965.0
962.0
961.0
957.0
955.0
951.0
948.0
944.0
940.0
937.0
933.0
932.0
928.0
929.0
928.0
929.0
930.0
929.0
926.0
925.0
923.0
920.0
920.0
919.0
922.0
922.0
923.0
925.0
924.0
925.0
923.0
923.0
923.0
921.0
920.0
920.0
920.0
922.0
923.0
925.0
926.0
924.0
925.0
925.0
922.0
922.0
921.0
922.0
922.0
922.0
925.0
924.0
926.0
922.0
921.0
919.0
920.0
918.0
918.0
914.0
917.0
917.0
919.0
918.0
919.0
919.0
919.0
917.0
916.0
916.0
916.0
913.0
915.0
912.0
912.0
918.0
917.0
917.0
917.0
915.0
915.0
913.0
911.0
912.0
908.0
913.0
914.0
915.0
915.0
916.0
915.0
914.0
913.0
911.0
911.0
910.0
911.0
912.0
913.0
913.0
913.0
912.0
911.0
911.0
909.0
909.0
908.0
907.0
907.0
909.0
909.0
912.0
913.0
913.0
914.0
913.0
910.0
909.0
908.0
910.0
912.0
911.0
913.0
918.0
919.0
918.0
919.0
921.0
922.0
927.0
931.0
937.0
945.0
956.0
968.0
981.0
1002.0
1021.0
1042.0
1073.0
1105.0
1142.0
1179.0
1215.0
1246.0
1273.0
1294.0
1308.0
1309.0
1303.0
1291.0
1275.0
1254.0
1232.0
1203.0
1171.0
1128.0
1080.0
1029.0
984.0
942.0
918.0
903.0
892.0
885.0
880.0
876.0
871.0
868.0
861.0
855.0
851.0
849.0
847.0
843.0
843.0
841.0
839.0
838.0
839.0
838.0
836.0
835.0
836.0
838.0
836.0
838.0
834.0
833.0
828.0
824.0
822.0
822.0
818.0
817.0
819.0
819.0
815.0
817.0
814.0
813.0
809.0
806.0
804.0
802.0
799.0
798.0
798.0
795.0
792.0
789.0
786.0
780.0
778.0
774.0
770.0
769.0
766.0
765.0
765.0
764.0
763.0
761.0
758.0
757.0
756.0
754.0
753.0
753.0
754.0
756.0
759.0
761.0
760.0
763.0
765.0
766.0
767.0
768.0
772.0
776.0
782.0
786.0
791.0
799.0
802.0
809.0
811.0
816.0
819.0
823.0
829.0
836.0
839.0
842.0
849.0
855.0
859.0
862.0
864.0
865.0
867.0
868.0
870.0
874.0
880.0
880.0
882.0
885.0
883.0
886.0
887.0
886.0
884.0
882.0
883.0
884.0
882.0
889.0
888.0
890.0
888.0
888.0
888.0
885.0
884.0
883.0
883.0
883.0
884.0
884.0
885.0
886.0
885.0
884.0
885.0
885.0
884.0
884.0
885.0
884.0
887.0
885.0
880.0
879.0
876.0
879.0
887.0
900.0
919.0
945.0
975.0
1005.0
1028.0
1048.0
1064.0
1072.0
1068.0
1058.0
1035.0
1006.0
971.0
942.0
916.0
897.0
881.0
864.0
850.0
831.0
812.0
793.0
780.0
772.0
767.0
768.0
770.0
773.0
778.0
782.0
786.0
790.0
797.0
800.0
807.0
819.0
829.0
839.0
847.0
855.0
861.0
871.0
881.0
892.0
898.0
904.0
907.0
907.0
907.0
906.0
904.0
907.0
907.0
906.0
907.0
907.0
906.0
903.0
902.0
901.0
897.0
895.0
894.0
890.0
889.0
889.0
892.0
893.0
893.0
894.0
896.0
898.0
899.0
897.0
899.0
901.0
906.0
911.0
912.0
918.0
922.0
920.0
923.0
924.0
925.0
927.0
931.0
935.0
943.0
948.0
954.0
963.0
967.0
972.0
976.0
984.0
987.0
990.0
995.0
1001.0
1008.0
1011.0
1017.0
1022.0
1025.0
1027.0
1029.0
1029.0
1028.0
1026.0
1025.0
1024.0
1025.0
1024.0
1023.0
1024.0
1020.0
1016.0
1013.0
1008.0
1003.0
995.0
990.0
989.0
985.0
982.0
980.0
978.0
973.0
968.0
965.0
962.0
959.0
955.0
952.0
952.0
949.0
948.0
948.0
949.0
945.0
943.0
944.0
941.0
939.0
935.0
937.0
936.0
939.0
939.0
941.0
942.0
940.0
939.0
940.0
941.0
939.0
940.0
941.0
940.0
941.0
942.0
943.0
944.0
945.0
946.0
943.0
944.0
941.0
940.0
940.0
939.0
942.0
944.0
946.0
947.0
946.0
945.0
942.0
943.0
942.0
941.0
940.0
941.0
940.0
940.0
941.0
942.0
939.0
940.0
939.0
940.0
938.0
938.0
938.0
935.0
938.0
937.0
938.0
937.0
936.0
939.0
938.0
937.0
935.0
934.0
932.0
936.0
937.0
940.0
939.0
941.0
939.0
939.0
935.0
935.0
934.0
933.0
935.0
937.0
936.0
935.0
937.0
938.0
938.0
940.0
936.0
935.0
935.0
936.0
936.0
934.0
936.0
938.0
937.0
939.0
941.0
940.0
939.0
940.0
937.0
938.0
936.0
938.0
938.0
939.0
940.0
944.0
951.0
956.0
961.0
967.0
976.0
987.0
999.0
1014.0
1033.0
1057.0
1084.0
1119.0
1152.0
1190.0
1227.0
1266.0
1304.0
1335.0
1352.0
1367.0
1367.0
1358.0
1342.0
1321.0
1292.0
1254.0
1211.0
1160.0
1105.0
1054.0
1008.0
973.0
948.0
929.0
920.0
914.0
912.0
907.0
904.0
896.0
890.0
883.0
878.0
874.0
870.0
867.0
864.0
864.0
863.0
865.0
862.0
861.0
860.0
857.0
857.0
855.0
853.0
854.0
853.0
858.0
853.0
853.0
849.0
847.0
842.0
840.0
839.0
836.0
834.0
834.0
834.0
833.0
832.0
833.0
829.0
827.0
823.0
822.0
819.0
814.0
811.0
808.0
809.0
809.0
805.0
801.0
797.0
792.0
788.0
786.0
783.0
780.0
778.0
779.0
775.0
773.0
773.0
769.0
765.0
765.0
764.0
761.0
763.0
762.0
763.0
765.0
768.0
767.0
770.0
772.0
773.0
775.0
776.0
777.0
780.0
784.0
790.0
797.0
802.0
806.0
812.0
818.0
823.0
826.0
831.0
835.0
838.0
844.0
852.0
858.0
864.0
870.0
873.0
878.0
878.0
881.0
884.0
884.0
886.0
888.0
895.0
896.0
898.0
902.0
901.0
906.0
904.0
904.0
902.0
903.0
903.0
904.0
906.0
909.0
910.0
911.0
913.0
911.0
910.0
909.0
907.0
903.0
904.0
904.0
906.0
906.0
906.0
906.0
908.0
907.0
907.0
903.0
903.0
902.0
903.0
902.0
908.0
912.0
914.0
916.0
918.0
919.0
915.0
909.0
906.0
902.0
896.0
896.0
897.0
902.0
911.0
924.0
946.0
968.0
990.0
1012.0
1033.0
1050.0
1065.0
1074.0
1081.0
1076.0
1060.0
1034.0
1003.0
968.0
940.0
916.0
899.0
881.0
864.0
842.0
817.0
798.0
781.0
772.0
769.0
767.0
769.0
781.0
788.0
795.0
802.0
803.0
810.0
814.0
821.0
831.0
841.0
846.0
852.0
858.0
862.0
869.0
872.0
877.0
884.0
891.0
896.0
902.0
903.0
902.0
903.0
904.0
903.0
902.0
901.0
903.0
905.0
907.0
908.0
911.0
914.0
916.0
913.0
912.0
910.0
907.0
906.0
907.0
908.0
907.0
908.0
911.0
913.0
914.0
915.0
915.0
916.0
917.0
919.0
922.0
924.0
929.0
934.0
941.0
945.0
951.0
954.0
957.0
961.0
964.0
971.0
976.0
978.0
989.0
996.0
1003.0
1003.0
1009.0
1016.0
1020.0
1022.0
1025.0
1030.0
1031.0
1035.0
1039.0
1042.0
1042.0
1043.0
1043.0
1041.0
1039.0
1036.0
1031.0
1029.0
1025.0
1024.0
1022.0
1016.0
1015.0
1013.0
1005.0
1000.0
997.0
989.0
986.0
980.0
979.0
976.0
973.0
971.0
970.0
968.0
967.0
965.0
962.0
959.0
955.0
955.0
954.0
955.0
953.0
953.0
953.0
954.0
952.0
952.0
951.0
950.0
949.0
949.0
949.0
949.0
949.0
953.0
954.0
955.0
954.0
951.0
949.0
946.0
950.0
949.0
949.0
950.0
952.0
954.0
955.0
953.0
953.0
949.0
947.0
949.0
948.0
946.0
944.0
949.0
948.0
948.0
949.0
949.0
947.0
946.0
945.0
945.0
944.0
943.0
942.0
943.0
946.0
945.0
947.0
946.0
944.0
945.0
940.0
942.0
941.0
940.0
940.0
940.0
942.0
941.0
942.0
945.0
947.0
944.0
943.0
942.0
940.0
940.0
941.0
939.0
941.0
944.0
946.0
945.0
946.0
945.0
947.0
945.0
945.0
944.0
945.0
946.0
948.0
952.0
957.0
962.0
966.0
972.0
975.0
983.0
992.0
1003.0
1016.0
1033.0
1050.0
1073.0
1101.0
1128.0
1160.0
1192.0
1226.0
1259.0
1288.0
1318.0
1339.0
1354.0
1364.0
1363.0
1358.0
1351.0
1336.0
1319.0
1298.0
1267.0
1227.0
1180.0
1128.0
1071.0
1022.0
976.0
950.0
929.0
914.0
907.0
904.0
899.0
897.0
891.0
885.0
879.0
874.0
870.0
869.0
868.0
865.0
863.0
862.0
862.0
860.0
858.0
858.0
856.0
858.0
858.0
857.0
854.0
852.0
849.0
847.0
843.0
842.0
837.0
835.0
836.0
833.0
832.0
834.0
832.0
832.0
829.0
828.0
823.0
819.0
817.0
817.0
813.0
811.0
808.0
807.0
803.0
799.0
797.0
792.0
787.0
783.0
781.0
777.0
777.0
777.0
773.0
774.0
773.0
769.0
765.0
764.0
761.0
761.0
761.0
761.0
761.0
762.0
766.0
770.0
772.0
776.0
776.0
779.0
782.0
786.0
790.0
795.0
801.0
808.0
816.0
821.0
828.0
833.0
838.0
842.0
845.0
851.0
856.0
862.0
867.0
871.0
877.0
882.0
885.0
886.0
887.0
888.0
888.0
886.0
889.0
890.0
895.0
896.0
899.0
903.0
904.0
902.0
902.0
900.0
896.0
896.0
896.0
896.0
898.0
899.0
901.0
902.0
903.0
900.0
900.0
899.0
896.0
898.0
896.0
893.0
895.0
895.0
898.0
898.0
897.0
895.0
894.0
893.0
895.0
893.0
895.0
898.0
900.0
901.0
901.0
902.0
899.0
895.0
892.0
891.0
895.0
903.0
918.0
942.0
971.0
1003.0
1035.0
1058.0
1075.0
1086.0
1087.0
1078.0
1055.0
1029.0
997.0
969.0
942.0
919.0
902.0
885.0
862.0
836.0
812.0
792.0
780.0
776.0
777.0
783.0
787.0
793.0
798.0
803.0
804.0
806.0
812.0
819.0
826.0
834.0
842.0
850.0
857.0
865.0
872.0
880.0
890.0
897.0
899.0
901.0
903.0
906.0
905.0
906.0
906.0
908.0
907.0
909.0
909.0
908.0
906.0
906.0
901.0
901.0
899.0
898.0
896.0
896.0
893.0
893.0
892.0
891.0
889.0
890.0
890.0
892.0
892.0
895.0
899.0
904.0
905.0
911.0
913.0
914.0
917.0
919.0
920.0
922.0
923.0
926.0
933.0
940.0
950.0
956.0
963.0
970.0
977.0
982.0
985.0
989.0
993.0
998.0
1002.0
1008.0
1013.0
1018.0
1020.0
1022.0
1024.0
1024.0
1023.0
1021.0
1018.0
1019.0
1020.0
1021.0
1020.0
1019.0
1016.0
1013.0
1009.0
1003.0
998.0
996.0
991.0
987.0
986.0
985.0
982.0
979.0
977.0
969.0
967.0
963.0
959.0
954.0
948.0
946.0
943.0
945.0
945.0
943.0
941.0
940.0
941.0
939.0
935.0
934.0
933.0
933.0
934.0
935.0
934.0
935.0
935.0
935.0
936.0
936.0
934.0
932.0
932.0
932.0
933.0
934.0
938.0
938.0
940.0
939.0
937.0
937.0
937.0
936.0
934.0
935.0
936.0
936.0
937.0
939.0
939.0
939.0
938.0
939.0
937.0
935.0
934.0
935.0
934.0
937.0
934.0
935.0
934.0
934.0
934.0
933.0
931.0
934.0
933.0
934.0
931.0
931.0
933.0
935.0
936.0
935.0
936.0
935.0
935.0
929.0
931.0
929.0
929.0
930.0
931.0
933.0
933.0
933.0
931.0
932.0
930.0
929.0
928.0
930.0
928.0
932.0
932.0
933.0
934.0
934.0
934.0
933.0
933.0
934.0
934.0
933.0
934.0
939.0
942.0
946.0
950.0
954.0
957.0
965.0
973.0
981.0
990.0
1003.0
1018.0
1037.0
1063.0
1089.0
1117.0
1148.0
1181.0
1216.0
1247.0
1272.0
1292.0
1302.0
1305.0
1301.0
1290.0
1275.0
1254.0
1235.0
1208.0
1174.0
1136.0
1091.0
1047.0
1006.0
974.0
950.0
934.0
924.0
915.0
910.0
906.0
901.0
894.0
890.0
886.0
884.0
880.0
882.0
879.0
880.0
878.0
876.0
874.0
871.0
865.0
861.0
853.0
853.0
849.0
845.0
844.0
840.0
840.0
838.0
834.0
835.0
830.0
827.0
827.0
824.0
820.0
821.0
817.0
818.0
817.0
814.0
811.0
806.0
801.0
798.0
795.0
790.0
787.0
786.0
784.0
783.0
782.0
778.0
774.0
771.0
768.0
766.0
767.0
765.0
765.0
764.0
768.0
767.0
768.0
768.0
768.0
766.0
767.0
769.0
771.0
772.0
775.0
779.0
784.0
791.0
793.0
796.0
803.0
805.0
810.0
813.0
819.0
824.0
830.0
838.0
847.0
853.0
859.0
864.0
868.0
869.0
870.0
874.0
874.0
881.0
884.0
887.0
889.0
894.0
896.0
896.0
897.0
897.0
896.0
895.0
896.0
897.0
897.0
898.0
900.0
901.0
901.0
897.0
899.0
899.0
897.0
897.0
895.0
893.0
896.0
897.0
894.0
898.0
899.0
898.0
900.0
897.0
894.0
895.0
895.0
897.0
898.0
900.0
903.0
905.0
906.0
903.0
902.0
897.0
894.0
888.0
886.0
888.0
888.0
895.0
904.0
916.0
934.0
954.0
980.0
1000.0
1022.0
1043.0
1058.0
1069.0
1070.0
1064.0
1045.0
1014.0
981.0
947.0
920.0
899.0
881.0
864.0
845.0
827.0
809.0
793.0
783.0
782.0
786.0
788.0
798.0
803.0
809.0
809.0
813.0
821.0
827.0
834.0
842.0
852.0
859.0
864.0
867.0
871.0
875.0
879.0
882.0
887.0
890.0
895.0
897.0
900.0
902.0
900.0
900.0
901.0
902.0
902.0
902.0
905.0
906.0
903.0
906.0
910.0
911.0
910.0
909.0
907.0
905.0
903.0
902.0
903.0
902.0
905.0
906.0
909.0
909.0
912.0
913.0
913.0
913.0
915.0
913.0
914.0
919.0
924.0
930.0
935.0
942.0
944.0
948.0
955.0
960.0
962.0
967.0
972.0
979.0
988.0
992.0
999.0
1008.0
1014.0
1018.0
1022.0
1026.0
1029.0
1029.0
1033.0
1035.0
1038.0
1036.0
1040.0
1041.0
1038.0
1038.0
1033.0
1028.0
1025.0
1024.0
1021.0
1018.0
1015.0
1011.0
1010.0
1006.0
1001.0
998.0
993.0
988.0
983.0
981.0
978.0
971.0
971.0
969.0
968.0
964.0
962.0
961.0
957.0
954.0
951.0
950.0
949.0
950.0
949.0
952.0
954.0
955.0
955.0
952.0
950.0
948.0
946.0
946.0
945.0
947.0
950.0
951.0
952.0
953.0
952.0
950.0
952.0
950.0
949.0
948.0
948.0
951.0
952.0
952.0
953.0
952.0
952.0
953.0
951.0
949.0
950.0
949.0
947.0
947.0
946.0
950.0
951.0
951.0
951.0
947.0
948.0
947.0
946.0
944.0
944.0
944.0
945.0
946.0
945.0
945.0
944.0
946.0
945.0
942.0
941.0
941.0
940.0
939.0
941.0
941.0
942.0
943.0
943.0
940.0
939.0
940.0
937.0
939.0
939.0
939.0
942.0
942.0
941.0
940.0
941.0
940.0
940.0
938.0
937.0
938.0
938.0
939.0
940.0
940.0
940.0
941.0
940.0
938.0
943.0
942.0
942.0
940.0
941.0
939.0
941.0
943.0
944.0
946.0
943.0
946.0
943.0
943.0
942.0
943.0
943.0
942.0
944.0
948.0
952.0
959.0
962.0
966.0
969.0
975.0
980.0
988.0
1001.0
1014.0
1031.0
1048.0
1071.0
1092.0
1118.0
1150.0
1181.0
1218.0
1251.0
1281.0
1312.0
1336.0
1351.0
1362.0
1367.0
1364.0
1356.0
1345.0
1329.0
1311.0
1291.0
1267.0
1238.0
1201.0
1159.0
1114.0
1068.0
1029.0
993.0
966.0
945.0
931.0
920.0
913.0
909.0
905.0
902.0
894.0
890.0
884.0
875.0
872.0
868.0
868.0
864.0
862.0
863.0
863.0
863.0
864.0
862.0
862.0
860.0
860.0
853.0
853.0
849.0
848.0
846.0
842.0
839.0
837.0
840.0
839.0
838.0
835.0
834.0
833.0
831.0
830.0
826.0
825.0
821.0
821.0
818.0
816.0
814.0
810.0
805.0
801.0
796.0
793.0
790.0
787.0
786.0
783.0
782.0
782.0
777.0
776.0
772.0
766.0
765.0
762.0
763.0
762.0
763.0
763.0
765.0
770.0
768.0
769.0
766.0
767.0
768.0
771.0
773.0
772.0
776.0
783.0
787.0
792.0
798.0
802.0
806.0
812.0
815.0
821.0
829.0
834.0
842.0
849.0
856.0
861.0
868.0
871.0
876.0
880.0
883.0
887.0
891.0
894.0
898.0
902.0
902.0
906.0
908.0
909.0
909.0
909.0
907.0
906.0
907.0
908.0
910.0
912.0
915.0
914.0
914.0
911.0
912.0
909.0
908.0
907.0
906.0
907.0
909.0
909.0
911.0
910.0
910.0
911.0
908.0
908.0
906.0
907.0
909.0
910.0
913.0
916.0
919.0
921.0
920.0
915.0
913.0
907.0
901.0
897.0
899.0
896.0
900.0
908.0
920.0
937.0
958.0
979.0
1006.0
1030.0
1049.0
1068.0
1079.0
1082.0
1075.0
1055.0
1024.0
990.0
957.0
931.0
911.0
894.0
869.0
844.0
818.0
795.0
776.0
771.0
768.0
775.0
783.0
787.0
790.0
795.0
797.0
803.0
808.0
811.0
820.0
832.0
842.0
852.0
861.0
867.0
871.0
878.0
884.0
888.0
898.0
906.0
913.0
920.0
923.0
926.0
926.0
924.0
925.0
925.0
923.0
921.0
917.0
920.0
920.0
921.0
924.0
924.0
921.0
921.0
918.0
917.0
914.0
914.0
910.0
908.0
909.0
910.0
911.0
912.0
911.0
913.0
917.0
916.0
916.0
917.0
921.0
921.0
926.0
930.0
934.0
938.0
941.0
943.0
946.0
948.0
950.0
952.0
957.0
965.0
974.0
982.0
988.0
998.0
1003.0
1010.0
1015.0
1021.0
1023.0
1026.0
1029.0
1031.0
1036.0
1038.0
1044.0
1052.0
1054.0
1055.0
1053.0
1054.0
1052.0
1050.0
1050.0
1049.0
1048.0
1051.0
1049.0
1049.0
1044.0
1040.0
1036.0
1029.0
1026.0
1022.0
1020.0
1017.0
1014.0
1009.0
1008.0
1004.0
1001.0
994.0
991.0
990.0
986.0
984.0
981.0
979.0
978.0
976.0
973.0
974.0
972.0
970.0
967.0
966.0
963.0
960.0
961.0
961.0
960.0
962.0
961.0
960.0
958.0
960.0
958.0
958.0
956.0
955.0
956.0
955.0
957.0
960.0
961.0
963.0
961.0
962.0
960.0
959.0
959.0
957.0
956.0
956.0
957.0
959.0
960.0
963.0
959.0
960.0
957.0
956.0
956.0
955.0
956.0
956.0
958.0
958.0
958.0
960.0
956.0
957.0
959.0
955.0
954.0
953.0
951.0
952.0
954.0
954.0
956.0
956.0
954.0
954.0
953.0
949.0
950.0
948.0
949.0
950.0
951.0
953.0
953.0
955.0
952.0
954.0
951.0
950.0
950.0
948.0
946.0
947.0
948.0
950.0
952.0
951.0
951.0
952.0
946.0
947.0
944.0
945.0
943.0
945.0
946.0
947.0
947.0
949.0
950.0
947.0
947.0
947.0
945.0
945.0
945.0
945.0
946.0
947.0
949.0
952.0
951.0
951.0
950.0
950.0
949.0
948.0
947.0
946.0
949.0
951.0
957.0
961.0
967.0
971.0
979.0
988.0
996.0
1009.0
1022.0
1041.0
1065.0
1087.0
1118.0
1153.0
1191.0
1228.0
1267.0
1302.0
1331.0
1353.0
1366.0
1370.0
1369.0
1361.0
1346.0
1328.0
1301.0
1270.0
1228.0
1178.0
1123.0
1064.0
1014.0
974.0
947.0
931.0
923.0
919.0
914.0
911.0
905.0
901.0
893.0
886.0
881.0
876.0
871.0
867.0
870.0
868.0
867.0
867.0
867.0
862.0
862.0
859.0
859.0
857.0
858.0
856.0
856.0
853.0
850.0
847.0
843.0
840.0
836.0
835.0
835.0
831.0
832.0
832.0
832.0
831.0
829.0
826.0
822.0
818.0
815.0
810.0
808.0
806.0
803.0
801.0
799.0
797.0
793.0
790.0
785.0
783.0
778.0
775.0
775.0
772.0
773.0
770.0
769.0
771.0
770.0
770.0
768.0
767.0
768.0
766.0
769.0
772.0
775.0
778.0
780.0
785.0
788.0
791.0
795.0
798.0
802.0
805.0
813.0
817.0
825.0
832.0
840.0
849.0
855.0
858.0
866.0
868.0
872.0
878.0
880.0
884.0
887.0
892.0
893.0
894.0
896.0
898.0
897.0
898.0
897.0
900.0
901.0
900.0
901.0
903.0
904.0
907.0
907.0
904.0
904.0
903.0
900.0
902.0
898.0
900.0
902.0
901.0
904.0
902.0
901.0
900.0
899.0
898.0
900.0
898.0
899.0
899.0
899.0
902.0
904.0
908.0
906.0
906.0
903.0
902.0
900.0
894.0
893.0
891.0
892.0
899.0
905.0
921.0
939.0
962.0
989.0
1016.0
1039.0
1056.0
1071.0
1081.0
1080.0
1067.0
1043.0
1012.0
978.0
944.0
918.0
893.0
871.0
847.0
824.0
804.0
794.0
790.0
789.0
793.0
796.0
803.0
805.0
806.0
806.0
806.0
812.0
819.0
827.0
836.0
847.0
855.0
863.0
869.0
874.0
878.0
881.0
885.0
891.0
895.0
896.0
897.0
900.0
900.0
901.0
899.0
900.0
901.0
901.0
901.0
903.0
904.0
906.0
907.0
908.0
909.0
908.0
906.0
904.0
902.0
898.0
897.0
897.0
896.0
898.0
896.0
902.0
905.0
909.0
907.0
910.0
913.0
914.0
916.0
919.0
921.0
924.0
930.0
935.0
940.0
944.0
950.0
954.0
959.0
964.0
969.0
975.0
984.0
989.0
997.0
1002.0
1008.0
1013.0
1015.0
1020.0
1021.0
1023.0
1023.0
1027.0
1027.0
1029.0
1029.0
1031.0
1031.0
1030.0
1027.0
1021.0
1018.0
1014.0
1010.0
1008.0
1005.0
1000.0
999.0
995.0
993.0
991.0
985.0
979.0
975.0
971.0
966.0
963.0
960.0
956.0
956.0
956.0
955.0
955.0
953.0
948.0
945.0
941.0
940.0
941.0
940.0
940.0
941.0
941.0
943.0
943.0
942.0
941.0
939.0
936.0
935.0
937.0
934.0
936.0
940.0
940.0
942.0
943.0
943.0
940.0
940.0
938.0
936.0
938.0
939.0
939.0
940.0
941.0
942.0
942.0
943.0
940.0
939.0
938.0
937.0
934.0
936.0
936.0
937.0
938.0
940.0
939.0
938.0
936.0
936.0
933.0
933.0
933.0
931.0
933.0
934.0
937.0
936.0
937.0
936.0
933.0
934.0
932.0
931.0
930.0
932.0
932.0
932.0
932.0
936.0
934.0
934.0
934.0
932.0
930.0
930.0
931.0
930.0
930.0
929.0
928.0
931.0
932.0
931.0
929.0
929.0
928.0
928.0
925.0
927.0
928.0
929.0
931.0
931.0
927.0
929.0
927.0
928.0
928.0
925.0
925.0
925.0
