# Simple Text Format
# Sampling Rate (Hz):= 360.00
# Resolution:= 12
# Labels:= ECG
930.0
929.0
928.0
928.0
926.0
926.0
925.0
926.0
923.0
924.0
927.0
926.0
925.0
927.0
926.0
924.0
921.0
922.0
923.0
922.0
924.0
925.0
926.0
928.0
927.0
926.0
924.0
924.0
919.0
920.0
920.0
922.0
921.0
922.0
923.0
924.0
926.0
924.0
923.0
923.0
919.0
920.0
920.0
922.0
920.0
925.0
924.0
927.0
926.0
926.0
927.0
929.0
932.0
937.0
943.0
947.0
955.0
961.0
971.0
981.0
993.0
1007.0
1022.0
1037.0
1058.0
1083.0
1110.0
1144.0
1178.0
1216.0
1252.0
1291.0
1323.0
1346.0
1358.0
1361.0
1353.0
1340.0
1319.0
1294.0
1259.0
1214.0
1157.0
1093.0
1030.0
976.0
936.0
909.0
894.0
886.0
884.0
886.0
882.0
879.0
876.0
869.0
864.0
856.0
850.0
845.0
842.0
838.0
838.0
838.0
837.0
840.0
840.0
841.0
839.0
837.0
834.0
832.0
833.0
828.0
825.0
820.0
817.0
818.0
818.0
816.0
817.0
814.0
814.0
809.0
810.0
808.0
803.0
802.0
802.0
802.0
800.0
795.0
793.0
789.0
785.0
782.0
781.0
775.0
773.0
769.0
768.0
767.0
763.0
762.0
760.0
755.0
753.0
750.0
748.0
746.0
742.0
743.0
741.0
740.0
741.0
743.0
742.0
742.0
742.0
742.0
744.0
746.0
747.0
749.0
753.0
756.0
763.0
769.0
771.0
777.0
781.0
786.0
793.0
797.0
805.0
812.0
821.0
829.0
835.0
840.0
849.0
853.0
856.0
857.0
863.0
863.0
869.0
868.0
871.0
873.0
877.0
880.0
883.0
887.0
887.0
888.0
886.0
887.0
887.0
886.0
889.0
888.0
889.0
892.0
892.0
891.0
891.0
888.0
888.0
889.0
887.0
888.0
887.0
888.0
890.0
889.0
889.0
885.0
886.0
884.0
882.0
883.0
882.0
884.0
885.0
887.0
892.0
895.0
899.0
900.0
897.0
897.0
890.0
885.0
881.0
879.0
883.0
891.0
903.0
922.0
944.0
967.0
1000.0
1026.0
1053.0
1074.0
1085.0
1087.0
1080.0
1058.0
1029.0
996.0
965.0
940.0
920.0
904.0
889.0
870.0
844.0
819.0
792.0
775.0
761.0
761.0
759.0
763.0
770.0
773.0
774.0
780.0
779.0
783.0
786.0
796.0
806.0
818.0
829.0
837.0
845.0
847.0
850.0
859.0
862.0
869.0
876.0
884.0
890.0
895.0
899.0
898.0
898.0
896.0
896.0
892.0
890.0
891.0
892.0
891.0
894.0
893.0
892.0
890.0
888.0
886.0
883.0
882.0
880.0
879.0
877.0
875.0
875.0
875.0
876.0
874.0
874.0
876.0
878.0
878.0
879.0
881.0
884.0
886.0
891.0
892.0
894.0
897.0
899.0
901.0
903.0
905.0
908.0
913.0
917.0
924.0
929.0
938.0
945.0
952.0
957.0
962.0
967.0
974.0
976.0
979.0
985.0
992.0
998.0
1002.0
1007.0
1007.0
1011.0
1014.0
1014.0
1012.0
1015.0
1016.0
1018.0
1020.0
1019.0
1020.0
1019.0
1019.0
1014.0
1012.0
1009.0
1001.0
997.0
995.0
990.0
992.0
988.0
988.0
985.0
978.0
978.0
974.0
970.0
963.0
963.0
960.0
956.0
954.0
953.0
952.0
950.0
948.0
946.0
943.0
941.0
937.0
935.0
936.0
935.0
933.0
933.0
930.0
934.0
934.0
932.0
933.0
931.0
933.0
933.0
931.0
934.0
934.0
936.0
935.0
937.0
936.0
936.0
938.0
938.0
937.0
933.0
934.0
935.0
936.0
936.0
937.0
938.0
940.0
939.0
939.0
938.0
938.0
938.0
937.0
936.0
935.0
936.0
938.0
937.0
939.0
936.0
936.0
936.0
933.0
931.0
931.0
930.0
932.0
931.0
934.0
936.0
933.0
934.0
933.0
933.0
931.0
929.0
929.0
933.0
932.0
934.0
933.0
934.0
933.0
934.0
934.0
932.0
933.0
931.0
933.0
933.0
936.0
939.0
946.0
953.0
959.0
965.0
973.0
981.0
989.0
1003.0
1020.0
1040.0
1064.0
1094.0
1131.0
1169.0
1208.0
1250.0
1288.0
1322.0
1349.0
1366.0
1373.0
1369.0
1361.0
1346.0
1329.0
1304.0
1267.0
1222.0
1163.0
1097.0
1034.0
979.0
942.0
916.0
904.0
899.0
897.0
897.0
894.0
889.0
882.0
874.0
867.0
859.0
857.0
852.0
849.0
849.0
847.0
846.0
845.0
845.0
843.0
842.0
839.0
837.0
835.0
835.0
835.0
834.0
834.0
831.0
828.0
829.0
824.0
817.0
809.0
806.0
807.0
805.0
805.0
806.0
805.0
803.0
801.0
798.0
794.0
791.0
786.0
780.0
777.0
773.0
770.0
771.0
766.0
763.0
763.0
760.0
755.0
751.0
749.0
744.0
744.0
744.0
745.0
746.0
747.0
748.0
752.0
751.0
753.0
749.0
754.0
754.0
759.0
764.0
770.0
777.0
779.0
787.0
793.0
795.0
803.0
809.0
812.0
820.0
824.0
831.0
838.0
843.0
851.0
857.0
860.0
861.0
865.0
867.0
870.0
873.0
873.0
877.0
881.0
884.0
885.0
886.0
887.0
888.0
887.0
887.0
887.0
888.0
890.0
890.0
891.0
894.0
894.0
895.0
893.0
894.0
893.0
892.0
889.0
888.0
890.0
890.0
890.0
887.0
887.0
890.0
890.0
890.0
888.0
887.0
888.0
887.0
887.0
887.0
891.0
892.0
895.0
896.0
896.0
893.0
894.0
889.0
885.0
882.0
884.0
888.0
897.0
913.0
934.0
958.0
989.0
1017.0
1040.0
1058.0
1073.0
1083.0
1087.0
1082.0
1069.0
1047.0
1020.0
992.0
969.0
949.0
931.0
911.0
887.0
863.0
836.0
809.0
792.0
775.0
775.0
778.0
783.0
790.0
798.0
802.0
807.0
806.0
811.0
818.0
823.0
834.0
843.0
850.0
853.0
858.0
858.0
863.0
866.0
868.0
873.0
876.0
877.0
881.0
884.0
884.0
885.0
886.0
884.0
886.0
884.0
887.0
885.0
887.0
885.0
887.0
891.0
892.0
891.0
887.0
886.0
885.0
881.0
878.0
877.0
876.0
881.0
883.0
885.0
884.0
889.0
889.0
888.0
889.0
889.0
890.0
890.0
891.0
897.0
901.0
905.0
908.0
909.0
914.0
919.0
923.0
925.0
929.0
935.0
940.0
946.0
953.0
960.0
965.0
973.0
977.0
984.0
984.0
990.0
992.0
997.0
1000.0
1005.0
1007.0
1012.0
1016.0
1014.0
1018.0
1013.0
1010.0
1008.0
1005.0
1003.0
1001.0
997.0
994.0
992.0
990.0
987.0
984.0
978.0
974.0
967.0
962.0
958.0
955.0
952.0
950.0
946.0
947.0
944.0
942.0
938.0
936.0
932.0
928.0
927.0
927.0
927.0
926.0
927.0
930.0
930.0
931.0
928.0
925.0
922.0
921.0
920.0
921.0
924.0
925.0
927.0
929.0
928.0
930.0
928.0
927.0
924.0
921.0
922.0
923.0
925.0
927.0
929.0
932.0
932.0
931.0
929.0
928.0
925.0
924.0
925.0
922.0
923.0
927.0
927.0
927.0
926.0
926.0
924.0
921.0
919.0
921.0
923.0
921.0
919.0
923.0
925.0
927.0
924.0
928.0
925.0
924.0
924.0
923.0
923.0
925.0
928.0
933.0
939.0
946.0
954.0
961.0
970.0
980.0
994.0
1007.0
1022.0
1042.0
1069.0
1100.0
1137.0
1173.0
1208.0
1242.0
1274.0
1299.0
1317.0
1325.0
1325.0
1318.0
1310.0
1298.0
1284.0
1267.0
1243.0
1213.0
1176.0
1130.0
1076.0
1023.0
977.0
941.0
916.0
898.0
889.0
886.0
881.0
878.0
871.0
871.0
863.0
857.0
850.0
848.0
843.0
841.0
841.0
839.0
838.0
835.0
835.0
834.0
831.0
830.0
831.0
828.0
829.0
828.0
826.0
826.0
823.0
822.0
817.0
814.0
809.0
807.0
804.0
802.0
801.0
803.0
802.0
802.0
799.0
800.0
794.0
792.0
790.0
787.0
782.0
777.0
775.0
774.0
772.0
773.0
770.0
764.0
763.0
758.0
756.0
752.0
750.0
751.0
746.0
745.0
749.0
747.0
745.0
745.0
743.0
742.0
744.0
746.0
746.0
748.0
753.0
755.0
760.0
762.0
764.0
766.0
773.0
777.0
783.0
787.0
792.0
799.0
806.0
813.0
821.0
827.0
834.0
842.0
844.0
849.0
853.0
857.0
862.0
866.0
870.0
872.0
875.0
878.0
879.0
879.0
879.0
881.0
880.0
878.0
881.0
881.0
883.0
885.0
884.0
887.0
888.0
887.0
884.0
886.0
882.0
884.0
882.0
883.0
883.0
883.0
884.0
885.0
883.0
884.0
883.0
881.0
880.0
876.0
875.0
876.0
878.0
880.0
880.0
883.0
885.0
887.0
887.0
887.0
885.0
884.0
881.0
878.0
880.0
881.0
886.0
894.0
907.0
926.0
952.0
979.0
1008.0
1033.0
1052.0
1066.0
1071.0
1063.0
1046.0
1020.0
987.0
954.0
928.0
902.0
876.0
848.0
821.0
797.0
778.0
767.0
764.0
766.0
772.0
778.0
782.0
787.0
788.0
787.0
789.0
794.0
800.0
812.0
819.0
830.0
839.0
844.0
847.0
854.0
857.0
859.0
865.0
869.0
873.0
877.0
880.0
881.0
879.0
878.0
878.0
876.0
875.0
876.0
877.0
879.0
883.0
885.0
885.0
888.0
886.0
885.0
886.0
885.0
882.0
881.0
879.0
879.0
876.0
876.0
876.0
877.0
876.0
876.0
878.0
881.0
883.0
884.0
885.0
888.0
888.0
894.0
897.0
902.0
905.0
911.0
914.0
919.0
922.0
927.0
931.0
938.0
945.0
955.0
962.0
968.0
975.0
979.0
984.0
986.0
991.0
992.0
998.0
1000.0
1004.0
1008.0
1009.0
1012.0
1017.0
1015.0
1015.0
1014.0
1012.0
1008.0
1008.0
1006.0
1007.0
1005.0
1001.0
999.0
999.0
994.0
989.0
983.0
979.0
975.0
971.0
968.0
966.0
963.0
960.0
959.0
955.0
954.0
952.0
948.0
945.0
940.0
937.0
937.0
935.0
935.0
932.0
936.0
932.0
934.0
930.0
926.0
925.0
926.0
922.0
923.0
924.0
928.0
928.0
930.0
930.0
931.0
930.0
929.0
929.0
927.0
927.0
927.0
928.0
928.0
929.0
931.0
932.0
931.0
933.0
932.0
930.0
931.0
930.0
928.0
930.0
931.0
932.0
934.0
934.0
933.0
931.0
930.0
928.0
927.0
928.0
925.0
927.0
928.0
929.0
930.0
930.0
930.0
928.0
928.0
926.0
925.0
922.0
923.0
924.0
927.0
928.0
930.0
929.0
929.0
927.0
924.0
926.0
925.0
924.0
927.0
926.0
925.0
929.0
929.0
929.0
928.0
929.0
927.0
927.0
925.0
925.0
925.0
926.0
929.0
932.0
938.0
939.0
945.0
948.0
954.0
962.0
971.0
982.0
996.0
1014.0
1036.0
1063.0
1094.0
1127.0
1164.0
1203.0
1237.0
1271.0
1299.0
1321.0
1336.0
1339.0
1336.0
1325.0
1313.0
1297.0
1274.0
1247.0
1208.0
1160.0
1105.0
1048.0
998.0
957.0
928.0
911.0
903.0
898.0
895.0
893.0
887.0
882.0
874.0
867.0
863.0
857.0
854.0
851.0
850.0
850.0
847.0
846.0
844.0
845.0
843.0
839.0
840.0
840.0
840.0
839.0
839.0
838.0
836.0
833.0
830.0
823.0
819.0
815.0
815.0
815.0
815.0
813.0
812.0
813.0
811.0
809.0
802.0
798.0
795.0
790.0
785.0
783.0
780.0
776.0
773.0
772.0
768.0
764.0
760.0
755.0
752.0
749.0
748.0
746.0
749.0
750.0
749.0
751.0
749.0
751.0
751.0
752.0
754.0
757.0
759.0
763.0
772.0
780.0
786.0
789.0
797.0
803.0
805.0
811.0
815.0
819.0
827.0
834.0
841.0
847.0
855.0
858.0
860.0
864.0
865.0
870.0
874.0
874.0
877.0
882.0
885.0
887.0
890.0
890.0
893.0
891.0
893.0
893.0
894.0
894.0
893.0
894.0
894.0
897.0
899.0
899.0
896.0
896.0
893.0
895.0
894.0
891.0
892.0
892.0
889.0
892.0
893.0
895.0
893.0
894.0
893.0
893.0
893.0
894.0
894.0
894.0
891.0
893.0
891.0
885.0
882.0
879.0
881.0
885.0
896.0
913.0
938.0
967.0
996.0
1025.0
1051.0
1071.0
1084.0
1092.0
1092.0
1080.0
1059.0
1029.0
995.0
962.0
937.0
919.0
908.0
897.0
881.0
862.0
838.0
812.0
787.0
770.0
761.0
763.0
765.0
768.0
772.0
777.0
779.0
780.0
784.0
790.0
796.0
804.0
813.0
821.0
836.0
845.0
855.0
862.0
871.0
878.0
882.0
887.0
896.0
898.0
901.0
904.0
906.0
904.0
906.0
905.0
904.0
901.0
900.0
897.0
894.0
893.0
895.0
897.0
896.0
895.0
894.0
892.0
891.0
889.0
885.0
884.0
884.0
883.0
885.0
886.0
892.0
895.0
898.0
901.0
902.0
906.0
906.0
907.0
908.0
910.0
913.0
918.0
923.0
925.0
932.0
936.0
942.0
947.0
952.0
959.0
962.0
966.0
973.0
984.0
989.0
995.0
1000.0
1001.0
1008.0
1011.0
1014.0
1018.0
1022.0
1023.0
1026.0
1028.0
1028.0
1030.0
1032.0
1032.0
1032.0
1027.0
1022.0
1018.0
1016.0
1015.0
1011.0
1007.0
1004.0
1002.0
999.0
995.0
990.0
985.0
980.0
976.0
971.0
966.0
965.0
961.0
957.0
957.0
958.0
957.0
954.0
952.0
950.0
946.0
942.0
941.0
939.0
940.0
940.0
938.0
942.0
943.0
942.0
940.0
939.0
938.0
938.0
937.0
939.0
941.0
940.0
940.0
941.0
944.0
944.0
944.0
941.0
941.0
941.0
941.0
942.0
939.0
944.0
943.0
945.0
946.0
945.0
945.0
943.0
942.0
940.0
938.0
938.0
939.0
938.0
941.0
942.0
944.0
942.0
938.0
939.0
941.0
939.0
936.0
937.0
937.0
938.0
937.0
941.0
941.0
940.0
939.0
937.0
935.0
935.0
934.0
933.0
934.0
936.0
938.0
937.0
938.0
938.0
937.0
935.0
934.0
934.0
931.0
932.0
933.0
935.0
934.0
937.0
939.0
937.0
938.0
937.0
939.0
933.0
937.0
941.0
949.0
952.0
959.0
968.0
978.0
984.0
994.0
1006.0
1020.0
1034.0
1053.0
1076.0
1103.0
1135.0
1169.0
1207.0
1245.0
1278.0
1312.0
1337.0
1359.0
1371.0
1374.0
1374.0
1368.0
1359.0
1342.0
1324.0
1295.0
1256.0
1205.0
1144.0
1082.0
1025.0
977.0
942.0
922.0
912.0
905.0
903.0
899.0
895.0
890.0
884.0
875.0
869.0
861.0
856.0
853.0
851.0
849.0
849.0
851.0
848.0
849.0
849.0
848.0
847.0
843.0
842.0
842.0
841.0
839.0
841.0
839.0
836.0
831.0
827.0
824.0
820.0
816.0
817.0
817.0
814.0
815.0
817.0
814.0
813.0
808.0
808.0
804.0
802.0
798.0
795.0
792.0
791.0
786.0
787.0
782.0
780.0
776.0
774.0
770.0
766.0
763.0
760.0
756.0
758.0
757.0
758.0
756.0
755.0
753.0
750.0
748.0
750.0
748.0
751.0
751.0
756.0
758.0
762.0
767.0
769.0
772.0
774.0
779.0
783.0
789.0
796.0
803.0
811.0
818.0
824.0
834.0
836.0
842.0
847.0
853.0
857.0
859.0
865.0
870.0
874.0
877.0
878.0
882.0
884.0
886.0
889.0
890.0
894.0
892.0
893.0
894.0
896.0
896.0
899.0
902.0
902.0
901.0
899.0
898.0
895.0
895.0
893.0
893.0
895.0
897.0
898.0
898.0
896.0
895.0
894.0
892.0
889.0
890.0
892.0
891.0
893.0
892.0
896.0
895.0
897.0
896.0
896.0
896.0
895.0
896.0
893.0
891.0
891.0
889.0
888.0
888.0
891.0
896.0
911.0
938.0
966.0
998.0
1029.0
1055.0
1078.0
1090.0
1093.0
1092.0
1074.0
1049.0
1018.0
989.0
964.0
944.0
928.0
910.0
892.0
867.0
844.0
821.0
799.0
786.0
781.0
781.0
786.0
792.0
799.0
806.0
810.0
814.0
819.0
821.0
827.0
834.0
839.0
846.0
849.0
855.0
858.0
863.0
868.0
874.0
878.0
883.0
884.0
888.0
887.0
886.0
886.0
884.0
886.0
886.0
887.0
890.0
893.0
893.0
895.0
895.0
891.0
892.0
890.0
887.0
887.0
883.0
885.0
884.0
885.0
885.0
886.0
885.0
887.0
890.0
891.0
890.0
892.0
893.0
897.0
901.0
905.0
909.0
914.0
918.0
922.0
926.0
928.0
934.0
940.0
946.0
953.0
962.0
969.0
977.0
980.0
985.0
993.0
995.0
1000.0
1003.0
1007.0
1012.0
1013.0
1016.0
1020.0
1023.0
1022.0
1022.0
1020.0
1019.0
1015.0
1014.0
1010.0
1006.0
1006.0
1004.0
1003.0
997.0
995.0
992.0
990.0
984.0
980.0
977.0
971.0
970.0
966.0
963.0
962.0
960.0
956.0
952.0
949.0
946.0
943.0
940.0
938.0
938.0
938.0
939.0
938.0
937.0
937.0
936.0
932.0
932.0
931.0
927.0
929.0
929.0
933.0
932.0
933.0
934.0
934.0
934.0
934.0
933.0
933.0
932.0
931.0
934.0
935.0
934.0
936.0
938.0
937.0
936.0
935.0
932.0
932.0
929.0
930.0
932.0
933.0
935.0
936.0
935.0
935.0
935.0
931.0
930.0
928.0
927.0
926.0
926.0
929.0
929.0
931.0
931.0
932.0
932.0
929.0
928.0
927.0
925.0
926.0
927.0
928.0
928.0
929.0
930.0
930.0
929.0
925.0
925.0
924.0
922.0
924.0
925.0
927.0
928.0
929.0
928.0
928.0
931.0
928.0
928.0
926.0
925.0
928.0
930.0
934.0
940.0
947.0
957.0
967.0
975.0
985.0
998.0
1012.0
1027.0
1048.0
1073.0
1105.0
1137.0
1173.0
1213.0
1248.0
1282.0
1310.0
1329.0
1341.0
1342.0
1334.0
1326.0
1311.0
1293.0
1269.0
1239.0
1201.0
1153.0
1100.0
1046.0
1000.0
959.0
930.0
913.0
902.0
896.0
892.0
889.0
885.0
882.0
875.0
867.0
860.0
852.0
850.0
848.0
845.0
842.0
842.0
843.0
843.0
843.0
842.0
841.0
838.0
834.0
833.0
834.0
832.0
829.0
828.0
829.0
826.0
820.0
817.0
813.0
811.0
809.0
807.0
806.0
807.0
805.0
804.0
803.0
798.0
796.0
790.0
783.0
781.0
778.0
776.0
773.0
773.0
771.0
767.0
768.0
765.0
760.0
758.0
755.0
752.0
749.0
749.0
750.0
747.0
751.0
750.0
753.0
753.0
754.0
754.0
754.0
755.0
758.0
760.0
764.0
767.0
772.0
777.0
782.0
787.0
792.0
795.0
799.0
803.0
809.0
814.0
818.0
826.0
834.0
840.0
844.0
849.0
853.0
854.0
858.0
862.0
865.0
868.0
870.0
875.0
878.0
882.0
884.0
883.0
885.0
885.0
885.0
886.0
886.0
885.0
886.0
887.0
888.0
890.0
892.0
890.0
888.0
886.0
886.0
884.0
882.0
883.0
884.0
884.0
884.0
885.0
886.0
885.0
885.0
883.0
881.0
880.0
880.0
880.0
882.0
883.0
886.0
889.0
892.0
892.0
891.0
890.0
886.0
881.0
880.0
877.0
878.0
886.0
895.0
910.0
929.0
951.0
975.0
998.0
1017.0
1037.0
1053.0
1062.0
1069.0
1072.0
1058.0
1040.0
1015.0
987.0
959.0
937.0
918.0
899.0
877.0
851.0
828.0
804.0
786.0
775.0
769.0
768.0
773.0
777.0
778.0
779.0
783.0
784.0
787.0
794.0
802.0
813.0
825.0
832.0
842.0
848.0
857.0
859.0
866.0
871.0
880.0
887.0
890.0
896.0
899.0
901.0
900.0
896.0
893.0
889.0
891.0
890.0
892.0
891.0
890.0
890.0
892.0
890.0
888.0
884.0
881.0
877.0
877.0
874.0
872.0
874.0
875.0
877.0
878.0
881.0
881.0
883.0
883.0
887.0
888.0
888.0
891.0
894.0
896.0
898.0
904.0
903.0
907.0
908.0
909.0
914.0
917.0
926.0
933.0
941.0
950.0
957.0
966.0
975.0
980.0
986.0
991.0
993.0
998.0
1000.0
1006.0
1009.0
1011.0
1014.0
1016.0
1014.0
1014.0
1012.0
1012.0
1008.0
1005.0
1000.0
998.0
997.0
994.0
994.0
990.0
985.0
981.0
977.0
972.0
966.0
964.0
958.0
957.0
954.0
949.0
949.0
946.0
943.0
943.0
939.0
935.0
934.0
930.0
929.0
926.0
930.0
931.0
930.0
930.0
929.0
930.0
927.0
926.0
922.0
923.0
924.0
925.0
924.0
925.0
926.0
929.0
929.0
930.0
927.0
928.0
927.0
925.0
924.0
925.0
928.0
930.0
931.0
931.0
933.0
933.0
932.0
928.0
930.0
931.0
929.0
928.0
931.0
931.0
931.0
932.0
932.0
930.0
928.0
928.0
927.0
925.0
926.0
927.0
927.0
929.0
931.0
928.0
931.0
930.0
930.0
930.0
927.0
926.0
926.0
926.0
927.0
929.0
929.0
930.0
929.0
930.0
928.0
925.0
926.0
927.0
925.0
926.0
927.0
928.0
930.0
931.0
928.0
930.0
930.0
927.0
923.0
923.0
924.0
926.0
930.0
932.0
933.0
931.0
933.0
934.0
932.0
933.0
933.0
937.0
940.0
947.0
957.0
967.0
978.0
990.0
1005.0
1020.0
1045.0
1068.0
1095.0
1131.0
1168.0
1203.0
1242.0
1275.0
1306.0
1329.0
1343.0
1344.0
1336.0
1323.0
1304.0
1278.0
1249.0
1210.0
1163.0
1109.0
1059.0
1011.0
974.0
948.0
930.0
920.0
914.0
911.0
909.0
908.0
905.0
905.0
903.0
901.0
895.0
893.0
888.0
883.0
876.0
872.0
870.0
867.0
863.0
863.0
861.0
858.0
855.0
849.0
843.0
842.0
839.0
833.0
833.0
833.0
831.0
834.0
832.0
830.0
826.0
824.0
821.0
817.0
812.0
810.0
805.0
805.0
807.0
805.0
802.0
800.0
795.0
793.0
788.0
782.0
778.0
776.0
773.0
768.0
765.0
764.0
764.0
762.0
759.0
755.0
754.0
749.0
746.0
745.0
745.0
746.0
747.0
749.0
752.0
757.0
759.0
755.0
759.0
757.0
757.0
760.0
763.0
766.0
772.0
780.0
785.0
790.0
796.0
802.0
805.0
810.0
815.0
819.0
827.0
834.0
839.0
846.0
851.0
857.0
860.0
863.0
865.0
870.0
870.0
871.0
872.0
876.0
880.0
881.0
884.0
886.0
886.0
887.0
887.0
888.0
886.0
888.0
887.0
887.0
885.0
890.0
892.0
893.0
895.0
892.0
894.0
891.0
890.0
889.0
889.0
887.0
888.0
887.0
888.0
887.0
887.0
885.0
887.0
884.0
886.0
888.0
887.0
890.0
891.0
889.0
889.0
885.0
877.0
874.0
871.0
873.0
877.0
885.0
899.0
920.0
944.0
973.0
1001.0
1027.0
1047.0
1062.0
1076.0
1079.0
1071.0
1055.0
1030.0
997.0
967.0
941.0
920.0
906.0
894.0
881.0
861.0
839.0
816.0
793.0
779.0
769.0
767.0
770.0
774.0
780.0
784.0
788.0
792.0
794.0
795.0
798.0
803.0
809.0
819.0
829.0
840.0
843.0
849.0
855.0
860.0
865.0
868.0
874.0
877.0
883.0
888.0
890.0
891.0
892.0
891.0
890.0
888.0
890.0
891.0
891.0
893.0
894.0
894.0
896.0
898.0
898.0
898.0
900.0
901.0
898.0
896.0
894.0
894.0
893.0
890.0
892.0
894.0
897.0
897.0
898.0
898.0
901.0
902.0
905.0
907.0
911.0
915.0
916.0
925.0
929.0
934.0
935.0
938.0
941.0
942.0
946.0
953.0
961.0
965.0
971.0
978.0
984.0
988.0
993.0
999.0
1003.0
1009.0
1010.0
1016.0
1017.0
1021.0
1026.0
1027.0
1031.0
1033.0
1036.0
1035.0
1035.0
1033.0
1033.0
1029.0
1029.0
1029.0
1027.0
1028.0
1025.0
1020.0
1014.0
1010.0
1007.0
1000.0
995.0
994.0
987.0
986.0
984.0
980.0
977.0
975.0
972.0
969.0
964.0
963.0
957.0
955.0
954.0
953.0
954.0
951.0
952.0
949.0
946.0
944.0
944.0
942.0
942.0
939.0
940.0
941.0
941.0
944.0
945.0
943.0
944.0
942.0
942.0
940.0
941.0
942.0
942.0
941.0
944.0
945.0
948.0
947.0
946.0
946.0
943.0
943.0
942.0
940.0
941.0
942.0
944.0
945.0
945.0
945.0
942.0
944.0
941.0
940.0
939.0
940.0
939.0
938.0
939.0
941.0
941.0
938.0
939.0
938.0
937.0
935.0
934.0
934.0
930.0
933.0
934.0
935.0
936.0
936.0
937.0
936.0
932.0
932.0
933.0
931.0
932.0
930.0
931.0
935.0
934.0
931.0
933.0
932.0
931.0
930.0
927.0
928.0
929.0
930.0
933.0
933.0
936.0
934.0
933.0
932.0
933.0
932.0
931.0
932.0
932.0
933.0
937.0
942.0
947.0
952.0
958.0
964.0
973.0
983.0
995.0
1009.0
1028.0
1051.0
1076.0
1106.0
1142.0
1181.0
1221.0
1260.0
1296.0
1327.0
1349.0
1362.0
1367.0
1360.0
1355.0
1342.0
1329.0
1308.0
1279.0
1240.0
1194.0
1138.0
1075.0
1017.0
967.0
930.0
910.0
897.0
893.0
889.0
888.0
883.0
877.0
869.0
862.0
857.0
854.0
850.0
851.0
851.0
852.0
854.0
854.0
850.0
847.0
844.0
843.0
841.0
841.0
839.0
838.0
837.0
839.0
835.0
832.0
828.0
827.0
821.0
819.0
818.0
816.0
814.0
817.0
816.0
815.0
813.0
810.0
805.0
803.0
797.0
795.0
791.0
787.0
783.0
784.0
781.0
781.0
778.0
774.0
770.0
768.0
766.0
762.0
757.0
757.0
756.0
758.0
757.0
757.0
757.0
755.0
754.0
752.0
751.0
752.0
753.0
756.0
762.0
764.0
769.0
774.0
779.0
782.0
785.0
788.0
795.0
798.0
803.0
809.0
818.0
823.0
832.0
838.0
843.0
848.0
852.0
856.0
860.0
861.0
865.0
866.0
873.0
877.0
882.0
884.0
888.0
889.0
892.0
889.0
891.0
891.0
889.0
891.0
893.0
893.0
898.0
896.0
897.0
898.0
896.0
895.0
894.0
892.0
891.0
892.0
891.0
893.0
895.0
896.0
895.0
894.0
893.0
891.0
889.0
887.0
886.0
888.0
887.0
888.0
893.0
891.0
891.0
894.0
893.0
895.0
893.0
891.0
889.0
888.0
884.0
880.0
881.0
883.0
889.0
901.0
921.0
947.0
977.0
1008.0
1035.0
1058.0
1078.0
1086.0
1088.0
1079.0
1057.0
1025.0
995.0
967.0
938.0
917.0
900.0
884.0
864.0
839.0
815.0
795.0
782.0
772.0
771.0
771.0
776.0
778.0
780.0
782.0
785.0
791.0
796.0
803.0
809.0
818.0
826.0
834.0
842.0
847.0
855.0
862.0
869.0
878.0
884.0
892.0
898.0
901.0
902.0
900.0
900.0
897.0
896.0
896.0
894.0
898.0
898.0
899.0
896.0
897.0
894.0
895.0
893.0
888.0
885.0
883.0
883.0
881.0
882.0
881.0
883.0
882.0
883.0
881.0
883.0
887.0
887.0
890.0
893.0
896.0
899.0
905.0
906.0
909.0
911.0
911.0
912.0
914.0
920.0
926.0
931.0
943.0
952.0
960.0
965.0
971.0
978.0
984.0
986.0
990.0
993.0
996.0
1002.0
1008.0
1010.0
1016.0
1018.0
1019.0
1017.0
1016.0
1014.0
1010.0
1009.0
1008.0
1006.0
1004.0
1000.0
1002.0
995.0
993.0
987.0
982.0
978.0
972.0
967.0
963.0
962.0
958.0
957.0
952.0
949.0
945.0
944.0
941.0
935.0
935.0
930.0
930.0
931.0
928.0
930.0
931.0
931.0
929.0
926.0
924.0
921.0
918.0
920.0
921.0
923.0
923.0
925.0
927.0
927.0
927.0
925.0
924.0
923.0
923.0
922.0
923.0
922.0
924.0
927.0
927.0
926.0
927.0
926.0
924.0
925.0
924.0
922.0
923.0
923.0
925.0
924.0
925.0
926.0
924.0
921.0
920.0
917.0
918.0
919.0
919.0
921.0
920.0
922.0
922.0
922.0
921.0
921.0
918.0
917.0
915.0
917.0
916.0
918.0
921.0
920.0
923.0
921.0
919.0
919.0
917.0
916.0
913.0
913.0
914.0
915.0
916.0
918.0
918.0
917.0
919.0
918.0
918.0
919.0
916.0
916.0
919.0
916.0
920.0
920.0
925.0
929.0
931.0
934.0
937.0
945.0
949.0
958.0
969.0
980.0
996.0
1013.0
1034.0
1056.0
1082.0
1115.0
1148.0
1188.0
1223.0
1258.0
1285.0
1307.0
1324.0
1329.0
1326.0
1316.0
1301.0
1285.0
1262.0
1235.0
1205.0
1167.0
1123.0
1076.0
1030.0
989.0
957.0
932.0
916.0
904.0
895.0
887.0
884.0
878.0
873.0
871.0
865.0
862.0
857.0
854.0
848.0
843.0
839.0
836.0
835.0
833.0
835.0
833.0
832.0
834.0
836.0
835.0
833.0
830.0
827.0
826.0
820.0
815.0
813.0
811.0
810.0
810.0
810.0
807.0
808.0
805.0
801.0
799.0
797.0
793.0
793.0
790.0
790.0
786.0
783.0
783.0
779.0
774.0
771.0
766.0
761.0
759.0
755.0
757.0
754.0
754.0
753.0
750.0
750.0
749.0
747.0
744.0
744.0
744.0
746.0
748.0
751.0
752.0
757.0
761.0
763.0
765.0
767.0
769.0
771.0
777.0
779.0
785.0
790.0
797.0
803.0
809.0
815.0
822.0
828.0
831.0
837.0
841.0
848.0
854.0
855.0
863.0
867.0
870.0
873.0
872.0
874.0
875.0
876.0
878.0
879.0
881.0
881.0
885.0
886.0
884.0
887.0
884.0
885.0
882.0
882.0
880.0
881.0
878.0
885.0
883.0
882.0
880.0
882.0
883.0
878.0
877.0
876.0
875.0
874.0
876.0
876.0
879.0
879.0
881.0
882.0
884.0
885.0
887.0
881.0
879.0
877.0
874.0
877.0
876.0
882.0
887.0
900.0
916.0
935.0
960.0
987.0
1010.0
1030.0
1049.0
1062.0
1067.0
1064.0
1049.0
1021.0
990.0
959.0
927.0
903.0
880.0
858.0
837.0
814.0
794.0
784.0
776.0
775.0
779.0
783.0
789.0
795.0
801.0
807.0
813.0
818.0
828.0
836.0
841.0
850.0
851.0
854.0
860.0
862.0
865.0
868.0
875.0
876.0
877.0
882.0
883.0
884.0
883.0
881.0
882.0
883.0
880.0
883.0
884.0
886.0
887.0
888.0
889.0
889.0
886.0
884.0
883.0
881.0
880.0
880.0
879.0
879.0
885.0
886.0
888.0
887.0
890.0
889.0
889.0
887.0
888.0
892.0
896.0
899.0
900.0
907.0
909.0
914.0
917.0
919.0
922.0
924.0
933.0
937.0
941.0
948.0
