# Simple Text Format
# Sampling Rate (Hz):= 360.00
# Resolution:= 12
# Labels:= ECG
900.0
898.0
896.0
895.0
896.0
897.0
901.0
904.0
907.0
908.0
911.0
916.0
919.0
919.0
918.0
913.0
909.0
909.0
909.0
918.0
928.0
942.0
970.0
1019.0
1112.0
1239.0
1366.0
1444.0
1456.0
1445.0
1435.0
1428.0
1419.0
1403.0
1380.0
1367.0
1350.0
1336.0
1320.0
1305.0
1285.0
1265.0
1242.0
1221.0
1196.0
1169.0
1146.0
1120.0
1095.0
1069.0
1037.0
1003.0
975.0
945.0
916.0
888.0
861.0
837.0
819.0
801.0
792.0
783.0
768.0
748.0
718.0
690.0
666.0
649.0
627.0
599.0
580.0
571.0
579.0
597.0
615.0
635.0
660.0
689.0
711.0
722.0
730.0
743.0
759.0
770.0
782.0
786.0
786.0
787.0
788.0
793.0
805.0
818.0
835.0
846.0
854.0
862.0
873.0
889.0
903.0
914.0
924.0
939.0
957.0
970.0
977.0
984.0
997.0
1007.0
1015.0
1018.0
1021.0
1021.0
1024.0
1027.0
1036.0
1047.0
1052.0
1049.0
1045.0
1042.0
1049.0
1062.0
1071.0
1073.0
1073.0
1074.0
1080.0
1094.0
1103.0
1106.0
1108.0
1109.0
1118.0
1128.0
1137.0
1141.0
1146.0
1145.0
1148.0
1152.0
1156.0
1161.0
1163.0
1166.0
1169.0
1178.0
1183.0
1184.0
1181.0
1177.0
1177.0
1185.0
1189.0
1189.0
1186.0
1185.0
1188.0
1190.0
1188.0
1182.0
1177.0
1169.0
1166.0
1161.0
1156.0
1148.0
1141.0
1129.0
1122.0
1119.0
1111.0
1103.0
1093.0
1088.0
1082.0
1078.0
1069.0
1058.0
1042.0
1033.0
1024.0
1023.0
1020.0
1011.0
999.0
994.0
991.0
990.0
989.0
986.0
984.0
986.0
993.0
1000.0
1000.0
990.0
985.0
984.0
990.0
1000.0
1007.0
1008.0
1003.0
995.0
990.0
985.0
981.0
977.0
979.0
979.0
980.0
979.0
980.0
977.0
975.0
970.0
962.0
962.0
955.0
951.0
948.0
944.0
943.0
935.0
927.0
916.0
908.0
908.0
912.0
916.0
915.0
912.0
905.0
899.0
903.0
907.0
905.0
900.0
900.0
902.0
904.0
903.0
896.0
889.0
892.0
895.0
901.0
906.0
904.0
906.0
902.0
900.0
897.0
896.0
895.0
898.0
898.0
899.0
900.0
899.0
900.0
900.0
900.0
903.0
904.0
902.0
889.0
881.0
880.0
887.0
896.0
898.0
899.0
896.0
891.0
890.0
892.0
895.0
897.0
896.0
898.0
898.0
903.0
901.0
898.0
896.0
895.0
892.0
892.0
893.0
894.0
895.0
897.0
899.0
897.0
901.0
904.0
907.0
908.0
908.0
908.0
903.0
904.0
906.0
907.0
908.0
907.0
904.0
903.0
904.0
907.0
909.0
917.0
918.0
919.0
920.0
917.0
917.0
920.0
924.0
924.0
928.0
930.0
939.0
952.0
970.0
996.0
1057.0
1165.0
1292.0
1419.0
1463.0
1461.0
1445.0
1434.0
1427.0
1416.0
1401.0
1382.0
1363.0
1345.0
1330.0
1315.0
1298.0
1279.0
1256.0
1228.0
1201.0
1175.0
1140.0
1110.0
1075.0
1043.0
1011.0
984.0
957.0
931.0
902.0
877.0
863.0
852.0
847.0
843.0
833.0
817.0
792.0
766.0
741.0
711.0
684.0
660.0
639.0
626.0
621.0
629.0
643.0
660.0
691.0
725.0
749.0
758.0
763.0
765.0
769.0
777.0
782.0
784.0
787.0
789.0
786.0
785.0
791.0
801.0
816.0
832.0
846.0
857.0
863.0
869.0
879.0
890.0
902.0
921.0
937.0
953.0
967.0
981.0
991.0
1003.0
1002.0
1003.0
1001.0
1000.0
1003.0
1009.0
1013.0
1019.0
1022.0
1027.0
1031.0
1034.0
1032.0
1036.0
1039.0
1042.0
1042.0
1041.0
1043.0
1046.0
1050.0
1055.0
1063.0
1074.0
1081.0
1088.0
1093.0
1101.0
1108.0
1117.0
1125.0
1134.0
1141.0
1147.0
1155.0
1169.0
1176.0
1180.0
1183.0
1186.0
1192.0
1201.0
1210.0
1212.0
1205.0
1202.0
1199.0
1200.0
1196.0
1191.0
1188.0
1193.0
1194.0
1191.0
1185.0
1178.0
1170.0
1161.0
1152.0
1146.0
1136.0
1125.0
1112.0
1099.0
1090.0
1081.0
1068.0
1054.0
1037.0
1022.0
1014.0
1008.0
1001.0
990.0
980.0
968.0
957.0
952.0
948.0
949.0
946.0
941.0
933.0
924.0
918.0
910.0
907.0
904.0
903.0
906.0
905.0
905.0
906.0
908.0
905.0
900.0
902.0
902.0
899.0
893.0
881.0
881.0
882.0
882.0
882.0
882.0
885.0
886.0
890.0
888.0
885.0
884.0
877.0
876.0
882.0
884.0
886.0
887.0
884.0
881.0
881.0
881.0
881.0
882.0
883.0
887.0
888.0
892.0
890.0
890.0
890.0
890.0
894.0
894.0
891.0
888.0
889.0
894.0
899.0
901.0
902.0
895.0
889.0
888.0
891.0
899.0
901.0
906.0
905.0
903.0
904.0
903.0
899.0
895.0
886.0
885.0
896.0
905.0
905.0
895.0
889.0
891.0
898.0
902.0
903.0
897.0
896.0
899.0
900.0
903.0
902.0
903.0
904.0
908.0
912.0
912.0
914.0
911.0
910.0
912.0
916.0
918.0
919.0
914.0
909.0
907.0
911.0
915.0
919.0
921.0
916.0
917.0
915.0
909.0
907.0
908.0
915.0
918.0
925.0
926.0
931.0
932.0
928.0
925.0
928.0
933.0
932.0
936.0
941.0
951.0
971.0
997.0
1053.0
1163.0
1290.0
1417.0
1468.0
1460.0
1442.0
1428.0
1417.0
1406.0
1391.0
1374.0
1355.0
1336.0
1314.0
1294.0
1275.0
1252.0
1224.0
1193.0
1162.0
1133.0
1104.0
1066.0
1022.0
979.0
940.0
910.0
887.0
859.0
839.0
817.0
799.0
792.0
789.0
775.0
755.0
721.0
690.0
667.0
646.0
620.0
587.0
564.0
565.0
590.0
628.0
669.0
700.0
722.0
739.0
755.0
763.0
771.0
777.0
780.0
787.0
796.0
805.0
809.0
809.0
809.0
813.0
823.0
841.0
859.0
880.0
897.0
912.0
931.0
946.0
960.0
978.0
998.0
1020.0
1038.0
1051.0
1057.0
1060.0
1060.0
1061.0
1068.0
1071.0
1075.0
1077.0
1081.0
1086.0
1092.0
1099.0
1099.0
1094.0
1092.0
1093.0
1100.0
1101.0
1095.0
1086.0
1085.0
1086.0
1092.0
1093.0
1094.0
1094.0
1098.0
1104.0
1106.0
1106.0
1110.0
1112.0
1118.0
1126.0
1131.0
1135.0
1134.0
1140.0
1139.0
1142.0
1145.0
1148.0
1153.0
1154.0
1153.0
1154.0
1156.0
1163.0
1165.0
1163.0
1162.0
1159.0
1157.0
1154.0
1148.0
1139.0
1137.0
1134.0
1133.0
1128.0
1118.0
1112.0
1106.0
1105.0
1100.0
1092.0
1079.0
1064.0
1051.0
1041.0
1038.0
1031.0
1024.0
1016.0
1004.0
992.0
984.0
979.0
972.0
964.0
962.0
955.0
951.0
949.0
946.0
940.0
940.0
931.0
921.0
908.0
900.0
900.0
900.0
902.0
902.0
903.0
903.0
900.0
900.0
901.0
900.0
898.0
896.0
893.0
894.0
893.0
897.0
895.0
895.0
893.0
890.0
890.0
893.0
894.0
897.0
894.0
892.0
894.0
896.0
895.0
896.0
897.0
894.0
895.0
902.0
904.0
903.0
897.0
894.0
893.0
897.0
899.0
903.0
901.0
899.0
903.0
909.0
913.0
913.0
911.0
909.0
909.0
913.0
916.0
914.0
911.0
907.0
907.0
912.0
915.0
916.0
913.0
909.0
906.0
909.0
912.0
915.0
913.0
912.0
911.0
917.0
919.0
922.0
915.0
912.0
907.0
913.0
915.0
913.0
909.0
907.0
906.0
908.0
911.0
913.0
915.0
918.0
919.0
921.0
920.0
918.0
914.0
911.0
912.0
915.0
920.0
924.0
924.0
923.0
921.0
922.0
924.0
920.0
918.0
919.0
922.0
929.0
932.0
929.0
926.0
921.0
920.0
924.0
930.0
929.0
927.0
922.0
922.0
926.0
930.0
930.0
931.0
932.0
937.0
945.0
955.0
962.0
976.0
1000.0
1060.0
1176.0
1303.0
1424.0
1468.0
1466.0
1451.0
1445.0
1438.0
1431.0
1412.0
1393.0
1373.0
1362.0
1344.0
1323.0
1305.0
1283.0
1268.0
1251.0
1230.0
1200.0
1169.0
1137.0
1102.0
1070.0
1041.0
1013.0
977.0
940.0
904.0
880.0
862.0
843.0
827.0
814.0
797.0
777.0
754.0
725.0
699.0
675.0
644.0
617.0
594.0
581.0
594.0
622.0
655.0
688.0
714.0
737.0
753.0
758.0
763.0
774.0
783.0
791.0
790.0
790.0
790.0
789.0
792.0
793.0
793.0
799.0
810.0
830.0
845.0
856.0
861.0
867.0
874.0
885.0
901.0
921.0
936.0
950.0
958.0
971.0
983.0
991.0
994.0
994.0
1000.0
1004.0
1007.0
1008.0
1009.0
1011.0
1012.0
1011.0
1015.0
1017.0
1017.0
1020.0
1025.0
1031.0
1037.0
1041.0
1043.0
1040.0
1043.0
1049.0
1056.0
1062.0
1066.0
1068.0
1070.0
1077.0
1085.0
1092.0
1099.0
1106.0
1112.0
1121.0
1130.0
1136.0
1143.0
1145.0
1147.0
1151.0
1156.0
1162.0
1161.0
1155.0
1155.0
1157.0
1163.0
1169.0
1170.0
1168.0
1166.0
1168.0
1163.0
1162.0
1153.0
1148.0
1147.0
1147.0
1148.0
1144.0
1139.0
1136.0
1129.0
1121.0
1112.0
1103.0
1096.0
1085.0
1078.0
1074.0
1070.0
1061.0
1052.0
1040.0
1027.0
1017.0
1005.0
997.0
990.0
982.0
977.0
972.0
971.0
964.0
957.0
949.0
944.0
944.0
945.0
943.0
938.0
935.0
931.0
930.0
935.0
938.0
939.0
934.0
928.0
922.0
923.0
920.0
919.0
920.0
923.0
929.0
926.0
918.0
913.0
912.0
911.0
909.0
907.0
908.0
911.0
916.0
919.0
916.0
914.0
912.0
912.0
912.0
916.0
921.0
919.0
920.0
922.0
922.0
923.0
924.0
927.0
929.0
928.0
926.0
929.0
932.0
932.0
930.0
925.0
921.0
923.0
926.0
929.0
928.0
924.0
925.0
928.0
933.0
936.0
936.0
933.0
930.0
931.0
933.0
935.0
932.0
929.0
927.0
929.0
930.0
932.0
937.0
943.0
943.0
936.0
929.0
921.0
917.0
917.0
919.0
921.0
925.0
927.0
929.0
932.0
932.0
931.0
935.0
939.0
940.0
942.0
945.0
950.0
954.0
955.0
958.0
957.0
957.0
958.0
968.0
970.0
976.0
982.0
988.0
996.0
1004.0
1006.0
1004.0
1002.0
997.0
990.0
983.0
984.0
989.0
993.0
993.0
990.0
990.0
994.0
996.0
994.0
988.0
985.0
984.0
985.0
993.0
999.0
1017.0
1061.0
1157.0
1284.0
1409.0
1473.0
1480.0
1465.0
1450.0
1443.0
1430.0
1406.0
1384.0
1367.0
1356.0
1343.0
1321.0
1298.0
1269.0
1241.0
1212.0
1182.0
1151.0
1122.0
1087.0
1051.0
1019.0
984.0
952.0
921.0
892.0
864.0
839.0
817.0
791.0
770.0
750.0
740.0
730.0
719.0
688.0
661.0
637.0
618.0
603.0
582.0
560.0
540.0
532.0
544.0
572.0
607.0
640.0
667.0
694.0
712.0
726.0
736.0
743.0
750.0
755.0
762.0
773.0
780.0
781.0
781.0
782.0
789.0
799.0
814.0
829.0
840.0
846.0
858.0
871.0
881.0
897.0
909.0
919.0
931.0
949.0
962.0
976.0
989.0
998.0
1013.0
1020.0
1023.0
1022.0
1023.0
1027.0
1029.0
1034.0
1038.0
1046.0
1050.0
1055.0
1057.0
1062.0
1065.0
1067.0
1065.0
1066.0
1065.0
1074.0
1083.0
1093.0
1102.0
1105.0
1108.0
1115.0
1124.0
1130.0
1136.0
1139.0
1142.0
1150.0
1159.0
1163.0
1163.0
1162.0
1166.0
1176.0
1183.0
1189.0
1195.0
1196.0
1201.0
1201.0
1198.0
1194.0
1195.0
1198.0
1200.0
1204.0
1202.0
1200.0
1193.0
1189.0
1187.0
1187.0
1186.0
1182.0
1177.0
1167.0
1163.0
1164.0
1165.0
1161.0
1151.0
1139.0
1125.0
1118.0
1113.0
1104.0
1092.0
1082.0
1070.0
1061.0
1055.0
1047.0
1038.0
1028.0
1019.0
1014.0
1010.0
1005.0
999.0
992.0
980.0
972.0
965.0
963.0
959.0
957.0
955.0
954.0
951.0
949.0
946.0
944.0
940.0
937.0
934.0
928.0
924.0
922.0
924.0
927.0
925.0
926.0
924.0
923.0
921.0
924.0
929.0
928.0
930.0
927.0
921.0
921.0
922.0
925.0
927.0
925.0
925.0
922.0
921.0
921.0
919.0
920.0
920.0
921.0
922.0
919.0
917.0
915.0
918.0
926.0
929.0
933.0
935.0
932.0
930.0
934.0
935.0
936.0
939.0
942.0
948.0
951.0
958.0
962.0
967.0
971.0
972.0
978.0
983.0
987.0
994.0
1001.0
1004.0
1003.0
996.0
989.0
984.0
979.0
975.0
975.0
981.0
986.0
988.0
990.0
990.0
990.0
986.0
982.0
974.0
967.0
963.0
961.0
956.0
952.0
944.0
942.0
937.0
933.0
934.0
934.0
927.0
924.0
918.0
912.0
912.0
913.0
910.0
908.0
911.0
914.0
920.0
918.0
912.0
908.0
904.0
906.0
908.0
906.0
905.0
906.0
904.0
907.0
912.0
911.0
913.0
910.0
906.0
906.0
908.0
912.0
915.0
916.0
918.0
916.0
914.0
915.0
914.0
915.0
916.0
921.0
922.0
924.0
926.0
926.0
924.0
931.0
938.0
942.0
952.0
969.0
1003.0
1072.0
1186.0
1313.0
1423.0
1472.0
1475.0
1461.0
1452.0
1445.0
1431.0
1415.0
1396.0
1377.0
1365.0
1351.0
1338.0
1324.0
1307.0
1287.0
1268.0
1247.0
1224.0
1200.0
1173.0
1147.0
1127.0
1107.0
1085.0
1066.0
1048.0
1028.0
1005.0
984.0
969.0
957.0
949.0
944.0
948.0
949.0
946.0
928.0
899.0
865.0
833.0
800.0
766.0
736.0
707.0
698.0
698.0
702.0
707.0
717.0
735.0
759.0
779.0
788.0
790.0
790.0
795.0
800.0
804.0
804.0
807.0
807.0
810.0
808.0
810.0
816.0
828.0
837.0
851.0
866.0
875.0
881.0
891.0
899.0
910.0
924.0
936.0
950.0
962.0
975.0
986.0
998.0
1002.0
1003.0
1001.0
1004.0
1011.0
1018.0
1022.0
1025.0
1026.0
1024.0
1029.0
1036.0
1038.0
1043.0
1046.0
1048.0
1054.0
1062.0
1065.0
1064.0
1063.0
1061.0
1065.0
1071.0
1073.0
1078.0
1082.0
1086.0
1088.0
1096.0
1103.0
1110.0
1117.0
1119.0
1126.0
1129.0
1134.0
1134.0
1135.0
1139.0
1141.0
1146.0
1149.0
1154.0
1158.0
1163.0
1163.0
1165.0
1163.0
1163.0
1163.0
1166.0
1166.0
1166.0
1165.0
1163.0
1162.0
1159.0
1159.0
1157.0
1154.0
1150.0
1149.0
1145.0
1137.0
1135.0
1134.0
1130.0
1122.0
1115.0
1109.0
1104.0
1098.0
1092.0
1088.0
1080.0
1074.0
1068.0
1062.0
1055.0
1048.0
1039.0
1039.0
1036.0
1030.0
1021.0
1013.0
1004.0
1003.0
1006.0
1011.0
1014.0
1011.0
1005.0
999.0
1000.0
1004.0
1009.0
1009.0
1011.0
1013.0
1017.0
1023.0
1025.0
1028.0
1024.0
1019.0
1012.0
1009.0
1006.0
1004.0
999.0
1000.0
1002.0
1005.0
1006.0
1002.0
999.0
997.0
999.0
1001.0
1002.0
998.0
990.0
983.0
979.0
976.0
969.0
964.0
959.0
955.0
953.0
944.0
935.0
928.0
923.0
921.0
924.0
927.0
928.0
927.0
925.0
921.0
921.0
925.0
926.0
927.0
925.0
925.0
926.0
928.0
930.0
930.0
926.0
924.0
929.0
930.0
933.0
934.0
933.0
931.0
933.0
936.0
937.0
934.0
928.0
928.0
929.0
928.0
929.0
925.0
920.0
919.0
921.0
926.0
931.0
930.0
930.0
927.0
928.0
928.0
929.0
930.0
927.0
931.0
933.0
935.0
937.0
938.0
939.0
939.0
940.0
939.0
936.0
932.0
929.0
930.0
935.0
938.0
940.0
942.0
942.0
939.0
937.0
935.0
934.0
933.0
934.0
938.0
945.0
949.0
950.0
946.0
939.0
943.0
947.0
956.0
958.0
956.0
954.0
952.0
954.0
957.0
955.0
953.0
952.0
957.0
961.0
964.0
965.0
969.0
973.0
976.0
978.0
990.0
1006.0
1039.0
1100.0
1203.0
1330.0
1456.0
1511.0
1515.0
1501.0
1490.0
1481.0
1471.0
1457.0
1440.0
1420.0
1402.0
1389.0
1370.0
1352.0
1332.0
1309.0
1286.0
1261.0
1232.0
1200.0
1166.0
1129.0
1089.0
1055.0
1024.0
997.0
971.0
941.0
914.0
895.0
886.0
878.0
868.0
859.0
842.0
819.0
791.0
761.0
738.0
715.0
694.0
674.0
658.0
656.0
668.0
690.0
714.0
742.0
770.0
793.0
806.0
812.0
818.0
825.0
830.0
837.0
841.0
844.0
846.0
847.0
846.0
846.0
849.0
858.0
867.0
883.0
896.0
908.0
919.0
930.0
941.0
954.0
966.0
982.0
996.0
1007.0
1018.0
1032.0
1044.0
1050.0
1050.0
1049.0
1051.0
1056.0
1063.0
1065.0
1067.0
1069.0
1071.0
1080.0
1088.0
1093.0
1098.0
1101.0
1097.0
1100.0
1106.0
1110.0
1116.0
1120.0
1121.0
1125.0
1128.0
1131.0
1142.0
1149.0
1154.0
1163.0
1171.0
1175.0
1183.0
1190.0
1200.0
1212.0
1221.0
1231.0
1236.0
1240.0
1243.0
1249.0
1256.0
1259.0
1265.0
1271.0
1272.0
1275.0
1271.0
1268.0
1265.0
1264.0
1260.0
1256.0
1256.0
1253.0
1250.0
1248.0
1243.0
1240.0
1236.0
1231.0
1226.0
1218.0
1211.0
1207.0
1200.0
1192.0
1179.0
1163.0
1150.0
1134.0
1121.0
1102.0
1092.0
1077.0
1065.0
1059.0
1051.0
1045.0
1040.0
1029.0
1015.0
1008.0
1003.0
995.0
990.0
982.0
979.0
982.0
983.0
979.0
973.0
963.0
955.0
950.0
952.0
952.0
956.0
951.0
950.0
944.0
943.0
941.0
936.0
936.0
937.0
939.0
939.0
937.0
937.0
936.0
938.0
942.0
945.0
941.0
938.0
929.0
927.0
928.0
929.0
931.0
929.0
929.0
930.0
934.0
932.0
934.0
931.0
931.0
929.0
933.0
933.0
934.0
933.0
932.0
932.0
935.0
944.0
947.0
946.0
940.0
933.0
932.0
933.0
936.0
934.0
939.0
940.0
941.0
945.0
945.0
945.0
944.0
943.0
944.0
947.0
950.0
950.0
948.0
946.0
947.0
949.0
952.0
956.0
958.0
954.0
955.0
951.0
948.0
941.0
936.0
939.0
942.0
949.0
950.0
949.0
946.0
944.0
947.0
952.0
955.0
953.0
953.0
953.0
952.0
953.0
953.0
954.0
957.0
960.0
960.0
963.0
960.0
955.0
952.0
953.0
958.0
962.0
962.0
960.0
956.0
958.0
958.0
963.0
964.0
961.0
956.0
957.0
959.0
963.0
964.0
966.0
965.0
966.0
968.0
971.0
973.0
975.0
977.0
977.0
975.0
973.0
977.0
980.0
985.0
984.0
988.0
993.0
997.0
1010.0
1036.0
1095.0
1208.0
1335.0
1458.0
1512.0
1517.0
1502.0
1489.0
1480.0
1464.0
1446.0
1422.0
1402.0
1381.0
1365.0
1344.0
1324.0
1302.0
1278.0
1250.0
1221.0
1186.0
1149.0
1106.0
1063.0
1021.0
982.0
947.0
913.0
881.0
853.0
832.0
816.0
800.0
791.0
775.0
758.0
737.0
714.0
688.0
665.0
644.0
623.0
601.0
588.0
587.0
598.0
624.0
664.0
705.0
739.0
765.0
782.0
792.0
801.0
806.0
816.0
823.0
831.0
835.0
841.0
848.0
855.0
864.0
881.0
897.0
917.0
934.0
949.0
962.0
978.0
995.0
1015.0
1037.0
1057.0
1074.0
1084.0
1096.0
1108.0
1121.0
1128.0
1128.0
1127.0
1128.0
1127.0
1137.0
1147.0
1154.0
1156.0
1152.0
1149.0
1150.0
1150.0
1151.0
1153.0
1153.0
1151.0
1152.0
1157.0
1160.0
1163.0
1162.0
1157.0
1158.0
1164.0
1172.0
1180.0
1187.0
1188.0
1188.0
1190.0
1192.0
1197.0
1204.0
1209.0
1215.0
1221.0
1223.0
1225.0
1226.0
1228.0
1230.0
1231.0
1233.0
1235.0
1232.0
1231.0
1228.0
1227.0
1226.0
1222.0
1220.0
1215.0
1214.0
1212.0
1204.0
1193.0
1187.0
1178.0
1174.0
1169.0
1164.0
1157.0
1148.0
1139.0
1129.0
1120.0
1105.0
1092.0
1078.0
1067.0
1064.0
1056.0
1048.0
1040.0
1030.0
1016.0
1005.0
999.0
995.0
989.0
979.0
970.0
969.0
968.0
966.0
959.0
951.0
945.0
947.0
950.0
954.0
954.0
949.0
943.0
938.0
933.0
930.0
930.0
932.0
935.0
940.0
940.0
942.0
937.0
932.0
928.0
930.0
935.0
938.0
942.0
941.0
937.0
938.0
938.0
934.0
932.0
933.0
934.0
937.0
939.0
938.0
935.0
931.0
927.0
929.0
933.0
937.0
939.0
941.0
942.0
941.0
938.0
935.0
936.0
936.0
937.0
936.0
936.0
937.0
936.0
937.0
938.0
945.0
949.0
951.0
948.0
943.0
942.0
940.0
940.0
939.0
940.0
938.0
939.0
945.0
947.0
949.0
948.0
941.0
940.0
943.0
942.0
937.0
933.0
929.0
931.0
937.0
941.0
941.0
940.0
939.0
936.0
940.0
942.0
942.0
944.0
938.0
936.0
937.0
940.0
942.0
939.0
939.0
938.0
943.0
946.0
944.0
941.0
940.0
939.0
941.0
945.0
950.0
947.0
941.0
944.0
948.0
954.0
954.0
949.0
943.0
935.0
936.0
939.0
943.0
945.0
946.0
944.0
946.0
946.0
945.0
949.0
952.0
953.0
958.0
964.0
969.0
979.0
1002.0
1051.0
1150.0
1277.0
1404.0
1474.0
1484.0
1472.0
1460.0
1455.0
1444.0
1429.0
1412.0
1396.0
1382.0
1372.0
1357.0
1339.0
1316.0
1291.0
1267.0
1248.0
1225.0
1196.0
1163.0
1134.0
1104.0
1077.0
1049.0
1017.0
980.0
947.0
921.0
906.0
897.0
890.0
881.0
868.0
843.0
812.0
779.0
748.0
715.0
685.0
656.0
634.0
629.0
646.0
672.0
705.0
735.0
755.0
765.0
765.0
768.0
775.0
784.0
792.0
791.0
787.0
787.0
785.0
793.0
794.0
798.0
804.0
814.0
824.0
842.0
852.0
863.0
877.0
888.0
902.0
914.0
923.0
933.0
942.0
955.0
967.0
974.0
983.0
986.0
989.0
988.0
989.0
990.0
997.0
1000.0
1003.0
1003.0
1001.0
1005.0
1012.0
1016.0
1021.0
1022.0
1023.0
1027.0
1029.0
1030.0
1032.0
1036.0
1037.0
1046.0
1055.0
1058.0
1063.0
1067.0
1072.0
1082.0
1093.0
1101.0
1103.0
1100.0
1099.0
1105.0
1115.0
1118.0
1121.0
1120.0
1120.0
1124.0
1130.0
1136.0
1140.0
1140.0
1142.0
1148.0
1152.0
1151.0
1152.0
1151.0
1151.0
1152.0
1151.0
1145.0
1141.0
1137.0
1132.0
1127.0
1120.0
1111.0
1104.0
1097.0
1088.0
1079.0
1072.0
1063.0
1058.0
1051.0
1047.0
1039.0
1030.0
1022.0
1011.0
1002.0
992.0
986.0
981.0
973.0
970.0
960.0
954.0
953.0
951.0
949.0
947.0
943.0
946.0
948.0
946.0
937.0
930.0
921.0
918.0
922.0
929.0
927.0
922.0
916.0
913.0
910.0
911.0
914.0
915.0
914.0
914.0
915.0
917.0
914.0
909.0
906.0
903.0
905.0
907.0
907.0
906.0
907.0
906.0
908.0
907.0
909.0
910.0
914.0
918.0
918.0
920.0
920.0
918.0
919.0
921.0
923.0
921.0
917.0
911.0
907.0
905.0
912.0
915.0
918.0
923.0
921.0
918.0
918.0
920.0
920.0
920.0
916.0
915.0
915.0
920.0
925.0
924.0
919.0
915.0
914.0
912.0
914.0
914.0
917.0
920.0
921.0
920.0
919.0
916.0
911.0
909.0
912.0
921.0
923.0
922.0
918.0
913.0
913.0
915.0
918.0
919.0
923.0
926.0
930.0
931.0
930.0
925.0
924.0
925.0
933.0
941.0
945.0
948.0
953.0
955.0
957.0
957.0
958.0
964.0
971.0
980.0
987.0
988.0
986.0
980.0
974.0
969.0
968.0
976.0
979.0
980.0
978.0
979.0
980.0
984.0
985.0
979.0
976.0
971.0
973.0
972.0
969.0
966.0
969.0
975.0
1001.0
1055.0
1153.0
1279.0
1387.0
1439.0
1449.0
1440.0
1427.0
1414.0
1400.0
1382.0
1363.0
1348.0
1333.0
1312.0
1294.0
1277.0
1260.0
1242.0
1216.0
1183.0
1155.0
1127.0
1103.0
1077.0
1050.0
1017.0
984.0
957.0
932.0
907.0
890.0
874.0
859.0
851.0
845.0
837.0
817.0
781.0
747.0
717.0
694.0
673.0
647.0
621.0
598.0
594.0
615.0
650.0
680.0
703.0
723.0
740.0
750.0
757.0
759.0
762.0
767.0
765.0
767.0
768.0
763.0
761.0
759.0
766.0
777.0
792.0
803.0
813.0
822.0
834.0
845.0
861.0
870.0
883.0
894.0
906.0
923.0
938.0
947.0
951.0
953.0
957.0
964.0
968.0
972.0
981.0
989.0
996.0
1003.0
1004.0
1003.0
1000.0
995.0
997.0
1000.0
1005.0
1010.0
1015.0
1018.0
1024.0
1033.0
1044.0
1050.0
1051.0
1053.0
1055.0
1063.0
1072.0
1079.0
1085.0
1089.0
1094.0
1099.0
1107.0
1114.0
1118.0
1120.0
1119.0
1126.0
1128.0
1130.0
1130.0
1134.0
1135.0
1142.0
1144.0
1144.0
1143.0
1136.0
1131.0
1131.0
1129.0
1125.0
1119.0
1118.0
1114.0
1117.0
1112.0
1107.0
1100.0
1089.0
1083.0
1083.0
1083.0
1078.0
1068.0
1053.0
1039.0
1030.0
1023.0
1018.0
1017.0
1009.0
996.0
990.0
982.0
975.0
965.0
952.0
940.0
934.0
933.0
934.0
933.0
927.0
919.0
916.0
912.0
907.0
907.0
907.0
907.0
910.0
910.0
906.0
904.0
900.0
900.0
899.0
904.0
903.0
905.0
906.0
906.0
907.0
908.0
909.0
909.0
907.0
906.0
903.0
904.0
898.0
891.0
884.0
885.0
888.0
895.0
895.0
896.0
895.0
894.0
895.0
896.0
895.0
898.0
900.0
902.0
909.0
914.0
919.0
924.0
927.0
930.0
939.0
952.0
958.0
960.0
955.0
955.0
963.0
971.0
980.0
978.0
971.0
963.0
959.0
959.0
956.0
959.0
959.0
962.0
963.0
965.0
963.0
960.0
955.0
949.0
947.0
944.0
940.0
935.0
928.0
922.0
917.0
911.0
907.0
903.0
899.0
895.0
892.0
895.0
898.0
893.0
890.0
890.0
895.0
893.0
887.0
881.0
873.0
873.0
878.0
880.0
885.0
885.0
882.0
882.0
887.0
890.0
891.0
889.0
890.0
888.0
888.0
887.0
883.0
877.0
878.0
882.0
884.0
892.0
896.0
899.0
897.0
898.0
893.0
889.0
881.0
877.0
879.0
884.0
897.0
909.0
923.0
938.0
969.0
1037.0
1154.0
1281.0
1389.0
1434.0
1431.0
1417.0
1406.0
1398.0
1385.0
1367.0
1347.0
1327.0
1311.0
1294.0
1277.0
1260.0
1241.0
1220.0
1194.0
1167.0
1138.0
1113.0
1085.0
1063.0
1039.0
1021.0
1003.0
982.0
955.0
926.0
908.0
899.0
892.0
880.0
873.0
864.0
845.0
816.0
778.0
742.0
717.0
691.0
665.0
646.0
634.0
639.0
650.0
667.0
684.0
710.0
730.0
741.0
748.0
752.0
760.0
769.0
778.0
780.0
779.0
774.0
772.0
767.0
769.0
775.0
785.0
798.0
811.0
824.0
835.0
843.0
853.0
864.0
877.0
892.0
902.0
916.0
930.0
945.0
961.0
973.0
977.0
977.0
978.0
972.0
976.0
981.0
987.0
991.0
992.0
993.0
997.0
1007.0
1011.0
1013.0
1015.0
1015.0
1017.0
1021.0
1026.0
1030.0
1034.0
1039.0
1044.0
1050.0
1058.0
1065.0
1068.0
1072.0
1081.0
1089.0
1095.0
1094.0
1092.0
1098.0
1101.0
1107.0
1114.0
1117.0
1121.0
1125.0
1126.0
1130.0
1130.0
1132.0
1133.0
1132.0
1131.0
1132.0
1130.0
1132.0
1129.0
1127.0
1126.0
1127.0
1124.0
1118.0
1115.0
1112.0
1112.0
1106.0
1099.0
1087.0
1081.0
1073.0
1067.0
1058.0
1051.0
1044.0
1035.0
1029.0
1024.0
1016.0
1011.0
1004.0
995.0
990.0
988.0
983.0
973.0
969.0
962.0
959.0
962.0
963.0
969.0
974.0
980.0
984.0
985.0
984.0
983.0
979.0
977.0
971.0
964.0
960.0
952.0
949.0
949.0
954.0
959.0
960.0
952.0
942.0
939.0
941.0
943.0
939.0
934.0
930.0
920.0
916.0
916.0
914.0
910.0
908.0
903.0
900.0
891.0
883.0
877.0
874.0
876.0
877.0
878.0
875.0
872.0
866.0
863.0
864.0
866.0
870.0
874.0
876.0
871.0
865.0
864.0
864.0
865.0
866.0
867.0
867.0
869.0
871.0
870.0
870.0
870.0
868.0
870.0
870.0
867.0
868.0
865.0
867.0
873.0
876.0
879.0
872.0
870.0
869.0
870.0
869.0
867.0
865.0
866.0
868.0
869.0
869.0
869.0
868.0
865.0
861.0
861.0
863.0
863.0
865.0
868.0
869.0
873.0
875.0
873.0
873.0
873.0
880.0
878.0
876.0
872.0
871.0
871.0
875.0
879.0
877.0
876.0
877.0
877.0
880.0
880.0
883.0
879.0
879.0
877.0
876.0
883.0
887.0
891.0
891.0
890.0
890.0
891.0
893.0
892.0
895.0
903.0
911.0
925.0
942.0
967.0
1019.0
1126.0
1253.0
1380.0
1431.0
1429.0
1413.0
1403.0
1391.0
1381.0
1364.0
1343.0
1324.0
1308.0
1290.0
1270.0
1249.0
1224.0
1193.0
1160.0
1130.0
1091.0
1052.0
1013.0
970.0
936.0
900.0
869.0
837.0
803.0
778.0
763.0
753.0
747.0
739.0
719.0
692.0
656.0
634.0
618.0
607.0
589.0
571.0
555.0
547.0
552.0
575.0
598.0
629.0
660.0
690.0
714.0
727.0
734.0
744.0
753.0
755.0
761.0
762.0
767.0
768.0
768.0
771.0
774.0
785.0
798.0
811.0
820.0
829.0
843.0
858.0
869.0
880.0
889.0
899.0
911.0
922.0
939.0
955.0
966.0
976.0
980.0
984.0
984.0
985.0
992.0
995.0
1002.0
1009.0
1007.0
1005.0
1008.0
1008.0
1014.0
1017.0
1021.0
1025.0
1028.0
1032.0
1035.0
1038.0
1043.0
1046.0
1049.0
1051.0
1058.0
1065.0
1071.0
1082.0
1089.0
1094.0
1099.0
1104.0
1107.0
1114.0
1121.0
1133.0
1145.0
1152.0
1160.0
1163.0
1166.0
1171.0
1174.0
1178.0
1179.0
1178.0
1175.0
1173.0
1174.0
1175.0
1174.0
1171.0
1172.0
1169.0
1169.0
1166.0
1163.0
1158.0
1151.0
1144.0
1134.0
1126.0
1117.0
1110.0
1103.0
1096.0
1083.0
1069.0
1050.0
1034.0
1025.0
1020.0
1011.0
1001.0
992.0
983.0
971.0
961.0
951.0
941.0
932.0
922.0
914.0
908.0
909.0
905.0
901.0
896.0
891.0
887.0
886.0
881.0
873.0
867.0
866.0
867.0
873.0
873.0
873.0
870.0
866.0
860.0
862.0
864.0
865.0
863.0
858.0
856.0
853.0
853.0
854.0
853.0
852.0
851.0
853.0
856.0
855.0
850.0
846.0
846.0
846.0
849.0
851.0
851.0
848.0
847.0
852.0
854.0
857.0
858.0
856.0
853.0
854.0
857.0
858.0
856.0
851.0
845.0
850.0
853.0
858.0
859.0
858.0
859.0
862.0
865.0
867.0
864.0
863.0
862.0
