# Simple Text Format
# Sampling Rate (Hz):= 360.00
# Resolution:= 12
# Labels:= ECG
798.0
798.0
803.0
817.0
850.0
920.0
1039.0
1166.0
1260.0
1278.0
1247.0
1216.0
1194.0
1178.0
1152.0
1130.0
1109.0
1094.0
1074.0
1055.0
1035.0
1011.0
988.0
962.0
933.0
902.0
874.0
849.0
826.0
801.0
775.0
743.0
708.0
675.0
653.0
631.0
608.0
587.0
567.0
553.0
539.0
529.0
520.0
515.0
513.0
511.0
504.0
489.0
475.0
460.0
444.0
432.0
423.0
415.0
414.0
420.0
427.0
444.0
462.0
484.0
502.0
520.0
532.0
544.0
550.0
560.0
566.0
569.0
572.0
581.0
584.0
588.0
587.0
590.0
594.0
607.0
621.0
632.0
639.0
647.0
655.0
664.0
671.0
686.0
698.0
707.0
717.0
726.0
740.0
750.0
760.0
767.0
770.0
778.0
785.0
793.0
793.0
793.0
788.0
788.0
792.0
799.0
805.0
807.0
810.0
815.0
824.0
826.0
824.0
824.0
826.0
830.0
838.0
846.0
851.0
855.0
856.0
860.0
868.0
876.0
880.0
881.0
885.0
892.0
898.0
902.0
908.0
911.0
915.0
918.0
924.0
929.0
931.0
931.0
933.0
935.0
937.0
940.0
943.0
941.0
938.0
938.0
940.0
939.0
934.0
930.0
929.0
926.0
925.0
922.0
915.0
907.0
898.0
890.0
887.0
882.0
877.0
870.0
861.0
858.0
853.0
846.0
840.0
828.0
820.0
810.0
803.0
799.0
791.0
781.0
774.0
768.0
763.0
759.0
754.0
747.0
742.0
737.0
733.0
736.0
736.0
731.0
721.0
717.0
718.0
720.0
718.0
717.0
716.0
717.0
719.0
720.0
714.0
713.0
712.0
713.0
715.0
717.0
719.0
716.0
715.0
716.0
715.0
719.0
718.0
716.0
715.0
713.0
717.0
720.0
719.0
720.0
716.0
720.0
719.0
724.0
725.0
726.0
723.0
722.0
727.0
726.0
726.0
728.0
728.0
732.0
733.0
739.0
746.0
748.0
751.0
752.0
755.0
762.0
767.0
770.0
773.0
773.0
778.0
781.0
786.0
789.0
789.0
787.0
786.0
784.0
778.0
778.0
775.0
779.0
781.0
782.0
780.0
777.0
773.0
771.0
770.0
771.0
767.0
762.0
757.0
756.0
754.0
749.0
746.0
742.0
740.0
741.0
740.0
741.0
740.0
737.0
731.0
730.0
729.0
730.0
732.0
731.0
729.0
732.0
732.0
735.0
736.0
733.0
732.0
734.0
736.0
737.0
736.0
737.0
735.0
734.0
736.0
740.0
740.0
740.0
737.0
743.0
745.0
748.0
749.0
748.0
746.0
750.0
754.0
760.0
766.0
777.0
792.0
835.0
915.0
1042.0
1169.0
1296.0
1304.0
1260.0
1218.0
1198.0
1184.0
1158.0
1131.0
1105.0
1081.0
1066.0
1049.0
1036.0
1015.0
992.0
969.0
945.0
916.0
887.0
858.0
834.0
815.0
795.0
774.0
749.0
725.0
706.0
687.0
669.0
650.0
636.0
625.0
622.0
624.0
624.0
621.0
609.0
594.0
581.0
569.0
557.0
545.0
532.0
522.0
527.0
539.0
553.0
567.0
580.0
596.0
612.0
623.0
628.0
631.0
634.0
637.0
645.0
654.0
658.0
662.0
663.0
665.0
667.0
674.0
686.0
699.0
710.0
720.0
734.0
747.0
758.0
772.0
785.0
791.0
799.0
811.0
821.0
835.0
849.0
859.0
871.0
874.0
877.0
878.0
874.0
875.0
880.0
886.0
890.0
892.0
893.0
896.0
903.0
914.0
924.0
931.0
934.0
936.0
932.0
938.0
944.0
954.0
962.0
969.0
977.0
983.0
994.0
1000.0
1006.0
1009.0
1012.0
1018.0
1027.0
1034.0
1042.0
1049.0
1058.0
1063.0
1065.0
1066.0
1068.0
1069.0
1079.0
1085.0
1084.0
1081.0
1075.0
1074.0
1080.0
1081.0
1083.0
1077.0
1073.0
1063.0
1054.0
1051.0
1047.0
1042.0
1035.0
1023.0
1018.0
1011.0
1004.0
996.0
983.0
971.0
960.0
950.0
941.0
934.0
927.0
921.0
912.0
903.0
894.0
885.0
879.0
870.0
865.0
858.0
851.0
843.0
837.0
832.0
829.0
833.0
831.0
830.0
830.0
831.0
831.0
825.0
815.0
816.0
823.0
835.0
841.0
846.0
851.0
852.0
851.0
850.0
857.0
867.0
873.0
876.0
878.0
877.0
874.0
870.0
867.0
866.0
861.0
858.0
859.0
861.0
864.0
863.0
856.0
847.0
848.0
852.0
851.0
844.0
834.0
826.0
827.0
831.0
832.0
828.0
821.0
817.0
815.0
816.0
815.0
812.0
810.0
808.0
809.0
809.0
804.0
804.0
805.0
806.0
807.0
805.0
803.0
804.0
805.0
802.0
802.0
805.0
808.0
805.0
802.0
799.0
798.0
799.0
802.0
802.0
802.0
800.0
800.0
803.0
805.0
804.0
803.0
800.0
799.0
801.0
804.0
802.0
803.0
801.0
802.0
803.0
802.0
804.0
806.0
806.0
804.0
806.0
808.0
808.0
805.0
803.0
800.0
802.0
806.0
811.0
810.0
807.0
809.0
807.0
811.0
811.0
809.0
806.0
809.0
813.0
818.0
820.0
818.0
817.0
815.0
821.0
822.0
825.0
824.0
825.0
831.0
836.0
840.0
846.0
857.0
884.0
948.0
1065.0
1192.0
1319.0
1377.0
1334.0
1281.0
1251.0
1241.0
1220.0
1194.0
1163.0
1133.0
1107.0
1079.0
1049.0
1016.0
988.0
961.0
934.0
903.0
868.0
835.0
801.0
772.0
739.0
709.0
678.0
649.0
631.0
616.0
606.0
601.0
591.0
581.0
579.0
572.0
573.0
573.0
568.0
561.0
555.0
550.0
549.0
551.0
550.0
552.0
555.0
568.0
585.0
601.0
618.0
637.0
654.0
672.0
685.0
699.0
708.0
718.0
726.0
733.0
744.0
752.0
755.0
755.0
759.0
769.0
782.0
796.0
805.0
816.0
822.0
835.0
847.0
863.0
875.0
890.0
899.0
910.0
920.0
933.0
942.0
951.0
956.0
961.0
967.0
972.0
972.0
976.0
980.0
988.0
993.0
999.0
1001.0
1006.0
1010.0
1014.0
1021.0
1025.0
1031.0
1036.0
1041.0
1047.0
1056.0
1063.0
1069.0
1075.0
1078.0
1091.0
1100.0
1108.0
1114.0
1120.0
1123.0
1130.0
1138.0
1144.0
1150.0
1157.0
1163.0
1169.0
1175.0
1176.0
1174.0
1173.0
1175.0
1178.0
1180.0
1182.0
1181.0
1180.0
1180.0
1179.0
1180.0
1177.0
1174.0
1173.0
1171.0
1174.0
1172.0
1173.0
1166.0
1163.0
1156.0
1152.0
1148.0
1144.0
1135.0
1117.0
1100.0
1089.0
1075.0
1069.0
1061.0
1054.0
1046.0
1037.0
1026.0
1016.0
1001.0
988.0
980.0
969.0
960.0
949.0
936.0
926.0
917.0
912.0
910.0
906.0
896.0
890.0
883.0
881.0
877.0
876.0
875.0
874.0
872.0
869.0
863.0
858.0
856.0
860.0
859.0
866.0
865.0
865.0
862.0
861.0
857.0
856.0
857.0
855.0
854.0
854.0
855.0
858.0
860.0
862.0
861.0
859.0
856.0
859.0
861.0
863.0
860.0
855.0
856.0
857.0
860.0
863.0
862.0
862.0
862.0
867.0
870.0
872.0
870.0
867.0
863.0
864.0
866.0
868.0
870.0
870.0
866.0
867.0
868.0
871.0
873.0
872.0
870.0
870.0
871.0
873.0
874.0
870.0
869.0
874.0
880.0
881.0
878.0
877.0
875.0
876.0
880.0
882.0
883.0
883.0
882.0
882.0
885.0
886.0
888.0
888.0
893.0
894.0
893.0
894.0
888.0
888.0
888.0
891.0
896.0
900.0
901.0
902.0
899.0
904.0
903.0
904.0
902.0
904.0
905.0
909.0
914.0
913.0
911.0
912.0
914.0
918.0
921.0
921.0
920.0
917.0
918.0
920.0
924.0
929.0
934.0
931.0
936.0
940.0
946.0
957.0
973.0
1012.0
1093.0
1220.0
1347.0
1446.0
1434.0
1378.0
1335.0
1317.0
1307.0
1288.0
1265.0
1238.0
1215.0
1195.0
1179.0
1152.0
1123.0
1092.0
1060.0
1030.0
1002.0
971.0
935.0
897.0
863.0
828.0
801.0
774.0
750.0
726.0
706.0
695.0
685.0
681.0
675.0
672.0
664.0
655.0
645.0
641.0
633.0
626.0
619.0
615.0
619.0
633.0
649.0
668.0
693.0
725.0
752.0
778.0
793.0
802.0
810.0
820.0
832.0
844.0
850.0
856.0
856.0
863.0
871.0
885.0
897.0
907.0
918.0
928.0
937.0
948.0
962.0
974.0
988.0
1002.0
1016.0
1026.0
1038.0
1048.0
1056.0
1065.0
1073.0
1079.0
1083.0
1082.0
1082.0
1092.0
1103.0
1113.0
1121.0
1127.0
1132.0
1142.0
1155.0
1166.0
1175.0
1182.0
1191.0
1203.0
1213.0
1223.0
1235.0
1247.0
1255.0
1260.0
1263.0
1265.0
1267.0
1267.0
1271.0
1277.0
1283.0
1293.0
1301.0
1303.0
1304.0
1308.0
1312.0
1315.0
1313.0
1310.0
1301.0
1300.0
1303.0
1304.0
1302.0
1298.0
1295.0
1293.0
1289.0
1281.0
1268.0
1257.0
1248.0
1246.0
1245.0
1244.0
1237.0
1227.0
1218.0
1213.0
1206.0
1198.0
1187.0
1171.0
1159.0
1152.0
1150.0
1145.0
1136.0
1126.0
1115.0
1105.0
1094.0
1083.0
1074.0
1063.0
1051.0
1042.0
1041.0
1041.0
1036.0
1027.0
1022.0
1021.0
1025.0
1027.0
1021.0
1008.0
998.0
997.0
1006.0
1010.0
1006.0
999.0
992.0
989.0
990.0
992.0
997.0
996.0
995.0
992.0
990.0
990.0
989.0
987.0
982.0
986.0
993.0
999.0
1005.0
997.0
990.0
988.0
992.0
992.0
992.0
992.0
993.0
997.0
999.0
997.0
996.0
996.0
995.0
996.0
998.0
1005.0
1009.0
1011.0
1012.0
1010.0
1004.0
998.0
1000.0
1009.0
1015.0
1017.0
1011.0
1011.0
1010.0
1010.0
1011.0
1015.0
1021.0
1022.0
1015.0
1013.0
1013.0
1017.0
1018.0
1020.0
1016.0
1017.0
1016.0
1017.0
1010.0
1010.0
1012.0
1020.0
1022.0
1025.0
1023.0
1022.0
1019.0
1017.0
1018.0
1020.0
1020.0
1023.0
1024.0
1024.0
1023.0
1021.0
1022.0
1025.0
1025.0
1027.0
1024.0
1027.0
1028.0
1030.0
1030.0
1027.0
1021.0
1021.0
1022.0
1028.0
1033.0
1036.0
1035.0
1034.0
1041.0
1037.0
1034.0
1035.0
1036.0
1038.0
1041.0
1042.0
1040.0
1039.0
1035.0
1033.0
1037.0
1044.0
1049.0
1049.0
1041.0
1038.0
1040.0
1048.0
1054.0
1055.0
1057.0
1062.0
1075.0
1100.0
1143.0
1228.0
1355.0
1476.0
1530.0
1523.0
1496.0
1476.0
1459.0
1434.0
1411.0
1391.0
1372.0
1348.0
1321.0
1298.0
1269.0
1243.0
1216.0
1193.0
1166.0
1136.0
1110.0
1086.0
1057.0
1031.0
1006.0
982.0
961.0
935.0
903.0
871.0
852.0
842.0
837.0
827.0
809.0
789.0
768.0
746.0
726.0
706.0
685.0
666.0
656.0
666.0
696.0
739.0
783.0
823.0
848.0
865.0
876.0
889.0
905.0
920.0
930.0
940.0
951.0
958.0
963.0
966.0
975.0
993.0
1015.0
1029.0
1039.0
1048.0
1055.0
1064.0
1072.0
1084.0
1100.0
1117.0
1132.0
1151.0
1169.0
1181.0
1189.0
1190.0
1187.0
1186.0
1194.0
1194.0
1191.0
1189.0
1186.0
1188.0
1191.0
1191.0
1186.0
1186.0
1191.0
1200.0
1209.0
1206.0
1200.0
1197.0
1194.0
1204.0
1215.0
1221.0
1222.0
1223.0
1228.0
1233.0
1237.0
1241.0
1243.0
1249.0
1250.0
1258.0
1263.0
1273.0
1278.0
1280.0
1278.0
1283.0
1293.0
1295.0
1293.0
1293.0
1292.0
1297.0
1304.0
1305.0
1305.0
1301.0
1298.0
1298.0
1302.0
1302.0
1300.0
1300.0
1300.0
1296.0
1285.0
1283.0
1278.0
1276.0
1266.0
1259.0
1252.0
1245.0
1234.0
1221.0
1216.0
1214.0
1209.0
1199.0
1185.0
1171.0
1157.0
1154.0
1152.0
1151.0
1140.0
1129.0
1118.0
1115.0
1112.0
1108.0
1097.0
1083.0
1075.0
1072.0
1073.0
1067.0
1062.0
1054.0
1052.0
1054.0
1050.0
1048.0
1044.0
1043.0
1037.0
1042.0
1038.0
1033.0
1031.0
1029.0
1030.0
1034.0
1040.0
1041.0
1039.0
1033.0
1026.0
1026.0
1030.0
1031.0
1031.0
1026.0
1021.0
1017.0
1019.0
1026.0
1023.0
1021.0
1017.0
1018.0
1019.0
1022.0
1021.0
1020.0
1019.0
1019.0
1019.0
1019.0
1023.0
1019.0
1018.0
1019.0
1024.0
1026.0
1027.0
1025.0
1023.0
1024.0
1023.0
1023.0
1022.0
1022.0
1023.0
1025.0
1027.0
1025.0
1024.0
1023.0
1022.0
1023.0
1026.0
1028.0
1027.0
1025.0
1022.0
1025.0
1025.0
1025.0
1025.0
1024.0
1024.0
1023.0
1023.0
1021.0
1021.0
1020.0
1022.0
1027.0
1029.0
1027.0
1024.0
1021.0
1018.0
1018.0
1019.0
1022.0
1024.0
1023.0
1020.0
1021.0
1022.0
1024.0
1023.0
1025.0
1023.0
1023.0
1024.0
1028.0
1026.0
1025.0
1023.0
1023.0
1023.0
1025.0
1024.0
1022.0
1018.0
1023.0
1024.0
1022.0
1024.0
1023.0
1022.0
1022.0
1027.0
1027.0
1027.0
1027.0
1024.0
1024.0
1026.0
1027.0
1029.0
1030.0
1028.0
1026.0
1027.0
1031.0
1031.0
1036.0
1036.0
1044.0
1051.0
1065.0
1095.0
1149.0
1248.0
1374.0
1470.0
1508.0
1497.0
1470.0
1451.0
1442.0
1435.0
1424.0
1406.0
1391.0
1372.0
1362.0
1352.0
1341.0
1327.0
1309.0
1291.0
1270.0
1248.0
1228.0
1204.0
1180.0
1154.0
1128.0
1101.0
1073.0
1042.0
1008.0
979.0
959.0
943.0
930.0
920.0
912.0
903.0
888.0
871.0
851.0
829.0
806.0
779.0
751.0
726.0
705.0
690.0
693.0
705.0
734.0
754.0
780.0
800.0
818.0
825.0
832.0
837.0
842.0
847.0
848.0
848.0
853.0
857.0
859.0
860.0
862.0
866.0
878.0
891.0
903.0
914.0
921.0
928.0
938.0
949.0
961.0
972.0
983.0
993.0
1005.0
1017.0
1027.0
1035.0
1042.0
1047.0
1052.0
1058.0
1060.0
1065.0
1063.0
1064.0
1066.0
1071.0
1076.0
1076.0
1075.0
1078.0
1081.0
1083.0
1087.0
1090.0
1092.0
1095.0
1099.0
1106.0
1110.0
1111.0
1115.0
1114.0
1119.0
1124.0
1130.0
1135.0
1137.0
1139.0
1148.0
1154.0
1160.0
1163.0
1166.0
1170.0
1177.0
1183.0
1187.0
1191.0
1193.0
1197.0
1200.0
1208.0
1210.0
1211.0
1214.0
1216.0
1217.0
1217.0
1219.0
1221.0
1223.0
1225.0
1230.0
1231.0
1229.0
1224.0
1221.0
1215.0
1213.0
1213.0
1210.0
1206.0
1201.0
1194.0
1189.0
1190.0
1186.0
1178.0
1167.0
1159.0
1155.0
1149.0
1141.0
1134.0
1125.0
1115.0
1110.0
1105.0
1095.0
1085.0
1077.0
1066.0
1058.0
1052.0
1047.0
1041.0
1034.0
1029.0
1025.0
1023.0
1021.0
1015.0
1010.0
1005.0
1004.0
1006.0
1004.0
1003.0
998.0
997.0
996.0
999.0
998.0
998.0
995.0
989.0
993.0
991.0
991.0
988.0
987.0
984.0
985.0
984.0
986.0
983.0
981.0
980.0
979.0
980.0
980.0
978.0
979.0
978.0
979.0
981.0
981.0
980.0
980.0
981.0
986.0
988.0
989.0
987.0
986.0
983.0
983.0
982.0
985.0
987.0
988.0
986.0
989.0
991.0
992.0
991.0
988.0
987.0
988.0
989.0
993.0
991.0
989.0
988.0
989.0
990.0
990.0
990.0
991.0
990.0
989.0
988.0
991.0
991.0
992.0
987.0
985.0
986.0
984.0
990.0
992.0
992.0
994.0
989.0
988.0
987.0
989.0
987.0
988.0
989.0
991.0
994.0
993.0
990.0
989.0
991.0
989.0
991.0
989.0
989.0
989.0
992.0
992.0
989.0
988.0
989.0
991.0
991.0
994.0
994.0
993.0
996.0
1003.0
1008.0
1011.0
1014.0
1015.0
1019.0
1025.0
1033.0
1038.0
1042.0
1045.0
1045.0
1047.0
1051.0
1056.0
1059.0
1064.0
1062.0
1064.0
1061.0
1057.0
1056.0
1053.0
1052.0
1054.0
1057.0
1060.0
1058.0
1058.0
1059.0
1064.0
1070.0
1073.0
1078.0
1095.0
1133.0
1214.0
1321.0
1413.0
1460.0
1456.0
1433.0
1412.0
1404.0
1392.0
1376.0
1357.0
1338.0
1323.0
1310.0
1295.0
1279.0
1261.0
1242.0
1222.0
1205.0
1181.0
1156.0
1130.0
1104.0
1076.0
1053.0
1023.0
995.0
966.0
935.0
905.0
882.0
858.0
839.0
820.0
805.0
792.0
786.0
778.0
762.0
740.0
714.0
692.0
674.0
655.0
634.0
615.0
602.0
604.0
621.0
647.0
678.0
707.0
730.0
753.0
778.0
793.0
801.0
804.0
810.0
816.0
824.0
829.0
834.0
831.0
828.0
827.0
831.0
839.0
850.0
868.0
882.0
894.0
901.0
911.0
918.0
929.0
939.0
955.0
970.0
987.0
997.0
1010.0
1018.0
1028.0
1036.0
1039.0
1044.0
1049.0
1052.0
1059.0
1066.0
1067.0
1068.0
1068.0
1070.0
1076.0
1080.0
1082.0
1086.0
1085.0
1089.0
1094.0
1102.0
1104.0
1109.0
1111.0
1117.0
1122.0
1130.0
1138.0
1142.0
1144.0
1148.0
1155.0
1163.0
1169.0
1172.0
1179.0
1182.0
1190.0
1198.0
1204.0
1206.0
1209.0
1211.0
1215.0
1215.0
1219.0
1223.0
1222.0
1223.0
1226.0
1230.0
1228.0
1229.0
1229.0
1227.0
1226.0
1224.0
1223.0
1215.0
1215.0
1206.0
1205.0
1198.0
1196.0
1192.0
1185.0
1177.0
1175.0
1172.0
1164.0
1156.0
1143.0
1134.0
1129.0
1129.0
1122.0
1111.0
1096.0
1085.0
1075.0
1069.0
1067.0
1062.0
1056.0
1047.0
1042.0
1036.0
1033.0
1028.0
1022.0
1017.0
1015.0
1011.0
1010.0
1008.0
1004.0
999.0
997.0
996.0
995.0
992.0
990.0
988.0
990.0
991.0
992.0
987.0
984.0
983.0
986.0
985.0
985.0
984.0
982.0
983.0
983.0
985.0
986.0
983.0
982.0
980.0
979.0
980.0
980.0
983.0
983.0
980.0
981.0
983.0
986.0
985.0
982.0
979.0
984.0
985.0
987.0
989.0
989.0
990.0
992.0
992.0
993.0
993.0
991.0
988.0
988.0
991.0
996.0
998.0
997.0
1000.0
1003.0
1006.0
1010.0
1018.0
1019.0
1022.0
1029.0
1034.0
1039.0
1040.0
1043.0
1042.0
1048.0
1054.0
1059.0
1064.0
1060.0
1053.0
1047.0
1042.0
1041.0
1038.0
1042.0
1041.0
1044.0
1042.0
1043.0
1040.0
1035.0
1029.0
1027.0
1026.0
1022.0
1017.0
1012.0
1005.0
1001.0
1000.0
997.0
990.0
984.0
980.0
981.0
977.0
975.0
972.0
966.0
961.0
961.0
961.0
966.0
966.0
966.0
964.0
965.0
963.0
965.0
965.0
965.0
960.0
960.0
962.0
965.0
966.0
964.0
964.0
966.0
969.0
966.0
968.0
970.0
970.0
974.0
980.0
984.0
988.0
995.0
1013.0
1055.0
1137.0
1250.0
1358.0
1419.0
1422.0
1405.0
1386.0
1373.0
1362.0
1344.0
1324.0
1306.0
1288.0
1272.0
1255.0
1241.0
1222.0
1205.0
1184.0
1163.0
1139.0
1114.0
1088.0
1062.0
1030.0
1000.0
966.0
934.0
904.0
878.0
851.0
819.0
790.0
768.0
753.0
745.0
736.0
729.0
719.0
702.0
680.0
656.0
639.0
621.0
605.0
586.0
567.0
560.0
570.0
585.0
604.0
626.0
651.0
684.0
715.0
739.0
753.0
764.0
773.0
791.0
809.0
824.0
833.0
839.0
839.0
842.0
852.0
860.0
875.0
890.0
900.0
913.0
925.0
938.0
947.0
955.0
966.0
983.0
1000.0
1016.0
1028.0
1036.0
1047.0
1060.0
1071.0
1081.0
1085.0
1089.0
1092.0
1096.0
1100.0
1104.0
1107.0
1106.0
1109.0
1113.0
1120.0
1127.0
1131.0
1134.0
1135.0
1140.0
1148.0
1154.0
1159.0
1161.0
1166.0
1174.0
1180.0
1182.0
1186.0
1193.0
1197.0
1204.0
1210.0
1218.0
1223.0
1227.0
1232.0
1240.0
1242.0
1241.0
1242.0
1247.0
1252.0
1261.0
1264.0
1265.0
1265.0
1264.0
1262.0
1264.0
1263.0
1264.0
1261.0
1259.0
1258.0
1257.0
1253.0
1250.0
1238.0
1235.0
1229.0
1225.0
1223.0
1218.0
1210.0
1201.0
1192.0
1183.0
1180.0
1175.0
1167.0
1156.0
1145.0
1137.0
1131.0
1122.0
1112.0
1104.0
1093.0
1088.0
1084.0
1077.0
1069.0
1059.0
1050.0
1043.0
1042.0
1038.0
1033.0
1029.0
1020.0
1021.0
1021.0
1018.0
1016.0
1011.0
1008.0
1009.0
1014.0
1018.0
1015.0
1015.0
1016.0
1021.0
1026.0
1029.0
1034.0
1034.0
1036.0
1043.0
1049.0
1051.0
1051.0
1052.0
1055.0
1061.0
1061.0
1060.0
1054.0
1048.0
1045.0
1041.0
1043.0
1047.0
1049.0
1047.0
1045.0
1048.0
1049.0
1047.0
1041.0
1035.0
1029.0
1025.0
1023.0
1022.0
1015.0
1011.0
1003.0
999.0
995.0
993.0
991.0
988.0
984.0
984.0
983.0
981.0
975.0
973.0
972.0
973.0
973.0
970.0
967.0
967.0
968.0
972.0
972.0
972.0
970.0
966.0
961.0
963.0
964.0
966.0
965.0
967.0
963.0
964.0
965.0
966.0
966.0
962.0
960.0
960.0
962.0
966.0
966.0
963.0
961.0
963.0
965.0
966.0
963.0
961.0
960.0
962.0
963.0
965.0
966.0
965.0
959.0
964.0
964.0
964.0
961.0
962.0
962.0
965.0
968.0
967.0
966.0
965.0
964.0
967.0
968.0
969.0
968.0
969.0
969.0
972.0
978.0
980.0
981.0
985.0
989.0
998.0
1024.0
1077.0
1173.0
1291.0
1382.0
1419.0
1408.0
1382.0
1363.0
1351.0
1338.0
1322.0
1304.0
1284.0
1267.0
1255.0
1237.0
1221.0
1204.0
1182.0
1158.0
1135.0
1109.0
1087.0
1064.0
1035.0
1004.0
970.0
944.0
924.0
902.0
876.0
852.0
831.0
816.0
803.0
797.0
791.0
779.0
762.0
739.0
718.0
700.0
683.0
665.0
646.0
635.0
639.0
656.0
675.0
697.0
722.0
748.0
772.0
792.0
804.0
811.0
815.0
821.0
828.0
833.0
837.0
842.0
840.0
838.0
839.0
847.0
862.0
873.0
883.0
890.0
902.0
913.0
923.0
934.0
945.0
955.0
968.0
982.0
995.0
1009.0
1021.0
1030.0
1038.0
1042.0
1043.0
1042.0
1042.0
1044.0
1047.0
1051.0
1056.0
1059.0
1059.0
1059.0
1066.0
1068.0
1072.0
1075.0
1078.0
1080.0
1085.0
1089.0
1096.0
1100.0
1100.0
1101.0
1105.0
1109.0
1117.0
1124.0
1125.0
1128.0
1134.0
1138.0
1140.0
1142.0
1147.0
1150.0
1152.0
1156.0
1159.0
1163.0
1168.0
1172.0
1175.0
1176.0
1176.0
1176.0
1177.0
1178.0
1180.0
1181.0
1183.0
1182.0
1179.0
1179.0
1178.0
1181.0
1186.0
1185.0
1189.0
1187.0
1192.0
1190.0
1192.0
1191.0
1186.0
1183.0
1182.0
1179.0
1176.0
1170.0
1162.0
1148.0
1139.0
1131.0
1125.0
1116.0
1107.0
1099.0
1091.0
1089.0
1082.0
1073.0
1066.0
1058.0
1051.0
1046.0
1036.0
1029.0
1021.0
1010.0
1006.0
997.0
990.0
984.0
977.0
970.0
968.0
965.0
962.0
959.0
956.0
952.0
946.0
947.0
946.0
943.0
941.0
936.0
935.0
935.0
936.0
937.0
934.0
930.0
935.0
935.0
935.0
933.0
934.0
931.0
932.0
938.0
940.0
938.0
937.0
931.0
931.0
935.0
935.0
934.0
933.0
933.0
935.0
937.0
937.0
936.0
934.0
932.0
932.0
935.0
937.0
937.0
939.0
934.0
937.0
937.0
939.0
937.0
936.0
936.0
938.0
939.0
939.0
939.0
934.0
934.0
936.0
941.0
941.0
940.0
938.0
938.0
941.0
945.0
946.0
943.0
942.0
942.0
945.0
946.0
945.0
946.0
944.0
944.0
944.0
945.0
945.0
946.0
945.0
948.0
951.0
954.0
951.0
952.0
949.0
948.0
951.0
955.0
957.0
956.0
954.0
950.0
952.0
956.0
958.0
957.0
957.0
957.0
959.0
962.0
964.0
963.0
965.0
962.0
965.0
966.0
967.0
967.0
967.0
967.0
971.0
975.0
980.0
985.0
988.0
1001.0
1031.0
1095.0
1204.0
1324.0
1399.0
1413.0
1393.0
1369.0
1355.0
1341.0
1325.0
1305.0
1292.0
1281.0
1269.0
1255.0
1238.0
1218.0
1201.0
1181.0
1154.0
1124.0
1096.0
1067.0
1038.0
1009.0
974.0
938.0
903.0
867.0
834.0
806.0
788.0
773.0
760.0
747.0
741.0
732.0
713.0
689.0
665.0
645.0
630.0
615.0
602.0
591.0
593.0
612.0
643.0
678.0
710.0
738.0
763.0
779.0
789.0
798.0
807.0
811.0
818.0
823.0
834.0
838.0
841.0
842.0
844.0
850.0
864.0
877.0
890.0
905.0
915.0
926.0
939.0
954.0
969.0
982.0
995.0
1006.0
1020.0
1036.0
1048.0
1055.0
1058.0
1060.0
1065.0
1069.0
1072.0
1073.0
1076.0
1080.0
1084.0
1090.0
1095.0
1098.0
1106.0
1110.0
1122.0
1131.0
1138.0
1148.0
1155.0
1165.0
1176.0
1186.0
1192.0
1197.0
1199.0
1207.0
1214.0
1226.0
1235.0
1237.0
1238.0
1238.0
1242.0
1241.0
1249.0
1255.0
1257.0
1261.0
1265.0
1270.0
1274.0
1275.0
1274.0
1270.0
1270.0
1269.0
1268.0
1265.0
1258.0
1253.0
1249.0
1243.0
1240.0
1236.0
1229.0
1227.0
1219.0
1215.0
1205.0
1195.0
1185.0
1175.0
1166.0
1161.0
1152.0
1142.0
1127.0
1120.0
1112.0
1104.0
1097.0
1085.0
1074.0
1063.0
1054.0
1048.0
1039.0
1028.0
1018.0
1010.0
1005.0
999.0
993.0
984.0
977.0
973.0
972.0
970.0
967.0
962.0
958.0
955.0
953.0
952.0
948.0
944.0
944.0
942.0
942.0
942.0
942.0
940.0
938.0
935.0
936.0
936.0
935.0
932.0
932.0
930.0
931.0
933.0
931.0
931.0
928.0
928.0
931.0
935.0
936.0
934.0
929.0
930.0
939.0
944.0
948.0
943.0
942.0
940.0
943.0
941.0
943.0
942.0
946.0
948.0
949.0
949.0
949.0
947.0
945.0
942.0
943.0
945.0
947.0
948.0
948.0
948.0
952.0
954.0
951.0
951.0
949.0
947.0
948.0
949.0
949.0
950.0
950.0
948.0
948.0
952.0
948.0
946.0
948.0
947.0
950.0
951.0
948.0
950.0
951.0
948.0
949.0
948.0
949.0
949.0
948.0
947.0
951.0
950.0
953.0
953.0
952.0
951.0
956.0
955.0
957.0
958.0
958.0
953.0
954.0
953.0
952.0
954.0
951.0
953.0
958.0
961.0
965.0
963.0
960.0
959.0
958.0
962.0
965.0
967.0
965.0
963.0
965.0
969.0
971.0
975.0
976.0
976.0
986.0
1004.0
1050.0
1134.0
1247.0
1351.0
1400.0
1396.0
1365.0
1343.0
1326.0
1309.0
1295.0
1281.0
1265.0
1249.0
1236.0
1217.0
1200.0
1175.0
1149.0
1122.0
1093.0
1059.0
1024.0
989.0
950.0
909.0
864.0
822.0
787.0
756.0
728.0
703.0
684.0
669.0
657.0
649.0
637.0
622.0
598.0
576.0
561.0
546.0
535.0
518.0
510.0
510.0
532.0
561.0
601.0
641.0
673.0
708.0
739.0
758.0
773.0
788.0
802.0
815.0
837.0
854.0
864.0
867.0
871.0
878.0
896.0
921.0
942.0
954.0
961.0
965.0
973.0
987.0
997.0
1011.0
1026.0
1040.0
1051.0
1061.0
1070.0
1083.0
1087.0
1090.0
1088.0
1091.0
1090.0
1092.0
1088.0
1086.0
1085.0
1084.0
1085.0
1086.0
1089.0
1091.0
1093.0
1095.0
1096.0
1094.0
1096.0
1096.0
1099.0
1104.0
1108.0
1113.0
1115.0
1120.0
1124.0
1131.0
1137.0
1141.0
1144.0
1146.0
1150.0
1158.0
1161.0
1164.0
1165.0
1170.0
1176.0
1181.0
1182.0
1181.0
1179.0
1179.0
1185.0
1192.0
1197.0
1200.0
1196.0
1193.0
1190.0
1185.0
1186.0
1185.0
1182.0
1183.0
1179.0
1175.0
1169.0
1161.0
1156.0
1150.0
1145.0
1137.0
1128.0
1117.0
1110.0
1103.0
1098.0
1088.0
1076.0
1064.0
1052.0
1036.0
1031.0
1026.0
1018.0
1010.0
1005.0
998.0
986.0
976.0
965.0
958.0
952.0
944.0
936.0
931.0
926.0
919.0
915.0
908.0
905.0
901.0
896.0
893.0
892.0
891.0
890.0
888.0
888.0
884.0
880.0
880.0
880.0
878.0
876.0
873.0
871.0
871.0
869.0
871.0
868.0
864.0
861.0
862.0
866.0
867.0
866.0
863.0
857.0
854.0
855.0
857.0
857.0
853.0
852.0
852.0
853.0
853.0
852.0
853.0
855.0
853.0
853.0
855.0
855.0
853.0
848.0
846.0
847.0
851.0
853.0
852.0
850.0
848.0
844.0
848.0
846.0
846.0
844.0
841.0
844.0
844.0
843.0
843.0
842.0
843.0
846.0
843.0
837.0
832.0
830.0
832.0
837.0
840.0
841.0
835.0
834.0
830.0
830.0
830.0
830.0
830.0
829.0
828.0
827.0
830.0
829.0
827.0
825.0
825.0
828.0
826.0
826.0
825.0
824.0
821.0
821.0
822.0
823.0
822.0
822.0
821.0
822.0
824.0
823.0
824.0
822.0
818.0
819.0
824.0
823.0
821.0
821.0
818.0
822.0
822.0
822.0
821.0
819.0
819.0
818.0
821.0
820.0
820.0
820.0
822.0
826.0
830.0
835.0
841.0
855.0
884.0
950.0
1059.0
1186.0
1290.0
1318.0
1294.0
1260.0
1237.0
1224.0
1209.0
1191.0
1174.0
1158.0
1145.0
1131.0
1118.0
1104.0
1084.0
1070.0
1050.0
1024.0
999.0
977.0
954.0
931.0
907.0
877.0
845.0
816.0
792.0
767.0
753.0
741.0
731.0
717.0
709.0
702.0
693.0
671.0
641.0
613.0
589.0
571.0
551.0
529.0
513.0
509.0
516.0
530.0
552.0
570.0
591.0
610.0
624.0
630.0
634.0
636.0
638.0
640.0
643.0
647.0
651.0
652.0
653.0
653.0
652.0
661.0
672.0
682.0
692.0
698.0
707.0
715.0
726.0
733.0
740.0
749.0
759.0
772.0
783.0
792.0
802.0
811.0
818.0
825.0
829.0
828.0
829.0
830.0
828.0
831.0
836.0
838.0
841.0
844.0
845.0
846.0
850.0
851.0
853.0
855.0
857.0
861.0
862.0
864.0
867.0
872.0
876.0
887.0
890.0
891.0
896.0
897.0
903.0
907.0
914.0
920.0
925.0
928.0
933.0
940.0
943.0
951.0
956.0
960.0
963.0
971.0
974.0
978.0
984.0
987.0
990.0
992.0
996.0
998.0
1001.0
1001.0
1005.0
1007.0
1009.0
1010.0
1009.0
1007.0
1004.0
1002.0
1003.0
999.0
995.0
990.0
985.0
984.0
979.0
975.0
966.0
959.0
949.0
944.0
937.0
933.0
924.0
914.0
907.0
903.0
896.0
891.0
885.0
876.0
869.0
865.0
861.0
853.0
847.0
841.0
834.0
831.0
832.0
827.0
823.0
820.0
815.0
815.0
813.0
813.0
812.0
808.0
806.0
804.0
805.0
804.0
804.0
800.0
797.0
799.0
801.0
800.0
800.0
798.0
795.0
795.0
796.0
795.0
792.0
792.0
796.0
800.0
803.0
801.0
798.0
796.0
795.0
797.0
801.0
801.0
797.0
797.0
796.0
798.0
802.0
802.0
802.0
801.0
802.0
806.0
810.0
809.0
809.0
806.0
805.0
808.0
812.0
814.0
809.0
810.0
808.0
811.0
817.0
814.0
815.0
816.0
814.0
814.0
815.0
815.0
815.0
815.0
815.0
815.0
817.0
817.0
