# Simple Text Format
# Sampling Rate (Hz):= 360.00
# Resolution:= 12
# Labels:= ECG
1449.0
1428.0
1413.0
1393.0
1370.0
1342.0
1319.0
1294.0
1270.0
1245.0
1213.0
1178.0
1142.0
1110.0
1073.0
1030.0
982.0
934.0
891.0
846.0
797.0
751.0
713.0
675.0
651.0
637.0
628.0
620.0
618.0
612.0
607.0
597.0
584.0
571.0
559.0
549.0
542.0
539.0
542.0
556.0
588.0
632.0
681.0
725.0
755.0
786.0
807.0
823.0
836.0
841.0
849.0
859.0
864.0
865.0
870.0
877.0
887.0
899.0
910.0
921.0
936.0
946.0
957.0
967.0
982.0
994.0
1014.0
1030.0
1041.0
1051.0
1063.0
1074.0
1084.0
1090.0
1094.0
1097.0
1100.0
1103.0
1111.0
1114.0
1120.0
1122.0
1121.0
1126.0
1132.0
1138.0
1146.0
1150.0
1154.0
1158.0
1167.0
1173.0
1179.0
1187.0
1190.0
1193.0
1201.0
1210.0
1215.0
1221.0
1226.0
1230.0
1239.0
1245.0
1250.0
1255.0
1257.0
1262.0
1267.0
1275.0
1278.0
1282.0
1283.0
1283.0
1285.0
1287.0
1290.0
1287.0
1286.0
1283.0
1284.0
1283.0
1282.0
1280.0
1275.0
1271.0
1268.0
1265.0
1258.0
1250.0
1247.0
1238.0
1233.0
1231.0
1222.0
1215.0
1203.0
1193.0
1187.0
1179.0
1170.0
1160.0
1150.0
1139.0
1135.0
1126.0
1118.0
1110.0
1101.0
1093.0
1085.0
1079.0
1073.0
1066.0
1059.0
1053.0
1049.0
1048.0
1040.0
1037.0
1033.0
1026.0
1023.0
1024.0
1022.0
1017.0
1014.0
1012.0
1010.0
1011.0
1012.0
1007.0
1006.0
1004.0
1004.0
1005.0
1005.0
1004.0
1000.0
998.0
1000.0
1003.0
1003.0
1001.0
1000.0
998.0
1002.0
1001.0
1001.0
1003.0
1000.0
999.0
1002.0
1004.0
1003.0
1001.0
1002.0
1000.0
1000.0
1003.0
1004.0
1004.0
1002.0
999.0
1002.0
1004.0
1006.0
1005.0
1002.0
1002.0
1001.0
1002.0
1002.0
1004.0
1002.0
1002.0
1003.0
1004.0
1006.0
1006.0
1005.0
1005.0
1008.0
1012.0
1014.0
1018.0
1017.0
1025.0
1035.0
1043.0
1046.0
1051.0
1051.0
1054.0
1058.0
1067.0
1071.0
1072.0
1066.0
1060.0
1054.0
1055.0
1054.0
1054.0
1053.0
1052.0
1052.0
1053.0
1050.0
1044.0
1038.0
1036.0
1031.0
1028.0
1023.0
1018.0
1011.0
1006.0
1005.0
1004.0
999.0
992.0
988.0
983.0
982.0
981.0
979.0
977.0
972.0
971.0
970.0
972.0
975.0
972.0
973.0
972.0
974.0
974.0
975.0
975.0
973.0
973.0
979.0
982.0
985.0
988.0
995.0
1010.0
1048.0
1127.0
1254.0
1380.0
1438.0
1423.0
1389.0
1367.0
1356.0
1345.0
1324.0
1301.0
1285.0
1267.0
1249.0
1232.0
1211.0
1190.0
1166.0
1142.0
1117.0
1090.0
1060.0
1025.0
993.0
958.0
925.0
892.0
859.0
829.0
797.0
773.0
752.0
737.0
726.0
719.0
714.0
706.0
686.0
659.0
638.0
621.0
609.0
597.0
587.0
586.0
601.0
628.0
660.0
694.0
731.0
763.0
785.0
795.0
804.0
818.0
828.0
840.0
849.0
856.0
864.0
868.0
872.0
877.0
885.0
895.0
907.0
924.0
934.0
946.0
954.0
966.0
982.0
999.0
1012.0
1025.0
1035.0
1048.0
1059.0
1072.0
1080.0
1084.0
1087.0
1087.0
1093.0
1097.0
1102.0
1106.0
1107.0
1111.0
1118.0
1124.0
1127.0
1131.0
1133.0
1137.0
1143.0
1150.0
1153.0
1156.0
1161.0
1165.0
1173.0
1183.0
1187.0
1191.0
1196.0
1198.0
1204.0
1212.0
1218.0
1223.0
1230.0
1231.0
1239.0
1244.0
1247.0
1252.0
1255.0
1253.0
1259.0
1263.0
1265.0
1265.0
1263.0
1263.0
1262.0
1264.0
1263.0
1258.0
1255.0
1250.0
1250.0
1245.0
1243.0
1234.0
1228.0
1223.0
1217.0
1214.0
1206.0
1197.0
1189.0
1180.0
1173.0
1166.0
1157.0
1147.0
1136.0
1126.0
1119.0
1109.0
1099.0
1091.0
1080.0
1072.0
1067.0
1061.0
1054.0
1046.0
1038.0
1033.0
1029.0
1025.0
1020.0
1015.0
1009.0
1002.0
1003.0
1001.0
998.0
992.0
990.0
989.0
987.0
986.0
987.0
984.0
980.0
979.0
981.0
983.0
982.0
978.0
978.0
982.0
983.0
988.0
991.0
993.0
997.0
1001.0
1014.0
1025.0
1032.0
1035.0
1037.0
1039.0
1041.0
1048.0
1049.0
1049.0
1049.0
1045.0
1041.0
1039.0
1034.0
1033.0
1031.0
1030.0
1034.0
1037.0
1036.0
1030.0
1029.0
1024.0
1023.0
1023.0
1015.0
1012.0
1004.0
998.0
994.0
989.0
982.0
979.0
971.0
968.0
967.0
965.0
960.0
959.0
956.0
952.0
949.0
950.0
947.0
948.0
945.0
944.0
943.0
945.0
945.0
944.0
943.0
942.0
941.0
942.0
944.0
942.0
939.0
939.0
942.0
943.0
940.0
941.0
940.0
937.0
936.0
940.0
941.0
941.0
938.0
939.0
940.0
941.0
941.0
938.0
934.0
935.0
938.0
940.0
941.0
942.0
937.0
935.0
937.0
940.0
939.0
940.0
939.0
938.0
940.0
941.0
942.0
939.0
940.0
939.0
941.0
944.0
942.0
943.0
943.0
944.0
947.0
950.0
950.0
952.0
951.0
953.0
960.0
969.0
980.0
998.0
1047.0
1143.0
1270.0
1382.0
1423.0
1402.0
1369.0
1344.0
1334.0
1323.0
1304.0
1281.0
1259.0
1241.0
1223.0
1207.0
1186.0
1156.0
1128.0
1100.0
1068.0
1040.0
1006.0
966.0
926.0
880.0
839.0
799.0
757.0
716.0
670.0
638.0
619.0
609.0
601.0
591.0
585.0
572.0
555.0
540.0
524.0
513.0
504.0
498.0
502.0
518.0
543.0
576.0
604.0
641.0
686.0
723.0
751.0
766.0
779.0
795.0
811.0
825.0
841.0
851.0
857.0
864.0
866.0
876.0
886.0
903.0
917.0
928.0
943.0
955.0
966.0
978.0
990.0
1006.0
1023.0
1035.0
1049.0
1062.0
1071.0
1078.0
1090.0
1096.0
1099.0
1102.0
1104.0
1107.0
1112.0
1118.0
1122.0
1126.0
1129.0
1132.0
1136.0
1144.0
1149.0
1151.0
1154.0
1160.0
1165.0
1172.0
1177.0
1181.0
1185.0
1189.0
1197.0
1206.0
1211.0
1215.0
1220.0
1226.0
1234.0
1241.0
1247.0
1250.0
1256.0
1258.0
1263.0
1268.0
1271.0
1273.0
1274.0
1276.0
1277.0
1279.0
1280.0
1278.0
1277.0
1274.0
1273.0
1271.0
1269.0
1265.0
1258.0
1254.0
1251.0
1250.0
1244.0
1237.0
1232.0
1226.0
1223.0
1223.0
1219.0
1215.0
1214.0
1212.0
1211.0
1205.0
1202.0
1196.0
1187.0
1179.0
1176.0
1173.0
1165.0
1151.0
1136.0
1124.0
1114.0
1107.0
1099.0
1088.0
1081.0
1076.0
1072.0
1067.0
1059.0
1049.0
1044.0
1036.0
1029.0
1023.0
1016.0
1007.0
999.0
992.0
986.0
981.0
974.0
970.0
962.0
955.0
954.0
952.0
947.0
945.0
939.0
937.0
934.0
932.0
931.0
927.0
926.0
924.0
924.0
926.0
926.0
923.0
920.0
920.0
920.0
924.0
923.0
922.0
919.0
919.0
918.0
922.0
920.0
920.0
917.0
918.0
919.0
922.0
920.0
919.0
918.0
915.0
918.0
923.0
923.0
921.0
918.0
918.0
919.0
922.0
920.0
920.0
916.0
918.0
919.0
920.0
920.0
918.0
915.0
915.0
916.0
918.0
917.0
917.0
915.0
917.0
917.0
917.0
918.0
917.0
915.0
916.0
919.0
917.0
919.0
918.0
916.0
916.0
919.0
920.0
920.0
918.0
916.0
918.0
917.0
920.0
921.0
920.0
919.0
920.0
923.0
924.0
923.0
923.0
924.0
922.0
925.0
926.0
927.0
924.0
925.0
924.0
929.0
928.0
928.0
928.0
924.0
925.0
927.0
929.0
931.0
930.0
929.0
927.0
931.0
931.0
931.0
930.0
930.0
929.0
930.0
935.0
937.0
935.0
935.0
935.0
935.0
939.0
940.0
939.0
941.0
944.0
947.0
949.0
953.0
955.0
960.0
970.0
991.0
1035.0
1117.0
1235.0
1343.0
1398.0
1393.0
1365.0
1341.0
1329.0
1316.0
1302.0
1282.0
1267.0
1248.0
1226.0
1206.0
1189.0
1170.0
1151.0
1125.0
1097.0
1065.0
1033.0
1003.0
973.0
938.0
905.0
866.0
829.0
792.0
760.0
724.0
689.0
656.0
630.0
616.0
608.0
601.0
590.0
576.0
558.0
541.0
531.0
520.0
505.0
492.0
485.0
489.0
507.0
536.0
570.0
606.0
641.0
678.0
715.0
734.0
745.0
759.0
772.0
787.0
801.0
813.0
821.0
827.0
830.0
836.0
843.0
851.0
859.0
872.0
881.0
894.0
904.0
918.0
926.0
934.0
948.0
963.0
982.0
997.0
1007.0
1019.0
1030.0
1042.0
1053.0
1055.0
1059.0
1059.0
1067.0
1071.0
1077.0
1081.0
1085.0
1089.0
1094.0
1103.0
1110.0
1118.0
1125.0
1131.0
1138.0
1153.0
1164.0
1175.0
1182.0
1189.0
1194.0
1202.0
1212.0
1219.0
1228.0
1234.0
1237.0
1241.0
1244.0
1244.0
1248.0
1250.0
1254.0
1259.0
1264.0
1269.0
1271.0
1272.0
1274.0
1276.0
1278.0
1278.0
1275.0
1272.0
1271.0
1267.0
1268.0
1263.0
1259.0
1252.0
1245.0
1243.0
1240.0
1233.0
1224.0
1218.0
1209.0
1204.0
1200.0
1188.0
1179.0
1170.0
1162.0
1156.0
1149.0
1141.0
1128.0
1117.0
1107.0
1098.0
1092.0
1081.0
1073.0
1060.0
1048.0
1039.0
1031.0
1022.0
1012.0
1003.0
992.0
987.0
981.0
974.0
963.0
959.0
953.0
948.0
945.0
941.0
933.0
932.0
926.0
924.0
921.0
919.0
914.0
911.0
908.0
912.0
910.0
908.0
904.0
903.0
899.0
899.0
902.0
900.0
897.0
896.0
895.0
895.0
896.0
896.0
893.0
892.0
890.0
892.0
893.0
893.0
891.0
889.0
891.0
894.0
897.0
898.0
899.0
895.0
895.0
898.0
899.0
900.0
896.0
896.0
897.0
903.0
905.0
906.0
904.0
902.0
903.0
906.0
908.0
909.0
910.0
908.0
909.0
911.0
913.0
913.0
911.0
909.0
910.0
911.0
914.0
913.0
911.0
907.0
908.0
909.0
914.0
913.0
912.0
911.0
911.0
913.0
915.0
915.0
913.0
914.0
913.0
916.0
917.0
915.0
916.0
914.0
912.0
915.0
919.0
918.0
920.0
919.0
916.0
917.0
919.0
920.0
920.0
919.0
919.0
919.0
923.0
925.0
923.0
920.0
920.0
923.0
923.0
919.0
923.0
922.0
921.0
923.0
924.0
924.0
923.0
921.0
922.0
923.0
927.0
928.0
926.0
926.0
926.0
927.0
928.0
930.0
930.0
928.0
928.0
930.0
932.0
933.0
933.0
934.0
933.0
935.0
938.0
938.0
940.0
941.0
942.0
948.0
951.0
958.0
967.0
988.0
1033.0
1120.0
1241.0
1350.0
1397.0
1383.0
1344.0
1325.0
1316.0
1303.0
1285.0
1265.0
1243.0
1227.0
1213.0
1193.0
1172.0
1151.0
1128.0
1104.0
1077.0
1044.0
1013.0
981.0
950.0
916.0
876.0
830.0
784.0
743.0
708.0
677.0
650.0
624.0
605.0
587.0
576.0
572.0
566.0
551.0
535.0
520.0
506.0
499.0
491.0
478.0
471.0
472.0
485.0
517.0
562.0
612.0
661.0
702.0
737.0
765.0
787.0
801.0
816.0
832.0
846.0
871.0
886.0
896.0
900.0
898.0
898.0
904.0
914.0
924.0
933.0
946.0
955.0
972.0
980.0
989.0
999.0
1011.0
1022.0
1034.0
1045.0
1051.0
1055.0
1060.0
1063.0
1070.0
1074.0
1070.0
1070.0
1067.0
1067.0
1070.0
1076.0
1074.0
1073.0
1074.0
1074.0
1078.0
1083.0
1085.0
1089.0
1090.0
1096.0
1104.0
1112.0
1117.0
1120.0
1124.0
1127.0
1135.0
1145.0
1147.0
1152.0
1157.0
1163.0
1169.0
1176.0
1181.0
1185.0
1189.0
1195.0
1200.0
1208.0
1208.0
1213.0
1216.0
1218.0
1223.0
1225.0
1225.0
1225.0
1225.0
1222.0
1225.0
1225.0
1223.0
1217.0
1211.0
1207.0
1205.0
1200.0
1194.0
1188.0
1179.0
1174.0
1166.0
1160.0
1150.0
1140.0
1130.0
1120.0
1110.0
1103.0
1090.0
1078.0
1068.0
1058.0
1048.0
1040.0
1030.0
1017.0
1009.0
1001.0
995.0
988.0
982.0
974.0
967.0
962.0
961.0
959.0
952.0
948.0
942.0
938.0
937.0
939.0
936.0
933.0
930.0
928.0
927.0
929.0
927.0
924.0
921.0
921.0
922.0
925.0
924.0
920.0
918.0
919.0
921.0
923.0
920.0
918.0
916.0
915.0
918.0
920.0
918.0
917.0
917.0
917.0
920.0
922.0
921.0
921.0
922.0
922.0
925.0
928.0
928.0
927.0
925.0
929.0
928.0
932.0
932.0
931.0
931.0
929.0
932.0
935.0
933.0
932.0
935.0
932.0
933.0
935.0
936.0
936.0
932.0
933.0
937.0
940.0
937.0
935.0
934.0
934.0
932.0
937.0
934.0
934.0
933.0
930.0
933.0
937.0
938.0
935.0
935.0
934.0
936.0
938.0
935.0
935.0
933.0
934.0
936.0
940.0
938.0
939.0
936.0
937.0
938.0
939.0
938.0
937.0
935.0
933.0
937.0
939.0
939.0
939.0
938.0
936.0
938.0
942.0
943.0
937.0
937.0
937.0
939.0
942.0
942.0
940.0
939.0
940.0
940.0
945.0
944.0
945.0
944.0
941.0
946.0
947.0
946.0
945.0
946.0
944.0
949.0
951.0
952.0
955.0
954.0
959.0
965.0
972.0
981.0
990.0
1017.0
1075.0
1176.0
1299.0
1395.0
1425.0
1406.0
1384.0
1373.0
1367.0
1356.0
1339.0
1327.0
1314.0
1299.0
1281.0
1260.0
1238.0
1212.0
1188.0
1165.0
1135.0
1108.0
1078.0
1045.0
1010.0
971.0
931.0
883.0
835.0
788.0
746.0
707.0
677.0
649.0
624.0
607.0
593.0
586.0
574.0
554.0
536.0
518.0
507.0
496.0
488.0
478.0
477.0
486.0
511.0
551.0
593.0
628.0
662.0
692.0
716.0
737.0
752.0
767.0
781.0
792.0
802.0
812.0
821.0
825.0
824.0
827.0
835.0
844.0
855.0
867.0
878.0
886.0
894.0
906.0
921.0
932.0
950.0
959.0
975.0
985.0
997.0
1008.0
1018.0
1027.0
1034.0
1039.0
1043.0
1044.0
1047.0
1050.0
1052.0
1057.0
1063.0
1068.0
1070.0
1070.0
1077.0
1083.0
1089.0
1094.0
1099.0
1100.0
1105.0
1115.0
1123.0
1128.0
1134.0
1141.0
1148.0
1158.0
1167.0
1173.0
1175.0
1183.0
1191.0
1200.0
1208.0
1213.0
1219.0
1223.0
1227.0
1236.0
1239.0
1245.0
1245.0
1245.0
1248.0
1251.0
1254.0
1253.0
1250.0
1246.0
1244.0
1244.0
1240.0
1235.0
1227.0
1221.0
1218.0
1211.0
1206.0
1196.0
1189.0
1177.0
1164.0
1157.0
1150.0
1141.0
1128.0
1116.0
1107.0
1099.0
1090.0
1079.0
1069.0
1058.0
1049.0
1039.0
1035.0
1026.0
1016.0
1006.0
999.0
995.0
990.0
987.0
983.0
975.0
973.0
970.0
968.0
965.0
960.0
958.0
956.0
955.0
957.0
955.0
951.0
949.0
949.0
953.0
952.0
952.0
949.0
946.0
949.0
946.0
948.0
945.0
944.0
942.0
945.0
944.0
946.0
948.0
946.0
944.0
943.0
945.0
947.0
947.0
947.0
945.0
947.0
950.0
951.0
951.0
951.0
949.0
949.0
953.0
953.0
953.0
952.0
951.0
951.0
954.0
957.0
957.0
954.0
951.0
952.0
954.0
954.0
954.0
953.0
951.0
951.0
953.0
954.0
956.0
952.0
951.0
950.0
952.0
954.0
951.0
949.0
947.0
951.0
952.0
954.0
955.0
954.0
952.0
950.0
954.0
956.0
958.0
955.0
957.0
959.0
963.0
967.0
977.0
984.0
988.0
995.0
1002.0
1007.0
1009.0
1011.0
1018.0
1026.0
1029.0
1029.0
1023.0
1020.0
1012.0
1012.0
1015.0
1015.0
1015.0
1013.0
1011.0
1008.0
1007.0
1004.0
1002.0
995.0
985.0
983.0
980.0
975.0
970.0
966.0
960.0
955.0
957.0
956.0
953.0
951.0
948.0
948.0
950.0
951.0
956.0
960.0
973.0
1010.0
1094.0
1219.0
1342.0
1395.0
1378.0
1342.0
1323.0
1309.0
1294.0
1275.0
1252.0
1229.0
1208.0
1194.0
1173.0
1149.0
1123.0
1094.0
1069.0
1042.0
1010.0
976.0
937.0
897.0
860.0
821.0
781.0
740.0
701.0
664.0
637.0
616.0
605.0
598.0
591.0
587.0
581.0
566.0
545.0
530.0
519.0
512.0
506.0
500.0
502.0
524.0
551.0
588.0
628.0
666.0
702.0
726.0
743.0
755.0
764.0
776.0
788.0
796.0
803.0
810.0
814.0
820.0
829.0
840.0
854.0
867.0
883.0
894.0
905.0
914.0
923.0
940.0
957.0
973.0
987.0
997.0
1008.0
1020.0
1034.0
1046.0
1048.0
1051.0
1052.0
1056.0
1064.0
1070.0
1073.0
1074.0
1077.0
1082.0
1087.0
1094.0
1097.0
1100.0
1105.0
1110.0
1118.0
1125.0
1133.0
1137.0
1141.0
1146.0
1153.0
1159.0
1166.0
1170.0
1172.0
1179.0
1187.0
1194.0
1201.0
1203.0
1207.0
1211.0
1215.0
1222.0
1224.0
1224.0
1225.0
1228.0
1231.0
1235.0
1232.0
1229.0
1228.0
1226.0
1224.0
1227.0
1221.0
1217.0
1212.0
1208.0
1205.0
1200.0
1194.0
1183.0
1177.0
1168.0
1163.0
1158.0
1148.0
1140.0
1128.0
1120.0
1113.0
1105.0
1095.0
1084.0
1072.0
1064.0
1055.0
1049.0
1039.0
1031.0
1021.0
1014.0
1008.0
1003.0
998.0
989.0
983.0
977.0
976.0
975.0
972.0
966.0
963.0
955.0
960.0
958.0
955.0
955.0
947.0
947.0
948.0
949.0
948.0
944.0
942.0
943.0
946.0
946.0
944.0
941.0
940.0
940.0
942.0
939.0
940.0
940.0
937.0
937.0
941.0
945.0
944.0
941.0
943.0
946.0
953.0
956.0
962.0
965.0
971.0
982.0
992.0
1000.0
1004.0
1004.0
1003.0
1007.0
1011.0
1015.0
1020.0
1016.0
1010.0
1006.0
1004.0
1002.0
1001.0
999.0
998.0
1001.0
1004.0
1000.0
998.0
994.0
989.0
984.0
982.0
980.0
973.0
965.0
959.0
954.0
950.0
947.0
941.0
937.0
932.0
930.0
928.0
926.0
926.0
920.0
917.0
918.0
916.0
917.0
916.0
914.0
910.0
911.0
912.0
914.0
914.0
911.0
909.0
909.0
909.0
914.0
911.0
908.0
907.0
907.0
909.0
909.0
909.0
907.0
903.0
904.0
908.0
911.0
909.0
907.0
903.0
904.0
905.0
910.0
908.0
907.0
906.0
907.0
908.0
911.0
911.0
909.0
908.0
911.0
913.0
915.0
917.0
917.0
919.0
926.0
933.0
943.0
957.0
997.0
1077.0
1204.0
1331.0
1394.0
1378.0
1342.0
1317.0
1302.0
1296.0
1283.0
1264.0
1244.0
1223.0
1209.0
1196.0
1178.0
1156.0
1133.0
1108.0
1084.0
1058.0
1029.0
999.0
966.0
933.0
896.0
865.0
832.0
797.0
760.0
721.0
691.0
673.0
661.0
649.0
639.0
625.0
607.0
585.0
568.0
552.0
537.0
525.0
517.0
511.0
528.0
555.0
595.0
622.0
661.0
697.0
725.0
742.0
753.0
760.0
773.0
787.0
799.0
809.0
817.0
824.0
826.0
830.0
833.0
840.0
850.0
864.0
874.0
889.0
902.0
910.0
921.0
934.0
949.0
968.0
980.0
993.0
1006.0
1014.0
1024.0
1031.0
1039.0
1044.0
1046.0
1047.0
1052.0
1058.0
1063.0
1067.0
1068.0
1068.0
1073.0
1080.0
1086.0
1089.0
1091.0
1093.0
1098.0
1103.0
1110.0
1114.0
1119.0
1123.0
1127.0
1136.0
1140.0
1144.0
1147.0
1150.0
1159.0
1165.0
1171.0
1175.0
1177.0
1179.0
1185.0
1192.0
1198.0
1201.0
1204.0
1204.0
1204.0
1212.0
1214.0
1214.0
1213.0
1211.0
1212.0
1214.0
1215.0
1214.0
1209.0
1204.0
1201.0
1200.0
1195.0
1191.0
1186.0
1179.0
1173.0
1169.0
1163.0
1156.0
1146.0
1138.0
1131.0
1124.0
1117.0
1108.0
1100.0
1090.0
1083.0
1079.0
1072.0
1065.0
1058.0
1050.0
1046.0
1048.0
1049.0
1049.0
1050.0
1051.0
1050.0
1050.0
1047.0
1045.0
1044.0
1037.0
1040.0
1039.0
1034.0
1023.0
1013.0
1007.0
1004.0
1001.0
1000.0
1002.0
996.0
990.0
985.0
986.0
982.0
978.0
970.0
964.0
960.0
956.0
950.0
946.0
938.0
932.0
929.0
925.0
925.0
920.0
913.0
910.0
908.0
908.0
907.0
904.0
901.0
899.0
897.0
900.0
902.0
902.0
900.0
897.0
897.0
897.0
902.0
901.0
899.0
896.0
897.0
899.0
899.0
900.0
898.0
896.0
893.0
898.0
899.0
898.0
897.0
893.0
894.0
895.0
898.0
896.0
894.0
891.0
893.0
894.0
898.0
895.0
894.0
894.0
894.0
894.0
896.0
895.0
892.0
892.0
891.0
894.0
896.0
896.0
896.0
894.0
894.0
896.0
898.0
898.0
896.0
896.0
897.0
897.0
900.0
899.0
898.0
898.0
897.0
899.0
902.0
900.0
902.0
900.0
901.0
904.0
904.0
903.0
907.0
905.0
905.0
907.0
909.0
910.0
908.0
908.0
908.0
911.0
912.0
913.0
912.0
910.0
911.0
913.0
917.0
916.0
919.0
920.0
919.0
925.0
930.0
931.0
936.0
945.0
964.0
1008.0
1096.0
1221.0
1330.0
1377.0
1363.0
1332.0
1312.0
1298.0
1284.0
1268.0
1248.0
1231.0
1211.0
1192.0
1169.0
1147.0
1123.0
1098.0
1067.0
1034.0
1000.0
961.0
924.0
886.0
847.0
808.0
768.0
730.0
697.0
665.0
638.0
621.0
604.0
591.0
583.0
573.0
558.0
539.0
522.0
508.0
498.0
490.0
487.0
487.0
505.0
536.0
574.0
613.0
654.0
690.0
717.0
732.0
746.0
760.0
775.0
790.0
802.0
810.0
820.0
828.0
831.0
836.0
842.0
852.0
866.0
880.0
892.0
903.0
912.0
921.0
937.0
953.0
968.0
981.0
995.0
1004.0
1017.0
1028.0
1039.0
1042.0
1048.0
1048.0
1051.0
1059.0
1063.0
1068.0
1070.0
1071.0
1076.0
1082.0
1086.0
1092.0
1094.0
1098.0
1104.0
1109.0
1116.0
1121.0
1123.0
1129.0
1135.0
1145.0
1153.0
1165.0
1174.0
1182.0
1195.0
1209.0
1218.0
1230.0
1238.0
1243.0
1250.0
1257.0
1262.0
1271.0
1278.0
1281.0
1282.0
1282.0
1280.0
1280.0
1274.0
1274.0
1274.0
1272.0
1276.0
1274.0
1269.0
1264.0
1259.0
1255.0
1249.0
1240.0
1228.0
1219.0
1209.0
1201.0
1191.0
1177.0
1164.0
1151.0
1140.0
1128.0
1118.0
1107.0
1095.0
1082.0
1068.0
1059.0
1049.0
1036.0
1021.0
1012.0
1002.0
995.0
989.0
978.0
969.0
962.0
956.0
949.0
947.0
940.0
935.0
927.0
923.0
920.0
919.0
914.0
910.0
907.0
905.0
906.0
905.0
903.0
900.0
896.0
897.0
900.0
897.0
896.0
893.0
890.0
891.0
891.0
892.0
893.0
890.0
888.0
888.0
887.0
887.0
888.0
886.0
884.0
886.0
889.0
890.0
889.0
889.0
889.0
889.0
889.0
891.0
893.0
892.0
889.0
890.0
893.0
897.0
895.0
890.0
888.0
892.0
898.0
897.0
896.0
895.0
893.0
893.0
895.0
901.0
898.0
897.0
894.0
896.0
898.0
901.0
899.0
897.0
897.0
898.0
901.0
903.0
902.0
902.0
901.0
901.0
902.0
904.0
903.0
903.0
903.0
904.0
910.0
908.0
906.0
901.0
897.0
899.0
905.0
906.0
905.0
909.0
907.0
907.0
910.0
910.0
909.0
907.0
906.0
907.0
909.0
909.0
910.0
911.0
908.0
911.0
910.0
912.0
914.0
913.0
912.0
916.0
916.0
918.0
916.0
913.0
913.0
913.0
915.0
920.0
918.0
916.0
913.0
916.0
920.0
923.0
921.0
922.0
923.0
922.0
926.0
929.0
928.0
927.0
927.0
931.0
940.0
946.0
955.0
966.0
994.0
1069.0
1189.0
1309.0
1372.0
1368.0
1330.0
1307.0
1293.0
1283.0
1265.0
1242.0
1218.0
1199.0
1181.0
1163.0
1143.0
1119.0
1092.0
1062.0
1028.0
998.0
964.0
927.0
882.0
831.0
788.0
746.0
705.0
670.0
640.0
613.0
597.0
583.0
571.0
562.0
552.0
534.0
523.0
508.0
496.0
482.0
468.0
461.0
464.0
482.0
513.0
555.0
600.0
649.0
689.0
714.0
732.0
744.0
757.0
771.0
789.0
803.0
817.0
828.0
836.0
851.0
864.0
877.0
891.0
901.0
915.0
931.0
949.0
965.0
982.0
999.0
1014.0
1030.0
1042.0
1053.0
1063.0
1076.0
1083.0
1092.0
1104.0
1110.0
1114.0
1115.0
1114.0
1117.0
1118.0
1118.0
1115.0
1114.0
1112.0
1114.0
1114.0
1114.0
1114.0
1115.0
1111.0
1115.0
1120.0
1124.0
1128.0
1129.0
1133.0
1136.0
1140.0
1144.0
1151.0
1153.0
1158.0
1163.0
1173.0
1178.0
1182.0
1187.0
1188.0
1192.0
1199.0
1203.0
1209.0
1211.0
1211.0
1212.0
1214.0
1217.0
1216.0
1212.0
1210.0
1210.0
1210.0
1207.0
1203.0
1199.0
1192.0
1184.0
1177.0
1171.0
1165.0
1158.0
1151.0
1145.0
1140.0
1134.0
1123.0
1111.0
1098.0
1091.0
1081.0
1075.0
1064.0
1056.0
1044.0
1038.0
1030.0
1022.0
1011.0
1000.0
991.0
982.0
977.0
974.0
971.0
963.0
956.0
949.0
944.0
940.0
935.0
929.0
927.0
926.0
926.0
924.0
919.0
920.0
917.0
916.0
916.0
919.0
914.0
914.0
913.0
910.0
913.0
914.0
914.0
912.0
910.0
907.0
907.0
909.0
908.0
909.0
910.0
910.0
912.0
914.0
914.0
913.0
910.0
912.0
915.0
919.0
917.0
918.0
914.0
918.0
921.0
923.0
923.0
920.0
918.0
922.0
924.0
927.0
928.0
929.0
925.0
926.0
929.0
931.0
933.0
932.0
928.0
929.0
930.0
932.0
931.0
932.0
927.0
930.0
933.0
936.0
936.0
931.0
932.0
932.0
932.0
936.0
933.0
932.0
931.0
933.0
935.0
934.0
931.0
931.0
931.0
933.0
937.0
936.0
937.0
937.0
934.0
934.0
931.0
933.0
934.0
936.0
932.0
933.0
933.0
936.0
935.0
934.0
935.0
937.0
938.0
941.0
941.0
939.0
938.0
939.0
938.0
938.0
936.0
935.0
935.0
935.0
938.0
941.0
939.0
937.0
936.0
936.0
941.0
942.0
941.0
941.0
938.0
940.0
941.0
941.0
941.0
941.0
942.0
943.0
945.0
946.0
946.0
945.0
948.0
951.0
955.0
959.0
963.0
965.0
975.0
998.0
1051.0
1150.0
1277.0
1374.0
1399.0
1375.0
1346.0
1329.0
1318.0
1305.0
1287.0
1271.0
1257.0
1246.0
1234.0
1220.0
1203.0
1183.0
1157.0
1134.0
1105.0
1080.0
1053.0
1023.0
983.0
933.0
877.0
827.0
783.0
749.0
724.0
707.0
689.0
671.0
659.0
650.0
637.0
623.0
598.0
579.0
559.0
547.0
533.0
518.0
509.0
513.0
528.0
565.0
604.0
650.0
688.0
718.0
740.0
757.0
771.0
782.0
790.0
800.0
808.0
816.0
826.0
832.0
834.0
833.0
833.0
841.0
851.0
865.0
874.0
882.0
888.0
899.0
909.0
922.0
935.0
948.0
958.0
975.0
980.0
995.0
1004.0
1012.0
1020.0
1025.0
1029.0
1034.0
1034.0
1036.0
1036.0
1042.0
1041.0
1049.0
1053.0
1055.0
1055.0
1060.0
1065.0
1070.0
1073.0
1075.0
1077.0
1084.0
1091.0
1096.0
1100.0
1105.0
1108.0
1116.0
1121.0
1129.0
1135.0
1140.0
1143.0
1154.0
1159.0
1164.0
1172.0
1174.0
1179.0
1184.0
1191.0
1197.0
1202.0
1205.0
1206.0
1209.0
1212.0
1215.0
1220.0
1220.0
1221.0
1220.0
1223.0
1222.0
1217.0
1211.0
1205.0
1205.0
1204.0
1203.0
1198.0
1191.0
1186.0
1179.0
1175.0
1169.0
1162.0
1156.0
1146.0
1140.0
1134.0
1128.0
1118.0
1107.0
1101.0
1093.0
1083.0
1077.0
1068.0
1059.0
1047.0
1040.0
1033.0
1027.0
1020.0
1012.0
1004.0
999.0
997.0
993.0
988.0
979.0
975.0
970.0
969.0
967.0
968.0
962.0
959.0
955.0
956.0
957.0
958.0
957.0
954.0
953.0
952.0
955.0
954.0
953.0
949.0
949.0
951.0
952.0
951.0
950.0
946.0
948.0
948.0
952.0
953.0
950.0
946.0
948.0
949.0
951.0
950.0
952.0
950.0
950.0
949.0
944.0
945.0
949.0
952.0
955.0
958.0
959.0
956.0
955.0
953.0
954.0
958.0
959.0
961.0
960.0
958.0
958.0
962.0
964.0
965.0
964.0
960.0
958.0
960.0
962.0
963.0
963.0
960.0
960.0
961.0
962.0
963.0
963.0
961.0
962.0
965.0
965.0
965.0
961.0
959.0
958.0
958.0
959.0
958.0
958.0
959.0
962.0
961.0
960.0
960.0
960.0
958.0
957.0
962.0
962.0
961.0
961.0
959.0
958.0
961.0
964.0
967.0
966.0
967.0
969.0
974.0
976.0
975.0
978.0
983.0
989.0
994.0
1004.0
1008.0
1017.0
1015.0
1017.0
1016.0
1026.0
1035.0
1040.0
1038.0
1038.0
1034.0
1033.0
1029.0
1029.0
1024.0
1023.0
1024.0
1029.0
1030.0
1027.0
1023.0
1021.0
1021.0
1020.0
1014.0
1008.0
1001.0
1000.0
1000.0
1002.0
1006.0
1012.0
1033.0
1091.0
1198.0
1315.0
1399.0
1414.0
1390.0
1359.0
1338.0
1324.0
1312.0
1295.0
1277.0
1261.0
1244.0
1227.0
1208.0
1187.0
1162.0
1140.0
1115.0
1084.0
1046.0
1014.0
986.0
956.0
920.0
878.0
835.0
789.0
750.0
717.0
698.0
681.0
658.0
645.0
631.0
628.0
627.0
621.0
605.0
583.0
560.0
544.0
534.0
517.0
510.0
511.0
525.0
560.0
604.0
647.0
687.0
721.0
748.0
774.0
795.0
800.0
802.0
810.0
822.0
835.0
834.0
835.0
838.0
844.0
848.0
856.0
867.0
879.0
891.0
899.0
905.0
912.0
926.0
941.0
959.0
976.0
988.0
1000.0
1019.0
1038.0
1055.0
1061.0
1063.0
1069.0
1074.0
1078.0
1077.0
1080.0
1086.0
1099.0
1104.0
1109.0
1111.0
1109.0
1109.0
1114.0
1124.0
1131.0
1136.0
1138.0
1142.0
1148.0
1153.0
1161.0
1167.0
1172.0
1176.0
1184.0
1194.0
1201.0
1206.0
1208.0
1210.0
1216.0
1225.0
1234.0
1241.0
1248.0
1250.0
1248.0
1245.0
1249.0
1259.0
1264.0
1266.0
1271.0
1271.0
1272.0
1266.0
1266.0
1263.0
1259.0
1255.0
1253.0
1255.0
1249.0
1242.0
1233.0
1230.0
1226.0
1216.0
1210.0
1202.0
1196.0
1186.0
1180.0
1177.0
1171.0
1158.0
1143.0
1133.0
1131.0
1123.0
1114.0
1103.0
1093.0
1086.0
1078.0
1065.0
1055.0
1048.0
1041.0
1035.0
1027.0
1022.0
1014.0
1010.0
1005.0
999.0
997.0
991.0
986.0
984.0
981.0
980.0
981.0
981.0
975.0
966.0
966.0
972.0
974.0
968.0
962.0
960.0
964.0
969.0
966.0
963.0
960.0
958.0
963.0
969.0
969.0
968.0
963.0
958.0
960.0
964.0
966.0
964.0
965.0
961.0
958.0
962.0
963.0
963.0
965.0
961.0
963.0
966.0
969.0
971.0
968.0
964.0
969.0
975.0
981.0
982.0
983.0
986.0
991.0
1000.0
1008.0
1016.0
1023.0
1027.0
1034.0
