# Simple Text Format
# Sampling Rate (Hz):= 360.00
# Resolution:= 12
# Labels:= ECG
1098.0
1068.0
1039.0
1012.0
986.0
962.0
943.0
930.0
921.0
915.0
912.0
906.0
890.0
865.0
837.0
817.0
796.0
774.0
747.0
725.0
710.0
711.0
724.0
738.0
752.0
768.0
790.0
810.0
820.0
820.0
821.0
824.0
834.0
840.0
846.0
847.0
848.0
846.0
848.0
855.0
861.0
867.0
880.0
891.0
904.0
917.0
930.0
938.0
946.0
958.0
973.0
990.0
1003.0
1014.0
1020.0
1028.0
1038.0
1048.0
1051.0
1052.0
1053.0
1060.0
1067.0
1070.0
1068.0
1069.0
1071.0
1075.0
1083.0
1092.0
1099.0
1100.0
1091.0
1082.0
1084.0
1091.0
1100.0
1107.0
1109.0
1113.0
1122.0
1131.0
1135.0
1140.0
1148.0
1157.0
1164.0
1174.0
1181.0
1185.0
1190.0
1198.0
1212.0
1225.0
1235.0
1240.0
1243.0
1246.0
1253.0
1262.0
1267.0
1269.0
1267.0
1263.0
1259.0
1259.0
1257.0
1259.0
1258.0
1257.0
1257.0
1257.0
1258.0
1254.0
1250.0
1243.0
1234.0
1223.0
1213.0
1203.0
1196.0
1186.0
1177.0
1167.0
1157.0
1144.0
1129.0
1113.0
1100.0
1094.0
1083.0
1073.0
1059.0
1047.0
1038.0
1032.0
1027.0
1022.0
1015.0
1005.0
999.0
996.0
991.0
986.0
978.0
976.0
977.0
976.0
975.0
967.0
963.0
960.0
960.0
961.0
954.0
949.0
946.0
946.0
948.0
950.0
950.0
946.0
946.0
948.0
949.0
948.0
943.0
937.0
935.0
934.0
941.0
942.0
942.0
938.0
936.0
933.0
936.0
938.0
940.0
941.0
940.0
941.0
936.0
933.0
932.0
932.0
934.0
936.0
944.0
949.0
950.0
947.0
944.0
942.0
943.0
946.0
949.0
947.0
948.0
946.0
948.0
950.0
954.0
958.0
955.0
947.0
942.0
940.0
943.0
945.0
947.0
950.0
953.0
956.0
955.0
952.0
949.0
950.0
952.0
956.0
957.0
956.0
955.0
952.0
954.0
956.0
958.0
954.0
953.0
957.0
960.0
958.0
950.0
948.0
953.0
958.0
962.0
969.0
968.0
965.0
963.0
962.0
963.0
966.0
969.0
969.0
970.0
968.0
970.0
970.0
971.0
971.0
973.0
971.0
974.0
971.0
968.0
965.0
964.0
966.0
972.0
979.0
979.0
979.0
978.0
982.0
990.0
989.0
987.0
985.0
984.0
984.0
986.0
989.0
996.0
1004.0
1013.0
1029.0
1052.0
1092.0
1176.0
1295.0
1421.0
1506.0
1538.0
1536.0
1520.0
1508.0
1494.0
1480.0
1464.0
1445.0
1423.0
1395.0
1371.0
1348.0
1330.0
1308.0
1277.0
1243.0
1211.0
1175.0
1139.0
1099.0
1059.0
1020.0
982.0
946.0
916.0
890.0
869.0
850.0
832.0
817.0
808.0
798.0
783.0
763.0
746.0
727.0
706.0
683.0
660.0
639.0
627.0
627.0
646.0
682.0
714.0
742.0
770.0
792.0
810.0
823.0
831.0
837.0
840.0
848.0
855.0
859.0
868.0
872.0
875.0
879.0
892.0
905.0
921.0
941.0
958.0
978.0
996.0
1012.0
1026.0
1036.0
1051.0
1073.0
1096.0
1122.0
1135.0
1143.0
1143.0
1146.0
1148.0
1153.0
1156.0
1163.0
1163.0
1171.0
1179.0
1178.0
1177.0
1175.0
1174.0
1171.0
1172.0
1174.0
1176.0
1178.0
1179.0
1181.0
1185.0
1185.0
1191.0
1192.0
1199.0
1203.0
1206.0
1213.0
1214.0
1219.0
1218.0
1224.0
1233.0
1240.0
1245.0
1251.0
1254.0
1260.0
1269.0
1273.0
1275.0
1273.0
1270.0
1272.0
1278.0
1280.0
1283.0
1280.0
1279.0
1275.0
1272.0
1269.0
1263.0
1257.0
1248.0
1242.0
1238.0
1233.0
1232.0
1224.0
1215.0
1199.0
1190.0
1182.0
1175.0
1165.0
1156.0
1142.0
1132.0
1124.0
1116.0
1108.0
1093.0
1079.0
1070.0
1065.0
1058.0
1047.0
1031.0
1021.0
1015.0
1012.0
1009.0
1003.0
995.0
987.0
986.0
985.0
981.0
974.0
965.0
961.0
960.0
960.0
959.0
954.0
955.0
952.0
953.0
950.0
950.0
951.0
952.0
950.0
946.0
948.0
951.0
947.0
946.0
944.0
945.0
946.0
947.0
945.0
940.0
936.0
935.0
938.0
941.0
941.0
941.0
935.0
935.0
937.0
942.0
943.0
944.0
945.0
944.0
949.0
949.0
945.0
945.0
946.0
947.0
947.0
946.0
946.0
944.0
945.0
947.0
949.0
949.0
946.0
946.0
943.0
948.0
950.0
947.0
943.0
941.0
942.0
945.0
948.0
946.0
945.0
941.0
940.0
943.0
946.0
946.0
944.0
942.0
940.0
940.0
941.0
940.0
942.0
942.0
942.0
946.0
948.0
946.0
942.0
939.0
941.0
944.0
946.0
948.0
947.0
944.0
944.0
946.0
947.0
947.0
947.0
947.0
947.0
947.0
946.0
947.0
950.0
946.0
948.0
951.0
950.0
950.0
949.0
950.0
949.0
951.0
953.0
954.0
951.0
950.0
952.0
955.0
957.0
955.0
955.0
955.0
955.0
956.0
961.0
959.0
958.0
957.0
958.0
966.0
972.0
975.0
979.0
987.0
1009.0
1053.0
1135.0
1262.0
1389.0
1455.0
1453.0
1425.0
1401.0
1386.0
1371.0
1349.0
1327.0
1309.0
1292.0
1276.0
1259.0
1246.0
1228.0
1210.0
1192.0
1167.0
1146.0
1118.0
1088.0
1059.0
1027.0
991.0
957.0
922.0
890.0
858.0
830.0
804.0
782.0
773.0
761.0
764.0
761.0
752.0
734.0
710.0
691.0
673.0
657.0
641.0
625.0
613.0
618.0
646.0
682.0
713.0
738.0
757.0
777.0
791.0
801.0
806.0
807.0
813.0
817.0
824.0
824.0
823.0
817.0
817.0
819.0
827.0
839.0
847.0
855.0
862.0
866.0
880.0
893.0
907.0
917.0
932.0
943.0
953.0
964.0
974.0
979.0
982.0
983.0
984.0
991.0
994.0
994.0
994.0
1000.0
1002.0
1009.0
1010.0
1017.0
1018.0
1021.0
1029.0
1036.0
1042.0
1049.0
1052.0
1053.0
1065.0
1076.0
1082.0
1088.0
1094.0
1097.0
1106.0
1113.0
1120.0
1124.0
1130.0
1135.0
1142.0
1148.0
1153.0
1157.0
1160.0
1162.0
1168.0
1172.0
1172.0
1174.0
1175.0
1176.0
1176.0
1177.0
1176.0
1172.0
1169.0
1165.0
1163.0
1160.0
1156.0
1150.0
1141.0
1134.0
1132.0
1126.0
1116.0
1107.0
1101.0
1096.0
1089.0
1079.0
1069.0
1057.0
1045.0
1038.0
1033.0
1026.0
1019.0
1008.0
999.0
989.0
988.0
985.0
978.0
972.0
965.0
960.0
957.0
955.0
952.0
951.0
946.0
944.0
944.0
943.0
942.0
940.0
936.0
937.0
940.0
939.0
938.0
936.0
935.0
934.0
935.0
936.0
934.0
937.0
934.0
936.0
937.0
938.0
939.0
935.0
934.0
932.0
935.0
936.0
936.0
937.0
935.0
934.0
939.0
943.0
942.0
942.0
939.0
939.0
943.0
947.0
948.0
948.0
947.0
947.0
950.0
953.0
953.0
953.0
953.0
951.0
951.0
952.0
951.0
948.0
948.0
948.0
948.0
951.0
949.0
951.0
946.0
947.0
948.0
951.0
947.0
949.0
949.0
948.0
949.0
952.0
951.0
953.0
950.0
948.0
951.0
952.0
953.0
953.0
951.0
951.0
953.0
959.0
962.0
959.0
956.0
952.0
953.0
956.0
960.0
958.0
960.0
962.0
966.0
972.0
972.0
972.0
972.0
975.0
981.0
988.0
990.0
995.0
999.0
1003.0
1011.0
1018.0
1020.0
1025.0
1032.0
1039.0
1041.0
1039.0
1035.0
1030.0
1029.0
1028.0
1031.0
1036.0
1038.0
1034.0
1032.0
1028.0
1031.0
1031.0
1028.0
1024.0
1018.0
1018.0
1021.0
1033.0
1058.0
1118.0
1220.0
1337.0
1414.0
1420.0
1379.0
1339.0
1320.0
1305.0
1293.0
1277.0
1254.0
1231.0
1211.0
1195.0
1180.0
1163.0
1141.0
1117.0
1093.0
1065.0
1040.0
1015.0
986.0
955.0
921.0
887.0
857.0
829.0
800.0
773.0
750.0
731.0
719.0
714.0
706.0
699.0
686.0
678.0
663.0
642.0
624.0
609.0
597.0
580.0
569.0
563.0
566.0
584.0
611.0
640.0
673.0
702.0
729.0
750.0
767.0
782.0
797.0
810.0
818.0
826.0
832.0
832.0
834.0
839.0
842.0
849.0
859.0
873.0
889.0
907.0
916.0
922.0
932.0
947.0
966.0
984.0
998.0
1010.0
1021.0
1034.0
1048.0
1059.0
1066.0
1072.0
1072.0
1079.0
1089.0
1092.0
1093.0
1096.0
1100.0
1108.0
1113.0
1119.0
1123.0
1128.0
1136.0
1138.0
1146.0
1152.0
1155.0
1161.0
1169.0
1176.0
1181.0
1186.0
1191.0
1195.0
1198.0
1204.0
1216.0
1225.0
1228.0
1229.0
1235.0
1238.0
1243.0
1250.0
1257.0
1262.0
1261.0
1265.0
1269.0
1271.0
1273.0
1271.0
1271.0
1271.0
1271.0
1271.0
1270.0
1267.0
1263.0
1257.0
1256.0
1253.0
1247.0
1240.0
1233.0
1224.0
1220.0
1211.0
1203.0
1194.0
1184.0
1174.0
1170.0
1160.0
1151.0
1140.0
1129.0
1117.0
1110.0
1104.0
1093.0
1083.0
1075.0
1065.0
1059.0
1053.0
1044.0
1040.0
1033.0
1028.0
1025.0
1022.0
1018.0
1013.0
1010.0
1003.0
1001.0
1000.0
998.0
995.0
993.0
991.0
989.0
990.0
989.0
985.0
985.0
984.0
984.0
986.0
984.0
981.0
978.0
979.0
981.0
984.0
983.0
981.0
980.0
976.0
978.0
978.0
979.0
979.0
979.0
979.0
982.0
985.0
982.0
980.0
979.0
979.0
981.0
983.0
986.0
988.0
990.0
994.0
1000.0
1003.0
1008.0
1012.0
1017.0
1022.0
1027.0
1035.0
1035.0
1035.0
1038.0
1043.0
1048.0
1054.0
1051.0
1046.0
1041.0
1037.0
1037.0
1038.0
1039.0
1039.0
1037.0
1033.0
1034.0
1031.0
1027.0
1023.0
1015.0
1013.0
1008.0
1006.0
1002.0
999.0
993.0
987.0
984.0
981.0
980.0
973.0
974.0
971.0
970.0
969.0
966.0
963.0
960.0
958.0
961.0
962.0
959.0
958.0
957.0
957.0
959.0
959.0
961.0
961.0
957.0
956.0
957.0
961.0
961.0
960.0
958.0
958.0
960.0
963.0
964.0
965.0
962.0
963.0
960.0
967.0
965.0
965.0
967.0
970.0
973.0
983.0
989.0
1000.0
1033.0
1110.0
1228.0
1343.0
1408.0
1403.0
1368.0
1339.0
1327.0
1318.0
1303.0
1282.0
1264.0
1249.0
1238.0
1230.0
1216.0
1199.0
1178.0
1161.0
1142.0
1125.0
1101.0
1074.0
1046.0
1022.0
1003.0
985.0
965.0
946.0
924.0
909.0
902.0
899.0
899.0
901.0
902.0
898.0
884.0
866.0
843.0
819.0
788.0
758.0
735.0
719.0
720.0
729.0
741.0
755.0
773.0
794.0
810.0
820.0
824.0
826.0
830.0
832.0
837.0
837.0
836.0
841.0
841.0
843.0
843.0
848.0
858.0
869.0
885.0
896.0
903.0
911.0
920.0
934.0
950.0
966.0
981.0
990.0
1004.0
1013.0
1027.0
1035.0
1038.0
1038.0
1038.0
1040.0
1046.0
1050.0
1053.0
1054.0
1055.0
1058.0
1063.0
1066.0
1066.0
1066.0
1067.0
1071.0
1079.0
1082.0
1085.0
1087.0
1087.0
1091.0
1097.0
1100.0
1106.0
1108.0
1112.0
1113.0
1116.0
1122.0
1125.0
1126.0
1130.0
1135.0
1141.0
1147.0
1149.0
1149.0
1150.0
1152.0
1155.0
1155.0
1162.0
1163.0
1163.0
1165.0
1169.0
1172.0
1172.0
1171.0
1169.0
1167.0
1167.0
1169.0
1166.0
1165.0
1160.0
1156.0
1157.0
1153.0
1152.0
1150.0
1139.0
1135.0
1132.0
1130.0
1122.0
1117.0
1115.0
1107.0
1104.0
1095.0
1089.0
1083.0
1072.0
1063.0
1060.0
1056.0
1050.0
1043.0
1034.0
1028.0
1022.0
1023.0
1019.0
1015.0
1017.0
1017.0
1019.0
1021.0
1026.0
1028.0
1032.0
1035.0
1038.0
1038.0
1038.0
1036.0
1038.0
1037.0
1038.0
1038.0
1035.0
1028.0
1024.0
1020.0
1020.0
1022.0
1023.0
1020.0
1019.0
1014.0
1014.0
1013.0
1011.0
1003.0
996.0
989.0
989.0
985.0
982.0
974.0
966.0
960.0
957.0
956.0
954.0
949.0
946.0
943.0
942.0
943.0
940.0
934.0
932.0
932.0
935.0
937.0
938.0
936.0
934.0
935.0
938.0
939.0
937.0
935.0
931.0
931.0
932.0
937.0
936.0
933.0
933.0
930.0
932.0
934.0
933.0
933.0
931.0
931.0
931.0
932.0
932.0
933.0
929.0
929.0
934.0
934.0
931.0
928.0
930.0
933.0
934.0
934.0
931.0
932.0
932.0
931.0
932.0
932.0
935.0
932.0
931.0
931.0
933.0
935.0
934.0
934.0
934.0
934.0
936.0
936.0
938.0
937.0
935.0
935.0
939.0
939.0
941.0
941.0
940.0
941.0
944.0
947.0
948.0
946.0
944.0
942.0
944.0
946.0
946.0
948.0
948.0
948.0
950.0
951.0
952.0
952.0
951.0
955.0
962.0
970.0
978.0
994.0
1024.0
1097.0
1202.0
1310.0
1370.0
1366.0
1330.0
1301.0
1287.0
1281.0
1268.0
1249.0
1232.0
1217.0
1207.0
1201.0
1189.0
1173.0
1156.0
1140.0
1127.0
1111.0
1090.0
1067.0
1041.0
1013.0
991.0
969.0
946.0
916.0
886.0
859.0
832.0
810.0
793.0
781.0
776.0
773.0
776.0
775.0
761.0
741.0
721.0
707.0
697.0
683.0
667.0
652.0
645.0
652.0
669.0
696.0
722.0
747.0
769.0
792.0
811.0
820.0
827.0
831.0
831.0
838.0
844.0
853.0
855.0
855.0
853.0
854.0
856.0
865.0
873.0
882.0
888.0
896.0
904.0
915.0
925.0
934.0
945.0
956.0
970.0
986.0
999.0
1007.0
1017.0
1023.0
1031.0
1038.0
1040.0
1041.0
1042.0
1043.0
1048.0
1053.0
1053.0
1055.0
1057.0
1060.0
1066.0
1071.0
1074.0
1075.0
1075.0
1074.0
1080.0
1085.0
1089.0
1091.0
1094.0
1098.0
1102.0
1108.0
1112.0
1114.0
1118.0
1122.0
1131.0
1138.0
1142.0
1146.0
1153.0
1161.0
1171.0
1180.0
1187.0
1193.0
1202.0
1210.0
1221.0
1233.0
1242.0
1251.0
1255.0
1263.0
1269.0
1276.0
1277.0
1282.0
1283.0
1284.0
1282.0
1282.0
1275.0
1268.0
1264.0
1260.0
1260.0
1258.0
1255.0
1251.0
1240.0
1234.0
1225.0
1217.0
1208.0
1194.0
1183.0
1171.0
1158.0
1151.0
1137.0
1125.0
1112.0
1098.0
1088.0
1080.0
1073.0
1063.0
1052.0
1041.0
1037.0
1027.0
1018.0
1006.0
997.0
993.0
990.0
989.0
987.0
981.0
976.0
971.0
970.0
968.0
965.0
960.0
956.0
955.0
952.0
953.0
952.0
949.0
948.0
945.0
948.0
948.0
946.0
943.0
941.0
940.0
943.0
948.0
946.0
945.0
942.0
941.0
941.0
943.0
940.0
943.0
940.0
937.0
937.0
934.0
937.0
934.0
938.0
939.0
943.0
947.0
943.0
940.0
941.0
941.0
943.0
945.0
946.0
946.0
943.0
944.0
944.0
947.0
945.0
946.0
947.0
948.0
948.0
951.0
952.0
949.0
946.0
947.0
947.0
947.0
946.0
947.0
947.0
944.0
944.0
950.0
952.0
951.0
948.0
947.0
950.0
949.0
947.0
947.0
947.0
952.0
952.0
953.0
951.0
950.0
951.0
950.0
954.0
958.0
955.0
954.0
952.0
952.0
955.0
954.0
953.0
951.0
953.0
957.0
959.0
960.0
959.0
959.0
958.0
958.0
960.0
961.0
965.0
966.0
966.0
958.0
962.0
967.0
966.0
967.0
965.0
964.0
970.0
972.0
973.0
971.0
968.0
967.0
969.0
977.0
979.0
978.0
978.0
976.0
982.0
985.0
988.0
988.0
991.0
998.0
1021.0
1069.0
1152.0
1257.0
1350.0
1385.0
1371.0
1343.0
1325.0
1312.0
1298.0
1281.0
1265.0
1251.0
1235.0
1215.0
1196.0
1177.0
1155.0
1132.0
1102.0
1075.0
1046.0
1017.0
986.0
959.0
930.0
896.0
864.0
828.0
801.0
772.0
742.0
718.0
707.0
697.0
684.0
678.0
668.0
660.0
645.0
626.0
612.0
596.0
582.0
570.0
556.0
546.0
547.0
561.0
583.0
611.0
642.0
675.0
710.0
741.0
765.0
783.0
794.0
804.0
818.0
829.0
836.0
847.0
852.0
857.0
863.0
869.0
875.0
885.0
897.0
914.0
935.0
952.0
964.0
977.0
993.0
1009.0
1031.0
1049.0
1069.0
1081.0
1097.0
1111.0
1127.0
1144.0
1155.0
1160.0
1161.0
1159.0
1160.0
1164.0
1164.0
1168.0
1168.0
1169.0
1175.0
1182.0
1180.0
1182.0
1184.0
1184.0
1185.0
1189.0
1187.0
1186.0
1188.0
1187.0
1191.0
1195.0
1196.0
1192.0
1194.0
1196.0
1197.0
1202.0
1203.0
1205.0
1207.0
1209.0
1214.0
1219.0
1220.0
1216.0
1219.0
1223.0
1227.0
1234.0
1234.0
1236.0
1237.0
1236.0
1239.0
1243.0
1242.0
1241.0
1238.0
1235.0
1235.0
1237.0
1232.0
1226.0
1221.0
1218.0
1217.0
1214.0
1208.0
1202.0
1196.0
1190.0
1187.0
1182.0
1176.0
1169.0
1160.0
1151.0
1145.0
1143.0
1133.0
1123.0
1115.0
1106.0
1099.0
1090.0
1084.0
1074.0
1067.0
1057.0
1050.0
1043.0
1037.0
1029.0
1021.0
1015.0
1009.0
1004.0
999.0
996.0
990.0
988.0
986.0
986.0
981.0
975.0
972.0
967.0
966.0
967.0
966.0
964.0
960.0
957.0
958.0
958.0
958.0
953.0
954.0
952.0
951.0
955.0
952.0
950.0
949.0
945.0
943.0
947.0
946.0
945.0
945.0
944.0
947.0
945.0
945.0
943.0
941.0
942.0
944.0
944.0
945.0
944.0
941.0
940.0
941.0
943.0
943.0
942.0
941.0
943.0
943.0
947.0
946.0
944.0
941.0
940.0
942.0
945.0
944.0
943.0
944.0
943.0
945.0
944.0
942.0
940.0
940.0
940.0
942.0
940.0
941.0
942.0
941.0
942.0
944.0
942.0
939.0
937.0
939.0
936.0
940.0
943.0
940.0
939.0
938.0
939.0
940.0
940.0
938.0
938.0
938.0
937.0
939.0
943.0
942.0
940.0
938.0
939.0
944.0
944.0
941.0
940.0
938.0
938.0
940.0
945.0
944.0
943.0
942.0
943.0
944.0
944.0
945.0
941.0
941.0
940.0
944.0
945.0
945.0
941.0
942.0
941.0
944.0
948.0
948.0
946.0
942.0
943.0
944.0
947.0
948.0
948.0
947.0
946.0
950.0
953.0
958.0
960.0
963.0
971.0
1001.0
1055.0
1143.0
1253.0
1329.0
1347.0
1319.0
1291.0
1273.0
1263.0
1250.0
1233.0
1219.0
1206.0
1194.0
1182.0
1173.0
1159.0
1148.0
1140.0
1125.0
1112.0
1093.0
1077.0
1063.0
1048.0
1030.0
1010.0
988.0
965.0
943.0
922.0
897.0
874.0
858.0
851.0
854.0
863.0
868.0
866.0
854.0
838.0
812.0
798.0
781.0
766.0
745.0
722.0
712.0
714.0
728.0
754.0
781.0
805.0
824.0
840.0
847.0
849.0
849.0
844.0
845.0
842.0
839.0
838.0
836.0
831.0
828.0
826.0
825.0
825.0
828.0
836.0
846.0
854.0
857.0
863.0
868.0
876.0
890.0
905.0
917.0
928.0
939.0
947.0
958.0
969.0
977.0
982.0
982.0
981.0
987.0
990.0
992.0
993.0
992.0
995.0
998.0
1002.0
1005.0
1006.0
1010.0
1010.0
1015.0
1018.0
1019.0
1021.0
1020.0
1026.0
1033.0
1039.0
1040.0
1043.0
1045.0
1046.0
1052.0
1058.0
1061.0
1064.0
1068.0
1071.0
1077.0
1083.0
1086.0
1085.0
1088.0
1093.0
1100.0
1107.0
1108.0
1110.0
1112.0
1114.0
1120.0
1122.0
1123.0
1124.0
1126.0
1125.0
1128.0
1130.0
1127.0
1124.0
1124.0
1122.0
1123.0
1124.0
1120.0
1117.0
1115.0
1112.0
1110.0
1108.0
1104.0
1100.0
1096.0
1090.0
1085.0
1080.0
1073.0
1067.0
1062.0
1058.0
1053.0
1049.0
1038.0
1028.0
1023.0
1018.0
1013.0
1009.0
1000.0
997.0
993.0
980.0
979.0
978.0
973.0
969.0
966.0
958.0
962.0
962.0
959.0
957.0
950.0
946.0
946.0
947.0
947.0
942.0
941.0
939.0
940.0
943.0
940.0
936.0
934.0
934.0
935.0
937.0
936.0
934.0
934.0
934.0
935.0
938.0
937.0
935.0
934.0
935.0
935.0
937.0
936.0
935.0
935.0
936.0
938.0
940.0
942.0
942.0
941.0
939.0
942.0
943.0
942.0
943.0
943.0
943.0
947.0
948.0
946.0
947.0
947.0
945.0
948.0
951.0
952.0
948.0
946.0
947.0
947.0
948.0
946.0
946.0
945.0
945.0
946.0
950.0
948.0
945.0
946.0
944.0
947.0
948.0
947.0
945.0
943.0
944.0
948.0
953.0
951.0
950.0
948.0
949.0
949.0
952.0
947.0
946.0
948.0
948.0
951.0
950.0
948.0
949.0
950.0
951.0
952.0
953.0
954.0
954.0
957.0
955.0
960.0
965.0
966.0
968.0
970.0
973.0
982.0
991.0
998.0
1003.0
1006.0
1010.0
1013.0
1017.0
1020.0
1024.0
1026.0
1026.0
1023.0
1022.0
1021.0
1021.0
1020.0
1021.0
1022.0
1026.0
1028.0
1028.0
1029.0
1036.0
1068.0
1136.0
1241.0
1336.0
1369.0
1349.0
1318.0
1298.0
1284.0
1269.0
1245.0
1222.0
1203.0
1188.0
1170.0
1152.0
1129.0
1101.0
1075.0
1052.0
1024.0
992.0
960.0
924.0
894.0
862.0
823.0
783.0
741.0
707.0
676.0
651.0
632.0
616.0
608.0
597.0
592.0
582.0
561.0
540.0
523.0
510.0
497.0
486.0
478.0
479.0
495.0
527.0
569.0
607.0
642.0
679.0
709.0
735.0
752.0
762.0
773.0
783.0
790.0
798.0
803.0
806.0
807.0
815.0
827.0
837.0
856.0
869.0
880.0
888.0
899.0
910.0
926.0
945.0
961.0
976.0
991.0
1004.0
1015.0
1029.0
1035.0
1039.0
1040.0
1041.0
1044.0
1051.0
1056.0
1060.0
1064.0
1071.0
1076.0
1081.0
1085.0
1087.0
1092.0
1097.0
1106.0
1112.0
1116.0
1116.0
1120.0
1128.0
1136.0
1142.0
1148.0
1155.0
1159.0
1165.0
1175.0
1184.0
1191.0
1196.0
1199.0
1206.0
1212.0
1218.0
1219.0
1226.0
1228.0
1232.0
1235.0
1238.0
1240.0
1240.0
1241.0
1243.0
1243.0
1243.0
1240.0
1238.0
1235.0
1233.0
1230.0
1226.0
1220.0
1214.0
1207.0
1200.0
1194.0
1188.0
1180.0
1168.0
1164.0
1156.0
1151.0
1144.0
1134.0
1123.0
1114.0
1103.0
1094.0
1088.0
1078.0
1069.0
1061.0
1054.0
1045.0
1038.0
1031.0
1024.0
1014.0
1008.0
1005.0
1003.0
998.0
991.0
988.0
983.0
982.0
983.0
980.0
979.0
975.0
972.0
972.0
974.0
972.0
969.0
967.0
966.0
967.0
968.0
969.0
970.0
968.0
966.0
966.0
968.0
966.0
967.0
963.0
963.0
964.0
968.0
969.0
966.0
963.0
966.0
965.0
971.0
970.0
966.0
967.0
965.0
970.0
971.0
969.0
967.0
966.0
967.0
973.0
975.0
974.0
972.0
972.0
977.0
982.0
988.0
990.0
992.0
995.0
999.0
1008.0
1015.0
1015.0
1019.0
1020.0
1022.0
1026.0
1029.0
1033.0
1039.0
1033.0
1030.0
1026.0
1028.0
1025.0
1021.0
1019.0
1017.0
1018.0
1021.0
1018.0
1013.0
1006.0
1002.0
999.0
996.0
992.0
987.0
983.0
979.0
976.0
973.0
967.0
960.0
956.0
954.0
951.0
951.0
948.0
943.0
941.0
936.0
938.0
940.0
940.0
937.0
935.0
933.0
936.0
938.0
936.0
935.0
932.0
931.0
932.0
937.0
935.0
936.0
939.0
935.0
940.0
939.0
938.0
935.0
931.0
933.0
938.0
944.0
945.0
949.0
952.0
956.0
972.0
1006.0
1080.0
1198.0
1303.0
1345.0
1328.0
1295.0
1270.0
1256.0
1244.0
1227.0
1206.0
1189.0
1174.0
1162.0
1145.0
1128.0
1107.0
1092.0
1070.0
1050.0
1030.0
1006.0
985.0
959.0
933.0
908.0
883.0
858.0
834.0
811.0
792.0
780.0
778.0
776.0
780.0
779.0
762.0
741.0
723.0
709.0
698.0
679.0
659.0
647.0
655.0
673.0
697.0
718.0
740.0
764.0
781.0
792.0
798.0
804.0
809.0
810.0
812.0
817.0
825.0
826.0
822.0
819.0
824.0
835.0
846.0
860.0
869.0
876.0
886.0
894.0
908.0
925.0
938.0
947.0
959.0
968.0
980.0
992.0
1000.0
1006.0
1005.0
1006.0
1010.0
1017.0
1021.0
1022.0
1023.0
1025.0
1030.0
1035.0
1037.0
1039.0
1039.0
1042.0
1046.0
1050.0
1053.0
1055.0
1055.0
1060.0
1066.0
1070.0
1077.0
1076.0
1075.0
1079.0
1089.0
1096.0
1095.0
1097.0
1097.0
1102.0
1108.0
1113.0
1116.0
1116.0
1116.0
1118.0
1122.0
1125.0
1128.0
1124.0
1124.0
1123.0
1123.0
1128.0
1127.0
1124.0
1120.0
1119.0
1118.0
1118.0
1114.0
1111.0
1108.0
1103.0
1100.0
1101.0
1097.0
1090.0
1083.0
1079.0
1072.0
1069.0
1059.0
1051.0
1042.0
1038.0
1035.0
1029.0
1023.0
1013.0
1004.0
997.0
992.0
992.0
986.0
979.0
975.0
970.0
970.0
972.0
973.0
975.0
974.0
976.0
983.0
988.0
992.0
991.0
995.0
1000.0
1004.0
1007.0
1008.0
1010.0
1012.0
1012.0
1009.0
1005.0
1001.0
997.0
991.0
992.0
994.0
997.0
993.0
991.0
986.0
986.0
985.0
981.0
974.0
971.0
966.0
964.0
959.0
955.0
950.0
945.0
939.0
934.0
930.0
931.0
928.0
926.0
923.0
920.0
920.0
919.0
919.0
918.0
912.0
914.0
916.0
920.0
917.0
915.0
913.0
909.0
910.0
917.0
915.0
912.0
908.0
908.0
909.0
912.0
909.0
907.0
907.0
909.0
909.0
909.0
911.0
906.0
909.0
905.0
908.0
908.0
908.0
907.0
906.0
906.0
910.0
912.0
912.0
910.0
905.0
908.0
909.0
912.0
911.0
910.0
908.0
906.0
907.0
910.0
910.0
910.0
909.0
906.0
906.0
907.0
908.0
909.0
908.0
908.0
907.0
912.0
911.0
911.0
908.0
907.0
910.0
915.0
914.0
915.0
913.0
913.0
915.0
915.0
916.0
917.0
918.0
922.0
928.0
929.0
933.0
935.0
944.0
972.0
1035.0
1141.0
1262.0
1338.0
1339.0
1308.0
1279.0
1266.0
1254.0
1239.0
1219.0
1200.0
1185.0
1171.0
1157.0
1141.0
1120.0
1099.0
1075.0
1053.0
1024.0
995.0
964.0
930.0
897.0
865.0
831.0
796.0
762.0
723.0
696.0
672.0
656.0
645.0
635.0
623.0
616.0
608.0
590.0
574.0
560.0
548.0
541.0
531.0
522.0
519.0
529.0
554.0
585.0
621.0
656.0
690.0
713.0
734.0
750.0
763.0
771.0
778.0
787.0
795.0
802.0
805.0
808.0
810.0
819.0
832.0
849.0
863.0
876.0
885.0
896.0
906.0
922.0
940.0
958.0
971.0
984.0
998.0
1008.0
1021.0
1029.0
1030.0
1034.0
1036.0
1041.0
1045.0
1047.0
1050.0
1053.0
1057.0
1062.0
1068.0
1071.0
1074.0
1076.0
1080.0
1085.0
1089.0
1096.0
1098.0
1102.0
1107.0
1114.0
1121.0
1126.0
1131.0
1132.0
1141.0
1151.0
1158.0
1163.0
1166.0
1172.0
1179.0
1188.0
1198.0
1202.0
1209.0
1215.0
1220.0
1230.0
1238.0
1247.0
1250.0
1255.0
1262.0
1268.0
1274.0
1277.0
1277.0
1277.0
1275.0
1278.0
1278.0
1274.0
1263.0
1253.0
1246.0
1240.0
1238.0
1231.0
1225.0
1215.0
1211.0
1204.0
1195.0
1188.0
1174.0
1161.0
1149.0
1137.0
1128.0
1115.0
1101.0
1082.0
1069.0
1057.0
1046.0
1034.0
1021.0
1008.0
999.0
993.0
987.0
979.0
969.0
960.0
955.0
949.0
946.0
946.0
942.0
934.0
930.0
929.0
928.0
928.0
924.0
924.0
921.0
921.0
923.0
924.0
920.0
917.0
915.0
913.0
917.0
916.0
915.0
914.0
915.0
914.0
916.0
915.0
914.0
909.0
909.0
912.0
915.0
916.0
914.0
911.0
910.0
912.0
915.0
915.0
915.0
913.0
913.0
915.0
917.0
918.0
917.0
915.0
910.0
914.0
918.0
917.0
918.0
916.0
915.0
918.0
918.0
917.0
915.0
913.0
915.0
915.0
917.0
917.0
914.0
913.0
914.0
917.0
919.0
916.0
914.0
912.0
913.0
913.0
914.0
914.0
917.0
915.0
914.0
915.0
914.0
913.0
913.0
913.0
914.0
917.0
920.0
919.0
921.0
916.0
914.0
918.0
919.0
922.0
921.0
918.0
918.0
921.0
922.0
922.0
921.0
919.0
919.0
921.0
923.0
923.0
923.0
921.0
922.0
926.0
930.0
930.0
927.0
925.0
925.0
929.0
932.0
932.0
929.0
926.0
928.0
930.0
933.0
936.0
937.0
936.0
937.0
935.0
938.0
939.0
940.0
937.0
941.0
947.0
948.0
951.0
955.0
961.0
985.0
1036.0
1128.0
1247.0
1336.0
1363.0
1340.0
1307.0
1288.0
1276.0
1267.0
1249.0
1229.0
1214.0
1203.0
1187.0
1171.0
1153.0
1133.0
1115.0
1098.0
1076.0
1053.0
1030.0
1001.0
972.0
943.0
915.0
882.0
850.0
814.0
784.0
758.0
729.0
709.0
693.0
688.0
682.0
679.0
675.0
665.0
650.0
637.0
620.0
608.0
596.0
579.0
556.0
547.0
548.0
563.0
589.0
617.0
646.0
676.0
712.0
738.0
755.0
764.0
771.0
785.0
795.0
807.0
817.0
821.0
820.0
820.0
825.0
832.0
842.0
855.0
870.0
886.0
901.0
910.0
919.0
932.0
946.0
963.0
985.0
1004.0
1024.0
1041.0
1054.0
1070.0
1088.0
1099.0
1105.0
1110.0
1115.0
1125.0
1134.0
1138.0
1136.0
1132.0
1134.0
1141.0
1146.0
1153.0
1155.0
1156.0
1155.0
1157.0
1161.0
1166.0
1170.0
1170.0
1169.0
1169.0
1170.0
1173.0
1174.0
1175.0
1174.0
1175.0
1180.0
1183.0
1185.0
1186.0
1186.0
1191.0
1195.0
1200.0
1202.0
1202.0
1201.0
1204.0
1208.0
1209.0
1212.0
1212.0
1210.0
1210.0
1211.0
1212.0
1211.0
1207.0
1202.0
1201.0
1201.0
1200.0
1199.0
1193.0
1188.0
1181.0
1178.0
1173.0
1167.0
1159.0
1151.0
1146.0
1140.0
1132.0
1128.0
1117.0
1106.0
1098.0
1088.0
1083.0
1073.0
1061.0
1054.0
1048.0
1041.0
1031.0
1022.0
1012.0
1003.0
997.0
995.0
988.0
982.0
977.0
974.0
969.0
964.0
961.0
954.0
950.0
948.0
948.0
947.0
945.0
942.0
939.0
937.0
937.0
939.0
939.0
940.0
936.0
935.0
934.0
935.0
935.0
934.0
933.0
932.0
929.0
930.0
933.0
934.0
932.0
929.0
929.0
930.0
932.0
933.0
931.0
929.0
927.0
931.0
934.0
934.0
931.0
931.0
932.0
935.0
937.0
939.0
937.0
933.0
931.0
933.0
939.0
936.0
935.0
934.0
935.0
939.0
945.0
944.0
942.0
938.0
939.0
942.0
945.0
945.0
943.0
938.0
939.0
938.0
942.0
941.0
940.0
938.0
940.0
940.0
940.0
937.0
940.0
940.0
942.0
944.0
946.0
943.0
939.0
935.0
936.0
940.0
944.0
942.0
942.0
940.0
942.0
943.0
944.0
944.0
943.0
939.0
940.0
942.0
944.0
945.0
944.0
940.0
944.0
945.0
945.0
946.0
946.0
