# Simple Text Format
# Sampling Rate (Hz):= 360.00
# Resolution:= 12
# Labels:= ECG
1070.0
1061.0
1053.0
1041.0
1031.0
1023.0
1017.0
1011.0
1004.0
997.0
988.0
983.0
977.0
974.0
968.0
962.0
957.0
952.0
950.0
950.0
944.0
942.0
937.0
935.0
937.0
937.0
934.0
931.0
929.0
927.0
929.0
927.0
924.0
924.0
924.0
924.0
925.0
926.0
926.0
925.0
922.0
922.0
921.0
924.0
925.0
925.0
919.0
923.0
924.0
926.0
922.0
921.0
919.0
921.0
922.0
923.0
925.0
923.0
924.0
927.0
927.0
930.0
930.0
929.0
931.0
933.0
936.0
940.0
941.0
942.0
946.0
952.0
961.0
972.0
977.0
981.0
983.0
983.0
986.0
991.0
997.0
1001.0
1001.0
998.0
996.0
995.0
989.0
986.0
983.0
982.0
986.0
987.0
983.0
980.0
977.0
976.0
974.0
970.0
964.0
956.0
948.0
946.0
942.0
940.0
936.0
928.0
923.0
922.0
920.0
919.0
916.0
912.0
909.0
906.0
907.0
905.0
903.0
902.0
903.0
899.0
899.0
901.0
901.0
900.0
895.0
895.0
895.0
898.0
896.0
898.0
897.0
897.0
896.0
901.0
899.0
898.0
897.0
897.0
896.0
897.0
897.0
898.0
896.0
899.0
902.0
904.0
906.0
905.0
906.0
911.0
916.0
925.0
937.0
958.0
1005.0
1104.0
1231.0
1356.0
1402.0
1389.0
1355.0
1336.0
1326.0
1316.0
1295.0
1271.0
1249.0
1230.0
1211.0
1192.0
1169.0
1143.0
1117.0
1086.0
1058.0
1029.0
994.0
959.0
920.0
881.0
846.0
811.0
774.0
738.0
698.0
664.0
636.0
620.0
608.0
600.0
593.0
581.0
564.0
543.0
527.0
514.0
503.0
496.0
494.0
501.0
527.0
562.0
594.0
631.0
670.0
706.0
731.0
748.0
756.0
766.0
779.0
792.0
805.0
813.0
819.0
827.0
832.0
834.0
837.0
846.0
852.0
862.0
872.0
885.0
892.0
902.0
909.0
923.0
937.0
951.0
963.0
971.0
979.0
994.0
1009.0
1017.0
1023.0
1024.0
1025.0
1028.0
1036.0
1041.0
1045.0
1047.0
1048.0
1053.0
1055.0
1063.0
1066.0
1068.0
1072.0
1076.0
1082.0
1090.0
1094.0
1097.0
1097.0
1103.0
1110.0
1118.0
1123.0
1126.0
1131.0
1137.0
1144.0
1150.0
1156.0
1160.0
1164.0
1168.0
1173.0
1181.0
1182.0
1186.0
1188.0
1192.0
1198.0
1201.0
1201.0
1201.0
1196.0
1197.0
1199.0
1200.0
1198.0
1195.0
1188.0
1184.0
1181.0
1177.0
1168.0
1160.0
1152.0
1147.0
1143.0
1136.0
1129.0
1119.0
1106.0
1100.0
1094.0
1088.0
1081.0
1070.0
1062.0
1050.0
1043.0
1035.0
1026.0
1016.0
1006.0
998.0
992.0
988.0
980.0
970.0
965.0
959.0
954.0
952.0
950.0
942.0
939.0
937.0
938.0
937.0
940.0
941.0
939.0
946.0
952.0
963.0
967.0
973.0
973.0
975.0
978.0
981.0
983.0
988.0
983.0
978.0
973.0
968.0
964.0
962.0
959.0
962.0
963.0
964.0
957.0
956.0
951.0
948.0
946.0
942.0
940.0
934.0
928.0
922.0
919.0
912.0
908.0
902.0
898.0
896.0
895.0
894.0
893.0
889.0
885.0
884.0
883.0
884.0
881.0
882.0
881.0
882.0
881.0
881.0
881.0
875.0
874.0
874.0
877.0
876.0
875.0
874.0
872.0
872.0
873.0
875.0
874.0
871.0
870.0
870.0
870.0
873.0
873.0
868.0
868.0
867.0
871.0
873.0
872.0
870.0
868.0
868.0
870.0
874.0
872.0
870.0
868.0
869.0
871.0
871.0
873.0
870.0
868.0
870.0
873.0
874.0
874.0
872.0
872.0
875.0
876.0
877.0
879.0
878.0
876.0
877.0
878.0
879.0
878.0
877.0
879.0
883.0
884.0
887.0
889.0
888.0
889.0
891.0
893.0
894.0
896.0
896.0
898.0
903.0
912.0
925.0
942.0
987.0
1087.0
1214.0
1341.0
1395.0
1373.0
1338.0
1318.0
1306.0
1289.0
1270.0
1246.0
1220.0
1197.0
1175.0
1152.0
1124.0
1094.0
1061.0
1025.0
990.0
949.0
906.0
861.0
813.0
766.0
722.0
682.0
646.0
613.0
588.0
573.0
569.0
563.0
558.0
543.0
525.0
504.0
494.0
486.0
482.0
481.0
494.0
523.0
563.0
604.0
646.0
687.0
718.0
735.0
749.0
763.0
778.0
793.0
802.0
811.0
823.0
829.0
833.0
836.0
840.0
849.0
859.0
870.0
879.0
889.0
897.0
907.0
919.0
933.0
946.0
961.0
973.0
982.0
994.0
1009.0
1019.0
1027.0
1031.0
1030.0
1034.0
1038.0
1047.0
1048.0
1053.0
1053.0
1061.0
1063.0
1071.0
1074.0
1078.0
1081.0
1085.0
1091.0
1099.0
1103.0
1108.0
1113.0
1119.0
1127.0
1136.0
1138.0
1143.0
1150.0
1157.0
1163.0
1171.0
1174.0
1179.0
1185.0
1192.0
1199.0
1203.0
1205.0
1206.0
1208.0
1212.0
1218.0
1223.0
1224.0
1226.0
1227.0
1230.0
1235.0
1241.0
1245.0
1247.0
1244.0
1244.0
1243.0
1241.0
1237.0
1235.0
1229.0
1229.0
1224.0
1210.0
1198.0
1184.0
1172.0
1163.0
1156.0
1151.0
1140.0
1131.0
1120.0
1105.0
1100.0
1091.0
1076.0
1062.0
1045.0
1033.0
1025.0
1015.0
1003.0
991.0
980.0
971.0
966.0
957.0
950.0
943.0
935.0
932.0
927.0
924.0
918.0
913.0
910.0
909.0
907.0
908.0
906.0
900.0
900.0
900.0
898.0
899.0
898.0
894.0
894.0
894.0
893.0
894.0
892.0
893.0
891.0
891.0
891.0
891.0
890.0
891.0
889.0
889.0
890.0
891.0
893.0
892.0
891.0
892.0
893.0
892.0
892.0
891.0
890.0
888.0
893.0
893.0
895.0
891.0
889.0
890.0
891.0
893.0
893.0
894.0
891.0
891.0
895.0
894.0
892.0
892.0
888.0
892.0
892.0
895.0
893.0
894.0
890.0
891.0
894.0
897.0
896.0
895.0
896.0
896.0
896.0
898.0
899.0
899.0
896.0
899.0
902.0
903.0
904.0
902.0
901.0
901.0
904.0
907.0
904.0
904.0
902.0
903.0
908.0
910.0
912.0
909.0
909.0
908.0
910.0
914.0
913.0
910.0
911.0
914.0
915.0
917.0
915.0
916.0
916.0
915.0
917.0
919.0
918.0
919.0
919.0
921.0
922.0
927.0
926.0
926.0
925.0
927.0
930.0
934.0
935.0
936.0
939.0
947.0
957.0
978.0
1016.0
1106.0
1233.0
1360.0
1418.0
1404.0
1375.0
1354.0
1342.0
1328.0
1311.0
1288.0
1265.0
1241.0
1217.0
1196.0
1173.0
1149.0
1122.0
1089.0
1052.0
1015.0
975.0
933.0
883.0
834.0
782.0
738.0
702.0
667.0
639.0
613.0
596.0
587.0
586.0
582.0
570.0
552.0
535.0
522.0
513.0
506.0
499.0
497.0
507.0
533.0
573.0
613.0
650.0
688.0
720.0
744.0
761.0
774.0
786.0
797.0
811.0
824.0
836.0
846.0
850.0
858.0
858.0
865.0
874.0
883.0
893.0
903.0
909.0
921.0
932.0
942.0
956.0
967.0
982.0
997.0
1010.0
1024.0
1036.0
1050.0
1061.0
1069.0
1082.0
1090.0
1101.0
1108.0
1113.0
1124.0
1131.0
1137.0
1145.0
1151.0
1159.0
1170.0
1177.0
1181.0
1180.0
1177.0
1178.0
1184.0
1188.0
1196.0
1205.0
1209.0
1208.0
1211.0
1217.0
1222.0
1225.0
1227.0
1226.0
1226.0
1231.0
1234.0
1235.0
1236.0
1232.0
1234.0
1235.0
1236.0
1238.0
1238.0
1234.0
1235.0
1236.0
1234.0
1231.0
1225.0
1221.0
1218.0
1216.0
1214.0
1208.0
1198.0
1188.0
1183.0
1179.0
1172.0
1163.0
1153.0
1142.0
1132.0
1123.0
1114.0
1104.0
1095.0
1083.0
1074.0
1066.0
1055.0
1046.0
1036.0
1022.0
1009.0
1005.0
996.0
989.0
979.0
967.0
964.0
957.0
954.0
946.0
940.0
931.0
930.0
928.0
926.0
922.0
918.0
913.0
910.0
911.0
911.0
906.0
903.0
900.0
900.0
900.0
900.0
899.0
895.0
891.0
895.0
896.0
894.0
894.0
893.0
891.0
891.0
893.0
894.0
894.0
892.0
890.0
890.0
893.0
892.0
893.0
893.0
890.0
891.0
893.0
895.0
897.0
896.0
894.0
897.0
899.0
898.0
899.0
901.0
898.0
898.0
904.0
905.0
907.0
905.0
907.0
905.0
908.0
910.0
909.0
907.0
905.0
907.0
910.0
909.0
910.0
907.0
905.0
907.0
908.0
909.0
908.0
907.0
902.0
905.0
907.0
910.0
909.0
906.0
903.0
905.0
907.0
908.0
906.0
906.0
906.0
906.0
909.0
910.0
908.0
906.0
905.0
907.0
909.0
909.0
909.0
908.0
906.0
908.0
910.0
908.0
909.0
909.0
907.0
911.0
911.0
911.0
912.0
913.0
911.0
912.0
913.0
913.0
911.0
912.0
909.0
913.0
915.0
916.0
917.0
914.0
911.0
914.0
918.0
918.0
921.0
917.0
916.0
917.0
921.0
923.0
926.0
927.0
930.0
936.0
950.0
975.0
1025.0
1126.0
1253.0
1377.0
1410.0
1387.0
1355.0
1333.0
1320.0
1302.0
1280.0
1260.0
1237.0
1214.0
1189.0
1165.0
1141.0
1112.0
1081.0
1039.0
996.0
954.0
905.0
851.0
794.0
737.0
690.0
649.0
620.0
595.0
573.0
558.0
546.0
543.0
542.0
536.0
522.0
504.0
492.0
486.0
482.0
478.0
477.0
485.0
510.0
556.0
614.0
669.0
721.0
757.0
780.0
797.0
810.0
822.0
838.0
850.0
862.0
878.0
889.0
894.0
897.0
901.0
903.0
911.0
918.0
926.0
930.0
936.0
940.0
946.0
956.0
967.0
977.0
986.0
992.0
1001.0
1009.0
1021.0
1029.0
1033.0
1031.0
1031.0
1035.0
1039.0
1042.0
1044.0
1043.0
1046.0
1055.0
1059.0
1061.0
1066.0
1066.0
1070.0
1076.0
1082.0
1087.0
1090.0
1094.0
1101.0
1109.0
1113.0
1120.0
1123.0
1124.0
1131.0
1140.0
1146.0
1150.0
1154.0
1159.0
1166.0
1171.0
1179.0
1181.0
1184.0
1186.0
1191.0
1194.0
1196.0
1197.0
1197.0
1194.0
1196.0
1198.0
1198.0
1197.0
1193.0
1187.0
1187.0
1181.0
1180.0
1177.0
1171.0
1163.0
1154.0
1149.0
1142.0
1134.0
1126.0
1118.0
1111.0
1099.0
1087.0
1081.0
1071.0
1060.0
1055.0
1043.0
1035.0
1025.0
1014.0
1003.0
995.0
990.0
983.0
976.0
969.0
961.0
957.0
953.0
948.0
941.0
936.0
931.0
927.0
924.0
925.0
921.0
917.0
913.0
913.0
911.0
912.0
911.0
909.0
906.0
903.0
903.0
905.0
902.0
899.0
895.0
899.0
903.0
904.0
902.0
898.0
895.0
897.0
898.0
902.0
899.0
897.0
893.0
895.0
898.0
900.0
897.0
896.0
896.0
895.0
900.0
901.0
899.0
897.0
896.0
900.0
903.0
904.0
902.0
901.0
900.0
902.0
905.0
905.0
906.0
904.0
904.0
904.0
906.0
907.0
907.0
907.0
905.0
906.0
906.0
910.0
911.0
909.0
904.0
903.0
904.0
907.0
906.0
907.0
905.0
905.0
909.0
907.0
906.0
903.0
902.0
903.0
903.0
905.0
907.0
905.0
905.0
905.0
905.0
907.0
906.0
904.0
901.0
902.0
905.0
906.0
907.0
905.0
905.0
904.0
905.0
907.0
905.0
904.0
904.0
904.0
906.0
908.0
908.0
907.0
906.0
907.0
910.0
910.0
909.0
909.0
909.0
909.0
909.0
911.0
910.0
906.0
908.0
907.0
913.0
913.0
914.0
911.0
912.0
913.0
914.0
915.0
916.0
913.0
912.0
916.0
919.0
924.0
926.0
926.0
927.0
930.0
937.0
947.0
959.0
978.0
1001.0
1052.0
1146.0
1269.0
1377.0
1417.0
1406.0
1387.0
1378.0
1371.0
1356.0
1334.0
1313.0
1290.0
1273.0
1253.0
1229.0
1206.0
1178.0
1152.0
1120.0
1086.0
1046.0
1003.0
953.0
902.0
847.0
792.0
736.0
690.0
651.0
621.0
597.0
577.0
560.0
546.0
541.0
531.0
517.0
503.0
488.0
476.0
468.0
461.0
458.0
457.0
460.0
481.0
515.0
563.0
608.0
643.0
677.0
703.0
720.0
740.0
752.0
766.0
776.0
789.0
796.0
809.0
820.0
822.0
824.0
828.0
832.0
840.0
853.0
865.0
873.0
883.0
890.0
898.0
912.0
924.0
936.0
949.0
959.0
969.0
980.0
993.0
1000.0
1009.0
1013.0
1018.0
1019.0
1023.0
1026.0
1028.0
1032.0
1036.0
1041.0
1045.0
1050.0
1054.0
1056.0
1061.0
1068.0
1072.0
1079.0
1081.0
1085.0
1093.0
1100.0
1110.0
1113.0
1119.0
1122.0
1130.0
1141.0
1147.0
1153.0
1157.0
1161.0
1167.0
1175.0
1184.0
1190.0
1193.0
1196.0
1203.0
1209.0
1213.0
1219.0
1221.0
1221.0
1227.0
1227.0
1229.0
1228.0
1225.0
1225.0
1224.0
1224.0
1222.0
1216.0
1214.0
1206.0
1202.0
1198.0
1192.0
1185.0
1179.0
1170.0
1164.0
1155.0
1149.0
1141.0
1130.0
1121.0
1110.0
1103.0
1098.0
1087.0
1077.0
1066.0
1058.0
1052.0
1044.0
1036.0
1025.0
1016.0
1008.0
1003.0
998.0
992.0
985.0
974.0
970.0
967.0
963.0
960.0
957.0
948.0
944.0
944.0
941.0
938.0
936.0
934.0
932.0
931.0
930.0
929.0
924.0
923.0
924.0
925.0
926.0
926.0
923.0
921.0
921.0
923.0
923.0
921.0
922.0
916.0
920.0
920.0
921.0
920.0
919.0
916.0
918.0
919.0
919.0
918.0
918.0
914.0
916.0
917.0
919.0
919.0
917.0
916.0
917.0
920.0
923.0
922.0
919.0
917.0
918.0
922.0
924.0
925.0
924.0
922.0
921.0
923.0
923.0
923.0
922.0
919.0
918.0
925.0
923.0
924.0
923.0
920.0
922.0
923.0
922.0
923.0
921.0
919.0
922.0
923.0
922.0
922.0
920.0
917.0
919.0
918.0
920.0
918.0
919.0
916.0
916.0
919.0
920.0
921.0
919.0
921.0
922.0
923.0
924.0
927.0
928.0
929.0
933.0
939.0
948.0
958.0
961.0
963.0
965.0
971.0
974.0
980.0
984.0
989.0
991.0
992.0
988.0
984.0
978.0
975.0
976.0
977.0
979.0
977.0
975.0
972.0
975.0
974.0
975.0
970.0
965.0
960.0
953.0
954.0
951.0
946.0
939.0
935.0
933.0
932.0
930.0
926.0
922.0
920.0
922.0
920.0
923.0
921.0
922.0
917.0
921.0
931.0
950.0
986.0
1060.0
1183.0
1310.0
1391.0
1393.0
1362.0
1337.0
1323.0
1315.0
1302.0
1284.0
1265.0
1243.0
1224.0
1206.0
1191.0
1169.0
1147.0
1121.0
1092.0
1070.0
1041.0
1011.0
979.0
942.0
902.0
865.0
826.0
783.0
745.0
707.0
670.0
635.0
613.0
598.0
586.0
579.0
572.0
566.0
556.0
539.0
521.0
505.0
494.0
485.0
476.0
473.0
475.0
498.0
534.0
576.0
618.0
658.0
690.0
715.0
731.0
744.0
754.0
769.0
775.0
783.0
790.0
797.0
801.0
806.0
810.0
816.0
824.0
838.0
851.0
863.0
874.0
884.0
892.0
905.0
920.0
936.0
950.0
962.0
970.0
985.0
995.0
1007.0
1015.0
1021.0
1023.0
1027.0
1034.0
1037.0
1041.0
1044.0
1046.0
1052.0
1060.0
1064.0
1066.0
1069.0
1073.0
1082.0
1087.0
1090.0
1098.0
1102.0
1107.0
1114.0
1122.0
1129.0
1131.0
1139.0
1140.0
1146.0
1156.0
1161.0
1168.0
1174.0
1174.0
1180.0
1186.0
1192.0
1200.0
1203.0
1203.0
1208.0
1212.0
1214.0
1215.0
1217.0
1214.0
1215.0
1215.0
1217.0
1212.0
1210.0
1204.0
1199.0
1197.0
1193.0
1187.0
1181.0
1172.0
1168.0
1164.0
1157.0
1149.0
1138.0
1128.0
1118.0
1111.0
1102.0
1094.0
1083.0
1075.0
1067.0
1058.0
1047.0
1038.0
1027.0
1019.0
1011.0
1006.0
1000.0
992.0
984.0
974.0
969.0
965.0
963.0
954.0
949.0
943.0
939.0
937.0
934.0
932.0
927.0
923.0
923.0
922.0
923.0
919.0
917.0
914.0
916.0
916.0
915.0
912.0
911.0
908.0
910.0
910.0
911.0
912.0
908.0
905.0
910.0
912.0
909.0
908.0
907.0
905.0
904.0
908.0
908.0
907.0
905.0
907.0
907.0
910.0
909.0
910.0
909.0
910.0
913.0
917.0
921.0
925.0
930.0
933.0
943.0
950.0
958.0
962.0
963.0
961.0
964.0
970.0
981.0
983.0
980.0
975.0
973.0
968.0
966.0
964.0
962.0
963.0
964.0
967.0
963.0
962.0
958.0
951.0
952.0
947.0
941.0
936.0
932.0
924.0
924.0
921.0
916.0
910.0
903.0
898.0
896.0
896.0
894.0
891.0
885.0
882.0
882.0
880.0
879.0
876.0
876.0
875.0
875.0
878.0
877.0
873.0
873.0
868.0
871.0
871.0
874.0
872.0
869.0
866.0
868.0
869.0
871.0
870.0
869.0
869.0
867.0
868.0
870.0
867.0
865.0
867.0
868.0
868.0
869.0
868.0
867.0
867.0
870.0
872.0
874.0
871.0
869.0
871.0
873.0
873.0
875.0
875.0
877.0
880.0
884.0
888.0
898.0
910.0
939.0
1001.0
1119.0
1246.0
1358.0
1382.0
1356.0
1327.0
1312.0
1303.0
1289.0
1270.0
1245.0
1223.0
1206.0
1190.0
1171.0
1152.0
1128.0
1103.0
1076.0
1051.0
1022.0
995.0
961.0
924.0
886.0
846.0
805.0
759.0
718.0
679.0
645.0
614.0
593.0
577.0
567.0
560.0
555.0
550.0
536.0
517.0
500.0
487.0
479.0
473.0
467.0
465.0
470.0
490.0
523.0
560.0
598.0
635.0
672.0
697.0
718.0
732.0
741.0
753.0
764.0
774.0
786.0
798.0
804.0
809.0
809.0
811.0
817.0
826.0
834.0
843.0
851.0
862.0
869.0
883.0
896.0
906.0
920.0
931.0
944.0
956.0
968.0
977.0
988.0
995.0
1001.0
1007.0
1013.0
1015.0
1013.0
1015.0
1021.0
1026.0
1031.0
1034.0
1036.0
1038.0
1047.0
1050.0
1054.0
1060.0
1063.0
1067.0
1071.0
1078.0
1086.0
1093.0
1099.0
1103.0
1110.0
1116.0
1124.0
1132.0
1134.0
1138.0
1146.0
1152.0
1158.0
1162.0
1163.0
1168.0
1172.0
1177.0
1184.0
1183.0
1184.0
1184.0
1185.0
1186.0
1185.0
1181.0
1180.0
1174.0
1174.0
1172.0
1167.0
1164.0
1158.0
1151.0
1143.0
1141.0
1135.0
1126.0
1119.0
1108.0
1100.0
1095.0
1087.0
1076.0
1065.0
1055.0
1048.0
1039.0
1031.0
1020.0
1010.0
998.0
992.0
986.0
978.0
971.0
959.0
952.0
949.0
946.0
941.0
939.0
939.0
937.0
939.0
943.0
948.0
953.0
957.0
960.0
963.0
966.0
966.0
966.0
967.0
970.0
972.0
968.0
959.0
953.0
947.0
943.0
945.0
944.0
948.0
946.0
944.0
939.0
937.0
934.0
934.0
931.0
924.0
917.0
910.0
910.0
902.0
898.0
893.0
888.0
883.0
880.0
878.0
876.0
873.0
867.0
870.0
869.0
868.0
865.0
863.0
860.0
862.0
859.0
862.0
862.0
864.0
860.0
860.0
858.0
862.0
862.0
860.0
858.0
859.0
860.0
859.0
859.0
861.0
857.0
857.0
860.0
860.0
856.0
856.0
854.0
855.0
855.0
855.0
854.0
855.0
853.0
853.0
854.0
857.0
857.0
854.0
853.0
854.0
857.0
858.0
854.0
854.0
854.0
854.0
852.0
854.0
855.0
858.0
854.0
858.0
858.0
861.0
859.0
858.0
857.0
859.0
861.0
863.0
863.0
861.0
861.0
861.0
866.0
867.0
865.0
866.0
863.0
866.0
871.0
870.0
869.0
870.0
871.0
873.0
874.0
877.0
878.0
877.0
877.0
880.0
884.0
889.0
888.0
888.0
887.0
892.0
897.0
903.0
912.0
921.0
940.0
996.0
1095.0
1222.0
1336.0
1384.0
1372.0
1343.0
1327.0
1316.0
1302.0
1282.0
1258.0
1238.0
1220.0
1202.0
1179.0
1154.0
1127.0
1097.0
1065.0
1034.0
998.0
959.0
914.0
871.0
829.0
789.0
742.0
705.0
668.0
640.0
613.0
595.0
579.0
569.0
561.0
558.0
553.0
540.0
524.0
508.0
496.0
491.0
486.0
485.0
493.0
515.0
546.0
585.0
627.0
664.0
696.0
720.0
737.0
752.0
763.0
779.0
789.0
799.0
809.0
820.0
826.0
832.0
834.0
842.0
848.0
860.0
871.0
882.0
887.0
896.0
903.0
915.0
932.0
942.0
956.0
964.0
976.0
988.0
998.0
1011.0
1018.0
1023.0
1025.0
1030.0
1033.0
1039.0
1042.0
1045.0
1048.0
1052.0
1057.0
1059.0
1065.0
1066.0
1070.0
1076.0
1084.0
1090.0
1095.0
1097.0
1099.0
1107.0
1111.0
1120.0
1124.0
1129.0
1135.0
1140.0
1150.0
1155.0
1158.0
1165.0
1167.0
1175.0
1181.0
1188.0
1194.0
1198.0
1203.0
1210.0
1221.0
1227.0
1234.0
1240.0
1241.0
1246.0
1247.0
1252.0
1248.0
1246.0
1242.0
1247.0
1246.0
1243.0
1233.0
1217.0
1206.0
1197.0
1193.0
1184.0
1175.0
1167.0
1156.0
1148.0
1137.0
1125.0
1113.0
1100.0
1085.0
1072.0
1065.0
1051.0
1038.0
1023.0
1008.0
999.0
987.0
976.0
963.0
953.0
941.0
934.0
929.0
920.0
915.0
908.0
900.0
896.0
895.0
890.0
888.0
886.0
880.0
881.0
880.0
879.0
877.0
874.0
870.0
872.0
871.0
872.0
869.0
866.0
863.0
863.0
865.0
863.0
864.0
861.0
859.0
858.0
859.0
859.0
859.0
858.0
855.0
857.0
857.0
856.0
857.0
854.0
853.0
850.0
855.0
857.0
857.0
857.0
856.0
856.0
859.0
861.0
858.0
857.0
856.0
858.0
860.0
857.0
856.0
856.0
857.0
858.0
860.0
860.0
858.0
854.0
855.0
856.0
859.0
858.0
857.0
854.0
854.0
855.0
855.0
858.0
860.0
863.0
861.0
862.0
864.0
865.0
865.0
865.0
862.0
864.0
868.0
868.0
867.0
868.0
867.0
867.0
871.0
873.0
870.0
866.0
866.0
866.0
871.0
873.0
873.0
870.0
867.0
871.0
872.0
873.0
876.0
874.0
875.0
875.0
879.0
879.0
880.0
880.0
877.0
882.0
883.0
883.0
880.0
881.0
879.0
884.0
886.0
889.0
884.0
884.0
885.0
887.0
888.0
888.0
891.0
891.0
891.0
894.0
898.0
899.0
899.0
901.0
901.0
909.0
916.0
931.0
966.0
1032.0
1153.0
1280.0
1354.0
1337.0
1282.0
1246.0
1231.0
1223.0
1205.0
1179.0
1152.0
1125.0
1103.0
1080.0
1057.0
1033.0
1003.0
971.0
932.0
899.0
862.0
823.0
779.0
732.0
685.0
642.0
608.0
581.0
556.0
534.0
518.0
509.0
505.0
504.0
500.0
493.0
484.0
477.0
469.0
465.0
462.0
459.0
459.0
474.0
497.0
527.0
562.0
599.0
638.0
681.0
706.0
722.0
731.0
740.0
757.0
772.0
788.0
803.0
815.0
822.0
827.0
834.0
841.0
847.0
858.0
864.0
875.0
886.0
898.0
910.0
921.0
932.0
947.0
967.0
984.0
1000.0
1013.0
1024.0
1040.0
1059.0
1076.0
1091.0
1102.0
1110.0
1115.0
1124.0
1133.0
1143.0
1151.0
1159.0
1158.0
1160.0
1162.0
1165.0
1166.0
1169.0
1172.0
1179.0
1187.0
1192.0
1193.0
1196.0
1200.0
1204.0
1207.0
1209.0
1210.0
1210.0
1210.0
1211.0
1214.0
1220.0
1219.0
1220.0
1220.0
1222.0
1227.0
1231.0
1231.0
1231.0
1229.0
1231.0
1231.0
1228.0
1227.0
1226.0
1225.0
1222.0
1223.0
1217.0
1215.0
1208.0
1200.0
1194.0
1185.0
1177.0
1165.0
1155.0
1142.0
1135.0
1129.0
1119.0
1106.0
1091.0
1075.0
1065.0
1055.0
1045.0
1032.0
1025.0
1016.0
1006.0
999.0
991.0
981.0
976.0
965.0
958.0
953.0
947.0
942.0
938.0
929.0
926.0
922.0
917.0
914.0
908.0
905.0
902.0
905.0
901.0
902.0
897.0
893.0
892.0
894.0
895.0
893.0
893.0
895.0
897.0
898.0
899.0
897.0
896.0
893.0
893.0
894.0
898.0
898.0
896.0
896.0
895.0
897.0
899.0
899.0
897.0
895.0
900.0
902.0
905.0
900.0
896.0
898.0
905.0
912.0
912.0
910.0
907.0
908.0
911.0
915.0
913.0
913.0
913.0
912.0
912.0
915.0
915.0
917.0
918.0
914.0
919.0
921.0
921.0
922.0
918.0
915.0
913.0
917.0
917.0
917.0
915.0
917.0
918.0
918.0
916.0
914.0
919.0
919.0
921.0
921.0
922.0
922.0
921.0
920.0
923.0
921.0
923.0
922.0
919.0
922.0
924.0
927.0
926.0
927.0
923.0
923.0
922.0
923.0
927.0
925.0
925.0
922.0
927.0
932.0
932.0
928.0
926.0
926.0
926.0
931.0
938.0
938.0
935.0
929.0
927.0
931.0
936.0
934.0
934.0
933.0
935.0
937.0
939.0
941.0
941.0
940.0
941.0
944.0
949.0
950.0
951.0
956.0
965.0
976.0
1003.0
1062.0
1171.0
1298.0
1395.0
1405.0
1370.0
1334.0
1311.0
1297.0
1279.0
1258.0
1232.0
1206.0
1181.0
1159.0
1135.0
1116.0
1095.0
1069.0
1030.0
986.0
943.0
902.0
857.0
808.0
757.0
715.0
681.0
651.0
619.0
596.0
577.0
567.0
567.0
568.0
565.0
558.0
547.0
539.0
532.0
531.0
527.0
527.0
533.0
554.0
591.0
636.0
682.0
725.0
761.0
788.0
806.0
823.0
840.0
859.0
873.0
889.0
902.0
913.0
915.0
913.0
913.0
915.0
920.0
930.0
940.0
945.0
949.0
952.0
962.0
975.0
992.0
1002.0
1006.0
1013.0
1020.0
1029.0
1038.0
1047.0
1050.0
1054.0
1057.0
1062.0
1066.0
1069.0
1072.0
1072.0
1078.0
1088.0
1093.0
1092.0
1095.0
1098.0
1106.0
1111.0
1115.0
1119.0
1124.0
1127.0
1137.0
1143.0
1149.0
1151.0
1156.0
1162.0
1172.0
1179.0
1185.0
1192.0
1194.0
1197.0
1204.0
1211.0
1219.0
1224.0
1226.0
1227.0
1232.0
1235.0
1238.0
1239.0
1235.0
1239.0
1244.0
1244.0
1243.0
1236.0
1231.0
1229.0
1225.0
1221.0
1217.0
1207.0
1201.0
1190.0
1186.0
1179.0
1173.0
1163.0
1154.0
1146.0
1141.0
1127.0
1114.0
1101.0
1093.0
1084.0
1073.0
1063.0
1053.0
1042.0
1035.0
1020.0
1015.0
1012.0
1008.0
1003.0
992.0
981.0
973.0
970.0
966.0
963.0
959.0
954.0
954.0
952.0
949.0
944.0
940.0
937.0
940.0
943.0
946.0
940.0
935.0
930.0
929.0
931.0
932.0
931.0
932.0
929.0
930.0
927.0
929.0
929.0
930.0
925.0
926.0
927.0
929.0
928.0
923.0
924.0
924.0
926.0
925.0
926.0
924.0
924.0
926.0
929.0
931.0
928.0
926.0
923.0
927.0
929.0
934.0
935.0
934.0
931.0
933.0
933.0
931.0
930.0
932.0
934.0
936.0
940.0
939.0
939.0
936.0
932.0
935.0
934.0
934.0
933.0
935.0
937.0
939.0
940.0
937.0
939.0
936.0
932.0
931.0
930.0
934.0
935.0
931.0
931.0
932.0
935.0
938.0
940.0
936.0
933.0
937.0
938.0
940.0
940.0
941.0
938.0
935.0
935.0
936.0
939.0
941.0
936.0
938.0
943.0
944.0
945.0
941.0
940.0
939.0
940.0
936.0
939.0
940.0
939.0
940.0
944.0
944.0
944.0
944.0
946.0
947.0
948.0
947.0
946.0
944.0
946.0
952.0
960.0
962.0
962.0
964.0
968.0
974.0
981.0
988.0
997.0
1008.0
1023.0
1053.0
1113.0
1222.0
1349.0
1431.0
1443.0
1412.0
1385.0
1365.0
1356.0
1337.0
1314.0
1294.0
1276.0
1256.0
1235.0
1208.0
1181.0
1154.0
1126.0
1090.0
1050.0
1009.0
963.0
916.0
863.0
813.0
764.0
724.0
690.0
655.0
629.0
606.0
589.0
575.0
564.0
560.0
550.0
540.0
533.0
525.0
514.0
507.0
507.0
510.0
526.0
557.0
594.0
640.0
681.0
714.0
745.0
769.0
786.0
796.0
801.0
810.0
823.0
833.0
840.0
846.0
853.0
859.0
870.0
880.0
896.0
905.0
913.0
921.0
934.0
950.0
963.0
978.0
990.0
1003.0
1017.0
1028.0
1037.0
1044.0
1047.0
1049.0
1053.0
1062.0
1066.0
1070.0
1076.0
1079.0
1082.0
1084.0
1090.0
1095.0
1103.0
1110.0
1117.0
1125.0
1131.0
1141.0
1146.0
1154.0
1159.0
1167.0
1177.0
1187.0
1194.0
1200.0
1206.0
1213.0
1225.0
1236.0
1240.0
1243.0
1246.0
1256.0
1261.0
1265.0
1270.0
1271.0
1274.0
1276.0
1278.0
1284.0
1286.0
1282.0
1278.0
1275.0
1271.0
1264.0
1261.0
1254.0
1250.0
1245.0
1239.0
1232.0
1223.0
1213.0
1207.0
1197.0
1187.0
1182.0
1171.0
1160.0
1148.0
1135.0
1118.0
1115.0
1110.0
1105.0
1094.0
1078.0
1066.0
1059.0
1052.0
1046.0
1035.0
1026.0
1019.0
1015.0
1011.0
1006.0
999.0
990.0
987.0
986.0
988.0
986.0
977.0
971.0
967.0
966.0
969.0
972.0
973.0
971.0
964.0
958.0
960.0
964.0
970.0
967.0
960.0
955.0
960.0
962.0
963.0
960.0
958.0
963.0
965.0
965.0
958.0
961.0
963.0
964.0
962.0
957.0
954.0
957.0
959.0
966.0
968.0
966.0
962.0
962.0
960.0
961.0
962.0
963.0
965.0
965.0
964.0
965.0
966.0
964.0
962.0
959.0
963.0
969.0
968.0
965.0
961.0
961.0
964.0
965.0
966.0
963.0
961.0
958.0
958.0
961.0
962.0
961.0
958.0
958.0
957.0
963.0
966.0
963.0
958.0
957.0
958.0
959.0
961.0
960.0
962.0
962.0
964.0
968.0
968.0
970.0
973.0
973.0
974.0
980.0
986.0
993.0
995.0
993.0
995.0
1000.0
1005.0
1011.0
1019.0
1023.0
1024.0
1025.0
1028.0
1030.0
1029.0
1027.0
1025.0
1025.0
1027.0
1026.0
1023.0
1018.0
1018.0
1021.0
1021.0
1016.0
1008.0
1005.0
1000.0
999.0
995.0
988.0
982.0
976.0
973.0
973.0
972.0
968.0
965.0
961.0
958.0
960.0
958.0
959.0
964.0
968.0
981.0
1009.0
1056.0
1150.0
1277.0
1376.0
1405.0
1376.0
1341.0
1325.0
1315.0
1298.0
1276.0
1254.0
1238.0
1220.0
1200.0
1177.0
1154.0
1139.0
1126.0
1109.0
1085.0
1058.0
1027.0
992.0
945.0
892.0
844.0
809.0
777.0
742.0
710.0
682.0
646.0
618.0
605.0
600.0
604.0
600.0
588.0
569.0
553.0
541.0
536.0
532.0
528.0
522.0
525.0
542.0
565.0
591.0
617.0
644.0
681.0
720.0
747.0
764.0
774.0
781.0
794.0
809.0
826.0
838.0
846.0
850.0
855.0
866.0
884.0
901.0
912.0
917.0
923.0
933.0
948.0
959.0
976.0
993.0
1006.0
1019.0
1030.0
1040.0
1052.0
1064.0
1072.0
1080.0
1091.0
1096.0
1096.0
1095.0
1099.0
1105.0
1112.0
1115.0
1119.0
1124.0
1134.0
1139.0
1143.0
1147.0
1152.0
1160.0
1163.0
1170.0
