# Simple Text Format
# Sampling Rate (Hz):= 360.00
# Resolution:= 12
# Labels:= ECG
914.0
912.0
909.0
909.0
910.0
911.0
915.0
910.0
909.0
908.0
912.0
914.0
914.0
913.0
910.0
910.0
913.0
916.0
915.0
913.0
915.0
917.0
920.0
921.0
917.0
920.0
922.0
928.0
936.0
941.0
947.0
957.0
962.0
969.0
978.0
983.0
982.0
979.0
980.0
990.0
999.0
1001.0
996.0
990.0
982.0
980.0
979.0
979.0
982.0
984.0
987.0
994.0
1004.0
1038.0
1111.0
1215.0
1302.0
1326.0
1304.0
1273.0
1252.0
1238.0
1221.0
1204.0
1185.0
1164.0
1139.0
1116.0
1092.0
1071.0
1051.0
1030.0
1004.0
970.0
934.0
901.0
863.0
829.0
792.0
752.0
709.0
676.0
644.0
614.0
583.0
564.0
547.0
535.0
527.0
523.0
520.0
515.0
505.0
494.0
482.0
474.0
463.0
447.0
434.0
424.0
421.0
430.0
451.0
486.0
525.0
571.0
612.0
639.0
666.0
692.0
708.0
723.0
737.0
743.0
751.0
758.0
762.0
769.0
774.0
776.0
781.0
786.0
798.0
812.0
829.0
843.0
854.0
861.0
873.0
885.0
901.0
918.0
934.0
947.0
958.0
972.0
985.0
999.0
1008.0
1015.0
1017.0
1020.0
1027.0
1031.0
1037.0
1040.0
1040.0
1046.0
1053.0
1059.0
1065.0
1069.0
1070.0
1077.0
1084.0
1094.0
1099.0
1105.0
1106.0
1111.0
1118.0
1126.0
1131.0
1136.0
1139.0
1146.0
1151.0
1163.0
1171.0
1177.0
1180.0
1182.0
1192.0
1197.0
1204.0
1211.0
1213.0
1214.0
1219.0
1223.0
1226.0
1226.0
1229.0
1231.0
1232.0
1230.0
1230.0
1226.0
1222.0
1221.0
1221.0
1218.0
1213.0
1204.0
1198.0
1192.0
1186.0
1177.0
1172.0
1161.0
1154.0
1150.0
1146.0
1137.0
1125.0
1110.0
1098.0
1090.0
1087.0
1083.0
1072.0
1058.0
1049.0
1038.0
1032.0
1026.0
1018.0
1009.0
1000.0
992.0
986.0
981.0
977.0
969.0
961.0
959.0
954.0
950.0
946.0
941.0
937.0
934.0
931.0
926.0
924.0
921.0
921.0
924.0
924.0
922.0
921.0
914.0
915.0
913.0
916.0
920.0
923.0
919.0
917.0
913.0
912.0
913.0
915.0
912.0
908.0
910.0
911.0
913.0
909.0
908.0
906.0
910.0
911.0
910.0
908.0
906.0
903.0
900.0
903.0
907.0
909.0
906.0
906.0
903.0
906.0
912.0
912.0
909.0
908.0
911.0
910.0
914.0
913.0
913.0
912.0
912.0
917.0
915.0
920.0
918.0
916.0
919.0
924.0
934.0
935.0
945.0
953.0
963.0
968.0
976.0
976.0
974.0
972.0
976.0
982.0
982.0
980.0
972.0
964.0
961.0
959.0
957.0
956.0
953.0
951.0
950.0
949.0
947.0
946.0
947.0
942.0
935.0
928.0
921.0
913.0
907.0
904.0
904.0
899.0
900.0
893.0
890.0
881.0
879.0
879.0
878.0
877.0
874.0
869.0
865.0
866.0
866.0
865.0
861.0
861.0
861.0
862.0
862.0
862.0
858.0
859.0
860.0
863.0
866.0
862.0
863.0
863.0
866.0
871.0
878.0
882.0
886.0
896.0
922.0
978.0
1083.0
1208.0
1293.0
1295.0
1254.0
1214.0
1198.0
1186.0
1170.0
1149.0
1123.0
1107.0
1093.0
1077.0
1053.0
1027.0
1003.0
975.0
953.0
924.0
896.0
862.0
831.0
800.0
771.0
736.0
705.0
672.0
642.0
610.0
585.0
566.0
556.0
548.0
543.0
539.0
527.0
506.0
486.0
468.0
458.0
448.0
444.0
440.0
453.0
475.0
506.0
538.0
577.0
613.0
644.0
661.0
674.0
690.0
706.0
720.0
729.0
734.0
743.0
749.0
753.0
760.0
769.0
782.0
795.0
812.0
827.0
839.0
851.0
861.0
875.0
891.0
910.0
925.0
934.0
943.0
956.0
969.0
977.0
983.0
983.0
985.0
992.0
998.0
1002.0
1003.0
1006.0
1007.0
1014.0
1020.0
1028.0
1034.0
1041.0
1040.0
1047.0
1050.0
1058.0
1066.0
1072.0
1074.0
1078.0
1083.0
1090.0
1097.0
1102.0
1110.0
1117.0
1125.0
1130.0
1138.0
1143.0
1149.0
1156.0
1161.0
1159.0
1163.0
1163.0
1167.0
1173.0
1177.0
1175.0
1171.0
1167.0
1159.0
1154.0
1154.0
1149.0
1143.0
1140.0
1132.0
1126.0
1123.0
1118.0
1110.0
1099.0
1090.0
1084.0
1076.0
1073.0
1058.0
1046.0
1033.0
1024.0
1014.0
1008.0
999.0
992.0
981.0
972.0
964.0
954.0
949.0
939.0
928.0
922.0
920.0
919.0
913.0
910.0
903.0
901.0
897.0
893.0
893.0
890.0
887.0
888.0
885.0
879.0
880.0
881.0
882.0
884.0
888.0
894.0
897.0
898.0
902.0
911.0
920.0
928.0
936.0
938.0
940.0
943.0
946.0
950.0
953.0
953.0
950.0
946.0
941.0
935.0
930.0
928.0
924.0
926.0
929.0
930.0
927.0
926.0
921.0
920.0
918.0
916.0
912.0
906.0
902.0
897.0
894.0
889.0
884.0
879.0
874.0
870.0
868.0
867.0
863.0
861.0
858.0
858.0
858.0
856.0
851.0
849.0
848.0
846.0
849.0
855.0
852.0
850.0
849.0
846.0
850.0
849.0
848.0
846.0
845.0
846.0
846.0
846.0
844.0
842.0
841.0
842.0
845.0
849.0
847.0
844.0
844.0
844.0
842.0
842.0
842.0
842.0
841.0
843.0
846.0
845.0
846.0
844.0
842.0
844.0
848.0
847.0
850.0
848.0
848.0
851.0
853.0
855.0
850.0
847.0
846.0
850.0
850.0
853.0
852.0
852.0
852.0
855.0
857.0
859.0
864.0
865.0
861.0
864.0
867.0
870.0
870.0
873.0
877.0
883.0
898.0
920.0
971.0
1076.0
1203.0
1316.0
1330.0
1287.0
1243.0
1225.0
1214.0
1195.0
1178.0
1155.0
1135.0
1111.0
1090.0
1067.0
1043.0
1019.0
988.0
955.0
919.0
884.0
848.0
808.0
766.0
723.0
687.0
656.0
623.0
593.0
570.0
554.0
543.0
539.0
536.0
529.0
518.0
502.0
485.0
473.0
467.0
464.0
460.0
467.0
479.0
509.0
540.0
577.0
621.0
665.0
689.0
707.0
718.0
734.0
746.0
757.0
766.0
779.0
788.0
792.0
799.0
808.0
817.0
834.0
849.0
862.0
873.0
885.0
899.0
912.0
928.0
947.0
964.0
980.0
990.0
1004.0
1013.0
1018.0
1023.0
1025.0
1028.0
1035.0
1039.0
1044.0
1047.0
1050.0
1056.0
1059.0
1067.0
1074.0
1081.0
1084.0
1090.0
1097.0
1103.0
1109.0
1115.0
1121.0
1125.0
1133.0
1139.0
1147.0
1155.0
1162.0
1168.0
1172.0
1180.0
1186.0
1192.0
1198.0
1200.0
1204.0
1209.0
1215.0
1216.0
1217.0
1217.0
1221.0
1225.0
1226.0
1224.0
1222.0
1220.0
1220.0
1221.0
1219.0
1215.0
1212.0
1212.0
1215.0
1218.0
1220.0
1217.0
1212.0
1203.0
1200.0
1196.0
1195.0
1182.0
1171.0
1154.0
1138.0
1126.0
1117.0
1104.0
1091.0
1079.0
1073.0
1067.0
1057.0
1045.0
1033.0
1022.0
1013.0
1004.0
995.0
987.0
977.0
965.0
960.0
953.0
949.0
940.0
932.0
926.0
921.0
917.0
911.0
908.0
899.0
891.0
888.0
887.0
892.0
899.0
900.0
901.0
900.0
898.0
894.0
891.0
888.0
887.0
891.0
893.0
896.0
892.0
890.0
889.0
888.0
888.0
890.0
891.0
889.0
888.0
892.0
895.0
897.0
897.0
895.0
893.0
892.0
894.0
893.0
890.0
888.0
890.0
894.0
896.0
898.0
896.0
895.0
893.0
891.0
891.0
896.0
897.0
895.0
896.0
895.0
895.0
896.0
898.0
898.0
897.0
897.0
899.0
899.0
896.0
895.0
894.0
897.0
900.0
899.0
899.0
898.0
896.0
899.0
900.0
898.0
901.0
903.0
904.0
904.0
910.0
911.0
911.0
908.0
905.0
906.0
908.0
908.0
908.0
903.0
903.0
911.0
914.0
915.0
916.0
913.0
911.0
914.0
918.0
920.0
917.0
915.0
915.0
918.0
916.0
914.0
920.0
925.0
927.0
927.0
926.0
925.0
924.0
925.0
923.0
928.0
928.0
927.0
928.0
930.0
932.0
937.0
940.0
942.0
952.0
957.0
966.0
988.0
1044.0
1151.0
1278.0
1378.0
1386.0
1348.0
1322.0
1309.0
1297.0
1281.0
1252.0
1230.0
1212.0
1194.0
1175.0
1152.0
1123.0
1094.0
1062.0
1021.0
975.0
931.0
889.0
849.0
808.0
764.0
720.0
685.0
656.0
634.0
621.0
608.0
596.0
584.0
579.0
579.0
573.0
556.0
536.0
519.0
507.0
497.0
488.0
482.0
486.0
503.0
537.0
588.0
633.0
677.0
708.0
732.0
749.0
764.0
772.0
779.0
790.0
805.0
816.0
821.0
820.0
826.0
840.0
854.0
871.0
888.0
900.0
910.0
918.0
928.0
942.0
959.0
984.0
1006.0
1019.0
1025.0
1030.0
1038.0
1052.0
1061.0
1071.0
1076.0
1081.0
1091.0
1100.0
1105.0
1107.0
1115.0
1127.0
1146.0
1155.0
1159.0
1163.0
1172.0
1182.0
1193.0
1200.0
1201.0
1204.0
1209.0
1220.0
1227.0
1233.0
1232.0
1228.0
1231.0
1233.0
1243.0
1252.0
1259.0
1262.0
1267.0
1274.0
1278.0
1275.0
1274.0
1270.0
1272.0
1271.0
1267.0
1261.0
1255.0
1255.0
1252.0
1250.0
1251.0
1253.0
1247.0
1240.0
1235.0
1228.0
1222.0
1210.0
1197.0
1188.0
1187.0
1187.0
1182.0
1166.0
1146.0
1131.0
1129.0
1126.0
1124.0
1115.0
1101.0
1096.0
1090.0
1074.0
1050.0
1036.0
1031.0
1037.0
1038.0
1028.0
1018.0
1007.0
1000.0
995.0
982.0
967.0
964.0
972.0
980.0
982.0
970.0
958.0
955.0
951.0
946.0
940.0
942.0
946.0
955.0
949.0
944.0
935.0
930.0
926.0
932.0
932.0
933.0
933.0
933.0
931.0
931.0
930.0
925.0
926.0
936.0
939.0
940.0
930.0
922.0
926.0
933.0
941.0
947.0
946.0
942.0
935.0
933.0
935.0
943.0
944.0
939.0
935.0
931.0
936.0
939.0
944.0
945.0
945.0
945.0
946.0
951.0
955.0
960.0
955.0
949.0
942.0
950.0
956.0
960.0
955.0
952.0
953.0
951.0
951.0
946.0
942.0
943.0
940.0
942.0
945.0
948.0
947.0
950.0
956.0
961.0
961.0
953.0
950.0
952.0
955.0
955.0
953.0
953.0
951.0
950.0
949.0
950.0
953.0
958.0
960.0
955.0
952.0
952.0
953.0
954.0
956.0
955.0
953.0
958.0
962.0
965.0
962.0
958.0
951.0
955.0
957.0
960.0
961.0
961.0
962.0
962.0
964.0
964.0
960.0
961.0
958.0
960.0
964.0
963.0
961.0
960.0
962.0
963.0
965.0
966.0
969.0
970.0
970.0
976.0
983.0
985.0
985.0
987.0
996.0
1027.0
1096.0
1210.0
1333.0
1411.0
1419.0
1401.0
1377.0
1366.0
1355.0
1338.0
1315.0
1293.0
1273.0
1255.0
1233.0
1210.0
1181.0
1150.0
1119.0
1083.0
1045.0
999.0
953.0
907.0
862.0
812.0
762.0
716.0
676.0
644.0
618.0
599.0
578.0
567.0
564.0
567.0
568.0
558.0
540.0
522.0
508.0
499.0
492.0
484.0
483.0
497.0
530.0
582.0
637.0
691.0
738.0
779.0
812.0
835.0
853.0
871.0
888.0
904.0
917.0
925.0
928.0
931.0
930.0
932.0
934.0
945.0
965.0
981.0
993.0
998.0
1006.0
1018.0
1025.0
1037.0
1047.0
1052.0
1056.0
1067.0
1075.0
1086.0
1088.0
1086.0
1085.0
1089.0
1087.0
1088.0
1089.0
1090.0
1092.0
1092.0
1095.0
1098.0
1101.0
1103.0
1105.0
1111.0
1118.0
1128.0
1129.0
1133.0
1135.0
1141.0
1147.0
1154.0
1158.0
1164.0
1167.0
1175.0
1181.0
1185.0
1189.0
1192.0
1192.0
1200.0
1212.0
1220.0
1223.0
1221.0
1222.0
1228.0
1230.0
1236.0
1233.0
1234.0
1232.0
1232.0
1232.0
1232.0
1228.0
1223.0
1218.0
1216.0
1215.0
1210.0
1199.0
1190.0
1181.0
1179.0
1176.0
1166.0
1159.0
1147.0
1139.0
1131.0
1125.0
1114.0
1107.0
1097.0
1087.0
1079.0
1069.0
1059.0
1050.0
1045.0
1035.0
1031.0
1021.0
1014.0
1004.0
998.0
988.0
983.0
978.0
976.0
973.0
967.0
959.0
954.0
952.0
955.0
951.0
946.0
943.0
941.0
940.0
940.0
938.0
939.0
936.0
933.0
937.0
937.0
934.0
931.0
928.0
929.0
933.0
934.0
933.0
930.0
926.0
927.0
927.0
928.0
927.0
925.0
924.0
924.0
924.0
926.0
927.0
927.0
922.0
924.0
926.0
929.0
931.0
930.0
930.0
929.0
930.0
930.0
930.0
930.0
930.0
931.0
930.0
933.0
932.0
933.0
930.0
933.0
938.0
944.0
939.0
936.0
934.0
934.0
933.0
934.0
936.0
933.0
931.0
932.0
932.0
933.0
932.0
929.0
926.0
926.0
927.0
928.0
929.0
933.0
931.0
930.0
929.0
926.0
929.0
927.0
924.0
925.0
926.0
926.0
926.0
926.0
926.0
924.0
927.0
928.0
926.0
925.0
923.0
924.0
926.0
929.0
930.0
929.0
926.0
927.0
927.0
928.0
927.0
928.0
925.0
927.0
928.0
927.0
925.0
923.0
919.0
922.0
927.0
928.0
929.0
929.0
926.0
926.0
927.0
927.0
928.0
930.0
930.0
932.0
933.0
932.0
931.0
934.0
931.0
933.0
933.0
935.0
935.0
935.0
937.0
939.0
949.0
955.0
968.0
994.0
1051.0
1153.0
1267.0
1350.0
1371.0
1351.0
1328.0
1320.0
1316.0
1304.0
1289.0
1266.0
1251.0
1240.0
1231.0
1216.0
1193.0
1166.0
1136.0
1105.0
1074.0
1042.0
1008.0
972.0
930.0
886.0
843.0
799.0
754.0
710.0
672.0
638.0
608.0
586.0
570.0
552.0
540.0
534.0
528.0
517.0
501.0
486.0
473.0
464.0
459.0
451.0
440.0
432.0
433.0
449.0
475.0
508.0
544.0
581.0
611.0
642.0
671.0
694.0
712.0
727.0
736.0
750.0
766.0
781.0
790.0
795.0
793.0
797.0
805.0
818.0
829.0
839.0
854.0
871.0
881.0
892.0
904.0
916.0
929.0
949.0
962.0
978.0
988.0
995.0
1004.0
1015.0
1026.0
1033.0
1032.0
1035.0
1038.0
1043.0
1045.0
1049.0
1053.0
1055.0
1056.0
1059.0
1065.0
1072.0
1078.0
1082.0
1085.0
1088.0
1093.0
1099.0
1107.0
1107.0
1113.0
1121.0
1129.0
1136.0
1141.0
1146.0
1151.0
1156.0
1165.0
1176.0
1187.0
1195.0
1197.0
1204.0
1208.0
1211.0
1219.0
1221.0
1225.0
1232.0
1235.0
1236.0
1235.0
1233.0
1231.0
1233.0
1238.0
1238.0
1236.0
1230.0
1227.0
1224.0
1221.0
1220.0
1215.0
1204.0
1201.0
1196.0
1191.0
1183.0
1174.0
1166.0
1155.0
1149.0
1143.0
1137.0
1129.0
1120.0
1105.0
1095.0
1088.0
1077.0
1072.0
1061.0
1053.0
1046.0
1037.0
1030.0
1020.0
1007.0
1001.0
994.0
989.0
986.0
979.0
976.0
973.0
972.0
970.0
962.0
957.0
952.0
948.0
943.0
943.0
946.0
948.0
942.0
940.0
943.0
943.0
944.0
941.0
937.0
934.0
934.0
937.0
938.0
936.0
935.0
931.0
932.0
936.0
935.0
937.0
934.0
933.0
935.0
938.0
938.0
935.0
934.0
934.0
935.0
938.0
940.0
939.0
940.0
939.0
941.0
939.0
938.0
938.0
942.0
942.0
944.0
948.0
948.0
948.0
946.0
944.0
946.0
945.0
948.0
950.0
947.0
947.0
946.0
947.0
947.0
946.0
946.0
944.0
943.0
946.0
945.0
943.0
940.0
940.0
941.0
944.0
944.0
943.0
940.0
938.0
942.0
943.0
941.0
941.0
939.0
941.0
941.0
941.0
941.0
943.0
942.0
941.0
942.0
944.0
944.0
945.0
945.0
945.0
949.0
954.0
957.0
959.0
963.0
968.0
977.0
988.0
997.0
1002.0
1002.0
1003.0
1006.0
1010.0
1015.0
1018.0
1023.0
1024.0
1025.0
1024.0
1022.0
1014.0
1011.0
1007.0
1009.0
1011.0
1011.0
1009.0
1006.0
1003.0
1003.0
1004.0
1003.0
996.0
990.0
983.0
979.0
979.0
974.0
970.0
963.0
961.0
959.0
959.0
958.0
955.0
957.0
962.0
973.0
995.0
1048.0
1141.0
1255.0
1339.0
1363.0
1338.0
1307.0
1288.0
1276.0
1264.0
1251.0
1236.0
1218.0
1201.0
1183.0
1167.0
1155.0
1139.0
1123.0
1100.0
1076.0
1053.0
1029.0
1008.0
983.0
955.0
924.0
899.0
871.0
842.0
804.0
769.0
736.0
701.0
671.0
651.0
636.0
621.0
611.0
601.0
599.0
596.0
583.0
559.0
541.0
526.0
517.0
504.0
495.0
489.0
490.0
507.0
535.0
564.0
591.0
620.0
651.0
680.0
707.0
723.0
731.0
739.0
747.0
754.0
766.0
775.0
787.0
791.0
794.0
795.0
803.0
812.0
825.0
837.0
850.0
866.0
880.0
892.0
903.0
914.0
929.0
946.0
965.0
981.0
994.0
1005.0
1018.0
1028.0
1037.0
1046.0
1052.0
1052.0
1055.0
1058.0
1064.0
1073.0
1075.0
1080.0
1084.0
1086.0
1094.0
1098.0
1104.0
1105.0
1109.0
1114.0
1122.0
1127.0
1132.0
1136.0
1137.0
1141.0
1149.0
1157.0
1162.0
1170.0
1174.0
1176.0
1185.0
1193.0
1199.0
1201.0
1207.0
1212.0
1218.0
1223.0
1230.0
1232.0
1236.0
1238.0
1240.0
1246.0
1244.0
1246.0
1243.0
1243.0
1246.0
1247.0
1245.0
1240.0
1238.0
1233.0
1232.0
1229.0
1228.0
1220.0
1212.0
1205.0
1200.0
1197.0
1189.0
1181.0
1173.0
1165.0
1159.0
1151.0
1143.0
1135.0
1123.0
1113.0
1106.0
1099.0
1091.0
1078.0
1071.0
1063.0
1054.0
1046.0
1038.0
1030.0
1018.0
1014.0
1009.0
1004.0
1000.0
991.0
984.0
979.0
978.0
975.0
973.0
970.0
964.0
959.0
959.0
961.0
960.0
957.0
955.0
952.0
954.0
951.0
951.0
950.0
949.0
946.0
947.0
948.0
950.0
948.0
945.0
943.0
945.0
948.0
948.0
947.0
947.0
946.0
948.0
949.0
949.0
947.0
947.0
946.0
949.0
949.0
950.0
948.0
949.0
950.0
955.0
961.0
964.0
966.0
968.0
974.0
983.0
993.0
1001.0
1004.0
1008.0
1013.0
1017.0
1021.0
1025.0
1031.0
1032.0
1031.0
1030.0
1028.0
1022.0
1019.0
1015.0
1011.0
1013.0
1017.0
1013.0
1011.0
1008.0
1004.0
1003.0
1001.0
996.0
989.0
983.0
977.0
974.0
971.0
966.0
960.0
954.0
948.0
948.0
944.0
942.0
937.0
932.0
926.0
926.0
924.0
922.0
919.0
919.0
917.0
919.0
918.0
918.0
918.0
916.0
914.0
915.0
919.0
918.0
917.0
916.0
914.0
917.0
918.0
919.0
918.0
915.0
916.0
917.0
919.0
920.0
921.0
917.0
917.0
920.0
921.0
924.0
922.0
919.0
919.0
920.0
925.0
926.0
930.0
932.0
933.0
939.0
945.0
952.0
972.0
1016.0
1110.0
1237.0
1342.0
1363.0
1332.0
1294.0
1273.0
1262.0
1254.0
1237.0
1219.0
1202.0
1189.0
1178.0
1168.0
1157.0
1140.0
1120.0
1103.0
1085.0
1071.0
1051.0
1028.0
1001.0
974.0
949.0
919.0
896.0
868.0
833.0
799.0
771.0
748.0
728.0
716.0
701.0
692.0
682.0
670.0
652.0
626.0
604.0
590.0
580.0
567.0
554.0
549.0
555.0
576.0
599.0
623.0
647.0
676.0
699.0
716.0
733.0
745.0
764.0
775.0
783.0
791.0
802.0
811.0
818.0
819.0
821.0
826.0
835.0
848.0
862.0
874.0
884.0
894.0
908.0
924.0
940.0
957.0
971.0
983.0
998.0
1010.0
1023.0
1036.0
1043.0
1047.0
1051.0
1055.0
1057.0
1059.0
1063.0
1064.0
1069.0
1076.0
1079.0
1082.0
1084.0
1086.0
1090.0
1097.0
1102.0
1105.0
1108.0
1110.0
1119.0
1122.0
1128.0
1134.0
1136.0
1139.0
1148.0
1152.0
1158.0
1162.0
1167.0
1173.0
1177.0
1184.0
1188.0
1191.0
1195.0
1201.0
1208.0
1208.0
1213.0
1213.0
1216.0
1215.0
1219.0
1221.0
1221.0
1220.0
1218.0
1214.0
1215.0
1215.0
1214.0
1213.0
1208.0
1204.0
1201.0
1195.0
1192.0
1184.0
1177.0
1171.0
1164.0
1161.0
1154.0
1145.0
1138.0
1130.0
1125.0
1119.0
1113.0
1097.0
1087.0
1079.0
1074.0
1068.0
1059.0
1049.0
1041.0
1032.0
1025.0
1021.0
1016.0
1012.0
1004.0
1001.0
1001.0
999.0
1002.0
1004.0
1007.0
1013.0
1025.0
1034.0
1038.0
1038.0
1036.0
1037.0
1038.0
1041.0
1043.0
1038.0
1034.0
1026.0
1018.0
1014.0
1013.0
1009.0
1005.0
1004.0
1006.0
1004.0
1002.0
994.0
990.0
985.0
983.0
982.0
977.0
972.0
967.0
958.0
954.0
950.0
944.0
940.0
930.0
930.0
931.0
934.0
931.0
929.0
923.0
915.0
916.0
917.0
918.0
915.0
913.0
913.0
914.0
915.0
914.0
914.0
910.0
907.0
910.0
910.0
912.0
908.0
906.0
907.0
908.0
907.0
904.0
906.0
910.0
911.0
907.0
907.0
906.0
907.0
911.0
912.0
912.0
912.0
911.0
907.0
905.0
907.0
907.0
909.0
908.0
906.0
902.0
903.0
908.0
910.0
911.0
905.0
906.0
906.0
907.0
908.0
910.0
910.0
908.0
906.0
910.0
911.0
911.0
912.0
912.0
909.0
915.0
916.0
916.0
915.0
915.0
918.0
919.0
922.0
923.0
923.0
924.0
924.0
926.0
928.0
929.0
930.0
930.0
931.0
932.0
934.0
937.0
940.0
938.0
943.0
950.0
962.0
982.0
1031.0
1121.0
1247.0
1342.0
1368.0
1337.0
1301.0
1279.0
1266.0
1252.0
1236.0
1217.0
1199.0
1179.0
1159.0
1143.0
1122.0
1096.0
1068.0
1038.0
1006.0
978.0
947.0
911.0
875.0
838.0
802.0
767.0
735.0
701.0
667.0
638.0
612.0
601.0
595.0
587.0
574.0
557.0
540.0
530.0
520.0
508.0
496.0
487.0
490.0
509.0
539.0
573.0
607.0
646.0
681.0
711.0
732.0
747.0
761.0
776.0
788.0
802.0
811.0
817.0
819.0
820.0
823.0
835.0
849.0
863.0
873.0
885.0
894.0
908.0
921.0
935.0
953.0
966.0
981.0
997.0
1012.0
1023.0
1034.0
1045.0
1048.0
1053.0
1059.0
1061.0
1067.0
1071.0
1073.0
1076.0
1077.0
1080.0
1084.0
1089.0
1095.0
1097.0
1105.0
1112.0
1116.0
1117.0
1119.0
1128.0
1135.0
1140.0
1146.0
1149.0
1157.0
1163.0
1168.0
1170.0
1179.0
1183.0
1187.0
1192.0
1197.0
1205.0
1211.0
1216.0
1218.0
1227.0
1234.0
1242.0
1246.0
1249.0
1255.0
1263.0
1268.0
1267.0
1267.0
1267.0
1267.0
1269.0
1268.0
1264.0
1255.0
1242.0
1233.0
1229.0
1223.0
1216.0
1209.0
1200.0
1196.0
1186.0
1179.0
1170.0
1158.0
1143.0
1129.0
1119.0
1109.0
1095.0
1080.0
1062.0
1047.0
1035.0
1026.0
1015.0
1004.0
990.0
982.0
978.0
970.0
960.0
951.0
941.0
937.0
934.0
932.0
930.0
926.0
921.0
917.0
915.0
917.0
917.0
915.0
913.0
908.0
910.0
908.0
909.0
906.0
903.0
901.0
904.0
905.0
904.0
903.0
900.0
899.0
901.0
903.0
902.0
899.0
899.0
900.0
899.0
898.0
899.0
899.0
900.0
901.0
902.0
904.0
904.0
903.0
901.0
902.0
904.0
903.0
904.0
903.0
905.0
902.0
903.0
906.0
907.0
906.0
906.0
904.0
908.0
910.0
908.0
903.0
902.0
903.0
906.0
907.0
908.0
908.0
907.0
907.0
909.0
909.0
909.0
910.0
907.0
907.0
908.0
911.0
911.0
912.0
912.0
910.0
914.0
913.0
915.0
914.0
913.0
913.0
913.0
916.0
917.0
917.0
915.0
916.0
917.0
918.0
921.0
919.0
919.0
919.0
921.0
926.0
925.0
926.0
923.0
921.0
927.0
928.0
928.0
927.0
923.0
923.0
929.0
931.0
931.0
932.0
932.0
932.0
936.0
938.0
939.0
937.0
938.0
937.0
936.0
939.0
941.0
941.0
942.0
941.0
944.0
950.0
953.0
955.0
959.0
965.0
983.0
1019.0
1095.0
1208.0
1316.0
1367.0
1355.0
1320.0
1298.0
1283.0
1269.0
1252.0
1234.0
1218.0
1198.0
1181.0
1166.0
1147.0
1128.0
1110.0
1086.0
1060.0
1032.0
1004.0
975.0
943.0
903.0
857.0
809.0
767.0
729.0
700.0
675.0
655.0
634.0
622.0
612.0
606.0
597.0
579.0
562.0
551.0
542.0
531.0
519.0
510.0
511.0
528.0
565.0
605.0
645.0
678.0
705.0
732.0
756.0
773.0
790.0
798.0
807.0
814.0
824.0
831.0
834.0
833.0
835.0
841.0
854.0
866.0
880.0
890.0
898.0
910.0
925.0
941.0
960.0
982.0
1003.0
1022.0
1040.0
1057.0
1077.0
1093.0
1109.0
1118.0
1126.0
1135.0
1139.0
1146.0
1152.0
1161.0
1168.0
1169.0
1168.0
1163.0
1163.0
1165.0
1172.0
1179.0
1186.0
1189.0
1192.0
1191.0
1196.0
1202.0
1206.0
1206.0
1206.0
1205.0
1211.0
1215.0
1219.0
1217.0
1219.0
1220.0
1223.0
1229.0
1229.0
1231.0
1232.0
1234.0
1236.0
1243.0
1241.0
1241.0
1241.0
1240.0
1239.0
1242.0
1240.0
1238.0
1231.0
1229.0
1230.0
1227.0
1221.0
1214.0
1208.0
1200.0
1196.0
1194.0
1186.0
1178.0
1167.0
1159.0
1155.0
1146.0
1137.0
1129.0
1116.0
1106.0
1100.0
1091.0
1081.0
1070.0
1059.0
1050.0
1045.0
1037.0
1029.0
1018.0
1007.0
999.0
991.0
987.0
981.0
975.0
969.0
964.0
960.0
956.0
951.0
946.0
941.0
939.0
939.0
938.0
938.0
936.0
933.0
931.0
932.0
932.0
931.0
927.0
927.0
926.0
925.0
929.0
928.0
926.0
925.0
924.0
925.0
924.0
925.0
927.0
926.0
924.0
926.0
927.0
925.0
926.0
926.0
926.0
928.0
932.0
933.0
933.0
929.0
930.0
934.0
936.0
937.0
935.0
933.0
934.0
936.0
938.0
938.0
938.0
939.0
937.0
939.0
941.0
940.0
941.0
940.0
939.0
943.0
944.0
946.0
944.0
942.0
942.0
942.0
942.0
943.0
944.0
943.0
943.0
943.0
945.0
944.0
942.0
938.0
939.0
940.0
942.0
944.0
944.0
941.0
940.0
940.0
944.0
945.0
945.0
945.0
945.0
945.0
948.0
947.0
944.0
942.0
942.0
947.0
950.0
951.0
949.0
948.0
949.0
950.0
951.0
950.0
952.0
948.0
948.0
948.0
950.0
952.0
950.0
949.0
949.0
952.0
954.0
952.0
949.0
949.0
949.0
950.0
952.0
954.0
955.0
955.0
952.0
955.0
957.0
958.0
959.0
959.0
961.0
963.0
965.0
973.0
980.0
997.0
1040.0
1130.0
1253.0
1355.0
1381.0
1350.0
1311.0
1292.0
1285.0
1273.0
1252.0
1230.0
1208.0
1190.0
1172.0
1156.0
1131.0
1105.0
1077.0
1045.0
1016.0
985.0
951.0
916.0
875.0
833.0
791.0
752.0
717.0
686.0
662.0
650.0
640.0
639.0
637.0
631.0
619.0
603.0
589.0
580.0
570.0
555.0
547.0
550.0
568.0
606.0
648.0
694.0
731.0
763.0
791.0
812.0
827.0
842.0
851.0
860.0
871.0
876.0
878.0
874.0
868.0
867.0
869.0
872.0
881.0
889.0
897.0
907.0
916.0
928.0
936.0
946.0
961.0
976.0
993.0
1003.0
1013.0
1023.0
1032.0
1041.0
1048.0
1050.0
1053.0
1054.0
1060.0
1066.0
1073.0
1075.0
1079.0
1080.0
1082.0
1090.0
1097.0
1101.0
1105.0
1107.0
1110.0
1114.0
1120.0
1126.0
1133.0
1137.0
1142.0
1148.0
1157.0
1163.0
1171.0
1174.0
1179.0
1186.0
1190.0
1193.0
1195.0
1197.0
1200.0
1207.0
1214.0
1216.0
1219.0
1218.0
1218.0
1221.0
1223.0
1222.0
1221.0
1219.0
1218.0
1214.0
1216.0
1212.0
1210.0
1202.0
1196.0
1193.0
1191.0
1181.0
1176.0
1168.0
1161.0
1151.0
1142.0
1134.0
1123.0
1118.0
1110.0
1102.0
1092.0
1085.0
1073.0
1065.0
1053.0
1047.0
1041.0
1034.0
1025.0
1014.0
1007.0
1003.0
999.0
992.0
985.0
976.0
972.0
968.0
969.0
965.0
959.0
953.0
950.0
952.0
948.0
948.0
945.0
942.0
940.0
941.0
943.0
940.0
938.0
938.0
936.0
939.0
938.0
938.0
935.0
937.0
935.0
936.0
937.0
938.0
939.0
935.0
934.0
936.0
939.0
938.0
938.0
938.0
935.0
937.0
939.0
940.0
939.0
940.0
941.0
944.0
943.0
942.0
942.0
940.0
942.0
945.0
950.0
949.0
949.0
948.0
947.0
947.0
951.0
952.0
947.0
948.0
947.0
948.0
946.0
950.0
948.0
948.0
947.0
950.0
951.0
949.0
947.0
946.0
944.0
944.0
947.0
949.0
947.0
947.0
945.0
949.0
950.0
949.0
947.0
946.0
945.0
946.0
949.0
947.0
944.0
940.0
940.0
946.0
947.0
944.0
943.0
942.0
942.0
943.0
946.0
949.0
947.0
944.0
943.0
943.0
947.0
947.0
946.0
947.0
945.0
948.0
949.0
951.0
949.0
948.0
949.0
951.0
952.0
951.0
950.0
950.0
950.0
955.0
958.0
959.0
961.0
962.0
964.0
969.0
977.0
982.0
987.0
992.0
996.0
1005.0
1011.0
1017.0
1022.0
1032.0
1047.0
1075.0
1126.0
1211.0
1310.0
1381.0
1391.0
1366.0
1346.0
1331.0
1322.0
1305.0
1289.0
1273.0
1258.0
1242.0
1225.0
1207.0
1185.0
1166.0
1146.0
1121.0
1093.0
1065.0
1033.0
998.0
964.0
923.0
879.0
837.0
797.0
764.0
732.0
706.0
683.0
664.0
651.0
644.0
640.0
630.0
611.0
593.0
583.0
575.0
565.0
548.0
534.0
530.0
539.0
567.0
605.0
639.0
673.0
696.0
724.0
747.0
764.0
775.0
783.0
788.0
794.0
803.0
812.0
813.0
810.0
808.0
810.0
820.0
832.0
845.0
853.0
864.0
874.0
885.0
898.0
911.0
928.0
940.0
951.0
968.0
976.0
990.0
1003.0
1010.0
1014.0
1016.0
1020.0
1023.0
1028.0
1033.0
1036.0
1041.0
1046.0
1050.0
1051.0
1056.0
1062.0
1069.0
1075.0
1076.0
1083.0
1086.0
1093.0
1100.0
1107.0
1114.0
1120.0
1123.0
1131.0
1139.0
1149.0
1156.0
1162.0
1164.0
1172.0
1179.0
1186.0
1191.0
1195.0
1197.0
1204.0
1210.0
1212.0
1217.0
1218.0
1219.0
1217.0
1222.0
1225.0
1227.0
1224.0
1221.0
1215.0
1216.0
1216.0
1212.0
1209.0
1205.0
1195.0
1194.0
1190.0
1182.0
1174.0
1164.0
1157.0
1147.0
1143.0
1133.0
1123.0
1113.0
1105.0
1094.0
1091.0
1082.0
1074.0
1063.0
1050.0
1043.0
1036.0
1032.0
1022.0
1012.0
1004.0
998.0
994.0
991.0
987.0
981.0
977.0
974.0
974.0
968.0
965.0
963.0
960.0
958.0
959.0
958.0
955.0
957.0
957.0
956.0
954.0
954.0
953.0
952.0
951.0
954.0
957.0
956.0
952.0
951.0
950.0
952.0
952.0
951.0
