# Simple Text Format
# Sampling Rate (Hz):= 360.00
# Resolution:= 12
# Labels:= ECG
615.0
615.0
615.0
615.0
615.0
606.0
596.0
583.0
570.0
556.0
543.0
531.0
515.0
508.0
513.0
537.0
580.0
636.0
696.0
739.0
781.0
814.0
837.0
856.0
868.0
880.0
886.0
896.0
905.0
910.0
916.0
924.0
928.0
934.0
945.0
959.0
974.0
984.0
991.0
996.0
1001.0
1008.0
1017.0
1025.0
1033.0
1042.0
1052.0
1060.0
1071.0
1078.0
1084.0
1083.0
1084.0
1084.0
1088.0
1092.0
1093.0
1095.0
1099.0
1104.0
1110.0
1116.0
1119.0
1120.0
1123.0
1129.0
1136.0
1144.0
1151.0
1154.0
1160.0
1166.0
1175.0
1181.0
1186.0
1188.0
1192.0
1198.0
1208.0
1217.0
1220.0
1224.0
1230.0
1238.0
1243.0
1245.0
1244.0
1244.0
1247.0
1250.0
1253.0
1255.0
1254.0
1252.0
1250.0
1249.0
1250.0
1246.0
1241.0
1233.0
1227.0
1221.0
1215.0
1208.0
1200.0
1192.0
1181.0
1173.0
1168.0
1161.0
1151.0
1139.0
1127.0
1118.0
1109.0
1097.0
1085.0
1074.0
1062.0
1056.0
1052.0
1043.0
1034.0
1025.0
1014.0
1007.0
1002.0
998.0
994.0
986.0
979.0
977.0
978.0
974.0
972.0
968.0
961.0
963.0
962.0
960.0
955.0
951.0
949.0
950.0
952.0
951.0
948.0
949.0
946.0
946.0
949.0
947.0
946.0
942.0
945.0
944.0
948.0
948.0
949.0
946.0
945.0
943.0
948.0
949.0
948.0
946.0
941.0
942.0
947.0
946.0
945.0
946.0
947.0
950.0
952.0
954.0
954.0
955.0
954.0
958.0
959.0
958.0
957.0
956.0
954.0
955.0
954.0
957.0
956.0
957.0
953.0
957.0
961.0
960.0
957.0
951.0
949.0
952.0
956.0
959.0
957.0
956.0
952.0
948.0
950.0
952.0
953.0
949.0
949.0
952.0
953.0
954.0
954.0
951.0
951.0
953.0
955.0
953.0
954.0
950.0
951.0
954.0
954.0
954.0
951.0
952.0
951.0
953.0
955.0
955.0
955.0
952.0
952.0
957.0
956.0
956.0
955.0
952.0
950.0
953.0
956.0
956.0
954.0
951.0
951.0
953.0
956.0
959.0
959.0
957.0
952.0
957.0
962.0
964.0
964.0
967.0
968.0
975.0
981.0
986.0
992.0
999.0
1013.0
1041.0
1089.0
1185.0
1304.0
1384.0
1402.0
1387.0
1370.0
1357.0
1348.0
1332.0
1312.0
1290.0
1276.0
1257.0
1244.0
1225.0
1203.0
1182.0
1159.0
1130.0
1102.0
1066.0
1028.0
989.0
946.0
902.0
851.0
803.0
762.0
724.0
694.0
663.0
635.0
615.0
600.0
590.0
585.0
572.0
555.0
538.0
524.0
518.0
511.0
498.0
489.0
486.0
504.0
545.0
591.0
636.0
674.0
708.0
733.0
756.0
772.0
787.0
797.0
806.0
811.0
822.0
828.0
829.0
830.0
831.0
834.0
849.0
862.0
874.0
886.0
894.0
903.0
913.0
931.0
943.0
956.0
969.0
981.0
990.0
1005.0
1017.0
1024.0
1033.0
1034.0
1034.0
1039.0
1041.0
1045.0
1045.0
1048.0
1053.0
1061.0
1067.0
1071.0
1075.0
1077.0
1084.0
1091.0
1096.0
1097.0
1098.0
1104.0
1111.0
1122.0
1129.0
1136.0
1141.0
1144.0
1151.0
1161.0
1168.0
1174.0
1179.0
1186.0
1193.0
1200.0
1206.0
1212.0
1216.0
1214.0
1218.0
1223.0
1227.0
1226.0
1226.0
1226.0
1227.0
1231.0
1231.0
1226.0
1222.0
1217.0
1214.0
1215.0
1209.0
1199.0
1197.0
1190.0
1184.0
1182.0
1174.0
1168.0
1158.0
1148.0
1141.0
1132.0
1123.0
1114.0
1101.0
1088.0
1082.0
1074.0
1069.0
1059.0
1048.0
1037.0
1032.0
1026.0
1020.0
1013.0
1006.0
997.0
994.0
991.0
987.0
982.0
980.0
976.0
972.0
972.0
968.0
965.0
962.0
958.0
960.0
958.0
960.0
957.0
955.0
954.0
954.0
957.0
955.0
952.0
949.0
946.0
946.0
950.0
950.0
947.0
945.0
946.0
947.0
949.0
951.0
950.0
947.0
945.0
944.0
947.0
951.0
950.0
946.0
944.0
947.0
955.0
960.0
962.0
957.0
955.0
953.0
955.0
958.0
959.0
956.0
955.0
958.0
959.0
959.0
955.0
953.0
953.0
954.0
955.0
956.0
952.0
953.0
952.0
954.0
954.0
954.0
949.0
949.0
947.0
948.0
951.0
954.0
952.0
948.0
949.0
955.0
959.0
963.0
965.0
965.0
967.0
973.0
982.0
990.0
998.0
1000.0
1001.0
1005.0
1009.0
1012.0
1019.0
1021.0
1021.0
1020.0
1018.0
1014.0
1012.0
1008.0
1004.0
1008.0
1011.0
1009.0
1006.0
1002.0
1001.0
1002.0
1000.0
994.0
987.0
981.0
974.0
971.0
970.0
965.0
959.0
955.0
950.0
949.0
948.0
947.0
946.0
942.0
937.0
939.0
935.0
936.0
935.0
936.0
939.0
944.0
950.0
958.0
973.0
1009.0
1091.0
1214.0
1327.0
1372.0
1352.0
1318.0
1297.0
1288.0
1283.0
1266.0
1251.0
1231.0
1210.0
1199.0
1184.0
1168.0
1149.0
1124.0
1101.0
1082.0
1058.0
1035.0
1005.0
974.0
945.0
920.0
894.0
865.0
830.0
793.0
754.0
726.0
709.0
700.0
692.0
680.0
673.0
663.0
643.0
622.0
599.0
581.0
566.0
549.0
539.0
529.0
535.0
554.0
583.0
618.0
654.0
689.0
723.0
744.0
755.0
768.0
778.0
788.0
796.0
804.0
809.0
815.0
818.0
822.0
827.0
836.0
847.0
862.0
875.0
892.0
901.0
907.0
919.0
936.0
951.0
969.0
981.0
994.0
1003.0
1015.0
1027.0
1034.0
1037.0
1041.0
1044.0
1049.0
1054.0
1058.0
1059.0
1061.0
1065.0
1068.0
1075.0
1078.0
1081.0
1085.0
1086.0
1092.0
1097.0
1101.0
1107.0
1111.0
1113.0
1121.0
1127.0
1135.0
1137.0
1143.0
1146.0
1153.0
1159.0
1166.0
1170.0
1175.0
1179.0
1186.0
1190.0
1194.0
1198.0
1200.0
1205.0
1207.0
1211.0
1214.0
1212.0
1214.0
1212.0
1215.0
1216.0
1214.0
1213.0
1210.0
1209.0
1208.0
1206.0
1200.0
1197.0
1190.0
1185.0
1181.0
1178.0
1173.0
1167.0
1160.0
1154.0
1148.0
1143.0
1135.0
1129.0
1121.0
1108.0
1103.0
1097.0
1090.0
1082.0
1071.0
1063.0
1058.0
1055.0
1044.0
1036.0
1029.0
1019.0
1016.0
1009.0
1004.0
997.0
991.0
982.0
982.0
982.0
978.0
974.0
971.0
965.0
965.0
966.0
963.0
962.0
961.0
959.0
956.0
955.0
954.0
953.0
953.0
951.0
952.0
955.0
952.0
950.0
949.0
947.0
949.0
951.0
948.0
948.0
949.0
949.0
950.0
953.0
956.0
958.0
960.0
962.0
970.0
978.0
988.0
994.0
1000.0
1002.0
1007.0
1012.0
1014.0
1017.0
1019.0
1021.0
1025.0
1025.0
1019.0
1013.0
1007.0
1004.0
1004.0
1005.0
1008.0
1009.0
1007.0
1004.0
1009.0
1008.0
1005.0
1002.0
998.0
993.0
991.0
984.0
979.0
975.0
973.0
966.0
963.0
958.0
958.0
952.0
947.0
943.0
940.0
939.0
934.0
936.0
928.0
929.0
930.0
930.0
928.0
925.0
925.0
923.0
925.0
927.0
926.0
926.0
925.0
922.0
921.0
924.0
923.0
922.0
922.0
921.0
922.0
925.0
923.0
923.0
922.0
921.0
922.0
924.0
923.0
920.0
920.0
917.0
918.0
921.0
922.0
923.0
921.0
920.0
918.0
923.0
924.0
924.0
923.0
920.0
921.0
924.0
925.0
924.0
921.0
922.0
921.0
924.0
928.0
929.0
927.0
927.0
929.0
934.0
936.0
939.0
940.0
944.0
954.0
976.0
1022.0
1107.0
1218.0
1317.0
1356.0
1342.0
1318.0
1299.0
1287.0
1276.0
1261.0
1246.0
1227.0
1211.0
1192.0
1175.0
1163.0
1148.0
1127.0
1103.0
1077.0
1050.0
1024.0
998.0
966.0
928.0
886.0
844.0
806.0
768.0
732.0
696.0
658.0
626.0
608.0
598.0
590.0
587.0
581.0
574.0
563.0
548.0
530.0
517.0
507.0
498.0
491.0
494.0
506.0
527.0
556.0
578.0
614.0
649.0
684.0
715.0
737.0
748.0
765.0
779.0
795.0
803.0
812.0
821.0
831.0
837.0
841.0
843.0
847.0
857.0
874.0
889.0
900.0
910.0
918.0
930.0
943.0
957.0
970.0
980.0
992.0
1005.0
1019.0
1028.0
1042.0
1051.0
1055.0
1059.0
1064.0
1068.0
1071.0
1071.0
1073.0
1077.0
1085.0
1090.0
1094.0
1092.0
1095.0
1096.0
1102.0
1108.0
1109.0
1112.0
1112.0
1116.0
1122.0
1129.0
1131.0
1134.0
1138.0
1141.0
1144.0
1150.0
1154.0
1159.0
1165.0
1170.0
1177.0
1184.0
1185.0
1183.0
1187.0
1194.0
1200.0
1203.0
1203.0
1203.0
1201.0
1205.0
1208.0
1209.0
1209.0
1208.0
1210.0
1212.0
1215.0
1213.0
1210.0
1205.0
1202.0
1200.0
1200.0
1195.0
1191.0
1187.0
1182.0
1180.0
1175.0
1172.0
1166.0
1159.0
1154.0
1148.0
1147.0
1144.0
1135.0
1129.0
1123.0
1119.0
1115.0
1114.0
1111.0
1105.0
1104.0
1103.0
1105.0
1104.0
1101.0
1097.0
1089.0
1088.0
1087.0
1086.0
1084.0
1081.0
1071.0
1063.0
1056.0
1046.0
1040.0
1032.0
1026.0
1028.0
1028.0
1027.0
1022.0
1017.0
1014.0
1010.0
1007.0
1003.0
1000.0
994.0
988.0
982.0
978.0
974.0
966.0
960.0
952.0
950.0
944.0
941.0
937.0
932.0
930.0
931.0
928.0
926.0
921.0
917.0
914.0
915.0
916.0
915.0
914.0
915.0
912.0
913.0
914.0
913.0
912.0
911.0
907.0
910.0
914.0
911.0
913.0
909.0
910.0
910.0
913.0
914.0
913.0
914.0
912.0
912.0
915.0
914.0
914.0
911.0
914.0
913.0
916.0
911.0
909.0
905.0
901.0
900.0
903.0
908.0
907.0
907.0
905.0
904.0
906.0
903.0
904.0
907.0
908.0
909.0
909.0
906.0
905.0
901.0
907.0
911.0
915.0
913.0
912.0
910.0
909.0
912.0
910.0
907.0
906.0
906.0
906.0
908.0
910.0
914.0
917.0
916.0
914.0
917.0
921.0
921.0
919.0
915.0
911.0
912.0
914.0
921.0
922.0
922.0
918.0
921.0
921.0
924.0
925.0
925.0
926.0
926.0
928.0
929.0
930.0
930.0
931.0
931.0
933.0
932.0
934.0
937.0
936.0
939.0
943.0
944.0
948.0
959.0
981.0
1034.0
1132.0
1254.0
1343.0
1365.0
1338.0
1310.0
1296.0
1287.0
1274.0
1256.0
1235.0
1217.0
1201.0
1183.0
1167.0
1144.0
1118.0
1092.0
1067.0
1037.0
1005.0
971.0
937.0
901.0
860.0
819.0
776.0
739.0
704.0
675.0
644.0
623.0
607.0
596.0
590.0
586.0
578.0
565.0
545.0
530.0
514.0
506.0
496.0
488.0
487.0
502.0
532.0
571.0
610.0
650.0
687.0
715.0
732.0
747.0
761.0
778.0
790.0
800.0
811.0
824.0
833.0
836.0
837.0
837.0
841.0
855.0
869.0
884.0
893.0
903.0
914.0
925.0
937.0
949.0
960.0
976.0
991.0
1005.0
1015.0
1027.0
1036.0
1042.0
1048.0
1053.0
1059.0
1061.0
1063.0
1064.0
1070.0
1075.0
1081.0
1081.0
1084.0
1086.0
1092.0
1100.0
1106.0
1111.0
1116.0
1121.0
1127.0
1132.0
1140.0
1149.0
1155.0
1166.0
1177.0
1189.0
1203.0
1210.0
1220.0
1225.0
1232.0
1240.0
1245.0
1253.0
1258.0
1263.0
1263.0
1263.0
1263.0
1263.0
1264.0
1264.0
1266.0
1264.0
1268.0
1269.0
1266.0
1261.0
1259.0
1259.0
1256.0
1249.0
1240.0
1233.0
1225.0
1219.0
1213.0
1203.0
1194.0
1183.0
1173.0
1164.0
1157.0
1151.0
1138.0
1130.0
1119.0
1110.0
1100.0
1089.0
1079.0
1069.0
1060.0
1052.0
1045.0
1033.0
1023.0
1010.0
1002.0
996.0
992.0
985.0
975.0
968.0
960.0
955.0
950.0
944.0
937.0
933.0
929.0
928.0
926.0
923.0
917.0
915.0
911.0
910.0
910.0
908.0
905.0
900.0
896.0
898.0
897.0
898.0
896.0
891.0
893.0
892.0
894.0
892.0
891.0
888.0
886.0
889.0
889.0
889.0
886.0
886.0
886.0
889.0
888.0
886.0
886.0
883.0
886.0
889.0
891.0
891.0
892.0
889.0
889.0
890.0
892.0
895.0
892.0
890.0
890.0
893.0
895.0
896.0
896.0
895.0
895.0
896.0
900.0
900.0
899.0
902.0
899.0
903.0
903.0
902.0
902.0
901.0
901.0
903.0
905.0
904.0
905.0
904.0
903.0
907.0
910.0
910.0
907.0
904.0
902.0
903.0
905.0
905.0
903.0
904.0
902.0
906.0
907.0
908.0
907.0
905.0
904.0
905.0
907.0
907.0
906.0
906.0
908.0
909.0
911.0
911.0
908.0
908.0
908.0
910.0
911.0
912.0
909.0
907.0
906.0
913.0
913.0
911.0
912.0
913.0
914.0
917.0
918.0
916.0
914.0
915.0
911.0
913.0
916.0
916.0
916.0
918.0
917.0
917.0
920.0
922.0
922.0
921.0
920.0
927.0
930.0
931.0
935.0
935.0
940.0
954.0
986.0
1055.0
1167.0
1284.0
1343.0
1334.0
1298.0
1276.0
1261.0
1249.0
1229.0
1209.0
1186.0
1165.0
1143.0
1119.0
1094.0
1073.0
1045.0
1010.0
972.0
934.0
896.0
857.0
818.0
768.0
722.0
681.0
645.0
611.0
585.0
565.0
545.0
532.0
527.0
522.0
516.0
501.0
486.0
472.0
460.0
449.0
442.0
435.0
436.0
455.0
491.0
536.0
584.0
629.0
670.0
699.0
717.0
739.0
758.0
780.0
803.0
821.0
839.0
855.0
868.0
878.0
889.0
898.0
914.0
935.0
953.0
961.0
965.0
972.0
980.0
994.0
1008.0
1023.0
1038.0
1045.0
1056.0
1068.0
1078.0
1082.0
1086.0
1082.0
1079.0
1080.0
1078.0
1077.0
1075.0
1072.0
1073.0
1075.0
1078.0
1078.0
1079.0
1075.0
1078.0
1085.0
1088.0
1089.0
1088.0
1092.0
1095.0
1102.0
1107.0
1114.0
1120.0
1124.0
1127.0
1134.0
1142.0
1147.0
1152.0
1157.0
1161.0
1167.0
1173.0
1176.0
1178.0
1179.0
1181.0
1185.0
1189.0
1190.0
1187.0
1186.0
1186.0
1188.0
1189.0
1184.0
1179.0
1175.0
1171.0
1164.0
1159.0
1155.0
1147.0
1143.0
1132.0
1129.0
1119.0
1110.0
1099.0
1091.0
1080.0
1072.0
1064.0
1055.0
1044.0
1033.0
1024.0
1017.0
1011.0
999.0
989.0
977.0
969.0
963.0
957.0
949.0
941.0
931.0
926.0
926.0
924.0
916.0
910.0
905.0
901.0
900.0
900.0
898.0
896.0
893.0
891.0
891.0
891.0
888.0
886.0
883.0
882.0
886.0
886.0
885.0
885.0
882.0
883.0
883.0
888.0
882.0
879.0
880.0
878.0
882.0
882.0
883.0
883.0
885.0
883.0
887.0
889.0
888.0
886.0
884.0
885.0
888.0
890.0
888.0
889.0
890.0
889.0
892.0
895.0
894.0
893.0
891.0
893.0
896.0
901.0
898.0
896.0
893.0
894.0
895.0
900.0
900.0
902.0
898.0
895.0
897.0
898.0
899.0
898.0
896.0
896.0
899.0
899.0
897.0
897.0
896.0
895.0
897.0
899.0
897.0
898.0
898.0
897.0
899.0
897.0
897.0
895.0
894.0
896.0
899.0
902.0
902.0
901.0
899.0
898.0
898.0
899.0
903.0
902.0
901.0
898.0
903.0
904.0
904.0
902.0
900.0
898.0
901.0
908.0
906.0
904.0
902.0
902.0
904.0
903.0
905.0
903.0
904.0
903.0
909.0
909.0
907.0
907.0
907.0
908.0
911.0
913.0
912.0
910.0
909.0
909.0
912.0
916.0
919.0
923.0
927.0
930.0
939.0
961.0
1009.0
1106.0
1229.0
1313.0
1316.0
1280.0
1247.0
1239.0
1231.0
1224.0
1210.0
1193.0
1173.0
1152.0
1132.0
1113.0
1099.0
1081.0
1051.0
1016.0
978.0
934.0
893.0
852.0
803.0
750.0
703.0
662.0
628.0
598.0
573.0
560.0
546.0
536.0
534.0
524.0
502.0
482.0
466.0
451.0
442.0
435.0
432.0
434.0
450.0
485.0
526.0
563.0
597.0
628.0
654.0
677.0
699.0
721.0
739.0
753.0
766.0
780.0
788.0
795.0
797.0
801.0
807.0
814.0
833.0
846.0
862.0
873.0
884.0
896.0
916.0
934.0
948.0
957.0
968.0
978.0
990.0
1006.0
1015.0
1020.0
1022.0
1026.0
1030.0
1037.0
1039.0
1043.0
1046.0
1049.0
1056.0
1059.0
1063.0
1065.0
1069.0
1072.0
1077.0
1082.0
1089.0
1095.0
1102.0
1107.0
1117.0
1119.0
1126.0
1131.0
1138.0
1144.0
1153.0
1163.0
1168.0
1174.0
1178.0
1184.0
1197.0
1203.0
1207.0
1212.0
1212.0
1217.0
1222.0
1226.0
1228.0
1228.0
1226.0
1227.0
1229.0
1231.0
1228.0
1224.0
1219.0
1213.0
1207.0
1202.0
1195.0
1190.0
1181.0
1174.0
1169.0
1160.0
1151.0
1142.0
1133.0
1121.0
1115.0
1108.0
1099.0
1088.0
1078.0
1066.0
1058.0
1053.0
1042.0
1033.0
1023.0
1014.0
1008.0
1001.0
991.0
980.0
969.0
964.0
960.0
956.0
954.0
950.0
947.0
940.0
936.0
939.0
940.0
943.0
941.0
935.0
931.0
933.0
931.0
927.0
925.0
923.0
925.0
926.0
919.0
918.0
915.0
915.0
921.0
927.0
926.0
924.0
923.0
922.0
924.0
923.0
916.0
914.0
920.0
925.0
925.0
922.0
923.0
927.0
926.0
925.0
926.0
928.0
928.0
925.0
923.0
923.0
926.0
928.0
927.0
928.0
926.0
929.0
931.0
933.0
933.0
931.0
926.0
926.0
925.0
934.0
935.0
936.0
933.0
930.0
930.0
927.0
928.0
926.0
925.0
927.0
929.0
930.0
927.0
925.0
924.0
923.0
926.0
927.0
926.0
925.0
925.0
925.0
926.0
927.0
925.0
923.0
920.0
922.0
924.0
929.0
927.0
933.0
932.0
937.0
942.0
945.0
950.0
961.0
970.0
975.0
983.0
987.0
986.0
985.0
987.0
990.0
998.0
1008.0
1006.0
1002.0
997.0
992.0
991.0
990.0
989.0
988.0
985.0
986.0
985.0
981.0
978.0
978.0
973.0
968.0
965.0
962.0
958.0
951.0
945.0
941.0
939.0
939.0
937.0
938.0
938.0
944.0
969.0
1028.0
1132.0
1259.0
1333.0
1316.0
1266.0
1233.0
1220.0
1205.0
1184.0
1163.0
1142.0
1121.0
1094.0
1071.0
1049.0
1027.0
999.0
968.0
933.0
905.0
877.0
848.0
821.0
792.0
753.0
708.0
665.0
629.0
597.0
573.0
564.0
556.0
549.0
545.0
540.0
530.0
511.0
494.0
479.0
470.0
461.0
453.0
449.0
457.0
477.0
516.0
560.0
601.0
640.0
673.0
696.0
711.0
729.0
744.0
753.0
762.0
771.0
776.0
783.0
793.0
804.0
813.0
824.0
842.0
862.0
873.0
878.0
884.0
905.0
934.0
964.0
979.0
983.0
989.0
999.0
1013.0
1024.0
1028.0
1034.0
1037.0
1040.0
1043.0
1048.0
1057.0
1064.0
1070.0
1075.0
1083.0
1089.0
1096.0
1098.0
1103.0
1106.0
1111.0
1118.0
1127.0
1133.0
1134.0
1142.0
1147.0
1153.0
1164.0
1172.0
1179.0
1186.0
1189.0
1196.0
1204.0
1208.0
1212.0
1215.0
1218.0
1224.0
1229.0
1227.0
1230.0
1228.0
1227.0
1228.0
1230.0
1227.0
1225.0
1223.0
1219.0
1214.0
1213.0
1206.0
1199.0
1191.0
1184.0
1180.0
1174.0
1164.0
1156.0
1144.0
1136.0
1130.0
1123.0
1113.0
1103.0
1095.0
1083.0
1076.0
1069.0
1059.0
1048.0
1036.0
1026.0
1020.0
1013.0
1005.0
996.0
987.0
979.0
973.0
970.0
965.0
959.0
953.0
949.0
947.0
943.0
941.0
936.0
932.0
928.0
933.0
932.0
930.0
928.0
926.0
924.0
925.0
925.0
926.0
922.0
920.0
919.0
919.0
921.0
921.0
918.0
919.0
916.0
918.0
919.0
918.0
919.0
917.0
915.0
916.0
919.0
919.0
916.0
917.0
917.0
922.0
924.0
925.0
922.0
923.0
926.0
932.0
937.0
945.0
951.0
959.0
971.0
976.0
984.0
988.0
989.0
988.0
990.0
998.0
1004.0
1005.0
1002.0
995.0
988.0
987.0
986.0
986.0
983.0
979.0
980.0
979.0
978.0
974.0
971.0
968.0
961.0
955.0
954.0
946.0
940.0
932.0
927.0
923.0
921.0
917.0
914.0
908.0
904.0
902.0
903.0
901.0
894.0
889.0
888.0
888.0
893.0
892.0
891.0
893.0
894.0
895.0
896.0
894.0
890.0
890.0
884.0
886.0
889.0
890.0
889.0
887.0
886.0
887.0
886.0
886.0
884.0
884.0
886.0
888.0
891.0
889.0
886.0
887.0
887.0
888.0
892.0
891.0
890.0
888.0
886.0
890.0
896.0
895.0
897.0
898.0
902.0
908.0
918.0
938.0
979.0
1070.0
1197.0
1306.0
1319.0
1277.0
1240.0
1220.0
1208.0
1200.0
1182.0
1160.0
1142.0
1123.0
1108.0
1093.0
1074.0
1053.0
1028.0
1006.0
978.0
955.0
932.0
904.0
869.0
836.0
801.0
769.0
734.0
702.0
660.0
623.0
596.0
581.0
575.0
570.0
564.0
554.0
544.0
530.0
514.0
499.0
486.0
474.0
465.0
464.0
477.0
499.0
528.0
562.0
598.0
639.0
679.0
702.0
720.0
728.0
744.0
761.0
775.0
787.0
797.0
802.0
809.0
812.0
817.0
824.0
835.0
846.0
859.0
874.0
887.0
902.0
912.0
925.0
942.0
960.0
972.0
985.0
996.0
1002.0
1016.0
1025.0
1032.0
1036.0
1038.0
1040.0
1044.0
1052.0
1057.0
1063.0
1062.0
1064.0
1067.0
1073.0
1080.0
1085.0
1086.0
1089.0
1095.0
1102.0
1112.0
1115.0
1119.0
1122.0
1127.0
1135.0
1143.0
1147.0
1151.0
1157.0
1161.0
1167.0
1175.0
1179.0
1183.0
1186.0
1188.0
1195.0
1199.0
1201.0
1200.0
1203.0
1205.0
1207.0
1208.0
1209.0
1206.0
1204.0
1200.0
1200.0
1198.0
1192.0
1187.0
1182.0
1178.0
1173.0
1170.0
1164.0
1156.0
1145.0
1137.0
1133.0
1126.0
1118.0
1108.0
1097.0
1089.0
1081.0
1073.0
1066.0
1055.0
1043.0
1035.0
1029.0
1024.0
1015.0
1006.0
1002.0
998.0
994.0
994.0
988.0
986.0
983.0
986.0
992.0
999.0
1005.0
1008.0
1010.0
1007.0
1009.0
1013.0
1014.0
1010.0
1009.0
1003.0
994.0
993.0
983.0
979.0
974.0
976.0
975.0
980.0
977.0
970.0
966.0
961.0
961.0
959.0
952.0
945.0
939.0
932.0
928.0
923.0
917.0
912.0
905.0
903.0
901.0
902.0
899.0
892.0
890.0
886.0
887.0
887.0
885.0
883.0
881.0
882.0
882.0
885.0
885.0
883.0
880.0
880.0
885.0
883.0
881.0
881.0
880.0
879.0
880.0
880.0
879.0
876.0
873.0
873.0
876.0
876.0
876.0
875.0
873.0
873.0
874.0
875.0
873.0
872.0
869.0
870.0
871.0
874.0
875.0
872.0
868.0
871.0
870.0
874.0
873.0
871.0
871.0
871.0
873.0
872.0
871.0
869.0
870.0
870.0
872.0
873.0
875.0
875.0
873.0
875.0
877.0
879.0
879.0
877.0
874.0
876.0
878.0
880.0
881.0
880.0
880.0
880.0
883.0
885.0
885.0
882.0
881.0
881.0
882.0
885.0
887.0
887.0
886.0
888.0
890.0
892.0
892.0
890.0
891.0
895.0
898.0
900.0
899.0
899.0
898.0
903.0
911.0
921.0
940.0
970.0
1042.0
1158.0
1268.0
1322.0
1304.0
1269.0
1245.0
1232.0
1226.0
1210.0
1191.0
1170.0
1147.0
1126.0
1111.0
1093.0
1070.0
1045.0
1019.0
993.0
963.0
937.0
905.0
870.0
832.0
796.0
763.0
728.0
694.0
655.0
622.0
591.0
566.0
555.0
546.0
537.0
527.0
520.0
513.0
505.0
490.0
479.0
468.0
457.0
451.0
448.0
447.0
456.0
476.0
504.0
540.0
574.0
609.0
645.0
675.0
696.0
713.0
729.0
746.0
760.0
775.0
790.0
803.0
808.0
812.0
814.0
818.0
828.0
844.0
858.0
865.0
872.0
880.0
894.0
907.0
922.0
937.0
951.0
963.0
976.0
987.0
1001.0
1014.0
1021.0
1030.0
1033.0
1038.0
1042.0
1045.0
1047.0
1047.0
1050.0
1054.0
1061.0
1063.0
1064.0
1068.0
1072.0
1078.0
1084.0
1088.0
1092.0
1095.0
1100.0
1103.0
1112.0
1119.0
1122.0
1128.0
1132.0
1138.0
1145.0
1154.0
1160.0
1165.0
1174.0
1182.0
1190.0
1203.0
1213.0
1221.0
1232.0
1242.0
1253.0
1258.0
1259.0
1262.0
1262.0
1264.0
1270.0
1275.0
1275.0
1270.0
1262.0
1258.0
1252.0
1247.0
1238.0
1231.0
1227.0
1222.0
1216.0
1209.0
1199.0
1186.0
1176.0
1167.0
1157.0
1146.0
1133.0
1118.0
1107.0
1096.0
1084.0
1069.0
1054.0
1041.0
1028.0
1017.0
1009.0
998.0
985.0
972.0
962.0
956.0
948.0
941.0
932.0
927.0
922.0
918.0
917.0
912.0
911.0
905.0
901.0
898.0
895.0
889.0
888.0
882.0
884.0
886.0
885.0
881.0
881.0
879.0
878.0
876.0
877.0
876.0
876.0
873.0
874.0
873.0
876.0
872.0
867.0
864.0
865.0
868.0
869.0
871.0
870.0
868.0
872.0
873.0
872.0
871.0
868.0
865.0
866.0
867.0
869.0
872.0
868.0
868.0
870.0
869.0
874.0
875.0
875.0
873.0
873.0
875.0
876.0
876.0
876.0
876.0
877.0
877.0
876.0
874.0
871.0
870.0
872.0
876.0
876.0
879.0
875.0
875.0
875.0
878.0
880.0
883.0
878.0
877.0
876.0
879.0
879.0
883.0
884.0
882.0
881.0
885.0
885.0
886.0
882.0
881.0
882.0
884.0
885.0
886.0
887.0
887.0
887.0
888.0
890.0
888.0
887.0
888.0
887.0
886.0
886.0
889.0
890.0
891.0
889.0
890.0
897.0
896.0
893.0
891.0
895.0
898.0
898.0
900.0
898.0
896.0
893.0
894.0
896.0
898.0
898.0
895.0
896.0
898.0
901.0
902.0
902.0
897.0
900.0
904.0
906.0
907.0
908.0
908.0
913.0
919.0
929.0
942.0
970.0
1032.0
1142.0
1253.0
1307.0
1296.0
1260.0
1233.0
1223.0
1212.0
1196.0
1178.0
1157.0
1135.0
1114.0
1092.0
1071.0
1048.0
1027.0
999.0
968.0
939.0
906.0
867.0
826.0
783.0
740.0
700.0
659.0
614.0
579.0
547.0
523.0
504.0
490.0
480.0
473.0
465.0
463.0
458.0
447.0
436.0
423.0
412.0
409.0
405.0
403.0
407.0
421.0
449.0
491.0
536.0
579.0
621.0
654.0
679.0
698.0
714.0
731.0
748.0
759.0
772.0
790.0
803.0
813.0
819.0
828.0
836.0
849.0
867.0
887.0
903.0
917.0
930.0
948.0
968.0
984.0
1005.0
1021.0
1037.0
1055.0
1069.0
1084.0
1101.0
1116.0
1130.0
1137.0
1137.0
1139.0
1133.0
1133.0
1130.0
1135.0
1142.0
1148.0
1154.0
1155.0
1152.0
1154.0
1157.0
1163.0
1160.0
1158.0
1159.0
1160.0
1165.0
1168.0
1170.0
1169.0
1169.0
1175.0
1180.0
1183.0
1186.0
1187.0
1187.0
1186.0
1195.0
1199.0
1207.0
1211.0
1212.0
1216.0
1221.0
1226.0
1230.0
1230.0
1229.0
1233.0
1235.0
1236.0
1236.0
1231.0
1227.0
1227.0
1225.0
1222.0
1215.0
1208.0
1201.0
1198.0
1197.0
1193.0
1187.0
1178.0
1167.0
1158.0
1153.0
1144.0
1135.0
1123.0
1113.0
1107.0
1098.0
1090.0
1081.0
1069.0
1056.0
1049.0
1042.0
1032.0
1022.0
1012.0
1001.0
993.0
985.0
981.0
968.0
963.0
953.0
952.0
943.0
936.0
926.0
919.0
912.0
910.0
913.0
913.0
909.0
901.0
899.0
898.0
898.0
897.0
894.0
892.0
891.0
890.0
891.0
892.0
888.0
884.0
882.0
882.0
886.0
887.0
888.0
886.0
886.0
888.0
891.0
892.0
890.0
888.0
882.0
880.0
883.0
884.0
882.0
882.0
882.0
887.0
890.0
891.0
892.0
889.0
886.0
889.0
893.0
895.0
897.0
894.0
893.0
894.0
896.0
901.0
901.0
902.0
898.0
896.0
896.0
897.0
899.0
899.0
899.0
898.0
899.0
901.0
897.0
896.0
892.0
894.0
899.0
899.0
899.0
896.0
894.0
894.0
897.0
900.0
899.0
896.0
894.0
896.0
898.0
898.0
896.0
895.0
896.0
896.0
900.0
904.0
903.0
902.0
900.0
899.0
900.0
900.0
900.0
901.0
898.0
897.0
902.0
905.0
907.0
906.0
905.0
904.0
902.0
901.0
902.0
903.0
904.0
906.0
905.0
905.0
903.0
900.0
902.0
905.0
908.0
909.0
910.0
908.0
906.0
907.0
909.0
912.0
910.0
908.0
907.0
908.0
909.0
911.0
912.0
911.0
911.0
918.0
921.0
926.0
931.0
935.0
950.0
984.0
1052.0
1162.0
1271.0
1322.0
1302.0
1265.0
1238.0
1230.0
1219.0
1203.0
1182.0
1161.0
1142.0
1125.0
1108.0
1087.0
1062.0
1036.0
1005.0
978.0
947.0
916.0
882.0
844.0
809.0
775.0
741.0
707.0
674.0
638.0
613.0
593.0
586.0
580.0
575.0
567.0
559.0
540.0
519.0
501.0
485.0
473.0
461.0
451.0
456.0
470.0
501.0
543.0
591.0
633.0
668.0
699.0
714.0
729.0
740.0
753.0
767.0
774.0
777.0
785.0
791.0
793.0
796.0
797.0
802.0
811.0
822.0
830.0
838.0
847.0
863.0
884.0
900.0
916.0
928.0
939.0
946.0
956.0
965.0
978.0
989.0
999.0
1003.0
1007.0
1010.0
1015.0
1018.0
1022.0
1024.0
1028.0
1033.0
1041.0
1045.0
1044.0
1046.0
1046.0
1050.0
1055.0
1059.0
1062.0
1066.0
1072.0
1078.0
1084.0
1086.0
1090.0
1093.0
1100.0
1108.0
1114.0
1119.0
1122.0
1128.0
1135.0
1144.0
1153.0
1158.0
1160.0
1164.0
1169.0
1172.0
1180.0
1180.0
1183.0
1182.0
1184.0
1189.0
1191.0
1192.0
1192.0
1190.0
1194.0
1192.0
1190.0
1188.0
1183.0
1178.0
1173.0
1174.0
1170.0
1166.0
1159.0
1153.0
1145.0
1140.0
1131.0
1119.0
1115.0
1105.0
1095.0
1087.0
1083.0
1075.0
1067.0
1055.0
1048.0
1039.0
1033.0
1023.0
1017.0
1002.0
995.0
992.0
986.0
979.0
969.0
963.0
959.0
957.0
951.0
950.0
944.0
938.0
934.0
935.0
933.0
930.0
926.0
922.0
921.0
920.0
920.0
920.0
921.0
918.0
915.0
918.0
917.0
917.0
916.0
911.0
911.0
912.0
910.0
910.0
907.0
905.0
907.0
911.0
913.0
913.0
907.0
907.0
907.0
908.0
908.0
909.0
907.0
907.0
910.0
914.0
917.0
918.0
916.0
912.0
912.0
916.0
920.0
919.0
918.0
914.0
915.0
917.0
918.0
918.0
918.0
918.0
920.0
919.0
920.0
919.0
918.0
918.0
918.0
921.0
924.0
922.0
919.0
913.0
914.0
916.0
918.0
917.0
913.0
913.0
912.0
912.0
918.0
918.0
915.0
910.0
913.0
915.0
914.0
916.0
912.0
908.0
908.0
911.0
913.0
