# Simple Text Format
# Sampling Rate (Hz):= 360.00
# Resolution:= 12
# Labels:= ECG
1041.0
1058.0
1067.0
1067.0
1065.0
1067.0
1075.0
1080.0
1079.0
1082.0
1084.0
1085.0
1093.0
1095.0
1097.0
1102.0
1109.0
1115.0
1125.0
1132.0
1137.0
1140.0
1143.0
1145.0
1147.0
1154.0
1166.0
1180.0
1188.0
1192.0
1195.0
1196.0
1197.0
1202.0
1205.0
1214.0
1225.0
1232.0
1238.0
1245.0
1250.0
1253.0
1256.0
1260.0
1264.0
1268.0
1272.0
1278.0
1285.0
1290.0
1291.0
1291.0
1290.0
1292.0
1293.0
1292.0
1287.0
1281.0
1276.0
1267.0
1264.0
1262.0
1257.0
1253.0
1250.0
1244.0
1241.0
1240.0
1229.0
1217.0
1206.0
1195.0
1189.0
1187.0
1182.0
1171.0
1159.0
1146.0
1137.0
1133.0
1126.0
1117.0
1102.0
1092.0
1089.0
1082.0
1070.0
1062.0
1055.0
1048.0
1050.0
1054.0
1053.0
1046.0
1040.0
1027.0
1021.0
1018.0
1013.0
1009.0
1008.0
1010.0
1013.0
1012.0
1009.0
1007.0
1002.0
1002.0
1001.0
1005.0
1007.0
1000.0
998.0
998.0
1002.0
1002.0
1001.0
1000.0
1003.0
1005.0
1007.0
1008.0
1008.0
1006.0
1008.0
1008.0
1004.0
1002.0
996.0
993.0
993.0
993.0
994.0
997.0
998.0
994.0
994.0
995.0
999.0
999.0
1001.0
1002.0
1003.0
1001.0
1002.0
1002.0
1001.0
1001.0
1002.0
998.0
1000.0
1003.0
1007.0
1010.0
1012.0
1010.0
1008.0
1008.0
1009.0
1010.0
1005.0
1007.0
1005.0
1009.0
1007.0
1004.0
1001.0
1004.0
1011.0
1018.0
1020.0
1022.0
1017.0
1006.0
998.0
996.0
997.0
996.0
996.0
997.0
1000.0
1002.0
1004.0
1009.0
1016.0
1019.0
1022.0
1025.0
1024.0
1019.0
1014.0
1008.0
1013.0
1019.0
1026.0
1029.0
1035.0
1041.0
1045.0
1049.0
1047.0
1050.0
1054.0
1057.0
1069.0
1076.0
1078.0
1076.0
1071.0
1065.0
1062.0
1057.0
1061.0
1065.0
1069.0
1069.0
1068.0
1068.0
1067.0
1064.0
1058.0
1051.0
1049.0
1053.0
1053.0
1047.0
1035.0
1026.0
1024.0
1026.0
1030.0
1029.0
1025.0
1023.0
1025.0
1030.0
1032.0
1035.0
1044.0
1068.0
1116.0
1207.0
1334.0
1461.0
1565.0
1582.0
1574.0
1560.0
1549.0
1535.0
1519.0
1498.0
1482.0
1469.0
1454.0
1440.0
1422.0
1403.0
1381.0
1368.0
1349.0
1328.0
1302.0
1270.0
1238.0
1210.0
1181.0
1158.0
1135.0
1115.0
1100.0
1083.0
1066.0
1048.0
1040.0
1029.0
1025.0
1018.0
1016.0
1018.0
1011.0
994.0
970.0
940.0
904.0
864.0
826.0
793.0
774.0
768.0
768.0
770.0
781.0
797.0
822.0
842.0
850.0
849.0
852.0
854.0
860.0
865.0
864.0
864.0
864.0
859.0
855.0
863.0
872.0
879.0
889.0
899.0
913.0
921.0
922.0
926.0
931.0
937.0
950.0
964.0
976.0
992.0
1001.0
1015.0
1032.0
1046.0
1050.0
1055.0
1052.0
1053.0
1059.0
1066.0
1066.0
1071.0
1071.0
1071.0
1074.0
1078.0
1078.0
1079.0
1082.0
1086.0
1096.0
1103.0
1107.0
1110.0
1112.0
1115.0
1119.0
1120.0
1119.0
1119.0
1123.0
1128.0
1136.0
1144.0
1146.0
1148.0
1151.0
1157.0
1166.0
1171.0
1175.0
1177.0
1179.0
1182.0
1186.0
1194.0
1199.0
1200.0
1202.0
1202.0
1207.0
1213.0
1210.0
1208.0
1210.0
1214.0
1214.0
1215.0
1216.0
1217.0
1214.0
1208.0
1202.0
1194.0
1190.0
1187.0
1185.0
1185.0
1184.0
1185.0
1176.0
1167.0
1158.0
1155.0
1157.0
1157.0
1149.0
1136.0
1120.0
1109.0
1102.0
1100.0
1094.0
1083.0
1072.0
1066.0
1065.0
1063.0
1062.0
1056.0
1047.0
1036.0
1027.0
1021.0
1012.0
1008.0
1003.0
1002.0
1007.0
1009.0
1010.0
1009.0
1005.0
1003.0
1001.0
993.0
987.0
986.0
983.0
986.0
992.0
993.0
988.0
988.0
988.0
989.0
987.0
984.0
978.0
976.0
975.0
981.0
987.0
990.0
991.0
990.0
985.0
984.0
982.0
981.0
980.0
980.0
979.0
980.0
984.0
989.0
990.0
988.0
989.0
990.0
996.0
1003.0
1011.0
1020.0
1026.0
1031.0
1040.0
1043.0
1045.0
1045.0
1047.0
1047.0
1052.0
1058.0
1057.0
1050.0
1044.0
1044.0
1041.0
1037.0
1032.0
1029.0
1032.0
1034.0
1040.0
1047.0
1052.0
1053.0
1047.0
1037.0
1025.0
1020.0
1013.0
1009.0
1005.0
1002.0
1000.0
993.0
985.0
978.0
976.0
976.0
978.0
980.0
976.0
970.0
963.0
961.0
961.0
965.0
960.0
959.0
956.0
952.0
953.0
957.0
961.0
962.0
964.0
960.0
962.0
961.0
961.0
961.0
959.0
956.0
958.0
960.0
961.0
962.0
963.0
962.0
962.0
961.0
962.0
963.0
967.0
967.0
966.0
968.0
962.0
960.0
961.0
959.0
959.0
962.0
961.0
959.0
957.0
960.0
965.0
966.0
967.0
966.0
964.0
965.0
969.0
975.0
981.0
987.0
1001.0
1021.0
1060.0
1136.0
1261.0
1388.0
1485.0
1521.0
1521.0
1512.0
1501.0
1489.0
1476.0
1459.0
1443.0
1423.0
1409.0
1397.0
1380.0
1361.0
1341.0
1319.0
1294.0
1270.0
1249.0
1226.0
1203.0
1178.0
1149.0
1119.0
1097.0
1077.0
1059.0
1032.0
1000.0
976.0
962.0
952.0
951.0
953.0
947.0
926.0
894.0
860.0
833.0
810.0
788.0
754.0
722.0
695.0
693.0
701.0
713.0
722.0
734.0
753.0
776.0
792.0
798.0
803.0
812.0
815.0
821.0
827.0
831.0
838.0
841.0
845.0
853.0
867.0
876.0
886.0
891.0
895.0
902.0
912.0
923.0
937.0
956.0
974.0
987.0
1000.0
1013.0
1024.0
1037.0
1048.0
1054.0
1055.0
1056.0
1056.0
1057.0
1059.0
1064.0
1072.0
1083.0
1084.0
1082.0
1080.0
1084.0
1091.0
1095.0
1099.0
1097.0
1096.0
1095.0
1100.0
1103.0
1112.0
1119.0
1126.0
1130.0
1134.0
1132.0
1134.0
1137.0
1144.0
1150.0
1161.0
1166.0
1173.0
1179.0
1185.0
1191.0
1195.0
1193.0
1192.0
1193.0
1195.0
1199.0
1204.0
1205.0
1206.0
1200.0
1200.0
1198.0
1198.0
1196.0
1192.0
1192.0
1187.0
1188.0
1188.0
1183.0
1174.0
1166.0
1165.0
1166.0
1164.0
1158.0
1150.0
1142.0
1135.0
1130.0
1123.0
1112.0
1101.0
1098.0
1095.0
1094.0
1089.0
1078.0
1067.0
1063.0
1063.0
1071.0
1074.0
1076.0
1072.0
1068.0
1060.0
1051.0
1047.0
1042.0
1042.0
1045.0
1045.0
1041.0
1041.0
1035.0
1031.0
1029.0
1029.0
1032.0
1031.0
1030.0
1024.0
1017.0
1010.0
1011.0
1008.0
1008.0
999.0
993.0
983.0
980.0
977.0
973.0
973.0
967.0
960.0
954.0
949.0
946.0
942.0
931.0
930.0
932.0
937.0
935.0
937.0
933.0
931.0
933.0
935.0
929.0
923.0
924.0
925.0
933.0
933.0
933.0
935.0
932.0
934.0
935.0
936.0
939.0
942.0
941.0
937.0
932.0
926.0
922.0
918.0
914.0
912.0
917.0
923.0
925.0
926.0
922.0
920.0
926.0
928.0
927.0
923.0
921.0
920.0
919.0
922.0
920.0
922.0
924.0
925.0
928.0
932.0
930.0
924.0
921.0
924.0
927.0
928.0
922.0
920.0
925.0
928.0
929.0
931.0
932.0
926.0
919.0
910.0
907.0
917.0
925.0
931.0
929.0
922.0
920.0
923.0
927.0
926.0
926.0
925.0
922.0
926.0
932.0
935.0
937.0
933.0
933.0
931.0
926.0
926.0
925.0
923.0
923.0
927.0
930.0
929.0
931.0
932.0
934.0
937.0
944.0
945.0
948.0
949.0
958.0
967.0
977.0
1002.0
1058.0
1168.0
1295.0
1422.0
1490.0
1491.0
1478.0
1466.0
1459.0
1453.0
1435.0
1413.0
1388.0
1364.0
1341.0
1323.0
1295.0
1268.0
1245.0
1218.0
1194.0
1163.0
1127.0
1083.0
1040.0
1003.0
968.0
941.0
912.0
879.0
847.0
816.0
799.0
789.0
774.0
756.0
742.0
724.0
710.0
692.0
672.0
646.0
617.0
585.0
561.0
547.0
551.0
571.0
597.0
628.0
668.0
708.0
731.0
742.0
747.0
753.0
766.0
775.0
779.0
784.0
786.0
791.0
797.0
804.0
809.0
818.0
829.0
843.0
857.0
869.0
880.0
891.0
904.0
922.0
940.0
956.0
970.0
985.0
1001.0
1011.0
1019.0
1023.0
1025.0
1025.0
1024.0
1027.0
1030.0
1030.0
1036.0
1041.0
1045.0
1053.0
1060.0
1065.0
1067.0
1063.0
1064.0
1075.0
1088.0
1098.0
1103.0
1106.0
1108.0
1115.0
1124.0
1134.0
1139.0
1146.0
1156.0
1166.0
1182.0
1192.0
1200.0
1204.0
1204.0
1212.0
1225.0
1235.0
1239.0
1243.0
1240.0
1237.0
1236.0
1237.0
1236.0
1235.0
1236.0
1237.0
1237.0
1236.0
1232.0
1225.0
1217.0
1211.0
1204.0
1201.0
1192.0
1181.0
1170.0
1159.0
1151.0
1140.0
1119.0
1101.0
1082.0
1073.0
1065.0
1058.0
1044.0
1027.0
1010.0
999.0
990.0
982.0
969.0
958.0
945.0
941.0
939.0
938.0
932.0
924.0
917.0
911.0
909.0
905.0
901.0
891.0
884.0
881.0
882.0
888.0
888.0
885.0
880.0
880.0
881.0
883.0
880.0
871.0
866.0
858.0
861.0
866.0
870.0
868.0
868.0
866.0
866.0
866.0
865.0
859.0
853.0
854.0
859.0
859.0
860.0
861.0
863.0
862.0
866.0
868.0
867.0
867.0
866.0
865.0
868.0
867.0
865.0
863.0
869.0
873.0
875.0
877.0
880.0
879.0
882.0
872.0
867.0
859.0
853.0
858.0
868.0
873.0
875.0
870.0
868.0
867.0
870.0
873.0
874.0
876.0
877.0
880.0
881.0
880.0
878.0
878.0
876.0
872.0
871.0
871.0
878.0
886.0
889.0
890.0
886.0
882.0
887.0
885.0
880.0
872.0
867.0
869.0
877.0
882.0
884.0
887.0
886.0
885.0
884.0
887.0
886.0
884.0
881.0
882.0
885.0
888.0
888.0
886.0
886.0
887.0
892.0
899.0
899.0
899.0
898.0
898.0
899.0
905.0
902.0
898.0
894.0
895.0
899.0
904.0
905.0
905.0
903.0
906.0
913.0
919.0
928.0
934.0
949.0
978.0
1042.0
1159.0
1286.0
1413.0
1478.0
1478.0
1464.0
1452.0
1440.0
1420.0
1401.0
1374.0
1353.0
1334.0
1312.0
1290.0
1270.0
1251.0
1225.0
1197.0
1162.0
1126.0
1087.0
1051.0
1015.0
982.0
957.0
930.0
899.0
875.0
857.0
849.0
836.0
829.0
825.0
816.0
802.0
780.0
754.0
722.0
687.0
654.0
626.0
604.0
589.0
593.0
612.0
643.0
677.0
710.0
734.0
747.0
752.0
753.0
755.0
767.0
772.0
781.0
786.0
790.0
792.0
800.0
809.0
821.0
837.0
853.0
872.0
892.0
911.0
922.0
933.0
950.0
969.0
993.0
1012.0
1024.0
1031.0
1032.0
1030.0
1030.0
1031.0
1039.0
1045.0
1052.0
1063.0
1065.0
1066.0
1061.0
1054.0
1053.0
1057.0
1060.0
1057.0
1053.0
1052.0
1053.0
1059.0
1065.0
1067.0
1071.0
1075.0
1078.0
1081.0
1082.0
1079.0
1074.0
1071.0
1072.0
1080.0
1087.0
1094.0
1098.0
1103.0
1109.0
1118.0
1124.0
1125.0
1126.0
1128.0
1132.0
1138.0
1142.0
1143.0
1142.0
1140.0
1141.0
1146.0
1146.0
1142.0
1141.0
1139.0
1138.0
1134.0
1125.0
1117.0
1113.0
1112.0
1110.0
1107.0
1103.0
1100.0
1095.0
1090.0
1083.0
1076.0
1067.0
1057.0
1045.0
1032.0
1024.0
1021.0
1018.0
1009.0
1000.0
989.0
973.0
961.0
955.0
953.0
950.0
945.0
938.0
935.0
931.0
923.0
913.0
910.0
909.0
912.0
910.0
911.0
911.0
911.0
912.0
909.0
903.0
897.0
892.0
889.0
889.0
896.0
906.0
907.0
905.0
903.0
896.0
898.0
898.0
896.0
899.0
902.0
902.0
900.0
899.0
901.0
902.0
901.0
897.0
896.0
894.0
892.0
888.0
889.0
891.0
898.0
907.0
909.0
909.0
906.0
906.0
908.0
913.0
910.0
910.0
911.0
913.0
920.0
923.0
927.0
924.0
922.0
920.0
919.0
918.0
916.0
913.0
915.0
920.0
929.0
935.0
931.0
928.0
926.0
924.0
922.0
920.0
916.0
919.0
923.0
927.0
924.0
918.0
917.0
916.0
915.0
921.0
926.0
928.0
929.0
927.0
927.0
930.0
931.0
938.0
939.0
937.0
938.0
936.0
934.0
934.0
932.0
931.0
937.0
937.0
938.0
938.0
936.0
934.0
934.0
935.0
942.0
946.0
948.0
948.0
947.0
946.0
945.0
943.0
942.0
942.0
945.0
951.0
956.0
959.0
957.0
953.0
955.0
955.0
955.0
952.0
948.0
949.0
950.0
954.0
962.0
971.0
974.0
980.0
991.0
1021.0
1085.0
1200.0
1327.0
1454.0
1506.0
1507.0
1495.0
1484.0
1473.0
1459.0
1444.0
1427.0
1413.0
1404.0
1391.0
1375.0
1354.0
1330.0
1306.0
1282.0
1250.0
1220.0
1187.0
1157.0
1128.0
1103.0
1077.0
1044.0
1002.0
958.0
919.0
890.0
871.0
858.0
850.0
841.0
825.0
797.0
762.0
734.0
703.0
679.0
655.0
632.0
607.0
592.0
594.0
612.0
642.0
681.0
716.0
748.0
768.0
776.0
781.0
786.0
793.0
797.0
803.0
812.0
821.0
825.0
829.0
832.0
836.0
845.0
857.0
868.0
881.0
891.0
903.0
912.0
926.0
935.0
946.0
961.0
976.0
988.0
999.0
1008.0
1017.0
1025.0
1031.0
1037.0
1045.0
1052.0
1057.0
1061.0
1059.0
1056.0
1058.0
1065.0
1074.0
1083.0
1080.0
1072.0
1065.0
1068.0
1078.0
1091.0
1097.0
1099.0
1100.0
1105.0
1112.0
1120.0
1133.0
1138.0
1141.0
1145.0
1149.0
1158.0
1163.0
1166.0
1165.0
1165.0
1170.0
1178.0
1185.0
1193.0
1202.0
1209.0
1215.0
1220.0
1223.0
1229.0
1229.0
1230.0
1232.0
1231.0
1234.0
1233.0
1237.0
1236.0
1234.0
1230.0
1225.0
1220.0
1218.0
1221.0
1215.0
1206.0
1195.0
1184.0
1181.0
1176.0
1172.0
1165.0
1158.0
1150.0
1145.0
1136.0
1123.0
1104.0
1086.0
1077.0
1075.0
1070.0
1058.0
1047.0
1038.0
1031.0
1030.0
1027.0
1023.0
1021.0
1020.0
1020.0
1017.0
1008.0
992.0
978.0
973.0
971.0
974.0
977.0
978.0
976.0
973.0
964.0
961.0
963.0
968.0
970.0
970.0
971.0
971.0
970.0
968.0
968.0
965.0
965.0
963.0
964.0
963.0
963.0
960.0
961.0
967.0
972.0
974.0
972.0
966.0
961.0
963.0
966.0
966.0
965.0
966.0
968.0
970.0
968.0
973.0
978.0
974.0
972.0
970.0
971.0
972.0
973.0
973.0
973.0
977.0
980.0
978.0
980.0
982.0
983.0
986.0
987.0
984.0
982.0
977.0
967.0
962.0
966.0
974.0
975.0
975.0
973.0
973.0
980.0
982.0
981.0
979.0
981.0
983.0
989.0
992.0
988.0
978.0
971.0
965.0
968.0
972.0
975.0
979.0
984.0
982.0
979.0
977.0
986.0
995.0
1002.0
1001.0
993.0
986.0
983.0
991.0
999.0
1005.0
1014.0
1015.0
1016.0
1016.0
1020.0
1030.0
1041.0
1050.0
1051.0
1042.0
1037.0
1035.0
1037.0
1036.0
1038.0
1044.0
1049.0
1056.0
1060.0
1061.0
1055.0
1044.0
1033.0
1024.0
1025.0
1028.0
1029.0
1034.0
1050.0
1076.0
1125.0
1225.0
1352.0
1458.0
1504.0
1505.0
1489.0
1477.0
1467.0
1455.0
1433.0
1415.0
1399.0
1384.0
1366.0
1344.0
1323.0
1303.0
1277.0
1252.0
1223.0
1191.0
1159.0
1125.0
1095.0
1062.0
1036.0
1016.0
995.0
968.0
944.0
926.0
909.0
891.0
875.0
869.0
862.0
844.0
816.0
787.0
760.0
733.0
704.0
671.0
636.0
614.0
620.0
648.0
680.0
710.0
739.0
758.0
777.0
789.0
800.0
806.0
810.0
810.0
812.0
813.0
816.0
817.0
817.0
819.0
828.0
848.0
863.0
877.0
878.0
878.0
886.0
905.0
926.0
942.0
959.0
975.0
986.0
997.0
1005.0
1010.0
1015.0
1016.0
1024.0
1035.0
1042.0
1045.0
1042.0
1040.0
1040.0
1046.0
1053.0
1055.0
1061.0
1064.0
1066.0
1070.0
1076.0
1081.0
1083.0
1085.0
1084.0
1089.0
1095.0
1099.0
1106.0
1110.0
1111.0
1114.0
1114.0
1120.0
1125.0
1128.0
1136.0
1143.0
1153.0
1155.0
1155.0
1153.0
1151.0
1151.0
1161.0
1166.0
1172.0
1176.0
1179.0
1182.0
1185.0
1186.0
1181.0
1176.0
1177.0
1183.0
1185.0
1181.0
1181.0
1176.0
1170.0
1169.0
1169.0
1174.0
1174.0
1170.0
1159.0
1149.0
1142.0
1135.0
1132.0
1126.0
1122.0
1116.0
1111.0
1105.0
1094.0
1086.0
1079.0
1074.0
1069.0
1061.0
1053.0
1044.0
1033.0
1028.0
1026.0
1019.0
1014.0
1007.0
1000.0
997.0
996.0
995.0
990.0
988.0
982.0
981.0
982.0
977.0
974.0
971.0
969.0
971.0
972.0
971.0
969.0
965.0
964.0
966.0
969.0
973.0
973.0
969.0
969.0
968.0
967.0
963.0
960.0
958.0
959.0
965.0
966.0
965.0
961.0
959.0
959.0
963.0
965.0
965.0
960.0
953.0
955.0
958.0
960.0
961.0
961.0
960.0
958.0
963.0
969.0
974.0
979.0
983.0
989.0
999.0
1006.0
1007.0
1008.0
1006.0
1007.0
1004.0
1006.0
1011.0
1016.0
1025.0
1034.0
1039.0
1039.0
1036.0
1035.0
1031.0
1030.0
1025.0
1028.0
1030.0
1027.0
1025.0
1025.0
1025.0
1023.0
1019.0
1016.0
1011.0
1005.0
1000.0
993.0
984.0
976.0
968.0
966.0
969.0
973.0
973.0
969.0
964.0
957.0
952.0
948.0
944.0
937.0
937.0
939.0
944.0
947.0
946.0
942.0
938.0
938.0
942.0
947.0
947.0
946.0
950.0
948.0
949.0
945.0
937.0
934.0
933.0
940.0
947.0
950.0
950.0
947.0
949.0
949.0
951.0
952.0
952.0
951.0
956.0
961.0
962.0
961.0
963.0
971.0
988.0
1023.0
1090.0
1205.0
1332.0
1446.0
1479.0
1472.0
1461.0
1451.0
1442.0
1428.0
1411.0
1394.0
1381.0
1371.0
1359.0
1344.0
1325.0
1302.0
1281.0
1261.0
1243.0
1220.0
1199.0
1175.0
1153.0
1131.0
1109.0
1084.0
1061.0
1040.0
1024.0
1014.0
1001.0
993.0
992.0
989.0
992.0
986.0
968.0
934.0
900.0
858.0
815.0
763.0
721.0
697.0
695.0
702.0
713.0
729.0
748.0
771.0
785.0
788.0
793.0
801.0
807.0
815.0
817.0
819.0
827.0
827.0
825.0
820.0
826.0
837.0
853.0
870.0
879.0
888.0
897.0
906.0
921.0
935.0
949.0
964.0
976.0
986.0
999.0
1011.0
1017.0
1023.0
1026.0
1026.0
1027.0
1034.0
1040.0
1043.0
1043.0
1046.0
1051.0
1054.0
1058.0
1054.0
1054.0
1055.0
1058.0
1066.0
1074.0
1078.0
1078.0
1083.0
1089.0
1094.0
1102.0
1104.0
1101.0
1102.0
1109.0
1116.0
1123.0
1130.0
1133.0
1138.0
1144.0
1148.0
1155.0
1161.0
1163.0
1163.0
1160.0
1156.0
1155.0
1154.0
1156.0
1160.0
1166.0
1170.0
1170.0
1165.0
1164.0
1159.0
1159.0
1159.0
1159.0
1157.0
1156.0
1150.0
1148.0
1145.0
1144.0
1134.0
1128.0
1123.0
1121.0
1121.0
1115.0
1109.0
1104.0
1096.0
1092.0
1084.0
1078.0
1071.0
1064.0
1052.0
1039.0
1031.0
1024.0
1019.0
1015.0
1008.0
1003.0
1002.0
1001.0
999.0
994.0
990.0
988.0
990.0
993.0
996.0
998.0
1000.0
1004.0
1009.0
1011.0
1014.0
1011.0
1012.0
1016.0
1021.0
1019.0
1015.0
1005.0
1000.0
997.0
1001.0
1003.0
1007.0
1007.0
1008.0
1006.0
1002.0
1002.0
997.0
992.0
984.0
976.0
972.0
969.0
964.0
962.0
953.0
947.0
940.0
934.0
927.0
924.0
918.0
923.0
928.0
929.0
930.0
924.0
921.0
920.0
919.0
918.0
919.0
917.0
917.0
917.0
919.0
917.0
915.0
910.0
909.0
913.0
912.0
907.0
907.0
907.0
908.0
911.0
912.0
911.0
912.0
913.0
915.0
912.0
915.0
911.0
908.0
903.0
902.0
906.0
912.0
913.0
912.0
909.0
909.0
906.0
908.0
908.0
909.0
913.0
915.0
915.0
915.0
912.0
914.0
911.0
909.0
909.0
908.0
908.0
909.0
908.0
909.0
911.0
915.0
915.0
913.0
911.0
909.0
909.0
910.0
911.0
916.0
918.0
915.0
911.0
910.0
911.0
914.0
915.0
917.0
922.0
928.0
930.0
929.0
925.0
922.0
924.0
927.0
928.0
928.0
923.0
924.0
924.0
929.0
934.0
937.0
940.0
949.0
963.0
983.0
1016.0
1084.0
1199.0
1326.0
1425.0
1456.0
1449.0
1439.0
1430.0
1424.0
1416.0
1402.0
1389.0
1373.0
1351.0
1331.0
1311.0
1291.0
1270.0
1245.0
1211.0
1176.0
1140.0
1112.0
1086.0
1058.0
1023.0
984.0
947.0
916.0
882.0
847.0
817.0
794.0
776.0
761.0
747.0
732.0
717.0
703.0
683.0
663.0
640.0
618.0
592.0
570.0
546.0
539.0
547.0
568.0
597.0
631.0
676.0
713.0
735.0
743.0
752.0
761.0
776.0
787.0
794.0
797.0
801.0
803.0
809.0
813.0
816.0
819.0
830.0
846.0
864.0
877.0
891.0
902.0
912.0
924.0
939.0
954.0
963.0
973.0
984.0
999.0
1016.0
1029.0
1038.0
1036.0
1033.0
1032.0
1036.0
1042.0
1051.0
1056.0
1059.0
1055.0
1059.0
1062.0
1067.0
1070.0
1073.0
1076.0
1085.0
1094.0
1103.0
1112.0
1115.0
1113.0
1113.0
1113.0
1115.0
1121.0
1127.0
1133.0
1143.0
1150.0
1154.0
1157.0
1158.0
1162.0
1174.0
1180.0
1186.0
1193.0
1199.0
1205.0
1217.0
1224.0
1232.0
1236.0
1240.0
1243.0
1245.0
1248.0
1255.0
1250.0
1256.0
1259.0
1260.0
1260.0
1255.0
1248.0
1243.0
1240.0
1242.0
1245.0
1242.0
1233.0
1223.0
1210.0
1206.0
1202.0
1195.0
1186.0
1178.0
1165.0
1154.0
1140.0
1124.0
1110.0
1101.0
1090.0
1079.0
1067.0
1053.0
1040.0
1030.0
1017.0
1010.0
1003.0
993.0
988.0
983.0
976.0
973.0
971.0
968.0
959.0
946.0
937.0
933.0
935.0
937.0
937.0
930.0
926.0
927.0
930.0
926.0
920.0
915.0
914.0
922.0
926.0
925.0
921.0
915.0
914.0
919.0
926.0
922.0
915.0
908.0
901.0
901.0
905.0
911.0
912.0
908.0
904.0
900.0
900.0
905.0
911.0
913.0
912.0
912.0
911.0
903.0
901.0
901.0
903.0
911.0
915.0
915.0
915.0
913.0
916.0
917.0
916.0
916.0
914.0
909.0
912.0
918.0
922.0
925.0
924.0
919.0
917.0
922.0
926.0
927.0
925.0
920.0
914.0
913.0
912.0
914.0
917.0
916.0
918.0
919.0
924.0
924.0
926.0
925.0
922.0
923.0
924.0
927.0
928.0
924.0
917.0
916.0
917.0
923.0
927.0
927.0
922.0
916.0
914.0
914.0
912.0
913.0
917.0
922.0
925.0
928.0
927.0
924.0
929.0
933.0
932.0
927.0
923.0
918.0
917.0
916.0
920.0
926.0
927.0
926.0
920.0
920.0
920.0
920.0
919.0
918.0
921.0
928.0
934.0
935.0
935.0
936.0
934.0
934.0
939.0
939.0
937.0
932.0
930.0
941.0
954.0
957.0
955.0
944.0
939.0
949.0
974.0
1019.0
1102.0
1222.0
1349.0
1431.0
1449.0
1439.0
1427.0
1421.0
1411.0
1399.0
1386.0
1371.0
1354.0
1336.0
1318.0
1304.0
1288.0
1266.0
1236.0
1206.0
1180.0
1158.0
1138.0
1109.0
1071.0
1033.0
996.0
967.0
943.0
916.0
888.0
866.0
850.0
838.0
833.0
829.0
817.0
790.0
757.0
728.0
695.0
664.0
628.0
595.0
568.0
563.0
578.0
606.0
633.0
667.0
699.0
727.0
744.0
752.0
750.0
747.0
743.0
748.0
757.0
767.0
775.0
777.0
779.0
790.0
799.0
816.0
834.0
850.0
863.0
875.0
886.0
899.0
916.0
934.0
950.0
965.0
983.0
1000.0
1014.0
1025.0
1035.0
1046.0
1051.0
1052.0
1052.0
1052.0
1057.0
1062.0
1058.0
1052.0
1052.0
1056.0
1065.0
1069.0
1071.0
1077.0
1076.0
1076.0
1075.0
1077.0
1077.0
1075.0
1071.0
1070.0
1072.0
1078.0
1081.0
1079.0
1079.0
1081.0
1085.0
1091.0
1089.0
1089.0
1088.0
1086.0
1089.0
1097.0
1103.0
1103.0
1100.0
1097.0
1101.0
1105.0
1113.0
1113.0
1112.0
1108.0
1106.0
1108.0
1110.0
1109.0
1108.0
1105.0
1103.0
1102.0
1099.0
1097.0
1090.0
1087.0
1085.0
1084.0
1087.0
1084.0
1078.0
1068.0
1057.0
1051.0
1044.0
1039.0
1036.0
1026.0
1014.0
997.0
982.0
975.0
970.0
965.0
956.0
949.0
942.0
938.0
937.0
933.0
930.0
928.0
924.0
911.0
899.0
889.0
885.0
890.0
892.0
892.0
890.0
886.0
883.0
883.0
882.0
883.0
877.0
876.0
872.0
875.0
880.0
880.0
877.0
870.0
866.0
865.0
868.0
869.0
871.0
871.0
875.0
877.0
875.0
867.0
861.0
857.0
861.0
866.0
871.0
871.0
870.0
870.0
869.0
873.0
877.0
875.0
872.0
867.0
862.0
869.0
872.0
878.0
879.0
879.0
873.0
877.0
883.0
886.0
891.0
889.0
884.0
881.0
880.0
882.0
881.0
885.0
889.0
891.0
896.0
897.0
894.0
890.0
884.0
882.0
882.0
881.0
878.0
878.0
878.0
881.0
883.0
884.0
882.0
882.0
883.0
890.0
894.0
891.0
887.0
888.0
888.0
886.0
886.0
886.0
883.0
883.0
883.0
887.0
891.0
893.0
890.0
890.0
891.0
894.0
895.0
894.0
897.0
899.0
899.0
899.0
896.0
892.0
890.0
890.0
891.0
897.0
900.0
900.0
900.0
896.0
893.0
896.0
905.0
909.0
914.0
912.0
903.0
893.0
888.0
892.0
900.0
901.0
899.0
898.0
899.0
903.0
909.0
913.0
913.0
913.0
913.0
912.0
915.0
917.0
923.0
937.0
958.0
992.0
1062.0
1174.0
1301.0
1417.0
1454.0
1449.0
1433.0
1424.0
1415.0
1404.0
1389.0
1372.0
1354.0
1338.0
1322.0
1309.0
1293.0
1274.0
1252.0
1230.0
1201.0
1177.0
1152.0
1123.0
1089.0
1054.0
1016.0
984.0
956.0
930.0
909.0
891.0
881.0
870.0
859.0
848.0
834.0
812.0
778.0
744.0
717.0
692.0
660.0
630.0
603.0
591.0
604.0
634.0
669.0
702.0
729.0
751.0
764.0
764.0
761.0
764.0
761.0
761.0
761.0
761.0
760.0
759.0
765.0
771.0
782.0
788.0
797.0
805.0
811.0
824.0
840.0
857.0
875.0
896.0
908.0
917.0
925.0
931.0
945.0
956.0
967.0
973.0
973.0
972.0
971.0
969.0
974.0
977.0
982.0
986.0
986.0
987.0
983.0
988.0
998.0
1004.0
1012.0
1014.0
1019.0
1026.0
1028.0
1029.0
1028.0
1031.0
1035.0
1043.0
1052.0
1057.0
1058.0
1061.0
1070.0
1081.0
1090.0
1094.0
1095.0
1092.0
1095.0
1104.0
1110.0
1117.0
1122.0
1126.0
1127.0
1128.0
1130.0
1131.0
1131.0
1131.0
1129.0
1131.0
1134.0
1137.0
1137.0
1132.0
1122.0
1118.0
1121.0
1122.0
1120.0
1115.0
1109.0
1101.0
1094.0
1086.0
1080.0
1072.0
1062.0
1052.0
1041.0
1034.0
1026.0
1018.0
1012.0
1001.0
994.0
987.0
977.0
972.0
965.0
958.0
950.0
945.0
939.0
935.0
933.0
930.0
926.0
924.0
920.0
919.0
916.0
915.0
913.0
917.0
916.0
913.0
906.0
902.0
901.0
896.0
900.0
899.0
899.0
895.0
891.0
890.0
894.0
898.0
899.0
897.0
894.0
896.0
893.0
891.0
884.0
883.0
885.0
886.0
885.0
884.0
887.0
891.0
895.0
901.0
903.0
904.0
902.0
903.0
901.0
901.0
899.0
897.0
900.0
907.0
913.0
911.0
909.0
903.0
905.0
907.0
907.0
907.0
909.0
909.0
911.0
913.0
911.0
908.0
907.0
907.0
906.0
910.0
917.0
921.0
918.0
915.0
911.0
911.0
912.0
911.0
909.0
907.0
909.0
915.0
922.0
923.0
918.0
910.0
906.0
912.0
913.0
912.0
909.0
909.0
908.0
913.0
918.0
917.0
922.0
923.0
924.0
927.0
930.0
925.0
918.0
914.0
913.0
914.0
920.0
922.0
927.0
929.0
934.0
938.0
942.0
944.0
948.0
954.0
960.0
967.0
972.0
976.0
977.0
985.0
991.0
999.0
1002.0
1001.0
995.0
991.0
988.0
988.0
992.0
999.0
999.0
1001.0
1000.0
1004.0
1010.0
1016.0
1026.0
1044.0
1091.0
1183.0
1310.0
1419.0
1471.0
1472.0
1457.0
1448.0
1443.0
1429.0
1408.0
1387.0
1368.0
1353.0
1337.0
1317.0
1295.0
1268.0
1240.0
1212.0
1182.0
1156.0
1120.0
1086.0
1053.0
1021.0
986.0
949.0
911.0
883.0
856.0
839.0
820.0
798.0
778.0
769.0
760.0
747.0
721.0
688.0
662.0
637.0
608.0
579.0
551.0
534.0
538.0
563.0
600.0
639.0
666.0
693.0
721.0
739.0
750.0
760.0
769.0
776.0
775.0
776.0
776.0
775.0
776.0
784.0
797.0
814.0
828.0
840.0
853.0
859.0
866.0
871.0
883.0
902.0
920.0
939.0
950.0
966.0
985.0
1001.0
1013.0
1016.0
1014.0
1011.0
1012.0
1019.0
1027.0
1036.0
1040.0
1044.0
1048.0
1054.0
1059.0
1064.0
1068.0
1071.0
1074.0
1081.0
1088.0
1090.0
1090.0
1092.0
1100.0
1113.0
1122.0
1124.0
1128.0
1135.0
1147.0
1158.0
1168.0
1175.0
1176.0
1172.0
1173.0
1178.0
1185.0
1192.0
1197.0
1201.0
1204.0
1213.0
1212.0
1212.0
1212.0
1211.0
1211.0
1212.0
1208.0
1205.0
1200.0
1197.0
1195.0
1195.0
1194.0
1189.0
1180.0
1171.0
1161.0
1152.0
1145.0
1136.0
1128.0
1118.0
1111.0
1105.0
1100.0
1086.0
1073.0
1059.0
1047.0
1042.0
1039.0
1033.0
1025.0
1016.0
1007.0
1002.0
997.0
990.0
986.0
978.0
968.0
966.0
962.0
964.0
963.0
961.0
954.0
953.0
956.0
960.0
957.0
950.0
944.0
946.0
950.0
953.0
948.0
940.0
940.0
944.0
948.0
949.0
945.0
940.0
943.0
949.0
952.0
954.0
953.0
949.0
943.0
941.0
940.0
941.0
941.0
940.0
942.0
944.0
948.0
949.0
950.0
949.0
947.0
947.0
945.0
946.0
944.0
947.0
951.0
962.0
967.0
972.0
969.0
972.0
974.0
978.0
983.0
994.0
1001.0
999.0
1000.0
998.0
1000.0
1006.0
1014.0
1019.0
1023.0
1023.0
1023.0
1021.0
1019.0
1016.0
1010.0
1000.0
997.0
998.0
998.0
998.0
998.0
1000.0
999.0
993.0
988.0
986.0
979.0
978.0
975.0
967.0
961.0
957.0
952.0
953.0
950.0
949.0
947.0
943.0
940.0
941.0
940.0
933.0
932.0
928.0
924.0
930.0
933.0
935.0
938.0
934.0
928.0
925.0
925.0
926.0
928.0
929.0
929.0
936.0
936.0
937.0
937.0
939.0
937.0
