# Simple Text Format
# Sampling Rate (Hz):= 360.00
# Resolution:= 12
# Labels:= ECG
960.0
989.0
1044.0
1147.0
1274.0
1401.0
1465.0
1477.0
1465.0
1452.0
1441.0
1431.0
1419.0
1402.0
1384.0
1365.0
1351.0
1339.0
1327.0
1310.0
1290.0
1270.0
1250.0
1228.0
1206.0
1177.0
1153.0
1128.0
1100.0
1082.0
1067.0
1053.0
1031.0
1010.0
994.0
992.0
992.0
994.0
995.0
994.0
982.0
965.0
942.0
917.0
887.0
851.0
808.0
773.0
753.0
750.0
752.0
758.0
768.0
789.0
809.0
816.0
816.0
814.0
814.0
819.0
818.0
816.0
814.0
813.0
813.0
813.0
812.0
815.0
823.0
831.0
835.0
846.0
858.0
872.0
882.0
891.0
899.0
908.0
924.0
938.0
952.0
964.0
975.0
982.0
986.0
994.0
994.0
994.0
996.0
998.0
1002.0
1008.0
1012.0
1014.0
1014.0
1016.0
1016.0
1015.0
1014.0
1018.0
1025.0
1033.0
1041.0
1046.0
1049.0
1047.0
1047.0
1053.0
1057.0
1065.0
1073.0
1075.0
1080.0
1082.0
1086.0
1089.0
1094.0
1100.0
1101.0
1108.0
1111.0
1112.0
1111.0
1111.0
1109.0
1114.0
1121.0
1130.0
1130.0
1127.0
1125.0
1125.0
1124.0
1127.0
1129.0
1131.0
1128.0
1128.0
1127.0
1128.0
1127.0
1121.0
1114.0
1109.0
1103.0
1096.0
1090.0
1089.0
1086.0
1080.0
1076.0
1068.0
1059.0
1054.0
1047.0
1041.0
1033.0
1029.0
1021.0
1012.0
1001.0
992.0
984.0
981.0
975.0
969.0
964.0
963.0
958.0
954.0
947.0
945.0
942.0
938.0
936.0
938.0
939.0
943.0
943.0
944.0
946.0
947.0
949.0
950.0
957.0
966.0
975.0
979.0
978.0
974.0
971.0
974.0
980.0
984.0
985.0
981.0
976.0
975.0
975.0
972.0
973.0
975.0
974.0
975.0
973.0
971.0
967.0
963.0
959.0
956.0
955.0
954.0
950.0
944.0
938.0
931.0
931.0
929.0
924.0
919.0
913.0
910.0
912.0
916.0
915.0
910.0
900.0
891.0
884.0
886.0
884.0
886.0
886.0
886.0
887.0
884.0
885.0
889.0
894.0
897.0
900.0
897.0
892.0
886.0
883.0
886.0
888.0
886.0
882.0
881.0
880.0
881.0
882.0
881.0
883.0
883.0
882.0
883.0
882.0
887.0
887.0
884.0
884.0
884.0
883.0
883.0
885.0
885.0
883.0
881.0
877.0
874.0
874.0
873.0
868.0
870.0
872.0
878.0
882.0
883.0
879.0
879.0
877.0
878.0
877.0
878.0
876.0
878.0
879.0
880.0
883.0
887.0
890.0
895.0
893.0
895.0
897.0
899.0
901.0
906.0
920.0
937.0
966.0
1014.0
1116.0
1243.0
1370.0
1445.0
1451.0
1434.0
1416.0
1403.0
1394.0
1380.0
1358.0
1337.0
1319.0
1304.0
1291.0
1270.0
1247.0
1222.0
1197.0
1172.0
1144.0
1112.0
1077.0
1043.0
1012.0
984.0
960.0
936.0
906.0
872.0
844.0
826.0
821.0
816.0
811.0
801.0
782.0
758.0
730.0
701.0
676.0
654.0
623.0
598.0
593.0
602.0
620.0
642.0
671.0
704.0
722.0
727.0
728.0
732.0
740.0
746.0
747.0
750.0
753.0
751.0
753.0
754.0
756.0
763.0
771.0
779.0
787.0
798.0
809.0
822.0
830.0
840.0
847.0
859.0
877.0
894.0
906.0
916.0
920.0
931.0
937.0
941.0
937.0
934.0
934.0
937.0
944.0
948.0
952.0
956.0
956.0
960.0
963.0
966.0
967.0
966.0
969.0
974.0
982.0
986.0
988.0
987.0
991.0
998.0
1004.0
1012.0
1015.0
1017.0
1019.0
1028.0
1037.0
1042.0
1047.0
1045.0
1041.0
1043.0
1049.0
1056.0
1060.0
1063.0
1062.0
1067.0
1072.0
1074.0
1075.0
1074.0
1073.0
1075.0
1080.0
1082.0
1085.0
1087.0
1090.0
1098.0
1105.0
1105.0
1101.0
1095.0
1095.0
1097.0
1096.0
1100.0
1097.0
1089.0
1078.0
1064.0
1048.0
1029.0
1021.0
1014.0
1010.0
1008.0
1001.0
994.0
987.0
976.0
965.0
955.0
951.0
943.0
935.0
927.0
914.0
905.0
898.0
891.0
883.0
870.0
862.0
859.0
856.0
853.0
846.0
839.0
834.0
831.0
830.0
828.0
828.0
827.0
822.0
822.0
821.0
822.0
823.0
819.0
819.0
818.0
823.0
823.0
822.0
819.0
817.0
819.0
820.0
819.0
812.0
807.0
803.0
805.0
810.0
813.0
815.0
816.0
816.0
818.0
820.0
823.0
823.0
823.0
819.0
815.0
810.0
808.0
813.0
815.0
811.0
813.0
814.0
816.0
822.0
820.0
820.0
822.0
826.0
827.0
826.0
828.0
824.0
821.0
818.0
818.0
819.0
817.0
820.0
824.0
828.0
829.0
826.0
825.0
825.0
826.0
831.0
835.0
835.0
830.0
825.0
823.0
823.0
827.0
831.0
830.0
828.0
828.0
834.0
837.0
840.0
839.0
836.0
839.0
843.0
844.0
845.0
842.0
841.0
844.0
848.0
851.0
850.0
846.0
846.0
845.0
849.0
854.0
857.0
859.0
859.0
857.0
856.0
854.0
858.0
862.0
858.0
860.0
860.0
862.0
861.0
861.0
861.0
866.0
872.0
876.0
879.0
880.0
877.0
879.0
885.0
891.0
904.0
928.0
965.0
1044.0
1168.0
1295.0
1419.0
1470.0
1469.0
1453.0
1439.0
1424.0
1406.0
1376.0
1349.0
1329.0
1314.0
1296.0
1273.0
1248.0
1217.0
1190.0
1160.0
1127.0
1096.0
1060.0
1025.0
987.0
951.0
916.0
885.0
857.0
833.0
803.0
779.0
762.0
747.0
737.0
731.0
723.0
709.0
693.0
667.0
643.0
619.0
597.0
581.0
563.0
549.0
555.0
576.0
607.0
639.0
668.0
689.0
701.0
707.0
712.0
721.0
734.0
744.0
752.0
753.0
760.0
766.0
769.0
771.0
776.0
786.0
802.0
814.0
826.0
835.0
842.0
850.0
860.0
874.0
889.0
904.0
922.0
934.0
946.0
961.0
975.0
982.0
989.0
990.0
998.0
1005.0
1013.0
1020.0
1026.0
1034.0
1048.0
1059.0
1069.0
1070.0
1073.0
1074.0
1080.0
1098.0
1112.0
1123.0
1126.0
1128.0
1132.0
1134.0
1136.0
1138.0
1138.0
1142.0
1150.0
1157.0
1170.0
1180.0
1189.0
1187.0
1182.0
1176.0
1176.0
1180.0
1185.0
1187.0
1186.0
1192.0
1189.0
1186.0
1182.0
1178.0
1180.0
1179.0
1178.0
1173.0
1168.0
1163.0
1161.0
1157.0
1154.0
1147.0
1140.0
1131.0
1127.0
1124.0
1116.0
1104.0
1093.0
1091.0
1083.0
1075.0
1065.0
1052.0
1040.0
1020.0
1009.0
999.0
994.0
986.0
980.0
967.0
960.0
952.0
947.0
938.0
932.0
926.0
924.0
926.0
921.0
912.0
908.0
903.0
899.0
898.0
895.0
892.0
888.0
887.0
891.0
893.0
894.0
889.0
882.0
878.0
884.0
884.0
885.0
882.0
879.0
880.0
881.0
883.0
883.0
880.0
879.0
878.0
878.0
880.0
879.0
878.0
874.0
873.0
875.0
879.0
880.0
879.0
873.0
868.0
869.0
872.0
876.0
879.0
879.0
879.0
881.0
880.0
882.0
883.0
885.0
884.0
887.0
886.0
888.0
891.0
892.0
891.0
888.0
882.0
881.0
879.0
880.0
881.0
883.0
880.0
878.0
873.0
872.0
875.0
881.0
882.0
884.0
883.0
880.0
874.0
869.0
868.0
875.0
873.0
871.0
868.0
864.0
867.0
869.0
870.0
870.0
864.0
867.0
869.0
872.0
871.0
872.0
870.0
870.0
866.0
867.0
865.0
864.0
864.0
870.0
871.0
872.0
868.0
866.0
862.0
864.0
865.0
865.0
864.0
864.0
860.0
863.0
865.0
868.0
868.0
865.0
860.0
858.0
863.0
868.0
872.0
869.0
860.0
859.0
860.0
864.0
868.0
870.0
875.0
877.0
890.0
907.0
935.0
997.0
1112.0
1239.0
1366.0
1469.0
1465.0
1436.0
1411.0
1396.0
1378.0
1358.0
1333.0
1308.0
1284.0
1258.0
1235.0
1212.0
1188.0
1162.0
1136.0
1109.0
1078.0
1039.0
996.0
958.0
921.0
897.0
872.0
850.0
826.0
801.0
781.0
768.0
760.0
761.0
760.0
751.0
731.0
711.0
691.0
669.0
644.0
622.0
596.0
576.0
572.0
581.0
604.0
627.0
650.0
674.0
699.0
713.0
719.0
725.0
726.0
725.0
724.0
720.0
719.0
718.0
720.0
728.0
736.0
743.0
751.0
759.0
770.0
782.0
791.0
797.0
798.0
798.0
799.0
809.0
823.0
833.0
838.0
840.0
846.0
854.0
860.0
860.0
855.0
850.0
849.0
851.0
852.0
852.0
852.0
855.0
856.0
861.0
869.0
870.0
870.0
865.0
862.0
860.0
865.0
870.0
877.0
881.0
882.0
887.0
887.0
893.0
899.0
902.0
907.0
908.0
909.0
907.0
907.0
908.0
912.0
921.0
925.0
931.0
930.0
929.0
926.0
925.0
929.0
934.0
934.0
934.0
937.0
941.0
944.0
948.0
951.0
945.0
945.0
940.0
941.0
941.0
940.0
940.0
937.0
935.0
934.0
930.0
925.0
922.0
915.0
909.0
908.0
906.0
898.0
886.0
874.0
871.0
870.0
868.0
859.0
849.0
837.0
831.0
826.0
822.0
819.0
814.0
809.0
809.0
808.0
806.0
799.0
792.0
785.0
785.0
785.0
786.0
787.0
783.0
778.0
778.0
781.0
780.0
780.0
776.0
771.0
772.0
774.0
776.0
775.0
773.0
770.0
768.0
768.0
770.0
768.0
768.0
766.0
766.0
768.0
772.0
771.0
771.0
769.0
770.0
775.0
778.0
777.0
775.0
770.0
772.0
774.0
776.0
779.0
779.0
773.0
769.0
773.0
779.0
781.0
781.0
773.0
767.0
765.0
773.0
777.0
778.0
777.0
780.0
783.0
786.0
785.0
780.0
777.0
781.0
783.0
785.0
783.0
782.0
780.0
781.0
785.0
789.0
792.0
791.0
788.0
786.0
789.0
789.0
786.0
783.0
779.0
778.0
784.0
786.0
788.0
787.0
784.0
787.0
789.0
791.0
793.0
793.0
792.0
795.0
797.0
799.0
798.0
795.0
795.0
796.0
795.0
797.0
799.0
801.0
802.0
803.0
804.0
802.0
799.0
799.0
799.0
801.0
800.0
801.0
805.0
807.0
812.0
817.0
816.0
811.0
811.0
813.0
813.0
817.0
820.0
825.0
830.0
835.0
840.0
853.0
877.0
915.0
988.0
1115.0
1242.0
1369.0
1496.0
1499.0
1467.0
1442.0
1426.0
1412.0
1393.0
1372.0
1346.0
1317.0
1294.0
1273.0
1251.0
1225.0
1195.0
1164.0
1131.0
1099.0
1067.0
1031.0
987.0
942.0
903.0
875.0
849.0
826.0
796.0
779.0
762.0
758.0
754.0
746.0
726.0
703.0
675.0
653.0
637.0
619.0
600.0
580.0
567.0
573.0
591.0
613.0
638.0
657.0
667.0
682.0
688.0
700.0
705.0
706.0
704.0
707.0
709.0
711.0
711.0
708.0
707.0
709.0
719.0
729.0
740.0
747.0
753.0
759.0
767.0
774.0
780.0
791.0
800.0
811.0
819.0
828.0
840.0
847.0
853.0
858.0
860.0
861.0
862.0
866.0
867.0
868.0
871.0
875.0
875.0
877.0
876.0
881.0
885.0
896.0
897.0
902.0
900.0
904.0
908.0
914.0
922.0
924.0
926.0
927.0
930.0
937.0
944.0
951.0
958.0
968.0
978.0
985.0
988.0
983.0
983.0
989.0
995.0
1008.0
1015.0
1016.0
1021.0
1029.0
1032.0
1032.0
1032.0
1035.0
1038.0
1044.0
1048.0
1051.0
1049.0
1044.0
1039.0
1039.0
1039.0
1037.0
1035.0
1029.0
1024.0
1022.0
1022.0
1021.0
1015.0
1007.0
1000.0
999.0
997.0
989.0
979.0
970.0
960.0
952.0
946.0
941.0
933.0
927.0
921.0
915.0
908.0
904.0
896.0
891.0
885.0
888.0
886.0
885.0
879.0
872.0
864.0
859.0
861.0
861.0
858.0
853.0
851.0
853.0
855.0
859.0
864.0
864.0
860.0
857.0
854.0
850.0
848.0
849.0
848.0
853.0
854.0
857.0
857.0
855.0
853.0
855.0
857.0
858.0
857.0
856.0
851.0
852.0
856.0
858.0
858.0
857.0
855.0
858.0
858.0
859.0
858.0
855.0
859.0
862.0
866.0
869.0
870.0
871.0
871.0
874.0
871.0
871.0
870.0
871.0
873.0
873.0
872.0
873.0
876.0
876.0
874.0
875.0
874.0
874.0
874.0
871.0
874.0
876.0
877.0
879.0
878.0
878.0
876.0
878.0
878.0
880.0
879.0
881.0
882.0
883.0
882.0
883.0
886.0
891.0
894.0
894.0
896.0
897.0
904.0
911.0
916.0
921.0
928.0
932.0
931.0
927.0
932.0
939.0
944.0
947.0
944.0
940.0
935.0
934.0
935.0
940.0
943.0
944.0
944.0
944.0
947.0
946.0
943.0
938.0
931.0
930.0
929.0
927.0
922.0
922.0
916.0
915.0
910.0
908.0
904.0
902.0
903.0
906.0
909.0
910.0
910.0
910.0
914.0
923.0
944.0
974.0
1028.0
1128.0
1255.0
1382.0
1509.0
1553.0
1533.0
1507.0
1484.0
1466.0
1449.0
1428.0
1403.0
1377.0
1355.0
1338.0
1319.0
1301.0
1279.0
1256.0
1234.0
1209.0
1181.0
1147.0
1109.0
1080.0
1056.0
1035.0
1015.0
994.0
973.0
953.0
927.0
902.0
892.0
886.0
885.0
878.0
872.0
866.0
852.0
830.0
806.0
783.0
760.0
739.0
717.0
700.0
684.0
684.0
691.0
710.0
728.0
748.0
767.0
776.0
778.0
781.0
784.0
789.0
786.0
787.0
787.0
787.0
792.0
792.0
788.0
789.0
791.0
802.0
815.0
825.0
831.0
833.0
841.0
848.0
857.0
867.0
877.0
886.0
899.0
915.0
927.0
938.0
945.0
951.0
953.0
958.0
956.0
953.0
953.0
957.0
960.0
967.0
970.0
974.0
974.0
975.0
978.0
982.0
991.0
993.0
997.0
997.0
1000.0
1005.0
1011.0
1016.0
1018.0
1018.0
1021.0
1024.0
1030.0
1034.0
1043.0
1049.0
1056.0
1064.0
1069.0
1074.0
1072.0
1070.0
1068.0
1073.0
1083.0
1091.0
1098.0
1103.0
1106.0
1110.0
1111.0
1114.0
1112.0
1114.0
1113.0
1117.0
1121.0
1125.0
1129.0
1126.0
1123.0
1119.0
1119.0
1119.0
1115.0
1110.0
1108.0
1105.0
1102.0
1100.0
1098.0
1089.0
1083.0
1079.0
1076.0
1072.0
1062.0
1051.0
1038.0
1036.0
1033.0
1034.0
1028.0
1021.0
1011.0
1000.0
990.0
985.0
978.0
972.0
965.0
959.0
956.0
953.0
950.0
945.0
942.0
941.0
943.0
942.0
939.0
933.0
931.0
932.0
935.0
935.0
932.0
928.0
921.0
919.0
919.0
919.0
920.0
919.0
920.0
924.0
927.0
927.0
921.0
917.0
916.0
917.0
922.0
923.0
924.0
921.0
920.0
924.0
929.0
929.0
930.0
929.0
926.0
928.0
929.0
933.0
935.0
936.0
940.0
950.0
955.0
961.0
963.0
962.0
964.0
970.0
975.0
982.0
986.0
989.0
990.0
990.0
988.0
984.0
979.0
975.0
980.0
983.0
986.0
989.0
985.0
980.0
979.0
977.0
982.0
987.0
987.0
980.0
970.0
962.0
956.0
956.0
954.0
949.0
945.0
943.0
942.0
942.0
940.0
940.0
933.0
929.0
923.0
919.0
914.0
912.0
917.0
921.0
923.0
923.0
920.0
921.0
920.0
923.0
924.0
927.0
926.0
927.0
926.0
930.0
929.0
927.0
922.0
917.0
917.0
920.0
926.0
927.0
927.0
928.0
926.0
922.0
922.0
924.0
925.0
925.0
926.0
928.0
928.0
929.0
931.0
932.0
935.0
935.0
935.0
935.0
938.0
940.0
941.0
950.0
953.0
954.0
955.0
958.0
966.0
988.0
1035.0
1126.0
1253.0
1380.0
1507.0
1581.0
1565.0
1538.0
1513.0
1500.0
1478.0
1454.0
1433.0
1415.0
1398.0
1376.0
1351.0
1325.0
1299.0
1276.0
1254.0
1232.0
1203.0
1172.0
1141.0
1110.0
1077.0
1052.0
1034.0
1016.0
995.0
968.0
946.0
933.0
925.0
921.0
917.0
911.0
898.0
878.0
855.0
830.0
805.0
788.0
764.0
741.0
720.0
713.0
720.0
734.0
747.0
767.0
790.0
814.0
824.0
825.0
827.0
828.0
830.0
832.0
838.0
842.0
846.0
846.0
842.0
848.0
854.0
863.0
875.0
882.0
884.0
891.0
898.0
907.0
918.0
931.0
943.0
954.0
967.0
978.0
989.0
997.0
1006.0
1014.0
1022.0
1024.0
1025.0
1025.0
1028.0
1030.0
1038.0
1042.0
1045.0
1046.0
1049.0
1055.0
1059.0
1061.0
1060.0
1058.0
1055.0
1060.0
1065.0
1070.0
1074.0
1080.0
1080.0
1085.0
1088.0
1094.0
1098.0
1101.0
1106.0
1115.0
1120.0
1126.0
1128.0
1128.0
1130.0
1134.0
1149.0
1158.0
1159.0
1159.0
1159.0
1164.0
1169.0
1171.0
1172.0
1173.0
1177.0
1185.0
1187.0
1190.0
1182.0
1177.0
1173.0
1172.0
1176.0
1176.0
1173.0
1172.0
1171.0
1169.0
1166.0
1161.0
1151.0
1143.0
1135.0
1134.0
1133.0
1131.0
1130.0
1126.0
1120.0
1113.0
1107.0
1101.0
1090.0
1087.0
1080.0
1080.0
1083.0
1082.0
1080.0
1077.0
1071.0
1070.0
1069.0
1069.0
1070.0
1071.0
1070.0
1069.0
1069.0
1068.0
1068.0
1064.0
1058.0
1047.0
1040.0
1033.0
1028.0
1025.0
1022.0
1020.0
1021.0
1022.0
1023.0
1024.0
1023.0
1022.0
1022.0
1020.0
1014.0
1005.0
993.0
990.0
991.0
991.0
987.0
982.0
975.0
971.0
969.0
967.0
966.0
965.0
963.0
959.0
959.0
960.0
957.0
956.0
952.0
953.0
955.0
958.0
957.0
954.0
950.0
950.0
953.0
949.0
950.0
945.0
944.0
943.0
950.0
953.0
955.0
956.0
955.0
955.0
956.0
957.0
958.0
956.0
956.0
958.0
961.0
961.0
958.0
955.0
951.0
954.0
956.0
960.0
960.0
958.0
954.0
957.0
959.0
960.0
960.0
957.0
955.0
955.0
957.0
960.0
964.0
968.0
965.0
966.0
964.0
964.0
962.0
959.0
957.0
957.0
961.0
961.0
965.0
968.0
965.0
966.0
966.0
967.0
969.0
969.0
969.0
968.0
972.0
972.0
972.0
972.0
976.0
979.0
982.0
984.0
984.0
984.0
982.0
983.0
986.0
990.0
996.0
1000.0
998.0
995.0
987.0
984.0
986.0
985.0
985.0
988.0
993.0
996.0
1000.0
1006.0
1003.0
1009.0
1014.0
1021.0
1034.0
1045.0
1071.0
1129.0
1232.0
1359.0
1486.0
1582.0
1598.0
1584.0
1571.0
1562.0
1544.0
1523.0
1498.0
1477.0
1459.0
1444.0
1427.0
1406.0
1379.0
1348.0
1320.0
1291.0
1259.0
1224.0
1190.0
1150.0
1116.0
1079.0
1041.0
1009.0
978.0
957.0
931.0
909.0
888.0
864.0
847.0
839.0
838.0
828.0
812.0
792.0
772.0
758.0
740.0
727.0
707.0
695.0
692.0
701.0
722.0
744.0
769.0
801.0
830.0
852.0
865.0
867.0
869.0
874.0
877.0
886.0
897.0
906.0
906.0
907.0
904.0
911.0
925.0
938.0
956.0
967.0
970.0
982.0
992.0
1005.0
1015.0
1020.0
1030.0
1041.0
1049.0
1061.0
1075.0
1090.0
1102.0
1113.0
1121.0
1123.0
1127.0
1130.0
1133.0
1137.0
1138.0
1140.0
1143.0
1143.0
1144.0
1152.0
1157.0
1165.0
1169.0
1177.0
1180.0
1185.0
1191.0
1196.0
1197.0
1197.0
1195.0
1201.0
1214.0
1227.0
1238.0
1246.0
1256.0
1267.0
1282.0
1292.0
1300.0
1306.0
1308.0
1316.0
1320.0
1332.0
1341.0
1348.0
1349.0
1349.0
1345.0
1346.0
1347.0
1348.0
1347.0
1350.0
1351.0
1352.0
1350.0
1346.0
1347.0
1346.0
1342.0
1332.0
1319.0
1312.0
1306.0
1302.0
1297.0
1288.0
1278.0
1264.0
1253.0
1244.0
1236.0
1228.0
1219.0
1206.0
1194.0
1182.0
1172.0
1160.0
1148.0
1136.0
1122.0
1111.0
1105.0
1099.0
1095.0
1092.0
1085.0
1077.0
1066.0
1060.0
1055.0
1052.0
1050.0
1045.0
1041.0
1039.0
1035.0
1031.0
1027.0
1025.0
1024.0
1025.0
1023.0
1016.0
1011.0
1010.0
1012.0
1012.0
1010.0
1008.0
1004.0
1004.0
1009.0
1013.0
1014.0
1011.0
1005.0
1001.0
1001.0
1002.0
1006.0
1005.0
1005.0
1006.0
1012.0
1012.0
1013.0
1009.0
1007.0
1007.0
1010.0
1013.0
1013.0
1014.0
1013.0
1013.0
1013.0
1010.0
1008.0
1006.0
1006.0
1008.0
1016.0
1019.0
1020.0
1020.0
1022.0
1025.0
1031.0
1032.0
1032.0
1026.0
1019.0
1019.0
1020.0
1021.0
1022.0
1023.0
1022.0
1018.0
1019.0
1019.0
1023.0
1024.0
1026.0
1027.0
1030.0
1030.0
1029.0
1027.0
1025.0
1027.0
1027.0
1030.0
1028.0
1025.0
1024.0
1028.0
1029.0
1033.0
1032.0
1030.0
1030.0
1032.0
1032.0
1033.0
1031.0
1029.0
1027.0
1028.0
1028.0
1030.0
1029.0
1029.0
1027.0
1027.0
1028.0
1033.0
1034.0
1033.0
1031.0
1030.0
1033.0
1036.0
1036.0
1035.0
1034.0
1036.0
1040.0
1042.0
1048.0
1048.0
1046.0
1046.0
1046.0
1047.0
1047.0
1039.0
1035.0
1037.0
1042.0
1045.0
1045.0
1046.0
1051.0
1055.0
1059.0
1066.0
1078.0
1098.0
1145.0
1245.0
1372.0
1499.0
1571.0
1582.0
1564.0
1551.0
1542.0
1531.0
1512.0
1494.0
1473.0
1457.0
1436.0
1415.0
1393.0
1367.0
1341.0
1311.0
1284.0
1254.0
1219.0
1184.0
1142.0
1105.0
1075.0
1055.0
1030.0
999.0
966.0
941.0
927.0
920.0
910.0
908.0
895.0
869.0
839.0
808.0
778.0
754.0
727.0
699.0
685.0
688.0
712.0
739.0
773.0
810.0
841.0
860.0
870.0
875.0
885.0
899.0
905.0
908.0
914.0
920.0
922.0
927.0
932.0
944.0
961.0
977.0
997.0
1014.0
1025.0
1035.0
1045.0
1067.0
1088.0
1111.0
1128.0
1138.0
1145.0
1151.0
1158.0
1166.0
1173.0
1177.0
1174.0
1172.0
1171.0
1175.0
1181.0
1182.0
1178.0
1176.0
1173.0
1173.0
1176.0
1180.0
1181.0
1177.0
1170.0
1165.0
1164.0
1163.0
1166.0
1171.0
1169.0
1174.0
1180.0
1184.0
1186.0
1183.0
1189.0
1196.0
1201.0
1206.0
1209.0
1208.0
1209.0
1210.0
1215.0
1223.0
1223.0
1220.0
1216.0
1216.0
1220.0
1223.0
1225.0
1227.0
1227.0
1227.0
1223.0
1215.0
1210.0
1206.0
1206.0
1208.0
1209.0
1206.0
1198.0
1191.0
1183.0
1184.0
1180.0
1179.0
1171.0
1161.0
1151.0
1145.0
1137.0
1130.0
1122.0
1110.0
1098.0
1092.0
1086.0
1080.0
1072.0
1064.0
1060.0
1059.0
1055.0
1053.0
1047.0
1040.0
1036.0
1033.0
1030.0
1030.0
1028.0
1029.0
1028.0
1030.0
1030.0
1023.0
1014.0
1006.0
999.0
1003.0
1006.0
1010.0
1008.0
1007.0
1001.0
1002.0
1001.0
1004.0
1006.0
1009.0
1009.0
1013.0
1015.0
1016.0
1010.0
1002.0
997.0
995.0
996.0
996.0
995.0
994.0
994.0
999.0
1004.0
1008.0
1008.0
1004.0
1001.0
1002.0
1006.0
1011.0
1010.0
1007.0
1007.0
1007.0
1012.0
1016.0
1020.0
1020.0
1015.0
1015.0
1015.0
1016.0
1015.0
1013.0
1011.0
1009.0
1009.0
1013.0
1018.0
1019.0
1017.0
1015.0
1015.0
1013.0
1014.0
1012.0
1011.0
1011.0
1015.0
1016.0
1015.0
1011.0
1008.0
1007.0
1012.0
1019.0
1019.0
1018.0
1014.0
1012.0
1018.0
1017.0
1017.0
1016.0
1014.0
1015.0
1018.0
1019.0
1020.0
1023.0
1020.0
1018.0
1020.0
1019.0
1023.0
1014.0
1006.0
1010.0
1017.0
1026.0
1027.0
1026.0
1023.0
1017.0
1016.0
1016.0
1017.0
1019.0
1015.0
1018.0
1019.0
1021.0
1020.0
1018.0
1018.0
1021.0
1025.0
1027.0
1028.0
1029.0
1027.0
1032.0
1039.0
1050.0
1060.0
1075.0
1111.0
1192.0
1314.0
1437.0
1513.0
1537.0
1526.0
1515.0
1509.0
1504.0
1491.0
1475.0
1461.0
1447.0
1432.0
1418.0
1402.0
1381.0
1364.0
1348.0
1332.0
1313.0
1287.0
1262.0
1232.0
1207.0
1183.0
1160.0
1134.0
1104.0
1072.0
1045.0
1026.0
1014.0
1003.0
998.0
994.0
982.0
961.0
933.0
901.0
868.0
838.0
799.0
765.0
743.0
743.0
760.0
786.0
815.0
842.0
860.0
866.0
868.0
870.0
877.0
879.0
876.0
874.0
872.0
868.0
863.0
865.0
871.0
880.0
898.0
912.0
925.0
936.0
946.0
953.0
958.0
969.0
983.0
1000.0
1014.0
1023.0
1032.0
1041.0
1048.0
1053.0
1054.0
1055.0
1057.0
1059.0
1063.0
1067.0
1068.0
1068.0
1069.0
1070.0
1074.0
1078.0
1079.0
1082.0
1085.0
1086.0
1090.0
1090.0
1092.0
1100.0
1104.0
1104.0
1108.0
1111.0
1119.0
1124.0
1131.0
1134.0
1142.0
1146.0
1150.0
1156.0
1164.0
1170.0
1171.0
1180.0
1190.0
1194.0
1191.0
1192.0
1190.0
1192.0
1200.0
1201.0
1207.0
1211.0
1212.0
1213.0
1210.0
1204.0
1195.0
1192.0
1189.0
1191.0
1193.0
1188.0
1178.0
1169.0
1164.0
1162.0
1158.0
1154.0
1147.0
1136.0
1129.0
1119.0
1111.0
1100.0
1095.0
1088.0
1084.0
1080.0
1069.0
1060.0
1051.0
1044.0
1040.0
1038.0
1038.0
1033.0
1026.0
1018.0
1016.0
1019.0
1018.0
1012.0
1000.0
996.0
991.0
992.0
994.0
996.0
994.0
990.0
986.0
983.0
983.0
983.0
985.0
985.0
989.0
988.0
988.0
983.0
975.0
971.0
974.0
978.0
983.0
983.0
984.0
981.0
979.0
982.0
983.0
983.0
983.0
982.0
981.0
986.0
989.0
989.0
993.0
995.0
996.0
996.0
991.0
986.0
983.0
984.0
988.0
993.0
998.0
998.0
997.0
992.0
992.0
994.0
999.0
997.0
995.0
992.0
990.0
990.0
992.0
991.0
990.0
988.0
990.0
992.0
995.0
995.0
992.0
989.0
990.0
992.0
994.0
996.0
999.0
998.0
999.0
1002.0
997.0
994.0
991.0
989.0
990.0
993.0
998.0
997.0
993.0
992.0
995.0
999.0
1002.0
1006.0
1005.0
1013.0
1018.0
1022.0
1023.0
1025.0
1029.0
1037.0
1043.0
1042.0
1041.0
1043.0
1046.0
1055.0
1066.0
1074.0
1070.0
1060.0
1050.0
1045.0
1045.0
1051.0
1056.0
1060.0
1061.0
1059.0
1061.0
1063.0
1064.0
1062.0
1060.0
1057.0
1060.0
1065.0
1084.0
1130.0
1223.0
1350.0
1460.0
1507.0
1506.0
1493.0
1479.0
1467.0
1456.0
1440.0
1427.0
1410.0
1391.0
1371.0
1353.0
1336.0
1320.0
1298.0
1272.0
1244.0
1211.0
1183.0
1158.0
1134.0
1107.0
1077.0
1047.0
1020.0
993.0
969.0
951.0
933.0
921.0
912.0
910.0
905.0
885.0
858.0
833.0
809.0
779.0
747.0
711.0
682.0
663.0
665.0
693.0
736.0
769.0
794.0
811.0
823.0
830.0
834.0
838.0
839.0
845.0
847.0
848.0
843.0
836.0
832.0
833.0
845.0
858.0
874.0
883.0
888.0
896.0
906.0
921.0
936.0
950.0
967.0
981.0
996.0
1006.0
1015.0
1024.0
1031.0
1035.0
1038.0
1040.0
1043.0
1046.0
1051.0
1054.0
1059.0
1060.0
1061.0
1062.0
1061.0
1067.0
1073.0
1082.0
1087.0
1090.0
1094.0
1102.0
1109.0
1113.0
1110.0
1111.0
1111.0
1118.0
1127.0
1134.0
1141.0
1145.0
1142.0
1146.0
1154.0
1162.0
1168.0
1173.0
1175.0
1176.0
1179.0
1183.0
1186.0
1191.0
1193.0
1195.0
1199.0
1204.0
1203.0
1205.0
1198.0
1200.0
1198.0
1199.0
1199.0
1199.0
1197.0
1196.0
1193.0
1185.0
1178.0
1173.0
1169.0
1168.0
1167.0
1167.0
1163.0
1156.0
1149.0
1139.0
1131.0
1123.0
1114.0
1105.0
1094.0
1088.0
1083.0
1078.0
1072.0
1061.0
1054.0
1049.0
1044.0
1041.0
1034.0
1028.0
1020.0
1015.0
1010.0
1011.0
1007.0
1001.0
993.0
989.0
989.0
990.0
991.0
988.0
986.0
986.0
980.0
980.0
976.0
977.0
972.0
970.0
973.0
976.0
978.0
979.0
979.0
979.0
979.0
977.0
973.0
966.0
960.0
959.0
961.0
962.0
963.0
961.0
961.0
966.0
974.0
977.0
976.0
971.0
966.0
964.0
966.0
969.0
972.0
970.0
967.0
967.0
969.0
973.0
977.0
979.0
984.0
990.0
994.0
995.0
999.0
1001.0
1004.0
1013.0
1021.0
1025.0
1029.0
1029.0
1032.0
1037.0
1045.0
1049.0
1048.0
1040.0
1033.0
1028.0
1031.0
1033.0
1032.0
1026.0
1018.0
1017.0
1019.0
1022.0
1025.0
1018.0
1013.0
1007.0
1006.0
1005.0
1001.0
998.0
992.0
989.0
984.0
978.0
973.0
968.0
966.0
966.0
967.0
967.0
961.0
955.0
946.0
948.0
950.0
959.0
963.0
959.0
953.0
952.0
951.0
952.0
952.0
952.0
952.0
952.0
953.0
948.0
944.0
944.0
945.0
949.0
950.0
949.0
951.0
952.0
953.0
957.0
957.0
953.0
952.0
953.0
954.0
956.0
957.0
960.0
965.0
965.0
964.0
968.0
978.0
991.0
1019.0
1075.0
1180.0
1307.0
1422.0
1473.0
1473.0
1459.0
1451.0
1444.0
1435.0
1422.0
1406.0
1392.0
1376.0
1365.0
1354.0
1340.0
1319.0
1293.0
1267.0
1244.0
1224.0
1206.0
1182.0
1152.0
1116.0
1080.0
1048.0
1019.0
997.0
975.0
948.0
918.0
896.0
881.0
867.0
857.0
843.0
830.0
812.0
790.0
766.0
737.0
710.0
692.0
670.0
647.0
624.0
613.0
617.0
636.0
661.0
687.0
715.0
742.0
761.0
768.0
775.0
784.0
794.0
802.0
809.0
816.0
826.0
833.0
835.0
833.0
832.0
842.0
860.0
876.0
887.0
894.0
903.0
916.0
927.0
936.0
947.0
960.0
974.0
984.0
995.0
1010.0
1017.0
1029.0
1038.0
1047.0
1055.0
1057.0
1061.0
1062.0
1063.0
1067.0
1071.0
1078.0
1079.0
1077.0
1080.0
1079.0
1084.0
1089.0
1089.0
1088.0
1087.0
1092.0
1106.0
1119.0
1120.0
1123.0
1124.0
1128.0
1133.0
1139.0
1146.0
1149.0
1152.0
1156.0
1160.0
1164.0
1170.0
1175.0
1176.0
1178.0
1187.0
1191.0
1196.0
1195.0
1197.0
1202.0
1210.0
1213.0
1215.0
1217.0
1214.0
1216.0
1217.0
1220.0
1219.0
1214.0
1208.0
1207.0
1209.0
1211.0
1209.0
1205.0
1198.0
1196.0
1191.0
1186.0
1181.0
1177.0
1171.0
1166.0
1154.0
1144.0
1134.0
1126.0
1118.0
1114.0
1109.0
1103.0
1095.0
1083.0
1073.0
1066.0
1060.0
1052.0
1044.0
1037.0
1025.0
1021.0
1020.0
1019.0
1016.0
1014.0
1009.0
1009.0
1009.0
1010.0
1009.0
1012.0
1016.0
1020.0
1020.0
1019.0
1019.0
1022.0
1019.0
1018.0
1021.0
1025.0
1026.0
1021.0
1015.0
1010.0
1009.0
1008.0
1009.0
1009.0
1007.0
1006.0
1009.0
1005.0
1007.0
1005.0
1000.0
998.0
999.0
993.0
987.0
985.0
978.0
974.0
973.0
973.0
968.0
963.0
955.0
954.0
954.0
954.0
951.0
947.0
942.0
939.0
939.0
937.0
933.0
931.0
929.0
931.0
935.0
935.0
932.0
929.0
928.0
930.0
931.0
927.0
925.0
925.0
926.0
929.0
931.0
932.0
928.0
926.0
924.0
923.0
930.0
931.0
932.0
927.0
926.0
925.0
