# Simple Text Format
# Sampling Rate (Hz):= 360.00
# Resolution:= 12
# Labels:= ECG
1279.0
1253.0
1228.0
1212.0
1198.0
1181.0
1157.0
1135.0
1109.0
1088.0
1068.0
1039.0
1008.0
977.0
938.0
902.0
864.0
827.0
796.0
765.0
737.0
711.0
699.0
695.0
693.0
692.0
691.0
677.0
666.0
654.0
650.0
644.0
627.0
603.0
583.0
579.0
584.0
604.0
639.0
668.0
702.0
727.0
746.0
762.0
773.0
778.0
785.0
791.0
794.0
798.0
801.0
804.0
806.0
811.0
818.0
827.0
836.0
847.0
858.0
862.0
868.0
878.0
889.0
905.0
922.0
933.0
943.0
953.0
964.0
977.0
990.0
999.0
1003.0
1006.0
1010.0
1011.0
1018.0
1022.0
1026.0
1031.0
1032.0
1032.0
1034.0
1040.0
1047.0
1053.0
1059.0
1060.0
1067.0
1072.0
1074.0
1078.0
1081.0
1087.0
1097.0
1108.0
1114.0
1117.0
1119.0
1125.0
1132.0
1138.0
1144.0
1149.0
1151.0
1153.0
1156.0
1162.0
1170.0
1174.0
1178.0
1180.0
1182.0
1179.0
1175.0
1176.0
1178.0
1184.0
1189.0
1184.0
1177.0
1173.0
1171.0
1165.0
1162.0
1156.0
1154.0
1154.0
1145.0
1142.0
1139.0
1134.0
1126.0
1118.0
1107.0
1098.0
1091.0
1087.0
1081.0
1069.0
1060.0
1050.0
1036.0
1026.0
1024.0
1023.0
1015.0
1001.0
991.0
986.0
979.0
976.0
977.0
973.0
969.0
961.0
955.0
948.0
944.0
944.0
948.0
948.0
945.0
940.0
936.0
929.0
929.0
932.0
937.0
936.0
933.0
929.0
931.0
935.0
931.0
933.0
933.0
932.0
929.0
930.0
931.0
929.0
930.0
927.0
930.0
936.0
933.0
929.0
926.0
927.0
928.0
931.0
933.0
936.0
936.0
930.0
926.0
929.0
931.0
930.0
930.0
930.0
934.0
934.0
932.0
932.0
932.0
940.0
945.0
946.0
947.0
945.0
943.0
940.0
940.0
945.0
953.0
958.0
962.0
963.0
971.0
975.0
978.0
978.0
978.0
978.0
985.0
987.0
992.0
998.0
1002.0
996.0
991.0
989.0
996.0
999.0
998.0
994.0
994.0
991.0
988.0
985.0
981.0
978.0
978.0
975.0
966.0
954.0
951.0
952.0
948.0
946.0
935.0
931.0
925.0
922.0
923.0
930.0
933.0
924.0
917.0
914.0
920.0
920.0
920.0
917.0
917.0
915.0
918.0
919.0
920.0
919.0
918.0
916.0
918.0
921.0
926.0
928.0
929.0
931.0
934.0
935.0
937.0
943.0
963.0
1007.0
1097.0
1224.0
1351.0
1398.0
1373.0
1330.0
1308.0
1301.0
1288.0
1267.0
1244.0
1223.0
1208.0
1196.0
1187.0
1173.0
1151.0
1127.0
1104.0
1085.0
1069.0
1056.0
1039.0
1013.0
986.0
961.0
941.0
919.0
888.0
851.0
824.0
807.0
799.0
799.0
803.0
805.0
800.0
790.0
771.0
748.0
728.0
710.0
690.0
671.0
666.0
670.0
685.0
700.0
716.0
741.0
766.0
782.0
792.0
797.0
805.0
814.0
822.0
824.0
825.0
827.0
837.0
845.0
845.0
842.0
845.0
855.0
866.0
875.0
878.0
882.0
892.0
901.0
919.0
934.0
945.0
959.0
966.0
974.0
983.0
994.0
1004.0
1016.0
1020.0
1019.0
1018.0
1015.0
1014.0
1015.0
1021.0
1027.0
1036.0
1040.0
1043.0
1046.0
1050.0
1050.0
1052.0
1056.0
1058.0
1068.0
1080.0
1086.0
1090.0
1094.0
1094.0
1098.0
1104.0
1110.0
1113.0
1116.0
1119.0
1124.0
1132.0
1133.0
1140.0
1144.0
1150.0
1151.0
1156.0
1158.0
1161.0
1164.0
1164.0
1160.0
1159.0
1161.0
1163.0
1164.0
1161.0
1156.0
1161.0
1165.0
1164.0
1156.0
1148.0
1145.0
1141.0
1134.0
1124.0
1118.0
1114.0
1111.0
1106.0
1095.0
1089.0
1080.0
1074.0
1066.0
1058.0
1050.0
1052.0
1044.0
1033.0
1022.0
1017.0
1012.0
1007.0
1002.0
989.0
984.0
982.0
980.0
976.0
970.0
965.0
960.0
954.0
949.0
950.0
947.0
945.0
938.0
938.0
943.0
947.0
948.0
944.0
940.0
937.0
936.0
939.0
943.0
943.0
941.0
941.0
947.0
960.0
974.0
979.0
980.0
976.0
977.0
979.0
984.0
983.0
982.0
988.0
992.0
996.0
997.0
993.0
995.0
993.0
990.0
989.0
984.0
983.0
984.0
984.0
985.0
990.0
995.0
991.0
982.0
972.0
967.0
970.0
967.0
954.0
941.0
938.0
938.0
934.0
931.0
928.0
924.0
921.0
918.0
918.0
921.0
919.0
913.0
907.0
905.0
906.0
911.0
914.0
915.0
913.0
909.0
909.0
914.0
915.0
914.0
912.0
909.0
907.0
909.0
912.0
913.0
906.0
901.0
906.0
911.0
911.0
910.0
906.0
906.0
905.0
909.0
910.0
909.0
908.0
911.0
906.0
906.0
908.0
907.0
910.0
907.0
907.0
911.0
909.0
908.0
907.0
911.0
910.0
911.0
910.0
912.0
910.0
909.0
910.0
912.0
915.0
920.0
917.0
913.0
912.0
916.0
920.0
922.0
924.0
930.0
936.0
941.0
945.0
964.0
1002.0
1074.0
1190.0
1316.0
1386.0
1379.0
1337.0
1302.0
1285.0
1274.0
1253.0
1236.0
1212.0
1193.0
1175.0
1156.0
1136.0
1110.0
1086.0
1065.0
1043.0
1022.0
990.0
953.0
914.0
864.0
819.0
785.0
752.0
716.0
683.0
653.0
638.0
630.0
626.0
620.0
611.0
603.0
591.0
579.0
564.0
557.0
547.0
541.0
537.0
547.0
567.0
592.0
614.0
641.0
678.0
713.0
740.0
753.0
760.0
769.0
786.0
796.0
806.0
815.0
828.0
842.0
854.0
858.0
860.0
864.0
871.0
881.0
891.0
900.0
911.0
928.0
942.0
949.0
963.0
974.0
986.0
996.0
1004.0
1013.0
1029.0
1046.0
1054.0
1056.0
1057.0
1061.0
1072.0
1079.0
1079.0
1080.0
1081.0
1084.0
1089.0
1093.0
1098.0
1101.0
1106.0
1110.0
1120.0
1130.0
1136.0
1136.0
1136.0
1136.0
1144.0
1154.0
1165.0
1174.0
1178.0
1181.0
1185.0
1189.0
1192.0
1195.0
1202.0
1206.0
1214.0
1219.0
1222.0
1224.0
1233.0
1242.0
1242.0
1240.0
1236.0
1237.0
1238.0
1244.0
1248.0
1247.0
1245.0
1236.0
1229.0
1223.0
1228.0
1228.0
1219.0
1205.0
1193.0
1188.0
1189.0
1191.0
1186.0
1183.0
1176.0
1168.0
1165.0
1159.0
1156.0
1152.0
1146.0
1140.0
1135.0
1130.0
1122.0
1111.0
1105.0
1103.0
1102.0
1094.0
1087.0
1074.0
1065.0
1056.0
1050.0
1044.0
1040.0
1039.0
1034.0
1028.0
1023.0
1018.0
1017.0
1009.0
1007.0
1000.0
997.0
989.0
976.0
969.0
964.0
963.0
961.0
954.0
946.0
938.0
936.0
932.0
931.0
927.0
925.0
926.0
929.0
925.0
918.0
911.0
911.0
910.0
909.0
914.0
914.0
914.0
910.0
907.0
910.0
909.0
911.0
913.0
913.0
911.0
909.0
904.0
906.0
907.0
910.0
908.0
902.0
902.0
907.0
912.0
917.0
917.0
917.0
913.0
908.0
907.0
910.0
911.0
907.0
903.0
906.0
911.0
917.0
917.0
913.0
906.0
899.0
900.0
908.0
915.0
918.0
917.0
912.0
910.0
909.0
910.0
912.0
910.0
915.0
918.0
914.0
911.0
912.0
916.0
914.0
916.0
915.0
915.0
912.0
910.0
912.0
912.0
916.0
920.0
922.0
923.0
923.0
923.0
923.0
926.0
926.0
925.0
920.0
923.0
923.0
928.0
929.0
931.0
933.0
934.0
929.0
926.0
925.0
927.0
932.0
935.0
934.0
935.0
936.0
938.0
939.0
943.0
942.0
942.0
942.0
939.0
942.0
939.0
935.0
936.0
941.0
944.0
949.0
949.0
948.0
945.0
944.0
949.0
958.0
964.0
965.0
971.0
976.0
995.0
1033.0
1101.0
1214.0
1332.0
1399.0
1403.0
1373.0
1345.0
1328.0
1316.0
1304.0
1283.0
1261.0
1242.0
1220.0
1203.0
1182.0
1156.0
1130.0
1106.0
1082.0
1057.0
1031.0
999.0
967.0
931.0
895.0
855.0
813.0
777.0
747.0
719.0
686.0
656.0
630.0
609.0
601.0
597.0
593.0
589.0
586.0
577.0
568.0
555.0
544.0
533.0
527.0
516.0
512.0
515.0
520.0
535.0
554.0
584.0
620.0
658.0
684.0
705.0
728.0
747.0
764.0
780.0
792.0
798.0
807.0
820.0
839.0
849.0
853.0
853.0
862.0
876.0
893.0
905.0
916.0
927.0
937.0
948.0
963.0
975.0
988.0
1000.0
1006.0
1018.0
1027.0
1042.0
1054.0
1068.0
1077.0
1084.0
1090.0
1094.0
1102.0
1104.0
1104.0
1099.0
1100.0
1106.0
1113.0
1119.0
1122.0
1127.0
1132.0
1138.0
1143.0
1149.0
1155.0
1159.0
1170.0
1181.0
1192.0
1198.0
1201.0
1207.0
1213.0
1224.0
1236.0
1247.0
1255.0
1259.0
1262.0
1273.0
1290.0
1299.0
1307.0
1301.0
1297.0
1299.0
1299.0
1303.0
1313.0
1315.0
1321.0
1317.0
1315.0
1315.0
1316.0
1316.0
1313.0
1308.0
1301.0
1294.0
1289.0
1283.0
1278.0
1271.0
1264.0
1254.0
1245.0
1242.0
1233.0
1221.0
1206.0
1192.0
1179.0
1176.0
1171.0
1164.0
1149.0
1134.0
1118.0
1104.0
1095.0
1086.0
1076.0
1068.0
1062.0
1054.0
1046.0
1042.0
1031.0
1019.0
1009.0
1003.0
996.0
990.0
982.0
974.0
968.0
963.0
961.0
962.0
959.0
954.0
951.0
944.0
941.0
939.0
936.0
935.0
927.0
926.0
928.0
933.0
934.0
925.0
923.0
921.0
924.0
925.0
924.0
920.0
918.0
919.0
924.0
926.0
921.0
919.0
917.0
917.0
919.0
922.0
926.0
925.0
925.0
921.0
918.0
917.0
919.0
920.0
922.0
923.0
926.0
925.0
921.0
915.0
909.0
912.0
921.0
928.0
927.0
923.0
921.0
918.0
922.0
924.0
924.0
919.0
922.0
923.0
926.0
928.0
927.0
925.0
925.0
919.0
919.0
924.0
926.0
927.0
927.0
925.0
929.0
929.0
926.0
918.0
918.0
925.0
933.0
934.0
928.0
926.0
929.0
928.0
928.0
928.0
925.0
923.0
924.0
923.0
930.0
934.0
931.0
926.0
924.0
927.0
930.0
935.0
932.0
927.0
924.0
926.0
928.0
928.0
927.0
931.0
929.0
927.0
925.0
928.0
933.0
935.0
939.0
937.0
934.0
928.0
927.0
928.0
935.0
939.0
941.0
939.0
935.0
936.0
939.0
946.0
948.0
946.0
940.0
931.0
928.0
929.0
932.0
937.0
936.0
940.0
944.0
951.0
952.0
947.0
945.0
949.0
954.0
955.0
962.0
967.0
977.0
1001.0
1061.0
1178.0
1305.0
1387.0
1386.0
1349.0
1316.0
1300.0
1286.0
1272.0
1249.0
1227.0
1208.0
1191.0
1174.0
1154.0
1131.0
1110.0
1093.0
1081.0
1060.0
1032.0
994.0
963.0
928.0
889.0
853.0
819.0
784.0
754.0
726.0
702.0
689.0
683.0
677.0
675.0
673.0
666.0
652.0
638.0
626.0
616.0
602.0
583.0
568.0
566.0
568.0
585.0
614.0
650.0
688.0
719.0
741.0
759.0
771.0
779.0
789.0
801.0
811.0
824.0
836.0
847.0
853.0
861.0
866.0
878.0
887.0
897.0
906.0
917.0
930.0
946.0
961.0
972.0
985.0
1001.0
1014.0
1030.0
1041.0
1051.0
1062.0
1071.0
1081.0
1086.0
1086.0
1084.0
1091.0
1101.0
1103.0
1102.0
1101.0
1102.0
1102.0
1101.0
1099.0
1097.0
1098.0
1094.0
1091.0
1088.0
1087.0
1087.0
1090.0
1099.0
1110.0
1115.0
1107.0
1104.0
1099.0
1101.0
1111.0
1120.0
1126.0
1128.0
1127.0
1127.0
1134.0
1144.0
1149.0
1154.0
1151.0
1148.0
1149.0
1151.0
1157.0
1155.0
1157.0
1156.0
1157.0
1160.0
1159.0
1159.0
1152.0
1137.0
1137.0
1139.0
1142.0
1143.0
1138.0
1134.0
1132.0
1127.0
1120.0
1113.0
1108.0
1102.0
1096.0
1089.0
1078.0
1073.0
1069.0
1063.0
1057.0
1050.0
1039.0
1035.0
1025.0
1010.0
1001.0
1004.0
999.0
994.0
983.0
973.0
967.0
968.0
963.0
958.0
951.0
946.0
940.0
940.0
938.0
937.0
935.0
931.0
935.0
936.0
934.0
932.0
926.0
918.0
915.0
920.0
924.0
929.0
924.0
917.0
914.0
917.0
918.0
921.0
918.0
915.0
917.0
918.0
914.0
911.0
911.0
910.0
914.0
921.0
921.0
915.0
912.0
912.0
913.0
915.0
913.0
910.0
910.0
914.0
918.0
922.0
919.0
911.0
907.0
910.0
916.0
920.0
919.0
917.0
916.0
913.0
916.0
918.0
921.0
926.0
928.0
923.0
919.0
922.0
921.0
924.0
922.0
917.0
918.0
924.0
929.0
930.0
928.0
922.0
920.0
923.0
924.0
923.0
922.0
922.0
919.0
925.0
931.0
933.0
933.0
930.0
928.0
927.0
921.0
923.0
925.0
926.0
928.0
928.0
929.0
931.0
931.0
928.0
930.0
926.0
924.0
926.0
930.0
934.0
936.0
932.0
931.0
929.0
929.0
927.0
928.0
930.0
934.0
931.0
929.0
925.0
927.0
924.0
930.0
937.0
944.0
945.0
944.0
938.0
936.0
935.0
933.0
931.0
937.0
943.0
951.0
947.0
942.0
939.0
941.0
944.0
950.0
952.0
951.0
949.0
952.0
960.0
972.0
992.0
1037.0
1128.0
1249.0
1356.0
1396.0
1374.0
1333.0
1307.0
1296.0
1286.0
1266.0
1244.0
1223.0
1208.0
1189.0
1173.0
1159.0
1146.0
1131.0
1114.0
1099.0
1080.0
1052.0
1026.0
1003.0
975.0
948.0
920.0
891.0
863.0
836.0
808.0
790.0
777.0
772.0
771.0
773.0
765.0
753.0
742.0
722.0
705.0
683.0
657.0
641.0
638.0
645.0
666.0
691.0
720.0
749.0
778.0
802.0
808.0
811.0
809.0
815.0
830.0
835.0
834.0
831.0
839.0
843.0
843.0
844.0
842.0
844.0
857.0
869.0
881.0
894.0
902.0
910.0
915.0
925.0
936.0
948.0
957.0
970.0
988.0
997.0
1004.0
1006.0
1013.0
1007.0
1006.0
1009.0
1022.0
1027.0
1022.0
1020.0
1019.0
1027.0
1032.0
1038.0
1041.0
1044.0
1047.0
1047.0
1052.0
1054.0
1059.0
1063.0
1065.0
1075.0
1083.0
1090.0
1094.0
1098.0
1103.0
1104.0
1106.0
1106.0
1108.0
1119.0
1130.0
1140.0
1146.0
1149.0
1152.0
1153.0
1155.0
1160.0
1165.0
1166.0
1168.0
1169.0
1167.0
1173.0
1177.0
1179.0
1178.0
1170.0
1163.0
1159.0
1158.0
1154.0
1148.0
1138.0
1129.0
1124.0
1123.0
1117.0
1110.0
1097.0
1090.0
1078.0
1071.0
1063.0
1058.0
1055.0
1045.0
1036.0
1026.0
1017.0
1011.0
999.0
990.0
987.0
994.0
994.0
986.0
971.0
961.0
962.0
962.0
962.0
958.0
955.0
955.0
955.0
953.0
951.0
948.0
943.0
943.0
945.0
943.0
939.0
935.0
932.0
936.0
940.0
941.0
936.0
931.0
932.0
934.0
935.0
934.0
935.0
939.0
942.0
939.0
936.0
936.0
937.0
935.0
933.0
932.0
935.0
942.0
941.0
942.0
939.0
938.0
939.0
946.0
948.0
944.0
945.0
945.0
946.0
948.0
950.0
950.0
952.0
950.0
950.0
952.0
950.0
949.0
946.0
947.0
949.0
952.0
952.0
953.0
950.0
948.0
947.0
949.0
945.0
948.0
950.0
953.0
950.0
949.0
951.0
954.0
952.0
949.0
952.0
953.0
951.0
949.0
947.0
948.0
951.0
955.0
955.0
954.0
945.0
949.0
950.0
955.0
955.0
953.0
952.0
951.0
951.0
953.0
953.0
956.0
953.0
954.0
953.0
955.0
954.0
959.0
963.0
963.0
961.0
964.0
970.0
975.0
976.0
979.0
987.0
998.0
1002.0
1003.0
1002.0
1003.0
1006.0
1013.0
1023.0
1033.0
1031.0
1027.0
1021.0
1022.0
1025.0
1028.0
1029.0
1031.0
1038.0
1049.0
1060.0
1081.0
1133.0
1239.0
1359.0
1424.0
1416.0
1378.0
1348.0
1334.0
1323.0
1308.0
1278.0
1247.0
1221.0
1197.0
1175.0
1154.0
1126.0
1103.0
1076.0
1048.0
1013.0
975.0
929.0
883.0
840.0
793.0
745.0
709.0
682.0
662.0
639.0
613.0
600.0
598.0
597.0
592.0
578.0
563.0
556.0
556.0
552.0
542.0
526.0
514.0
523.0
544.0
578.0
613.0
651.0
693.0
726.0
751.0
772.0
781.0
790.0
801.0
814.0
830.0
840.0
843.0
850.0
864.0
878.0
888.0
897.0
903.0
916.0
930.0
946.0
957.0
968.0
980.0
998.0
1012.0
1028.0
1043.0
1057.0
1066.0
1074.0
1082.0
1086.0
1090.0
1091.0
1092.0
1097.0
1111.0
1131.0
1143.0
1143.0
1138.0
1138.0
1145.0
1158.0
1170.0
1174.0
1180.0
1183.0
1187.0
1195.0
1205.0
1212.0
1220.0
1231.0
1243.0
1250.0
1260.0
1266.0
1270.0
1268.0
1275.0
1281.0
1294.0
1298.0
1298.0
1299.0
1302.0
1313.0
1317.0
1317.0
1315.0
1308.0
1306.0
1307.0
1310.0
1306.0
1303.0
1295.0
1289.0
1287.0
1287.0
1280.0
1267.0
1253.0
1245.0
1241.0
1239.0
1237.0
1224.0
1208.0
1194.0
1189.0
1182.0
1168.0
1150.0
1136.0
1131.0
1127.0
1114.0
1106.0
1100.0
1090.0
1079.0
1070.0
1062.0
1055.0
1049.0
1046.0
1039.0
1032.0
1021.0
1020.0
1021.0
1016.0
1011.0
1011.0
1015.0
1013.0
1007.0
998.0
996.0
997.0
997.0
994.0
993.0
998.0
1002.0
1000.0
994.0
995.0
995.0
993.0
993.0
999.0
1004.0
1003.0
997.0
986.0
986.0
991.0
995.0
994.0
991.0
987.0
987.0
990.0
992.0
994.0
995.0
988.0
988.0
988.0
993.0
1000.0
999.0
991.0
987.0
992.0
994.0
992.0
993.0
989.0
994.0
996.0
999.0
1000.0
996.0
987.0
988.0
990.0
993.0
997.0
1000.0
996.0
998.0
998.0
1007.0
1012.0
1016.0
1017.0
1020.0
1022.0
1023.0
1024.0
1029.0
1036.0
1042.0
1045.0
1046.0
1050.0
1045.0
1037.0
1037.0
1038.0
1043.0
1046.0
1041.0
1036.0
1034.0
1032.0
1035.0
1038.0
1036.0
1028.0
1018.0
1013.0
1015.0
1020.0
1019.0
1007.0
993.0
989.0
990.0
991.0
988.0
985.0
976.0
974.0
975.0
974.0
968.0
961.0
955.0
959.0
963.0
966.0
964.0
960.0
957.0
960.0
963.0
962.0
956.0
956.0
959.0
961.0
962.0
967.0
968.0
967.0
966.0
970.0
975.0
981.0
983.0
994.0
1025.0
1091.0
1204.0
1328.0
1400.0
1400.0
1363.0
1334.0
1317.0
1307.0
1289.0
1268.0
1251.0
1238.0
1223.0
1206.0
1185.0
1166.0
1153.0
1138.0
1118.0
1102.0
1083.0
1056.0
1027.0
995.0
963.0
931.0
896.0
862.0
830.0
802.0
785.0
768.0
756.0
748.0
747.0
745.0
747.0
731.0
710.0
688.0
673.0
665.0
652.0
634.0
626.0
637.0
659.0
679.0
702.0
728.0
754.0
777.0
792.0
801.0
808.0
812.0
817.0
821.0
829.0
846.0
858.0
864.0
860.0
855.0
862.0
881.0
892.0
901.0
907.0
917.0
931.0
942.0
955.0
967.0
977.0
987.0
999.0
1013.0
1026.0
1034.0
1040.0
1041.0
1039.0
1040.0
1045.0
1054.0
1062.0
1064.0
1066.0
1063.0
1070.0
1077.0
1079.0
1080.0
1082.0
1088.0
1090.0
1093.0
1091.0
1096.0
1106.0
1111.0
1115.0
1115.0
1117.0
1125.0
1131.0
1135.0
1138.0
1138.0
1141.0
1145.0
1148.0
1156.0
1160.0
1161.0
1161.0
1156.0
1155.0
1160.0
1166.0
1167.0
1168.0
1163.0
1159.0
1157.0
1158.0
1155.0
1155.0
1149.0
1144.0
1141.0
1138.0
1140.0
1133.0
1120.0
1114.0
1108.0
1106.0
1103.0
1097.0
1088.0
1080.0
1079.0
1077.0
1068.0
1057.0
1043.0
1037.0
1035.0
1028.0
1021.0
1015.0
1009.0
1002.0
998.0
995.0
993.0
984.0
977.0
975.0
973.0
973.0
967.0
963.0
957.0
956.0
958.0
960.0
961.0
953.0
948.0
946.0
950.0
953.0
955.0
954.0
955.0
960.0
963.0
965.0
970.0
974.0
977.0
982.0
986.0
991.0
993.0
993.0
990.0
992.0
998.0
1005.0
1009.0
1007.0
998.0
993.0
992.0
991.0
989.0
991.0
995.0
1002.0
1006.0
1001.0
998.0
990.0
989.0
988.0
987.0
983.0
977.0
970.0
962.0
959.0
956.0
950.0
945.0
939.0
931.0
931.0
929.0
932.0
931.0
928.0
922.0
919.0
918.0
914.0
909.0
912.0
916.0
921.0
916.0
915.0
913.0
912.0
910.0
910.0
912.0
911.0
914.0
913.0
912.0
909.0
909.0
909.0
908.0
909.0
912.0
913.0
910.0
912.0
908.0
907.0
908.0
908.0
911.0
920.0
918.0
912.0
907.0
908.0
910.0
913.0
911.0
910.0
910.0
909.0
908.0
911.0
914.0
915.0
914.0
912.0
913.0
914.0
918.0
922.0
919.0
916.0
918.0
920.0
921.0
920.0
919.0
923.0
931.0
936.0
936.0
941.0
946.0
970.0
1014.0
1092.0
1211.0
1321.0
1367.0
1354.0
1322.0
1295.0
1283.0
1271.0
1254.0
1240.0
1226.0
1213.0
1196.0
1181.0
1163.0
1148.0
1133.0
1113.0
1095.0
1077.0
1055.0
1033.0
1013.0
991.0
969.0
947.0
924.0
901.0
876.0
847.0
819.0
800.0
793.0
797.0
806.0
811.0
802.0
785.0
764.0
745.0
734.0
726.0
712.0
692.0
671.0
668.0
684.0
706.0
729.0
752.0
778.0
796.0
806.0
812.0
813.0
819.0
825.0
832.0
836.0
841.0
844.0
848.0
844.0
842.0
843.0
850.0
861.0
869.0
872.0
875.0
882.0
892.0
903.0
914.0
922.0
931.0
942.0
954.0
962.0
970.0
978.0
989.0
999.0
1003.0
1003.0
1004.0
1005.0
1008.0
1017.0
1020.0
1023.0
1023.0
1023.0
1024.0
1029.0
1029.0
1034.0
1044.0
1049.0
1054.0
1050.0
1050.0
1052.0
1059.0
1064.0
1070.0
1073.0
1075.0
1080.0
1084.0
1091.0
1094.0
1100.0
1107.0
1110.0
1109.0
1111.0
1118.0
1121.0
1124.0
1127.0
1129.0
1134.0
1138.0
1138.0
1135.0
1138.0
1137.0
1138.0
1139.0
1138.0
1136.0
1137.0
1135.0
1130.0
1129.0
1125.0
1120.0
1117.0
1114.0
1115.0
1116.0
1114.0
1112.0
1109.0
1109.0
1104.0
1101.0
1099.0
1100.0
1098.0
1091.0
1086.0
1081.0
1083.0
1082.0
1074.0
1064.0
1053.0
1044.0
1039.0
1032.0
1030.0
1024.0
1019.0
1017.0
1014.0
1012.0
1006.0
1001.0
992.0
986.0
982.0
975.0
969.0
965.0
957.0
947.0
940.0
940.0
942.0
938.0
933.0
926.0
922.0
921.0
920.0
917.0
911.0
904.0
905.0
906.0
907.0
901.0
897.0
895.0
899.0
898.0
899.0
898.0
893.0
895.0
896.0
897.0
897.0
897.0
899.0
900.0
899.0
898.0
898.0
896.0
894.0
896.0
900.0
906.0
908.0
901.0
895.0
896.0
901.0
904.0
901.0
896.0
895.0
899.0
902.0
902.0
896.0
898.0
896.0
896.0
901.0
899.0
901.0
898.0
895.0
894.0
896.0
896.0
899.0
900.0
899.0
901.0
899.0
899.0
900.0
899.0
894.0
895.0
900.0
901.0
900.0
899.0
894.0
898.0
902.0
906.0
905.0
903.0
901.0
904.0
906.0
909.0
904.0
903.0
901.0
905.0
909.0
911.0
909.0
906.0
902.0
903.0
907.0
910.0
910.0
908.0
907.0
910.0
911.0
910.0
903.0
905.0
904.0
908.0
911.0
914.0
915.0
917.0
917.0
916.0
915.0
913.0
912.0
912.0
911.0
916.0
927.0
931.0
932.0
929.0
929.0
935.0
953.0
984.0
1041.0
1139.0
1255.0
1341.0
1358.0
1328.0
1298.0
1281.0
1269.0
1257.0
1237.0
1218.0
1199.0
1178.0
1158.0
1138.0
1119.0
1106.0
1090.0
1070.0
1049.0
1021.0
993.0
960.0
921.0
882.0
839.0
800.0
768.0
735.0
696.0
661.0
632.0
618.0
612.0
606.0
597.0
590.0
578.0
569.0
554.0
547.0
544.0
542.0
532.0
520.0
511.0
516.0
530.0
552.0
576.0
605.0
644.0
679.0
705.0
719.0
728.0
734.0
743.0
755.0
763.0
774.0
786.0
796.0
802.0
801.0
803.0
805.0
809.0
823.0
839.0
851.0
859.0
865.0
874.0
883.0
898.0
912.0
921.0
929.0
935.0
946.0
958.0
975.0
986.0
989.0
988.0
984.0
989.0
994.0
996.0
999.0
1000.0
1006.0
1008.0
1015.0
1020.0
1022.0
1025.0
1028.0
1033.0
1039.0
1045.0
1047.0
1051.0
1064.0
1075.0
1088.0
1097.0
1099.0
1104.0
1117.0
1127.0
1131.0
1135.0
1139.0
1149.0
1157.0
1170.0
1179.0
1186.0
1189.0
1186.0
1182.0
1185.0
1190.0
1193.0
1196.0
1198.0
1198.0
1197.0
1194.0
1193.0
1191.0
1183.0
1175.0
1169.0
1163.0
1154.0
1144.0
1138.0
1127.0
1118.0
1106.0
1092.0
1082.0
1074.0
1064.0
1054.0
1039.0
1023.0
1011.0
999.0
985.0
974.0
959.0
948.0
939.0
931.0
924.0
912.0
903.0
897.0
889.0
878.0
869.0
862.0
856.0
856.0
851.0
842.0
834.0
827.0
823.0
819.0
812.0
809.0
808.0
806.0
804.0
800.0
793.0
786.0
783.0
784.0
785.0
786.0
777.0
775.0
776.0
777.0
780.0
779.0
780.0
774.0
771.0
767.0
767.0
768.0
770.0
764.0
762.0
761.0
761.0
758.0
754.0
754.0
756.0
758.0
755.0
755.0
755.0
755.0
760.0
758.0
757.0
754.0
751.0
747.0
748.0
753.0
759.0
758.0
754.0
748.0
747.0
752.0
757.0
764.0
759.0
752.0
747.0
746.0
746.0
750.0
752.0
752.0
752.0
753.0
752.0
752.0
751.0
750.0
748.0
744.0
744.0
743.0
743.0
738.0
739.0
747.0
749.0
747.0
745.0
738.0
738.0
743.0
750.0
749.0
745.0
739.0
737.0
742.0
743.0
740.0
740.0
740.0
740.0
743.0
741.0
740.0
741.0
740.0
741.0
743.0
744.0
745.0
742.0
737.0
736.0
738.0
741.0
743.0
743.0
742.0
748.0
746.0
746.0
740.0
736.0
739.0
743.0
746.0
746.0
742.0
738.0
743.0
749.0
751.0
749.0
743.0
739.0
744.0
748.0
755.0
760.0
763.0
760.0
759.0
769.0
782.0
804.0
849.0
934.0
1061.0
1188.0
1286.0
1269.0
1210.0
1163.0
1132.0
1110.0
1088.0
1066.0
1046.0
1021.0
990.0
958.0
929.0
905.0
886.0
865.0
836.0
811.0
784.0
754.0
719.0
694.0
668.0
643.0
620.0
599.0
578.0
563.0
543.0
534.0
527.0
526.0
526.0
525.0
517.0
513.0
509.0
503.0
498.0
491.0
481.0
476.0
477.0
480.0
485.0
492.0
503.0
518.0
533.0
553.0
572.0
590.0
602.0
610.0
619.0
631.0
643.0
650.0
657.0
662.0
667.0
674.0
684.0
697.0
711.0
724.0
733.0
739.0
747.0
755.0
765.0
780.0
794.0
810.0
820.0
832.0
837.0
843.0
851.0
862.0
869.0
873.0
875.0
877.0
883.0
890.0
888.0
883.0
880.0
884.0
895.0
903.0
899.0
891.0
883.0
888.0
891.0
892.0
890.0
888.0
889.0
891.0
896.0
904.0
909.0
912.0
907.0
908.0
915.0
921.0
927.0
931.0
935.0
940.0
945.0
950.0
950.0
952.0
953.0
957.0
961.0
968.0
971.0
973.0
969.0
967.0
967.0
971.0
972.0
969.0
966.0
963.0
958.0
955.0
956.0
954.0
949.0
943.0
935.0
930.0
926.0
924.0
916.0
913.0
906.0
900.0
894.0
883.0
874.0
868.0
861.0
855.0
848.0
843.0
835.0
830.0
824.0
819.0
813.0
804.0
798.0
795.0
794.0
790.0
786.0
781.0
777.0
772.0
766.0
762.0
762.0
761.0
758.0
757.0
756.0
755.0
754.0
755.0
751.0
750.0
749.0
751.0
749.0
746.0
743.0
743.0
749.0
754.0
753.0
749.0
743.0
742.0
743.0
747.0
748.0
748.0
750.0
752.0
754.0
753.0
750.0
749.0
745.0
747.0
748.0
749.0
750.0
746.0
744.0
748.0
755.0
757.0
756.0
753.0
752.0
755.0
756.0
757.0
757.0
758.0
755.0
756.0
760.0
761.0
762.0
758.0
756.0
757.0
766.0
771.0
769.0
765.0
761.0
761.0
766.0
770.0
772.0
767.0
765.0
765.0
768.0
768.0
769.0
771.0
773.0
775.0
775.0
773.0
770.0
767.0
769.0
775.0
777.0
777.0
774.0
771.0
771.0
775.0
777.0
777.0
781.0
782.0
781.0
779.0
781.0
785.0
785.0
782.0
780.0
784.0
787.0
786.0
786.0
788.0
786.0
786.0
788.0
788.0
785.0
786.0
788.0
789.0
791.0
792.0
791.0
789.0
789.0
792.0
794.0
795.0
793.0
797.0
799.0
802.0
804.0
803.0
806.0
805.0
803.0
803.0
806.0
809.0
813.0
819.0
821.0
822.0
830.0
848.0
879.0
939.0
1054.0
1181.0
1308.0
1351.0
1301.0
1237.0
1197.0
1179.0
1169.0
1149.0
1127.0
1104.0
1080.0
1056.0
1040.0
1026.0
1011.0
996.0
980.0
961.0
944.0
925.0
905.0
886.0
866.0
853.0
838.0
824.0
807.0
790.0
769.0
752.0
744.0
741.0
739.0
738.0
734.0
728.0
723.0
712.0
699.0
690.0
676.0
660.0
648.0
645.0
650.0
665.0
680.0
696.0
721.0
739.0
750.0
748.0
748.0
753.0
755.0
753.0
756.0
757.0
758.0
760.0
761.0
763.0
762.0
762.0
764.0
770.0
781.0
789.0
797.0
802.0
803.0
812.0
820.0
827.0
834.0
841.0
849.0
859.0
870.0
876.0
878.0
880.0
878.0
880.0
885.0
890.0
892.0
893.0
893.0
899.0
903.0
903.0
901.0
902.0
904.0
907.0
913.0
916.0
920.0
920.0
924.0
927.0
930.0
933.0
939.0
943.0
945.0
949.0
952.0
959.0
965.0
972.0
977.0
981.0
986.0
995.0
1000.0
1002.0
1000.0
1004.0
1009.0
1015.0
1021.0
1022.0
1027.0
1033.0
1038.0
1039.0
1039.0
1036.0
1038.0
1038.0
1043.0
1045.0
1045.0
1042.0
1040.0
1039.0
1039.0
1033.0
1027.0
1024.0
1024.0
1025.0
1021.0
1011.0
1005.0
999.0
992.0
990.0
985.0
982.0
979.0
972.0
963.0
954.0
952.0
949.0
950.0
945.0
937.0
929.0
927.0
926.0
923.0
918.0
911.0
906.0
909.0
908.0
904.0
901.0
897.0
898.0
897.0
897.0
896.0
893.0
894.0
892.0
892.0
890.0
888.0
891.0
895.0
898.0
896.0
889.0
889.0
890.0
890.0
892.0
892.0
893.0
893.0
891.0
892.0
893.0
893.0
895.0
892.0
892.0
891.0
889.0
893.0
897.0
899.0
897.0
896.0
898.0
902.0
905.0
903.0
898.0
896.0
897.0
901.0
907.0
914.0
912.0
913.0
910.0
910.0
913.0
916.0
916.0
911.0
910.0
911.0
913.0
915.0
917.0
917.0
918.0
918.0
918.0
