# Simple Text Format
# Sampling Rate (Hz):= 360.00
# Resolution:= 12
# Labels:= ECG
914.0
920.0
923.0
925.0
922.0
919.0
918.0
918.0
917.0
918.0
916.0
919.0
918.0
918.0
923.0
928.0
930.0
926.0
925.0
929.0
933.0
938.0
943.0
946.0
946.0
950.0
958.0
969.0
975.0
974.0
976.0
980.0
986.0
986.0
987.0
991.0
993.0
995.0
994.0
992.0
989.0
983.0
981.0
979.0
981.0
983.0
982.0
978.0
972.0
970.0
970.0
966.0
960.0
955.0
950.0
947.0
945.0
937.0
929.0
921.0
917.0
917.0
915.0
911.0
909.0
905.0
901.0
898.0
896.0
894.0
892.0
891.0
891.0
891.0
894.0
897.0
897.0
893.0
888.0
888.0
888.0
891.0
889.0
889.0
891.0
889.0
891.0
890.0
889.0
891.0
891.0
891.0
891.0
893.0
894.0
894.0
895.0
893.0
895.0
896.0
897.0
897.0
900.0
908.0
920.0
933.0
954.0
1004.0
1094.0
1221.0
1344.0
1394.0
1381.0
1350.0
1328.0
1319.0
1309.0
1288.0
1259.0
1230.0
1201.0
1178.0
1157.0
1132.0
1102.0
1068.0
1035.0
998.0
961.0
918.0
867.0
817.0
767.0
720.0
681.0
646.0
611.0
589.0
576.0
571.0
568.0
563.0
558.0
545.0
528.0
510.0
497.0
485.0
476.0
468.0
467.0
482.0
509.0
546.0
585.0
622.0
661.0
696.0
721.0
734.0
745.0
757.0
767.0
780.0
794.0
808.0
817.0
822.0
827.0
837.0
848.0
858.0
867.0
877.0
890.0
904.0
915.0
929.0
944.0
959.0
976.0
998.0
1014.0
1026.0
1029.0
1026.0
1026.0
1031.0
1038.0
1039.0
1042.0
1044.0
1049.0
1055.0
1058.0
1064.0
1066.0
1071.0
1075.0
1084.0
1088.0
1098.0
1105.0
1108.0
1109.0
1112.0
1117.0
1125.0
1129.0
1134.0
1138.0
1145.0
1153.0
1163.0
1169.0
1178.0
1183.0
1188.0
1190.0
1194.0
1199.0
1202.0
1207.0
1207.0
1210.0
1212.0
1207.0
1203.0
1207.0
1213.0
1217.0
1216.0
1211.0
1210.0
1204.0
1199.0
1198.0
1195.0
1192.0
1188.0
1179.0
1176.0
1169.0
1163.0
1155.0
1147.0
1140.0
1137.0
1131.0
1122.0
1114.0
1103.0
1089.0
1079.0
1071.0
1067.0
1062.0
1050.0
1038.0
1029.0
1028.0
1026.0
1025.0
1017.0
1012.0
1011.0
1013.0
1017.0
1023.0
1024.0
1025.0
1026.0
1026.0
1029.0
1031.0
1028.0
1028.0
1029.0
1029.0
1022.0
1013.0
1008.0
1004.0
1004.0
1005.0
1008.0
1006.0
1000.0
996.0
997.0
997.0
995.0
993.0
987.0
984.0
975.0
970.0
966.0
963.0
958.0
954.0
948.0
944.0
939.0
933.0
931.0
927.0
926.0
925.0
924.0
922.0
919.0
915.0
915.0
915.0
914.0
915.0
915.0
915.0
913.0
911.0
913.0
913.0
913.0
911.0
912.0
914.0
915.0
915.0
915.0
916.0
917.0
917.0
918.0
916.0
913.0
912.0
911.0
914.0
916.0
914.0
912.0
908.0
907.0
909.0
910.0
912.0
910.0
906.0
912.0
915.0
915.0
914.0
905.0
903.0
904.0
911.0
914.0
912.0
908.0
910.0
912.0
913.0
913.0
911.0
910.0
909.0
909.0
911.0
910.0
909.0
908.0
906.0
907.0
907.0
905.0
907.0
906.0
909.0
910.0
912.0
915.0
914.0
914.0
912.0
914.0
917.0
917.0
917.0
916.0
915.0
916.0
920.0
919.0
918.0
916.0
913.0
916.0
921.0
925.0
927.0
925.0
924.0
930.0
938.0
952.0
973.0
1024.0
1129.0
1256.0
1348.0
1360.0
1326.0
1292.0
1272.0
1265.0
1251.0
1232.0
1210.0
1188.0
1166.0
1147.0
1132.0
1114.0
1092.0
1066.0
1037.0
1006.0
976.0
946.0
909.0
874.0
839.0
807.0
776.0
747.0
717.0
685.0
661.0
646.0
639.0
627.0
615.0
609.0
601.0
586.0
575.0
562.0
552.0
538.0
526.0
516.0
518.0
535.0
558.0
585.0
610.0
644.0
682.0
714.0
738.0
747.0
755.0
765.0
777.0
788.0
795.0
798.0
798.0
799.0
807.0
814.0
821.0
834.0
845.0
859.0
869.0
877.0
890.0
900.0
910.0
926.0
943.0
961.0
974.0
985.0
990.0
1001.0
1004.0
1009.0
1009.0
1010.0
1011.0
1018.0
1024.0
1029.0
1033.0
1033.0
1032.0
1038.0
1042.0
1047.0
1048.0
1048.0
1051.0
1058.0
1064.0
1071.0
1075.0
1075.0
1076.0
1081.0
1086.0
1094.0
1097.0
1103.0
1106.0
1115.0
1128.0
1134.0
1137.0
1141.0
1152.0
1168.0
1181.0
1192.0
1199.0
1206.0
1209.0
1211.0
1213.0
1219.0
1223.0
1225.0
1226.0
1224.0
1222.0
1220.0
1218.0
1215.0
1215.0
1219.0
1219.0
1220.0
1215.0
1208.0
1201.0
1193.0
1184.0
1175.0
1163.0
1153.0
1146.0
1137.0
1126.0
1115.0
1106.0
1095.0
1086.0
1074.0
1065.0
1056.0
1043.0
1028.0
1018.0
1007.0
997.0
990.0
978.0
969.0
963.0
960.0
956.0
952.0
944.0
935.0
927.0
929.0
930.0
929.0
923.0
918.0
911.0
909.0
906.0
908.0
909.0
909.0
908.0
907.0
909.0
908.0
904.0
899.0
894.0
899.0
899.0
902.0
897.0
892.0
887.0
887.0
890.0
896.0
898.0
899.0
897.0
899.0
900.0
898.0
896.0
893.0
893.0
897.0
900.0
902.0
900.0
895.0
895.0
894.0
899.0
899.0
898.0
897.0
897.0
900.0
902.0
903.0
900.0
899.0
897.0
900.0
899.0
901.0
900.0
901.0
900.0
905.0
908.0
908.0
906.0
904.0
898.0
897.0
900.0
905.0
907.0
906.0
904.0
906.0
907.0
910.0
907.0
907.0
906.0
908.0
910.0
913.0
913.0
912.0
913.0
916.0
918.0
916.0
915.0
910.0
907.0
905.0
901.0
906.0
911.0
914.0
915.0
917.0
917.0
917.0
918.0
917.0
917.0
921.0
922.0
925.0
926.0
920.0
921.0
920.0
919.0
920.0
920.0
923.0
925.0
930.0
932.0
932.0
930.0
927.0
925.0
929.0
929.0
934.0
934.0
930.0
931.0
933.0
937.0
938.0
938.0
936.0
933.0
937.0
937.0
940.0
943.0
948.0
950.0
951.0
957.0
962.0
967.0
976.0
996.0
1058.0
1165.0
1290.0
1371.0
1380.0
1344.0
1312.0
1295.0
1285.0
1270.0
1254.0
1236.0
1222.0
1211.0
1202.0
1192.0
1177.0
1159.0
1146.0
1131.0
1110.0
1085.0
1061.0
1037.0
1016.0
992.0
964.0
937.0
906.0
873.0
842.0
813.0
788.0
763.0
748.0
734.0
724.0
711.0
699.0
682.0
664.0
644.0
633.0
621.0
604.0
586.0
571.0
563.0
569.0
588.0
620.0
654.0
684.0
710.0
733.0
757.0
775.0
786.0
796.0
800.0
810.0
823.0
837.0
843.0
845.0
844.0
850.0
862.0
876.0
888.0
904.0
922.0
944.0
959.0
974.0
984.0
997.0
1012.0
1033.0
1056.0
1075.0
1083.0
1089.0
1095.0
1100.0
1107.0
1112.0
1115.0
1114.0
1117.0
1123.0
1129.0
1131.0
1130.0
1124.0
1116.0
1117.0
1120.0
1126.0
1128.0
1128.0
1125.0
1126.0
1127.0
1130.0
1131.0
1133.0
1136.0
1142.0
1149.0
1159.0
1164.0
1164.0
1164.0
1169.0
1177.0
1181.0
1187.0
1191.0
1195.0
1205.0
1211.0
1215.0
1217.0
1219.0
1222.0
1229.0
1237.0
1240.0
1242.0
1240.0
1236.0
1235.0
1232.0
1230.0
1226.0
1225.0
1222.0
1218.0
1216.0
1214.0
1207.0
1195.0
1188.0
1184.0
1180.0
1175.0
1168.0
1156.0
1143.0
1135.0
1128.0
1122.0
1113.0
1106.0
1092.0
1082.0
1071.0
1065.0
1061.0
1054.0
1044.0
1035.0
1028.0
1018.0
1009.0
999.0
993.0
990.0
987.0
983.0
980.0
977.0
972.0
973.0
965.0
960.0
959.0
956.0
955.0
952.0
949.0
950.0
943.0
944.0
945.0
948.0
948.0
945.0
945.0
940.0
940.0
939.0
945.0
944.0
940.0
932.0
929.0
933.0
944.0
949.0
950.0
945.0
941.0
938.0
936.0
934.0
940.0
942.0
946.0
945.0
947.0
948.0
946.0
940.0
940.0
940.0
947.0
952.0
952.0
949.0
944.0
948.0
947.0
949.0
942.0
944.0
946.0
953.0
956.0
958.0
954.0
949.0
947.0
952.0
955.0
954.0
951.0
950.0
948.0
948.0
949.0
951.0
949.0
946.0
947.0
952.0
957.0
959.0
956.0
953.0
950.0
953.0
953.0
955.0
948.0
944.0
941.0
946.0
952.0
954.0
956.0
953.0
951.0
955.0
960.0
962.0
960.0
955.0
952.0
955.0
958.0
957.0
957.0
959.0
962.0
966.0
967.0
967.0
963.0
961.0
957.0
956.0
958.0
962.0
962.0
960.0
956.0
959.0
960.0
962.0
965.0
964.0
958.0
959.0
963.0
968.0
970.0
970.0
967.0
967.0
965.0
971.0
978.0
976.0
970.0
964.0
964.0
967.0
972.0
971.0
973.0
980.0
994.0
1018.0
1062.0
1134.0
1237.0
1340.0
1396.0
1398.0
1373.0
1348.0
1331.0
1319.0
1305.0
1288.0
1276.0
1260.0
1248.0
1236.0
1222.0
1208.0
1191.0
1170.0
1144.0
1120.0
1099.0
1083.0
1059.0
1031.0
997.0
962.0
927.0
888.0
846.0
810.0
779.0
754.0
739.0
729.0
715.0
699.0
681.0
671.0
662.0
647.0
624.0
605.0
589.0
578.0
566.0
553.0
546.0
540.0
548.0
576.0
611.0
645.0
679.0
712.0
741.0
762.0
775.0
784.0
793.0
802.0
812.0
825.0
833.0
835.0
835.0
839.0
845.0
856.0
873.0
884.0
899.0
909.0
918.0
929.0
936.0
942.0
949.0
959.0
975.0
990.0
1008.0
1020.0
1023.0
1027.0
1035.0
1043.0
1052.0
1055.0
1058.0
1057.0
1054.0
1054.0
1052.0
1051.0
1050.0
1057.0
1064.0
1071.0
1075.0
1076.0
1077.0
1077.0
1073.0
1074.0
1082.0
1095.0
1107.0
1114.0
1113.0
1114.0
1109.0
1107.0
1110.0
1118.0
1127.0
1134.0
1139.0
1147.0
1154.0
1153.0
1152.0
1149.0
1155.0
1166.0
1177.0
1180.0
1177.0
1174.0
1172.0
1173.0
1177.0
1181.0
1184.0
1186.0
1192.0
1195.0
1188.0
1178.0
1169.0
1169.0
1176.0
1184.0
1188.0
1184.0
1178.0
1171.0
1168.0
1162.0
1156.0
1146.0
1134.0
1127.0
1129.0
1130.0
1121.0
1111.0
1101.0
1098.0
1091.0
1084.0
1075.0
1062.0
1053.0
1050.0
1050.0
1049.0
1042.0
1032.0
1017.0
1003.0
995.0
987.0
986.0
989.0
990.0
988.0
986.0
984.0
981.0
975.0
974.0
976.0
974.0
973.0
969.0
961.0
958.0
957.0
958.0
960.0
959.0
962.0
961.0
961.0
957.0
955.0
954.0
953.0
953.0
956.0
957.0
961.0
962.0
961.0
960.0
958.0
954.0
956.0
957.0
954.0
948.0
943.0
946.0
954.0
956.0
956.0
951.0
952.0
957.0
962.0
964.0
961.0
955.0
955.0
957.0
959.0
959.0
959.0
953.0
952.0
950.0
953.0
955.0
958.0
958.0
956.0
955.0
955.0
955.0
960.0
960.0
959.0
953.0
951.0
952.0
951.0
951.0
956.0
960.0
956.0
954.0
953.0
951.0
956.0
956.0
958.0
955.0
950.0
951.0
953.0
961.0
968.0
962.0
958.0
953.0
953.0
955.0
957.0
959.0
963.0
965.0
971.0
979.0
990.0
997.0
996.0
992.0
986.0
995.0
1007.0
1017.0
1020.0
1016.0
1015.0
1019.0
1025.0
1025.0
1020.0
1005.0
1000.0
1002.0
1006.0
1013.0
1015.0
1011.0
1007.0
1007.0
1009.0
1007.0
1004.0
995.0
994.0
996.0
997.0
997.0
991.0
984.0
981.0
988.0
1004.0
1031.0
1088.0
1189.0
1306.0
1383.0
1396.0
1368.0
1344.0
1326.0
1319.0
1306.0
1289.0
1270.0
1254.0
1241.0
1233.0
1228.0
1221.0
1205.0
1180.0
1156.0
1131.0
1115.0
1097.0
1077.0
1053.0
1027.0
1000.0
978.0
963.0
943.0
919.0
893.0
879.0
873.0
864.0
850.0
839.0
835.0
833.0
821.0
797.0
773.0
746.0
714.0
688.0
669.0
660.0
660.0
672.0
694.0
717.0
742.0
767.0
778.0
789.0
798.0
807.0
815.0
816.0
812.0
813.0
811.0
812.0
811.0
810.0
814.0
822.0
833.0
842.0
849.0
856.0
867.0
878.0
891.0
901.0
912.0
922.0
938.0
955.0
966.0
975.0
982.0
990.0
998.0
1000.0
1003.0
1005.0
1012.0
1015.0
1019.0
1016.0
1011.0
1013.0
1019.0
1027.0
1031.0
1037.0
1035.0
1040.0
1045.0
1050.0
1054.0
1054.0
1055.0
1059.0
1067.0
1071.0
1071.0
1077.0
1079.0
1084.0
1088.0
1094.0
1101.0
1104.0
1106.0
1112.0
1119.0
1124.0
1127.0
1123.0
1122.0
1127.0
1141.0
1149.0
1148.0
1142.0
1141.0
1147.0
1155.0
1161.0
1159.0
1159.0
1159.0
1162.0
1161.0
1160.0
1156.0
1154.0
1154.0
1158.0
1160.0
1155.0
1152.0
1146.0
1139.0
1135.0
1131.0
1130.0
1123.0
1122.0
1121.0
1119.0
1115.0
1105.0
1093.0
1082.0
1068.0
1063.0
1060.0
1057.0
1047.0
1040.0
1033.0
1031.0
1025.0
1019.0
1014.0
1004.0
999.0
993.0
989.0
986.0
986.0
983.0
982.0
978.0
975.0
972.0
968.0
965.0
960.0
963.0
967.0
964.0
959.0
954.0
954.0
959.0
961.0
965.0
963.0
961.0
954.0
952.0
953.0
954.0
955.0
952.0
951.0
955.0
957.0
957.0
950.0
948.0
950.0
953.0
954.0
958.0
957.0
958.0
959.0
966.0
972.0
979.0
977.0
976.0
976.0
984.0
995.0
1005.0
1010.0
1012.0
1006.0
1003.0
1004.0
1010.0
1017.0
1024.0
1022.0
1020.0
1017.0
1019.0
1015.0
1013.0
1012.0
1010.0
1013.0
1011.0
1012.0
1009.0
1006.0
1007.0
1006.0
999.0
989.0
986.0
984.0
987.0
986.0
978.0
970.0
966.0
960.0
953.0
946.0
945.0
948.0
946.0
949.0
948.0
946.0
940.0
930.0
928.0
931.0
937.0
942.0
940.0
937.0
936.0
938.0
941.0
939.0
932.0
928.0
926.0
930.0
939.0
942.0
941.0
937.0
931.0
928.0
933.0
935.0
938.0
938.0
938.0
939.0
940.0
940.0
940.0
940.0
938.0
937.0
933.0
937.0
940.0
941.0
943.0
944.0
946.0
950.0
952.0
957.0
959.0
964.0
975.0
984.0
1013.0
1072.0
1175.0
1297.0
1381.0
1399.0
1379.0
1351.0
1334.0
1319.0
1311.0
1298.0
1283.0
1264.0
1251.0
1238.0
1227.0
1218.0
1200.0
1175.0
1148.0
1129.0
1118.0
1099.0
1075.0
1051.0
1033.0
1019.0
1005.0
988.0
961.0
933.0
909.0
891.0
883.0
878.0
871.0
863.0
849.0
829.0
804.0
779.0
748.0
718.0
690.0
671.0
663.0
669.0
688.0
706.0
723.0
740.0
764.0
782.0
790.0
789.0
789.0
798.0
813.0
824.0
831.0
837.0
835.0
831.0
829.0
834.0
841.0
856.0
869.0
875.0
883.0
893.0
905.0
918.0
929.0
938.0
947.0
957.0
971.0
986.0
1003.0
1015.0
1022.0
1028.0
1030.0
1031.0
1034.0
1036.0
1042.0
1041.0
1038.0
1037.0
1039.0
1045.0
1052.0
1062.0
1067.0
1067.0
1069.0
1073.0
1074.0
1075.0
1077.0
1078.0
1081.0
1086.0
1093.0
1100.0
1109.0
1116.0
1118.0
1116.0
1115.0
1118.0
1121.0
1123.0
1132.0
1138.0
1149.0
1155.0
1156.0
1157.0
1160.0
1163.0
1170.0
1174.0
1174.0
1174.0
1173.0
1173.0
1175.0
1179.0
1187.0
1192.0
1190.0
1182.0
1182.0
1183.0
1180.0
1179.0
1178.0
1179.0
1183.0
1183.0
1178.0
1165.0
1155.0
1149.0
1149.0
1151.0
1148.0
1141.0
1132.0
1127.0
1128.0
1126.0
1120.0
1113.0
1106.0
1100.0
1099.0
1091.0
1080.0
1074.0
1076.0
1079.0
1082.0
1083.0
1080.0
1077.0
1073.0
1073.0
1072.0
1070.0
1065.0
1059.0
1053.0
1048.0
1044.0
1039.0
1041.0
1038.0
1036.0
1024.0
1015.0
1013.0
1016.0
1019.0
1015.0
1007.0
997.0
993.0
990.0
984.0
977.0
968.0
964.0
960.0
955.0
953.0
950.0
945.0
941.0
941.0
941.0
940.0
937.0
930.0
928.0
929.0
931.0
933.0
930.0
923.0
923.0
928.0
932.0
935.0
935.0
928.0
925.0
927.0
931.0
932.0
930.0
929.0
927.0
926.0
931.0
930.0
932.0
932.0
933.0
936.0
932.0
929.0
922.0
921.0
928.0
935.0
939.0
940.0
933.0
923.0
920.0
922.0
926.0
927.0
926.0
927.0
927.0
930.0
930.0
928.0
925.0
925.0
933.0
937.0
938.0
935.0
927.0
923.0
928.0
932.0
933.0
932.0
927.0
928.0
933.0
937.0
940.0
939.0
933.0
931.0
931.0
935.0
935.0
936.0
933.0
932.0
936.0
942.0
944.0
942.0
940.0
938.0
940.0
944.0
945.0
941.0
941.0
943.0
945.0
948.0
951.0
950.0
952.0
954.0
958.0
963.0
967.0
969.0
970.0
984.0
1030.0
1120.0
1247.0
1366.0
1413.0
1391.0
1359.0
1340.0
1327.0
1309.0
1288.0
1268.0
1254.0
1243.0
1226.0
1205.0
1176.0
1144.0
1114.0
1090.0
1060.0
1025.0
983.0
941.0
896.0
849.0
802.0
758.0
723.0
687.0
660.0
643.0
630.0
621.0
612.0
603.0
591.0
573.0
559.0
550.0
539.0
525.0
520.0
527.0
544.0
575.0
609.0
648.0
690.0
725.0
756.0
777.0
792.0
803.0
814.0
827.0
840.0
847.0
853.0
854.0
860.0
865.0
878.0
888.0
900.0
915.0
931.0
946.0
957.0
966.0
979.0
996.0
1014.0
1031.0
1044.0
1056.0
1067.0
1079.0
1088.0
1094.0
1100.0
1102.0
1104.0
1106.0
1111.0
1119.0
1129.0
1134.0
1135.0
1134.0
1135.0
1142.0
1149.0
1157.0
1159.0
1167.0
1178.0
1189.0
1196.0
1206.0
1216.0
1226.0
1237.0
1249.0
1260.0
1269.0
1277.0
1286.0
1297.0
1306.0
1318.0
1324.0
1329.0
1324.0
1325.0
1330.0
1332.0
1335.0
1338.0
1339.0
1337.0
1341.0
1340.0
1341.0
1338.0
1334.0
1323.0
1319.0
1314.0
1305.0
1299.0
1287.0
1281.0
1275.0
1267.0
1254.0
1241.0
1227.0
1214.0
1203.0
1190.0
1181.0
1172.0
1160.0
1150.0
1135.0
1125.0
1116.0
1104.0
1092.0
1081.0
1073.0
1065.0
1054.0
1048.0
1035.0
1028.0
1021.0
1012.0
1003.0
996.0
992.0
988.0
985.0
987.0
987.0
982.0
977.0
971.0
971.0
966.0
967.0
965.0
962.0
960.0
960.0
960.0
957.0
957.0
956.0
959.0
960.0
958.0
954.0
953.0
947.0
948.0
948.0
952.0
956.0
957.0
953.0
953.0
955.0
954.0
955.0
955.0
953.0
959.0
960.0
960.0
956.0
957.0
955.0
961.0
963.0
965.0
963.0
959.0
956.0
958.0
958.0
963.0
966.0
967.0
969.0
964.0
963.0
961.0
958.0
959.0
960.0
963.0
966.0
966.0
965.0
961.0
962.0
964.0
967.0
969.0
966.0
965.0
964.0
961.0
961.0
960.0
961.0
961.0
962.0
963.0
965.0
964.0
965.0
967.0
963.0
960.0
959.0
958.0
958.0
961.0
964.0
964.0
966.0
966.0
966.0
966.0
965.0
969.0
970.0
972.0
969.0
967.0
968.0
970.0
971.0
972.0
971.0
970.0
967.0
970.0
972.0
974.0
971.0
974.0
969.0
971.0
971.0
974.0
973.0
976.0
975.0
978.0
977.0
978.0
973.0
977.0
977.0
982.0
984.0
985.0
985.0
988.0
993.0
1007.0
1029.0
1083.0
1187.0
1314.0
1412.0
1431.0
1404.0
1376.0
1359.0
1343.0
1320.0
1300.0
1279.0
1263.0
1245.0
1224.0
1199.0
1172.0
1145.0
1115.0
1082.0
1045.0
1004.0
963.0
925.0
885.0
840.0
801.0
763.0
728.0
701.0
678.0
665.0
652.0
638.0
631.0
624.0
607.0
584.0
572.0
562.0
556.0
550.0
544.0
546.0
559.0
590.0
628.0
671.0
707.0
747.0
778.0
800.0
818.0
832.0
846.0
861.0
875.0
886.0
893.0
898.0
908.0
922.0
939.0
954.0
964.0
971.0
976.0
984.0
993.0
1005.0
1023.0
1044.0
1059.0
1073.0
1081.0
1086.0
1093.0
1099.0
1105.0
1102.0
1098.0
1092.0
1092.0
1093.0
1096.0
1093.0
1093.0
1092.0
1095.0
1100.0
1101.0
1104.0
1102.0
1101.0
1107.0
1115.0
1120.0
1124.0
1126.0
1127.0
1134.0
1142.0
1146.0
1154.0
1159.0
1164.0
1170.0
1174.0
1179.0
1184.0
1189.0
1193.0
1198.0
1202.0
1205.0
1206.0
1205.0
1205.0
1210.0
1213.0
1220.0
1219.0
1219.0
1211.0
1210.0
1211.0
1211.0
1207.0
1204.0
1197.0
1194.0
1191.0
1184.0
1178.0
1170.0
1162.0
1155.0
1149.0
1142.0
1129.0
1117.0
1104.0
1099.0
1094.0
1085.0
1077.0
1064.0
1052.0
1045.0
1038.0
1028.0
1020.0
1010.0
1001.0
994.0
990.0
983.0
975.0
971.0
968.0
968.0
966.0
967.0
961.0
957.0
951.0
952.0
953.0
951.0
950.0
948.0
944.0
941.0
944.0
944.0
941.0
941.0
940.0
939.0
939.0
938.0
936.0
936.0
935.0
935.0
938.0
940.0
940.0
938.0
935.0
936.0
934.0
937.0
935.0
935.0
934.0
937.0
938.0
938.0
939.0
938.0
938.0
944.0
945.0
942.0
939.0
939.0
941.0
945.0
947.0
946.0
941.0
939.0
936.0
940.0
942.0
943.0
940.0
941.0
939.0
941.0
946.0
947.0
943.0
938.0
941.0
941.0
943.0
947.0
944.0
941.0
940.0
941.0
944.0
944.0
943.0
942.0
938.0
940.0
940.0
942.0
943.0
944.0
945.0
941.0
945.0
943.0
944.0
942.0
942.0
944.0
946.0
947.0
946.0
943.0
944.0
944.0
946.0
946.0
947.0
948.0
943.0
945.0
948.0
948.0
948.0
946.0
944.0
946.0
950.0
950.0
947.0
945.0
944.0
944.0
949.0
949.0
950.0
948.0
947.0
950.0
953.0
955.0
954.0
953.0
951.0
954.0
957.0
960.0
962.0
967.0
970.0
980.0
1000.0
1036.0
1118.0
1238.0
1362.0
1425.0
1422.0
1399.0
1379.0
1369.0
1360.0
1349.0
1331.0
1321.0
1309.0
1293.0
1274.0
1258.0
1238.0
1216.0
1187.0
1153.0
1125.0
1098.0
1066.0
1032.0
992.0
947.0
898.0
854.0
810.0
769.0
731.0
703.0
677.0
660.0
646.0
628.0
609.0
583.0
565.0
553.0
540.0
526.0
511.0
502.0
507.0
531.0
568.0
610.0
647.0
681.0
706.0
731.0
745.0
755.0
769.0
778.0
787.0
796.0
802.0
802.0
805.0
810.0
817.0
831.0
846.0
859.0
868.0
878.0
891.0
901.0
914.0
928.0
940.0
955.0
969.0
986.0
999.0
1010.0
1019.0
1023.0
1024.0
1029.0
1035.0
1040.0
1040.0
1042.0
1044.0
1051.0
1057.0
1061.0
1061.0
1061.0
1065.0
1074.0
1082.0
1086.0
1089.0
1094.0
1101.0
1109.0
1118.0
1124.0
1130.0
1135.0
1140.0
1148.0
1158.0
1166.0
1174.0
1179.0
1183.0
1190.0
1197.0
1200.0
1208.0
1211.0
1213.0
1220.0
1225.0
1230.0
1231.0
1231.0
1232.0
1231.0
1236.0
1235.0
1233.0
1231.0
1230.0
1228.0
1225.0
1222.0
1211.0
1206.0
1202.0
1198.0
1196.0
1190.0
1184.0
1171.0
1163.0
1155.0
1148.0
1138.0
1129.0
1115.0
1104.0
1098.0
1091.0
1082.0
1071.0
1062.0
1051.0
1044.0
1037.0
1030.0
1022.0
1012.0
1007.0
1001.0
1000.0
997.0
990.0
983.0
976.0
977.0
976.0
974.0
967.0
962.0
958.0
958.0
957.0
953.0
956.0
953.0
950.0
953.0
952.0
952.0
952.0
949.0
949.0
949.0
952.0
952.0
951.0
948.0
948.0
947.0
948.0
945.0
946.0
946.0
948.0
948.0
949.0
948.0
948.0
945.0
943.0
946.0
952.0
952.0
954.0
952.0
949.0
950.0
949.0
952.0
950.0
951.0
949.0
953.0
957.0
958.0
956.0
957.0
955.0
958.0
957.0
956.0
957.0
955.0
953.0
952.0
955.0
956.0
957.0
955.0
952.0
956.0
952.0
953.0
950.0
951.0
951.0
950.0
948.0
952.0
951.0
951.0
950.0
954.0
954.0
958.0
957.0
958.0
962.0
964.0
969.0
974.0
979.0
986.0
990.0
996.0
1000.0
1004.0
1008.0
1010.0
1011.0
1019.0
1024.0
1028.0
1028.0
1020.0
1015.0
1013.0
1014.0
1012.0
1012.0
1012.0
1011.0
1010.0
1009.0
1002.0
997.0
992.0
985.0
984.0
981.0
977.0
972.0
964.0
960.0
958.0
957.0
953.0
945.0
942.0
941.0
947.0
947.0
945.0
941.0
934.0
932.0
933.0
935.0
942.0
944.0
948.0
954.0
970.0
1002.0
1070.0
1178.0
1297.0
1374.0
1384.0
1358.0
1329.0
1313.0
1300.0
1284.0
1265.0
1249.0
1228.0
1206.0
1187.0
1167.0
1147.0
1124.0
1099.0
1075.0
1048.0
1020.0
995.0
962.0
924.0
885.0
848.0
807.0
770.0
735.0
700.0
663.0
628.0
599.0
588.0
581.0
579.0
579.0
572.0
560.0
545.0
528.0
515.0
504.0
496.0
485.0
479.0
483.0
499.0
524.0
554.0
581.0
611.0
648.0
684.0
713.0
731.0
740.0
753.0
768.0
783.0
791.0
803.0
807.0
812.0
820.0
827.0
841.0
852.0
861.0
871.0
884.0
899.0
913.0
927.0
940.0
957.0
971.0
989.0
1003.0
1014.0
1024.0
1036.0
1048.0
1056.0
1063.0
1067.0
1068.0
1076.0
1084.0
1088.0
1090.0
1091.0
1098.0
1103.0
1107.0
1116.0
1124.0
1128.0
1130.0
1135.0
1139.0
1150.0
1157.0
1165.0
1168.0
1172.0
1178.0
1186.0
1194.0
1203.0
1207.0
1216.0
1221.0
1226.0
1232.0
1238.0
1242.0
1248.0
1251.0
1255.0
1258.0
1262.0
1265.0
1267.0
1268.0
1268.0
1267.0
1267.0
1264.0
1262.0
1261.0
1261.0
1255.0
1251.0
1248.0
1244.0
1237.0
1229.0
1222.0
1214.0
1209.0
1205.0
1197.0
1187.0
1175.0
1161.0
1152.0
1144.0
1136.0
1129.0
1121.0
1108.0
1097.0
1087.0
1080.0
1073.0
1059.0
1048.0
1038.0
1034.0
1029.0
1020.0
1006.0
999.0
988.0
985.0
981.0
976.0
971.0
965.0
960.0
956.0
956.0
956.0
952.0
950.0
945.0
945.0
947.0
945.0
944.0
942.0
942.0
944.0
946.0
946.0
941.0
937.0
935.0
936.0
937.0
942.0
944.0
943.0
942.0
948.0
950.0
953.0
955.0
959.0
965.0
970.0
979.0
984.0
987.0
987.0
987.0
994.0
1002.0
1008.0
1011.0
1008.0
1001.0
999.0
997.0
994.0
995.0
995.0
993.0
993.0
992.0
992.0
992.0
986.0
982.0
977.0
971.0
967.0
962.0
957.0
951.0
950.0
946.0
945.0
938.0
932.0
926.0
924.0
921.0
918.0
913.0
908.0
908.0
905.0
903.0
904.0
901.0
897.0
897.0
896.0
894.0
893.0
894.0
892.0
888.0
890.0
893.0
892.0
890.0
888.0
886.0
888.0
891.0
887.0
886.0
883.0
883.0
884.0
889.0
887.0
885.0
884.0
882.0
882.0
883.0
885.0
883.0
883.0
880.0
883.0
884.0
882.0
884.0
883.0
881.0
884.0
885.0
883.0
884.0
883.0
881.0
885.0
886.0
884.0
882.0
881.0
878.0
883.0
887.0
888.0
888.0
887.0
888.0
888.0
892.0
894.0
893.0
894.0
898.0
905.0
916.0
937.0
985.0
1070.0
1192.0
1303.0
1358.0
1353.0
1323.0
1300.0
1285.0
1277.0
1265.0
1244.0
1221.0
1203.0
1184.0
1171.0
1155.0
1140.0
1123.0
1100.0
1076.0
1055.0
1032.0
1011.0
983.0
950.0
915.0
880.0
849.0
820.0
785.0
756.0
724.0
697.0
671.0
649.0
633.0
622.0
612.0
608.0
598.0
583.0
566.0
551.0
541.0
535.0
528.0
519.0
508.0
508.0
515.0
536.0
558.0
578.0
600.0
628.0
656.0
681.0
699.0
710.0
718.0
727.0
737.0
745.0
756.0
765.0
772.0
774.0
774.0
776.0
785.0
796.0
806.0
817.0
828.0
840.0
852.0
859.0
870.0
879.0
893.0
909.0
923.0
938.0
950.0
965.0
976.0
987.0
996.0
1000.0
1004.0
1006.0
1007.0
1011.0
1018.0
1020.0
1023.0
1026.0
1028.0
1032.0
1039.0
1040.0
1045.0
1047.0
1054.0
1057.0
1063.0
1064.0
1068.0
1071.0
1077.0
1086.0
1094.0
1099.0
1104.0
1108.0
1111.0
1120.0
1126.0
1132.0
1134.0
1138.0
1141.0
1147.0
1152.0
1159.0
1161.0
1163.0
1164.0
1172.0
1177.0
1176.0
1178.0
1176.0
1177.0
1180.0
1178.0
1175.0
1176.0
1177.0
1174.0
1172.0
1170.0
1167.0
1164.0
1162.0
1156.0
1158.0
1156.0
1152.0
1148.0
1148.0
1145.0
1143.0
1142.0
1139.0
1133.0
1128.0
1122.0
1116.0
1113.0
1109.0
1105.0
1096.0
1084.0
1070.0
1059.0
1047.0
1035.0
1026.0
1020.0
1018.0
1014.0
1007.0
1000.0
991.0
983.0
976.0
971.0
965.0
955.0
946.0
937.0
931.0
927.0
919.0
909.0
903.0
898.0
896.0
891.0
891.0
889.0
883.0
877.0
877.0
874.0
871.0
868.0
867.0
866.0
865.0
867.0
868.0
867.0
863.0
862.0
865.0
868.0
867.0
865.0
861.0
859.0
859.0
863.0
862.0
863.0
862.0
859.0
865.0
868.0
868.0
867.0
864.0
862.0
864.0
867.0
866.0
866.0
865.0
865.0
868.0
868.0
868.0
864.0
864.0
863.0
864.0
868.0
869.0
866.0
865.0
862.0
864.0
864.0
864.0
866.0
864.0
863.0
865.0
866.0
869.0
866.0
863.0
864.0
865.0
869.0
870.0
870.0
867.0
865.0
869.0
870.0
872.0
870.0
868.0
870.0
873.0
873.0
872.0
873.0
873.0
870.0
871.0
874.0
875.0
874.0
872.0
873.0
873.0
876.0
877.0
875.0
873.0
875.0
876.0
878.0
881.0
878.0
877.0
878.0
880.0
882.0
885.0
883.0
882.0
881.0
884.0
886.0
883.0
886.0
885.0
884.0
887.0
890.0
891.0
893.0
890.0
890.0
895.0
895.0
894.0
898.0
898.0
899.0
902.0
906.0
911.0
914.0
919.0
936.0
976.0
1054.0
1174.0
1294.0
1363.0
1366.0
1338.0
1314.0
1300.0
1287.0
1269.0
1247.0
1230.0
1214.0
1198.0
1179.0
1164.0
1148.0
1129.0
1109.0
1086.0
1059.0
1032.0
1004.0
981.0
956.0
930.0
894.0
859.0
819.0
785.0
752.0
722.0
691.0
665.0
643.0
630.0
620.0
611.0
604.0
592.0
575.0
557.0
547.0
533.0
518.0
507.0
494.0
494.0
504.0
525.0
554.0
583.0
618.0
652.0
677.0
699.0
714.0
722.0
728.0
739.0
749.0
762.0
771.0
778.0
777.0
782.0
789.0
797.0
807.0
819.0
831.0
845.0
858.0
868.0
878.0
886.0
899.0
913.0
931.0
948.0
963.0
973.0
985.0
994.0
1008.0
1017.0
1023.0
1026.0
1030.0
1038.0
1045.0
1051.0
1058.0
1065.0
1070.0
1083.0
1094.0
1106.0
1113.0
1122.0
1128.0
1135.0
1143.0
1152.0
1159.0
1167.0
