# Simple Text Format
# Sampling Rate (Hz):= 360.00
# Resolution:= 12
# Labels:= ECG
918.0
918.0
918.0
920.0
920.0
921.0
919.0
919.0
921.0
926.0
928.0
927.0
922.0
919.0
920.0
923.0
929.0
930.0
929.0
925.0
923.0
925.0
928.0
930.0
930.0
930.0
931.0
930.0
928.0
926.0
925.0
926.0
929.0
936.0
943.0
945.0
941.0
934.0
932.0
937.0
940.0
940.0
942.0
939.0
942.0
945.0
950.0
954.0
955.0
958.0
957.0
965.0
972.0
976.0
976.0
979.0
978.0
984.0
989.0
994.0
995.0
999.0
1005.0
1010.0
1010.0
1008.0
1006.0
1003.0
1008.0
1012.0
1022.0
1032.0
1042.0
1064.0
1117.0
1220.0
1347.0
1466.0
1499.0
1467.0
1415.0
1377.0
1362.0
1347.0
1325.0
1299.0
1268.0
1240.0
1222.0
1204.0
1182.0
1155.0
1126.0
1106.0
1085.0
1063.0
1035.0
1004.0
973.0
944.0
916.0
889.0
859.0
830.0
805.0
785.0
772.0
756.0
742.0
730.0
721.0
723.0
717.0
706.0
694.0
687.0
687.0
685.0
677.0
662.0
651.0
652.0
659.0
683.0
709.0
738.0
762.0
785.0
803.0
817.0
830.0
839.0
840.0
841.0
844.0
856.0
866.0
875.0
879.0
877.0
880.0
888.0
899.0
912.0
921.0
928.0
932.0
940.0
950.0
959.0
969.0
981.0
990.0
1005.0
1018.0
1028.0
1035.0
1038.0
1042.0
1049.0
1056.0
1064.0
1071.0
1074.0
1075.0
1081.0
1083.0
1088.0
1093.0
1099.0
1102.0
1109.0
1112.0
1117.0
1121.0
1126.0
1132.0
1145.0
1156.0
1163.0
1166.0
1172.0
1179.0
1188.0
1195.0
1202.0
1209.0
1217.0
1224.0
1232.0
1241.0
1251.0
1256.0
1258.0
1263.0
1270.0
1277.0
1282.0
1285.0
1285.0
1288.0
1290.0
1294.0
1297.0
1299.0
1302.0
1300.0
1298.0
1295.0
1290.0
1287.0
1286.0
1280.0
1273.0
1263.0
1257.0
1251.0
1246.0
1236.0
1228.0
1223.0
1214.0
1210.0
1197.0
1184.0
1174.0
1167.0
1159.0
1150.0
1138.0
1130.0
1129.0
1123.0
1111.0
1096.0
1089.0
1081.0
1075.0
1071.0
1062.0
1052.0
1044.0
1044.0
1043.0
1042.0
1039.0
1033.0
1024.0
1021.0
1026.0
1031.0
1032.0
1025.0
1017.0
1014.0
1016.0
1020.0
1020.0
1018.0
1014.0
1012.0
1014.0
1019.0
1017.0
1013.0
1011.0
1012.0
1012.0
1011.0
1011.0
1011.0
1013.0
1014.0
1015.0
1015.0
1018.0
1021.0
1019.0
1015.0
1014.0
1017.0
1017.0
1016.0
1012.0
1009.0
1013.0
1018.0
1020.0
1020.0
1015.0
1013.0
1016.0
1018.0
1019.0
1020.0
1019.0
1024.0
1027.0
1026.0
1027.0
1026.0
1023.0
1023.0
1021.0
1024.0
1031.0
1028.0
1028.0
1023.0
1026.0
1029.0
1031.0
1033.0
1031.0
1033.0
1042.0
1051.0
1052.0
1051.0
1050.0
1052.0
1052.0
1056.0
1057.0
1062.0
1066.0
1072.0
1079.0
1082.0
1078.0
1069.0
1066.0
1069.0
1075.0
1078.0
1075.0
1072.0
1070.0
1070.0
1072.0
1070.0
1064.0
1059.0
1055.0
1049.0
1048.0
1051.0
1048.0
1039.0
1031.0
1025.0
1022.0
1021.0
1019.0
1018.0
1023.0
1024.0
1020.0
1010.0
1003.0
997.0
995.0
997.0
1002.0
1004.0
1005.0
1004.0
1000.0
994.0
994.0
999.0
1003.0
1003.0
1003.0
1001.0
1003.0
1005.0
1006.0
1002.0
1001.0
1005.0
1010.0
1017.0
1028.0
1048.0
1094.0
1194.0
1321.0
1448.0
1489.0
1455.0
1411.0
1382.0
1369.0
1352.0
1329.0
1308.0
1284.0
1262.0
1243.0
1228.0
1208.0
1182.0
1159.0
1132.0
1106.0
1082.0
1053.0
1023.0
994.0
959.0
925.0
898.0
871.0
839.0
805.0
778.0
765.0
758.0
752.0
748.0
738.0
725.0
712.0
699.0
685.0
671.0
658.0
650.0
648.0
663.0
689.0
712.0
730.0
748.0
778.0
804.0
820.0
824.0
827.0
833.0
847.0
858.0
864.0
872.0
877.0
877.0
884.0
893.0
903.0
909.0
916.0
926.0
947.0
959.0
967.0
975.0
987.0
995.0
1011.0
1020.0
1031.0
1034.0
1040.0
1050.0
1058.0
1062.0
1064.0
1065.0
1066.0
1066.0
1072.0
1082.0
1086.0
1089.0
1083.0
1085.0
1094.0
1111.0
1122.0
1121.0
1116.0
1117.0
1128.0
1136.0
1142.0
1145.0
1152.0
1155.0
1162.0
1170.0
1184.0
1188.0
1184.0
1188.0
1202.0
1214.0
1213.0
1208.0
1207.0
1214.0
1222.0
1223.0
1225.0
1223.0
1223.0
1223.0
1222.0
1222.0
1214.0
1208.0
1210.0
1216.0
1217.0
1203.0
1189.0
1179.0
1174.0
1169.0
1160.0
1155.0
1151.0
1144.0
1134.0
1120.0
1113.0
1108.0
1101.0
1088.0
1071.0
1058.0
1046.0
1038.0
1033.0
1030.0
1019.0
1009.0
1000.0
993.0
989.0
984.0
974.0
968.0
970.0
970.0
964.0
957.0
953.0
944.0
941.0
942.0
943.0
942.0
935.0
930.0
933.0
937.0
934.0
927.0
920.0
921.0
930.0
938.0
944.0
948.0
945.0
943.0
944.0
945.0
947.0
948.0
950.0
955.0
959.0
958.0
956.0
961.0
969.0
974.0
971.0
964.0
960.0
957.0
957.0
955.0
959.0
962.0
963.0
959.0
957.0
959.0
959.0
957.0
948.0
940.0
936.0
930.0
930.0
927.0
924.0
918.0
912.0
909.0
911.0
913.0
906.0
901.0
896.0
892.0
890.0
888.0
888.0
889.0
891.0
893.0
894.0
893.0
888.0
883.0
881.0
882.0
883.0
885.0
883.0
882.0
883.0
879.0
882.0
884.0
882.0
877.0
873.0
880.0
884.0
885.0
879.0
872.0
873.0
882.0
890.0
892.0
888.0
879.0
873.0
872.0
876.0
882.0
881.0
878.0
876.0
874.0
875.0
875.0
874.0
874.0
876.0
878.0
883.0
886.0
883.0
881.0
877.0
875.0
873.0
877.0
884.0
892.0
890.0
881.0
879.0
884.0
887.0
896.0
900.0
901.0
903.0
908.0
919.0
941.0
989.0
1088.0
1215.0
1342.0
1408.0
1376.0
1331.0
1301.0
1277.0
1256.0
1231.0
1208.0
1183.0
1161.0
1142.0
1126.0
1106.0
1082.0
1057.0
1034.0
1014.0
995.0
969.0
945.0
920.0
900.0
881.0
862.0
841.0
816.0
790.0
768.0
753.0
753.0
757.0
759.0
748.0
728.0
714.0
703.0
690.0
676.0
661.0
649.0
645.0
654.0
673.0
687.0
705.0
722.0
745.0
763.0
778.0
783.0
786.0
794.0
803.0
806.0
803.0
802.0
804.0
809.0
814.0
813.0
817.0
824.0
828.0
834.0
841.0
849.0
859.0
870.0
879.0
887.0
897.0
904.0
914.0
926.0
937.0
942.0
948.0
953.0
958.0
957.0
958.0
960.0
964.0
970.0
970.0
969.0
971.0
976.0
987.0
1000.0
1003.0
998.0
996.0
995.0
1007.0
1008.0
1013.0
1015.0
1021.0
1023.0
1025.0
1031.0
1034.0
1038.0
1041.0
1043.0
1054.0
1067.0
1075.0
1069.0
1066.0
1065.0
1072.0
1078.0
1081.0
1085.0
1086.0
1085.0
1085.0
1086.0
1091.0
1090.0
1088.0
1086.0
1086.0
1085.0
1083.0
1080.0
1078.0
1075.0
1077.0
1076.0
1074.0
1076.0
1081.0
1080.0
1075.0
1074.0
1072.0
1067.0
1062.0
1058.0
1053.0
1049.0
1046.0
1042.0
1039.0
1030.0
1025.0
1020.0
1005.0
995.0
993.0
996.0
998.0
995.0
988.0
979.0
973.0
966.0
961.0
957.0
953.0
948.0
944.0
941.0
937.0
929.0
920.0
919.0
916.0
913.0
912.0
910.0
907.0
906.0
901.0
893.0
895.0
894.0
894.0
894.0
893.0
890.0
892.0
891.0
892.0
891.0
890.0
889.0
887.0
891.0
887.0
889.0
893.0
891.0
892.0
893.0
892.0
889.0
887.0
888.0
892.0
896.0
898.0
894.0
890.0
885.0
889.0
894.0
901.0
905.0
898.0
894.0
896.0
901.0
900.0
895.0
891.0
892.0
897.0
899.0
897.0
896.0
895.0
892.0
894.0
896.0
898.0
903.0
904.0
901.0
899.0
900.0
904.0
908.0
907.0
901.0
900.0
905.0
907.0
908.0
905.0
903.0
905.0
910.0
911.0
910.0
911.0
907.0
908.0
909.0
911.0
916.0
918.0
920.0
919.0
919.0
916.0
912.0
911.0
914.0
918.0
922.0
923.0
923.0
924.0
921.0
919.0
920.0
924.0
925.0
926.0
926.0
930.0
929.0
932.0
931.0
931.0
932.0
936.0
940.0
944.0
948.0
951.0
958.0
976.0
1010.0
1088.0
1215.0
1342.0
1451.0
1453.0
1404.0
1361.0
1341.0
1327.0
1311.0
1293.0
1271.0
1250.0
1237.0
1219.0
1203.0
1187.0
1166.0
1146.0
1123.0
1098.0
1077.0
1057.0
1040.0
1021.0
1002.0
983.0
966.0
954.0
938.0
919.0
895.0
880.0
874.0
877.0
881.0
885.0
887.0
882.0
879.0
873.0
864.0
853.0
832.0
812.0
801.0
802.0
814.0
828.0
844.0
863.0
881.0
884.0
883.0
877.0
882.0
883.0
882.0
883.0
883.0
884.0
879.0
872.0
867.0
866.0
871.0
877.0
889.0
895.0
898.0
903.0
910.0
916.0
929.0
939.0
950.0
959.0
967.0
975.0
987.0
996.0
1000.0
1006.0
1008.0
1007.0
1006.0
1006.0
1009.0
1015.0
1021.0
1025.0
1025.0
1022.0
1023.0
1027.0
1040.0
1053.0
1062.0
1061.0
1065.0
1077.0
1091.0
1101.0
1106.0
1108.0
1115.0
1122.0
1133.0
1141.0
1146.0
1149.0
1153.0
1155.0
1158.0
1161.0
1165.0
1172.0
1175.0
1177.0
1179.0
1184.0
1186.0
1187.0
1189.0
1191.0
1189.0
1184.0
1179.0
1175.0
1166.0
1167.0
1166.0
1157.0
1151.0
1144.0
1142.0
1141.0
1138.0
1131.0
1125.0
1119.0
1114.0
1109.0
1102.0
1094.0
1087.0
1079.0
1071.0
1065.0
1061.0
1057.0
1054.0
1044.0
1038.0
1035.0
1032.0
1029.0
1021.0
1010.0
1001.0
998.0
994.0
992.0
990.0
986.0
983.0
980.0
977.0
973.0
971.0
968.0
968.0
970.0
970.0
968.0
965.0
963.0
961.0
958.0
961.0
962.0
960.0
959.0
956.0
958.0
956.0
953.0
950.0
948.0
954.0
960.0
960.0
959.0
952.0
948.0
944.0
949.0
951.0
952.0
950.0
947.0
950.0
955.0
960.0
960.0
955.0
952.0
950.0
957.0
965.0
967.0
967.0
961.0
954.0
957.0
965.0
972.0
976.0
976.0
970.0
967.0
967.0
972.0
974.0
976.0
976.0
975.0
977.0
976.0
978.0
978.0
976.0
980.0
981.0
983.0
978.0
980.0
975.0
977.0
979.0
984.0
986.0
983.0
979.0
979.0
986.0
990.0
990.0
986.0
980.0
987.0
990.0
989.0
985.0
985.0
984.0
988.0
992.0
993.0
994.0
992.0
991.0
989.0
990.0
991.0
991.0
992.0
993.0
995.0
996.0
996.0
994.0
995.0
1001.0
1001.0
1002.0
996.0
996.0
994.0
998.0
1002.0
1005.0
1007.0
1004.0
1001.0
1000.0
1003.0
1006.0
1008.0
1009.0
1006.0
1007.0
1012.0
1016.0
1016.0
1020.0
1022.0
1024.0
1033.0
1046.0
1074.0
1124.0
1209.0
1336.0
1448.0
1489.0
1468.0
1422.0
1396.0
1383.0
1370.0
1353.0
1334.0
1313.0
1295.0
1276.0
1261.0
1242.0
1224.0
1204.0
1184.0
1163.0
1143.0
1123.0
1100.0
1076.0
1055.0
1033.0
1010.0
988.0
966.0
944.0
922.0
900.0
886.0
874.0
864.0
857.0
858.0
858.0
860.0
858.0
848.0
836.0
818.0
802.0
788.0
769.0
753.0
757.0
774.0
801.0
830.0
853.0
872.0
890.0
901.0
906.0
913.0
918.0
926.0
930.0
934.0
937.0
942.0
947.0
953.0
957.0
957.0
961.0
968.0
977.0
983.0
989.0
998.0
1004.0
1012.0
1013.0
1019.0
1030.0
1040.0
1052.0
1062.0
1071.0
1079.0
1087.0
1088.0
1086.0
1084.0
1082.0
1078.0
1070.0
1066.0
1066.0
1070.0
1072.0
1069.0
1061.0
1050.0
1054.0
1061.0
1061.0
1058.0
1054.0
1054.0
1055.0
1061.0
1068.0
1070.0
1071.0
1069.0
1073.0
1079.0
1083.0
1083.0
1088.0
1091.0
1104.0
1114.0
1116.0
1118.0
1119.0
1123.0
1127.0
1128.0
1130.0
1129.0
1132.0
1131.0
1132.0
1137.0
1138.0
1136.0
1132.0
1133.0
1134.0
1142.0
1139.0
1133.0
1123.0
1118.0
1114.0
1116.0
1121.0
1117.0
1107.0
1093.0
1083.0
1079.0
1074.0
1067.0
1061.0
1053.0
1044.0
1037.0
1027.0
1021.0
1016.0
1007.0
1000.0
994.0
987.0
980.0
974.0
970.0
963.0
956.0
950.0
941.0
934.0
932.0
930.0
928.0
926.0
922.0
921.0
914.0
909.0
910.0
908.0
910.0
907.0
902.0
902.0
904.0
900.0
896.0
894.0
897.0
898.0
897.0
894.0
891.0
891.0
892.0
889.0
888.0
889.0
889.0
889.0
886.0
882.0
884.0
885.0
884.0
883.0
882.0
884.0
887.0
886.0
888.0
889.0
886.0
883.0
887.0
892.0
893.0
892.0
889.0
887.0
886.0
886.0
893.0
895.0
897.0
896.0
896.0
893.0
886.0
886.0
887.0
889.0
892.0
891.0
892.0
894.0
893.0
890.0
890.0
890.0
886.0
884.0
886.0
894.0
900.0
900.0
894.0
888.0
883.0
885.0
889.0
895.0
895.0
894.0
891.0
888.0
888.0
888.0
889.0
887.0
888.0
887.0
890.0
890.0
889.0
886.0
885.0
885.0
889.0
893.0
893.0
891.0
889.0
886.0
886.0
890.0
896.0
894.0
892.0
886.0
885.0
884.0
887.0
891.0
896.0
898.0
898.0
894.0
890.0
887.0
885.0
885.0
890.0
891.0
892.0
894.0
893.0
893.0
893.0
896.0
896.0
897.0
895.0
894.0
898.0
901.0
902.0
909.0
915.0
923.0
934.0
953.0
993.0
1079.0
1206.0
1333.0
1427.0
1422.0
1377.0
1339.0
1318.0
1305.0
1293.0
1277.0
1257.0
1234.0
1214.0
1197.0
1180.0
1161.0
1141.0
1120.0
1095.0
1072.0
1055.0
1044.0
1022.0
989.0
950.0
909.0
870.0
839.0
804.0
775.0
748.0
725.0
708.0
693.0
679.0
665.0
655.0
650.0
649.0
642.0
632.0
616.0
603.0
593.0
589.0
578.0
567.0
563.0
566.0
577.0
592.0
611.0
628.0
650.0
676.0
703.0
723.0
733.0
737.0
741.0
744.0
751.0
761.0
771.0
781.0
785.0
784.0
785.0
789.0
795.0
804.0
817.0
826.0
829.0
836.0
845.0
856.0
867.0
880.0
887.0
899.0
907.0
919.0
929.0
933.0
936.0
943.0
955.0
961.0
964.0
964.0
965.0
971.0
977.0
980.0
985.0
984.0
981.0
983.0
987.0
993.0
998.0
1000.0
1001.0
1007.0
1018.0
1025.0
1031.0
1030.0
1032.0
1046.0
1055.0
1059.0
1059.0
1057.0
1062.0
1074.0
1090.0
1103.0
1108.0
1113.0
1117.0
1124.0
1130.0
1136.0
1138.0
1144.0
1148.0
1155.0
1164.0
1168.0
1170.0
1171.0
1174.0
1179.0
1180.0
1179.0
1174.0
1173.0
1172.0
1171.0
1172.0
1167.0
1162.0
1156.0
1155.0
1150.0
1139.0
1129.0
1123.0
1115.0
1109.0
1108.0
1102.0
1090.0
1074.0
1066.0
1056.0
1047.0
1038.0
1026.0
1019.0
1011.0
1006.0
1003.0
997.0
985.0
973.0
966.0
961.0
957.0
954.0
948.0
942.0
933.0
925.0
927.0
930.0
922.0
917.0
912.0
911.0
912.0
913.0
910.0
911.0
903.0
897.0
897.0
900.0
902.0
909.0
909.0
900.0
895.0
894.0
898.0
901.0
905.0
904.0
901.0
897.0
897.0
893.0
894.0
895.0
899.0
902.0
900.0
899.0
897.0
895.0
898.0
899.0
899.0
899.0
899.0
900.0
902.0
901.0
902.0
901.0
904.0
901.0
903.0
907.0
912.0
910.0
904.0
899.0
900.0
901.0
906.0
909.0
910.0
906.0
907.0
911.0
914.0
912.0
908.0
910.0
916.0
917.0
907.0
901.0
903.0
909.0
910.0
912.0
905.0
902.0
902.0
902.0
906.0
910.0
913.0
911.0
910.0
910.0
911.0
912.0
909.0
906.0
903.0
908.0
916.0
920.0
913.0
906.0
902.0
906.0
914.0
917.0
916.0
913.0
915.0
914.0
914.0
916.0
918.0
922.0
925.0
926.0
933.0
935.0
939.0
940.0
941.0
941.0
947.0
954.0
961.0
961.0
956.0
959.0
966.0
974.0
976.0
977.0
975.0
975.0
976.0
974.0
968.0
969.0
973.0
981.0
986.0
983.0
978.0
977.0
986.0
988.0
984.0
976.0
974.0
982.0
990.0
1003.0
1036.0
1110.0
1234.0
1361.0
1463.0
1471.0
1429.0
1382.0
1353.0
1335.0
1314.0
1289.0
1264.0
1241.0
1212.0
1192.0
1169.0
1145.0
1122.0
1104.0
1084.0
1059.0
1036.0
1013.0
995.0
975.0
947.0
919.0
891.0
862.0
839.0
816.0
796.0
772.0
755.0
738.0
731.0
725.0
721.0
721.0
721.0
709.0
690.0
671.0
657.0
651.0
639.0
627.0
618.0
612.0
614.0
623.0
638.0
658.0
677.0
703.0
726.0
745.0
759.0
769.0
781.0
790.0
802.0
807.0
807.0
808.0
811.0
814.0
816.0
821.0
832.0
844.0
854.0
858.0
862.0
867.0
873.0
884.0
893.0
902.0
914.0
923.0
934.0
942.0
955.0
966.0
975.0
984.0
989.0
989.0
994.0
1000.0
1000.0
1006.0
1012.0
1022.0
1025.0
1025.0
1027.0
1032.0
1035.0
1031.0
1031.0
1035.0
1041.0
1048.0
1050.0
1053.0
1055.0
1060.0
1064.0
1067.0
1072.0
1075.0
1081.0
1087.0
1088.0
1090.0
1096.0
1108.0
1124.0
1132.0
1128.0
1123.0
1121.0
1127.0
1134.0
1141.0
1145.0
1148.0
1145.0
1144.0
1144.0
1151.0
1150.0
1153.0
1152.0
1148.0
1152.0
1153.0
1153.0
1150.0
1148.0
1144.0
1142.0
1140.0
1137.0
1134.0
1131.0
1127.0
1130.0
1133.0
1127.0
1121.0
1110.0
1101.0
1098.0
1099.0
1091.0
1084.0
1072.0
1068.0
1064.0
1061.0
1054.0
1045.0
1039.0
1034.0
1031.0
1030.0
1026.0
1020.0
1013.0
1005.0
1000.0
995.0
989.0
986.0
981.0
982.0
984.0
985.0
976.0
971.0
965.0
964.0
965.0
970.0
969.0
964.0
958.0
957.0
959.0
964.0
961.0
961.0
959.0
956.0
956.0
960.0
955.0
956.0
956.0
958.0
963.0
964.0
961.0
958.0
954.0
953.0
958.0
963.0
962.0
956.0
955.0
955.0
956.0
957.0
956.0
961.0
962.0
966.0
965.0
962.0
962.0
961.0
961.0
962.0
962.0
967.0
968.0
965.0
965.0
970.0
974.0
981.0
984.0
989.0
990.0
990.0
993.0
993.0
998.0
1004.0
1006.0
1006.0
1005.0
1013.0
1021.0
1031.0
1030.0
1025.0
1023.0
1026.0
1025.0
1021.0
1016.0
1015.0
1020.0
1022.0
1024.0
1025.0
1026.0
1025.0
1029.0
1024.0
1015.0
1008.0
1005.0
1002.0
1000.0
998.0
992.0
986.0
980.0
978.0
976.0
978.0
976.0
973.0
970.0
966.0
965.0
965.0
963.0
959.0
962.0
961.0
963.0
963.0
960.0
960.0
963.0
967.0
968.0
965.0
962.0
960.0
963.0
965.0
967.0
969.0
970.0
968.0
967.0
969.0
968.0
971.0
974.0
975.0
979.0
982.0
988.0
994.0
1005.0
1024.0
1060.0
1134.0
1257.0
1384.0
1480.0
1485.0
1444.0
1403.0
1384.0
1377.0
1360.0
1336.0
1314.0
1293.0
1281.0
1272.0
1253.0
1234.0
1213.0
1196.0
1179.0
1166.0
1151.0
1132.0
1110.0
1086.0
1070.0
1055.0
1042.0
1033.0
1021.0
1008.0
993.0
971.0
960.0
952.0
959.0
967.0
975.0
976.0
970.0
958.0
945.0
937.0
925.0
907.0
888.0
877.0
875.0
876.0
882.0
888.0
899.0
910.0
915.0
919.0
925.0
930.0
927.0
920.0
915.0
915.0
917.0
918.0
915.0
909.0
904.0
908.0
916.0
927.0
929.0
931.0
933.0
938.0
946.0
958.0
966.0
976.0
985.0
997.0
1006.0
1019.0
1025.0
1031.0
1035.0
1039.0
1043.0
1045.0
1047.0
1048.0
1049.0
1053.0
1054.0
1059.0
1063.0
1067.0
1067.0
1069.0
1067.0
1068.0
1076.0
1082.0
1084.0
1087.0
1089.0
1093.0
1098.0
1099.0
1097.0
1100.0
1104.0
1113.0
1123.0
1127.0
1126.0
1128.0
1136.0
1142.0
1144.0
1144.0
1144.0
1144.0
1143.0
1147.0
1155.0
1166.0
1173.0
1173.0
1169.0
1164.0
1165.0
1163.0
1164.0
1167.0
1172.0
1176.0
1174.0
1166.0
1161.0
1158.0
1158.0
1159.0
1158.0
1152.0
1147.0
1145.0
1147.0
1142.0
1135.0
1128.0
1121.0
1120.0
1116.0
1114.0
1111.0
1103.0
1096.0
1087.0
1080.0
1072.0
1070.0
1067.0
1062.0
1055.0
1048.0
1042.0
1039.0
1036.0
1032.0
1029.0
1026.0
1019.0
1016.0
1012.0
1009.0
1006.0
1008.0
1010.0
1011.0
1010.0
1005.0
1006.0
1007.0
1015.0
1020.0
1027.0
1028.0
1030.0
1034.0
1038.0
1041.0
1041.0
1039.0
1039.0
1039.0
1044.0
1049.0
1045.0
1038.0
1033.0
1034.0
1033.0
1035.0
1035.0
1032.0
1031.0
1032.0
1040.0
1048.0
1048.0
1037.0
1024.0
1016.0
1015.0
1015.0
1015.0
1012.0
1009.0
1004.0
1000.0
992.0
984.0
981.0
981.0
979.0
978.0
974.0
973.0
973.0
973.0
970.0
966.0
962.0
958.0
958.0
965.0
971.0
969.0
963.0
959.0
963.0
971.0
971.0
965.0
963.0
958.0
958.0
958.0
962.0
962.0
962.0
959.0
956.0
955.0
955.0
957.0
959.0
960.0
958.0
955.0
958.0
962.0
964.0
961.0
957.0
958.0
959.0
959.0
961.0
962.0
958.0
957.0
961.0
965.0
964.0
960.0
955.0
955.0
962.0
967.0
964.0
958.0
953.0
953.0
958.0
966.0
968.0
966.0
962.0
964.0
967.0
968.0
973.0
973.0
966.0
963.0
965.0
967.0
975.0
977.0
975.0
983.0
993.0
1005.0
1017.0
1048.0
1122.0
1249.0
1376.0
1471.0
1461.0
1420.0
1381.0
1361.0
1347.0
1330.0
1305.0
1277.0
1257.0
1238.0
1226.0
1209.0
1182.0
1160.0
1136.0
1117.0
1097.0
1071.0
1037.0
999.0
960.0
927.0
900.0
874.0
844.0
807.0
772.0
747.0
738.0
735.0
732.0
727.0
718.0
713.0
701.0
687.0
676.0
667.0
654.0
647.0
655.0
675.0
698.0
725.0
751.0
787.0
813.0
827.0
832.0
836.0
849.0
862.0
867.0
874.0
881.0
884.0
883.0
887.0
895.0
910.0
920.0
928.0
929.0
937.0
948.0
957.0
968.0
981.0
990.0
999.0
1016.0
1034.0
1047.0
1050.0
1054.0
1061.0
1068.0
1071.0
1072.0
1073.0
1077.0
1084.0
1093.0
1095.0
1097.0
1098.0
1100.0
1103.0
1107.0
1114.0
1124.0
1132.0
1133.0
1138.0
1148.0
1157.0
1162.0
1164.0
1166.0
1177.0
1184.0
1187.0
1197.0
1203.0
1207.0
1216.0
1222.0
1231.0
1232.0
1229.0
1231.0
1232.0
1239.0
1242.0
1242.0
1242.0
1241.0
1246.0
1251.0
1252.0
1252.0
1254.0
1251.0
1251.0
1249.0
1248.0
1246.0
1244.0
1241.0
1244.0
1245.0
1237.0
1229.0
1220.0
1218.0
1213.0
1209.0
1198.0
1183.0
1166.0
1155.0
1152.0
1148.0
1143.0
1134.0
1125.0
1108.0
1098.0
1092.0
1085.0
1073.0
1056.0
1046.0
1039.0
1035.0
1024.0
1016.0
1008.0
1000.0
994.0
990.0
987.0
981.0
975.0
970.0
969.0
971.0
973.0
967.0
959.0
951.0
953.0
957.0
961.0
961.0
959.0
954.0
948.0
943.0
947.0
953.0
953.0
949.0
947.0
946.0
944.0
946.0
945.0
953.0
954.0
954.0
947.0
944.0
944.0
946.0
949.0
953.0
954.0
953.0
947.0
943.0
945.0
946.0
950.0
949.0
949.0
953.0
955.0
953.0
954.0
956.0
956.0
951.0
946.0
948.0
952.0
959.0
960.0
955.0
954.0
953.0
959.0
964.0
959.0
950.0
943.0
948.0
958.0
965.0
963.0
953.0
952.0
952.0
964.0
965.0
964.0
961.0
957.0
957.0
967.0
974.0
971.0
961.0
957.0
960.0
966.0
967.0
964.0
962.0
962.0
966.0
972.0
972.0
967.0
963.0
964.0
967.0
973.0
977.0
975.0
970.0
966.0
966.0
966.0
969.0
975.0
978.0
979.0
977.0
979.0
975.0
974.0
971.0
972.0
978.0
983.0
986.0
987.0
983.0
985.0
985.0
988.0
987.0
990.0
991.0
1000.0
1009.0
1015.0
1026.0
1056.0
1129.0
1256.0
1383.0
1478.0
1478.0
1435.0
1398.0
1383.0
1370.0
1349.0
1319.0
1293.0
1270.0
1251.0
1236.0
1217.0
1189.0
1152.0
1116.0
1086.0
1059.0
1033.0
1000.0
965.0
924.0
884.0
853.0
829.0
810.0
786.0
759.0
741.0
733.0
732.0
730.0
721.0
703.0
683.0
669.0
657.0
643.0
631.0
615.0
608.0
612.0
627.0
656.0
685.0
712.0
743.0
776.0
801.0
815.0
822.0
830.0
836.0
847.0
856.0
870.0
880.0
883.0
883.0
886.0
898.0
916.0
932.0
943.0
950.0
957.0
971.0
981.0
989.0
1001.0
1019.0
1038.0
1051.0
1064.0
1074.0
1081.0
1089.0
1098.0
1107.0
1111.0
1115.0
1120.0
1125.0
1137.0
1142.0
1148.0
1153.0
1159.0
1170.0
1180.0
1188.0
1193.0
1201.0
1203.0
1206.0
1215.0
1234.0
1249.0
1253.0
1250.0
1252.0
1255.0
1262.0
1267.0
1274.0
1283.0
1294.0
1302.0
1302.0
1298.0
1300.0
1304.0
1311.0
1314.0
1314.0
1314.0
1313.0
1308.0
1303.0
1300.0
1302.0
1301.0
1293.0
1290.0
1287.0
1284.0
1282.0
1277.0
1268.0
1256.0
1246.0
1238.0
1237.0
1235.0
1225.0
1217.0
1207.0
1200.0
1192.0
1181.0
1170.0
1160.0
1152.0
1146.0
1143.0
1134.0
1122.0
1106.0
1092.0
1083.0
1076.0
1071.0
1062.0
1050.0
1040.0
1033.0
1032.0
1025.0
1013.0
1002.0
1002.0
1004.0
1001.0
993.0
984.0
977.0
975.0
976.0
974.0
974.0
973.0
973.0
967.0
965.0
969.0
974.0
975.0
969.0
958.0
955.0
958.0
969.0
971.0
964.0
960.0
961.0
963.0
962.0
956.0
953.0
953.0
958.0
956.0
960.0
960.0
956.0
955.0
957.0
960.0
960.0
959.0
955.0
956.0
959.0
966.0
972.0
971.0
966.0
962.0
962.0
962.0
961.0
960.0
962.0
961.0
962.0
964.0
961.0
961.0
960.0
963.0
965.0
962.0
961.0
961.0
960.0
960.0
960.0
965.0
974.0
974.0
968.0
963.0
961.0
965.0
965.0
961.0
957.0
962.0
969.0
974.0
971.0
962.0
957.0
958.0
960.0
964.0
966.0
967.0
963.0
960.0
963.0
965.0
967.0
969.0
965.0
967.0
969.0
967.0
966.0
961.0
965.0
968.0
973.0
978.0
978.0
972.0
966.0
968.0
973.0
973.0
972.0
969.0
967.0
968.0
972.0
973.0
974.0
971.0
966.0
968.0
976.0
987.0
987.0
980.0
971.0
972.0
979.0
982.0
982.0
984.0
988.0
989.0
988.0
989.0
989.0
994.0
998.0
1007.0
1028.0
1072.0
1156.0
1281.0
1397.0
1452.0
1440.0
1404.0
1378.0
1366.0
1350.0
1330.0
1311.0
1290.0
1273.0
1253.0
1234.0
1216.0
1202.0
1186.0
1166.0
1143.0
1114.0
1088.0
1059.0
1036.0
1013.0
992.0
966.0
942.0
916.0
895.0
871.0
855.0
843.0
843.0
848.0
857.0
854.0
842.0
829.0
823.0
815.0
801.0
773.0
751.0
743.0
757.0
780.0
804.0
830.0
858.0
884.0
908.0
918.0
921.0
924.0
926.0
929.0
934.0
943.0
947.0
945.0
940.0
936.0
937.0
940.0
944.0
952.0
960.0
965.0
974.0
982.0
998.0
1016.0
1027.0
1031.0
1031.0
1038.0
1046.0
1053.0
1055.0
1051.0
1050.0
1047.0
1046.0
1043.0
1040.0
1036.0
1034.0
1037.0
1041.0
1040.0
1041.0
1041.0
1043.0
1045.0
1043.0
1042.0
1044.0
1049.0
1055.0
1061.0
1063.0
1066.0
1067.0
1070.0
1075.0
1082.0
1084.0
1086.0
1087.0
1088.0
1093.0
1100.0
1104.0
1105.0
1102.0
1101.0
1106.0
1110.0
1114.0
1122.0
1123.0
1116.0
1114.0
1114.0
1116.0
1118.0
1115.0
1114.0
1114.0
1118.0
1120.0
1117.0
1114.0
1108.0
1107.0
1107.0
1104.0
1102.0
1102.0
1101.0
1097.0
1090.0
1085.0
1081.0
1078.0
1072.0
1068.0
1062.0
1059.0
1050.0
1043.0
1034.0
1027.0
1024.0
1021.0
1015.0
1008.0
1000.0
993.0
991.0
992.0
992.0
988.0
982.0
980.0
979.0
977.0
974.0
968.0
957.0
958.0
962.0
972.0
974.0
966.0
959.0
958.0
964.0
964.0
961.0
957.0
952.0
948.0
951.0
950.0
948.0
951.0
952.0
953.0
951.0
948.0
947.0
946.0
945.0
947.0
949.0
951.0
951.0
951.0
950.0
949.0
949.0
953.0
954.0
953.0
957.0
959.0
960.0
959.0
955.0
952.0
954.0
959.0
958.0
960.0
960.0
961.0
963.0
964.0
961.0
962.0
962.0
961.0
963.0
964.0
966.0
969.0
970.0
968.0
966.0
964.0
964.0
963.0
963.0
965.0
965.0
967.0
969.0
970.0
970.0
973.0
970.0
965.0
961.0
962.0
970.0
974.0
972.0
969.0
969.0
969.0
971.0
970.0
969.0
969.0
968.0
970.0
971.0
971.0
969.0
967.0
972.0
975.0
971.0
969.0
968.0
969.0
972.0
976.0
975.0
973.0
971.0
972.0
973.0
976.0
975.0
972.0
965.0
970.0
979.0
982.0
982.0
976.0
977.0
981.0
984.0
985.0
981.0
980.0
979.0
980.0
987.0
991.0
993.0
991.0
987.0
994.0
1005.0
1021.0
1043.0
1083.0
1163.0
1287.0
1402.0
1459.0
1454.0
1421.0
1402.0
1393.0
1386.0
1372.0
1350.0
1335.0
1323.0
1312.0
1303.0
1290.0
1270.0
1252.0
1232.0
1214.0
1199.0
1179.0
1157.0
1133.0
1107.0
1085.0
1066.0
1047.0
1016.0
984.0
945.0
916.0
894.0
876.0
865.0
860.0
861.0
859.0
849.0
836.0
813.0
796.0
771.0
752.0
735.0
721.0
707.0
704.0
719.0
743.0
773.0
803.0
827.0
843.0
851.0
853.0
860.0
872.0
878.0
878.0
872.0
875.0
878.0
883.0
880.0
877.0
876.0
883.0
893.0
903.0
910.0
912.0
914.0
927.0
941.0
952.0
963.0
968.0
974.0
984.0
993.0
1009.0
1021.0
1026.0
1020.0
1021.0
1022.0
1023.0
1029.0
1036.0
1038.0
1037.0
1036.0
1039.0
1044.0
1048.0
1044.0
1046.0
1048.0
1054.0
1059.0
1063.0
1067.0
1072.0
1074.0
1081.0
1089.0
1093.0
1098.0
1104.0
1106.0
1111.0
1118.0
1122.0
1127.0
1133.0
1140.0
1145.0
1154.0
1158.0
1162.0
1164.0
1170.0
1173.0
1180.0
1184.0
1184.0
1187.0
1194.0
1194.0
1194.0
1189.0
1190.0
1193.0
1193.0
1188.0
1185.0
1186.0
1186.0
1184.0
1173.0
1165.0
1160.0
1152.0
1145.0
1141.0
1138.0
1133.0
1120.0
1109.0
1105.0
1105.0
1102.0
1091.0
1073.0
1059.0
1053.0
1049.0
1043.0
1037.0
1026.0
1017.0
1014.0
1015.0
1012.0
999.0
990.0
985.0
983.0
980.0
977.0
976.0
970.0
