# Simple Text Format
# Sampling Rate (Hz):= 360.00
# Resolution:= 12
# Labels:= ECG
942.0
913.0
887.0
855.0
823.0
792.0
766.0
749.0
742.0
738.0
736.0
731.0
722.0
709.0
700.0
688.0
677.0
662.0
638.0
620.0
614.0
623.0
643.0
669.0
696.0
731.0
766.0
800.0
821.0
829.0
834.0
844.0
861.0
876.0
883.0
890.0
895.0
904.0
910.0
916.0
918.0
925.0
934.0
946.0
959.0
969.0
975.0
979.0
983.0
999.0
1011.0
1024.0
1033.0
1041.0
1049.0
1060.0
1080.0
1091.0
1092.0
1090.0
1083.0
1081.0
1079.0
1078.0
1079.0
1076.0
1072.0
1066.0
1066.0
1066.0
1069.0
1069.0
1069.0
1065.0
1069.0
1072.0
1072.0
1071.0
1070.0
1073.0
1076.0
1082.0
1085.0
1090.0
1089.0
1094.0
1102.0
1106.0
1109.0
1109.0
1113.0
1117.0
1122.0
1126.0
1129.0
1130.0
1134.0
1138.0
1146.0
1149.0
1150.0
1148.0
1148.0
1151.0
1154.0
1158.0
1155.0
1152.0
1149.0
1149.0
1154.0
1155.0
1152.0
1146.0
1141.0
1141.0
1141.0
1139.0
1132.0
1129.0
1121.0
1115.0
1111.0
1108.0
1110.0
1105.0
1098.0
1089.0
1084.0
1079.0
1072.0
1065.0
1054.0
1048.0
1042.0
1040.0
1036.0
1027.0
1018.0
1009.0
1002.0
996.0
991.0
985.0
979.0
974.0
973.0
971.0
966.0
960.0
956.0
956.0
957.0
955.0
955.0
951.0
946.0
943.0
944.0
944.0
942.0
938.0
935.0
935.0
939.0
940.0
936.0
930.0
927.0
929.0
931.0
932.0
929.0
923.0
923.0
928.0
933.0
934.0
929.0
922.0
923.0
930.0
938.0
936.0
929.0
921.0
920.0
926.0
931.0
932.0
934.0
933.0
930.0
931.0
930.0
931.0
936.0
939.0
942.0
942.0
941.0
938.0
937.0
936.0
935.0
939.0
946.0
950.0
945.0
943.0
942.0
944.0
945.0
945.0
942.0
942.0
942.0
949.0
951.0
949.0
946.0
942.0
940.0
944.0
946.0
951.0
948.0
947.0
942.0
942.0
947.0
949.0
949.0
950.0
948.0
945.0
946.0
946.0
948.0
951.0
953.0
949.0
948.0
948.0
948.0
946.0
945.0
947.0
945.0
945.0
945.0
946.0
945.0
946.0
950.0
952.0
949.0
946.0
946.0
945.0
951.0
955.0
953.0
952.0
951.0
953.0
953.0
952.0
950.0
950.0
951.0
953.0
954.0
954.0
952.0
950.0
950.0
951.0
953.0
956.0
954.0
956.0
955.0
958.0
958.0
958.0
957.0
961.0
959.0
965.0
967.0
972.0
981.0
990.0
1005.0
1046.0
1127.0
1240.0
1341.0
1382.0
1372.0
1346.0
1332.0
1325.0
1318.0
1305.0
1284.0
1269.0
1256.0
1244.0
1230.0
1214.0
1196.0
1185.0
1175.0
1159.0
1133.0
1101.0
1062.0
1027.0
991.0
953.0
907.0
862.0
818.0
778.0
743.0
708.0
676.0
653.0
629.0
618.0
610.0
601.0
594.0
584.0
571.0
559.0
549.0
540.0
529.0
519.0
503.0
496.0
494.0
506.0
528.0
562.0
595.0
636.0
674.0
708.0
733.0
750.0
762.0
774.0
787.0
795.0
805.0
814.0
822.0
833.0
836.0
839.0
849.0
850.0
855.0
867.0
879.0
888.0
902.0
910.0
917.0
929.0
940.0
952.0
965.0
979.0
995.0
1005.0
1016.0
1022.0
1029.0
1033.0
1037.0
1040.0
1045.0
1052.0
1053.0
1050.0
1051.0
1059.0
1068.0
1069.0
1072.0
1072.0
1071.0
1077.0
1084.0
1086.0
1087.0
1091.0
1095.0
1104.0
1111.0
1116.0
1124.0
1129.0
1131.0
1134.0
1140.0
1145.0
1149.0
1155.0
1163.0
1172.0
1180.0
1188.0
1191.0
1192.0
1195.0
1205.0
1213.0
1214.0
1216.0
1218.0
1219.0
1220.0
1223.0
1227.0
1227.0
1226.0
1221.0
1223.0
1223.0
1219.0
1216.0
1211.0
1205.0
1203.0
1202.0
1197.0
1190.0
1181.0
1172.0
1168.0
1162.0
1156.0
1147.0
1136.0
1127.0
1123.0
1118.0
1114.0
1102.0
1091.0
1078.0
1071.0
1067.0
1056.0
1044.0
1032.0
1025.0
1019.0
1014.0
1011.0
1007.0
998.0
988.0
984.0
980.0
974.0
969.0
963.0
958.0
958.0
955.0
956.0
954.0
952.0
946.0
945.0
945.0
947.0
947.0
944.0
941.0
942.0
941.0
940.0
938.0
936.0
934.0
930.0
931.0
931.0
936.0
939.0
938.0
931.0
929.0
932.0
933.0
931.0
930.0
931.0
931.0
931.0
930.0
929.0
931.0
931.0
934.0
934.0
934.0
931.0
931.0
931.0
932.0
935.0
932.0
933.0
933.0
937.0
940.0
936.0
931.0
928.0
928.0
936.0
939.0
937.0
935.0
934.0
932.0
934.0
931.0
933.0
935.0
934.0
931.0
930.0
928.0
926.0
930.0
933.0
932.0
931.0
928.0
930.0
928.0
930.0
929.0
934.0
935.0
933.0
929.0
923.0
924.0
926.0
931.0
932.0
932.0
936.0
945.0
950.0
951.0
948.0
949.0
952.0
964.0
977.0
982.0
979.0
974.0
974.0
979.0
988.0
995.0
996.0
992.0
988.0
985.0
983.0
985.0
983.0
982.0
985.0
989.0
994.0
992.0
986.0
983.0
976.0
974.0
970.0
970.0
963.0
956.0
950.0
946.0
941.0
939.0
935.0
934.0
930.0
932.0
934.0
933.0
935.0
936.0
945.0
976.0
1053.0
1173.0
1286.0
1335.0
1317.0
1283.0
1261.0
1253.0
1243.0
1225.0
1208.0
1191.0
1182.0
1166.0
1154.0
1140.0
1125.0
1106.0
1093.0
1083.0
1073.0
1054.0
1030.0
1001.0
978.0
958.0
935.0
909.0
883.0
854.0
821.0
792.0
766.0
745.0
735.0
731.0
734.0
739.0
737.0
722.0
708.0
695.0
681.0
664.0
644.0
615.0
594.0
582.0
595.0
622.0
659.0
687.0
712.0
731.0
748.0
758.0
764.0
768.0
769.0
765.0
771.0
782.0
795.0
800.0
798.0
789.0
788.0
794.0
803.0
813.0
821.0
830.0
839.0
848.0
856.0
866.0
874.0
885.0
900.0
914.0
924.0
934.0
944.0
956.0
964.0
971.0
974.0
981.0
978.0
978.0
982.0
986.0
991.0
992.0
995.0
1002.0
1009.0
1017.0
1018.0
1019.0
1015.0
1018.0
1026.0
1035.0
1041.0
1044.0
1041.0
1044.0
1053.0
1062.0
1068.0
1070.0
1071.0
1072.0
1078.0
1085.0
1092.0
1098.0
1098.0
1100.0
1105.0
1109.0
1111.0
1112.0
1119.0
1120.0
1122.0
1125.0
1127.0
1129.0
1127.0
1124.0
1125.0
1128.0
1125.0
1124.0
1121.0
1116.0
1117.0
1114.0
1113.0
1110.0
1109.0
1109.0
1104.0
1097.0
1090.0
1084.0
1077.0
1074.0
1067.0
1065.0
1065.0
1056.0
1047.0
1037.0
1030.0
1027.0
1017.0
1009.0
1001.0
993.0
992.0
987.0
982.0
972.0
964.0
957.0
950.0
947.0
942.0
940.0
932.0
925.0
924.0
922.0
922.0
922.0
918.0
911.0
908.0
907.0
906.0
905.0
904.0
904.0
904.0
901.0
901.0
899.0
896.0
894.0
896.0
905.0
904.0
899.0
893.0
891.0
894.0
896.0
893.0
891.0
891.0
893.0
895.0
892.0
895.0
894.0
894.0
894.0
895.0
897.0
899.0
902.0
906.0
906.0
914.0
920.0
927.0
938.0
941.0
940.0
943.0
946.0
947.0
952.0
952.0
958.0
969.0
970.0
966.0
963.0
957.0
955.0
957.0
960.0
958.0
960.0
957.0
955.0
953.0
955.0
954.0
948.0
942.0
933.0
926.0
919.0
920.0
918.0
912.0
903.0
895.0
890.0
890.0
887.0
887.0
884.0
881.0
879.0
873.0
868.0
866.0
866.0
871.0
875.0
877.0
873.0
869.0
866.0
863.0
866.0
869.0
870.0
869.0
868.0
870.0
868.0
873.0
872.0
870.0
864.0
867.0
866.0
868.0
870.0
867.0
867.0
868.0
871.0
871.0
871.0
870.0
867.0
868.0
870.0
876.0
882.0
878.0
875.0
876.0
880.0
885.0
886.0
884.0
882.0
892.0
904.0
929.0
986.0
1083.0
1210.0
1306.0
1323.0
1288.0
1255.0
1236.0
1228.0
1214.0
1196.0
1176.0
1162.0
1149.0
1138.0
1125.0
1108.0
1090.0
1075.0
1063.0
1047.0
1030.0
1006.0
977.0
952.0
923.0
898.0
872.0
843.0
811.0
774.0
737.0
711.0
701.0
699.0
701.0
694.0
679.0
654.0
637.0
622.0
603.0
580.0
555.0
549.0
566.0
595.0
619.0
645.0
679.0
708.0
732.0
744.0
751.0
758.0
761.0
768.0
777.0
785.0
792.0
794.0
795.0
793.0
800.0
812.0
825.0
837.0
843.0
850.0
860.0
870.0
885.0
897.0
907.0
918.0
938.0
955.0
968.0
970.0
976.0
982.0
992.0
999.0
1007.0
1010.0
1007.0
1008.0
1015.0
1020.0
1027.0
1028.0
1032.0
1035.0
1041.0
1046.0
1047.0
1052.0
1055.0
1058.0
1065.0
1075.0
1081.0
1088.0
1089.0
1093.0
1104.0
1112.0
1118.0
1123.0
1127.0
1132.0
1137.0
1144.0
1146.0
1149.0
1151.0
1154.0
1160.0
1162.0
1167.0
1167.0
1168.0
1168.0
1169.0
1175.0
1171.0
1169.0
1165.0
1162.0
1159.0
1160.0
1157.0
1153.0
1148.0
1142.0
1136.0
1134.0
1131.0
1123.0
1115.0
1107.0
1101.0
1095.0
1088.0
1081.0
1069.0
1059.0
1052.0
1053.0
1048.0
1039.0
1030.0
1021.0
1016.0
1015.0
1010.0
1005.0
1002.0
1003.0
1005.0
1007.0
1008.0
1003.0
999.0
996.0
998.0
1000.0
1003.0
1002.0
997.0
988.0
982.0
979.0
974.0
974.0
972.0
972.0
972.0
968.0
967.0
964.0
965.0
963.0
960.0
956.0
948.0
941.0
934.0
931.0
927.0
925.0
916.0
909.0
904.0
899.0
898.0
897.0
893.0
889.0
885.0
882.0
884.0
882.0
877.0
876.0
876.0
879.0
881.0
883.0
882.0
883.0
881.0
877.0
878.0
882.0
885.0
883.0
876.0
873.0
878.0
883.0
888.0
882.0
879.0
875.0
878.0
879.0
875.0
871.0
871.0
875.0
877.0
879.0
877.0
877.0
878.0
875.0
875.0
873.0
873.0
874.0
871.0
871.0
878.0
882.0
881.0
878.0
873.0
873.0
879.0
882.0
881.0
880.0
877.0
874.0
879.0
881.0
882.0
879.0
880.0
877.0
878.0
877.0
884.0
883.0
882.0
878.0
879.0
887.0
890.0
892.0
887.0
885.0
881.0
886.0
888.0
891.0
890.0
890.0
891.0
892.0
893.0
890.0
891.0
890.0
897.0
900.0
900.0
897.0
898.0
895.0
900.0
906.0
917.0
916.0
915.0
921.0
936.0
963.0
1022.0
1125.0
1249.0
1326.0
1335.0
1304.0
1275.0
1257.0
1243.0
1230.0
1211.0
1192.0
1175.0
1160.0
1144.0
1128.0
1109.0
1091.0
1076.0
1050.0
1031.0
1003.0
972.0
943.0
907.0
869.0
830.0
792.0
762.0
731.0
696.0
668.0
650.0
639.0
639.0
642.0
637.0
623.0
608.0
595.0
586.0
581.0
568.0
550.0
540.0
546.0
569.0
600.0
632.0
668.0
706.0
738.0
762.0
774.0
776.0
786.0
790.0
795.0
804.0
813.0
817.0
817.0
811.0
810.0
818.0
829.0
838.0
843.0
851.0
860.0
875.0
887.0
897.0
907.0
917.0
931.0
944.0
958.0
969.0
979.0
983.0
988.0
993.0
998.0
999.0
1001.0
1006.0
1009.0
1014.0
1018.0
1023.0
1024.0
1025.0
1027.0
1036.0
1039.0
1042.0
1042.0
1045.0
1051.0
1058.0
1063.0
1067.0
1072.0
1077.0
1083.0
1093.0
1102.0
1111.0
1118.0
1127.0
1134.0
1142.0
1152.0
1157.0
1159.0
1163.0
1169.0
1177.0
1188.0
1195.0
1199.0
1196.0
1194.0
1193.0
1193.0
1191.0
1190.0
1189.0
1186.0
1187.0
1187.0
1184.0
1182.0
1179.0
1175.0
1170.0
1164.0
1152.0
1142.0
1130.0
1119.0
1116.0
1113.0
1101.0
1088.0
1073.0
1065.0
1063.0
1059.0
1047.0
1032.0
1022.0
1010.0
1002.0
993.0
983.0
978.0
972.0
961.0
953.0
946.0
944.0
937.0
934.0
926.0
924.0
925.0
921.0
916.0
908.0
904.0
903.0
898.0
898.0
893.0
894.0
890.0
895.0
896.0
896.0
891.0
888.0
886.0
887.0
891.0
890.0
882.0
883.0
879.0
880.0
884.0
883.0
880.0
874.0
874.0
878.0
884.0
886.0
884.0
879.0
873.0
874.0
875.0
878.0
881.0
877.0
874.0
874.0
878.0
887.0
886.0
882.0
878.0
876.0
883.0
885.0
889.0
889.0
885.0
885.0
888.0
891.0
892.0
890.0
889.0
891.0
890.0
890.0
891.0
893.0
893.0
894.0
894.0
890.0
893.0
897.0
900.0
898.0
895.0
892.0
894.0
892.0
894.0
893.0
896.0
899.0
900.0
895.0
891.0
896.0
902.0
901.0
898.0
896.0
896.0
896.0
900.0
900.0
900.0
896.0
897.0
898.0
902.0
903.0
905.0
905.0
902.0
903.0
904.0
904.0
902.0
904.0
906.0
907.0
904.0
904.0
902.0
904.0
911.0
916.0
914.0
911.0
908.0
908.0
908.0
910.0
912.0
916.0
919.0
915.0
914.0
916.0
916.0
917.0
919.0
922.0
925.0
930.0
940.0
942.0
956.0
989.0
1065.0
1188.0
1304.0
1349.0
1331.0
1292.0
1268.0
1259.0
1250.0
1230.0
1208.0
1188.0
1173.0
1164.0
1152.0
1132.0
1109.0
1085.0
1063.0
1040.0
1020.0
996.0
963.0
926.0
889.0
858.0
829.0
795.0
758.0
728.0
710.0
702.0
695.0
695.0
688.0
681.0
663.0
651.0
640.0
627.0
605.0
581.0
571.0
586.0
619.0
653.0
692.0
728.0
756.0
771.0
776.0
781.0
793.0
802.0
808.0
818.0
828.0
836.0
841.0
848.0
858.0
867.0
878.0
890.0
904.0
920.0
933.0
948.0
959.0
976.0
989.0
1000.0
1013.0
1024.0
1035.0
1045.0
1052.0
1057.0
1062.0
1061.0
1064.0
1065.0
1069.0
1074.0
1074.0
1073.0
1065.0
1064.0
1059.0
1060.0
1053.0
1058.0
1060.0
1057.0
1056.0
1052.0
1056.0
1062.0
1068.0
1066.0
1063.0
1065.0
1069.0
1077.0
1084.0
1088.0
1091.0
1095.0
1097.0
1102.0
1106.0
1106.0
1107.0
1110.0
1113.0
1125.0
1131.0
1129.0
1125.0
1118.0
1120.0
1126.0
1131.0
1128.0
1123.0
1120.0
1119.0
1118.0
1119.0
1111.0
1106.0
1102.0
1096.0
1094.0
1091.0
1085.0
1080.0
1073.0
1067.0
1061.0
1056.0
1048.0
1040.0
1033.0
1024.0
1019.0
1012.0
998.0
993.0
987.0
982.0
977.0
969.0
957.0
952.0
947.0
942.0
939.0
933.0
927.0
923.0
920.0
919.0
916.0
912.0
907.0
906.0
905.0
905.0
905.0
906.0
906.0
905.0
899.0
895.0
895.0
900.0
899.0
897.0
895.0
892.0
891.0
897.0
894.0
890.0
884.0
890.0
897.0
899.0
896.0
891.0
889.0
891.0
893.0
894.0
897.0
895.0
896.0
896.0
898.0
899.0
898.0
896.0
893.0
893.0
901.0
905.0
907.0
905.0
901.0
901.0
910.0
914.0
910.0
906.0
905.0
906.0
912.0
912.0
908.0
911.0
912.0
914.0
911.0
912.0
912.0
916.0
910.0
909.0
909.0
910.0
907.0
909.0
910.0
912.0
910.0
912.0
913.0
914.0
913.0
911.0
916.0
917.0
916.0
912.0
910.0
911.0
914.0
918.0
916.0
915.0
910.0
911.0
916.0
916.0
912.0
912.0
913.0
917.0
920.0
920.0
911.0
913.0
913.0
916.0
922.0
925.0
925.0
921.0
916.0
914.0
915.0
921.0
917.0
918.0
918.0
922.0
926.0
926.0
922.0
920.0
922.0
924.0
926.0
923.0
924.0
925.0
925.0
927.0
928.0
928.0
928.0
935.0
937.0
942.0
947.0
952.0
966.0
1001.0
1078.0
1200.0
1313.0
1359.0
1340.0
1302.0
1278.0
1266.0
1258.0
1247.0
1229.0
1208.0
1189.0
1175.0
1162.0
1151.0
1131.0
1107.0
1086.0
1063.0
1033.0
999.0
959.0
916.0
870.0
824.0
784.0
746.0
705.0
673.0
644.0
624.0
614.0
609.0
602.0
596.0
586.0
570.0
559.0
549.0
531.0
515.0
501.0
502.0
516.0
552.0
585.0
625.0
667.0
710.0
734.0
742.0
749.0
759.0
768.0
776.0
785.0
798.0
803.0
807.0
809.0
818.0
833.0
850.0
857.0
863.0
870.0
878.0
891.0
909.0
923.0
936.0
945.0
956.0
970.0
982.0
987.0
996.0
1005.0
1016.0
1024.0
1026.0
1023.0
1024.0
1024.0
1028.0
1034.0
1041.0
1042.0
1042.0
1043.0
1044.0
1049.0
1057.0
1063.0
1070.0
1073.0
1075.0
1079.0
1086.0
1091.0
1094.0
1098.0
1106.0
1115.0
1121.0
1125.0
1133.0
1139.0
1144.0
1148.0
1154.0
1159.0
1165.0
1171.0
1175.0
1174.0
1178.0
1182.0
1184.0
1182.0
1182.0
1183.0
1184.0
1183.0
1181.0
1182.0
1182.0
1180.0
1178.0
1170.0
1163.0
1156.0
1152.0
1154.0
1154.0
1145.0
1132.0
1119.0
1113.0
1107.0
1102.0
1094.0
1084.0
1077.0
1069.0
1061.0
1055.0
1042.0
1031.0
1020.0
1013.0
1013.0
1009.0
1000.0
991.0
979.0
970.0
966.0
963.0
958.0
957.0
951.0
949.0
946.0
942.0
939.0
934.0
933.0
934.0
932.0
933.0
934.0
931.0
927.0
924.0
923.0
928.0
926.0
922.0
915.0
914.0
917.0
923.0
924.0
921.0
917.0
915.0
912.0
916.0
917.0
917.0
920.0
921.0
920.0
918.0
917.0
920.0
919.0
916.0
916.0
918.0
920.0
921.0
921.0
924.0
924.0
922.0
921.0
922.0
924.0
923.0
923.0
923.0
926.0
924.0
920.0
920.0
927.0
931.0
932.0
927.0
921.0
920.0
918.0
925.0
926.0
925.0
924.0
924.0
922.0
924.0
921.0
922.0
920.0
920.0
922.0
927.0
929.0
924.0
920.0
919.0
924.0
928.0
928.0
925.0
923.0
920.0
924.0
927.0
928.0
923.0
918.0
923.0
927.0
931.0
930.0
928.0
930.0
935.0
940.0
942.0
940.0
938.0
945.0
954.0
962.0
968.0
971.0
975.0
975.0
973.0
975.0
981.0
989.0
995.0
994.0
995.0
990.0
992.0
988.0
986.0
984.0
986.0
987.0
991.0
992.0
992.0
988.0
986.0
981.0
980.0
977.0
975.0
972.0
971.0
966.0
972.0
978.0
995.0
1035.0
1124.0
1240.0
1331.0
1354.0
1321.0
1287.0
1269.0
1258.0
1249.0
1230.0
1207.0
1188.0
1175.0
1166.0
1150.0
1134.0
1115.0
1094.0
1085.0
1074.0
1059.0
1032.0
1003.0
975.0
952.0
929.0
900.0
866.0
834.0
804.0
775.0
754.0
740.0
730.0
722.0
720.0
722.0
719.0
710.0
696.0
681.0
670.0
654.0
632.0
610.0
587.0
578.0
584.0
609.0
642.0
676.0
702.0
731.0
748.0
766.0
775.0
777.0
780.0
784.0
792.0
799.0
802.0
804.0
803.0
808.0
811.0
817.0
822.0
826.0
836.0
846.0
856.0
860.0
871.0
882.0
895.0
909.0
919.0
933.0
948.0
962.0
969.0
979.0
985.0
992.0
998.0
1000.0
1001.0
1001.0
1005.0
1010.0
1016.0
1022.0
1024.0
1025.0
1029.0
1036.0
1043.0
1044.0
1046.0
1047.0
1050.0
1058.0
1068.0
1075.0
1082.0
1085.0
1086.0
1091.0
1099.0
1106.0
1109.0
1112.0
1113.0
1118.0
1126.0
1133.0
1142.0
1147.0
1146.0
1149.0
1153.0
1157.0
1159.0
1161.0
1160.0
1161.0
1163.0
1166.0
1167.0
1167.0
1162.0
1159.0
1158.0
1158.0
1155.0
1150.0
1146.0
1142.0
1142.0
1138.0
1132.0
1128.0
1120.0
1112.0
1104.0
1101.0
1099.0
1092.0
1082.0
1072.0
1062.0
1057.0
1052.0
1046.0
1037.0
1031.0
1022.0
1014.0
1005.0
995.0
990.0
985.0
980.0
974.0
971.0
965.0
960.0
959.0
956.0
954.0
949.0
944.0
943.0
943.0
941.0
939.0
934.0
933.0
933.0
933.0
935.0
933.0
931.0
928.0
925.0
930.0
929.0
930.0
926.0
926.0
922.0
919.0
921.0
926.0
930.0
929.0
925.0
922.0
921.0
919.0
918.0
914.0
918.0
920.0
923.0
924.0
923.0
920.0
919.0
918.0
921.0
926.0
929.0
928.0
926.0
924.0
932.0
938.0
942.0
942.0
944.0
951.0
957.0
963.0
968.0
973.0
976.0
979.0
979.0
982.0
985.0
988.0
993.0
995.0
996.0
993.0
990.0
989.0
986.0
990.0
990.0
990.0
986.0
982.0
983.0
986.0
990.0
993.0
988.0
976.0
967.0
964.0
964.0
962.0
956.0
950.0
944.0
937.0
934.0
930.0
928.0
928.0
924.0
917.0
918.0
915.0
914.0
911.0
905.0
902.0
902.0
907.0
906.0
902.0
900.0
899.0
900.0
904.0
905.0
905.0
903.0
900.0
901.0
901.0
902.0
903.0
902.0
906.0
910.0
912.0
908.0
902.0
901.0
904.0
908.0
911.0
909.0
906.0
904.0
904.0
906.0
907.0
911.0
912.0
913.0
913.0
917.0
920.0
926.0
932.0
944.0
969.0
1024.0
1115.0
1235.0
1322.0
1343.0
1315.0
1286.0
1268.0
1258.0
1244.0
1223.0
1205.0
1194.0
1180.0
1168.0
1157.0
1146.0
1135.0
1123.0
1108.0
1089.0
1070.0
1055.0
1039.0
1020.0
990.0
960.0
925.0
893.0
867.0
840.0
812.0
777.0
738.0
707.0
687.0
683.0
683.0
682.0
670.0
656.0
640.0
628.0
617.0
608.0
592.0
577.0
567.0
564.0
579.0
601.0
624.0
646.0
674.0
709.0
741.0
759.0
770.0
771.0
781.0
788.0
798.0
808.0
813.0
821.0
829.0
835.0
837.0
837.0
842.0
847.0
858.0
871.0
883.0
894.0
899.0
908.0
920.0
936.0
948.0
959.0
966.0
979.0
997.0
1010.0
1019.0
1023.0
1026.0
1028.0
1036.0
1042.0
1046.0
1048.0
1052.0
1055.0
1057.0
1063.0
1067.0
1068.0
1072.0
1074.0
1084.0
1087.0
1094.0
1097.0
1099.0
1105.0
1110.0
1114.0
1123.0
1130.0
1135.0
1139.0
1139.0
1143.0
1151.0
1157.0
1164.0
1168.0
1172.0
1177.0
1183.0
1187.0
1190.0
1189.0
1191.0
1194.0
1197.0
1199.0
1200.0
1201.0
1200.0
1201.0
1203.0
1202.0
1197.0
1194.0
1191.0
1189.0
1185.0
1181.0
1173.0
1169.0
1164.0
1162.0
1156.0
1151.0
1143.0
1131.0
1122.0
1117.0
1115.0
1110.0
1102.0
1091.0
1080.0
1074.0
1066.0
1059.0
1055.0
1047.0
1038.0
1027.0
1021.0
1016.0
1009.0
1005.0
1002.0
1000.0
998.0
996.0
995.0
991.0
992.0
995.0
1001.0
1004.0
1006.0
1003.0
1006.0
1009.0
1013.0
1013.0
1011.0
1010.0
1012.0
1019.0
1018.0
1011.0
1003.0
995.0
992.0
996.0
997.0
997.0
996.0
991.0
990.0
990.0
989.0
986.0
979.0
974.0
970.0
966.0
958.0
951.0
944.0
942.0
940.0
938.0
937.0
931.0
929.0
928.0
926.0
923.0
921.0
921.0
918.0
912.0
910.0
910.0
915.0
915.0
915.0
912.0
912.0
913.0
913.0
913.0
911.0
907.0
910.0
911.0
910.0
911.0
909.0
907.0
908.0
912.0
913.0
909.0
906.0
907.0
908.0
913.0
911.0
908.0
905.0
902.0
906.0
906.0
909.0
909.0
908.0
903.0
901.0
903.0
906.0
907.0
905.0
904.0
904.0
906.0
908.0
908.0
907.0
905.0
903.0
906.0
908.0
909.0
908.0
907.0
905.0
908.0
909.0
908.0
905.0
907.0
910.0
915.0
917.0
913.0
911.0
906.0
908.0
909.0
917.0
919.0
913.0
909.0
911.0
915.0
923.0
925.0
922.0
918.0
916.0
919.0
921.0
923.0
923.0
920.0
921.0
925.0
930.0
932.0
934.0
934.0
943.0
954.0
981.0
1032.0
1136.0
1253.0
1333.0
1349.0
1320.0
1286.0
1267.0
1258.0
1245.0
1231.0
1220.0
1208.0
1192.0
1175.0
1156.0
1138.0
1125.0
1107.0
1091.0
1069.0
1052.0
1034.0
1011.0
982.0
953.0
921.0
892.0
862.0
834.0
803.0
772.0
743.0
725.0
716.0
713.0
710.0
712.0
702.0
691.0
679.0
668.0
661.0
654.0
638.0
621.0
604.0
602.0
611.0
629.0
652.0
680.0
710.0
743.0
769.0
786.0
795.0
799.0
809.0
817.0
818.0
823.0
829.0
837.0
843.0
843.0
836.0
832.0
834.0
844.0
862.0
876.0
884.0
886.0
889.0
898.0
913.0
928.0
940.0
946.0
955.0
964.0
978.0
993.0
1001.0
1002.0
1002.0
1008.0
1012.0
1016.0
1020.0
1022.0
1023.0
1024.0
1029.0
1035.0
1041.0
1044.0
1041.0
1043.0
1044.0
1047.0
1051.0
1056.0
1061.0
1070.0
1075.0
1078.0
1080.0
1082.0
1083.0
1090.0
1098.0
1104.0
1108.0
1110.0
1113.0
1118.0
1127.0
1134.0
1142.0
1147.0
1151.0
1156.0
1163.0
1170.0
1178.0
1181.0
1185.0
1189.0
1192.0
1198.0
1200.0
1204.0
1202.0
1205.0
1206.0
1209.0
1202.0
1196.0
1189.0
1188.0
1186.0
1182.0
1181.0
1179.0
1174.0
1168.0
1163.0
1160.0
1153.0
1145.0
1134.0
1124.0
1114.0
1107.0
1099.0
1085.0
1068.0
1055.0
1046.0
1039.0
1031.0
1022.0
1010.0
1003.0
997.0
990.0
979.0
968.0
956.0
952.0
948.0
949.0
946.0
938.0
929.0
927.0
925.0
923.0
918.0
915.0
915.0
915.0
916.0
913.0
908.0
905.0
904.0
901.0
902.0
903.0
903.0
899.0
896.0
894.0
896.0
896.0
899.0
898.0
894.0
896.0
896.0
898.0
895.0
891.0
888.0
890.0
891.0
894.0
892.0
893.0
891.0
891.0
892.0
897.0
896.0
895.0
892.0
893.0
898.0
897.0
898.0
898.0
896.0
899.0
896.0
900.0
898.0
898.0
898.0
903.0
904.0
907.0
903.0
900.0
898.0
903.0
906.0
907.0
907.0
903.0
901.0
901.0
907.0
909.0
911.0
913.0
908.0
907.0
908.0
908.0
907.0
909.0
909.0
908.0
906.0
910.0
915.0
920.0
917.0
912.0
913.0
915.0
917.0
914.0
911.0
910.0
918.0
919.0
919.0
917.0
915.0
915.0
917.0
919.0
920.0
919.0
918.0
918.0
919.0
923.0
924.0
922.0
921.0
922.0
925.0
928.0
925.0
928.0
925.0
928.0
929.0
929.0
926.0
927.0
925.0
930.0
934.0
935.0
933.0
935.0
934.0
935.0
940.0
946.0
948.0
947.0
947.0
951.0
962.0
974.0
991.0
1021.0
1081.0
1178.0
1276.0
1337.0
1338.0
1313.0
1286.0
1273.0
1264.0
1253.0
1234.0
1212.0
1192.0
1174.0
1159.0
1147.0
1131.0
1115.0
1095.0
1077.0
1056.0
1034.0
1004.0
979.0
950.0
920.0
896.0
871.0
844.0
812.0
780.0
759.0
742.0
732.0
727.0
720.0
714.0
705.0
695.0
683.0
677.0
663.0
647.0
630.0
613.0
608.0
617.0
643.0
670.0
702.0
734.0
764.0
784.0
796.0
798.0
808.0
817.0
824.0
830.0
835.0
842.0
847.0
853.0
856.0
860.0
865.0
875.0
891.0
904.0
918.0
929.0
942.0
951.0
966.0
984.0
1001.0
1016.0
1029.0
1038.0
1055.0
1072.0
1086.0
1094.0
1095.0
1090.0
1089.0
1094.0
1098.0
1100.0
1103.0
1105.0
1106.0
1116.0
1118.0
1119.0
1117.0
1115.0
1116.0
1118.0
1120.0
1116.0
1116.0
1110.0
1112.0
1114.0
1117.0
1115.0
1113.0
1115.0
1120.0
1123.0
1127.0
1128.0
1130.0
1131.0
1132.0
1136.0
1141.0
1143.0
1144.0
1147.0
1154.0
1155.0
1159.0
1156.0
1158.0
1157.0
1158.0
1156.0
1155.0
1153.0
1151.0
1149.0
1150.0
1154.0
1152.0
1145.0
1139.0
1130.0
1127.0
1126.0
1122.0
1117.0
1112.0
1102.0
1098.0
1092.0
1088.0
1079.0
1071.0
1066.0
1064.0
1059.0
1048.0
1038.0
1032.0
1024.0
1013.0
1007.0
999.0
995.0
988.0
982.0
979.0
971.0
966.0
960.0
947.0
944.0
946.0
949.0
945.0
939.0
933.0
926.0
926.0
926.0
924.0
920.0
917.0
919.0
921.0
921.0
915.0
914.0
913.0
914.0
916.0
914.0
914.0
913.0
911.0
910.0
915.0
917.0
918.0
912.0
907.0
905.0
909.0
912.0
917.0
914.0
910.0
908.0
911.0
913.0
916.0
917.0
914.0
913.0
915.0
917.0
921.0
918.0
921.0
921.0
922.0
924.0
927.0
927.0
927.0
927.0
929.0
933.0
935.0
933.0
930.0
927.0
929.0
932.0
932.0
933.0
929.0
928.0
928.0
930.0
931.0
929.0
931.0
934.0
932.0
933.0
931.0
931.0
931.0
929.0
930.0
934.0
935.0
934.0
931.0
930.0
933.0
937.0
938.0
938.0
934.0
932.0
934.0
938.0
940.0
937.0
932.0
930.0
932.0
936.0
941.0
941.0
937.0
934.0
934.0
938.0
940.0
940.0
940.0
940.0
942.0
944.0
941.0
941.0
944.0
945.0
945.0
942.0
942.0
941.0
941.0
944.0
947.0
949.0
950.0
949.0
948.0
949.0
952.0
956.0
962.0
966.0
969.0
979.0
1010.0
1082.0
1209.0
1336.0
1387.0
1355.0
1313.0
1292.0
1282.0
1267.0
1246.0
1219.0
1199.0
1184.0
1171.0
1155.0
1140.0
1123.0
1103.0
1084.0
1060.0
1030.0
1000.0
965.0
927.0
886.0
847.0
808.0
769.0
737.0
714.0
703.0
697.0
693.0
683.0
666.0
653.0
640.0
632.0
625.0
612.0
590.0
582.0
586.0
609.0
646.0
687.0
732.0
770.0
797.0
810.0
813.0
819.0
822.0
830.0
841.0
848.0
851.0
851.0
848.0
853.0
862.0
872.0
880.0
884.0
890.0
903.0
916.0
926.0
937.0
946.0
956.0
970.0
986.0
999.0
1009.0
1018.0
1028.0
1036.0
1039.0
1040.0
1039.0
1041.0
1046.0
1051.0
1055.0
1059.0
1059.0
1058.0
1060.0
1062.0
1066.0
1073.0
1080.0
1083.0
1086.0
1088.0
1094.0
1095.0
1102.0
1105.0
1109.0
1114.0
1120.0
1126.0
1132.0
1140.0
1142.0
1147.0
1156.0
1163.0
1169.0
1173.0
1176.0
1180.0
1188.0
1193.0
1195.0
1197.0
1197.0
1199.0
1205.0
1209.0
1206.0
1206.0
1204.0
1206.0
1208.0
1204.0
1201.0
1194.0
1188.0
1184.0
1179.0
1177.0
1172.0
1169.0
1160.0
1152.0
1147.0
1141.0
1135.0
1122.0
1112.0
1102.0
1097.0
1094.0
1084.0
1073.0
1059.0
1054.0
1049.0
1044.0
1037.0
1025.0
1015.0
1009.0
1007.0
1002.0
992.0
987.0
980.0
981.0
976.0
971.0
968.0
958.0
958.0
962.0
965.0
963.0
956.0
948.0
946.0
947.0
947.0
947.0
945.0
943.0
938.0
938.0
938.0
939.0
937.0
937.0
939.0
939.0
940.0
939.0
938.0
936.0
933.0
932.0
934.0
941.0
945.0
941.0
934.0
935.0
935.0
936.0
939.0
940.0
941.0
942.0
942.0
944.0
942.0
942.0
939.0
940.0
946.0
952.0
950.0
948.0
944.0
948.0
951.0
956.0
954.0
950.0
947.0
947.0
950.0
948.0
952.0
946.0
943.0
946.0
948.0
949.0
948.0
945.0
945.0
