# Simple Text Format
# Sampling Rate (Hz):= 360.00
# Resolution:= 12
# Labels:= ECG
965.0
960.0
958.0
960.0
966.0
969.0
962.0
957.0
952.0
951.0
951.0
948.0
948.0
948.0
952.0
957.0
954.0
946.0
938.0
941.0
943.0
947.0
946.0
946.0
947.0
945.0
942.0
940.0
941.0
938.0
937.0
934.0
937.0
942.0
943.0
943.0
939.0
937.0
937.0
940.0
947.0
952.0
950.0
942.0
937.0
938.0
939.0
942.0
939.0
935.0
937.0
941.0
944.0
947.0
944.0
939.0
940.0
942.0
945.0
943.0
939.0
934.0
936.0
937.0
938.0
937.0
935.0
935.0
935.0
934.0
935.0
933.0
932.0
934.0
935.0
934.0
937.0
934.0
931.0
927.0
935.0
940.0
941.0
934.0
933.0
935.0
945.0
952.0
952.0
946.0
945.0
949.0
960.0
971.0
975.0
974.0
971.0
969.0
976.0
984.0
989.0
991.0
989.0
988.0
986.0
986.0
982.0
980.0
981.0
981.0
982.0
986.0
987.0
993.0
991.0
985.0
981.0
975.0
971.0
967.0
963.0
957.0
951.0
949.0
948.0
948.0
948.0
942.0
944.0
949.0
956.0
963.0
982.0
1015.0
1094.0
1211.0
1330.0
1401.0
1405.0
1372.0
1339.0
1320.0
1307.0
1292.0
1272.0
1249.0
1227.0
1210.0
1190.0
1173.0
1153.0
1133.0
1112.0
1092.0
1075.0
1056.0
1039.0
1011.0
980.0
946.0
907.0
870.0
833.0
797.0
770.0
746.0
723.0
700.0
676.0
657.0
647.0
646.0
650.0
646.0
632.0
611.0
599.0
590.0
584.0
567.0
546.0
532.0
535.0
556.0
581.0
600.0
617.0
637.0
666.0
697.0
717.0
733.0
746.0
759.0
775.0
784.0
784.0
786.0
791.0
798.0
801.0
806.0
811.0
818.0
823.0
833.0
845.0
859.0
871.0
878.0
883.0
892.0
905.0
917.0
927.0
936.0
949.0
964.0
980.0
988.0
994.0
999.0
1001.0
1002.0
1009.0
1021.0
1030.0
1028.0
1027.0
1027.0
1029.0
1034.0
1041.0
1046.0
1052.0
1056.0
1061.0
1069.0
1075.0
1086.0
1093.0
1095.0
1094.0
1099.0
1105.0
1113.0
1120.0
1123.0
1127.0
1132.0
1137.0
1147.0
1156.0
1163.0
1166.0
1167.0
1168.0
1173.0
1177.0
1177.0
1181.0
1184.0
1188.0
1190.0
1196.0
1193.0
1193.0
1193.0
1193.0
1189.0
1186.0
1181.0
1176.0
1167.0
1165.0
1170.0
1173.0
1165.0
1155.0
1147.0
1139.0
1131.0
1125.0
1119.0
1115.0
1102.0
1092.0
1083.0
1076.0
1066.0
1056.0
1050.0
1047.0
1039.0
1021.0
1006.0
996.0
990.0
983.0
981.0
974.0
969.0
960.0
955.0
947.0
943.0
940.0
939.0
934.0
933.0
932.0
929.0
926.0
921.0
921.0
920.0
916.0
911.0
911.0
914.0
914.0
913.0
905.0
902.0
904.0
906.0
904.0
902.0
904.0
906.0
906.0
905.0
903.0
903.0
903.0
900.0
897.0
898.0
907.0
913.0
917.0
911.0
906.0
899.0
898.0
900.0
908.0
912.0
912.0
910.0
910.0
913.0
916.0
919.0
923.0
930.0
940.0
946.0
945.0
942.0
939.0
943.0
951.0
960.0
967.0
969.0
971.0
966.0
962.0
957.0
952.0
952.0
952.0
954.0
967.0
974.0
976.0
970.0
961.0
951.0
950.0
949.0
946.0
944.0
941.0
936.0
933.0
929.0
925.0
921.0
919.0
913.0
911.0
908.0
901.0
898.0
895.0
891.0
894.0
894.0
895.0
890.0
888.0
886.0
884.0
884.0
887.0
889.0
890.0
888.0
888.0
888.0
885.0
884.0
881.0
878.0
881.0
884.0
888.0
889.0
887.0
884.0
883.0
886.0
883.0
880.0
881.0
882.0
886.0
889.0
893.0
888.0
886.0
884.0
886.0
889.0
890.0
890.0
892.0
890.0
894.0
900.0
904.0
903.0
906.0
909.0
919.0
936.0
967.0
1027.0
1126.0
1250.0
1356.0
1395.0
1378.0
1339.0
1312.0
1294.0
1281.0
1267.0
1244.0
1223.0
1210.0
1197.0
1178.0
1161.0
1146.0
1133.0
1118.0
1099.0
1082.0
1066.0
1048.0
1023.0
1000.0
977.0
961.0
948.0
931.0
909.0
885.0
862.0
851.0
846.0
848.0
851.0
854.0
856.0
861.0
860.0
851.0
840.0
822.0
808.0
787.0
771.0
763.0
768.0
776.0
781.0
787.0
798.0
812.0
822.0
824.0
825.0
826.0
831.0
833.0
835.0
831.0
827.0
827.0
826.0
821.0
815.0
814.0
816.0
823.0
827.0
830.0
833.0
836.0
840.0
848.0
859.0
867.0
874.0
885.0
892.0
903.0
913.0
921.0
930.0
938.0
939.0
941.0
945.0
951.0
957.0
956.0
953.0
950.0
955.0
962.0
965.0
969.0
972.0
975.0
979.0
982.0
982.0
983.0
984.0
987.0
991.0
995.0
997.0
1000.0
1000.0
1004.0
1009.0
1012.0
1015.0
1020.0
1023.0
1024.0
1029.0
1032.0
1034.0
1039.0
1043.0
1045.0
1045.0
1048.0
1054.0
1061.0
1063.0
1062.0
1059.0
1059.0
1061.0
1063.0
1066.0
1068.0
1068.0
1067.0
1066.0
1062.0
1062.0
1062.0
1062.0
1062.0
1058.0
1053.0
1051.0
1055.0
1055.0
1050.0
1042.0
1040.0
1035.0
1035.0
1033.0
1028.0
1023.0
1016.0
1013.0
1010.0
1005.0
1000.0
990.0
989.0
991.0
991.0
979.0
965.0
957.0
954.0
959.0
967.0
972.0
971.0
965.0
964.0
965.0
973.0
980.0
981.0
979.0
975.0
970.0
972.0
977.0
978.0
974.0
968.0
967.0
965.0
966.0
964.0
964.0
965.0
967.0
963.0
965.0
962.0
959.0
955.0
948.0
945.0
942.0
942.0
941.0
936.0
926.0
920.0
914.0
907.0
905.0
903.0
904.0
902.0
903.0
902.0
900.0
894.0
892.0
895.0
896.0
894.0
891.0
887.0
892.0
895.0
894.0
894.0
891.0
890.0
891.0
895.0
898.0
900.0
901.0
896.0
890.0
893.0
895.0
895.0
898.0
896.0
891.0
893.0
897.0
893.0
892.0
890.0
891.0
894.0
899.0
899.0
899.0
897.0
899.0
901.0
901.0
901.0
900.0
897.0
897.0
899.0
900.0
903.0
903.0
903.0
902.0
903.0
903.0
903.0
904.0
902.0
901.0
906.0
909.0
910.0
908.0
906.0
907.0
906.0
908.0
912.0
909.0
908.0
912.0
913.0
916.0
917.0
920.0
919.0
920.0
919.0
920.0
918.0
920.0
923.0
926.0
926.0
927.0
927.0
928.0
930.0
930.0
939.0
944.0
951.0
954.0
954.0
962.0
982.0
1023.0
1102.0
1225.0
1348.0
1417.0
1420.0
1387.0
1355.0
1337.0
1323.0
1308.0
1293.0
1272.0
1258.0
1245.0
1230.0
1211.0
1190.0
1172.0
1153.0
1132.0
1109.0
1089.0
1068.0
1053.0
1032.0
1005.0
975.0
949.0
930.0
907.0
881.0
851.0
832.0
818.0
812.0
814.0
821.0
822.0
815.0
805.0
793.0
788.0
777.0
767.0
747.0
720.0
708.0
709.0
721.0
741.0
753.0
774.0
806.0
832.0
845.0
846.0
845.0
849.0
859.0
865.0
866.0
865.0
863.0
863.0
860.0
864.0
864.0
868.0
874.0
876.0
885.0
893.0
898.0
906.0
910.0
920.0
933.0
945.0
955.0
961.0
973.0
984.0
998.0
1008.0
1016.0
1020.0
1020.0
1021.0
1025.0
1028.0
1029.0
1032.0
1035.0
1036.0
1041.0
1047.0
1047.0
1048.0
1054.0
1061.0
1068.0
1067.0
1062.0
1063.0
1067.0
1069.0
1079.0
1084.0
1086.0
1088.0
1089.0
1091.0
1102.0
1111.0
1117.0
1121.0
1126.0
1129.0
1137.0
1145.0
1154.0
1166.0
1174.0
1179.0
1182.0
1192.0
1204.0
1212.0
1219.0
1222.0
1229.0
1232.0
1235.0
1236.0
1241.0
1241.0
1243.0
1240.0
1237.0
1232.0
1229.0
1230.0
1229.0
1224.0
1222.0
1217.0
1214.0
1207.0
1202.0
1194.0
1184.0
1172.0
1164.0
1159.0
1154.0
1144.0
1125.0
1105.0
1090.0
1083.0
1074.0
1064.0
1051.0
1040.0
1035.0
1028.0
1022.0
1013.0
1005.0
999.0
991.0
984.0
974.0
971.0
972.0
969.0
967.0
966.0
968.0
971.0
969.0
965.0
959.0
954.0
953.0
950.0
951.0
949.0
947.0
944.0
946.0
947.0
949.0
945.0
941.0
937.0
941.0
941.0
946.0
948.0
948.0
943.0
945.0
943.0
943.0
944.0
943.0
940.0
940.0
942.0
945.0
948.0
947.0
944.0
945.0
951.0
953.0
953.0
949.0
948.0
952.0
954.0
960.0
956.0
954.0
949.0
951.0
954.0
960.0
960.0
958.0
957.0
957.0
958.0
959.0
960.0
961.0
964.0
965.0
964.0
964.0
960.0
959.0
961.0
960.0
965.0
969.0
969.0
964.0
965.0
968.0
970.0
969.0
967.0
966.0
966.0
970.0
975.0
976.0
975.0
970.0
970.0
974.0
978.0
980.0
979.0
974.0
971.0
975.0
979.0
983.0
982.0
980.0
976.0
978.0
980.0
981.0
982.0
980.0
979.0
985.0
986.0
982.0
979.0
980.0
984.0
990.0
994.0
993.0
991.0
991.0
991.0
988.0
989.0
988.0
993.0
995.0
997.0
998.0
997.0
1000.0
1003.0
1006.0
1010.0
1018.0
1029.0
1047.0
1094.0
1186.0
1309.0
1418.0
1456.0
1437.0
1403.0
1378.0
1367.0
1356.0
1338.0
1318.0
1297.0
1278.0
1254.0
1232.0
1214.0
1194.0
1172.0
1151.0
1125.0
1095.0
1062.0
1021.0
981.0
943.0
908.0
874.0
841.0
803.0
764.0
737.0
721.0
713.0
703.0
694.0
689.0
685.0
671.0
663.0
648.0
635.0
622.0
608.0
590.0
583.0
587.0
603.0
629.0
659.0
694.0
732.0
767.0
793.0
810.0
823.0
835.0
849.0
858.0
869.0
883.0
891.0
895.0
898.0
903.0
913.0
927.0
939.0
951.0
968.0
985.0
996.0
1006.0
1016.0
1029.0
1048.0
1068.0
1087.0
1106.0
1123.0
1140.0
1154.0
1168.0
1181.0
1189.0
1191.0
1189.0
1193.0
1194.0
1196.0
1195.0
1200.0
1213.0
1220.0
1223.0
1217.0
1216.0
1217.0
1225.0
1236.0
1245.0
1241.0
1237.0
1230.0
1233.0
1239.0
1242.0
1245.0
1247.0
1250.0
1251.0
1253.0
1253.0
1256.0
1261.0
1261.0
1262.0
1268.0
1273.0
1275.0
1274.0
1270.0
1274.0
1280.0
1285.0
1289.0
1285.0
1283.0
1280.0
1281.0
1283.0
1275.0
1272.0
1272.0
1270.0
1268.0
1261.0
1252.0
1244.0
1245.0
1240.0
1234.0
1223.0
1215.0
1203.0
1200.0
1188.0
1180.0
1174.0
1170.0
1159.0
1146.0
1134.0
1128.0
1122.0
1114.0
1098.0
1091.0
1087.0
1086.0
1082.0
1067.0
1053.0
1045.0
1043.0
1044.0
1044.0
1038.0
1027.0
1018.0
1011.0
1010.0
1012.0
1011.0
1009.0
1002.0
999.0
1000.0
1001.0
999.0
993.0
992.0
995.0
995.0
991.0
989.0
986.0
986.0
986.0
985.0
986.0
985.0
983.0
983.0
984.0
986.0
985.0
985.0
981.0
981.0
982.0
987.0
988.0
986.0
980.0
980.0
984.0
988.0
988.0
985.0
986.0
987.0
991.0
989.0
983.0
980.0
983.0
982.0
981.0
984.0
990.0
994.0
992.0
988.0
983.0
985.0
989.0
992.0
992.0
989.0
987.0
988.0
988.0
988.0
986.0
989.0
989.0
987.0
985.0
985.0
986.0
985.0
986.0
990.0
989.0
988.0
984.0
982.0
981.0
982.0
982.0
986.0
991.0
994.0
989.0
988.0
984.0
984.0
985.0
985.0
987.0
985.0
984.0
988.0
991.0
988.0
987.0
989.0
988.0
986.0
981.0
982.0
987.0
993.0
991.0
986.0
984.0
985.0
987.0
991.0
991.0
990.0
993.0
992.0
990.0
989.0
989.0
994.0
992.0
992.0
993.0
991.0
993.0
991.0
997.0
1001.0
1004.0
1008.0
1021.0
1042.0
1089.0
1186.0
1313.0
1412.0
1433.0
1403.0
1362.0
1345.0
1335.0
1323.0
1309.0
1289.0
1269.0
1250.0
1233.0
1217.0
1201.0
1181.0
1160.0
1139.0
1115.0
1087.0
1060.0
1035.0
1012.0
989.0
961.0
936.0
912.0
891.0
879.0
880.0
893.0
906.0
912.0
905.0
890.0
880.0
878.0
871.0
857.0
830.0
796.0
773.0
780.0
801.0
828.0
857.0
888.0
911.0
927.0
929.0
929.0
927.0
929.0
926.0
921.0
916.0
910.0
903.0
898.0
894.0
896.0
900.0
907.0
912.0
922.0
929.0
934.0
936.0
945.0
953.0
964.0
975.0
984.0
995.0
1010.0
1017.0
1020.0
1021.0
1021.0
1021.0
1023.0
1027.0
1026.0
1029.0
1030.0
1035.0
1040.0
1042.0
1042.0
1043.0
1042.0
1042.0
1042.0
1046.0
1052.0
1062.0
1065.0
1067.0
1064.0
1063.0
1067.0
1073.0
1077.0
1079.0
1084.0
1086.0
1090.0
1088.0
1086.0
1092.0
1102.0
1109.0
1110.0
1108.0
1106.0
1112.0
1118.0
1120.0
1124.0
1128.0
1129.0
1129.0
1132.0
1133.0
1131.0
1130.0
1130.0
1131.0
1136.0
1133.0
1128.0
1124.0
1124.0
1122.0
1122.0
1119.0
1112.0
1111.0
1109.0
1106.0
1103.0
1096.0
1088.0
1081.0
1078.0
1075.0
1072.0
1065.0
1061.0
1054.0
1046.0
1038.0
1031.0
1029.0
1027.0
1021.0
1008.0
1002.0
998.0
999.0
999.0
997.0
991.0
988.0
984.0
977.0
973.0
972.0
972.0
971.0
968.0
966.0
966.0
968.0
972.0
966.0
964.0
961.0
960.0
959.0
956.0
956.0
953.0
954.0
955.0
954.0
951.0
952.0
957.0
955.0
952.0
948.0
946.0
950.0
957.0
954.0
950.0
948.0
949.0
954.0
957.0
958.0
955.0
953.0
956.0
961.0
965.0
961.0
957.0
957.0
956.0
957.0
960.0
963.0
963.0
965.0
963.0
967.0
968.0
966.0
963.0
963.0
963.0
966.0
972.0
968.0
960.0
956.0
958.0
962.0
963.0
959.0
962.0
965.0
969.0
967.0
966.0
961.0
961.0
961.0
963.0
963.0
963.0
964.0
970.0
970.0
968.0
967.0
965.0
965.0
966.0
961.0
961.0
960.0
963.0
967.0
970.0
967.0
963.0
961.0
963.0
965.0
969.0
972.0
968.0
964.0
964.0
966.0
972.0
973.0
970.0
972.0
979.0
981.0
983.0
983.0
982.0
994.0
1010.0
1018.0
1021.0
1013.0
1008.0
1012.0
1023.0
1029.0
1034.0
1035.0
1038.0
1044.0
1053.0
1057.0
1073.0
1120.0
1213.0
1323.0
1399.0
1414.0
1393.0
1368.0
1352.0
1342.0
1327.0
1307.0
1282.0
1267.0
1245.0
1226.0
1204.0
1182.0
1158.0
1133.0
1107.0
1082.0
1049.0
1012.0
967.0
927.0
891.0
853.0
817.0
776.0
744.0
716.0
697.0
684.0
685.0
680.0
666.0
651.0
635.0
625.0
619.0
602.0
577.0
555.0
546.0
559.0
596.0
638.0
679.0
715.0
741.0
765.0
780.0
794.0
805.0
814.0
819.0
824.0
829.0
837.0
844.0
844.0
842.0
847.0
863.0
878.0
892.0
899.0
907.0
923.0
939.0
949.0
964.0
974.0
982.0
995.0
1013.0
1027.0
1040.0
1044.0
1044.0
1043.0
1045.0
1052.0
1059.0
1063.0
1069.0
1071.0
1077.0
1081.0
1085.0
1090.0
1095.0
1101.0
1107.0
1114.0
1116.0
1122.0
1129.0
1139.0
1146.0
1148.0
1155.0
1163.0
1166.0
1170.0
1171.0
1180.0
1187.0
1195.0
1204.0
1212.0
1222.0
1225.0
1225.0
1224.0
1228.0
1235.0
1239.0
1237.0
1237.0
1241.0
1244.0
1245.0
1243.0
1238.0
1234.0
1231.0
1227.0
1225.0
1224.0
1221.0
1213.0
1207.0
1199.0
1197.0
1191.0
1179.0
1170.0
1162.0
1156.0
1149.0
1146.0
1135.0
1124.0
1112.0
1103.0
1100.0
1094.0
1082.0
1069.0
1058.0
1058.0
1052.0
1046.0
1035.0
1027.0
1020.0
1016.0
1017.0
1016.0
1008.0
1002.0
995.0
991.0
988.0
992.0
996.0
993.0
983.0
971.0
969.0
978.0
983.0
984.0
977.0
971.0
969.0
975.0
979.0
976.0
968.0
964.0
968.0
973.0
977.0
975.0
970.0
966.0
968.0
968.0
970.0
969.0
969.0
967.0
970.0
973.0
969.0
964.0
965.0
969.0
974.0
983.0
984.0
980.0
975.0
971.0
972.0
971.0
970.0
973.0
973.0
974.0
978.0
982.0
986.0
985.0
982.0
978.0
977.0
974.0
976.0
983.0
990.0
990.0
988.0
985.0
986.0
988.0
993.0
996.0
998.0
1003.0
1003.0
1003.0
1003.0
1011.0
1016.0
1018.0
1016.0
1012.0
1015.0
1030.0
1048.0
1055.0
1044.0
1029.0
1023.0
1025.0
1029.0
1032.0
1025.0
1026.0
1028.0
1032.0
1031.0
1027.0
1020.0
1014.0
1012.0
1009.0
1015.0
1018.0
1017.0
1005.0
986.0
980.0
981.0
982.0
980.0
975.0
970.0
959.0
955.0
957.0
962.0
968.0
966.0
959.0
953.0
954.0
958.0
961.0
959.0
958.0
960.0
963.0
964.0
963.0
956.0
951.0
956.0
965.0
972.0
979.0
980.0
987.0
1008.0
1057.0
1143.0
1253.0
1340.0
1374.0
1367.0
1343.0
1322.0
1310.0
1299.0
1286.0
1273.0
1259.0
1240.0
1221.0
1197.0
1178.0
1162.0
1145.0
1129.0
1105.0
1081.0
1062.0
1043.0
1019.0
986.0
949.0
910.0
880.0
855.0
832.0
800.0
772.0
748.0
732.0
729.0
725.0
718.0
708.0
695.0
680.0
660.0
636.0
615.0
597.0
580.0
566.0
569.0
584.0
606.0
628.0
646.0
671.0
703.0
733.0
760.0
774.0
780.0
788.0
800.0
808.0
817.0
824.0
833.0
842.0
847.0
851.0
853.0
859.0
870.0
882.0
894.0
910.0
929.0
942.0
944.0
947.0
957.0
973.0
982.0
988.0
996.0
1011.0
1029.0
1038.0
1042.0
1042.0
1039.0
1040.0
1042.0
1050.0
1065.0
1071.0
1069.0
1064.0
1066.0
1074.0
1081.0
1084.0
1083.0
1082.0
1086.0
1096.0
1097.0
1098.0
1098.0
1100.0
1103.0
1105.0
1113.0
1119.0
1121.0
1122.0
1124.0
1134.0
1142.0
1145.0
1140.0
1140.0
1141.0
1148.0
1158.0
1161.0
1162.0
1160.0
1158.0
1161.0
1168.0
1168.0
1166.0
1169.0
1169.0
1166.0
1159.0
1156.0
1167.0
1173.0
1170.0
1161.0
1155.0
1153.0
1148.0
1142.0
1141.0
1141.0
1139.0
1132.0
1124.0
1122.0
1120.0
1114.0
1107.0
1097.0
1095.0
1088.0
1085.0
1081.0
1077.0
1071.0
1062.0
1051.0
1043.0
1038.0
1032.0
1023.0
1014.0
1011.0
1009.0
1007.0
1002.0
990.0
981.0
978.0
975.0
969.0
966.0
972.0
974.0
966.0
961.0
960.0
962.0
958.0
951.0
950.0
952.0
952.0
947.0
939.0
932.0
936.0
944.0
955.0
957.0
956.0
953.0
952.0
951.0
955.0
961.0
966.0
970.0
973.0
977.0
980.0
981.0
981.0
980.0
985.0
994.0
999.0
996.0
987.0
979.0
981.0
988.0
992.0
992.0
989.0
988.0
988.0
986.0
984.0
982.0
980.0
978.0
975.0
973.0
972.0
970.0
962.0
957.0
954.0
947.0
943.0
934.0
923.0
915.0
920.0
929.0
935.0
933.0
921.0
911.0
904.0
904.0
906.0
907.0
903.0
899.0
895.0
896.0
899.0
905.0
903.0
899.0
897.0
895.0
896.0
899.0
903.0
900.0
894.0
890.0
892.0
894.0
894.0
889.0
886.0
887.0
890.0
895.0
893.0
886.0
886.0
888.0
896.0
899.0
893.0
888.0
890.0
893.0
894.0
893.0
890.0
887.0
888.0
888.0
886.0
888.0
890.0
889.0
888.0
885.0
885.0
887.0
888.0
887.0
889.0
887.0
887.0
888.0
885.0
885.0
890.0
893.0
895.0
890.0
887.0
883.0
882.0
888.0
893.0
894.0
895.0
894.0
895.0
900.0
906.0
912.0
920.0
940.0
988.0
1067.0
1176.0
1269.0
1310.0
1298.0
1269.0
1249.0
1240.0
1231.0
1219.0
1200.0
1184.0
1169.0
1156.0
1142.0
1129.0
1116.0
1105.0
1093.0
1077.0
1061.0
1042.0
1021.0
1001.0
980.0
957.0
930.0
902.0
876.0
852.0
827.0
798.0
771.0
744.0
724.0
718.0
714.0
717.0
711.0
704.0
688.0
672.0
653.0
638.0
619.0
601.0
585.0
584.0
597.0
620.0
649.0
675.0
702.0
733.0
753.0
766.0
769.0
777.0
784.0
795.0
802.0
803.0
807.0
807.0
807.0
813.0
814.0
818.0
820.0
830.0
840.0
848.0
853.0
861.0
869.0
874.0
881.0
893.0
905.0
919.0
931.0
941.0
947.0
959.0
970.0
982.0
988.0
992.0
990.0
994.0
994.0
999.0
1000.0
1002.0
1006.0
1009.0
1014.0
1017.0
1018.0
1022.0
1024.0
1026.0
1033.0
1038.0
1041.0
1043.0
1045.0
1049.0
1056.0
1057.0
1059.0
1057.0
1059.0
1065.0
1074.0
1080.0
1083.0
1089.0
1088.0
1095.0
1102.0
1106.0
1108.0
1110.0
1112.0
1115.0
1118.0
1120.0
1122.0
1124.0
1122.0
1123.0
1127.0
1130.0
1130.0
1127.0
1126.0
1127.0
1131.0
1128.0
1125.0
1122.0
1118.0
1115.0
1118.0
1118.0
1117.0
1116.0
1112.0
1113.0
1118.0
1119.0
1120.0
1119.0
1113.0
1110.0
1105.0
1104.0
1102.0
1098.0
1094.0
1089.0
1083.0
1073.0
1064.0
1051.0
1043.0
1039.0
1035.0
1032.0
1029.0
1023.0
1014.0
1012.0
1007.0
1000.0
991.0
981.0
971.0
969.0
963.0
959.0
948.0
942.0
936.0
932.0
929.0
928.0
926.0
923.0
916.0
911.0
906.0
902.0
899.0
896.0
895.0
892.0
895.0
896.0
893.0
892.0
891.0
893.0
894.0
893.0
894.0
894.0
890.0
888.0
889.0
889.0
891.0
888.0
888.0
887.0
889.0
891.0
886.0
889.0
884.0
887.0
890.0
893.0
895.0
892.0
891.0
893.0
895.0
895.0
898.0
896.0
893.0
893.0
895.0
896.0
897.0
899.0
898.0
894.0
892.0
893.0
893.0
893.0
892.0
895.0
895.0
898.0
897.0
893.0
890.0
892.0
893.0
894.0
895.0
894.0
892.0
893.0
898.0
899.0
900.0
896.0
897.0
895.0
901.0
903.0
902.0
902.0
900.0
901.0
904.0
903.0
903.0
903.0
903.0
904.0
908.0
911.0
909.0
906.0
901.0
903.0
905.0
908.0
909.0
910.0
909.0
910.0
911.0
914.0
913.0
912.0
911.0
913.0
915.0
919.0
918.0
919.0
916.0
916.0
915.0
916.0
918.0
920.0
920.0
921.0
923.0
926.0
928.0
928.0
929.0
933.0
936.0
941.0
943.0
946.0
959.0
994.0
1057.0
1154.0
1251.0
1312.0
1323.0
1304.0
1284.0
1267.0
1254.0
1237.0
1217.0
1203.0
1188.0
1175.0
1160.0
1141.0
1121.0
1104.0
1087.0
1066.0
1039.0
1008.0
974.0
937.0
902.0
861.0
818.0
775.0
734.0
701.0
667.0
638.0
609.0
586.0
572.0
563.0
559.0
555.0
551.0
537.0
522.0
509.0
502.0
493.0
489.0
480.0
470.0
476.0
495.0
527.0
560.0
595.0
628.0
665.0
697.0
721.0
740.0
755.0
763.0
775.0
786.0
798.0
809.0
813.0
815.0
820.0
827.0
834.0
847.0
857.0
867.0
882.0
894.0
906.0
916.0
926.0
934.0
941.0
953.0
968.0
986.0
1001.0
1011.0
1021.0
1032.0
1044.0
1051.0
1052.0
1052.0
1055.0
1058.0
1065.0
1069.0
1075.0
1077.0
1084.0
1087.0
1093.0
1102.0
1112.0
1118.0
1127.0
1136.0
1143.0
1150.0
1156.0
1163.0
1172.0
1180.0
1192.0
1202.0
1208.0
1207.0
1212.0
1214.0
1217.0
1219.0
1222.0
1225.0
1229.0
1236.0
1239.0
1243.0
1242.0
1244.0
1246.0
1246.0
1247.0
1246.0
1245.0
1242.0
1241.0
1238.0
1235.0
1235.0
1230.0
1223.0
1218.0
1212.0
1209.0
1203.0
1198.0
1190.0
1179.0
1173.0
1169.0
1166.0
1159.0
1150.0
1143.0
1135.0
1128.0
1117.0
1108.0
1097.0
1091.0
1084.0
1076.0
1064.0
1052.0
1039.0
1035.0
1024.0
1016.0
1008.0
1003.0
993.0
988.0
985.0
979.0
972.0
963.0
955.0
952.0
950.0
948.0
947.0
944.0
938.0
935.0
932.0
933.0
932.0
930.0
925.0
926.0
929.0
930.0
931.0
927.0
922.0
921.0
922.0
920.0
923.0
925.0
923.0
925.0
925.0
925.0
923.0
923.0
921.0
919.0
921.0
920.0
919.0
918.0
918.0
921.0
924.0
927.0
924.0
921.0
920.0
923.0
927.0
928.0
928.0
926.0
926.0
928.0
929.0
929.0
927.0
928.0
929.0
932.0
935.0
934.0
935.0
933.0
932.0
933.0
933.0
932.0
933.0
929.0
930.0
932.0
935.0
933.0
935.0
933.0
930.0
928.0
931.0
930.0
928.0
926.0
925.0
926.0
927.0
925.0
925.0
924.0
929.0
929.0
927.0
926.0
924.0
925.0
926.0
927.0
929.0
930.0
926.0
924.0
921.0
925.0
930.0
930.0
927.0
925.0
923.0
926.0
929.0
930.0
928.0
927.0
926.0
926.0
927.0
926.0
924.0
926.0
927.0
931.0
934.0
931.0
930.0
927.0
928.0
927.0
933.0
935.0
937.0
936.0
934.0
935.0
935.0
936.0
936.0
939.0
940.0
948.0
959.0
975.0
1007.0
1073.0
1175.0
1273.0
1324.0
1313.0
1279.0
1258.0
1246.0
1238.0
1230.0
1219.0
1205.0
1195.0
1182.0
1178.0
1168.0
1157.0
1142.0
1127.0
1110.0
1096.0
1083.0
1068.0
1045.0
1024.0
999.0
979.0
966.0
950.0
932.0
915.0
897.0
889.0
884.0
882.0
882.0
886.0
884.0
876.0
863.0
848.0
832.0
816.0
794.0
774.0
756.0
745.0
750.0
769.0
794.0
823.0
850.0
869.0
882.0
884.0
884.0
887.0
887.0
885.0
878.0
869.0
865.0
868.0
869.0
867.0
859.0
852.0
852.0
854.0
864.0
872.0
880.0
889.0
894.0
903.0
911.0
921.0
933.0
944.0
952.0
961.0
966.0
974.0
979.0
981.0
979.0
975.0
973.0
970.0
966.0
965.0
959.0
959.0
959.0
959.0
959.0
957.0
954.0
955.0
957.0
960.0
957.0
958.0
959.0
967.0
971.0
974.0
971.0
970.0
971.0
973.0
976.0
983.0
982.0
983.0
987.0
992.0
997.0
998.0
999.0
1000.0
1000.0
1002.0
1007.0
1008.0
1008.0
1008.0
1004.0
1008.0
1013.0
1017.0
1019.0
1018.0
1018.0
1021.0
1022.0
1027.0
1028.0
1027.0
1027.0
1030.0
1034.0
1036.0
1037.0
1033.0
1031.0
1037.0
1038.0
1037.0
1035.0
1031.0
1026.0
1021.0
1021.0
1018.0
1014.0
1006.0
997.0
994.0
990.0
984.0
977.0
972.0
965.0
965.0
965.0
963.0
959.0
953.0
945.0
945.0
940.0
937.0
933.0
931.0
925.0
925.0
929.0
930.0
927.0
918.0
908.0
905.0
901.0
900.0
900.0
900.0
900.0
906.0
911.0
912.0
913.0
913.0
912.0
914.0
914.0
914.0
907.0
900.0
892.0
888.0
889.0
892.0
900.0
908.0
915.0
919.0
917.0
915.0
911.0
910.0
913.0
928.0
929.0
927.0
920.0
917.0
916.0
917.0
918.0
919.0
919.0
916.0
914.0
914.0
913.0
916.0
913.0
914.0
914.0
918.0
917.0
919.0
919.0
918.0
916.0
918.0
925.0
931.0
940.0
939.0
936.0
936.0
937.0
936.0
936.0
934.0
930.0
929.0
929.0
928.0
926.0
925.0
923.0
925.0
925.0
925.0
924.0
925.0
923.0
925.0
928.0
929.0
930.0
930.0
930.0
928.0
928.0
928.0
926.0
924.0
922.0
925.0
927.0
926.0
924.0
925.0
923.0
925.0
926.0
927.0
928.0
930.0
930.0
936.0
936.0
936.0
933.0
931.0
929.0
936.0
937.0
940.0
940.0
937.0
937.0
943.0
945.0
947.0
950.0
955.0
962.0
977.0
1004.0
1052.0
1138.0
1241.0
1321.0
1348.0
1335.0
1315.0
1303.0
1295.0
1282.0
1268.0
1260.0
1249.0
1240.0
1227.0
1216.0
1204.0
1192.0
1179.0
1163.0
1144.0
1124.0
1107.0
1088.0
1067.0
1040.0
1015.0
991.0
968.0
942.0
920.0
899.0
887.0
875.0
876.0
874.0
866.0
851.0
831.0
804.0
779.0
756.0
734.0
707.0
691.0
685.0
706.0
735.0
763.0
786.0
802.0
809.0
810.0
808.0
808.0
805.0
804.0
796.0
792.0
790.0
787.0
785.0
780.0
777.0
776.0
784.0
796.0
805.0
812.0
819.0
829.0
840.0
849.0
860.0
872.0
883.0
898.0
909.0
922.0
932.0
944.0
944.0
951.0
954.0
956.0
957.0
958.0
958.0
961.0
966.0
966.0
968.0
970.0
971.0
978.0
983.0
984.0
985.0
985.0
991.0
996.0
998.0
1003.0
1006.0
1011.0
1014.0
1021.0
1027.0
1033.0
1037.0
1038.0
1044.0
1053.0
1063.0
1066.0
1072.0
1077.0
1079.0
1086.0
1089.0
1096.0
1100.0
1103.0
1106.0
1111.0
1114.0
1118.0
1121.0
1123.0
1126.0
1126.0
1128.0
1131.0
1128.0
1128.0
1122.0
1123.0
1122.0
1117.0
1115.0
1108.0
1105.0
1101.0
1098.0
1091.0
1085.0
1077.0
1070.0
1063.0
1056.0
1048.0
1039.0
1028.0
1022.0
1013.0
1010.0
1000.0
991.0
983.0
975.0
970.0
967.0
964.0
958.0
949.0
946.0
946.0
943.0
944.0
940.0
936.0
931.0
929.0
927.0
925.0
923.0
920.0
916.0
919.0
920.0
917.0
919.0
914.0
911.0
911.0
914.0
912.0
908.0
908.0
906.0
910.0
910.0
909.0
907.0
904.0
904.0
905.0
907.0
905.0
905.0
903.0
901.0
902.0
904.0
908.0
909.0
910.0
910.0
913.0
913.0
914.0
914.0
914.0
909.0
914.0
918.0
920.0
917.0
915.0
910.0
911.0
915.0
915.0
918.0
918.0
913.0
915.0
918.0
917.0
916.0
914.0
913.0
912.0
913.0
913.0
910.0
906.0
909.0
913.0
912.0
912.0
913.0
912.0
913.0
917.0
924.0
929.0
931.0
936.0
941.0
948.0
953.0
958.0
963.0
965.0
968.0
969.0
973.0
977.0
980.0
980.0
978.0
974.0
973.0
970.0
964.0
964.0
965.0
966.0
971.0
969.0
968.0
966.0
965.0
963.0
960.0
954.0
948.0
941.0
935.0
931.0
927.0
922.0
916.0
910.0
909.0
909.0
910.0
909.0
911.0
910.0
909.0
914.0
930.0
972.0
1051.0
1162.0
1258.0
1295.0
1274.0
1236.0
1212.0
1200.0
1187.0
1176.0
1158.0
1140.0
1123.0
1106.0
1095.0
1082.0
1068.0
1050.0
1024.0
1001.0
973.0
950.0
925.0
892.0
857.0
819.0
778.0
741.0
705.0
662.0
626.0
601.0
581.0
572.0
569.0
565.0
556.0
540.0
521.0
506.0
496.0
483.0
469.0
459.0
452.0
467.0
496.0
532.0
564.0
602.0
641.0
675.0
694.0
707.0
715.0
721.0
731.0
741.0
754.0
762.0
764.0
765.0
769.0
779.0
793.0
805.0
817.0
831.0
841.0
853.0
863.0
875.0
889.0
902.0
919.0
937.0
952.0
965.0
979.0
989.0
997.0
1005.0
1008.0
1010.0
1013.0
1015.0
1022.0
1027.0
1033.0
1036.0
1038.0
1041.0
