# Simple Text Format
# Sampling Rate (Hz):= 360.00
# Resolution:= 12
# Labels:= ECG
927.0
929.0
932.0
929.0
930.0
934.0
934.0
934.0
932.0
928.0
925.0
928.0
933.0
934.0
932.0
929.0
927.0
926.0
929.0
930.0
930.0
929.0
928.0
931.0
932.0
934.0
931.0
931.0
928.0
933.0
936.0
935.0
932.0
929.0
924.0
931.0
935.0
935.0
933.0
928.0
925.0
929.0
933.0
934.0
933.0
935.0
934.0
932.0
937.0
939.0
938.0
939.0
939.0
935.0
934.0
932.0
933.0
935.0
936.0
938.0
938.0
942.0
943.0
942.0
940.0
942.0
945.0
949.0
950.0
946.0
944.0
946.0
952.0
953.0
953.0
949.0
946.0
950.0
956.0
959.0
960.0
960.0
964.0
977.0
991.0
1012.0
1054.0
1131.0
1252.0
1378.0
1452.0
1472.0
1463.0
1452.0
1443.0
1434.0
1426.0
1412.0
1397.0
1383.0
1367.0
1352.0
1334.0
1312.0
1288.0
1264.0
1238.0
1215.0
1188.0
1158.0
1125.0
1094.0
1060.0
1036.0
1014.0
986.0
951.0
922.0
906.0
894.0
886.0
888.0
881.0
864.0
835.0
806.0
780.0
756.0
726.0
694.0
660.0
649.0
655.0
678.0
707.0
731.0
756.0
781.0
793.0
797.0
801.0
807.0
813.0
817.0
823.0
829.0
832.0
829.0
826.0
832.0
847.0
863.0
876.0
882.0
886.0
890.0
904.0
920.0
936.0
948.0
963.0
976.0
989.0
1005.0
1015.0
1024.0
1031.0
1032.0
1034.0
1037.0
1039.0
1040.0
1044.0
1050.0
1056.0
1062.0
1063.0
1061.0
1056.0
1057.0
1062.0
1064.0
1068.0
1073.0
1076.0
1084.0
1090.0
1094.0
1098.0
1099.0
1103.0
1109.0
1115.0
1120.0
1124.0
1128.0
1136.0
1146.0
1159.0
1168.0
1177.0
1189.0
1198.0
1208.0
1212.0
1214.0
1217.0
1217.0
1223.0
1229.0
1236.0
1236.0
1236.0
1231.0
1227.0
1226.0
1223.0
1222.0
1220.0
1219.0
1215.0
1216.0
1212.0
1210.0
1207.0
1199.0
1189.0
1181.0
1176.0
1163.0
1148.0
1139.0
1125.0
1118.0
1110.0
1099.0
1086.0
1075.0
1063.0
1059.0
1050.0
1041.0
1030.0
1019.0
1009.0
1004.0
998.0
992.0
989.0
981.0
978.0
973.0
963.0
952.0
943.0
937.0
939.0
940.0
941.0
941.0
941.0
942.0
940.0
937.0
934.0
931.0
928.0
924.0
923.0
923.0
926.0
928.0
926.0
922.0
919.0
921.0
920.0
921.0
921.0
921.0
921.0
921.0
924.0
927.0
926.0
926.0
922.0
923.0
921.0
924.0
924.0
922.0
917.0
923.0
923.0
926.0
928.0
930.0
930.0
930.0
932.0
931.0
929.0
927.0
930.0
933.0
933.0
934.0
932.0
936.0
935.0
935.0
935.0
936.0
936.0
938.0
937.0
938.0
942.0
942.0
941.0
936.0
935.0
941.0
940.0
941.0
942.0
940.0
936.0
937.0
940.0
940.0
941.0
943.0
939.0
942.0
947.0
946.0
949.0
946.0
945.0
947.0
948.0
953.0
951.0
952.0
949.0
953.0
956.0
958.0
959.0
959.0
958.0
960.0
960.0
957.0
955.0
953.0
950.0
952.0
955.0
956.0
957.0
960.0
963.0
968.0
968.0
967.0
962.0
957.0
956.0
961.0
962.0
966.0
966.0
968.0
966.0
969.0
973.0
975.0
978.0
981.0
986.0
992.0
1001.0
1009.0
1023.0
1052.0
1121.0
1245.0
1372.0
1458.0
1477.0
1465.0
1452.0
1446.0
1436.0
1418.0
1400.0
1385.0
1370.0
1356.0
1336.0
1311.0
1280.0
1254.0
1224.0
1198.0
1169.0
1134.0
1093.0
1054.0
1010.0
973.0
944.0
914.0
884.0
857.0
835.0
818.0
808.0
804.0
793.0
769.0
742.0
721.0
700.0
675.0
649.0
618.0
591.0
579.0
588.0
617.0
650.0
683.0
718.0
752.0
777.0
789.0
797.0
806.0
818.0
829.0
836.0
843.0
845.0
840.0
841.0
853.0
877.0
897.0
918.0
934.0
948.0
964.0
979.0
994.0
1008.0
1028.0
1047.0
1069.0
1089.0
1108.0
1121.0
1127.0
1127.0
1127.0
1127.0
1131.0
1134.0
1138.0
1140.0
1146.0
1152.0
1154.0
1154.0
1150.0
1150.0
1153.0
1161.0
1164.0
1161.0
1156.0
1151.0
1153.0
1157.0
1160.0
1161.0
1162.0
1167.0
1172.0
1176.0
1178.0
1179.0
1185.0
1193.0
1199.0
1206.0
1206.0
1207.0
1209.0
1208.0
1212.0
1216.0
1218.0
1221.0
1221.0
1220.0
1224.0
1226.0
1225.0
1222.0
1220.0
1216.0
1213.0
1213.0
1209.0
1206.0
1200.0
1196.0
1192.0
1183.0
1176.0
1162.0
1152.0
1147.0
1139.0
1131.0
1117.0
1104.0
1095.0
1086.0
1079.0
1071.0
1062.0
1052.0
1039.0
1026.0
1018.0
1013.0
1007.0
1001.0
992.0
989.0
985.0
980.0
975.0
970.0
964.0
961.0
961.0
956.0
954.0
949.0
947.0
947.0
950.0
949.0
945.0
940.0
937.0
935.0
932.0
931.0
926.0
925.0
925.0
924.0
924.0
926.0
925.0
924.0
921.0
920.0
920.0
921.0
923.0
923.0
920.0
921.0
924.0
925.0
924.0
924.0
922.0
922.0
926.0
929.0
927.0
924.0
921.0
920.0
919.0
922.0
922.0
922.0
922.0
922.0
922.0
922.0
924.0
925.0
925.0
919.0
916.0
913.0
913.0
910.0
910.0
909.0
912.0
915.0
914.0
913.0
911.0
911.0
915.0
914.0
913.0
911.0
910.0
909.0
909.0
911.0
911.0
909.0
907.0
908.0
911.0
911.0
912.0
908.0
905.0
901.0
904.0
905.0
905.0
900.0
897.0
900.0
903.0
903.0
900.0
895.0
893.0
893.0
896.0
897.0
898.0
896.0
895.0
894.0
896.0
896.0
899.0
896.0
898.0
896.0
896.0
896.0
898.0
896.0
896.0
893.0
896.0
901.0
903.0
899.0
900.0
901.0
909.0
909.0
904.0
904.0
902.0
908.0
923.0
944.0
987.0
1070.0
1197.0
1324.0
1428.0
1453.0
1439.0
1419.0
1408.0
1393.0
1377.0
1363.0
1342.0
1326.0
1311.0
1294.0
1278.0
1262.0
1240.0
1214.0
1189.0
1161.0
1137.0
1113.0
1084.0
1053.0
1018.0
987.0
962.0
943.0
924.0
907.0
890.0
866.0
850.0
845.0
840.0
821.0
793.0
764.0
737.0
708.0
678.0
647.0
618.0
602.0
606.0
627.0
651.0
672.0
692.0
706.0
719.0
724.0
725.0
726.0
728.0
726.0
729.0
728.0
732.0
727.0
728.0
727.0
728.0
737.0
747.0
759.0
770.0
779.0
786.0
795.0
806.0
816.0
832.0
846.0
858.0
869.0
875.0
880.0
885.0
891.0
901.0
906.0
904.0
907.0
906.0
908.0
910.0
914.0
919.0
922.0
926.0
925.0
929.0
932.0
932.0
932.0
931.0
936.0
946.0
952.0
958.0
959.0
957.0
956.0
957.0
959.0
960.0
964.0
972.0
980.0
991.0
998.0
1001.0
1005.0
1007.0
1013.0
1018.0
1025.0
1032.0
1035.0
1039.0
1042.0
1048.0
1053.0
1058.0
1062.0
1062.0
1063.0
1067.0
1069.0
1068.0
1067.0
1063.0
1057.0
1057.0
1055.0
1056.0
1052.0
1046.0
1041.0
1036.0
1031.0
1026.0
1023.0
1015.0
1006.0
997.0
987.0
978.0
968.0
962.0
953.0
948.0
944.0
942.0
932.0
926.0
919.0
913.0
909.0
902.0
893.0
885.0
882.0
883.0
884.0
882.0
879.0
875.0
871.0
870.0
868.0
868.0
866.0
863.0
862.0
866.0
866.0
868.0
869.0
864.0
862.0
857.0
858.0
858.0
856.0
856.0
855.0
858.0
859.0
855.0
853.0
851.0
851.0
853.0
858.0
855.0
857.0
857.0
854.0
859.0
864.0
867.0
865.0
863.0
863.0
866.0
868.0
868.0
866.0
865.0
868.0
872.0
878.0
880.0
879.0
881.0
878.0
877.0
874.0
870.0
871.0
872.0
878.0
882.0
882.0
880.0
876.0
870.0
873.0
874.0
876.0
876.0
875.0
878.0
878.0
883.0
886.0
887.0
886.0
886.0
881.0
883.0
886.0
888.0
886.0
885.0
884.0
887.0
888.0
888.0
888.0
890.0
892.0
895.0
894.0
890.0
889.0
888.0
888.0
891.0
894.0
896.0
896.0
894.0
890.0
891.0
897.0
904.0
908.0
911.0
916.0
921.0
929.0
935.0
939.0
942.0
944.0
948.0
952.0
954.0
963.0
970.0
972.0
971.0
970.0
965.0
959.0
957.0
955.0
962.0
970.0
978.0
980.0
977.0
976.0
984.0
991.0
1003.0
1027.0
1078.0
1173.0
1300.0
1427.0
1497.0
1504.0
1483.0
1464.0
1454.0
1440.0
1420.0
1396.0
1375.0
1356.0
1341.0
1327.0
1303.0
1278.0
1253.0
1230.0
1208.0
1181.0
1151.0
1118.0
1085.0
1055.0
1028.0
1000.0
970.0
942.0
921.0
897.0
879.0
867.0
859.0
842.0
835.0
828.0
823.0
811.0
788.0
764.0
737.0
716.0
699.0
675.0
652.0
622.0
599.0
600.0
626.0
658.0
689.0
713.0
735.0
750.0
764.0
770.0
770.0
774.0
775.0
774.0
775.0
777.0
776.0
774.0
771.0
773.0
781.0
792.0
808.0
818.0
827.0
835.0
841.0
850.0
857.0
866.0
876.0
888.0
904.0
921.0
933.0
943.0
952.0
959.0
968.0
969.0
969.0
963.0
967.0
966.0
974.0
985.0
992.0
998.0
1001.0
998.0
999.0
1001.0
1002.0
1006.0
1006.0
1013.0
1020.0
1030.0
1034.0
1041.0
1043.0
1045.0
1055.0
1065.0
1072.0
1077.0
1081.0
1088.0
1096.0
1104.0
1110.0
1117.0
1119.0
1125.0
1130.0
1136.0
1144.0
1145.0
1150.0
1149.0
1150.0
1155.0
1154.0
1159.0
1157.0
1157.0
1162.0
1166.0
1171.0
1172.0
1168.0
1164.0
1157.0
1155.0
1154.0
1150.0
1147.0
1145.0
1146.0
1143.0
1136.0
1125.0
1115.0
1106.0
1101.0
1097.0
1088.0
1077.0
1069.0
1060.0
1054.0
1047.0
1044.0
1036.0
1026.0
1017.0
1009.0
1002.0
995.0
989.0
984.0
979.0
975.0
971.0
965.0
960.0
956.0
954.0
955.0
953.0
952.0
949.0
945.0
943.0
943.0
947.0
952.0
946.0
941.0
939.0
938.0
940.0
941.0
941.0
942.0
939.0
938.0
939.0
939.0
942.0
939.0
936.0
937.0
941.0
940.0
940.0
943.0
944.0
948.0
947.0
946.0
944.0
950.0
951.0
951.0
952.0
949.0
946.0
949.0
949.0
951.0
952.0
953.0
954.0
953.0
953.0
957.0
960.0
964.0
966.0
971.0
973.0
981.0
987.0
994.0
998.0
1000.0
1002.0
1007.0
1013.0
1016.0
1022.0
1024.0
1027.0
1030.0
1023.0
1019.0
1010.0
1012.0
1012.0
1020.0
1025.0
1021.0
1017.0
1013.0
1013.0
1011.0
1008.0
1003.0
998.0
994.0
992.0
991.0
990.0
987.0
978.0
971.0
971.0
971.0
973.0
970.0
965.0
962.0
960.0
960.0
958.0
954.0
951.0
950.0
950.0
954.0
954.0
954.0
951.0
952.0
952.0
952.0
954.0
956.0
958.0
959.0
960.0
964.0
967.0
967.0
963.0
957.0
954.0
955.0
959.0
964.0
967.0
969.0
971.0
976.0
981.0
987.0
994.0
998.0
1019.0
1063.0
1148.0
1275.0
1402.0
1497.0
1524.0
1516.0
1511.0
1498.0
1488.0
1471.0
1452.0
1432.0
1413.0
1397.0
1381.0
1365.0
1343.0
1323.0
1297.0
1275.0
1248.0
1223.0
1196.0
1165.0
1136.0
1103.0
1071.0
1046.0
1023.0
1002.0
980.0
958.0
935.0
917.0
895.0
880.0
870.0
860.0
844.0
820.0
796.0
773.0
751.0
725.0
697.0
670.0
656.0
659.0
672.0
687.0
705.0
727.0
750.0
778.0
796.0
807.0
815.0
820.0
833.0
841.0
848.0
848.0
850.0
850.0
852.0
859.0
869.0
883.0
897.0
907.0
914.0
928.0
939.0
955.0
965.0
979.0
990.0
1003.0
1016.0
1024.0
1035.0
1049.0
1059.0
1067.0
1075.0
1079.0
1084.0
1088.0
1091.0
1097.0
1098.0
1099.0
1099.0
1099.0
1103.0
1109.0
1114.0
1116.0
1123.0
1126.0
1128.0
1132.0
1136.0
1141.0
1147.0
1152.0
1158.0
1163.0
1168.0
1172.0
1176.0
1184.0
1190.0
1197.0
1200.0
1205.0
1208.0
1213.0
1213.0
1220.0
1230.0
1237.0
1240.0
1238.0
1237.0
1237.0
1239.0
1244.0
1249.0
1252.0
1251.0
1255.0
1256.0
1255.0
1258.0
1257.0
1254.0
1253.0
1250.0
1245.0
1242.0
1238.0
1237.0
1235.0
1234.0
1229.0
1226.0
1216.0
1205.0
1195.0
1183.0
1175.0
1168.0
1161.0
1156.0
1147.0
1141.0
1133.0
1127.0
1117.0
1108.0
1101.0
1090.0
1076.0
1065.0
1058.0
1053.0
1049.0
1042.0
1039.0
1037.0
1033.0
1028.0
1029.0
1028.0
1025.0
1023.0
1020.0
1019.0
1023.0
1024.0
1025.0
1024.0
1028.0
1034.0
1040.0
1044.0
1045.0
1042.0
1040.0
1040.0
1045.0
1054.0
1058.0
1055.0
1048.0
1043.0
1041.0
1039.0
1040.0
1037.0
1035.0
1036.0
1038.0
1039.0
1038.0
1037.0
1030.0
1026.0
1021.0
1017.0
1012.0
1008.0
1007.0
1004.0
1003.0
1002.0
997.0
991.0
981.0
973.0
970.0
972.0
970.0
969.0
967.0
961.0
961.0
959.0
957.0
954.0
954.0
952.0
954.0
953.0
951.0
950.0
948.0
946.0
950.0
950.0
950.0
945.0
942.0
942.0
944.0
948.0
950.0
948.0
944.0
942.0
940.0
940.0
940.0
941.0
939.0
936.0
936.0
940.0
943.0
941.0
938.0
929.0
929.0
928.0
931.0
931.0
933.0
933.0
935.0
934.0
938.0
940.0
939.0
938.0
936.0
933.0
931.0
930.0
927.0
928.0
930.0
931.0
935.0
934.0
931.0
927.0
931.0
931.0
936.0
935.0
934.0
934.0
938.0
941.0
937.0
932.0
930.0
931.0
936.0
937.0
938.0
936.0
935.0
938.0
941.0
945.0
954.0
958.0
965.0
979.0
1002.0
1050.0
1143.0
1270.0
1397.0
1472.0
1485.0
1473.0
1461.0
1451.0
1443.0
1425.0
1408.0
1390.0
1372.0
1355.0
1338.0
1318.0
1302.0
1281.0
1259.0
1232.0
1204.0
1175.0
1147.0
1121.0
1092.0
1065.0
1039.0
1008.0
980.0
954.0
928.0
905.0
893.0
884.0
880.0
878.0
871.0
855.0
835.0
804.0
781.0
758.0
729.0
696.0
668.0
645.0
640.0
651.0
670.0
691.0
713.0
735.0
752.0
756.0
757.0
764.0
769.0
774.0
781.0
786.0
789.0
791.0
791.0
789.0
789.0
798.0
810.0
822.0
834.0
842.0
851.0
863.0
873.0
887.0
897.0
909.0
923.0
938.0
950.0
962.0
968.0
975.0
978.0
984.0
986.0
984.0
982.0
984.0
988.0
996.0
997.0
998.0
995.0
995.0
999.0
1006.0
1014.0
1018.0
1022.0
1022.0
1022.0
1022.0
1023.0
1023.0
1026.0
1031.0
1037.0
1044.0
1049.0
1051.0
1053.0
1057.0
1066.0
1070.0
1075.0
1077.0
1077.0
1081.0
1087.0
1094.0
1102.0
1105.0
1109.0
1114.0
1122.0
1127.0
1132.0
1136.0
1138.0
1146.0
1153.0
1162.0
1167.0
1169.0
1170.0
1172.0
1176.0
1179.0
1182.0
1181.0
1175.0
1162.0
1151.0
1145.0
1141.0
1137.0
1132.0
1129.0
1125.0
1121.0
1116.0
1102.0
1094.0
1083.0
1074.0
1064.0
1054.0
1044.0
1031.0
1017.0
1005.0
996.0
985.0
974.0
965.0
954.0
945.0
941.0
931.0
923.0
917.0
910.0
906.0
904.0
900.0
897.0
893.0
887.0
885.0
883.0
882.0
886.0
885.0
883.0
881.0
874.0
868.0
865.0
863.0
867.0
873.0
874.0
868.0
866.0
860.0
859.0
858.0
859.0
861.0
859.0
857.0
858.0
858.0
860.0
860.0
859.0
857.0
858.0
860.0
862.0
865.0
863.0
861.0
861.0
862.0
864.0
865.0
862.0
861.0
861.0
862.0
867.0
867.0
868.0
866.0
865.0
864.0
863.0
863.0
864.0
861.0
864.0
866.0
870.0
867.0
868.0
867.0
865.0
863.0
862.0
864.0
866.0
867.0
865.0
868.0
869.0
871.0
870.0
870.0
868.0
871.0
873.0
870.0
869.0
869.0
868.0
873.0
873.0
874.0
873.0
873.0
871.0
873.0
877.0
880.0
878.0
877.0
876.0
876.0
881.0
883.0
885.0
886.0
883.0
883.0
883.0
882.0
880.0
878.0
878.0
881.0
881.0
882.0
880.0
878.0
880.0
885.0
889.0
891.0
889.0
887.0
889.0
890.0
890.0
891.0
896.0
896.0
895.0
898.0
897.0
899.0
900.0
900.0
905.0
911.0
917.0
923.0
929.0
941.0
966.0
1024.0
1124.0
1251.0
1378.0
1450.0
1457.0
1444.0
1433.0
1422.0
1405.0
1384.0
1360.0
1345.0
1330.0
1316.0
1299.0
1281.0
1258.0
1239.0
1218.0
1192.0
1162.0
1128.0
1098.0
1067.0
1033.0
997.0
960.0
929.0
901.0
877.0
853.0
832.0
815.0
801.0
793.0
794.0
785.0
768.0
742.0
714.0
690.0
667.0
643.0
611.0
581.0
565.0
572.0
602.0
634.0
667.0
696.0
718.0
733.0
743.0
744.0
745.0
748.0
751.0
754.0
758.0
767.0
771.0
773.0
772.0
774.0
775.0
785.0
798.0
810.0
823.0
834.0
847.0
858.0
869.0
878.0
892.0
910.0
930.0
946.0
960.0
976.0
991.0
1008.0
1021.0
1030.0
1037.0
1040.0
1042.0
1043.0
1050.0
1060.0
1064.0
1066.0
1064.0
1063.0
1064.0
1069.0
1072.0
1072.0
1071.0
1076.0
1082.0
1088.0
1093.0
1092.0
1096.0
1096.0
1101.0
1106.0
1107.0
1109.0
1108.0
1110.0
1108.0
1106.0
1107.0
1109.0
1112.0
1113.0
1118.0
1120.0
1120.0
1119.0
1121.0
1120.0
1127.0
1130.0
1132.0
1132.0
1136.0
1136.0
1138.0
1142.0
1139.0
1137.0
1133.0
1134.0
1132.0
1132.0
1125.0
1123.0
1116.0
1111.0
1111.0
1112.0
1108.0
1100.0
1092.0
1078.0
1069.0
1062.0
1057.0
1050.0
1040.0
1030.0
1023.0
1016.0
1007.0
996.0
986.0
979.0
976.0
970.0
963.0
956.0
947.0
937.0
930.0
925.0
920.0
915.0
909.0
904.0
902.0
901.0
898.0
895.0
892.0
889.0
888.0
887.0
887.0
884.0
880.0
880.0
885.0
889.0
890.0
883.0
876.0
870.0
868.0
869.0
870.0
867.0
867.0
867.0
868.0
872.0
874.0
873.0
873.0
872.0
875.0
876.0
874.0
871.0
875.0
874.0
877.0
880.0
880.0
879.0
880.0
880.0
884.0
885.0
886.0
882.0
880.0
884.0
891.0
896.0
898.0
897.0
896.0
894.0
898.0
903.0
906.0
905.0
900.0
894.0
890.0
888.0
891.0
895.0
900.0
899.0
903.0
903.0
901.0
901.0
900.0
897.0
899.0
902.0
905.0
904.0
901.0
898.0
899.0
904.0
905.0
902.0
903.0
904.0
907.0
910.0
911.0
909.0
905.0
906.0
911.0
913.0
914.0
911.0
909.0
911.0
910.0
907.0
903.0
901.0
899.0
903.0
908.0
912.0
918.0
919.0
919.0
915.0
919.0
916.0
914.0
911.0
912.0
912.0
916.0
919.0
920.0
921.0
923.0
919.0
922.0
925.0
924.0
922.0
923.0
926.0
929.0
931.0
931.0
929.0
929.0
929.0
933.0
939.0
940.0
942.0
946.0
952.0
965.0
989.0
1032.0
1114.0
1236.0
1363.0
1444.0
1460.0
1448.0
1433.0
1423.0
1411.0
1397.0
1383.0
1363.0
1347.0
1327.0
1309.0
1290.0
1269.0
1241.0
1211.0
1177.0
1144.0
1112.0
1074.0
1030.0
989.0
952.0
920.0
892.0
865.0
842.0
824.0
808.0
796.0
791.0
787.0
767.0
743.0
721.0
704.0
683.0
658.0
631.0
600.0
583.0
583.0
610.0
648.0
690.0
728.0
755.0
777.0
789.0
802.0
807.0
811.0
811.0
812.0
818.0
820.0
822.0
821.0
823.0
824.0
836.0
851.0
868.0
879.0
884.0
892.0
899.0
911.0
922.0
934.0
945.0
958.0
972.0
991.0
1004.0
1011.0
1010.0
1008.0
1016.0
1023.0
1029.0
1033.0
1033.0
1035.0
1040.0
1046.0
1046.0
1046.0
1046.0
1048.0
1056.0
1061.0
1068.0
1072.0
1072.0
1073.0
1078.0
1087.0
1094.0
1099.0
1103.0
1105.0
1110.0
1120.0
1125.0
1132.0
1135.0
1139.0
1146.0
1153.0
1159.0
1163.0
1165.0
1166.0
1169.0
1178.0
1184.0
1187.0
1188.0
1187.0
1193.0
1197.0
1201.0
1201.0
1197.0
1192.0
1192.0
1193.0
1190.0
1187.0
1180.0
1174.0
1173.0
1170.0
1162.0
1155.0
1143.0
1138.0
1132.0
1124.0
1119.0
1110.0
1102.0
1089.0
1079.0
1066.0
1055.0
1045.0
1037.0
1027.0
1021.0
1016.0
1010.0
1003.0
994.0
986.0
982.0
979.0
973.0
965.0
962.0
956.0
957.0
954.0
952.0
944.0
940.0
937.0
937.0
937.0
934.0
929.0
927.0
922.0
923.0
925.0
926.0
925.0
926.0
923.0
926.0
927.0
930.0
928.0
923.0
916.0
913.0
914.0
917.0
917.0
917.0
913.0
911.0
913.0
915.0
918.0
915.0
912.0
911.0
914.0
916.0
917.0
919.0
919.0
924.0
925.0
923.0
918.0
914.0
914.0
916.0
921.0
922.0
924.0
925.0
924.0
927.0
928.0
928.0
926.0
923.0
924.0
927.0
928.0
927.0
921.0
919.0
919.0
924.0
928.0
929.0
926.0
920.0
916.0
919.0
923.0
924.0
925.0
922.0
919.0
922.0
925.0
927.0
926.0
925.0
920.0
920.0
919.0
922.0
917.0
915.0
914.0
915.0
919.0
913.0
918.0
919.0
926.0
932.0
932.0
927.0
918.0
916.0
918.0
924.0
925.0
918.0
913.0
912.0
915.0
921.0
922.0
923.0
924.0
927.0
930.0
931.0
933.0
936.0
937.0
936.0
937.0
944.0
951.0
958.0
964.0
967.0
966.0
975.0
979.0
983.0
987.0
995.0
1001.0
1003.0
1002.0
1002.0
1004.0
1024.0
1069.0
1155.0
1275.0
1380.0
1438.0
1447.0
1440.0
1432.0
1429.0
1419.0
1404.0
1386.0
1367.0
1351.0
1337.0
1317.0
1295.0
1273.0
1246.0
1217.0
1186.0
1151.0
1119.0
1090.0
1058.0
1027.0
993.0
961.0
930.0
906.0
883.0
866.0
850.0
836.0
831.0
825.0
806.0
783.0
756.0
724.0
693.0
657.0
614.0
580.0
567.0
578.0
606.0
641.0
670.0
699.0
719.0
733.0
742.0
746.0
750.0
755.0
759.0
758.0
758.0
757.0
754.0
757.0
764.0
769.0
773.0
782.0
792.0
809.0
823.0
832.0
839.0
846.0
859.0
878.0
899.0
911.0
923.0
935.0
944.0
951.0
952.0
948.0
951.0
956.0
959.0
962.0
969.0
972.0
975.0
975.0
979.0
986.0
990.0
993.0
994.0
993.0
996.0
1007.0
1015.0
1019.0
1023.0
1027.0
1031.0
1039.0
1051.0
1054.0
1057.0
1060.0
1066.0
1075.0
1085.0
1085.0
1090.0
1093.0
1100.0
1111.0
1119.0
1124.0
1126.0
1121.0
1116.0
1118.0
1120.0
1119.0
1118.0
1115.0
1114.0
1118.0
1122.0
1121.0
1121.0
1120.0
1118.0
1117.0
1116.0
1113.0
1100.0
1094.0
1089.0
1088.0
1086.0
1081.0
1076.0
1067.0
1058.0
1052.0
1043.0
1031.0
1021.0
1014.0
1007.0
1005.0
998.0
990.0
980.0
969.0
957.0
949.0
943.0
939.0
932.0
929.0
928.0
927.0
927.0
920.0
914.0
906.0
904.0
908.0
914.0
914.0
917.0
913.0
908.0
905.0
903.0
902.0
901.0
901.0
903.0
901.0
899.0
892.0
890.0
890.0
892.0
898.0
903.0
903.0
895.0
886.0
884.0
887.0
891.0
890.0
891.0
888.0
891.0
896.0
902.0
903.0
903.0
903.0
896.0
898.0
896.0
890.0
888.0
890.0
897.0
905.0
910.0
900.0
893.0
891.0
895.0
905.0
911.0
908.0
896.0
890.0
889.0
897.0
910.0
914.0
917.0
913.0
908.0
909.0
919.0
922.0
930.0
936.0
938.0
949.0
952.0
953.0
948.0
944.0
947.0
957.0
962.0
968.0
964.0
958.0
957.0
958.0
958.0
957.0
955.0
955.0
956.0
959.0
964.0
960.0
955.0
947.0
935.0
928.0
923.0
922.0
926.0
921.0
915.0
912.0
906.0
900.0
897.0
893.0
893.0
897.0
897.0
890.0
885.0
880.0
878.0
882.0
889.0
894.0
895.0
890.0
881.0
876.0
877.0
878.0
879.0
879.0
882.0
887.0
892.0
894.0
895.0
897.0
899.0
905.0
919.0
932.0
959.0
1012.0
1119.0
1246.0
1371.0
1419.0
1418.0
1403.0
1393.0
1383.0
1373.0
1354.0
1340.0
1324.0
1307.0
1295.0
1279.0
1254.0
1232.0
1211.0
1191.0
1170.0
1147.0
1117.0
1089.0
1056.0
1023.0
990.0
970.0
944.0
914.0
884.0
861.0
854.0
851.0
845.0
843.0
839.0
821.0
787.0
758.0
725.0
700.0
674.0
646.0
620.0
616.0
625.0
634.0
649.0
671.0
702.0
726.0
730.0
732.0
733.0
739.0
749.0
757.0
760.0
767.0
769.0
767.0
767.0
773.0
785.0
799.0
814.0
821.0
831.0
839.0
851.0
861.0
873.0
889.0
906.0
926.0
937.0
944.0
948.0
955.0
962.0
969.0
973.0
977.0
978.0
975.0
979.0
988.0
999.0
1001.0
999.0
995.0
999.0
1003.0
1009.0
1018.0
1020.0
1024.0
1028.0
1037.0
1039.0
1045.0
1051.0
1055.0
1064.0
1067.0
1069.0
1074.0
1080.0
1082.0
1083.0
1087.0
1088.0
1095.0
1100.0
1101.0
1108.0
1112.0
1114.0
1118.0
1117.0
1109.0
1110.0
1112.0
1111.0
1108.0
1109.0
1108.0
1106.0
1101.0
1091.0
1087.0
1087.0
1083.0
1080.0
1077.0
1071.0
1058.0
1047.0
1043.0
1044.0
1041.0
1029.0
1014.0
1001.0
997.0
995.0
988.0
977.0
967.0
960.0
953.0
947.0
932.0
914.0
903.0
897.0
895.0
894.0
894.0
889.0
886.0
881.0
876.0
873.0
875.0
872.0
872.0
867.0
862.0
861.0
862.0
862.0
865.0
860.0
855.0
852.0
855.0
860.0
869.0
878.0
886.0
892.0
896.0
897.0
895.0
892.0
890.0
898.0
907.0
908.0
904.0
895.0
887.0
880.0
881.0
882.0
881.0
879.0
877.0
880.0
882.0
876.0
869.0
861.0
860.0
857.0
859.0
853.0
847.0
838.0
831.0
827.0
828.0
824.0
815.0
806.0
803.0
805.0
806.0
798.0
795.0
790.0
788.0
789.0
794.0
798.0
794.0
790.0
787.0
782.0
782.0
782.0
780.0
776.0
769.0
769.0
770.0
773.0
775.0
774.0
775.0
779.0
782.0
778.0
768.0
764.0
766.0
771.0
774.0
772.0
772.0
770.0
771.0
769.0
767.0
759.0
757.0
762.0
765.0
767.0
768.0
769.0
766.0
761.0
760.0
759.0
760.0
760.0
760.0
762.0
766.0
767.0
768.0
764.0
762.0
759.0
760.0
769.0
772.0
772.0
769.0
767.0
763.0
768.0
773.0
774.0
776.0
778.0
780.0
783.0
792.0
802.0
823.0
864.0
947.0
1074.0
1201.0
1328.0
1384.0
1370.0
1344.0
1327.0
1316.0
1301.0
1281.0
1258.0
1234.0
1210.0
1190.0
1167.0
1139.0
1112.0
1078.0
1049.0
1023.0
987.0
950.0
907.0
863.0
816.0
776.0
735.0
697.0
658.0
620.0
594.0
575.0
561.0
552.0
542.0
530.0
515.0
496.0
479.0
460.0
448.0
438.0
429.0
423.0
419.0
427.0
445.0
468.0
495.0
523.0
554.0
581.0
599.0
609.0
619.0
625.0
630.0
633.0
643.0
651.0
662.0
666.0
667.0
667.0
669.0
680.0
695.0
711.0
720.0
726.0
736.0
749.0
762.0
778.0
788.0
797.0
804.0
819.0
836.0
848.0
854.0
855.0
857.0
866.0
877.0
881.0
879.0
874.0
868.0
876.0
886.0
898.0
903.0
903.0
904.0
908.0
919.0
929.0
939.0
936.0
933.0
933.0
937.0
946.0
956.0
968.0
977.0
984.0
993.0
1002.0
1006.0
1008.0
1010.0
1013.0
1016.0
1022.0
1026.0
1031.0
1035.0
1037.0
1048.0
1060.0
1063.0
1058.0
1049.0
1044.0
1042.0
1046.0
1051.0
1054.0
1059.0
1063.0
1063.0
1061.0
1058.0
1052.0
1050.0
1052.0
1050.0
1045.0
1044.0
1039.0
1037.0
1034.0
1026.0
1015.0
998.0
982.0
966.0
951.0
945.0
940.0
935.0
926.0
910.0
899.0
888.0
881.0
870.0
858.0
846.0
842.0
835.0
833.0
825.0
811.0
804.0
800.0
796.0
791.0
783.0
773.0
768.0
766.0
765.0
765.0
762.0
762.0
761.0
760.0
764.0
765.0
764.0
765.0
763.0
763.0
763.0
767.0
769.0
768.0
766.0
760.0
759.0
758.0
758.0
757.0
755.0
755.0
757.0
759.0
759.0
759.0
761.0
762.0
762.0
763.0
762.0
762.0
764.0
766.0
767.0
768.0
768.0
770.0
767.0
765.0
767.0
770.0
771.0
774.0
771.0
768.0
766.0
767.0
769.0
768.0
767.0
770.0
778.0
785.0
779.0
773.0
771.0
771.0
775.0
776.0
776.0
777.0
776.0
779.0
780.0
786.0
790.0
790.0
792.0
792.0
792.0
791.0
786.0
783.0
777.0
775.0
778.0
782.0
787.0
788.0
792.0
794.0
795.0
795.0
793.0
792.0
790.0
796.0
799.0
797.0
797.0
800.0
797.0
798.0
804.0
809.0
803.0
800.0
800.0
807.0
811.0
810.0
801.0
800.0
801.0
806.0
810.0
812.0
810.0
804.0
806.0
811.0
817.0
822.0
824.0
828.0
836.0
846.0
859.0
875.0
912.0
980.0
1105.0
1232.0
1359.0
1452.0
1448.0
1427.0
1411.0
1400.0
1385.0
1365.0
1340.0
1317.0
1292.0
1271.0
1253.0
1234.0
1209.0
1182.0
1154.0
1127.0
1097.0
1065.0
1026.0
993.0
960.0
927.0
893.0
872.0
847.0
822.0
803.0
787.0
778.0
765.0
754.0
749.0
739.0
721.0
688.0
655.0
625.0
603.0
579.0
561.0
543.0
536.0
542.0
558.0
579.0
605.0
630.0
658.0
675.0
685.0
685.0
688.0
693.0
700.0
703.0
706.0
708.0
711.0
716.0
721.0
726.0
731.0
741.0
758.0
770.0
783.0
794.0
800.0
810.0
824.0
838.0
852.0
860.0
869.0
878.0
895.0
910.0
922.0
930.0
927.0
930.0
934.0
944.0
951.0
957.0
965.0
967.0
972.0
982.0
994.0
1006.0
1014.0
1020.0
1023.0
1031.0
1031.0
1029.0
1033.0
1039.0
1048.0
1054.0
1058.0
1061.0
1060.0
1065.0
1073.0
1084.0
1090.0
1097.0
1100.0
1096.0
1095.0
1097.0
1097.0
1096.0
1099.0
1097.0
1103.0
1109.0
1110.0
1110.0
1107.0
1103.0
1105.0
1106.0
1106.0
1101.0
1095.0
1087.0
1088.0
1091.0
1090.0
1089.0
1084.0
1078.0
1074.0
1070.0
1066.0
1057.0
1048.0
1044.0
1041.0
1040.0
1036.0
1029.0
1017.0
1007.0
999.0
992.0
982.0
975.0
961.0
951.0
942.0
939.0
937.0
929.0
919.0
910.0
907.0
902.0
898.0
897.0
889.0
883.0
884.0
885.0
890.0
888.0
880.0
870.0
864.0
864.0
