# Simple Text Format
# Sampling Rate (Hz):= 360.00
# Resolution:= 12
# Labels:= ECG
995.0
991.0
986.0
978.0
972.0
966.0
962.0
960.0
959.0
957.0
956.0
950.0
943.0
938.0
942.0
948.0
947.0
940.0
936.0
934.0
936.0
937.0
941.0
939.0
937.0
936.0
934.0
937.0
938.0
936.0
934.0
931.0
934.0
935.0
937.0
935.0
932.0
931.0
932.0
934.0
937.0
940.0
938.0
934.0
934.0
939.0
942.0
947.0
948.0
949.0
953.0
960.0
962.0
968.0
972.0
977.0
980.0
986.0
995.0
997.0
996.0
996.0
1004.0
1016.0
1023.0
1021.0
1014.0
1008.0
1009.0
1010.0
1014.0
1010.0
1013.0
1011.0
1010.0
1008.0
1007.0
1004.0
1004.0
1001.0
998.0
990.0
983.0
980.0
973.0
968.0
964.0
961.0
952.0
946.0
942.0
942.0
944.0
946.0
942.0
935.0
931.0
924.0
925.0
924.0
927.0
927.0
927.0
922.0
925.0
927.0
927.0
929.0
925.0
925.0
924.0
926.0
923.0
922.0
923.0
924.0
927.0
924.0
924.0
922.0
921.0
920.0
927.0
930.0
929.0
925.0
921.0
923.0
928.0
927.0
929.0
929.0
926.0
926.0
927.0
933.0
940.0
939.0
937.0
938.0
950.0
968.0
1000.0
1068.0
1176.0
1289.0
1357.0
1364.0
1339.0
1310.0
1291.0
1275.0
1262.0
1247.0
1233.0
1216.0
1197.0
1176.0
1154.0
1136.0
1118.0
1095.0
1074.0
1058.0
1043.0
1018.0
983.0
942.0
899.0
863.0
832.0
798.0
768.0
740.0
707.0
684.0
666.0
658.0
651.0
649.0
638.0
624.0
606.0
587.0
574.0
564.0
553.0
538.0
531.0
539.0
558.0
583.0
606.0
629.0
663.0
695.0
725.0
744.0
753.0
765.0
775.0
784.0
795.0
807.0
818.0
819.0
820.0
819.0
825.0
836.0
848.0
860.0
870.0
881.0
891.0
899.0
906.0
915.0
932.0
952.0
966.0
975.0
982.0
989.0
1000.0
1010.0
1020.0
1026.0
1031.0
1032.0
1035.0
1044.0
1051.0
1056.0
1058.0
1055.0
1059.0
1065.0
1072.0
1077.0
1083.0
1081.0
1083.0
1093.0
1096.0
1102.0
1101.0
1104.0
1112.0
1123.0
1131.0
1131.0
1133.0
1136.0
1143.0
1151.0
1157.0
1162.0
1164.0
1163.0
1170.0
1173.0
1178.0
1181.0
1184.0
1184.0
1184.0
1186.0
1191.0
1190.0
1190.0
1186.0
1185.0
1186.0
1185.0
1183.0
1179.0
1173.0
1170.0
1167.0
1163.0
1159.0
1151.0
1142.0
1137.0
1134.0
1132.0
1124.0
1114.0
1101.0
1089.0
1082.0
1075.0
1069.0
1063.0
1057.0
1045.0
1035.0
1023.0
1013.0
1004.0
998.0
989.0
985.0
983.0
981.0
977.0
969.0
968.0
972.0
979.0
981.0
976.0
971.0
967.0
967.0
970.0
972.0
975.0
974.0
971.0
966.0
962.0
957.0
953.0
948.0
948.0
950.0
954.0
951.0
951.0
941.0
941.0
938.0
937.0
933.0
925.0
918.0
915.0
913.0
908.0
895.0
884.0
880.0
883.0
884.0
882.0
876.0
871.0
865.0
863.0
861.0
861.0
858.0
857.0
856.0
856.0
857.0
857.0
852.0
855.0
853.0
854.0
854.0
854.0
853.0
851.0
850.0
854.0
857.0
861.0
861.0
856.0
852.0
851.0
851.0
855.0
851.0
849.0
848.0
849.0
852.0
853.0
851.0
849.0
846.0
850.0
851.0
851.0
847.0
843.0
841.0
849.0
852.0
854.0
850.0
845.0
844.0
846.0
850.0
853.0
853.0
851.0
851.0
852.0
856.0
855.0
855.0
851.0
850.0
851.0
852.0
855.0
855.0
853.0
848.0
850.0
855.0
855.0
856.0
854.0
851.0
854.0
859.0
859.0
857.0
856.0
854.0
861.0
866.0
870.0
869.0
867.0
863.0
866.0
869.0
876.0
878.0
879.0
878.0
882.0
892.0
901.0
921.0
953.0
1025.0
1151.0
1278.0
1356.0
1353.0
1311.0
1271.0
1251.0
1241.0
1228.0
1212.0
1190.0
1167.0
1153.0
1138.0
1124.0
1107.0
1088.0
1065.0
1043.0
1023.0
1006.0
983.0
957.0
932.0
911.0
889.0
871.0
847.0
822.0
796.0
773.0
759.0
752.0
750.0
751.0
751.0
748.0
743.0
731.0
717.0
698.0
678.0
654.0
639.0
633.0
636.0
645.0
661.0
682.0
701.0
726.0
748.0
765.0
773.0
772.0
776.0
780.0
784.0
784.0
784.0
788.0
788.0
789.0
784.0
779.0
782.0
790.0
802.0
808.0
814.0
818.0
824.0
832.0
848.0
860.0
868.0
873.0
881.0
896.0
908.0
922.0
929.0
935.0
938.0
942.0
946.0
947.0
948.0
952.0
954.0
958.0
962.0
964.0
966.0
968.0
969.0
972.0
975.0
978.0
980.0
985.0
992.0
998.0
1003.0
1004.0
1008.0
1009.0
1012.0
1021.0
1028.0
1034.0
1038.0
1042.0
1048.0
1057.0
1066.0
1074.0
1086.0
1092.0
1100.0
1111.0
1121.0
1129.0
1135.0
1140.0
1141.0
1142.0
1142.0
1148.0
1156.0
1161.0
1160.0
1158.0
1152.0
1150.0
1148.0
1148.0
1149.0
1151.0
1149.0
1148.0
1141.0
1135.0
1129.0
1127.0
1124.0
1118.0
1112.0
1102.0
1087.0
1072.0
1064.0
1057.0
1048.0
1037.0
1022.0
1012.0
1002.0
994.0
988.0
973.0
961.0
951.0
944.0
936.0
932.0
923.0
914.0
909.0
907.0
905.0
905.0
906.0
902.0
895.0
886.0
883.0
880.0
881.0
876.0
879.0
879.0
881.0
880.0
876.0
873.0
869.0
871.0
870.0
871.0
871.0
866.0
865.0
867.0
866.0
865.0
864.0
864.0
863.0
864.0
865.0
864.0
862.0
859.0
861.0
862.0
865.0
865.0
861.0
862.0
862.0
867.0
871.0
869.0
867.0
867.0
868.0
869.0
872.0
871.0
870.0
870.0
873.0
875.0
878.0
879.0
878.0
875.0
875.0
879.0
877.0
879.0
882.0
880.0
882.0
881.0
883.0
884.0
882.0
880.0
889.0
895.0
897.0
889.0
886.0
884.0
889.0
890.0
890.0
889.0
889.0
889.0
890.0
893.0
893.0
894.0
895.0
892.0
892.0
894.0
898.0
901.0
899.0
899.0
902.0
904.0
902.0
899.0
895.0
898.0
902.0
906.0
907.0
906.0
903.0
905.0
907.0
910.0
911.0
910.0
907.0
907.0
908.0
912.0
915.0
914.0
911.0
908.0
912.0
914.0
917.0
923.0
924.0
921.0
921.0
921.0
925.0
927.0
929.0
932.0
933.0
939.0
944.0
946.0
957.0
973.0
1018.0
1111.0
1238.0
1364.0
1401.0
1370.0
1329.0
1309.0
1300.0
1287.0
1262.0
1238.0
1214.0
1197.0
1178.0
1159.0
1138.0
1116.0
1094.0
1074.0
1049.0
1016.0
981.0
942.0
906.0
867.0
831.0
793.0
761.0
730.0
700.0
679.0
661.0
649.0
639.0
636.0
632.0
626.0
615.0
601.0
593.0
587.0
576.0
563.0
555.0
554.0
566.0
586.0
617.0
655.0
693.0
724.0
747.0
763.0
772.0
787.0
796.0
805.0
813.0
819.0
833.0
843.0
851.0
855.0
859.0
868.0
877.0
889.0
905.0
921.0
934.0
947.0
963.0
980.0
993.0
1011.0
1027.0
1037.0
1058.0
1081.0
1101.0
1119.0
1127.0
1125.0
1128.0
1127.0
1128.0
1130.0
1135.0
1144.0
1154.0
1160.0
1163.0
1164.0
1165.0
1164.0
1159.0
1159.0
1161.0
1163.0
1165.0
1165.0
1167.0
1166.0
1168.0
1174.0
1180.0
1181.0
1183.0
1185.0
1193.0
1197.0
1202.0
1201.0
1205.0
1210.0
1214.0
1215.0
1225.0
1230.0
1240.0
1240.0
1240.0
1243.0
1244.0
1246.0
1249.0
1249.0
1250.0
1249.0
1248.0
1246.0
1246.0
1243.0
1240.0
1239.0
1237.0
1235.0
1231.0
1228.0
1224.0
1220.0
1212.0
1202.0
1194.0
1189.0
1181.0
1168.0
1155.0
1144.0
1137.0
1134.0
1127.0
1115.0
1103.0
1097.0
1095.0
1085.0
1079.0
1065.0
1051.0
1042.0
1037.0
1034.0
1024.0
1014.0
1003.0
994.0
991.0
986.0
982.0
976.0
974.0
971.0
972.0
969.0
967.0
965.0
962.0
957.0
951.0
949.0
947.0
946.0
944.0
949.0
956.0
956.0
951.0
944.0
938.0
937.0
938.0
942.0
940.0
939.0
942.0
943.0
941.0
940.0
941.0
943.0
943.0
942.0
939.0
942.0
945.0
946.0
941.0
938.0
941.0
945.0
951.0
954.0
950.0
945.0
946.0
946.0
951.0
950.0
952.0
952.0
952.0
955.0
956.0
955.0
956.0
960.0
964.0
966.0
962.0
957.0
954.0
956.0
959.0
966.0
969.0
966.0
960.0
958.0
961.0
967.0
965.0
959.0
961.0
957.0
961.0
965.0
969.0
965.0
962.0
962.0
963.0
965.0
966.0
968.0
969.0
967.0
967.0
969.0
968.0
972.0
974.0
970.0
968.0
967.0
972.0
973.0
970.0
967.0
966.0
969.0
970.0
974.0
970.0
967.0
967.0
971.0
971.0
970.0
970.0
967.0
971.0
971.0
968.0
965.0
968.0
977.0
984.0
982.0
976.0
975.0
973.0
971.0
975.0
977.0
976.0
979.0
978.0
978.0
980.0
979.0
982.0
981.0
979.0
978.0
983.0
990.0
997.0
1003.0
1008.0
1028.0
1072.0
1158.0
1271.0
1378.0
1425.0
1415.0
1385.0
1360.0
1345.0
1331.0
1314.0
1295.0
1278.0
1259.0
1243.0
1224.0
1208.0
1189.0
1170.0
1154.0
1133.0
1111.0
1081.0
1049.0
1020.0
994.0
966.0
936.0
906.0
875.0
846.0
820.0
802.0
789.0
781.0
772.0
770.0
769.0
764.0
753.0
734.0
715.0
702.0
696.0
682.0
665.0
647.0
637.0
647.0
673.0
701.0
731.0
760.0
788.0
814.0
835.0
848.0
846.0
842.0
840.0
844.0
850.0
861.0
866.0
865.0
861.0
857.0
860.0
868.0
877.0
888.0
897.0
906.0
911.0
918.0
927.0
940.0
953.0
972.0
983.0
994.0
1001.0
1008.0
1018.0
1019.0
1025.0
1034.0
1041.0
1045.0
1042.0
1040.0
1042.0
1046.0
1048.0
1050.0
1048.0
1047.0
1052.0
1059.0
1066.0
1069.0
1072.0
1071.0
1072.0
1073.0
1075.0
1075.0
1079.0
1083.0
1088.0
1092.0
1099.0
1102.0
1103.0
1109.0
1113.0
1116.0
1114.0
1119.0
1123.0
1129.0
1138.0
1143.0
1145.0
1146.0
1145.0
1146.0
1152.0
1156.0
1157.0
1156.0
1159.0
1163.0
1167.0
1170.0
1175.0
1175.0
1169.0
1169.0
1169.0
1168.0
1171.0
1171.0
1166.0
1164.0
1160.0
1161.0
1160.0
1157.0
1151.0
1150.0
1150.0
1141.0
1136.0
1131.0
1125.0
1121.0
1116.0
1111.0
1109.0
1102.0
1093.0
1088.0
1081.0
1074.0
1068.0
1060.0
1050.0
1049.0
1045.0
1034.0
1028.0
1019.0
1014.0
1011.0
1008.0
1003.0
1000.0
1001.0
1000.0
997.0
992.0
989.0
982.0
979.0
977.0
977.0
980.0
980.0
979.0
974.0
969.0
967.0
968.0
966.0
965.0
965.0
966.0
969.0
970.0
968.0
965.0
963.0
960.0
960.0
959.0
963.0
962.0
962.0
959.0
964.0
965.0
964.0
956.0
952.0
953.0
956.0
967.0
971.0
969.0
964.0
960.0
963.0
968.0
971.0
970.0
970.0
966.0
966.0
970.0
974.0
976.0
975.0
972.0
972.0
973.0
975.0
974.0
971.0
967.0
969.0
970.0
972.0
972.0
972.0
973.0
972.0
971.0
971.0
968.0
965.0
963.0
968.0
973.0
979.0
979.0
977.0
974.0
970.0
969.0
971.0
972.0
973.0
970.0
969.0
969.0
971.0
974.0
970.0
969.0
970.0
972.0
973.0
975.0
969.0
968.0
968.0
970.0
972.0
977.0
974.0
969.0
970.0
976.0
981.0
981.0
983.0
983.0
989.0
997.0
1001.0
1008.0
1009.0
1014.0
1023.0
1030.0
1029.0
1029.0
1029.0
1031.0
1036.0
1042.0
1041.0
1038.0
1032.0
1031.0
1035.0
1042.0
1045.0
1046.0
1043.0
1043.0
1051.0
1059.0
1076.0
1114.0
1188.0
1299.0
1398.0
1431.0
1410.0
1371.0
1344.0
1328.0
1310.0
1291.0
1272.0
1253.0
1234.0
1219.0
1205.0
1186.0
1166.0
1143.0
1120.0
1101.0
1082.0
1063.0
1041.0
1014.0
987.0
957.0
929.0
906.0
878.0
851.0
828.0
806.0
792.0
782.0
779.0
779.0
778.0
767.0
755.0
744.0
732.0
713.0
686.0
658.0
631.0
623.0
633.0
662.0
697.0
730.0
758.0
784.0
805.0
822.0
834.0
839.0
842.0
845.0
843.0
846.0
847.0
846.0
846.0
850.0
852.0
854.0
860.0
869.0
882.0
889.0
896.0
905.0
912.0
922.0
935.0
953.0
967.0
977.0
986.0
994.0
1008.0
1024.0
1032.0
1033.0
1032.0
1029.0
1032.0
1040.0
1047.0
1048.0
1049.0
1052.0
1061.0
1071.0
1078.0
1081.0
1081.0
1084.0
1092.0
1099.0
1102.0
1104.0
1111.0
1114.0
1125.0
1137.0
1145.0
1145.0
1148.0
1153.0
1163.0
1173.0
1184.0
1186.0
1188.0
1190.0
1198.0
1205.0
1213.0
1219.0
1222.0
1226.0
1231.0
1235.0
1237.0
1236.0
1234.0
1234.0
1233.0
1238.0
1240.0
1240.0
1239.0
1233.0
1230.0
1229.0
1228.0
1228.0
1226.0
1221.0
1216.0
1205.0
1201.0
1193.0
1184.0
1174.0
1167.0
1159.0
1153.0
1149.0
1145.0
1137.0
1128.0
1117.0
1105.0
1096.0
1090.0
1081.0
1077.0
1069.0
1059.0
1051.0
1044.0
1036.0
1036.0
1034.0
1028.0
1015.0
1001.0
994.0
995.0
997.0
991.0
991.0
989.0
988.0
987.0
984.0
981.0
975.0
972.0
969.0
968.0
971.0
972.0
969.0
965.0
966.0
970.0
973.0
972.0
968.0
967.0
968.0
972.0
970.0
962.0
960.0
962.0
968.0
972.0
972.0
968.0
959.0
958.0
957.0
960.0
964.0
964.0
965.0
964.0
961.0
960.0
962.0
967.0
970.0
971.0
969.0
968.0
969.0
970.0
969.0
967.0
967.0
973.0
980.0
981.0
983.0
981.0
981.0
982.0
990.0
992.0
993.0
996.0
1000.0
1006.0
1016.0
1022.0
1025.0
1023.0
1021.0
1025.0
1033.0
1041.0
1041.0
1036.0
1033.0
1033.0
1035.0
1035.0
1034.0
1032.0
1031.0
1029.0
1029.0
1031.0
1032.0
1028.0
1020.0
1014.0
1008.0
1007.0
1003.0
995.0
985.0
985.0
982.0
979.0
974.0
968.0
964.0
963.0
963.0
962.0
959.0
952.0
947.0
947.0
947.0
947.0
948.0
944.0
942.0
943.0
949.0
951.0
953.0
947.0
941.0
941.0
945.0
948.0
948.0
948.0
946.0
947.0
948.0
944.0
940.0
938.0
945.0
959.0
968.0
968.0
965.0
969.0
984.0
1027.0
1108.0
1222.0
1335.0
1389.0
1375.0
1340.0
1314.0
1302.0
1291.0
1272.0
1249.0
1228.0
1209.0
1194.0
1182.0
1163.0
1138.0
1115.0
1094.0
1074.0
1059.0
1041.0
1013.0
975.0
934.0
896.0
860.0
829.0
796.0
768.0
736.0
710.0
692.0
680.0
676.0
674.0
666.0
651.0
630.0
609.0
589.0
580.0
568.0
557.0
550.0
560.0
580.0
609.0
634.0
659.0
690.0
718.0
742.0
764.0
782.0
796.0
806.0
813.0
819.0
827.0
835.0
841.0
844.0
845.0
853.0
867.0
881.0
898.0
907.0
915.0
923.0
934.0
946.0
959.0
973.0
986.0
1002.0
1016.0
1028.0
1036.0
1042.0
1049.0
1055.0
1062.0
1067.0
1068.0
1068.0
1069.0
1073.0
1073.0
1078.0
1086.0
1092.0
1092.0
1092.0
1095.0
1106.0
1114.0
1117.0
1115.0
1117.0
1120.0
1132.0
1139.0
1142.0
1144.0
1149.0
1152.0
1157.0
1162.0
1166.0
1174.0
1176.0
1181.0
1184.0
1187.0
1190.0
1192.0
1192.0
1195.0
1196.0
1198.0
1202.0
1203.0
1202.0
1201.0
1200.0
1200.0
1198.0
1198.0
1193.0
1192.0
1191.0
1184.0
1176.0
1169.0
1163.0
1163.0
1162.0
1160.0
1150.0
1136.0
1126.0
1121.0
1117.0
1110.0
1100.0
1092.0
1084.0
1076.0
1063.0
1052.0
1041.0
1030.0
1024.0
1014.0
1005.0
999.0
991.0
982.0
972.0
965.0
960.0
951.0
943.0
934.0
927.0
924.0
924.0
926.0
923.0
918.0
917.0
920.0
923.0
925.0
925.0
923.0
922.0
932.0
940.0
943.0
942.0
940.0
938.0
941.0
942.0
942.0
942.0
940.0
932.0
928.0
926.0
922.0
920.0
921.0
918.0
919.0
917.0
917.0
914.0
911.0
909.0
902.0
896.0
893.0
886.0
879.0
873.0
867.0
866.0
859.0
852.0
846.0
842.0
841.0
842.0
836.0
833.0
834.0
831.0
828.0
819.0
819.0
817.0
815.0
815.0
816.0
817.0
818.0
814.0
808.0
804.0
805.0
811.0
812.0
808.0
804.0
798.0
797.0
798.0
797.0
798.0
796.0
792.0
791.0
794.0
796.0
795.0
793.0
787.0
786.0
788.0
789.0
784.0
784.0
780.0
781.0
785.0
789.0
789.0
781.0
778.0
779.0
781.0
783.0
781.0
775.0
771.0
771.0
771.0
774.0
777.0
776.0
775.0
769.0
769.0
769.0
770.0
770.0
770.0
771.0
770.0
770.0
768.0
768.0
767.0
772.0
774.0
774.0
773.0
771.0
768.0
770.0
773.0
777.0
784.0
782.0
779.0
786.0
799.0
819.0
855.0
935.0
1062.0
1189.0
1275.0
1247.0
1188.0
1153.0
1137.0
1130.0
1111.0
1082.0
1058.0
1037.0
1024.0
1015.0
996.0
972.0
948.0
926.0
904.0
880.0
854.0
832.0
808.0
787.0
760.0
740.0
719.0
696.0
666.0
646.0
631.0
630.0
633.0
637.0
632.0
617.0
598.0
585.0
575.0
560.0
542.0
527.0
519.0
532.0
557.0
579.0
605.0
624.0
635.0
642.0
646.0
648.0
654.0
661.0
663.0
668.0
665.0
664.0
661.0
654.0
656.0
663.0
669.0
676.0
684.0
689.0
695.0
702.0
715.0
725.0
736.0
742.0
752.0
764.0
779.0
787.0
793.0
790.0
791.0
796.0
804.0
811.0
809.0
806.0
805.0
813.0
815.0
821.0
822.0
820.0
826.0
831.0
835.0
837.0
837.0
839.0
842.0
845.0
854.0
860.0
863.0
866.0
866.0
868.0
876.0
885.0
890.0
894.0
896.0
901.0
906.0
909.0
908.0
913.0
915.0
922.0
927.0
934.0
940.0
947.0
954.0
961.0
965.0
969.0
975.0
975.0
976.0
975.0
977.0
976.0
976.0
975.0
967.0
963.0
956.0
951.0
947.0
940.0
933.0
928.0
923.0
913.0
903.0
899.0
892.0
885.0
874.0
862.0
845.0
831.0
822.0
814.0
804.0
796.0
785.0
777.0
771.0
766.0
763.0
755.0
751.0
745.0
742.0
739.0
740.0
742.0
735.0
733.0
729.0
729.0
729.0
730.0
727.0
725.0
726.0
726.0
728.0
724.0
724.0
722.0
721.0
723.0
723.0
721.0
722.0
719.0
718.0
719.0
720.0
720.0
719.0
719.0
719.0
719.0
719.0
719.0
718.0
719.0
722.0
725.0
725.0
725.0
721.0
718.0
721.0
723.0
726.0
728.0
728.0
726.0
727.0
729.0
730.0
731.0
732.0
734.0
732.0
733.0
733.0
733.0
734.0
735.0
739.0
744.0
743.0
741.0
736.0
735.0
736.0
741.0
743.0
744.0
742.0
740.0
740.0
741.0
745.0
746.0
748.0
747.0
743.0
745.0
748.0
753.0
754.0
753.0
749.0
750.0
752.0
754.0
755.0
754.0
753.0
760.0
761.0
760.0
755.0
755.0
755.0
757.0
759.0
762.0
765.0
769.0
763.0
764.0
764.0
766.0
767.0
768.0
766.0
766.0
769.0
774.0
773.0
773.0
771.0
773.0
778.0
780.0
781.0
780.0
781.0
783.0
787.0
792.0
795.0
799.0
805.0
814.0
831.0
869.0
954.0
1081.0
1208.0
1323.0
1299.0
1233.0
1179.0
1153.0
1140.0
1124.0
1106.0
1084.0
1061.0
1040.0
1020.0
998.0
984.0
970.0
949.0
924.0
891.0
863.0
839.0
818.0
793.0
766.0
737.0
709.0
686.0
666.0
647.0
630.0
614.0
606.0
604.0
599.0
586.0
581.0
571.0
557.0
546.0
531.0
521.0
514.0
521.0
536.0
560.0
584.0
617.0
646.0
665.0
674.0
678.0
687.0
695.0
699.0
705.0
711.0
718.0
724.0
722.0
724.0
727.0
740.0
751.0
768.0
775.0
783.0
790.0
801.0
813.0
828.0
844.0
862.0
881.0
898.0
911.0
922.0
931.0
937.0
944.0
954.0
964.0
972.0
978.0
989.0
998.0
1004.0
1007.0
1007.0
1006.0
1009.0
1019.0
1031.0
1043.0
1047.0
1047.0
1051.0
1059.0
1068.0
1075.0
1075.0
1073.0
1073.0
1071.0
1077.0
1086.0
1092.0
1099.0
1101.0
1099.0
1103.0
1107.0
1113.0
1111.0
1113.0
1113.0
1116.0
1117.0
1114.0
1113.0
1113.0
1110.0
1105.0
1104.0
1100.0
1095.0
1090.0
1085.0
1080.0
1072.0
1064.0
1055.0
1045.0
1040.0
1035.0
1027.0
1019.0
1006.0
994.0
986.0
977.0
970.0
964.0
956.0
948.0
936.0
929.0
922.0
914.0
905.0
897.0
895.0
892.0
886.0
876.0
869.0
868.0
861.0
863.0
864.0
862.0
855.0
848.0
846.0
848.0
852.0
847.0
843.0
841.0
838.0
844.0
845.0
844.0
844.0
840.0
837.0
840.0
846.0
847.0
843.0
840.0
836.0
839.0
842.0
845.0
842.0
844.0
842.0
843.0
845.0
848.0
849.0
847.0
846.0
846.0
850.0
848.0
847.0
850.0
857.0
862.0
863.0
861.0
859.0
859.0
862.0
865.0
866.0
866.0
869.0
866.0
869.0
872.0
873.0
875.0
877.0
878.0
877.0
875.0
875.0
878.0
880.0
877.0
873.0
874.0
882.0
889.0
894.0
887.0
880.0
881.0
883.0
887.0
883.0
883.0
885.0
889.0
893.0
895.0
893.0
890.0
889.0
893.0
892.0
893.0
894.0
896.0
897.0
898.0
897.0
898.0
901.0
902.0
901.0
904.0
905.0
902.0
902.0
900.0
901.0
904.0
907.0
908.0
907.0
904.0
902.0
908.0
914.0
915.0
911.0
910.0
910.0
916.0
919.0
919.0
920.0
917.0
919.0
919.0
920.0
923.0
923.0
924.0
926.0
927.0
934.0
942.0
949.0
952.0
963.0
989.0
1056.0
1180.0
1307.0
1425.0
1426.0
1383.0
1345.0
1323.0
1314.0
1293.0
1267.0
1242.0
1219.0
1195.0
1175.0
1156.0
1129.0
1103.0
1074.0
1044.0
1012.0
978.0
944.0
911.0
882.0
848.0
814.0
782.0
755.0
734.0
714.0
697.0
690.0
687.0
688.0
688.0
688.0
676.0
665.0
653.0
640.0
635.0
627.0
614.0
608.0
610.0
621.0
645.0
677.0
713.0
747.0
780.0
809.0
827.0
837.0
842.0
852.0
860.0
866.0
881.0
886.0
883.0
875.0
873.0
876.0
888.0
901.0
907.0
911.0
914.0
921.0
931.0
942.0
955.0
963.0
970.0
976.0
986.0
1004.0
1017.0
1025.0
1030.0
1029.0
1030.0
1035.0
1039.0
1042.0
1043.0
1044.0
1050.0
1053.0
1057.0
1058.0
1059.0
1061.0
1063.0
1066.0
1071.0
1080.0
1086.0
1085.0
1089.0
1091.0
1097.0
1104.0
1108.0
1111.0
1117.0
1124.0
1129.0
1131.0
1131.0
1136.0
1141.0
1148.0
1152.0
1154.0
1155.0
1157.0
1162.0
1162.0
1168.0
1168.0
1172.0
1170.0
1169.0
1170.0
1174.0
1177.0
1173.0
1171.0
1172.0
1174.0
1174.0
1175.0
1173.0
1169.0
1167.0
1162.0
1155.0
1150.0
1144.0
1143.0
1144.0
1139.0
1126.0
1117.0
1110.0
1106.0
1106.0
1108.0
1100.0
1081.0
1070.0
1060.0
1057.0
1056.0
1052.0
1041.0
1032.0
1025.0
1023.0
1016.0
1008.0
1003.0
996.0
991.0
989.0
989.0
984.0
976.0
971.0
969.0
970.0
969.0
965.0
965.0
963.0
963.0
962.0
959.0
954.0
954.0
949.0
950.0
953.0
955.0
955.0
949.0
949.0
950.0
949.0
950.0
949.0
948.0
947.0
944.0
943.0
943.0
941.0
943.0
942.0
941.0
943.0
944.0
944.0
941.0
940.0
937.0
943.0
946.0
945.0
946.0
945.0
942.0
944.0
945.0
944.0
950.0
952.0
951.0
948.0
949.0
950.0
952.0
951.0
950.0
952.0
953.0
955.0
952.0
950.0
952.0
955.0
957.0
959.0
957.0
958.0
952.0
953.0
954.0
951.0
955.0
957.0
957.0
954.0
953.0
950.0
951.0
949.0
949.0
953.0
956.0
957.0
955.0
950.0
951.0
955.0
961.0
960.0
956.0
949.0
951.0
953.0
958.0
958.0
954.0
951.0
952.0
954.0
958.0
960.0
956.0
955.0
952.0
954.0
957.0
954.0
955.0
953.0
951.0
955.0
957.0
957.0
956.0
956.0
955.0
956.0
958.0
960.0
963.0
969.0
972.0
972.0
973.0
973.0
977.0
980.0
984.0
991.0
999.0
1005.0
1008.0
1009.0
1009.0
1015.0
1019.0
1026.0
1039.0
1047.0
1053.0
1062.0
1087.0
1143.0
1244.0
1361.0
1448.0
1477.0
1456.0
1426.0
1400.0
1384.0
1367.0
1353.0
1336.0
1318.0
1296.0
1276.0
1258.0
1237.0
1219.0
1201.0
1178.0
1153.0
1125.0
1096.0
1068.0
1042.0
1013.0
985.0
957.0
929.0
909.0
884.0
859.0
837.0
818.0
803.0
792.0
782.0
782.0
787.0
786.0
779.0
768.0
757.0
742.0
728.0
711.0
689.0
671.0
657.0
654.0
670.0
699.0
732.0
764.0
788.0
806.0
818.0
825.0
832.0
837.0
841.0
841.0
843.0
847.0
852.0
853.0
850.0
847.0
845.0
845.0
851.0
863.0
872.0
879.0
883.0
890.0
896.0
906.0
913.0
925.0
933.0
943.0
952.0
960.0
973.0
984.0
992.0
996.0
1002.0
1003.0
1004.0
1004.0
1005.0
1006.0
1015.0
1023.0
1025.0
1025.0
1023.0
1025.0
1031.0
1041.0
1044.0
1044.0
1043.0
1049.0
1056.0
1065.0
1068.0
1070.0
1074.0
1079.0
1086.0
1090.0
1097.0
1100.0
1104.0
1108.0
1114.0
1122.0
1128.0
1134.0
1139.0
1142.0
1149.0
1156.0
1162.0
1165.0
1167.0
1171.0
1176.0
1182.0
1185.0
1186.0
1187.0
1188.0
1195.0
1193.0
1194.0
1191.0
1192.0
1195.0
1197.0
1195.0
1190.0
1190.0
1189.0
1184.0
1181.0
1177.0
1174.0
1168.0
1162.0
1160.0
1158.0
1158.0
1149.0
1141.0
1134.0
1128.0
1124.0
1121.0
1112.0
1105.0
1093.0
1086.0
1080.0
1074.0
1063.0
1058.0
1048.0
1042.0
1033.0
1028.0
1023.0
1016.0
1013.0
1011.0
1008.0
1003.0
997.0
993.0
990.0
986.0
983.0
982.0
982.0
979.0
974.0
969.0
972.0
974.0
974.0
970.0
966.0
964.0
965.0
970.0
969.0
965.0
959.0
959.0
963.0
970.0
973.0
968.0
963.0
957.0
964.0
967.0
968.0
965.0
963.0
963.0
964.0
963.0
963.0
960.0
961.0
963.0
966.0
968.0
968.0
967.0
966.0
967.0
966.0
969.0
970.0
972.0
973.0
972.0
975.0
975.0
974.0
976.0
975.0
975.0
978.0
980.0
979.0
982.0
977.0
977.0
979.0
979.0
980.0
982.0
982.0
984.0
989.0
989.0
993.0
992.0
991.0
991.0
1002.0
1011.0
1016.0
1020.0
1021.0
1023.0
1029.0
1032.0
1032.0
1036.0
1038.0
1043.0
1047.0
1047.0
1045.0
1042.0
1041.0
1041.0
1043.0
1043.0
1046.0
1045.0
1043.0
1042.0
1041.0
1041.0
1034.0
1032.0
1026.0
1025.0
1023.0
1020.0
1012.0
1008.0
1005.0
1000.0
995.0
990.0
990.0
985.0
982.0
979.0
977.0
982.0
979.0
975.0
971.0
969.0
972.0
974.0
973.0
971.0
970.0
970.0
976.0
978.0
977.0
979.0
982.0
981.0
980.0
984.0
990.0
994.0
1003.0
1023.0
1067.0
1149.0
1270.0
1388.0
1450.0
1442.0
1407.0
1378.0
1363.0
1350.0
1331.0
1311.0
1292.0
1279.0
1263.0
1246.0
1229.0
1215.0
1192.0
1174.0
1154.0
1136.0
1117.0
1096.0
1068.0
1038.0
996.0
953.0
909.0
872.0
841.0
809.0
776.0
747.0
724.0
710.0
705.0
706.0
709.0
702.0
688.0
670.0
655.0
649.0
637.0
624.0
611.0
607.0
619.0
641.0
665.0
690.0
713.0
743.0
771.0
797.0
818.0
835.0
845.0
852.0
859.0
866.0
873.0
883.0
888.0
889.0
893.0
899.0
912.0
925.0
934.0
943.0
950.0
959.0
969.0
976.0
984.0
997.0
1015.0
1031.0
1042.0
1052.0
1062.0
1072.0
1087.0
1096.0
1105.0
1110.0
1112.0
1118.0
1124.0
1133.0
1136.0
1140.0
1140.0
1143.0
1149.0
1158.0
1169.0
1173.0
1170.0
1167.0
1173.0
1182.0
1190.0
1195.0
1198.0
1202.0
1205.0
1213.0
1218.0
1220.0
1226.0
1231.0
1240.0
1245.0
1250.0
1252.0
1254.0
1260.0
1269.0
1277.0
1282.0
1285.0
1287.0
1290.0
1294.0
1297.0
1300.0
1301.0
1299.0
1298.0
1299.0
1302.0
1303.0
1302.0
1302.0
1300.0
1298.0
1296.0
1294.0
1290.0
1282.0
1279.0
1274.0
1271.0
1264.0
1256.0
1250.0
1240.0
1232.0
1228.0
1227.0
1222.0
1214.0
1205.0
1198.0
1188.0
1178.0
1167.0
1161.0
1155.0
1150.0
1145.0
1135.0
1122.0
1112.0
1104.0
1101.0
1097.0
1094.0
1083.0
1074.0
1067.0
1067.0
1063.0
1061.0
1057.0
1049.0
1048.0
1043.0
1042.0
1042.0
1043.0
1041.0
1039.0
1036.0
1032.0
1033.0
1036.0
1037.0
1033.0
1034.0
1032.0
1037.0
1042.0
1042.0
1043.0
1048.0
1053.0
1059.0
1063.0
1069.0
1073.0
1077.0
1079.0
1077.0
1077.0
1082.0
1088.0
1094.0
1094.0
1091.0
1085.0
1083.0
1083.0
1085.0
1082.0
1082.0
1081.0
1082.0
1084.0
1087.0
1088.0
1084.0
1077.0
1072.0
1067.0
1067.0
1069.0
1066.0
1061.0
1052.0
1044.0
1038.0
1036.0
1032.0
1027.0
1024.0
1022.0
1018.0
1017.0
1016.0
1016.0
1015.0
1009.0
1007.0
1006.0
1006.0
1007.0
1008.0
1010.0
1012.0
1009.0
1004.0
1002.0
1001.0
1003.0
1004.0
1005.0
1001.0
1002.0
997.0
999.0
1000.0
1003.0
998.0
999.0
1000.0
1003.0
1006.0
1003.0
1000.0
996.0
997.0
999.0
1004.0
1007.0
1007.0
1006.0
1002.0
997.0
999.0
1000.0
999.0
997.0
998.0
998.0
1001.0
1003.0
1001.0
999.0
997.0
998.0
998.0
1001.0
999.0
999.0
1005.0
1001.0
1000.0
1000.0
1003.0
1008.0
1009.0
1007.0
1008.0
1011.0
1012.0
1014.0
1016.0
1017.0
1023.0
1032.0
1043.0
1059.0
1101.0
1193.0
1320.0
1436.0
1466.0
1433.0
1398.0
1375.0
1367.0
1353.0
1335.0
1314.0
1295.0
1283.0
1271.0
1256.0
1235.0
1215.0
1197.0
1182.0
1165.0
1140.0
1111.0
1080.0
1047.0
1023.0
1002.0
978.0
944.0
914.0
885.0
868.0
864.0
872.0
879.0
876.0
865.0
848.0
830.0
818.0
802.0
785.0
763.0
750.0
752.0
770.0
791.0
805.0
820.0
844.0
869.0
887.0
894.0
899.0
904.0
907.0
913.0
918.0
922.0
924.0
926.0
924.0
921.0
920.0
924.0
934.0
945.0
954.0
959.0
970.0
976.0
984.0
