# Simple Text Format
# Sampling Rate (Hz):= 360.00
# Resolution:= 12
# Labels:= ECG
945.0
946.0
947.0
948.0
950.0
951.0
953.0
950.0
948.0
948.0
946.0
944.0
944.0
945.0
950.0
953.0
954.0
951.0
948.0
948.0
950.0
949.0
949.0
950.0
953.0
948.0
951.0
951.0
949.0
951.0
951.0
952.0
960.0
968.0
975.0
973.0
976.0
976.0
982.0
991.0
996.0
998.0
999.0
1003.0
1011.0
1016.0
1021.0
1021.0
1022.0
1021.0
1020.0
1017.0
1017.0
1019.0
1019.0
1025.0
1029.0
1029.0
1030.0
1032.0
1045.0
1068.0
1128.0
1237.0
1358.0
1414.0
1392.0
1348.0
1319.0
1303.0
1286.0
1268.0
1242.0
1221.0
1202.0
1181.0
1157.0
1138.0
1122.0
1104.0
1081.0
1055.0
1028.0
998.0
963.0
931.0
894.0
858.0
828.0
797.0
770.0
746.0
728.0
716.0
709.0
714.0
714.0
702.0
685.0
671.0
659.0
646.0
619.0
595.0
583.0
588.0
609.0
644.0
688.0
725.0
757.0
775.0
787.0
797.0
806.0
812.0
813.0
816.0
825.0
829.0
834.0
833.0
835.0
840.0
847.0
858.0
866.0
878.0
888.0
895.0
904.0
917.0
934.0
947.0
961.0
972.0
985.0
995.0
1011.0
1023.0
1027.0
1026.0
1029.0
1030.0
1036.0
1041.0
1045.0
1052.0
1054.0
1053.0
1057.0
1062.0
1068.0
1075.0
1079.0
1082.0
1082.0
1088.0
1099.0
1110.0
1120.0
1123.0
1126.0
1132.0
1139.0
1146.0
1152.0
1154.0
1157.0
1164.0
1173.0
1180.0
1183.0
1184.0
1190.0
1199.0
1202.0
1205.0
1202.0
1202.0
1203.0
1206.0
1212.0
1213.0
1210.0
1207.0
1201.0
1201.0
1198.0
1196.0
1193.0
1185.0
1178.0
1176.0
1169.0
1163.0
1154.0
1148.0
1142.0
1135.0
1128.0
1123.0
1118.0
1112.0
1100.0
1087.0
1079.0
1069.0
1063.0
1056.0
1053.0
1044.0
1035.0
1024.0
1018.0
1012.0
1009.0
1001.0
992.0
984.0
981.0
978.0
976.0
972.0
972.0
969.0
965.0
965.0
967.0
967.0
961.0
954.0
952.0
955.0
959.0
960.0
956.0
952.0
950.0
949.0
948.0
946.0
944.0
945.0
950.0
952.0
951.0
947.0
947.0
946.0
952.0
953.0
950.0
945.0
943.0
944.0
947.0
944.0
950.0
950.0
949.0
947.0
947.0
947.0
947.0
947.0
949.0
950.0
953.0
958.0
958.0
960.0
958.0
958.0
954.0
955.0
962.0
968.0
970.0
974.0
976.0
978.0
985.0
992.0
994.0
998.0
1001.0
1000.0
1002.0
1006.0
1016.0
1023.0
1026.0
1021.0
1015.0
1014.0
1014.0
1014.0
1015.0
1012.0
1015.0
1016.0
1014.0
1012.0
1013.0
1012.0
1006.0
1002.0
997.0
992.0
984.0
976.0
970.0
967.0
965.0
961.0
952.0
946.0
946.0
949.0
944.0
939.0
932.0
928.0
933.0
936.0
936.0
933.0
927.0
925.0
928.0
932.0
933.0
933.0
931.0
929.0
929.0
930.0
933.0
933.0
935.0
933.0
934.0
934.0
933.0
931.0
935.0
937.0
939.0
942.0
948.0
947.0
948.0
949.0
958.0
980.0
1027.0
1124.0
1251.0
1350.0
1377.0
1348.0
1308.0
1287.0
1274.0
1259.0
1241.0
1225.0
1210.0
1193.0
1185.0
1170.0
1155.0
1138.0
1123.0
1105.0
1094.0
1078.0
1060.0
1035.0
1011.0
990.0
966.0
939.0
911.0
878.0
843.0
810.0
781.0
771.0
773.0
780.0
776.0
762.0
751.0
737.0
725.0
711.0
696.0
675.0
656.0
645.0
656.0
674.0
693.0
714.0
738.0
764.0
783.0
796.0
807.0
821.0
827.0
827.0
830.0
838.0
848.0
853.0
853.0
850.0
848.0
855.0
864.0
875.0
885.0
893.0
900.0
909.0
919.0
930.0
941.0
953.0
967.0
976.0
986.0
999.0
1013.0
1020.0
1023.0
1022.0
1025.0
1028.0
1031.0
1034.0
1042.0
1050.0
1052.0
1048.0
1049.0
1051.0
1056.0
1061.0
1065.0
1072.0
1078.0
1080.0
1082.0
1087.0
1091.0
1097.0
1101.0
1108.0
1113.0
1116.0
1119.0
1122.0
1131.0
1136.0
1141.0
1148.0
1151.0
1155.0
1155.0
1155.0
1161.0
1168.0
1175.0
1175.0
1178.0
1176.0
1181.0
1187.0
1185.0
1183.0
1181.0
1181.0
1184.0
1182.0
1178.0
1170.0
1167.0
1169.0
1170.0
1172.0
1161.0
1150.0
1145.0
1138.0
1135.0
1130.0
1125.0
1116.0
1108.0
1103.0
1098.0
1097.0
1088.0
1074.0
1065.0
1059.0
1055.0
1050.0
1041.0
1035.0
1023.0
1014.0
1011.0
1006.0
1003.0
995.0
986.0
979.0
978.0
975.0
973.0
965.0
958.0
953.0
957.0
959.0
956.0
955.0
954.0
952.0
955.0
961.0
965.0
966.0
967.0
967.0
976.0
985.0
987.0
987.0
995.0
1001.0
1003.0
1001.0
997.0
999.0
1001.0
1001.0
997.0
992.0
989.0
984.0
981.0
981.0
981.0
984.0
985.0
981.0
978.0
974.0
972.0
972.0
971.0
964.0
957.0
950.0
947.0
947.0
946.0
942.0
932.0
924.0
920.0
920.0
917.0
914.0
911.0
908.0
909.0
909.0
906.0
898.0
896.0
893.0
898.0
903.0
903.0
902.0
898.0
895.0
899.0
898.0
895.0
890.0
890.0
891.0
893.0
892.0
888.0
887.0
886.0
884.0
888.0
890.0
893.0
887.0
884.0
878.0
879.0
881.0
891.0
895.0
895.0
886.0
884.0
883.0
883.0
889.0
887.0
885.0
881.0
883.0
883.0
883.0
881.0
881.0
885.0
891.0
891.0
886.0
881.0
882.0
886.0
885.0
886.0
884.0
882.0
879.0
881.0
890.0
892.0
889.0
884.0
882.0
884.0
889.0
890.0
892.0
890.0
886.0
888.0
891.0
894.0
894.0
893.0
893.0
897.0
899.0
901.0
899.0
903.0
906.0
908.0
914.0
925.0
938.0
966.0
1036.0
1157.0
1284.0
1347.0
1333.0
1294.0
1258.0
1248.0
1242.0
1229.0
1209.0
1190.0
1173.0
1155.0
1140.0
1124.0
1106.0
1083.0
1060.0
1042.0
1030.0
1012.0
984.0
954.0
918.0
882.0
846.0
814.0
783.0
752.0
716.0
682.0
645.0
617.0
601.0
589.0
579.0
576.0
576.0
570.0
557.0
544.0
534.0
531.0
530.0
523.0
516.0
515.0
532.0
565.0
597.0
624.0
655.0
689.0
717.0
737.0
748.0
756.0
763.0
771.0
782.0
796.0
813.0
818.0
821.0
824.0
829.0
842.0
849.0
855.0
862.0
873.0
883.0
894.0
899.0
908.0
921.0
937.0
950.0
956.0
961.0
972.0
979.0
989.0
999.0
1015.0
1030.0
1031.0
1025.0
1019.0
1025.0
1032.0
1039.0
1042.0
1045.0
1048.0
1056.0
1068.0
1071.0
1066.0
1064.0
1072.0
1084.0
1094.0
1098.0
1095.0
1099.0
1106.0
1114.0
1124.0
1130.0
1137.0
1141.0
1142.0
1144.0
1149.0
1156.0
1164.0
1169.0
1173.0
1173.0
1180.0
1193.0
1202.0
1203.0
1199.0
1196.0
1207.0
1219.0
1222.0
1222.0
1222.0
1219.0
1220.0
1223.0
1230.0
1238.0
1241.0
1238.0
1234.0
1235.0
1234.0
1226.0
1221.0
1219.0
1221.0
1219.0
1213.0
1207.0
1193.0
1180.0
1169.0
1161.0
1154.0
1144.0
1135.0
1123.0
1118.0
1114.0
1109.0
1095.0
1084.0
1070.0
1056.0
1049.0
1036.0
1020.0
1009.0
994.0
983.0
978.0
975.0
965.0
955.0
945.0
940.0
937.0
934.0
928.0
920.0
908.0
910.0
910.0
913.0
910.0
905.0
899.0
897.0
899.0
897.0
891.0
890.0
892.0
903.0
902.0
899.0
894.0
890.0
893.0
898.0
898.0
895.0
890.0
885.0
883.0
887.0
893.0
889.0
887.0
883.0
885.0
889.0
888.0
885.0
889.0
892.0
894.0
896.0
892.0
892.0
895.0
896.0
891.0
887.0
886.0
893.0
893.0
891.0
889.0
891.0
894.0
895.0
891.0
888.0
889.0
892.0
898.0
894.0
896.0
895.0
894.0
895.0
896.0
896.0
894.0
895.0
894.0
898.0
899.0
899.0
898.0
898.0
895.0
894.0
899.0
902.0
906.0
906.0
899.0
896.0
901.0
906.0
909.0
907.0
905.0
905.0
905.0
907.0
907.0
908.0
909.0
906.0
904.0
904.0
905.0
910.0
913.0
911.0
910.0
910.0
907.0
909.0
907.0
912.0
915.0
916.0
912.0
910.0
911.0
912.0
916.0
918.0
918.0
916.0
914.0
917.0
918.0
921.0
922.0
921.0
918.0
919.0
919.0
919.0
920.0
920.0
925.0
926.0
929.0
929.0
928.0
929.0
932.0
939.0
945.0
952.0
962.0
982.0
1038.0
1143.0
1266.0
1359.0
1379.0
1347.0
1305.0
1284.0
1275.0
1263.0
1243.0
1220.0
1199.0
1182.0
1166.0
1146.0
1125.0
1102.0
1080.0
1058.0
1030.0
999.0
965.0
931.0
891.0
858.0
820.0
778.0
733.0
696.0
663.0
632.0
602.0
579.0
561.0
550.0
539.0
536.0
535.0
529.0
518.0
505.0
494.0
491.0
486.0
479.0
476.0
475.0
482.0
513.0
548.0
585.0
624.0
659.0
692.0
717.0
735.0
741.0
753.0
763.0
772.0
788.0
802.0
815.0
823.0
830.0
835.0
844.0
850.0
860.0
868.0
881.0
894.0
905.0
917.0
926.0
933.0
946.0
958.0
975.0
990.0
1006.0
1017.0
1029.0
1040.0
1054.0
1066.0
1077.0
1084.0
1093.0
1098.0
1107.0
1115.0
1122.0
1126.0
1132.0
1145.0
1156.0
1162.0
1165.0
1162.0
1164.0
1162.0
1168.0
1174.0
1179.0
1185.0
1186.0
1188.0
1193.0
1199.0
1203.0
1206.0
1206.0
1207.0
1210.0
1212.0
1216.0
1215.0
1214.0
1216.0
1218.0
1219.0
1220.0
1220.0
1221.0
1219.0
1222.0
1224.0
1224.0
1222.0
1219.0
1216.0
1215.0
1214.0
1215.0
1209.0
1203.0
1198.0
1195.0
1190.0
1186.0
1177.0
1170.0
1159.0
1153.0
1145.0
1137.0
1126.0
1113.0
1103.0
1093.0
1084.0
1077.0
1067.0
1053.0
1043.0
1032.0
1027.0
1019.0
1009.0
998.0
988.0
981.0
976.0
969.0
956.0
949.0
942.0
939.0
937.0
932.0
930.0
922.0
919.0
915.0
913.0
909.0
904.0
903.0
899.0
898.0
899.0
899.0
894.0
892.0
889.0
890.0
890.0
892.0
890.0
884.0
883.0
884.0
885.0
886.0
887.0
884.0
885.0
886.0
887.0
889.0
888.0
887.0
885.0
885.0
888.0
888.0
885.0
886.0
888.0
890.0
893.0
896.0
896.0
893.0
893.0
898.0
897.0
900.0
900.0
899.0
896.0
901.0
904.0
904.0
906.0
906.0
905.0
907.0
909.0
910.0
909.0
908.0
907.0
910.0
911.0
913.0
909.0
906.0
904.0
910.0
910.0
909.0
909.0
905.0
908.0
912.0
911.0
911.0
912.0
909.0
910.0
911.0
912.0
913.0
912.0
913.0
912.0
915.0
915.0
916.0
914.0
915.0
916.0
916.0
918.0
921.0
921.0
919.0
917.0
920.0
917.0
923.0
920.0
919.0
920.0
922.0
925.0
924.0
924.0
921.0
923.0
925.0
926.0
926.0
927.0
927.0
924.0
926.0
930.0
931.0
931.0
931.0
930.0
932.0
933.0
931.0
932.0
933.0
932.0
932.0
939.0
939.0
941.0
945.0
946.0
951.0
958.0
967.0
983.0
1025.0
1113.0
1240.0
1349.0
1382.0
1353.0
1312.0
1290.0
1282.0
1271.0
1253.0
1234.0
1213.0
1193.0
1174.0
1158.0
1134.0
1113.0
1093.0
1064.0
1042.0
1013.0
984.0
948.0
911.0
866.0
824.0
780.0
736.0
700.0
669.0
637.0
611.0
595.0
583.0
575.0
573.0
568.0
564.0
554.0
545.0
532.0
521.0
509.0
506.0
506.0
511.0
529.0
558.0
600.0
642.0
685.0
727.0
759.0
788.0
807.0
825.0
836.0
849.0
859.0
869.0
879.0
890.0
894.0
894.0
888.0
886.0
890.0
894.0
902.0
911.0
915.0
920.0
925.0
934.0
945.0
957.0
970.0
985.0
994.0
999.0
1005.0
1018.0
1026.0
1035.0
1038.0
1042.0
1047.0
1049.0
1051.0
1053.0
1055.0
1058.0
1065.0
1067.0
1072.0
1073.0
1076.0
1080.0
1086.0
1088.0
1092.0
1093.0
1100.0
1107.0
1113.0
1117.0
1120.0
1122.0
1129.0
1135.0
1145.0
1148.0
1152.0
1156.0
1163.0
1171.0
1178.0
1182.0
1186.0
1189.0
1193.0
1202.0
1204.0
1210.0
1213.0
1216.0
1218.0
1222.0
1224.0
1225.0
1225.0
1224.0
1222.0
1219.0
1220.0
1215.0
1213.0
1205.0
1201.0
1197.0
1195.0
1188.0
1184.0
1174.0
1164.0
1157.0
1151.0
1146.0
1139.0
1129.0
1119.0
1109.0
1100.0
1092.0
1082.0
1073.0
1063.0
1056.0
1049.0
1042.0
1033.0
1023.0
1016.0
1010.0
1005.0
998.0
991.0
986.0
977.0
975.0
975.0
973.0
968.0
964.0
960.0
958.0
956.0
953.0
950.0
947.0
945.0
945.0
947.0
945.0
943.0
942.0
939.0
940.0
940.0
940.0
940.0
937.0
935.0
937.0
938.0
936.0
938.0
935.0
933.0
932.0
935.0
935.0
934.0
933.0
931.0
934.0
937.0
938.0
937.0
938.0
936.0
936.0
936.0
937.0
938.0
936.0
937.0
941.0
945.0
946.0
947.0
947.0
939.0
941.0
941.0
941.0
942.0
942.0
939.0
940.0
943.0
943.0
942.0
940.0
937.0
938.0
937.0
936.0
935.0
933.0
933.0
935.0
936.0
935.0
937.0
937.0
935.0
933.0
935.0
932.0
931.0
930.0
931.0
933.0
933.0
932.0
932.0
931.0
929.0
931.0
930.0
933.0
932.0
928.0
929.0
932.0
933.0
929.0
931.0
927.0
928.0
929.0
929.0
929.0
930.0
927.0
927.0
928.0
930.0
931.0
930.0
927.0
927.0
930.0
932.0
932.0
933.0
932.0
933.0
935.0
937.0
941.0
943.0
945.0
946.0
950.0
956.0
963.0
966.0
972.0
976.0
979.0
986.0
993.0
1000.0
1014.0
1028.0
1049.0
1083.0
1159.0
1278.0
1388.0
1438.0
1430.0
1406.0
1386.0
1374.0
1356.0
1338.0
1316.0
1295.0
1275.0
1250.0
1227.0
1201.0
1173.0
1141.0
1106.0
1070.0
1034.0
994.0
955.0
919.0
872.0
826.0
779.0
735.0
698.0
664.0
627.0
598.0
573.0
557.0
553.0
552.0
547.0
535.0
521.0
508.0
501.0
499.0
493.0
484.0
478.0
480.0
500.0
531.0
578.0
618.0
656.0
691.0
722.0
746.0
763.0
775.0
786.0
793.0
806.0
817.0
823.0
828.0
827.0
825.0
829.0
834.0
843.0
854.0
866.0
872.0
885.0
894.0
900.0
911.0
921.0
935.0
947.0
962.0
972.0
980.0
985.0
994.0
1003.0
1011.0
1014.0
1014.0
1019.0
1021.0
1024.0
1032.0
1036.0
1043.0
1045.0
1048.0
1057.0
1061.0
1066.0
1069.0
1075.0
1082.0
1088.0
1096.0
1102.0
1108.0
1114.0
1120.0
1128.0
1135.0
1142.0
1148.0
1155.0
1162.0
1170.0
1178.0
1186.0
1188.0
1194.0
1197.0
1204.0
1212.0
1215.0
1218.0
1219.0
1221.0
1226.0
1228.0
1228.0
1228.0
1224.0
1224.0
1222.0
1222.0
1219.0
1215.0
1207.0
1203.0
1197.0
1193.0
1186.0
1177.0
1169.0
1161.0
1154.0
1149.0
1141.0
1129.0
1117.0
1108.0
1099.0
1095.0
1083.0
1073.0
1063.0
1053.0
1047.0
1039.0
1031.0
1023.0
1013.0
1004.0
999.0
995.0
988.0
979.0
973.0
967.0
964.0
963.0
960.0
956.0
955.0
948.0
949.0
947.0
947.0
943.0
941.0
939.0
939.0
940.0
937.0
935.0
934.0
932.0
934.0
933.0
933.0
935.0
934.0
932.0
935.0
935.0
936.0
933.0
931.0
932.0
934.0
936.0
935.0
932.0
932.0
934.0
939.0
942.0
940.0
938.0
936.0
935.0
939.0
939.0
942.0
943.0
939.0
939.0
941.0
945.0
945.0
943.0
945.0
942.0
946.0
946.0
946.0
945.0
941.0
941.0
944.0
944.0
946.0
944.0
943.0
942.0
946.0
946.0
947.0
947.0
948.0
947.0
951.0
953.0
953.0
957.0
962.0
968.0
972.0
981.0
986.0
986.0
987.0
992.0
1005.0
1015.0
1020.0
1019.0
1014.0
1007.0
1004.0
1004.0
1003.0
1002.0
999.0
997.0
998.0
1000.0
1001.0
998.0
994.0
988.0
983.0
980.0
971.0
970.0
962.0
960.0
959.0
957.0
950.0
946.0
945.0
945.0
944.0
945.0
940.0
938.0
936.0
933.0
936.0
937.0
939.0
940.0
938.0
938.0
940.0
947.0
953.0
960.0
970.0
992.0
1049.0
1160.0
1287.0
1414.0
1451.0
1424.0
1394.0
1374.0
1361.0
1341.0
1317.0
1290.0
1269.0
1249.0
1229.0
1203.0
1174.0
1146.0
1123.0
1095.0
1068.0
1030.0
991.0
942.0
893.0
846.0
803.0
764.0
723.0
686.0
657.0
637.0
622.0
613.0
607.0
604.0
601.0
587.0
572.0
558.0
550.0
543.0
538.0
535.0
536.0
553.0
580.0
617.0
653.0
686.0
720.0
752.0
774.0
787.0
803.0
813.0
824.0
835.0
845.0
856.0
864.0
870.0
877.0
883.0
895.0
905.0
918.0
929.0
937.0
948.0
956.0
967.0
983.0
997.0
1011.0
1023.0
1035.0
1047.0
1063.0
1072.0
1079.0
1084.0
1085.0
1087.0
1093.0
1100.0
1104.0
1107.0
1111.0
1112.0
1117.0
1124.0
1129.0
1133.0
1137.0
1142.0
1147.0
1156.0
1163.0
1166.0
1170.0
1176.0
1183.0
1191.0
1195.0
1203.0
1205.0
1209.0
1218.0
1228.0
1232.0
1237.0
1242.0
1244.0
1252.0
1258.0
1262.0
1265.0
1265.0
1268.0
1272.0
1275.0
1274.0
1273.0
1272.0
1268.0
1266.0
1264.0
1262.0
1260.0
1254.0
1247.0
1244.0
1239.0
1231.0
1221.0
1214.0
1205.0
1201.0
1196.0
1187.0
1176.0
1166.0
1158.0
1151.0
1148.0
1135.0
1124.0
1112.0
1103.0
1096.0
1088.0
1080.0
1068.0
1060.0
1050.0
1044.0
1040.0
1031.0
1024.0
1016.0
1011.0
1006.0
1002.0
1001.0
996.0
992.0
989.0
990.0
988.0
986.0
984.0
978.0
974.0
974.0
975.0
975.0
973.0
968.0
965.0
967.0
969.0
972.0
969.0
968.0
968.0
971.0
973.0
971.0
974.0
976.0
978.0
985.0
992.0
998.0
1003.0
1009.0
1014.0
1021.0
1024.0
1024.0
1027.0
1027.0
1033.0
1038.0
1039.0
1033.0
1027.0
1022.0
1020.0
1021.0
1026.0
1026.0
1024.0
1021.0
1018.0
1020.0
1021.0
1017.0
1012.0
1006.0
1003.0
1000.0
999.0
994.0
984.0
979.0
972.0
968.0
967.0
963.0
960.0
956.0
954.0
954.0
950.0
948.0
944.0
943.0
941.0
943.0
945.0
946.0
943.0
939.0
940.0
943.0
941.0
945.0
942.0
939.0
938.0
941.0
945.0
945.0
941.0
937.0
937.0
941.0
942.0
943.0
941.0
940.0
938.0
939.0
940.0
941.0
940.0
939.0
939.0
942.0
941.0
939.0
938.0
938.0
940.0
942.0
945.0
943.0
943.0
942.0
941.0
945.0
946.0
947.0
946.0
947.0
948.0
951.0
952.0
956.0
954.0
956.0
958.0
968.0
978.0
991.0
1022.0
1096.0
1223.0
1350.0
1452.0
1453.0
1419.0
1391.0
1382.0
1369.0
1355.0
1333.0
1311.0
1290.0
1272.0
1256.0
1237.0
1212.0
1188.0
1159.0
1128.0
1098.0
1068.0
1031.0
992.0
952.0
914.0
880.0
846.0
809.0
770.0
734.0
712.0
700.0
688.0
683.0
676.0
660.0
646.0
626.0
615.0
606.0
595.0
586.0
576.0
583.0
602.0
632.0
671.0
705.0
742.0
780.0
805.0
820.0
832.0
839.0
852.0
861.0
874.0
880.0
889.0
888.0
891.0
893.0
897.0
906.0
917.0
924.0
932.0
942.0
952.0
962.0
973.0
982.0
994.0
1011.0
1021.0
1033.0
1044.0
1054.0
1061.0
1068.0
1075.0
1077.0
1080.0
1081.0
1085.0
1089.0
1092.0
1095.0
1097.0
1099.0
1103.0
1109.0
1115.0
1119.0
1124.0
1125.0
1129.0
1133.0
1140.0
1147.0
1153.0
1157.0
1161.0
1166.0
1171.0
1176.0
1181.0
1187.0
1194.0
1200.0
1208.0
1211.0
1215.0
1220.0
1223.0
1227.0
1231.0
1236.0
1238.0
1237.0
1239.0
1244.0
1248.0
1246.0
1242.0
1240.0
1239.0
1238.0
1235.0
1233.0
1228.0
1223.0
1218.0
1216.0
1211.0
1205.0
1199.0
1191.0
1181.0
1179.0
1175.0
1171.0
1165.0
1160.0
1154.0
1151.0
1153.0
1151.0
1146.0
1139.0
1135.0
1132.0
1128.0
1122.0
1119.0
1117.0
1109.0
1098.0
1089.0
1078.0
1068.0
1061.0
1055.0
1055.0
1054.0
1048.0
1044.0
1038.0
1030.0
1028.0
1027.0
1020.0
1014.0
1005.0
999.0
993.0
988.0
982.0
978.0
970.0
966.0
962.0
960.0
956.0
954.0
950.0
945.0
944.0
945.0
940.0
936.0
933.0
932.0
935.0
934.0
933.0
930.0
928.0
927.0
929.0
930.0
927.0
928.0
928.0
926.0
930.0
931.0
930.0
928.0
927.0
926.0
930.0
931.0
931.0
930.0
929.0
925.0
928.0
928.0
928.0
928.0
926.0
926.0
927.0
928.0
927.0
924.0
923.0
924.0
926.0
926.0
924.0
923.0
922.0
921.0
924.0
925.0
926.0
923.0
922.0
923.0
924.0
927.0
925.0
926.0
924.0
923.0
925.0
928.0
928.0
927.0
927.0
925.0
926.0
930.0
928.0
930.0
927.0
928.0
929.0
931.0
933.0
931.0
927.0
927.0
931.0
934.0
933.0
932.0
933.0
930.0
931.0
934.0
935.0
935.0
935.0
933.0
937.0
938.0
940.0
939.0
938.0
939.0
938.0
944.0
942.0
943.0
941.0
941.0
947.0
949.0
949.0
949.0
949.0
953.0
958.0
963.0
970.0
980.0
998.0
1049.0
1150.0
1277.0
1404.0
1455.0
1432.0
1400.0
1382.0
1372.0
1357.0
1338.0
1312.0
1287.0
1267.0
1247.0
1223.0
1196.0
1165.0
1131.0
1096.0
1063.0
1025.0
980.0
933.0
888.0
846.0
804.0
763.0
726.0
691.0
658.0
638.0
626.0
617.0
609.0
599.0
589.0
575.0
560.0
545.0
535.0
526.0
519.0
523.0
543.0
575.0
615.0
655.0
702.0
742.0
771.0
786.0
796.0
806.0
819.0
832.0
847.0
856.0
861.0
868.0
871.0
874.0
882.0
892.0
901.0
911.0
920.0
932.0
943.0
952.0
966.0
978.0
992.0
1006.0
1019.0
1030.0
1040.0
1050.0
1054.0
1063.0
1069.0
1072.0
1076.0
1079.0
1080.0
1087.0
1093.0
1097.0
1099.0
1102.0
1107.0
1117.0
1125.0
1133.0
1139.0
1145.0
1155.0
1165.0
1181.0
1194.0
1201.0
1208.0
1219.0
1227.0
1236.0
1243.0
1249.0
1259.0
1266.0
1274.0
1277.0
1281.0
1278.0
1278.0
1281.0
1287.0
1291.0
1295.0
1295.0
1295.0
1292.0
1292.0
1291.0
1287.0
1281.0
1272.0
1266.0
1261.0
1253.0
1245.0
1235.0
1227.0
1217.0
1210.0
1198.0
1190.0
1180.0
1167.0
1155.0
1146.0
1137.0
1125.0
1112.0
1102.0
1091.0
1084.0
1075.0
1065.0
1056.0
1045.0
1035.0
1027.0
1019.0
1013.0
1004.0
996.0
987.0
982.0
977.0
970.0
962.0
959.0
954.0
948.0
950.0
945.0
942.0
938.0
932.0
932.0
931.0
927.0
925.0
920.0
920.0
921.0
923.0
920.0
916.0
913.0
912.0
913.0
914.0
913.0
907.0
906.0
906.0
907.0
909.0
909.0
906.0
905.0
904.0
907.0
906.0
905.0
905.0
905.0
904.0
907.0
908.0
908.0
909.0
906.0
904.0
907.0
911.0
909.0
909.0
909.0
910.0
912.0
915.0
917.0
913.0
912.0
914.0
916.0
919.0
919.0
919.0
917.0
918.0
920.0
923.0
921.0
922.0
920.0
918.0
922.0
922.0
922.0
921.0
921.0
919.0
923.0
924.0
922.0
921.0
921.0
920.0
921.0
921.0
924.0
920.0
919.0
921.0
921.0
925.0
923.0
923.0
922.0
921.0
922.0
923.0
925.0
922.0
922.0
922.0
926.0
929.0
928.0
928.0
926.0
924.0
929.0
929.0
929.0
929.0
927.0
927.0
932.0
932.0
933.0
930.0
929.0
928.0
931.0
935.0
934.0
933.0
933.0
933.0
934.0
937.0
936.0
934.0
935.0
936.0
939.0
939.0
941.0
942.0
940.0
942.0
945.0
945.0
946.0
946.0
950.0
953.0
959.0
969.0
979.0
1000.0
1054.0
1166.0
1293.0
1414.0
1437.0
1410.0
1379.0
1358.0
1349.0
1334.0
1312.0
1285.0
1260.0
1238.0
1215.0
1198.0
1175.0
1146.0
1119.0
1086.0
1054.0
1022.0
982.0
939.0
894.0
845.0
796.0
757.0
717.0
680.0
648.0
621.0
605.0
596.0
587.0
583.0
574.0
557.0
543.0
535.0
527.0
514.0
503.0
495.0
499.0
513.0
544.0
584.0
630.0
677.0
725.0
759.0
778.0
795.0
808.0
830.0
852.0
874.0
887.0
902.0
912.0
919.0
930.0
943.0
957.0
966.0
976.0
983.0
994.0
1004.0
1011.0
1022.0
1034.0
1048.0
1062.0
1074.0
1081.0
1090.0
1098.0
1105.0
1113.0
1111.0
1107.0
1105.0
1103.0
1105.0
1107.0
1108.0
1107.0
1103.0
1100.0
1099.0
1102.0
1108.0
1110.0
1107.0
1109.0
1108.0
1116.0
1125.0
1132.0
1138.0
1140.0
1144.0
1151.0
1157.0
1161.0
1166.0
1174.0
1173.0
1181.0
1189.0
1193.0
1196.0
1198.0
1201.0
1210.0
1215.0
1215.0
1216.0
1218.0
1219.0
1220.0
1224.0
1222.0
1221.0
1216.0
1216.0
1214.0
1211.0
1208.0
1198.0
1195.0
1188.0
1184.0
1182.0
1176.0
1172.0
1164.0
1156.0
1148.0
1139.0
1132.0
1121.0
1115.0
1102.0
1093.0
1082.0
1067.0
1051.0
1039.0
1024.0
1020.0
1019.0
1018.0
1011.0
1007.0
1001.0
993.0
988.0
976.0
972.0
967.0
966.0
964.0
958.0
948.0
942.0
948.0
953.0
956.0
953.0
942.0
933.0
930.0
935.0
942.0
942.0
937.0
933.0
926.0
924.0
924.0
928.0
926.0
925.0
924.0
923.0
921.0
924.0
927.0
929.0
927.0
925.0
921.0
926.0
922.0
919.0
920.0
919.0
915.0
914.0
910.0
913.0
922.0
931.0
934.0
935.0
931.0
931.0
929.0
926.0
928.0
930.0
939.0
943.0
944.0
943.0
941.0
945.0
943.0
939.0
939.0
937.0
939.0
940.0
942.0
940.0
939.0
937.0
938.0
939.0
936.0
933.0
934.0
936.0
940.0
940.0
937.0
934.0
936.0
933.0
935.0
938.0
937.0
938.0
936.0
935.0
938.0
937.0
933.0
932.0
934.0
936.0
940.0
939.0
939.0
941.0
938.0
940.0
938.0
939.0
937.0
937.0
936.0
937.0
937.0
940.0
938.0
942.0
944.0
944.0
945.0
944.0
943.0
945.0
941.0
940.0
942.0
942.0
942.0
941.0
940.0
937.0
942.0
942.0
942.0
941.0
937.0
939.0
946.0
949.0
953.0
950.0
947.0
945.0
950.0
954.0
955.0
953.0
950.0
949.0
954.0
961.0
966.0
971.0
977.0
1002.0
1051.0
1147.0
1273.0
1386.0
1434.0
1429.0
1405.0
1388.0
1375.0
1363.0
1353.0
1342.0
1328.0
1315.0
1297.0
1279.0
1258.0
1239.0
1218.0
1201.0
1181.0
1156.0
1123.0
1085.0
1041.0
1000.0
946.0
895.0
847.0
803.0
767.0
736.0
704.0
679.0
653.0
636.0
628.0
621.0
610.0
597.0
579.0
564.0
551.0
542.0
526.0
511.0
503.0
507.0
521.0
550.0
592.0
634.0
668.0
705.0
733.0
750.0
765.0
775.0
783.0
798.0
815.0
827.0
835.0
844.0
844.0
847.0
850.0
856.0
863.0
870.0
879.0
889.0
899.0
914.0
917.0
927.0
936.0
950.0
965.0
982.0
992.0
1001.0
1007.0
1016.0
1025.0
1035.0
1035.0
1036.0
1035.0
1037.0
1042.0
1049.0
1056.0
1060.0
1058.0
1061.0
1063.0
1068.0
1071.0
1071.0
1075.0
1076.0
1083.0
1091.0
1096.0
1104.0
1104.0
1109.0
1115.0
1122.0
1127.0
1132.0
1137.0
1141.0
1148.0
1159.0
1167.0
1174.0
1176.0
1180.0
1187.0
1196.0
1198.0
1202.0
1207.0
1212.0
1217.0
1226.0
1226.0
1230.0
1230.0
1227.0
1227.0
1230.0
1230.0
1224.0
1222.0
1222.0
1222.0
1222.0
1219.0
1211.0
1207.0
1200.0
1196.0
1191.0
1184.0
1176.0
1169.0
1158.0
1155.0
1146.0
1135.0
1123.0
1115.0
1103.0
1098.0
1088.0
1079.0
1071.0
1062.0
1051.0
1046.0
1041.0
1031.0
1021.0
1010.0
1001.0
998.0
994.0
987.0
980.0
972.0
968.0
963.0
963.0
963.0
957.0
953.0
947.0
947.0
948.0
943.0
941.0
935.0
935.0
932.0
935.0
932.0
931.0
929.0
929.0
930.0
931.0
930.0
929.0
927.0
925.0
927.0
928.0
928.0
924.0
924.0
926.0
927.0
927.0
924.0
923.0
922.0
922.0
922.0
926.0
922.0
923.0
922.0
922.0
923.0
926.0
923.0
922.0
920.0
922.0
921.0
925.0
925.0
925.0
923.0
924.0
926.0
929.0
930.0
931.0
928.0
926.0
927.0
930.0
925.0
925.0
924.0
923.0
928.0
931.0
928.0
925.0
922.0
922.0
922.0
925.0
925.0
924.0
921.0
923.0
924.0
925.0
925.0
922.0
920.0
921.0
921.0
922.0
922.0
921.0
918.0
922.0
922.0
925.0
924.0
922.0
921.0
923.0
922.0
927.0
926.0
924.0
926.0
929.0
929.0
932.0
932.0
932.0
933.0
937.0
942.0
949.0
956.0
963.0
968.0
973.0
976.0
980.0
983.0
988.0
993.0
1001.0
1003.0
1001.0
997.0
992.0
990.0
988.0
989.0
988.0
988.0
987.0
989.0
987.0
989.0
991.0
986.0
979.0
975.0
974.0
972.0
973.0
974.0
966.0
963.0
954.0
952.0
955.0
959.0
977.0
1021.0
1112.0
1238.0
1355.0
1415.0
1414.0
1385.0
1362.0
1344.0
1331.0
1312.0
1293.0
1276.0
1260.0
1238.0
1219.0
1194.0
1169.0
1148.0
1126.0
1104.0
1084.0
1052.0
1020.0
987.0
957.0
926.0
894.0
852.0
808.0
766.0
733.0
703.0
674.0
641.0
623.0
607.0
598.0
593.0
591.0
585.0
571.0
547.0
532.0
522.0
517.0
506.0
496.0
490.0
494.0
511.0
540.0
578.0
612.0
643.0
680.0
717.0
743.0
757.0
766.0
772.0
778.0
786.0
794.0
799.0
804.0
806.0
806.0
811.0
816.0
822.0
831.0
841.0
855.0
866.0
877.0
886.0
893.0
905.0
915.0
929.0
943.0
956.0
968.0
978.0
992.0
1005.0
1013.0
1020.0
1023.0
1024.0
1026.0
1032.0
1037.0
1041.0
1046.0
1050.0
1054.0
1060.0
1066.0
1071.0
1077.0
1080.0
1086.0
1092.0
1095.0
1097.0
1101.0
1106.0
1112.0
1120.0
1130.0
1132.0
1135.0
1144.0
1149.0
1161.0
1167.0
1172.0
1177.0
1180.0
1185.0
1191.0
1199.0
1205.0
1208.0
1211.0
1214.0
1219.0
1224.0
1224.0
1226.0
1224.0
1227.0
1227.0
1225.0
1225.0
1222.0
1220.0
1215.0
1212.0
1209.0
1201.0
1196.0
1188.0
1184.0
1180.0
1173.0
1163.0
1153.0
1140.0
1131.0
1127.0
1117.0
1106.0
1097.0
1085.0
1079.0
