# Simple Text Format
# Sampling Rate (Hz):= 360.00
# Resolution:= 12
# Labels:= ECG
1005.0
999.0
997.0
995.0
998.0
996.0
992.0
993.0
993.0
998.0
998.0
995.0
992.0
991.0
989.0
991.0
991.0
989.0
985.0
983.0
984.0
989.0
988.0
987.0
984.0
984.0
982.0
985.0
985.0
982.0
974.0
977.0
977.0
979.0
979.0
975.0
974.0
974.0
976.0
977.0
978.0
973.0
969.0
967.0
969.0
971.0
971.0
970.0
967.0
968.0
968.0
971.0
972.0
970.0
971.0
968.0
970.0
974.0
972.0
973.0
968.0
968.0
967.0
969.0
970.0
964.0
961.0
960.0
961.0
965.0
965.0
963.0
962.0
957.0
957.0
962.0
962.0
959.0
959.0
956.0
957.0
953.0
954.0
954.0
952.0
948.0
951.0
956.0
958.0
957.0
952.0
950.0
953.0
956.0
957.0
956.0
956.0
956.0
958.0
960.0
959.0
961.0
960.0
958.0
962.0
962.0
963.0
962.0
960.0
959.0
959.0
962.0
964.0
964.0
960.0
959.0
961.0
964.0
967.0
964.0
962.0
965.0
966.0
971.0
972.0
970.0
971.0
972.0
976.0
989.0
1003.0
1040.0
1105.0
1204.0
1289.0
1310.0
1269.0
1213.0
1178.0
1161.0
1151.0
1135.0
1117.0
1096.0
1073.0
1049.0
1028.0
1008.0
986.0
961.0
934.0
911.0
888.0
864.0
841.0
812.0
788.0
767.0
751.0
736.0
723.0
710.0
700.0
692.0
690.0
691.0
691.0
690.0
694.0
699.0
708.0
720.0
735.0
753.0
771.0
790.0
814.0
832.0
845.0
852.0
853.0
862.0
872.0
886.0
899.0
907.0
915.0
926.0
939.0
952.0
962.0
975.0
981.0
984.0
992.0
1002.0
1007.0
1010.0
1011.0
1013.0
1018.0
1023.0
1025.0
1025.0
1027.0
1026.0
1029.0
1030.0
1037.0
1034.0
1035.0
1035.0
1037.0
1042.0
1042.0
1041.0
1037.0
1042.0
1046.0
1048.0
1048.0
1051.0
1055.0
1058.0
1064.0
1070.0
1076.0
1074.0
1078.0
1080.0
1084.0
1089.0
1095.0
1098.0
1100.0
1103.0
1110.0
1118.0
1124.0
1127.0
1130.0
1136.0
1143.0
1150.0
1156.0
1156.0
1157.0
1163.0
1173.0
1181.0
1184.0
1182.0
1182.0
1182.0
1186.0
1189.0
1190.0
1191.0
1189.0
1186.0
1187.0
1185.0
1180.0
1174.0
1165.0
1160.0
1158.0
1151.0
1147.0
1144.0
1134.0
1124.0
1118.0
1110.0
1101.0
1092.0
1081.0
1069.0
1061.0
1054.0
1046.0
1037.0
1028.0
1019.0
1017.0
1009.0
1006.0
999.0
989.0
986.0
982.0
983.0
983.0
979.0
975.0
973.0
974.0
975.0
973.0
970.0
966.0
964.0
961.0
963.0
964.0
964.0
958.0
958.0
960.0
958.0
958.0
954.0
954.0
954.0
953.0
958.0
955.0
955.0
952.0
953.0
956.0
959.0
961.0
962.0
958.0
955.0
955.0
952.0
952.0
951.0
951.0
952.0
957.0
961.0
960.0
951.0
941.0
939.0
941.0
944.0
947.0
947.0
946.0
947.0
948.0
949.0
948.0
945.0
940.0
935.0
938.0
941.0
946.0
945.0
941.0
941.0
943.0
944.0
943.0
937.0
936.0
937.0
938.0
942.0
942.0
941.0
939.0
938.0
941.0
941.0
943.0
942.0
938.0
936.0
937.0
940.0
940.0
940.0
937.0
935.0
936.0
941.0
941.0
940.0
935.0
938.0
937.0
939.0
937.0
936.0
931.0
932.0
934.0
939.0
942.0
940.0
938.0
939.0
944.0
947.0
951.0
946.0
943.0
938.0
944.0
949.0
955.0
957.0
954.0
951.0
949.0
946.0
947.0
943.0
945.0
948.0
956.0
962.0
962.0
969.0
979.0
1007.0
1071.0
1167.0
1254.0
1284.0
1248.0
1199.0
1166.0
1154.0
1143.0
1125.0
1102.0
1084.0
1068.0
1053.0
1034.0
1009.0
989.0
962.0
942.0
922.0
899.0
873.0
843.0
819.0
799.0
780.0
762.0
743.0
731.0
717.0
706.0
698.0
693.0
686.0
679.0
679.0
684.0
693.0
693.0
700.0
702.0
714.0
731.0
753.0
775.0
797.0
813.0
831.0
834.0
837.0
839.0
845.0
850.0
858.0
867.0
878.0
892.0
900.0
911.0
922.0
937.0
949.0
960.0
966.0
967.0
970.0
977.0
982.0
990.0
991.0
988.0
991.0
996.0
1004.0
1008.0
1014.0
1013.0
1014.0
1017.0
1017.0
1017.0
1013.0
1011.0
1011.0
1019.0
1026.0
1035.0
1033.0
1030.0
1021.0
1020.0
1024.0
1027.0
1032.0
1034.0
1037.0
1038.0
1045.0
1047.0
1051.0
1052.0
1054.0
1059.0
1062.0
1068.0
1070.0
1072.0
1074.0
1078.0
1085.0
1088.0
1090.0
1095.0
1097.0
1104.0
1109.0
1118.0
1121.0
1119.0
1125.0
1132.0
1140.0
1144.0
1148.0
1149.0
1152.0
1154.0
1160.0
1163.0
1163.0
1162.0
1160.0
1165.0
1166.0
1165.0
1161.0
1156.0
1153.0
1148.0
1149.0
1149.0
1144.0
1136.0
1128.0
1120.0
1115.0
1109.0
1102.0
1091.0
1080.0
1068.0
1061.0
1054.0
1043.0
1035.0
1026.0
1021.0
1014.0
1001.0
989.0
980.0
977.0
975.0
972.0
972.0
968.0
963.0
959.0
959.0
959.0
955.0
954.0
952.0
948.0
947.0
951.0
951.0
948.0
945.0
944.0
945.0
947.0
952.0
950.0
945.0
945.0
948.0
951.0
949.0
948.0
946.0
946.0
941.0
947.0
946.0
945.0
943.0
944.0
946.0
950.0
947.0
948.0
945.0
940.0
944.0
947.0
947.0
944.0
941.0
941.0
945.0
949.0
949.0
945.0
942.0
939.0
937.0
939.0
944.0
944.0
942.0
939.0
939.0
943.0
945.0
943.0
942.0
942.0
943.0
945.0
947.0
944.0
942.0
943.0
947.0
954.0
951.0
943.0
929.0
923.0
930.0
938.0
935.0
934.0
927.0
925.0
928.0
934.0
935.0
937.0
937.0
937.0
941.0
942.0
944.0
941.0
943.0
943.0
942.0
940.0
944.0
943.0
940.0
935.0
939.0
942.0
942.0
940.0
935.0
938.0
939.0
942.0
941.0
939.0
937.0
933.0
936.0
939.0
939.0
936.0
933.0
932.0
936.0
939.0
938.0
939.0
936.0
939.0
942.0
944.0
946.0
945.0
943.0
943.0
945.0
947.0
951.0
952.0
951.0
954.0
960.0
968.0
986.0
1007.0
1047.0
1122.0
1214.0
1279.0
1285.0
1242.0
1197.0
1171.0
1155.0
1145.0
1129.0
1110.0
1088.0
1065.0
1046.0
1025.0
1005.0
980.0
955.0
936.0
916.0
896.0
872.0
849.0
821.0
795.0
774.0
760.0
746.0
731.0
720.0
707.0
699.0
694.0
688.0
688.0
685.0
686.0
692.0
698.0
704.0
705.0
713.0
726.0
750.0
775.0
796.0
814.0
825.0
833.0
835.0
844.0
849.0
858.0
864.0
874.0
887.0
895.0
910.0
920.0
927.0
937.0
953.0
964.0
974.0
977.0
981.0
983.0
985.0
993.0
997.0
999.0
997.0
996.0
998.0
1000.0
1000.0
1003.0
1001.0
1002.0
1006.0
1014.0
1015.0
1016.0
1014.0
1014.0
1020.0
1023.0
1024.0
1023.0
1023.0
1022.0
1027.0
1033.0
1037.0
1035.0
1034.0
1036.0
1040.0
1046.0
1050.0
1051.0
1051.0
1053.0
1058.0
1064.0
1065.0
1070.0
1071.0
1077.0
1084.0
1088.0
1093.0
1096.0
1096.0
1100.0
1106.0
1112.0
1115.0
1119.0
1119.0
1122.0
1125.0
1132.0
1137.0
1141.0
1142.0
1147.0
1151.0
1156.0
1160.0
1157.0
1153.0
1152.0
1153.0
1153.0
1154.0
1146.0
1145.0
1141.0
1148.0
1148.0
1148.0
1142.0
1137.0
1134.0
1130.0
1127.0
1125.0
1119.0
1112.0
1104.0
1096.0
1089.0
1081.0
1071.0
1063.0
1055.0
1050.0
1047.0
1043.0
1034.0
1026.0
1017.0
1015.0
1010.0
1005.0
994.0
987.0
979.0
981.0
982.0
977.0
972.0
969.0
967.0
964.0
965.0
961.0
957.0
952.0
948.0
949.0
950.0
950.0
945.0
938.0
937.0
936.0
942.0
944.0
943.0
940.0
937.0
939.0
944.0
942.0
941.0
938.0
939.0
936.0
941.0
941.0
937.0
936.0
935.0
937.0
940.0
942.0
938.0
938.0
937.0
938.0
943.0
944.0
939.0
937.0
933.0
935.0
938.0
940.0
940.0
938.0
939.0
941.0
941.0
938.0
933.0
927.0
927.0
928.0
934.0
932.0
931.0
927.0
928.0
929.0
933.0
934.0
932.0
930.0
928.0
931.0
931.0
933.0
931.0
930.0
929.0
930.0
933.0
930.0
929.0
926.0
929.0
930.0
930.0
931.0
930.0
927.0
927.0
927.0
929.0
931.0
926.0
922.0
921.0
921.0
924.0
926.0
923.0
921.0
922.0
923.0
925.0
927.0
926.0
924.0
924.0
922.0
923.0
926.0
924.0
922.0
920.0
923.0
926.0
927.0
925.0
922.0
923.0
925.0
928.0
929.0
926.0
924.0
920.0
920.0
924.0
924.0
924.0
919.0
920.0
921.0
923.0
922.0
923.0
920.0
920.0
924.0
924.0
925.0
923.0
920.0
920.0
922.0
922.0
923.0
920.0
918.0
916.0
919.0
923.0
926.0
925.0
925.0
929.0
932.0
938.0
946.0
956.0
975.0
1019.0
1106.0
1211.0
1277.0
1264.0
1202.0
1146.0
1126.0
1116.0
1103.0
1079.0
1058.0
1040.0
1022.0
1001.0
984.0
959.0
939.0
917.0
899.0
879.0
856.0
832.0
805.0
780.0
758.0
743.0
728.0
713.0
698.0
686.0
677.0
672.0
668.0
665.0
665.0
661.0
668.0
676.0
681.0
687.0
691.0
699.0
709.0
729.0
752.0
773.0
795.0
808.0
816.0
817.0
820.0
819.0
818.0
829.0
844.0
859.0
869.0
873.0
876.0
886.0
898.0
913.0
924.0
930.0
935.0
941.0
948.0
955.0
958.0
961.0
959.0
962.0
966.0
970.0
972.0
973.0
971.0
968.0
969.0
975.0
975.0
974.0
968.0
972.0
974.0
977.0
981.0
982.0
979.0
982.0
986.0
989.0
988.0
989.0
988.0
989.0
995.0
998.0
1002.0
1006.0
1005.0
1007.0
1013.0
1021.0
1021.0
1028.0
1030.0
1033.0
1038.0
1044.0
1047.0
1051.0
1050.0
1056.0
1063.0
1070.0
1072.0
1077.0
1075.0
1081.0
1087.0
1095.0
1099.0
1102.0
1101.0
1100.0
1108.0
1113.0
1116.0
1118.0
1115.0
1116.0
1118.0
1122.0
1121.0
1119.0
1116.0
1115.0
1116.0
1118.0
1113.0
1108.0
1100.0
1094.0
1087.0
1084.0
1078.0
1070.0
1058.0
1052.0
1044.0
1038.0
1032.0
1020.0
1011.0
1004.0
999.0
996.0
987.0
980.0
974.0
966.0
965.0
963.0
956.0
950.0
946.0
941.0
936.0
936.0
934.0
929.0
923.0
922.0
922.0
922.0
924.0
922.0
914.0
912.0
912.0
914.0
917.0
916.0
913.0
914.0
917.0
920.0
919.0
917.0
913.0
911.0
915.0
914.0
917.0
914.0
909.0
912.0
911.0
912.0
913.0
913.0
911.0
912.0
915.0
916.0
918.0
914.0
914.0
913.0
915.0
916.0
917.0
914.0
911.0
908.0
910.0
913.0
911.0
910.0
907.0
907.0
908.0
910.0
908.0
905.0
900.0
898.0
901.0
903.0
907.0
906.0
904.0
904.0
905.0
908.0
909.0
907.0
905.0
902.0
901.0
904.0
904.0
902.0
900.0
901.0
902.0
905.0
906.0
904.0
900.0
902.0
903.0
906.0
906.0
904.0
901.0
900.0
905.0
906.0
907.0
905.0
901.0
900.0
903.0
906.0
909.0
907.0
903.0
902.0
908.0
906.0
905.0
908.0
904.0
899.0
902.0
904.0
904.0
905.0
904.0
902.0
908.0
910.0
909.0
908.0
906.0
903.0
908.0
912.0
911.0
911.0
911.0
908.0
909.0
913.0
914.0
912.0
908.0
910.0
914.0
920.0
922.0
922.0
920.0
923.0
927.0
931.0
936.0
937.0
947.0
966.0
1003.0
1078.0
1174.0
1247.0
1257.0
1212.0
1155.0
1123.0
1107.0
1093.0
1073.0
1052.0
1038.0
1021.0
1005.0
984.0
962.0
943.0
924.0
910.0
892.0
871.0
851.0
834.0
811.0
791.0
773.0
749.0
733.0
722.0
713.0
705.0
695.0
688.0
680.0
677.0
677.0
681.0
684.0
686.0
689.0
695.0
702.0
714.0
729.0
741.0
756.0
777.0
801.0
817.0
825.0
826.0
828.0
834.0
846.0
858.0
869.0
875.0
883.0
890.0
905.0
917.0
927.0
933.0
939.0
942.0
951.0
959.0
963.0
966.0
965.0
969.0
975.0
977.0
983.0
984.0
984.0
983.0
989.0
992.0
992.0
993.0
990.0
992.0
994.0
996.0
999.0
999.0
995.0
998.0
1005.0
1011.0
1013.0
1011.0
1012.0
1014.0
1018.0
1022.0
1027.0
1027.0
1027.0
1026.0
1031.0
1038.0
1041.0
1043.0
1040.0
1047.0
1053.0
1062.0
1063.0
1064.0
1066.0
1070.0
1080.0
1092.0
1096.0
1098.0
1104.0
1110.0
1117.0
1126.0
1131.0
1133.0
1133.0
1137.0
1144.0
1148.0
1152.0
1151.0
1151.0
1152.0
1156.0
1157.0
1154.0
1151.0
1148.0
1142.0
1137.0
1136.0
1129.0
1121.0
1110.0
1103.0
1097.0
1090.0
1082.0
1071.0
1060.0
1047.0
1043.0
1034.0
1027.0
1016.0
1006.0
998.0
994.0
988.0
984.0
975.0
967.0
961.0
958.0
959.0
955.0
949.0
946.0
943.0
942.0
942.0
943.0
941.0
940.0
938.0
939.0
939.0
940.0
939.0
937.0
936.0
937.0
940.0
940.0
938.0
934.0
934.0
936.0
938.0
938.0
939.0
936.0
937.0
940.0
944.0
940.0
937.0
933.0
933.0
938.0
939.0
939.0
938.0
932.0
930.0
933.0
935.0
937.0
935.0
933.0
930.0
930.0
933.0
934.0
931.0
928.0
928.0
931.0
934.0
933.0
933.0
928.0
932.0
933.0
934.0
932.0
931.0
930.0
927.0
929.0
930.0
930.0
927.0
922.0
924.0
923.0
925.0
925.0
924.0
921.0
924.0
925.0
928.0
928.0
925.0
923.0
919.0
925.0
925.0
927.0
925.0
922.0
922.0
920.0
926.0
923.0
923.0
922.0
922.0
922.0
926.0
926.0
922.0
921.0
919.0
922.0
926.0
927.0
922.0
922.0
922.0
926.0
929.0
931.0
927.0
925.0
924.0
929.0
931.0
931.0
930.0
926.0
926.0
927.0
928.0
929.0
929.0
927.0
925.0
931.0
931.0
935.0
936.0
934.0
936.0
937.0
946.0
951.0
964.0
981.0
1025.0
1107.0
1213.0
1287.0
1288.0
1234.0
1174.0
1141.0
1128.0
1118.0
1097.0
1076.0
1056.0
1038.0
1021.0
1004.0
983.0
964.0
941.0
924.0
907.0
886.0
866.0
841.0
817.0
794.0
776.0
765.0
750.0
737.0
727.0
720.0
714.0
711.0
706.0
701.0
705.0
707.0
713.0
720.0
725.0
734.0
747.0
766.0
788.0
809.0
826.0
833.0
838.0
842.0
851.0
860.0
869.0
877.0
880.0
894.0
907.0
920.0
927.0
932.0
942.0
953.0
960.0
965.0
972.0
973.0
975.0
979.0
986.0
990.0
990.0
989.0
991.0
996.0
999.0
1002.0
1002.0
1000.0
999.0
1006.0
1006.0
1006.0
1009.0
1006.0
1005.0
1012.0
1020.0
1021.0
1023.0
1023.0
1023.0
1028.0
1033.0
1037.0
1035.0
1037.0
1039.0
1045.0
1052.0
1055.0
1059.0
1060.0
1060.0
1064.0
1071.0
1075.0
1077.0
1080.0
1082.0
1089.0
1094.0
1099.0
1102.0
1103.0
1107.0
1113.0
1120.0
1124.0
1127.0
1125.0
1130.0
1138.0
1144.0
1148.0
1150.0
1150.0
1149.0
1154.0
1157.0
1158.0
1157.0
1152.0
1150.0
1146.0
1150.0
1143.0
1140.0
1131.0
1125.0
1121.0
1115.0
1109.0
1101.0
1090.0
1083.0
1078.0
1071.0
1066.0
1056.0
1047.0
1040.0
1036.0
1028.0
1026.0
1017.0
1006.0
999.0
997.0
996.0
991.0
985.0
979.0
975.0
972.0
974.0
971.0
966.0
964.0
962.0
961.0
962.0
960.0
956.0
952.0
953.0
954.0
959.0
960.0
959.0
958.0
956.0
956.0
959.0
958.0
955.0
955.0
954.0
955.0
960.0
960.0
957.0
954.0
958.0
959.0
961.0
962.0
958.0
959.0
955.0
957.0
962.0
961.0
959.0
956.0
955.0
958.0
961.0
957.0
955.0
950.0
951.0
953.0
952.0
954.0
952.0
947.0
947.0
948.0
949.0
947.0
948.0
945.0
944.0
948.0
953.0
954.0
949.0
949.0
950.0
950.0
950.0
950.0
952.0
946.0
945.0
948.0
950.0
951.0
948.0
946.0
946.0
951.0
955.0
954.0
954.0
950.0
951.0
952.0
957.0
957.0
955.0
950.0
952.0
953.0
955.0
954.0
955.0
950.0
949.0
951.0
955.0
955.0
952.0
950.0
949.0
949.0
951.0
949.0
947.0
947.0
950.0
953.0
956.0
960.0
958.0
957.0
957.0
960.0
964.0
962.0
961.0
960.0
960.0
963.0
966.0
965.0
962.0
959.0
960.0
963.0
966.0
967.0
968.0
967.0
968.0
972.0
975.0
983.0
990.0
1005.0
1038.0
1113.0
1211.0
1293.0
1309.0
1263.0
1202.0
1166.0
1154.0
1144.0
1123.0
1104.0
1089.0
1073.0
1058.0
1040.0
1018.0
997.0
978.0
962.0
943.0
924.0
898.0
874.0
853.0
830.0
812.0
795.0
780.0
765.0
752.0
741.0
737.0
732.0
725.0
719.0
722.0
728.0
735.0
739.0
744.0
751.0
765.0
785.0
808.0
829.0
843.0
853.0
861.0
863.0
868.0
874.0
883.0
887.0
898.0
911.0
924.0
934.0
940.0
948.0
960.0
970.0
983.0
989.0
996.0
996.0
999.0
1005.0
1008.0
1014.0
1014.0
1014.0
1015.0
1017.0
1022.0
1023.0
1024.0
1024.0
1026.0
1029.0
1034.0
1037.0
1038.0
1035.0
1035.0
1039.0
1044.0
1046.0
1046.0
1042.0
1048.0
1051.0
1055.0
1058.0
1059.0
1058.0
1062.0
1065.0
1072.0
1075.0
1076.0
1078.0
1081.0
1082.0
1088.0
1093.0
1093.0
1098.0
1101.0
1109.0
1115.0
1120.0
1125.0
1126.0
1131.0
1136.0
1139.0
1145.0
1147.0
1148.0
1154.0
1160.0
1167.0
1167.0
1168.0
1171.0
1171.0
1174.0
1177.0
1179.0
1172.0
1172.0
1164.0
1165.0
1164.0
1162.0
1156.0
1147.0
1142.0
1139.0
1136.0
1129.0
1120.0
1111.0
1104.0
1099.0
1095.0
1089.0
1080.0
1073.0
1066.0
1062.0
1058.0
1053.0
1042.0
1032.0
1029.0
1024.0
1022.0
1017.0
1010.0
1004.0
1002.0
1000.0
1000.0
996.0
991.0
985.0
982.0
986.0
986.0
983.0
980.0
978.0
975.0
976.0
980.0
979.0
977.0
975.0
971.0
972.0
976.0
978.0
977.0
974.0
976.0
974.0
973.0
977.0
977.0
973.0
972.0
975.0
980.0
980.0
979.0
977.0
975.0
977.0
981.0
981.0
979.0
975.0
976.0
978.0
981.0
979.0
977.0
975.0
973.0
974.0
976.0
975.0
967.0
967.0
967.0
969.0
972.0
971.0
972.0
968.0
967.0
970.0
969.0
971.0
968.0
963.0
964.0
966.0
968.0
968.0
968.0
968.0
966.0
968.0
969.0
971.0
965.0
965.0
964.0
964.0
968.0
971.0
970.0
966.0
965.0
966.0
970.0
970.0
967.0
967.0
964.0
968.0
972.0
967.0
969.0
963.0
964.0
966.0
972.0
972.0
967.0
965.0
964.0
966.0
970.0
970.0
968.0
964.0
967.0
970.0
970.0
974.0
973.0
969.0
971.0
972.0
976.0
975.0
973.0
971.0
970.0
971.0
977.0
978.0
975.0
973.0
977.0
978.0
982.0
984.0
984.0
987.0
989.0
1001.0
1029.0
1078.0
1163.0
1262.0
1320.0
1306.0
1246.0
1193.0
1166.0
1152.0
1133.0
1112.0
1092.0
1071.0
1051.0
1032.0
1008.0
992.0
974.0
950.0
925.0
900.0
875.0
851.0
828.0
808.0
788.0
774.0
762.0
753.0
745.0
741.0
733.0
728.0
727.0
733.0
741.0
747.0
753.0
760.0
775.0
803.0
827.0
847.0
862.0
865.0
869.0
874.0
880.0
892.0
900.0
910.0
919.0
932.0
945.0
956.0
964.0
971.0
981.0
991.0
1000.0
1007.0
1009.0
1011.0
1013.0
1021.0
1025.0
1027.0
1028.0
1027.0
1024.0
1028.0
1032.0
1034.0
1032.0
1033.0
1032.0
1035.0
1041.0
1042.0
1042.0
1039.0
1042.0
1045.0
1052.0
1054.0
1056.0
1053.0
1051.0
1055.0
1058.0
1063.0
1065.0
1067.0
1070.0
1074.0
1081.0
1085.0
1086.0
1088.0
1089.0
1097.0
1105.0
1111.0
1114.0
1115.0
1121.0
1129.0
1138.0
1142.0
1146.0
1152.0
1156.0
1162.0
1167.0
1169.0
1168.0
1170.0
1169.0
1172.0
1173.0
1176.0
1176.0
1173.0
1171.0
1171.0
1174.0
1171.0
1168.0
1160.0
1156.0
1154.0
1151.0
1145.0
1138.0
1126.0
1118.0
1112.0
1108.0
1101.0
1092.0
1083.0
1074.0
1070.0
1065.0
1059.0
1050.0
1042.0
1036.0
1033.0
1029.0
1026.0
1018.0
1012.0
1007.0
1005.0
1005.0
1004.0
1000.0
999.0
995.0
993.0
993.0
990.0
989.0
987.0
986.0
985.0
987.0
984.0
984.0
976.0
979.0
981.0
983.0
981.0
980.0
976.0
976.0
977.0
979.0
981.0
981.0
977.0
978.0
980.0
982.0
982.0
981.0
976.0
974.0
975.0
974.0
973.0
973.0
971.0
971.0
971.0
972.0
971.0
971.0
968.0
968.0
969.0
971.0
972.0
972.0
969.0
967.0
969.0
972.0
972.0
971.0
969.0
969.0
968.0
968.0
965.0
965.0
962.0
963.0
962.0
966.0
962.0
963.0
962.0
962.0
966.0
969.0
968.0
967.0
965.0
964.0
964.0
968.0
968.0
963.0
965.0
964.0
964.0
969.0
967.0
964.0
962.0
962.0
966.0
969.0
966.0
964.0
964.0
960.0
963.0
965.0
966.0
966.0
963.0
962.0
963.0
964.0
966.0
967.0
963.0
964.0
966.0
971.0
969.0
967.0
963.0
964.0
962.0
967.0
966.0
966.0
964.0
965.0
969.0
974.0
973.0
972.0
967.0
967.0
972.0
973.0
973.0
972.0
971.0
970.0
974.0
980.0
979.0
981.0
984.0
985.0
994.0
1013.0
1047.0
1111.0
1200.0
1285.0
1324.0
1301.0
1243.0
1195.0
1167.0
1154.0
1138.0
1125.0
1106.0
1082.0
1062.0
1043.0
1026.0
1007.0
988.0
965.0
940.0
916.0
894.0
876.0
857.0
832.0
808.0
795.0
783.0
772.0
763.0
749.0
740.0
732.0
730.0
729.0
727.0
727.0
730.0
736.0
742.0
753.0
767.0
781.0
797.0
813.0
835.0
852.0
863.0
865.0
866.0
875.0
882.0
900.0
910.0
920.0
927.0
940.0
953.0
968.0
976.0
983.0
989.0
997.0
1006.0
1010.0
1014.0
1015.0
1012.0
1016.0
1022.0
1025.0
1028.0
1027.0
1025.0
1024.0
1029.0
1033.0
1033.0
1036.0
1034.0
1038.0
1041.0
1045.0
1048.0
1046.0
1047.0
1048.0
1051.0
1055.0
1056.0
1055.0
1054.0
1057.0
1060.0
1064.0
1067.0
1067.0
1067.0
1072.0
1075.0
1081.0
1085.0
1089.0
1091.0
1096.0
1104.0
1109.0
1112.0
1119.0
1124.0
1129.0
1136.0
1144.0
1150.0
1155.0
1155.0
1159.0
1167.0
1171.0
1178.0
1179.0
1182.0
1184.0
1185.0
1191.0
1192.0
1190.0
1189.0
1188.0
1191.0
1193.0
1189.0
1183.0
1178.0
1172.0
1165.0
1163.0
1155.0
1146.0
1136.0
1126.0
1120.0
1115.0
1106.0
1095.0
1080.0
1071.0
1069.0
1064.0
1059.0
1050.0
1040.0
1031.0
1028.0
1025.0
1021.0
1016.0
1010.0
1004.0
1001.0
1001.0
998.0
994.0
988.0
986.0
985.0
983.0
979.0
974.0
973.0
974.0
975.0
976.0
977.0
976.0
971.0
968.0
970.0
971.0
972.0
968.0
967.0
965.0
965.0
967.0
967.0
967.0
963.0
966.0
965.0
971.0
970.0
970.0
969.0
970.0
973.0
976.0
978.0
975.0
972.0
972.0
971.0
972.0
970.0
971.0
966.0
963.0
966.0
970.0
971.0
968.0
962.0
962.0
964.0
968.0
969.0
966.0
965.0
963.0
965.0
966.0
965.0
963.0
962.0
960.0
962.0
962.0
963.0
960.0
956.0
957.0
956.0
959.0
957.0
959.0
958.0
958.0
961.0
963.0
965.0
963.0
960.0
960.0
962.0
967.0
967.0
966.0
961.0
961.0
965.0
965.0
967.0
965.0
962.0
963.0
965.0
964.0
965.0
963.0
962.0
962.0
963.0
965.0
964.0
967.0
963.0
962.0
963.0
968.0
965.0
963.0
961.0
958.0
963.0
964.0
963.0
960.0
958.0
960.0
961.0
965.0
969.0
970.0
969.0
970.0
973.0
977.0
977.0
980.0
978.0
981.0
987.0
995.0
1009.0
1035.0
1089.0
1178.0
1270.0
1319.0
1302.0
1246.0
1201.0
1176.0
1165.0
1154.0
1137.0
1115.0
1096.0
1080.0
1065.0
1049.0
1030.0
1011.0
992.0
975.0
959.0
938.0
915.0
888.0
862.0
838.0
816.0
799.0
785.0
766.0
754.0
741.0
735.0
727.0
721.0
717.0
715.0
714.0
721.0
728.0
732.0
733.0
738.0
745.0
759.0
780.0
797.0
814.0
830.0
842.0
854.0
861.0
862.0
865.0
871.0
881.0
894.0
903.0
917.0
923.0
927.0
938.0
951.0
962.0
972.0
980.0
982.0
988.0
997.0
1002.0
1009.0
1007.0
1009.0
1010.0
1013.0
1016.0
1018.0
1018.0
1018.0
1019.0
1020.0
1029.0
1033.0
1031.0
1029.0
1031.0
1031.0
1037.0
1037.0
1037.0
1036.0
1040.0
1044.0
1044.0
1046.0
1046.0
1043.0
1048.0
1055.0
1061.0
1061.0
1061.0
1058.0
1061.0
1066.0
1072.0
1074.0
1078.0
1078.0
1082.0
1085.0
1092.0
1096.0
1097.0
1100.0
1105.0
1110.0
1116.0
1121.0
1125.0
1127.0
1133.0
1138.0
1146.0
1149.0
1153.0
1154.0
1155.0
1162.0
1169.0
1172.0
1173.0
1176.0
1177.0
1183.0
1187.0
1189.0
1185.0
1179.0
1180.0
1183.0
1182.0
1179.0
1172.0
1167.0
1160.0
1156.0
1153.0
1146.0
1133.0
1125.0
1117.0
1109.0
1104.0
1095.0
1086.0
1074.0
1064.0
1060.0
1055.0
1050.0
1040.0
1032.0
1025.0
1020.0
1019.0
1015.0
1007.0
1002.0
994.0
995.0
993.0
992.0
987.0
980.0
979.0
976.0
976.0
975.0
973.0
970.0
970.0
972.0
975.0
973.0
973.0
971.0
970.0
970.0
975.0
978.0
975.0
972.0
973.0
977.0
975.0
977.0
974.0
977.0
975.0
976.0
978.0
978.0
978.0
973.0
972.0
972.0
974.0
971.0
969.0
969.0
966.0
967.0
969.0
971.0
968.0
965.0
964.0
965.0
966.0
966.0
966.0
962.0
959.0
962.0
964.0
964.0
958.0
959.0
959.0
961.0
965.0
966.0
966.0
962.0
964.0
966.0
967.0
965.0
965.0
962.0
962.0
962.0
963.0
965.0
964.0
963.0
966.0
969.0
969.0
968.0
966.0
962.0
961.0
961.0
961.0
963.0
959.0
958.0
961.0
963.0
967.0
965.0
967.0
964.0
963.0
965.0
968.0
964.0
962.0
961.0
958.0
962.0
963.0
966.0
965.0
964.0
962.0
965.0
967.0
970.0
966.0
963.0
965.0
967.0
969.0
970.0
969.0
966.0
968.0
967.0
969.0
971.0
971.0
966.0
964.0
966.0
969.0
972.0
970.0
966.0
968.0
969.0
972.0
972.0
971.0
969.0
970.0
972.0
977.0
985.0
993.0
1003.0
1038.0
1108.0
1199.0
1281.0
1311.0
1283.0
1229.0
1192.0
1175.0
1164.0
1146.0
1126.0
1109.0
1092.0
1077.0
1058.0
1036.0
1015.0
993.0
978.0
963.0
944.0
923.0
899.0
878.0
855.0
835.0
815.0
794.0
776.0
764.0
755.0
748.0
739.0
729.0
720.0
717.0
720.0
721.0
726.0
726.0
726.0
729.0
737.0
743.0
757.0
774.0
790.0
811.0
831.0
848.0
858.0
864.0
864.0
869.0
880.0
890.0
899.0
906.0
916.0
925.0
938.0
947.0
959.0
966.0
974.0
981.0
991.0
999.0
1005.0
1010.0
1011.0
1016.0
1020.0
1025.0
1027.0
1027.0
1027.0
1028.0
1033.0
1037.0
1034.0
1040.0
1038.0
1039.0
1041.0
1047.0
1048.0
1046.0
1044.0
1045.0
1048.0
1052.0
1051.0
1050.0
1045.0
1049.0
1054.0
1056.0
1060.0
1058.0
1060.0
1061.0
1069.0
1074.0
1077.0
1077.0
1075.0
1076.0
1081.0
1087.0
1091.0
1094.0
1094.0
1098.0
1101.0
1107.0
1109.0
1113.0
1113.0
1117.0
1123.0
1130.0
1134.0
1136.0
1139.0
1146.0
1150.0
1156.0
1161.0
1161.0
1164.0
1166.0
1167.0
1175.0
1179.0
1179.0
1180.0
1181.0
1182.0
1184.0
1184.0
1182.0
1180.0
1178.0
1173.0
1172.0
1167.0
1162.0
1156.0
1151.0
1145.0
1141.0
1140.0
1133.0
1121.0
1114.0
1107.0
1101.0
1091.0
1081.0
1072.0
1066.0
1062.0
1056.0
1050.0
1039.0
1034.0
1026.0
1023.0
1024.0
1019.0
1011.0
1006.0
1003.0
1002.0
1001.0
1000.0
996.0
992.0
988.0
989.0
990.0
989.0
984.0
981.0
984.0
985.0
989.0
990.0
984.0
981.0
978.0
982.0
985.0
984.0
981.0
978.0
981.0
982.0
989.0
987.0
986.0
984.0
982.0
986.0
987.0
990.0
987.0
982.0
984.0
983.0
987.0
986.0
981.0
983.0
977.0
980.0
983.0
984.0
981.0
978.0
978.0
978.0
980.0
979.0
978.0
974.0
969.0
970.0
974.0
974.0
971.0
969.0
969.0
971.0
975.0
973.0
971.0
966.0
966.0
965.0
966.0
967.0
963.0
965.0
964.0
968.0
972.0
972.0
972.0
969.0
967.0
971.0
972.0
973.0
973.0
970.0
967.0
973.0
975.0
977.0
975.0
971.0
970.0
974.0
978.0
977.0
976.0
974.0
973.0
975.0
978.0
974.0
975.0
971.0
969.0
971.0
973.0
975.0
972.0
970.0
970.0
970.0
974.0
971.0
970.0
967.0
964.0
967.0
970.0
972.0
970.0
969.0
969.0
973.0
977.0
978.0
979.0
974.0
976.0
980.0
982.0
984.0
979.0
982.0
982.0
988.0
992.0
1001.0
1006.0
1014.0
1040.0
1099.0
1184.0
1262.0
1312.0
1307.0
1266.0
1221.0
1196.0
1182.0
1167.0
1145.0
1127.0
1107.0
1091.0
1074.0
1052.0
1032.0
1014.0
993.0
974.0
952.0
927.0
901.0
879.0
853.0
831.0
811.0
793.0
774.0
761.0
751.0
744.0
739.0
729.0
724.0
721.0
723.0
729.0
734.0
738.0
742.0
749.0
762.0
784.0
805.0
819.0
837.0
856.0
868.0
880.0
881.0
881.0
885.0
892.0
904.0
918.0
929.0
939.0
941.0
957.0
969.0
982.0
991.0
997.0
1004.0
1011.0
1019.0
1023.0
1027.0
1027.0
1026.0
1030.0
1033.0
1038.0
1036.0
1038.0
1036.0
1038.0
1043.0
1044.0
1046.0
1044.0
1046.0
1050.0
1052.0
1056.0
1057.0
1058.0
1057.0
1061.0
1063.0
1069.0
1071.0
1073.0
1072.0
1073.0
1077.0
1081.0
1083.0
1085.0
1083.0
1086.0
1089.0
1093.0
1097.0
1100.0
1100.0
1103.0
1109.0
1111.0
1114.0
1115.0
1118.0
1120.0
1127.0
1132.0
1136.0
1138.0
