# Simple Text Format
# Sampling Rate (Hz):= 360.00
# Resolution:= 12
# Labels:= ECG
1078.0
1077.0
1076.0
1077.0
1077.0
1075.0
1072.0
1067.0
1065.0
1065.0
1061.0
1059.0
1056.0
1052.0
1050.0
1050.0
1049.0
1046.0
1044.0
1041.0
1039.0
1038.0
1039.0
1035.0
1030.0
1030.0
1027.0
1027.0
1027.0
1023.0
1019.0
1015.0
1015.0
1016.0
1014.0
1013.0
1010.0
1008.0
1005.0
1003.0
1005.0
1004.0
1001.0
996.0
997.0
998.0
996.0
997.0
994.0
991.0
986.0
992.0
991.0
991.0
987.0
987.0
986.0
987.0
989.0
990.0
988.0
986.0
985.0
988.0
986.0
988.0
985.0
984.0
982.0
981.0
978.0
971.0
966.0
962.0
960.0
958.0
963.0
959.0
943.0
933.0
927.0
926.0
918.0
898.0
862.0
820.0
778.0
750.0
744.0
754.0
763.0
777.0
795.0
817.0
830.0
833.0
841.0
847.0
857.0
869.0
882.0
898.0
910.0
929.0
945.0
962.0
977.0
986.0
993.0
996.0
998.0
999.0
1001.0
999.0
995.0
997.0
998.0
1001.0
1003.0
1004.0
1003.0
1006.0
1009.0
1013.0
1017.0
1019.0
1019.0
1018.0
1022.0
1024.0
1028.0
1031.0
1032.0
1034.0
1038.0
1041.0
1044.0
1048.0
1048.0
1051.0
1058.0
1063.0
1068.0
1072.0
1073.0
1075.0
1077.0
1084.0
1087.0
1089.0
1088.0
1087.0
1090.0
1090.0
1093.0
1094.0
1092.0
1092.0
1092.0
1094.0
1094.0
1092.0
1093.0
1091.0
1091.0
1091.0
1092.0
1088.0
1082.0
1080.0
1080.0
1081.0
1078.0
1076.0
1071.0
1068.0
1065.0
1068.0
1065.0
1062.0
1060.0
1057.0
1055.0
1054.0
1054.0
1051.0
1045.0
1043.0
1042.0
1043.0
1041.0
1038.0
1033.0
1030.0
1028.0
1029.0
1029.0
1024.0
1022.0
1017.0
1015.0
1016.0
1015.0
1013.0
1011.0
1008.0
1008.0
1006.0
1006.0
1004.0
1001.0
999.0
996.0
997.0
998.0
997.0
989.0
989.0
988.0
989.0
990.0
987.0
985.0
984.0
985.0
987.0
991.0
988.0
988.0
986.0
985.0
988.0
989.0
986.0
986.0
983.0
982.0
982.0
980.0
974.0
968.0
963.0
963.0
964.0
965.0
962.0
950.0
942.0
935.0
929.0
929.0
920.0
902.0
875.0
840.0
803.0
767.0
748.0
746.0
758.0
769.0
779.0
797.0
815.0
824.0
832.0
842.0
854.0
866.0
875.0
884.0
897.0
912.0
928.0
941.0
952.0
964.0
977.0
985.0
993.0
998.0
999.0
1002.0
1004.0
1005.0
1005.0
1005.0
1006.0
1004.0
1003.0
1005.0
1008.0
1008.0
1008.0
1009.0
1008.0
1011.0
1016.0
1017.0
1018.0
1019.0
1019.0
1023.0
1029.0
1031.0
1030.0
1034.0
1036.0
1042.0
1048.0
1053.0
1054.0
1058.0
1059.0
1063.0
1068.0
1070.0
1071.0
1072.0
1073.0
1075.0
1081.0
1081.0
1081.0
1083.0
1083.0
1083.0
1086.0
1090.0
1089.0
1089.0
1088.0
1088.0
1091.0
1089.0
1088.0
1087.0
1083.0
1083.0
1083.0
1080.0
1080.0
1076.0
1073.0
1072.0
1074.0
1073.0
1070.0
1066.0
1064.0
1063.0
1062.0
1062.0
1059.0
1054.0
1048.0
1049.0
1048.0
1049.0
1045.0
1038.0
1036.0
1036.0
1038.0
1034.0
1032.0
1028.0
1024.0
1025.0
1025.0
1025.0
1022.0
1019.0
1016.0
1015.0
1017.0
1015.0
1012.0
1008.0
1006.0
1004.0
1002.0
1001.0
998.0
995.0
995.0
994.0
995.0
995.0
994.0
992.0
989.0
991.0
994.0
994.0
994.0
989.0
986.0
988.0
989.0
990.0
989.0
984.0
985.0
985.0
988.0
990.0
990.0
984.0
978.0
973.0
973.0
972.0
967.0
962.0
958.0
959.0
952.0
947.0
933.0
926.0
920.0
911.0
894.0
867.0
831.0
790.0
761.0
755.0
767.0
780.0
795.0
808.0
822.0
835.0
846.0
851.0
859.0
864.0
875.0
887.0
899.0
912.0
925.0
936.0
948.0
961.0
975.0
983.0
985.0
987.0
989.0
998.0
1004.0
1008.0
1008.0
1008.0
1007.0
1010.0
1011.0
1013.0
1011.0
1011.0
1009.0
1007.0
1013.0
1015.0
1017.0
1017.0
1015.0
1020.0
1025.0
1029.0
1032.0
1031.0
1036.0
1039.0
1043.0
1047.0
1049.0
1049.0
1053.0
1057.0
1063.0
1067.0
1069.0
1070.0
1071.0
1075.0
1079.0
1081.0
1083.0
1084.0
1081.0
1083.0
1086.0
1087.0
1085.0
1082.0
1080.0
1084.0
1086.0
1086.0
1083.0
1081.0
1079.0
1079.0
1079.0
1079.0
1077.0
1073.0
1071.0
1069.0
1071.0
1070.0
1064.0
1062.0
1060.0
1061.0
1060.0
1058.0
1056.0
1054.0
1050.0
1046.0
1044.0
1042.0
1040.0
1035.0
1033.0
1033.0
1034.0
1033.0
1030.0
1029.0
1025.0
1022.0
1023.0
1023.0
1018.0
1015.0
1012.0
1012.0
1011.0
1010.0
1008.0
1004.0
1002.0
1000.0
1000.0
1001.0
994.0
992.0
991.0
990.0
992.0
991.0
991.0
988.0
986.0
986.0
986.0
986.0
981.0
977.0
978.0
978.0
979.0
983.0
980.0
978.0
976.0
977.0
977.0
978.0
982.0
980.0
979.0
977.0
980.0
982.0
978.0
973.0
965.0
958.0
955.0
956.0
949.0
947.0
940.0
935.0
925.0
918.0
908.0
896.0
889.0
878.0
860.0
833.0
800.0
767.0
751.0
759.0
776.0
792.0
801.0
810.0
823.0
836.0
845.0
854.0
867.0
874.0
881.0
890.0
897.0
908.0
918.0
930.0
938.0
952.0
965.0
971.0
975.0
972.0
978.0
983.0
987.0
988.0
987.0
983.0
984.0
989.0
996.0
1001.0
1002.0
1001.0
1005.0
1008.0
1013.0
1016.0
1017.0
1015.0
1013.0
1012.0
1013.0
1015.0
1014.0
1015.0
1019.0
1023.0
1026.0
1029.0
1031.0
1031.0
1031.0
1036.0
1044.0
1048.0
1050.0
1053.0
1053.0
1055.0
1062.0
1062.0
1063.0
1062.0
1058.0
1059.0
1066.0
1065.0
1067.0
1066.0
1065.0
1068.0
1067.0
1069.0
1072.0
1070.0
1068.0
1066.0
1064.0
1065.0
1062.0
1059.0
1058.0
1063.0
1060.0
1058.0
1054.0
1050.0
1047.0
1046.0
1046.0
1045.0
1041.0
1037.0
1037.0
1035.0
1035.0
1036.0
1033.0
1026.0
1025.0
1020.0
1021.0
1018.0
1017.0
1015.0
1014.0
1008.0
1008.0
1004.0
1002.0
999.0
995.0
997.0
1000.0
997.0
993.0
991.0
990.0
991.0
990.0
990.0
985.0
982.0
980.0
979.0
977.0
980.0
978.0
976.0
972.0
968.0
974.0
979.0
975.0
970.0
969.0
970.0
969.0
968.0
968.0
967.0
965.0
966.0
972.0
975.0
973.0
967.0
961.0
962.0
965.0
968.0
966.0
960.0
952.0
944.0
942.0
941.0
934.0
927.0
912.0
907.0
904.0
898.0
888.0
877.0
857.0
829.0
796.0
761.0
739.0
736.0
747.0
772.0
798.0
818.0
832.0
844.0
854.0
867.0
882.0
897.0
902.0
902.0
905.0
915.0
931.0
946.0
948.0
952.0
955.0
962.0
971.0
977.0
976.0
980.0
977.0
976.0
980.0
984.0
984.0
984.0
985.0
990.0
990.0
988.0
994.0
999.0
1003.0
1004.0
1008.0
1013.0
1014.0
1013.0
1014.0
1015.0
1013.0
1016.0
1021.0
1019.0
1021.0
1028.0
1031.0
1031.0
1029.0
1028.0
1032.0
1039.0
1046.0
1053.0
1058.0
1054.0
1048.0
1052.0
1056.0
1058.0
1061.0
1057.0
1058.0
1062.0
1064.0
1066.0
1069.0
1068.0
1063.0
1061.0
1061.0
1062.0
1060.0
1057.0
1054.0
1055.0
1055.0
1057.0
1057.0
1053.0
1050.0
1050.0
1051.0
1051.0
1048.0
1042.0
1039.0
1041.0
1040.0
1037.0
1031.0
1029.0
1029.0
1028.0
1025.0
1024.0
1023.0
1021.0
1014.0
1014.0
1015.0
1017.0
1012.0
1009.0
1007.0
1009.0
1009.0
1006.0
1002.0
999.0
997.0
1000.0
1000.0
997.0
992.0
987.0
987.0
991.0
987.0
988.0
987.0
982.0
982.0
983.0
983.0
981.0
980.0
980.0
979.0
979.0
983.0
985.0
980.0
975.0
974.0
972.0
976.0
975.0
974.0
972.0
968.0
973.0
977.0
977.0
974.0
970.0
968.0
972.0
975.0
974.0
973.0
971.0
971.0
973.0
974.0
975.0
971.0
969.0
963.0
959.0
957.0
952.0
950.0
941.0
936.0
936.0
935.0
929.0
920.0
909.0
896.0
888.0
880.0
862.0
843.0
815.0
778.0
747.0
738.0
747.0
758.0
780.0
801.0
822.0
843.0
852.0
862.0
868.0
877.0
893.0
903.0
911.0
917.0
922.0
936.0
942.0
948.0
953.0
958.0
963.0
966.0
974.0
980.0
982.0
980.0
980.0
980.0
984.0
987.0
986.0
991.0
994.0
999.0
1004.0
1008.0
1007.0
1007.0
1005.0
1005.0
1005.0
1009.0
1010.0
1006.0
1007.0
1008.0
1014.0
1018.0
1021.0
1020.0
1021.0
1026.0
1030.0
1035.0
1037.0
1036.0
1039.0
1043.0
1046.0
1053.0
1057.0
1057.0
1056.0
1051.0
1059.0
1063.0
1065.0
1065.0
1065.0
1066.0
1069.0
1073.0
1073.0
1074.0
1073.0
1074.0
1076.0
1078.0
1076.0
1075.0
1073.0
1071.0
1072.0
1072.0
1070.0
1066.0
1061.0
1060.0
1061.0
1061.0
1058.0
1053.0
1049.0
1046.0
1050.0
1052.0
1050.0
1046.0
1042.0
1040.0
1039.0
1042.0
1039.0
1034.0
1029.0
1027.0
1028.0
1029.0
1025.0
1021.0
1019.0
1018.0
1018.0
1019.0
1016.0
1013.0
1010.0
1009.0
1011.0
1013.0
1012.0
1006.0
1002.0
1001.0
1000.0
1001.0
998.0
996.0
995.0
990.0
995.0
997.0
995.0
994.0
993.0
988.0
991.0
994.0
993.0
988.0
988.0
987.0
989.0
992.0
988.0
984.0
982.0
982.0
984.0
984.0
985.0
982.0
980.0
984.0
986.0
989.0
987.0
987.0
986.0
986.0
984.0
985.0
978.0
970.0
966.0
963.0
964.0
964.0
960.0
952.0
950.0
942.0
935.0
926.0
920.0
907.0
888.0
867.0
843.0
814.0
774.0
744.0
736.0
745.0
764.0
786.0
804.0
823.0
839.0
847.0
862.0
874.0
888.0
895.0
903.0
912.0
925.0
938.0
952.0
954.0
959.0
964.0
975.0
986.0
990.0
989.0
989.0
993.0
994.0
999.0
1001.0
998.0
1000.0
1004.0
1011.0
1015.0
1019.0
1014.0
1012.0
1016.0
1020.0
1024.0
1024.0
1017.0
1016.0
1019.0
1024.0
1030.0
1031.0
1029.0
1029.0
1033.0
1040.0
1045.0
1046.0
1047.0
1047.0
1049.0
1052.0
1062.0
1064.0
1065.0
1067.0
1067.0
1074.0
1077.0
1081.0
1082.0
1081.0
1082.0
1086.0
1092.0
1093.0
1091.0
1090.0
1087.0
1090.0
1091.0
1091.0
1089.0
1085.0
1087.0
1090.0
1088.0
1083.0
1084.0
1081.0
1079.0
1080.0
1081.0
1080.0
1079.0
1075.0
1072.0
1071.0
1073.0
1069.0
1066.0
1060.0
1059.0
1057.0
1057.0
1055.0
1053.0
1046.0
1048.0
1047.0
1045.0
1045.0
1043.0
1042.0
1039.0
1038.0
1037.0
1035.0
1031.0
1029.0
1026.0
1027.0
1027.0
1025.0
1022.0
1020.0
1018.0
1017.0
1017.0
1015.0
1012.0
1010.0
1010.0
1010.0
1011.0
1010.0
1004.0
1001.0
1003.0
1004.0
1005.0
1004.0
1001.0
999.0
997.0
998.0
999.0
997.0
996.0
995.0
992.0
994.0
994.0
993.0
991.0
989.0
990.0
993.0
995.0
993.0
991.0
992.0
992.0
994.0
994.0
994.0
992.0
990.0
990.0
989.0
991.0
987.0
983.0
977.0
972.0
969.0
965.0
963.0
962.0
955.0
947.0
945.0
939.0
933.0
919.0
906.0
884.0
859.0
829.0
792.0
755.0
738.0
744.0
758.0
776.0
792.0
808.0
826.0
841.0
855.0
869.0
880.0
892.0
896.0
908.0
920.0
933.0
946.0
953.0
957.0
958.0
967.0
981.0
987.0
990.0
988.0
992.0
994.0
997.0
999.0
998.0
996.0
997.0
1000.0
1009.0
1010.0
1012.0
1014.0
1017.0
1021.0
1024.0
1024.0
1025.0
1022.0
1019.0
1025.0
1028.0
1029.0
1029.0
1028.0
1031.0
1037.0
1041.0
1044.0
1042.0
1044.0
1045.0
1051.0
1056.0
1059.0
1062.0
1059.0
1065.0
1068.0
1074.0
1076.0
1075.0
1077.0
1077.0
1079.0
1084.0
1086.0
1084.0
1085.0
1085.0
1088.0
1090.0
1088.0
1087.0
1086.0
1088.0
1089.0
1087.0
1085.0
1083.0
1081.0
1078.0
1079.0
1079.0
1077.0
1074.0
1073.0
1071.0
1069.0
1071.0
1068.0
1064.0
1061.0
1058.0
1058.0
1059.0
1056.0
1053.0
1050.0
1045.0
1044.0
1045.0
1047.0
1040.0
1035.0
1031.0
1031.0
1031.0
1031.0
1026.0
1023.0
1020.0
1021.0
1022.0
1018.0
1014.0
1013.0
1014.0
1015.0
1013.0
1010.0
1007.0
1006.0
1002.0
1004.0
1004.0
1003.0
1000.0
996.0
994.0
997.0
995.0
996.0
993.0
990.0
989.0
990.0
992.0
995.0
989.0
987.0
987.0
989.0
990.0
990.0
985.0
979.0
981.0
979.0
985.0
985.0
982.0
978.0
980.0
979.0
982.0
980.0
981.0
980.0
979.0
978.0
975.0
970.0
967.0
962.0
957.0
953.0
950.0
947.0
942.0
936.0
927.0
924.0
918.0
904.0
888.0
869.0
841.0
814.0
776.0
740.0
730.0
739.0
755.0
776.0
793.0
811.0
825.0
838.0
850.0
862.0
878.0
890.0
898.0
906.0
919.0
933.0
947.0
951.0
954.0
960.0
971.0
981.0
986.0
988.0
988.0
986.0
988.0
989.0
992.0
991.0
987.0
989.0
990.0
993.0
999.0
1003.0
1005.0
1006.0
1011.0
1013.0
1021.0
1020.0
1020.0
1022.0
1022.0
1025.0
1027.0
1027.0
1028.0
1028.0
1030.0
1032.0
1037.0
1038.0
1040.0
1045.0
1048.0
1052.0
1055.0
1058.0
1058.0
1059.0
1060.0
1064.0
1069.0
1071.0
1070.0
1071.0
1069.0
1075.0
1075.0
1075.0
1073.0
1071.0
1071.0
1073.0
1072.0
1073.0
1068.0
1069.0
1067.0
1069.0
1069.0
1066.0
1062.0
1059.0
1060.0
1056.0
1057.0
1056.0
1050.0
1045.0
1045.0
1045.0
1046.0
1044.0
1041.0
1038.0
1034.0
1032.0
1033.0
1032.0
1027.0
1025.0
1024.0
1022.0
1022.0
1022.0
1019.0
1015.0
1015.0
1013.0
1015.0
1008.0
1007.0
1005.0
1006.0
1004.0
1005.0
1003.0
999.0
996.0
994.0
996.0
997.0
996.0
993.0
990.0
988.0
990.0
991.0
989.0
989.0
984.0
984.0
985.0
985.0
980.0
978.0
976.0
978.0
977.0
982.0
981.0
979.0
975.0
978.0
978.0
978.0
979.0
979.0
977.0
977.0
978.0
981.0
978.0
975.0
974.0
975.0
978.0
977.0
973.0
965.0
960.0
961.0
958.0
954.0
949.0
945.0
939.0
937.0
929.0
920.0
910.0
895.0
879.0
860.0
837.0
814.0
788.0
756.0
734.0
737.0
750.0
767.0
783.0
800.0
819.0
835.0
851.0
863.0
875.0
886.0
897.0
901.0
909.0
923.0
935.0
942.0
949.0
948.0
955.0
964.0
975.0
978.0
978.0
982.0
985.0
986.0
983.0
983.0
982.0
986.0
992.0
995.0
994.0
988.0
990.0
994.0
999.0
999.0
1005.0
1007.0
1010.0
1014.0
1017.0
1026.0
1029.0
1029.0
1025.0
1026.0
1029.0
1030.0
1030.0
1030.0
1033.0
1039.0
1046.0
1047.0
1046.0
1041.0
1043.0
1048.0
1052.0
1056.0
1057.0
1057.0
1057.0
1059.0
1062.0
1066.0
1066.0
1065.0
1066.0
1063.0
1063.0
1065.0
1067.0
1065.0
1067.0
1066.0
1065.0
1061.0
1057.0
1055.0
1052.0
1050.0
1049.0
1047.0
1044.0
1039.0
1041.0
1037.0
1039.0
1037.0
1035.0
1033.0
1031.0
1030.0
1026.0
1027.0
1021.0
1020.0
1016.0
1011.0
1010.0
1008.0
1005.0
1003.0
1001.0
1000.0
1001.0
999.0
996.0
995.0
993.0
990.0
991.0
991.0
990.0
985.0
982.0
978.0
981.0
980.0
980.0
977.0
973.0
971.0
974.0
976.0
975.0
970.0
969.0
969.0
970.0
971.0
968.0
966.0
966.0
966.0
965.0
967.0
963.0
961.0
960.0
960.0
960.0
961.0
958.0
956.0
956.0
959.0
961.0
963.0
963.0
963.0
961.0
963.0
965.0
968.0
964.0
962.0
960.0
954.0
951.0
950.0
948.0
940.0
931.0
925.0
923.0
922.0
917.0
910.0
896.0
883.0
872.0
866.0
853.0
833.0
804.0
771.0
741.0
732.0
740.0
755.0
774.0
796.0
816.0
831.0
848.0
853.0
855.0
866.0
881.0
891.0
898.0
904.0
913.0
925.0
935.0
942.0
944.0
948.0
956.0
963.0
969.0
973.0
972.0
972.0
975.0
975.0
979.0
980.0
981.0
979.0
981.0
983.0
986.0
988.0
990.0
992.0
993.0
997.0
997.0
1005.0
1010.0
1013.0
1017.0
1022.0
1026.0
1026.0
1028.0
1026.0
1028.0
1028.0
1033.0
1036.0
1039.0
1037.0
1042.0
1047.0
1051.0
1048.0
1047.0
1048.0
1048.0
1052.0
1054.0
1061.0
1055.0
1055.0
1055.0
1057.0
1065.0
1068.0
1069.0
1066.0
1061.0
1060.0
1059.0
1056.0
1059.0
1060.0
1058.0
1053.0
1050.0
1053.0
1057.0
1059.0
1056.0
1051.0
1047.0
1047.0
1042.0
1039.0
1031.0
1035.0
1039.0
1036.0
1031.0
1029.0
1028.0
1025.0
1015.0
1007.0
1011.0
1015.0
1011.0
1012.0
1010.0
1013.0
1011.0
1010.0
1005.0
1000.0
1000.0
1005.0
1001.0
996.0
988.0
986.0
991.0
992.0
990.0
983.0
983.0
982.0
984.0
982.0
982.0
979.0
977.0
976.0
978.0
980.0
977.0
972.0
970.0
967.0
968.0
974.0
974.0
970.0
967.0
965.0
965.0
971.0
973.0
974.0
962.0
957.0
966.0
972.0
969.0
961.0
956.0
957.0
967.0
967.0
964.0
955.0
957.0
961.0
964.0
966.0
970.0
967.0
961.0
957.0
961.0
963.0
957.0
951.0
943.0
939.0
934.0
930.0
926.0
919.0
912.0
906.0
903.0
898.0
884.0
872.0
855.0
839.0
818.0
792.0
762.0
737.0
731.0
741.0
764.0
786.0
806.0
821.0
836.0
850.0
860.0
868.0
872.0
880.0
889.0
896.0
904.0
912.0
923.0
928.0
936.0
940.0
945.0
957.0
961.0
966.0
970.0
972.0
972.0
972.0
972.0
975.0
980.0
982.0
985.0
987.0
987.0
983.0
981.0
986.0
994.0
999.0
1006.0
1005.0
1004.0
1010.0
1013.0
1020.0
1025.0
1023.0
1024.0
1026.0
1029.0
1030.0
1030.0
1032.0
1030.0
1033.0
1037.0
1042.0
1044.0
1044.0
1045.0
1048.0
1053.0
1056.0
1055.0
1057.0
1059.0
1059.0
1061.0
1069.0
1067.0
1066.0
1061.0
1063.0
1065.0
1069.0
1067.0
1065.0
1066.0
1066.0
1065.0
1067.0
1063.0
1058.0
1057.0
1057.0
1053.0
1055.0
1052.0
1049.0
1048.0
1049.0
1047.0
1046.0
1042.0
1035.0
1036.0
1035.0
1031.0
1032.0
1025.0
1024.0
1022.0
1023.0
1025.0
1022.0
1020.0
1017.0
1013.0
1014.0
1016.0
1016.0
1014.0
1007.0
1008.0
1004.0
1005.0
1007.0
1001.0
998.0
996.0
996.0
997.0
998.0
996.0
995.0
991.0
992.0
994.0
993.0
990.0
986.0
984.0
987.0
987.0
990.0
990.0
985.0
981.0
982.0
983.0
983.0
982.0
980.0
978.0
978.0
978.0
979.0
980.0
977.0
976.0
978.0
982.0
981.0
980.0
979.0
979.0
979.0
981.0
982.0
979.0
978.0
974.0
972.0
971.0
969.0
961.0
954.0
950.0
946.0
947.0
941.0
931.0
916.0
904.0
888.0
876.0
858.0
838.0
803.0
765.0
739.0
738.0
755.0
773.0
789.0
812.0
833.0
849.0
863.0
867.0
875.0
885.0
899.0
914.0
929.0
939.0
947.0
954.0
959.0
969.0
975.0
982.0
984.0
986.0
989.0
993.0
993.0
994.0
996.0
995.0
1000.0
1003.0
1007.0
1008.0
1010.0
1009.0
1012.0
1017.0
1023.0
1031.0
1031.0
1033.0
1037.0
1041.0
1044.0
1044.0
1038.0
1041.0
1044.0
1053.0
1057.0
1056.0
1058.0
1060.0
1065.0
1073.0
1075.0
1076.0
1075.0
1073.0
1077.0
1081.0
1083.0
1085.0
1083.0
1082.0
1086.0
1087.0
1088.0
1088.0
1086.0
1084.0
1086.0
1086.0
1085.0
1086.0
1083.0
1081.0
1080.0
1080.0
1080.0
1078.0
1073.0
1070.0
1068.0
1068.0
1068.0
1064.0
1062.0
1057.0
1055.0
1057.0
1055.0
1053.0
1049.0
1046.0
1045.0
1045.0
1043.0
1041.0
1036.0
1034.0
1033.0
1033.0
1031.0
1031.0
1026.0
1022.0
1024.0
1023.0
1024.0
1021.0
1019.0
1016.0
1015.0
1016.0
1018.0
1016.0
1014.0
1011.0
1009.0
1011.0
1007.0
1007.0
1003.0
1002.0
1001.0
1004.0
1003.0
1001.0
995.0
996.0
995.0
998.0
997.0
998.0
995.0
990.0
993.0
997.0
996.0
995.0
993.0
993.0
994.0
996.0
995.0
996.0
994.0
991.0
992.0
997.0
996.0
994.0
992.0
990.0
984.0
985.0
981.0
977.0
973.0
970.0
968.0
967.0
964.0
952.0
945.0
936.0
922.0
910.0
889.0
869.0
838.0
798.0
760.0
741.0
746.0
763.0
783.0
798.0
821.0
841.0
856.0
868.0
875.0
890.0
900.0
912.0
928.0
941.0
954.0
961.0
967.0
974.0
982.0
989.0
993.0
994.0
998.0
1003.0
1004.0
1005.0
1003.0
1005.0
1007.0
1009.0
1013.0
1013.0
1012.0
1012.0
1015.0
1019.0
1021.0
1025.0
1028.0
1030.0
1037.0
1044.0
1048.0
1049.0
1049.0
1050.0
1051.0
1055.0
1061.0
1060.0
1061.0
1061.0
1064.0
1067.0
1070.0
1076.0
1076.0
1078.0
1079.0
1084.0
1087.0
1088.0
1087.0
1091.0
1091.0
1092.0
1095.0
1095.0
1095.0
1094.0
1093.0
1098.0
1098.0
1094.0
1091.0
1088.0
1088.0
1086.0
1086.0
1086.0
1081.0
1077.0
1078.0
1076.0
1077.0
1074.0
1070.0
1066.0
1063.0
1065.0
1065.0
1063.0
1057.0
1053.0
1051.0
1052.0
1053.0
1050.0
1044.0
1040.0
1042.0
1041.0
1038.0
1035.0
1029.0
1031.0
1032.0
1033.0
1031.0
1029.0
1026.0
1022.0
1020.0
1021.0
1023.0
1018.0
1015.0
1011.0
1015.0
1015.0
1011.0
1011.0
1010.0
1004.0
1007.0
1006.0
1009.0
1006.0
1004.0
1001.0
1001.0
1005.0
1006.0
1003.0
1000.0
993.0
995.0
998.0
997.0
995.0
994.0
991.0
995.0
999.0
999.0
998.0
999.0
995.0
996.0
995.0
993.0
986.0
980.0
972.0
973.0
970.0
968.0
963.0
954.0
947.0
938.0
926.0
913.0
894.0
874.0
848.0
817.0
781.0
751.0
743.0
753.0
769.0
786.0
811.0
832.0
850.0
859.0
869.0
881.0
898.0
912.0
922.0
936.0
948.0
960.0
974.0
978.0
985.0
989.0
997.0
1001.0
1007.0
1006.0
1005.0
1008.0
1007.0
1009.0
1012.0
1014.0
1014.0
1013.0
1014.0
1019.0
1023.0
1027.0
1028.0
1030.0
1035.0
1040.0
1047.0
1053.0
1053.0
1056.0
1059.0
1063.0
1066.0
1066.0
1068.0
1069.0
1071.0
1073.0
1080.0
1085.0
1086.0
1085.0
1086.0
1089.0
1094.0
1096.0
1097.0
1093.0
1094.0
1096.0
1097.0
1098.0
1099.0
1093.0
1094.0
1093.0
1094.0
1095.0
1094.0
1091.0
1087.0
1088.0
1090.0
1089.0
1086.0
1080.0
1076.0
1074.0
1075.0
1073.0
1069.0
1066.0
1060.0
1056.0
1058.0
1057.0
1054.0
1050.0
1045.0
1047.0
1049.0
1045.0
1044.0
1040.0
1038.0
1036.0
1037.0
1036.0
1032.0
1027.0
1023.0
1027.0
1025.0
1024.0
1023.0
1020.0
1020.0
1018.0
1019.0
1022.0
1019.0
1016.0
1014.0
1012.0
1014.0
1013.0
1011.0
1009.0
1004.0
1007.0
1005.0
1006.0
1007.0
1002.0
1002.0
1001.0
1004.0
1003.0
1001.0
997.0
994.0
999.0
1001.0
1002.0
1000.0
997.0
996.0
996.0
998.0
998.0
998.0
995.0
994.0
994.0
997.0
996.0
991.0
985.0
981.0
980.0
978.0
972.0
966.0
961.0
956.0
949.0
942.0
931.0
911.0
889.0
869.0
845.0
817.0
781.0
752.0
741.0
752.0
770.0
793.0
810.0
829.0
845.0
858.0
872.0
885.0
899.0
911.0
921.0
930.0
945.0
957.0
968.0
970.0
975.0
980.0
988.0
1000.0
1004.0
1006.0
1005.0
1006.0
1011.0
1014.0
1016.0
1016.0
1015.0
1016.0
1019.0
1021.0
1022.0
1023.0
1023.0
1026.0
1025.0
1034.0
1040.0
1043.0
1044.0
1048.0
1054.0
1057.0
1064.0
1065.0
1062.0
1059.0
1063.0
1069.0
1072.0
1072.0
1070.0
1070.0
1077.0
1080.0
1082.0
1081.0
1084.0
1083.0
1085.0
1090.0
1089.0
1089.0
1085.0
1089.0
1092.0
1093.0
1092.0
1089.0
1087.0
1085.0
1090.0
1090.0
1086.0
1082.0
1079.0
1074.0
1074.0
1075.0
1072.0
1069.0
1064.0
1061.0
1062.0
1064.0
1063.0
1059.0
1053.0
1053.0
1052.0
1049.0
1046.0
1042.0
1036.0
1033.0
1034.0
1035.0
1034.0
1031.0
1027.0
1029.0
1028.0
1026.0
1025.0
1020.0
1016.0
1016.0
1016.0
1017.0
1015.0
1010.0
1007.0
1000.0
1002.0
1004.0
1005.0
1001.0
997.0
996.0
997.0
999.0
998.0
997.0
989.0
987.0
989.0
996.0
997.0
994.0
987.0
982.0
982.0
987.0
985.0
982.0
984.0
984.0
987.0
989.0
989.0
992.0
988.0
980.0
982.0
986.0
981.0
975.0
967.0
961.0
957.0
955.0
950.0
939.0
932.0
918.0
911.0
903.0
890.0
871.0
849.0
828.0
796.0
766.0
746.0
749.0
763.0
784.0
808.0
832.0
847.0
854.0
864.0
874.0
887.0
901.0
907.0
914.0
924.0
936.0
955.0
958.0
962.0
963.0
975.0
988.0
993.0
991.0
990.0
989.0
990.0
990.0
991.0
997.0
1001.0
1000.0
999.0
1000.0
1005.0
1006.0
1008.0
1010.0
1008.0
1013.0
1019.0
1022.0
1026.0
1029.0
1028.0
1029.0
1037.0
1050.0
1057.0
1056.0
1055.0
1056.0
1062.0
1064.0
1066.0
1067.0
1061.0
1061.0
1065.0
1071.0
1076.0
1073.0
1071.0
1074.0
1081.0
1083.0
1078.0
1075.0
1071.0
1070.0
1071.0
1075.0
1078.0
1077.0
1077.0
1074.0
1069.0
1071.0
1073.0
1068.0
1063.0
1063.0
1063.0
1065.0
1061.0
1055.0
1051.0
1046.0
1045.0
1046.0
1045.0
1044.0
1040.0
1037.0
1034.0
1037.0
1032.0
1028.0
1025.0
1027.0
1027.0
1027.0
1025.0
1023.0
1020.0
1017.0
1014.0
1010.0
1010.0
1008.0
1005.0
1005.0
1007.0
1005.0
1004.0
998.0
994.0
995.0
996.0
999.0
999.0
995.0
990.0
992.0
995.0
998.0
998.0
988.0
982.0
982.0
981.0
989.0
987.0
984.0
978.0
973.0
980.0
985.0
985.0
980.0
977.0
976.0
978.0
982.0
982.0
982.0
978.0
976.0
981.0
980.0
979.0
977.0
974.0
973.0
976.0
975.0
977.0
979.0
980.0
982.0
983.0
984.0
981.0
971.0
964.0
964.0
963.0
958.0
952.0
943.0
935.0
930.0
928.0
923.0
910.0
895.0
876.0
861.0
850.0
839.0
822.0
788.0
753.0
738.0
750.0
771.0
791.0
809.0
824.0
845.0
859.0
871.0
878.0
886.0
896.0
903.0
912.0
924.0
935.0
943.0
945.0
951.0
954.0
964.0
974.0
982.0
985.0
985.0
992.0
995.0
994.0
991.0
990.0
995.0
1002.0
1006.0
1004.0
1001.0
999.0
998.0
1008.0
1009.0
1009.0
1006.0
1006.0
1011.0
1019.0
1026.0
1027.0
1022.0
1027.0
1037.0
1043.0
1047.0
1049.0
1051.0
1054.0
1058.0
1068.0
1075.0
1076.0
1070.0
1071.0
1076.0
1085.0
1088.0
1079.0
1073.0
1070.0
1072.0
1076.0
1083.0
1083.0
1079.0
1076.0
1072.0
1077.0
1081.0
1084.0
1084.0
1079.0
1073.0
1073.0
1073.0
1074.0
1074.0
1065.0
1057.0
1054.0
1059.0
1057.0
1054.0
1050.0
1049.0
1053.0
1048.0
1047.0
1043.0
1040.0
1037.0
1037.0
1037.0
1035.0
1032.0
1028.0
1025.0
1027.0
1029.0
1025.0
1022.0
1017.0
1013.0
1014.0
1018.0
1020.0
1013.0
1006.0
1001.0
1002.0
1007.0
1010.0
1008.0
1001.0
998.0
995.0
994.0
994.0
997.0
996.0
994.0
990.0
987.0
989.0
989.0
987.0
989.0
993.0
992.0
991.0
987.0
984.0
979.0
980.0
987.0
986.0
986.0
981.0
980.0
979.0
983.0
984.0
980.0
978.0
979.0
980.0
984.0
985.0
984.0
981.0
980.0
983.0
984.0
980.0
980.0
979.0
979.0
981.0
986.0
982.0
980.0
973.0
967.0
965.0
965.0
959.0
953.0
943.0
940.0
935.0
932.0
923.0
906.0
892.0
877.0
870.0
856.0
834.0
799.0
766.0
747.0
750.0
765.0
782.0
798.0
816.0
834.0
853.0
864.0
871.0
878.0
889.0
896.0
912.0
923.0
933.0
940.0
948.0
952.0
958.0
966.0
974.0
980.0
985.0
989.0
994.0
997.0
998.0
995.0
1000.0
999.0
1007.0
1009.0
1010.0
1008.0
1006.0
1009.0
1011.0
1016.0
1015.0
1017.0
1017.0
1019.0
1022.0
1032.0
1035.0
1042.0
1046.0
1050.0
1056.0
1061.0
1062.0
1062.0
1063.0
1063.0
1068.0
1073.0
1073.0
1073.0
1073.0
1074.0
1078.0
1081.0
1085.0
1084.0
1083.0
1086.0
1089.0
1090.0
1092.0
1088.0
1090.0
1085.0
1087.0
1093.0
1092.0
1091.0
1089.0
1087.0
1089.0
1088.0
1084.0
1082.0
1080.0
1075.0
1076.0
1078.0
1076.0
1070.0
1067.0
1063.0
1063.0
1062.0
1062.0
1058.0
1055.0
1051.0
1051.0
1053.0
1051.0
1047.0
1047.0
1043.0
1040.0
1042.0
1040.0
1037.0
1034.0
1032.0
1034.0
1033.0
1031.0
1028.0
1027.0
1022.0
1021.0
1024.0
1023.0
1017.0
1018.0
1014.0
1017.0
1018.0
1017.0
1013.0
1012.0
1010.0
1010.0
1011.0
1009.0
1004.0
1004.0
999.0
1004.0
1005.0
1005.0
1001.0
999.0
998.0
1001.0
1003.0
1002.0
1000.0
998.0
995.0
995.0
997.0
998.0
995.0
991.0
989.0
994.0
997.0
992.0
991.0
991.0
988.0
991.0
994.0
994.0
990.0
990.0
990.0
993.0
996.0
997.0
993.0
988.0
984.0
985.0
985.0
981.0
972.0
969.0
963.0
967.0
963.0
958.0
945.0
932.0
924.0
913.0
898.0
883.0
860.0
835.0
802.0
768.0
744.0
741.0
752.0
767.0
786.0
806.0
827.0
844.0
853.0
861.0
871.0
882.0
896.0
906.0
915.0
927.0
943.0
956.0
968.0
973.0
979.0
987.0
994.0
998.0
1005.0
1008.0
1006.0
1004.0
1004.0
1009.0
1012.0
1012.0
1010.0
1012.0
1015.0
1020.0
1023.0
1025.0
1026.0
1028.0
1030.0
1037.0
1043.0
1048.0
1050.0
1053.0
1053.0
1059.0
1065.0
1064.0
1065.0
1066.0
1067.0
1071.0
1076.0
1077.0
1079.0
1079.0
1083.0
1089.0
1093.0
1093.0
1093.0
1096.0
1095.0
1099.0
1103.0
1102.0
1105.0
1100.0
1103.0
1103.0
1104.0
1103.0
1100.0
1098.0
1094.0
1097.0
1097.0
1096.0
1095.0
1089.0
1088.0
1087.0
1090.0
1088.0
1085.0
1081.0
1076.0
1077.0
1078.0
1073.0
1068.0
1065.0
1062.0
1062.0
1061.0
1059.0
1056.0
1051.0
1050.0
1050.0
1050.0
1048.0
1045.0
1043.0
1042.0
1041.0
1042.0
1041.0
1038.0
1032.0
1030.0
1033.0
1030.0
1029.0
1028.0
1024.0
