# Simple Text Format
# Sampling Rate (Hz):= 360.00
# Resolution:= 12
# Labels:= ECG
953.0
964.0
968.0
963.0
956.0
946.0
941.0
949.0
957.0
968.0
987.0
1010.0
1055.0
1106.0
1161.0
1205.0
1229.0
1220.0
1181.0
1123.0
1042.0
948.0
880.0
857.0
860.0
870.0
883.0
903.0
918.0
927.0
934.0
938.0
944.0
945.0
944.0
944.0
949.0
954.0
955.0
954.0
949.0
949.0
953.0
956.0
954.0
952.0
951.0
951.0
956.0
960.0
960.0
966.0
965.0
964.0
962.0
961.0
964.0
964.0
959.0
959.0
965.0
973.0
977.0
978.0
973.0
976.0
984.0
983.0
986.0
986.0
983.0
988.0
992.0
996.0
1008.0
1014.0
1015.0
1018.0
1020.0
1024.0
1027.0
1029.0
1028.0
1029.0
1032.0
1030.0
1033.0
1036.0
1038.0
1038.0
1031.0
1025.0
1021.0
1022.0
1026.0
1028.0
1023.0
1015.0
1009.0
1004.0
1002.0
999.0
1002.0
1003.0
1003.0
996.0
986.0
982.0
979.0
979.0
983.0
978.0
971.0
964.0
963.0
967.0
972.0
973.0
972.0
967.0
961.0
957.0
953.0
950.0
953.0
961.0
968.0
968.0
964.0
955.0
955.0
954.0
957.0
957.0
961.0
963.0
963.0
962.0
964.0
968.0
967.0
962.0
950.0
947.0
956.0
963.0
969.0
966.0
960.0
956.0
965.0
972.0
970.0
964.0
957.0
951.0
958.0
966.0
973.0
969.0
966.0
965.0
967.0
966.0
965.0
964.0
968.0
974.0
972.0
965.0
960.0
966.0
969.0
970.0
969.0
970.0
974.0
975.0
978.0
976.0
972.0
971.0
972.0
975.0
975.0
973.0
975.0
976.0
979.0
981.0
979.0
976.0
978.0
983.0
980.0
977.0
967.0
960.0
956.0
955.0
960.0
965.0
964.0
966.0
971.0
969.0
964.0
958.0
954.0
949.0
949.0
950.0
951.0
951.0
951.0
951.0
956.0
956.0
956.0
956.0
951.0
952.0
955.0
954.0
954.0
953.0
947.0
946.0
953.0
957.0
952.0
943.0
937.0
942.0
963.0
994.0
1034.0
1077.0
1127.0
1181.0
1233.0
1257.0
1239.0
1194.0
1121.0
1031.0
935.0
872.0
861.0
867.0
873.0
883.0
899.0
916.0
929.0
939.0
939.0
934.0
942.0
946.0
947.0
950.0
949.0
945.0
942.0
941.0
950.0
951.0
951.0
950.0
951.0
956.0
960.0
959.0
955.0
953.0
958.0
959.0
956.0
952.0
951.0
955.0
964.0
968.0
965.0
961.0
959.0
961.0
967.0
973.0
973.0
974.0
977.0
979.0
984.0
986.0
990.0
988.0
992.0
997.0
1001.0
1002.0
998.0
1000.0
1007.0
1015.0
1018.0
1020.0
1024.0
1026.0
1023.0
1023.0
1028.0
1030.0
1032.0
1033.0
1032.0
1032.0
1035.0
1036.0
1034.0
1027.0
1019.0
1018.0
1018.0
1018.0
1012.0
1005.0
994.0
986.0
986.0
988.0
986.0
982.0
980.0
976.0
969.0
967.0
970.0
970.0
967.0
964.0
964.0
968.0
968.0
963.0
961.0
962.0
966.0
966.0
962.0
957.0
956.0
954.0
955.0
953.0
955.0
953.0
949.0
949.0
956.0
961.0
963.0
962.0
959.0
954.0
953.0
953.0
955.0
954.0
954.0
956.0
961.0
962.0
963.0
960.0
956.0
955.0
958.0
962.0
961.0
958.0
959.0
956.0
963.0
968.0
970.0
970.0
970.0
967.0
968.0
967.0
969.0
969.0
965.0
963.0
969.0
973.0
973.0
973.0
972.0
970.0
975.0
983.0
986.0
976.0
967.0
963.0
969.0
975.0
980.0
981.0
976.0
967.0
964.0
967.0
974.0
973.0
969.0
967.0
967.0
968.0
972.0
970.0
967.0
960.0
960.0
957.0
957.0
957.0
953.0
951.0
952.0
951.0
954.0
961.0
962.0
958.0
953.0
951.0
952.0
957.0
956.0
954.0
957.0
959.0
961.0
956.0
947.0
939.0
936.0
950.0
964.0
982.0
1003.0
1032.0
1082.0
1140.0
1197.0
1240.0
1262.0
1255.0
1209.0
1140.0
1049.0
949.0
871.0
843.0
849.0
863.0
881.0
898.0
913.0
921.0
930.0
935.0
943.0
945.0
946.0
946.0
948.0
950.0
952.0
953.0
952.0
951.0
947.0
947.0
953.0
954.0
952.0
951.0
953.0
957.0
957.0
956.0
955.0
953.0
954.0
954.0
956.0
960.0
962.0
965.0
974.0
979.0
983.0
983.0
984.0
988.0
992.0
990.0
993.0
997.0
1001.0
1001.0
1002.0
1003.0
1006.0
1008.0
1012.0
1018.0
1023.0
1027.0
1030.0
1027.0
1027.0
1026.0
1026.0
1027.0
1030.0
1033.0
1031.0
1025.0
1023.0
1026.0
1033.0
1033.0
1031.0
1027.0
1029.0
1025.0
1019.0
1015.0
1008.0
1006.0
1008.0
1008.0
1006.0
1002.0
993.0
984.0
984.0
984.0
983.0
980.0
976.0
972.0
971.0
967.0
966.0
965.0
956.0
953.0
957.0
960.0
962.0
962.0
963.0
960.0
959.0
961.0
958.0
956.0
956.0
958.0
961.0
962.0
963.0
965.0
962.0
954.0
950.0
947.0
954.0
956.0
954.0
953.0
955.0
962.0
965.0
963.0
960.0
959.0
963.0
961.0
958.0
961.0
963.0
968.0
971.0
971.0
967.0
961.0
952.0
948.0
950.0
965.0
988.0
1026.0
1078.0
1141.0
1213.0
1274.0
1312.0
1311.0
1259.0
1166.0
1069.0
976.0
910.0
891.0
915.0
953.0
979.0
994.0
997.0
995.0
987.0
984.0
984.0
979.0
980.0
979.0
975.0
975.0
976.0
975.0
977.0
980.0
980.0
981.0
981.0
978.0
968.0
957.0
952.0
947.0
949.0
949.0
953.0
955.0
953.0
951.0
947.0
951.0
952.0
952.0
951.0
955.0
956.0
956.0
959.0
958.0
955.0
960.0
959.0
971.0
971.0
966.0
968.0
971.0
975.0
981.0
985.0
986.0
985.0
982.0
987.0
991.0
1003.0
1006.0
1005.0
1002.0
1003.0
1003.0
1004.0
1003.0
1004.0
1005.0
1009.0
1009.0
1009.0
1005.0
1000.0
996.0
995.0
994.0
994.0
991.0
985.0
982.0
981.0
980.0
979.0
975.0
970.0
965.0
956.0
958.0
961.0
963.0
957.0
951.0
954.0
956.0
953.0
950.0
952.0
953.0
956.0
955.0
947.0
942.0
942.0
946.0
952.0
955.0
956.0
955.0
954.0
952.0
955.0
957.0
959.0
962.0
958.0
953.0
954.0
958.0
962.0
960.0
959.0
958.0
959.0
962.0
966.0
962.0
962.0
958.0
959.0
960.0
958.0
958.0
960.0
964.0
972.0
978.0
985.0
988.0
984.0
984.0
984.0
984.0
983.0
981.0
984.0
986.0
986.0
987.0
983.0
977.0
977.0
977.0
982.0
984.0
981.0
973.0
969.0
967.0
970.0
973.0
973.0
962.0
955.0
949.0
951.0
953.0
954.0
956.0
952.0
953.0
954.0
951.0
946.0
943.0
943.0
944.0
948.0
948.0
949.0
945.0
944.0
945.0
950.0
954.0
954.0
952.0
949.0
944.0
942.0
947.0
951.0
950.0
944.0
936.0
933.0
940.0
949.0
957.0
975.0
1006.0
1049.0
1098.0
1150.0
1200.0
1244.0
1268.0
1256.0
1206.0
1137.0
1051.0
959.0
875.0
833.0
838.0
862.0
883.0
900.0
913.0
922.0
933.0
940.0
945.0
943.0
937.0
937.0
940.0
940.0
941.0
940.0
940.0
943.0
944.0
941.0
943.0
948.0
947.0
948.0
945.0
948.0
949.0
949.0
949.0
948.0
946.0
952.0
951.0
952.0
952.0
953.0
955.0
958.0
958.0
955.0
956.0
962.0
966.0
969.0
973.0
977.0
975.0
971.0
975.0
980.0
986.0
985.0
982.0
983.0
989.0
996.0
996.0
995.0
997.0
1002.0
1006.0
1009.0
1010.0
1009.0
1011.0
1014.0
1022.0
1027.0
1033.0
1036.0
1033.0
1035.0
1036.0
1040.0
1041.0
1042.0
1040.0
1045.0
1050.0
1054.0
1047.0
1037.0
1036.0
1037.0
1042.0
1041.0
1033.0
1019.0
1016.0
1011.0
1008.0
1003.0
995.0
985.0
975.0
970.0
966.0
963.0
963.0
959.0
953.0
952.0
952.0
954.0
953.0
953.0
952.0
956.0
962.0
958.0
954.0
946.0
941.0
941.0
949.0
952.0
954.0
950.0
947.0
944.0
945.0
947.0
942.0
934.0
934.0
938.0
942.0
947.0
944.0
942.0
944.0
947.0
949.0
947.0
942.0
940.0
941.0
941.0
946.0
942.0
941.0
941.0
944.0
947.0
949.0
952.0
947.0
946.0
945.0
950.0
956.0
952.0
942.0
938.0
936.0
934.0
931.0
931.0
936.0
950.0
974.0
1006.0
1052.0
1106.0
1163.0
1206.0
1224.0
1205.0
1151.0
1073.0
983.0
897.0
848.0
846.0
871.0
897.0
918.0
928.0
939.0
942.0
946.0
948.0
944.0
941.0
941.0
946.0
951.0
950.0
942.0
936.0
934.0
936.0
939.0
937.0
934.0
930.0
934.0
940.0
946.0
947.0
946.0
942.0
936.0
939.0
946.0
948.0
947.0
947.0
954.0
961.0
969.0
974.0
981.0
983.0
984.0
985.0
985.0
985.0
990.0
993.0
993.0
1000.0
1004.0
1006.0
1005.0
1006.0
1012.0
1017.0
1018.0
1018.0
1013.0
1012.0
1013.0
1016.0
1020.0
1019.0
1015.0
1008.0
1000.0
1000.0
1004.0
1006.0
1003.0
999.0
997.0
999.0
996.0
994.0
988.0
982.0
981.0
979.0
976.0
973.0
967.0
960.0
952.0
953.0
955.0
956.0
952.0
950.0
947.0
945.0
936.0
932.0
928.0
926.0
927.0
931.0
932.0
932.0
926.0
922.0
926.0
925.0
927.0
928.0
927.0
924.0
927.0
927.0
929.0
929.0
930.0
929.0
931.0
936.0
936.0
930.0
924.0
922.0
923.0
928.0
932.0
934.0
934.0
934.0
936.0
943.0
947.0
945.0
935.0
932.0
939.0
952.0
975.0
1011.0
1046.0
1088.0
1137.0
1193.0
1237.0
1251.0
1221.0
1153.0
1070.0
984.0
902.0
840.0
824.0
843.0
867.0
891.0
914.0
928.0
931.0
928.0
926.0
925.0
927.0
925.0
925.0
919.0
913.0
913.0
922.0
931.0
928.0
924.0
919.0
916.0
919.0
922.0
921.0
920.0
921.0
922.0
924.0
924.0
922.0
924.0
933.0
940.0
946.0
947.0
948.0
948.0
949.0
949.0
949.0
949.0
953.0
957.0
963.0
969.0
971.0
969.0
966.0
965.0
975.0
977.0
978.0
978.0
983.0
985.0
981.0
978.0
984.0
981.0
978.0
976.0
977.0
980.0
982.0
985.0
987.0
984.0
981.0
982.0
983.0
988.0
987.0
984.0
978.0
975.0
975.0
972.0
968.0
963.0
956.0
953.0
951.0
949.0
947.0
944.0
936.0
934.0
932.0
930.0
925.0
920.0
914.0
910.0
912.0
910.0
909.0
910.0
917.0
919.0
918.0
918.0
921.0
921.0
917.0
910.0
908.0
909.0
909.0
908.0
903.0
902.0
906.0
912.0
911.0
910.0
908.0
911.0
913.0
915.0
915.0
913.0
910.0
910.0
917.0
922.0
920.0
914.0
911.0
909.0
919.0
927.0
943.0
966.0
999.0
1048.0
1104.0
1161.0
1208.0
1229.0
1205.0
1144.0
1064.0
976.0
888.0
832.0
819.0
838.0
864.0
886.0
902.0
904.0
900.0
897.0
894.0
899.0
897.0
896.0
893.0
894.0
897.0
897.0
896.0
893.0
892.0
895.0
897.0
897.0
891.0
886.0
888.0
893.0
900.0
901.0
904.0
905.0
907.0
910.0
911.0
913.0
916.0
919.0
922.0
930.0
935.0
933.0
929.0
921.0
917.0
921.0
929.0
931.0
933.0
934.0
938.0
945.0
947.0
945.0
942.0
938.0
940.0
943.0
940.0
931.0
928.0
927.0
930.0
933.0
941.0
942.0
937.0
933.0
931.0
935.0
937.0
936.0
935.0
934.0
931.0
927.0
931.0
932.0
929.0
926.0
925.0
921.0
920.0
918.0
917.0
910.0
904.0
900.0
897.0
893.0
890.0
891.0
891.0
892.0
891.0
887.0
882.0
879.0
879.0
884.0
891.0
891.0
890.0
888.0
881.0
876.0
880.0
885.0
888.0
892.0
889.0
889.0
892.0
898.0
902.0
898.0
895.0
890.0
891.0
893.0
891.0
889.0
889.0
891.0
899.0
898.0
896.0
892.0
898.0
911.0
930.0
959.0
993.0
1036.0
1086.0
1135.0
1182.0
1215.0
1206.0
1161.0
1091.0
1014.0
930.0
854.0
813.0
809.0
826.0
845.0
866.0
884.0
891.0
892.0
892.0
891.0
886.0
887.0
886.0
885.0
884.0
884.0
884.0
882.0
880.0
876.0
879.0
885.0
891.0
901.0
905.0
901.0
898.0
897.0
900.0
903.0
904.0
902.0
905.0
910.0
910.0
914.0
914.0
916.0
921.0
929.0
928.0
928.0
926.0
924.0
926.0
926.0
927.0
931.0
928.0
922.0
921.0
920.0
924.0
925.0
928.0
928.0
932.0
940.0
943.0
940.0
935.0
932.0
935.0
940.0
943.0
943.0
945.0
947.0
948.0
953.0
953.0
952.0
948.0
946.0
945.0
940.0
934.0
932.0
925.0
920.0
915.0
909.0
909.0
916.0
920.0
917.0
910.0
904.0
905.0
909.0
904.0
900.0
894.0
895.0
896.0
900.0
900.0
903.0
904.0
909.0
912.0
907.0
899.0
898.0
906.0
914.0
918.0
915.0
907.0
900.0
900.0
906.0
911.0
913.0
914.0
916.0
920.0
926.0
931.0
930.0
919.0
911.0
916.0
939.0
975.0
1021.0
1072.0
1119.0
1170.0
1220.0
1254.0
1250.0
1197.0
1110.0
1017.0
922.0
854.0
830.0
843.0
867.0
888.0
904.0
912.0
911.0
907.0
903.0
901.0
898.0
901.0
905.0
906.0
906.0
902.0
900.0
894.0
896.0
896.0
899.0
905.0
911.0
914.0
909.0
906.0
906.0
914.0
921.0
927.0
930.0
924.0
922.0
920.0
923.0
931.0
931.0
931.0
924.0
928.0
934.0
937.0
941.0
940.0
939.0
934.0
929.0
934.0
941.0
941.0
935.0
931.0
930.0
931.0
936.0
934.0
938.0
939.0
939.0
940.0
944.0
943.0
944.0
948.0
954.0
954.0
953.0
948.0
950.0
950.0
953.0
951.0
946.0
945.0
944.0
943.0
947.0
949.0
942.0
935.0
932.0
930.0
926.0
922.0
923.0
922.0
914.0
911.0
913.0
916.0
923.0
925.0
919.0
911.0
907.0
917.0
923.0
927.0
922.0
918.0
920.0
922.0
919.0
922.0
927.0
930.0
930.0
929.0
928.0
923.0
915.0
916.0
919.0
929.0
931.0
934.0
932.0
930.0
934.0
932.0
933.0
934.0
937.0
936.0
941.0
959.0
988.0
1032.0
1080.0
1135.0
1194.0
1245.0
1269.0
1246.0
1183.0
1098.0
1003.0
906.0
847.0
832.0
852.0
876.0
906.0
926.0
932.0
926.0
920.0
922.0
925.0
928.0
926.0
922.0
924.0
932.0
936.0
935.0
937.0
940.0
935.0
936.0
936.0
932.0
933.0
936.0
939.0
939.0
940.0
935.0
937.0
935.0
937.0
938.0
944.0
947.0
947.0
946.0
945.0
950.0
947.0
944.0
941.0
942.0
942.0
938.0
938.0
935.0
941.0
944.0
944.0
948.0
953.0
963.0
966.0
965.0
957.0
950.0
952.0
958.0
961.0
963.0
968.0
970.0
971.0
975.0
976.0
978.0
981.0
981.0
980.0
980.0
978.0
979.0
975.0
968.0
964.0
963.0
965.0
965.0
960.0
953.0
950.0
948.0
942.0
939.0
935.0
929.0
929.0
934.0
936.0
935.0
927.0
925.0
928.0
932.0
931.0
923.0
925.0
925.0
931.0
937.0
937.0
938.0
936.0
936.0
935.0
935.0
933.0
931.0
926.0
930.0
933.0
939.0
944.0
944.0
943.0
941.0
940.0
943.0
947.0
950.0
950.0
955.0
969.0
1003.0
1039.0
1082.0
1126.0
1179.0
1240.0
1292.0
1315.0
1292.0
1214.0
1109.0
1007.0
912.0
863.0
858.0
884.0
908.0
923.0
926.0
931.0
932.0
934.0
929.0
926.0
918.0
912.0
909.0
915.0
922.0
928.0
932.0
932.0
931.0
928.0
926.0
933.0
936.0
938.0
933.0
930.0
929.0
933.0
933.0
934.0
931.0
926.0
925.0
933.0
934.0
928.0
923.0
920.0
922.0
926.0
927.0
925.0
924.0
923.0
925.0
923.0
922.0
922.0
924.0
925.0
929.0
931.0
934.0
939.0
939.0
940.0
941.0
945.0
942.0
939.0
933.0
933.0
937.0
939.0
939.0
940.0
943.0
942.0
942.0
940.0
944.0
943.0
942.0
939.0
941.0
939.0
938.0
939.0
940.0
936.0
934.0
933.0
934.0
931.0
925.0
921.0
916.0
916.0
919.0
918.0
916.0
911.0
911.0
916.0
919.0
921.0
919.0
917.0
915.0
916.0
915.0
920.0
921.0
915.0
908.0
912.0
915.0
918.0
923.0
924.0
923.0
923.0
921.0
924.0
923.0
917.0
916.0
918.0
924.0
928.0
928.0
931.0
932.0
935.0
938.0
935.0
930.0
937.0
955.0
988.0
1024.0
1074.0
1127.0
1180.0
1232.0
1269.0
1264.0
1203.0
1097.0
982.0
886.0
830.0
830.0
862.0
892.0
909.0
918.0
922.0
928.0
932.0
933.0
932.0
932.0
930.0
926.0
929.0
929.0
925.0
928.0
930.0
937.0
936.0
931.0
923.0
919.0
922.0
927.0
932.0
933.0
929.0
926.0
925.0
926.0
923.0
922.0
919.0
916.0
919.0
920.0
923.0
922.0
921.0
924.0
925.0
932.0
938.0
937.0
930.0
930.0
933.0
938.0
939.0
938.0
936.0
936.0
936.0
939.0
944.0
950.0
951.0
952.0
953.0
956.0
960.0
962.0
962.0
960.0
958.0
962.0
964.0
962.0
959.0
954.0
954.0
952.0
949.0
945.0
940.0
937.0
936.0
933.0
936.0
933.0
925.0
920.0
920.0
923.0
924.0
923.0
919.0
913.0
916.0
921.0
923.0
923.0
920.0
917.0
917.0
924.0
924.0
920.0
919.0
918.0
919.0
921.0
920.0
923.0
924.0
923.0
924.0
926.0
931.0
932.0
933.0
932.0
933.0
941.0
943.0
940.0
938.0
943.0
959.0
988.0
1026.0
1072.0
1123.0
1173.0
1229.0
1279.0
1302.0
1269.0
1192.0
1090.0
994.0
912.0
863.0
863.0
885.0
913.0
925.0
930.0
934.0
932.0
927.0
925.0
926.0
928.0
933.0
936.0
934.0
929.0
932.0
938.0
941.0
939.0
938.0
939.0
936.0
935.0
937.0
935.0
934.0
931.0
931.0
930.0
930.0
925.0
925.0
921.0
921.0
921.0
921.0
917.0
915.0
913.0
914.0
915.0
920.0
920.0
922.0
922.0
921.0
926.0
932.0
936.0
933.0
933.0
934.0
938.0
938.0
936.0
934.0
934.0
938.0
943.0
944.0
939.0
935.0
937.0
938.0
937.0
943.0
945.0
948.0
948.0
948.0
945.0
947.0
948.0
944.0
941.0
938.0
936.0
936.0
934.0
931.0
928.0
929.0
923.0
919.0
915.0
914.0
916.0
915.0
916.0
917.0
918.0
918.0
921.0
923.0
924.0
924.0
920.0
913.0
906.0
907.0
913.0
918.0
917.0
916.0
918.0
918.0
919.0
919.0
921.0
919.0
921.0
922.0
927.0
931.0
930.0
927.0
925.0
925.0
929.0
936.0
956.0
985.0
1021.0
1075.0
1131.0
1190.0
1244.0
1279.0
1281.0
1237.0
1152.0
1053.0
959.0
881.0
841.0
853.0
884.0
915.0
931.0
933.0
932.0
925.0
924.0
923.0
921.0
920.0
921.0
928.0
930.0
932.0
936.0
934.0
932.0
935.0
936.0
941.0
941.0
940.0
934.0
933.0
932.0
937.0
937.0
936.0
933.0
931.0
931.0
935.0
939.0
934.0
925.0
923.0
925.0
930.0
926.0
924.0
924.0
930.0
930.0
931.0
929.0
931.0
935.0
941.0
942.0
945.0
944.0
946.0
948.0
950.0
953.0
956.0
956.0
960.0
962.0
968.0
973.0
976.0
976.0
970.0
966.0
969.0
975.0
976.0
975.0
970.0
969.0
968.0
966.0
964.0
960.0
958.0
951.0
945.0
944.0
944.0
941.0
937.0
931.0
926.0
929.0
933.0
930.0
929.0
924.0
921.0
923.0
925.0
923.0
922.0
920.0
922.0
925.0
926.0
929.0
926.0
923.0
922.0
925.0
929.0
931.0
932.0
930.0
928.0
922.0
923.0
929.0
932.0
932.0
932.0
932.0
936.0
938.0
941.0
953.0
975.0
1012.0
1059.0
1108.0
1164.0
1223.0
1273.0
1292.0
1247.0
1144.0
1026.0
925.0
862.0
857.0
889.0
920.0
932.0
937.0
938.0
941.0
937.0
929.0
922.0
918.0
922.0
925.0
928.0
932.0
935.0
939.0
940.0
942.0
944.0
944.0
936.0
935.0
936.0
941.0
939.0
935.0
932.0
934.0
936.0
939.0
940.0
939.0
935.0
929.0
931.0
931.0
929.0
927.0
925.0
929.0
933.0
937.0
939.0
937.0
935.0
932.0
930.0
930.0
936.0
942.0
943.0
938.0
937.0
939.0
943.0
942.0
946.0
948.0
949.0
951.0
953.0
954.0
954.0
949.0
950.0
960.0
963.0
956.0
942.0
939.0
947.0
948.0
945.0
940.0
935.0
927.0
928.0
930.0
932.0
933.0
927.0
924.0
919.0
919.0
924.0
924.0
922.0
918.0
916.0
919.0
919.0
919.0
920.0
919.0
924.0
926.0
928.0
924.0
920.0
921.0
919.0
924.0
925.0
929.0
927.0
927.0
926.0
930.0
937.0
941.0
940.0
939.0
937.0
944.0
960.0
981.0
1014.0
1058.0
1110.0
1169.0
1226.0
1266.0
1273.0
1228.0
1142.0
1038.0
949.0
875.0
844.0
857.0
891.0
920.0
936.0
939.0
934.0
933.0
934.0
930.0
928.0
926.0
926.0
926.0
930.0
936.0
942.0
944.0
943.0
939.0
939.0
945.0
950.0
949.0
942.0
941.0
944.0
950.0
955.0
952.0
947.0
942.0
945.0
947.0
946.0
942.0
939.0
940.0
943.0
951.0
956.0
958.0
957.0
955.0
957.0
966.0
970.0
970.0
969.0
972.0
975.0
982.0
987.0
984.0
986.0
990.0
990.0
990.0
993.0
992.0
991.0
992.0
993.0
987.0
983.0
977.0
972.0
966.0
963.0
960.0
957.0
954.0
952.0
946.0
945.0
947.0
947.0
944.0
938.0
936.0
936.0
940.0
940.0
940.0
937.0
933.0
933.0
938.0
941.0
934.0
930.0
933.0
935.0
934.0
939.0
940.0
937.0
938.0
940.0
947.0
950.0
949.0
950.0
947.0
948.0
949.0
949.0
952.0
951.0
953.0
965.0
983.0
1013.0
1050.0
1093.0
1138.0
1191.0
1245.0
1285.0
1295.0
1253.0
1174.0
1078.0
986.0
908.0
864.0
866.0
897.0
929.0
947.0
952.0
950.0
945.0
941.0
939.0
942.0
940.0
934.0
931.0
927.0
932.0
934.0
940.0
944.0
945.0
947.0
949.0
949.0
951.0
951.0
953.0
952.0
953.0
951.0
952.0
950.0
954.0
953.0
953.0
953.0
954.0
952.0
948.0
945.0
944.0
948.0
949.0
947.0
944.0
940.0
938.0
938.0
939.0
939.0
942.0
942.0
947.0
952.0
954.0
957.0
954.0
958.0
953.0
952.0
954.0
958.0
956.0
959.0
959.0
963.0
963.0
961.0
959.0
961.0
963.0
965.0
964.0
960.0
960.0
960.0
958.0
955.0
954.0
951.0
945.0
941.0
936.0
934.0
939.0
941.0
938.0
934.0
934.0
937.0
938.0
936.0
931.0
930.0
932.0
934.0
935.0
934.0
927.0
927.0
927.0
930.0
937.0
934.0
935.0
936.0
933.0
932.0
932.0
936.0
935.0
935.0
932.0
935.0
939.0
943.0
945.0
942.0
942.0
945.0
949.0
957.0
974.0
1003.0
1048.0
1096.0
1142.0
1198.0
1247.0
1268.0
1240.0
1167.0
1078.0
987.0
907.0
857.0
852.0
880.0
910.0
933.0
938.0
941.0
939.0
941.0
941.0
939.0
937.0
936.0
937.0
934.0
934.0
933.0
933.0
932.0
935.0
942.0
946.0
948.0
949.0
949.0
950.0
952.0
954.0
953.0
952.0
955.0
956.0
955.0
957.0
959.0
959.0
964.0
969.0
975.0
974.0
973.0
970.0
968.0
970.0
969.0
971.0
969.0
969.0
972.0
970.0
971.0
972.0
973.0
976.0
979.0
982.0
989.0
994.0
995.0
995.0
998.0
1008.0
1009.0
1010.0
1009.0
1012.0
1010.0
1014.0
1017.0
1021.0
1018.0
1011.0
1006.0
1002.0
998.0
996.0
993.0
991.0
987.0
983.0
980.0
980.0
974.0
969.0
965.0
961.0
959.0
959.0
956.0
951.0
944.0
941.0
941.0
946.0
947.0
946.0
946.0
947.0
948.0
947.0
945.0
945.0
943.0
948.0
953.0
958.0
957.0
952.0
942.0
939.0
946.0
953.0
958.0
953.0
951.0
948.0
951.0
952.0
954.0
950.0
945.0
954.0
975.0
1001.0
1037.0
1084.0
1137.0
1193.0
1246.0
1272.0
1260.0
1204.0
1123.0
1036.0
957.0
895.0
870.0
875.0
897.0
924.0
941.0
951.0
953.0
953.0
950.0
944.0
942.0
945.0
946.0
945.0
937.0
937.0
934.0
934.0
934.0
938.0
938.0
941.0
946.0
951.0
954.0
958.0
954.0
954.0
955.0
962.0
966.0
968.0
962.0
956.0
951.0
957.0
963.0
964.0
962.0
961.0
965.0
971.0
973.0
967.0
962.0
961.0
963.0
965.0
964.0
957.0
953.0
953.0
958.0
964.0
969.0
967.0
967.0
968.0
974.0
974.0
975.0
969.0
964.0
967.0
975.0
978.0
981.0
981.0
979.0
977.0
981.0
983.0
981.0
982.0
979.0
975.0
973.0
972.0
964.0
954.0
944.0
942.0
946.0
947.0
946.0
943.0
948.0
948.0
948.0
945.0
943.0
939.0
939.0
939.0
943.0
942.0
940.0
938.0
935.0
939.0
946.0
949.0
945.0
945.0
945.0
949.0
950.0
950.0
945.0
942.0
939.0
939.0
941.0
946.0
947.0
947.0
945.0
951.0
953.0
956.0
958.0
956.0
952.0
951.0
953.0
961.0
975.0
991.0
1016.0
1050.0
1092.0
1139.0
1181.0
1218.0
1243.0
1241.0
1206.0
1140.0
1063.0
982.0
912.0
870.0
864.0
877.0
897.0
917.0
933.0
943.0
946.0
948.0
947.0
945.0
942.0
945.0
948.0
950.0
947.0
949.0
944.0
944.0
952.0
956.0
960.0
961.0
960.0
957.0
953.0
956.0
960.0
961.0
958.0
957.0
960.0
967.0
972.0
970.0
970.0
969.0
970.0
974.0
976.0
975.0
972.0
971.0
965.0
966.0
966.0
967.0
966.0
968.0
972.0
978.0
979.0
972.0
974.0
981.0
988.0
996.0
999.0
998.0
1000.0
1000.0
1003.0
1003.0
1001.0
1000.0
1006.0
1016.0
1023.0
1022.0
1020.0
1020.0
1016.0
1013.0
1011.0
1009.0
1007.0
1001.0
994.0
993.0
995.0
993.0
987.0
980.0
974.0
972.0
968.0
963.0
960.0
957.0
955.0
955.0
958.0
957.0
953.0
949.0
946.0
945.0
947.0
952.0
954.0
953.0
945.0
943.0
947.0
950.0
956.0
957.0
956.0
954.0
954.0
956.0
955.0
952.0
950.0
947.0
949.0
954.0
957.0
956.0
954.0
952.0
953.0
959.0
960.0
955.0
958.0
974.0
1001.0
1040.0
1082.0
1127.0
1175.0
1225.0
1270.0
1296.0
1280.0
1218.0
1129.0
1033.0
944.0
880.0
867.0
880.0
897.0
918.0
936.0
945.0
947.0
947.0
944.0
944.0
939.0
940.0
937.0
935.0
935.0
936.0
940.0
943.0
945.0
948.0
952.0
959.0
957.0
955.0
951.0
947.0
948.0
949.0
955.0
957.0
960.0
959.0
960.0
962.0
966.0
967.0
964.0
962.0
964.0
968.0
970.0
971.0
966.0
966.0
962.0
962.0
960.0
963.0
958.0
953.0
950.0
954.0
960.0
964.0
961.0
962.0
963.0
967.0
969.0
976.0
984.0
986.0
982.0
976.0
977.0
984.0
986.0
983.0
980.0
982.0
984.0
986.0
988.0
986.0
983.0
976.0
974.0
976.0
975.0
973.0
969.0
967.0
967.0
967.0
961.0
954.0
956.0
958.0
957.0
957.0
956.0
957.0
955.0
955.0
956.0
954.0
951.0
950.0
952.0
953.0
953.0
955.0
954.0
950.0
947.0
950.0
955.0
962.0
960.0
955.0
953.0
955.0
962.0
964.0
961.0
953.0
951.0
957.0
963.0
968.0
969.0
968.0
967.0
971.0
974.0
975.0
973.0
973.0
976.0
987.0
1004.0
1027.0
1055.0
1090.0
1126.0
1171.0
1220.0
1264.0
1285.0
1276.0
1240.0
1179.0
1108.0
1033.0
950.0
891.0
876.0
893.0
912.0
931.0
946.0
955.0
963.0
967.0
971.0
974.0
973.0
970.0
963.0
964.0
965.0
970.0
972.0
971.0
971.0
968.0
970.0
975.0
979.0
980.0
978.0
978.0
980.0
978.0
979.0
976.0
974.0
974.0
975.0
978.0
975.0
971.0
974.0
979.0
989.0
988.0
989.0
987.0
983.0
977.0
971.0
970.0
974.0
976.0
978.0
980.0
984.0
990.0
989.0
987.0
984.0
991.0
998.0
1006.0
1008.0
1011.0
1013.0
1012.0
1009.0
1009.0
1011.0
1013.0
1014.0
1019.0
1028.0
1028.0
1025.0
1025.0
1024.0
1023.0
1026.0
1025.0
1020.0
1014.0
1010.0
1009.0
1010.0
1005.0
1005.0
1000.0
994.0
989.0
992.0
984.0
975.0
970.0
971.0
974.0
978.0
979.0
976.0
972.0
967.0
963.0
966.0
972.0
973.0
971.0
966.0
960.0
967.0
975.0
979.0
978.0
974.0
972.0
970.0
968.0
966.0
962.0
961.0
969.0
973.0
976.0
968.0
968.0
970.0
971.0
977.0
978.0
977.0
982.0
984.0
984.0
982.0
981.0
982.0
986.0
1000.0
1017.0
1039.0
1069.0
1107.0
1152.0
1204.0
1257.0
1297.0
1315.0
1286.0
1214.0
1118.0
1021.0
937.0
889.0
880.0
897.0
921.0
941.0
954.0
957.0
959.0
962.0
964.0
961.0
965.0
970.0
975.0
971.0
966.0
964.0
967.0
973.0
977.0
971.0
963.0
959.0
959.0
961.0
969.0
971.0
970.0
966.0
967.0
968.0
974.0
973.0
968.0
964.0
960.0
958.0
957.0
957.0
955.0
955.0
954.0
952.0
954.0
956.0
963.0
967.0
970.0
969.0
970.0
969.0
963.0
965.0
977.0
985.0
985.0
977.0
968.0
971.0
976.0
982.0
982.0
985.0
988.0
986.0
986.0
989.0
991.0
995.0
992.0
989.0
986.0
991.0
992.0
993.0
994.0
993.0
989.0
984.0
981.0
978.0
975.0
974.0
972.0
970.0
968.0
966.0
959.0
956.0
957.0
959.0
963.0
962.0
954.0
950.0
948.0
951.0
951.0
955.0
955.0
