# Simple Text Format
# Sampling Rate (Hz):= 360.00
# Resolution:= 12
# Labels:= ECG
936.0
938.0
936.0
938.0
935.0
938.0
935.0
934.0
930.0
929.0
925.0
921.0
924.0
928.0
931.0
932.0
929.0
932.0
931.0
931.0
928.0
927.0
927.0
924.0
923.0
921.0
920.0
920.0
923.0
926.0
928.0
929.0
928.0
922.0
920.0
918.0
916.0
917.0
917.0
917.0
918.0
919.0
916.0
918.0
914.0
916.0
915.0
912.0
916.0
913.0
914.0
916.0
917.0
919.0
919.0
920.0
919.0
917.0
915.0
913.0
914.0
914.0
915.0
916.0
915.0
918.0
916.0
914.0
916.0
914.0
913.0
911.0
910.0
911.0
911.0
912.0
911.0
914.0
912.0
916.0
915.0
915.0
913.0
914.0
912.0
911.0
914.0
915.0
918.0
920.0
919.0
915.0
915.0
914.0
915.0
912.0
912.0
915.0
916.0
917.0
915.0
914.0
914.0
916.0
916.0
917.0
916.0
914.0
914.0
914.0
917.0
917.0
923.0
924.0
924.0
927.0
924.0
923.0
926.0
927.0
929.0
934.0
936.0
938.0
938.0
936.0
934.0
934.0
933.0
931.0
928.0
925.0
925.0
924.0
925.0
923.0
929.0
930.0
931.0
929.0
927.0
923.0
919.0
915.0
912.0
913.0
915.0
916.0
921.0
921.0
922.0
920.0
922.0
917.0
912.0
917.0
939.0
982.0
1054.0
1146.0
1244.0
1331.0
1388.0
1406.0
1384.0
1317.0
1203.0
1075.0
947.0
819.0
765.0
780.0
819.0
860.0
882.0
894.0
896.0
890.0
888.0
887.0
894.0
901.0
901.0
902.0
905.0
902.0
901.0
898.0
896.0
895.0
895.0
895.0
895.0
895.0
899.0
898.0
900.0
903.0
905.0
905.0
901.0
901.0
897.0
897.0
900.0
900.0
905.0
907.0
908.0
910.0
908.0
908.0
908.0
908.0
907.0
908.0
909.0
909.0
912.0
913.0
916.0
917.0
920.0
919.0
919.0
919.0
919.0
919.0
919.0
921.0
924.0
925.0
929.0
930.0
931.0
934.0
934.0
934.0
931.0
931.0
932.0
935.0
935.0
939.0
943.0
944.0
944.0
944.0
942.0
944.0
945.0
945.0
945.0
946.0
947.0
948.0
949.0
954.0
954.0
955.0
955.0
955.0
954.0
955.0
955.0
959.0
961.0
967.0
971.0
976.0
980.0
984.0
985.0
987.0
986.0
992.0
995.0
996.0
997.0
994.0
992.0
991.0
987.0
986.0
982.0
978.0
975.0
970.0
966.0
962.0
960.0
959.0
958.0
956.0
956.0
952.0
947.0
945.0
941.0
938.0
937.0
935.0
934.0
934.0
932.0
934.0
932.0
930.0
928.0
925.0
924.0
921.0
922.0
921.0
922.0
925.0
926.0
929.0
927.0
929.0
927.0
928.0
929.0
929.0
927.0
931.0
934.0
935.0
936.0
938.0
942.0
940.0
939.0
936.0
935.0
936.0
938.0
941.0
943.0
944.0
945.0
947.0
945.0
947.0
946.0
944.0
943.0
942.0
941.0
941.0
941.0
937.0
943.0
943.0
942.0
941.0
938.0
935.0
931.0
928.0
929.0
929.0
930.0
930.0
933.0
932.0
930.0
930.0
927.0
926.0
925.0
923.0
923.0
922.0
920.0
921.0
922.0
920.0
921.0
921.0
922.0
919.0
918.0
915.0
915.0
915.0
917.0
917.0
919.0
920.0
917.0
914.0
915.0
918.0
914.0
914.0
913.0
914.0
915.0
915.0
916.0
917.0
913.0
915.0
916.0
914.0
912.0
913.0
910.0
910.0
910.0
912.0
915.0
916.0
917.0
919.0
920.0
922.0
925.0
927.0
927.0
929.0
929.0
933.0
930.0
931.0
926.0
924.0
922.0
919.0
918.0
919.0
919.0
920.0
922.0
924.0
921.0
917.0
915.0
913.0
910.0
909.0
909.0
908.0
913.0
916.0
920.0
923.0
927.0
944.0
976.0
1031.0
1110.0
1201.0
1287.0
1351.0
1375.0
1358.0
1284.0
1162.0
1034.0
906.0
778.0
748.0
767.0
809.0
849.0
871.0
882.0
887.0
886.0
886.0
890.0
896.0
898.0
901.0
900.0
899.0
893.0
889.0
888.0
888.0
890.0
894.0
896.0
899.0
897.0
900.0
899.0
896.0
896.0
895.0
894.0
896.0
897.0
902.0
903.0
906.0
908.0
910.0
909.0
908.0
906.0
903.0
904.0
906.0
908.0
910.0
914.0
915.0
917.0
920.0
922.0
920.0
918.0
916.0
917.0
919.0
922.0
923.0
927.0
930.0
931.0
932.0
932.0
934.0
933.0
933.0
933.0
935.0
934.0
936.0
941.0
942.0
944.0
946.0
945.0
944.0
943.0
941.0
941.0
942.0
944.0
943.0
946.0
949.0
949.0
948.0
947.0
948.0
946.0
946.0
946.0
949.0
950.0
954.0
956.0
960.0
963.0
964.0
970.0
970.0
972.0
972.0
973.0
968.0
967.0
964.0
964.0
963.0
959.0
958.0
954.0
949.0
944.0
941.0
934.0
930.0
930.0
927.0
927.0
926.0
923.0
923.0
921.0
918.0
914.0
914.0
911.0
912.0
911.0
911.0
910.0
910.0
911.0
911.0
912.0
911.0
911.0
910.0
909.0
909.0
910.0
911.0
911.0
912.0
914.0
916.0
918.0
919.0
918.0
921.0
924.0
931.0
935.0
942.0
949.0
955.0
958.0
960.0
959.0
960.0
959.0
962.0
966.0
968.0
971.0
974.0
974.0
972.0
970.0
967.0
964.0
960.0
955.0
949.0
946.0
940.0
938.0
936.0
937.0
934.0
933.0
928.0
924.0
918.0
913.0
912.0
907.0
906.0
907.0
905.0
905.0
903.0
903.0
906.0
903.0
903.0
904.0
902.0
902.0
904.0
905.0
906.0
907.0
905.0
901.0
901.0
911.0
942.0
994.0
1072.0
1161.0
1251.0
1318.0
1350.0
1335.0
1271.0
1149.0
1021.0
893.0
765.0
715.0
732.0
776.0
823.0
855.0
875.0
882.0
884.0
883.0
884.0
887.0
890.0
892.0
893.0
890.0
889.0
890.0
892.0
894.0
897.0
898.0
897.0
897.0
896.0
896.0
896.0
895.0
894.0
895.0
892.0
894.0
897.0
897.0
899.0
899.0
899.0
900.0
898.0
898.0
898.0
900.0
905.0
905.0
910.0
908.0
912.0
915.0
913.0
912.0
914.0
914.0
916.0
915.0
918.0
920.0
922.0
926.0
928.0
928.0
930.0
930.0
929.0
933.0
934.0
935.0
939.0
940.0
945.0
945.0
946.0
946.0
949.0
950.0
952.0
960.0
966.0
972.0
976.0
977.0
980.0
981.0
983.0
988.0
988.0
996.0
1000.0
1003.0
1002.0
1004.0
1006.0
1009.0
1009.0
1008.0
1005.0
999.0
988.0
979.0
970.0
964.0
962.0
957.0
954.0
948.0
944.0
935.0
926.0
919.0
911.0
905.0
899.0
895.0
891.0
887.0
886.0
884.0
886.0
883.0
883.0
881.0
880.0
880.0
878.0
878.0
878.0
875.0
879.0
882.0
886.0
894.0
893.0
897.0
900.0
905.0
909.0
922.0
939.0
961.0
989.0
1032.0
1084.0
1149.0
1221.0
1287.0
1335.0
1351.0
1322.0
1237.0
1109.0
981.0
853.0
725.0
656.0
709.0
777.0
833.0
874.0
884.0
885.0
881.0
879.0
881.0
882.0
882.0
882.0
879.0
878.0
873.0
874.0
871.0
870.0
868.0
869.0
870.0
869.0
869.0
869.0
869.0
869.0
870.0
870.0
867.0
866.0
866.0
869.0
867.0
866.0
870.0
871.0
874.0
873.0
874.0
874.0
872.0
873.0
873.0
877.0
878.0
882.0
885.0
889.0
896.0
900.0
903.0
908.0
909.0
912.0
913.0
916.0
920.0
922.0
926.0
933.0
934.0
934.0
930.0
928.0
925.0
923.0
920.0
917.0
913.0
908.0
906.0
904.0
904.0
905.0
906.0
904.0
904.0
905.0
905.0
904.0
908.0
911.0
913.0
918.0
918.0
923.0
926.0
929.0
932.0
932.0
933.0
934.0
933.0
931.0
931.0
928.0
927.0
924.0
919.0
920.0
915.0
911.0
912.0
909.0
909.0
911.0
911.0
911.0
912.0
914.0
911.0
913.0
912.0
913.0
914.0
916.0
917.0
925.0
935.0
946.0
959.0
978.0
1002.0
1029.0
1059.0
1105.0
1156.0
1215.0
1277.0
1327.0
1351.0
1346.0
1298.0
1192.0
1064.0
936.0
808.0
680.0
675.0
727.0
790.0
845.0
876.0
890.0
889.0
883.0
879.0
877.0
874.0
876.0
874.0
871.0
870.0
866.0
865.0
864.0
864.0
863.0
863.0
859.0
859.0
857.0
857.0
855.0
856.0
858.0
855.0
857.0
859.0
858.0
856.0
854.0
853.0
852.0
850.0
850.0
856.0
859.0
858.0
861.0
860.0
856.0
856.0
857.0
857.0
858.0
858.0
857.0
857.0
858.0
859.0
860.0
862.0
862.0
861.0
858.0
853.0
849.0
849.0
849.0
850.0
849.0
852.0
854.0
852.0
853.0
851.0
850.0
849.0
850.0
849.0
853.0
857.0
857.0
862.0
865.0
869.0
876.0
882.0
887.0
887.0
892.0
896.0
904.0
909.0
913.0
914.0
920.0
923.0
922.0
921.0
919.0
915.0
916.0
915.0
914.0
917.0
917.0
920.0
920.0
916.0
913.0
911.0
908.0
905.0
905.0
906.0
907.0
907.0
908.0
912.0
914.0
915.0
916.0
914.0
915.0
916.0
915.0
912.0
911.0
910.0
916.0
917.0
918.0
919.0
918.0
915.0
915.0
913.0
912.0
911.0
910.0
909.0
909.0
912.0
913.0
912.0
911.0
906.0
906.0
904.0
904.0
903.0
900.0
900.0
899.0
899.0
899.0
899.0
901.0
898.0
897.0
896.0
897.0
897.0
898.0
899.0
905.0
909.0
911.0
911.0
912.0
910.0
908.0
908.0
908.0
910.0
913.0
917.0
914.0
911.0
907.0
901.0
900.0
898.0
898.0
898.0
897.0
899.0
897.0
896.0
894.0
892.0
890.0
888.0
884.0
883.0
879.0
874.0
874.0
873.0
873.0
874.0
877.0
877.0
878.0
881.0
880.0
879.0
876.0
876.0
870.0
864.0
865.0
882.0
923.0
987.0
1077.0
1178.0
1273.0
1342.0
1369.0
1350.0
1282.0
1158.0
1030.0
902.0
774.0
710.0
729.0
774.0
815.0
841.0
853.0
851.0
847.0
847.0
848.0
856.0
865.0
869.0
873.0
870.0
867.0
863.0
862.0
860.0
860.0
863.0
862.0
861.0
861.0
861.0
863.0
867.0
866.0
868.0
866.0
865.0
866.0
865.0
865.0
865.0
870.0
871.0
874.0
875.0
874.0
873.0
871.0
872.0
871.0
871.0
875.0
876.0
877.0
880.0
880.0
884.0
884.0
886.0
883.0
885.0
883.0
886.0
886.0
887.0
890.0
892.0
894.0
896.0
898.0
898.0
897.0
894.0
894.0
894.0
897.0
899.0
901.0
901.0
905.0
903.0
902.0
900.0
899.0
901.0
899.0
900.0
899.0
900.0
903.0
906.0
908.0
913.0
914.0
917.0
919.0
922.0
927.0
931.0
935.0
940.0
943.0
948.0
950.0
948.0
946.0
942.0
939.0
934.0
931.0
926.0
924.0
923.0
921.0
919.0
916.0
914.0
908.0
905.0
902.0
898.0
895.0
891.0
890.0
890.0
889.0
888.0
888.0
888.0
887.0
884.0
884.0
882.0
881.0
881.0
880.0
882.0
884.0
883.0
888.0
888.0
890.0
889.0
887.0
889.0
890.0
890.0
893.0
894.0
898.0
897.0
900.0
900.0
902.0
899.0
901.0
901.0
901.0
901.0
898.0
898.0
902.0
906.0
907.0
904.0
906.0
904.0
902.0
901.0
898.0
898.0
898.0
899.0
898.0
901.0
900.0
903.0
901.0
898.0
893.0
889.0
887.0
883.0
885.0
885.0
888.0
890.0
891.0
891.0
889.0
888.0
885.0
883.0
882.0
881.0
879.0
880.0
882.0
882.0
884.0
885.0
884.0
881.0
881.0
879.0
877.0
877.0
878.0
878.0
876.0
878.0
879.0
881.0
877.0
879.0
876.0
875.0
873.0
874.0
872.0
875.0
876.0
878.0
878.0
878.0
880.0
878.0
875.0
875.0
875.0
874.0
874.0
872.0
876.0
878.0
879.0
879.0
879.0
877.0
874.0
872.0
873.0
871.0
874.0
875.0
878.0
878.0
881.0
880.0
874.0
876.0
877.0
877.0
876.0
876.0
876.0
876.0
879.0
877.0
875.0
877.0
879.0
880.0
876.0
878.0
877.0
875.0
876.0
877.0
879.0
882.0
885.0
886.0
885.0
889.0
889.0
888.0
889.0
891.0
892.0
896.0
899.0
901.0
902.0
906.0
905.0
908.0
909.0
907.0
901.0
897.0
893.0
891.0
893.0
895.0
899.0
901.0
899.0
898.0
895.0
887.0
882.0
879.0
877.0
878.0
882.0
884.0
884.0
886.0
883.0
886.0
884.0
884.0
880.0
883.0
881.0
884.0
896.0
928.0
981.0
1053.0
1148.0
1244.0
1322.0
1371.0
1378.0
1349.0
1271.0
1150.0
1022.0
894.0
769.0
737.0
753.0
789.0
823.0
846.0
855.0
856.0
853.0
854.0
854.0
860.0
868.0
871.0
869.0
867.0
864.0
863.0
862.0
863.0
864.0
864.0
866.0
868.0
870.0
871.0
870.0
869.0
868.0
867.0
866.0
868.0
869.0
871.0
874.0
877.0
877.0
881.0
880.0
878.0
878.0
878.0
877.0
878.0
880.0
882.0
881.0
881.0
884.0
887.0
888.0
887.0
888.0
888.0
888.0
888.0
890.0
893.0
896.0
896.0
899.0
902.0
900.0
901.0
899.0
898.0
901.0
902.0
903.0
904.0
907.0
907.0
910.0
910.0
909.0
909.0
909.0
906.0
903.0
903.0
902.0
903.0
905.0
908.0
905.0
909.0
908.0
911.0
910.0
910.0
912.0
908.0
915.0
918.0
924.0
928.0
933.0
937.0
936.0
941.0
945.0
949.0
949.0
949.0
947.0
945.0
945.0
944.0
945.0
941.0
939.0
935.0
931.0
928.0
922.0
920.0
917.0
914.0
911.0
910.0
914.0
910.0
906.0
907.0
902.0
900.0
898.0
900.0
897.0
897.0
897.0
896.0
895.0
897.0
900.0
898.0
898.0
898.0
897.0
897.0
898.0
897.0
904.0
907.0
912.0
913.0
915.0
915.0
915.0
914.0
914.0
914.0
915.0
916.0
920.0
922.0
926.0
927.0
925.0
924.0
923.0
920.0
920.0
921.0
922.0
921.0
923.0
923.0
926.0
926.0
925.0
925.0
924.0
921.0
913.0
914.0
915.0
915.0
917.0
915.0
917.0
915.0
911.0
909.0
911.0
910.0
907.0
906.0
905.0
906.0
908.0
908.0
908.0
906.0
905.0
902.0
904.0
901.0
898.0
899.0
900.0
901.0
902.0
901.0
904.0
902.0
898.0
896.0
896.0
892.0
896.0
895.0
898.0
896.0
898.0
901.0
902.0
903.0
900.0
898.0
896.0
895.0
895.0
889.0
893.0
895.0
894.0
896.0
899.0
900.0
897.0
894.0
890.0
889.0
889.0
890.0
895.0
898.0
899.0
896.0
898.0
899.0
899.0
900.0
894.0
892.0
893.0
894.0
894.0
896.0
899.0
901.0
902.0
899.0
900.0
896.0
895.0
899.0
902.0
911.0
913.0
918.0
920.0
919.0
921.0
921.0
920.0
919.0
917.0
913.0
911.0
906.0
907.0
907.0
907.0
912.0
915.0
916.0
915.0
913.0
910.0
900.0
899.0
895.0
893.0
893.0
898.0
903.0
906.0
907.0
909.0
907.0
906.0
908.0
907.0
915.0
931.0
967.0
1027.0
1105.0
1202.0
1290.0
1359.0
1394.0
1381.0
1326.0
1216.0
1088.0
960.0
832.0
704.0
705.0
756.0
812.0
851.0
871.0
873.0
868.0
864.0
863.0
870.0
877.0
884.0
895.0
895.0
896.0
889.0
891.0
889.0
888.0
883.0
885.0
888.0
890.0
892.0
892.0
895.0
896.0
897.0
897.0
896.0
894.0
895.0
894.0
896.0
899.0
901.0
904.0
908.0
906.0
908.0
908.0
906.0
906.0
908.0
904.0
909.0
909.0
912.0
912.0
916.0
918.0
920.0
922.0
920.0
920.0
918.0
918.0
919.0
922.0
925.0
927.0
928.0
929.0
929.0
933.0
929.0
930.0
928.0
927.0
927.0
930.0
930.0
932.0
935.0
936.0
936.0
931.0
929.0
930.0
926.0
925.0
926.0
929.0
930.0
935.0
934.0
940.0
940.0
943.0
945.0
945.0
944.0
946.0
951.0
957.0
958.0
960.0
959.0
958.0
956.0
956.0
950.0
944.0
941.0
935.0
932.0
929.0
927.0
929.0
927.0
927.0
923.0
921.0
915.0
912.0
908.0
905.0
906.0
905.0
907.0
907.0
910.0
911.0
914.0
920.0
920.0
928.0
929.0
931.0
930.0
932.0
937.0
945.0
951.0
956.0
958.0
961.0
961.0
959.0
956.0
954.0
952.0
946.0
946.0
944.0
942.0
942.0
940.0
940.0
939.0
936.0
932.0
931.0
927.0
923.0
921.0
921.0
920.0
921.0
919.0
917.0
915.0
913.0
911.0
910.0
910.0
908.0
909.0
910.0
909.0
910.0
907.0
908.0
908.0
909.0
905.0
901.0
893.0
882.0
878.0
890.0
924.0
982.0
1068.0
1169.0
1266.0
1341.0
1377.0
1372.0
1318.0
1204.0
1076.0
948.0
820.0
702.0
711.0
758.0
810.0
851.0
871.0
882.0
881.0
883.0
886.0
892.0
898.0
902.0
903.0
900.0
896.0
892.0
890.0
890.0
885.0
888.0
891.0
894.0
895.0
897.0
899.0
898.0
899.0
897.0
897.0
895.0
896.0
895.0
899.0
901.0
904.0
903.0
907.0
907.0
906.0
906.0
906.0
906.0
909.0
914.0
913.0
913.0
913.0
916.0
917.0
918.0
919.0
920.0
921.0
922.0
925.0
929.0
932.0
936.0
942.0
950.0
956.0
959.0
961.0
962.0
964.0
962.0
965.0
971.0
976.0
981.0
983.0
984.0
986.0
984.0
983.0
981.0
978.0
973.0
970.0
966.0
962.0
963.0
964.0
964.0
963.0
963.0
958.0
959.0
956.0
954.0
955.0
954.0
953.0
953.0
951.0
950.0
946.0
940.0
936.0
931.0
922.0
918.0
918.0
913.0
910.0
905.0
904.0
902.0
898.0
898.0
895.0
893.0
891.0
887.0
884.0
886.0
887.0
888.0
890.0
894.0
896.0
898.0
897.0
898.0
903.0
912.0
921.0
936.0
958.0
986.0
1019.0
1060.0
1110.0
1171.0
1238.0
1302.0
1341.0
1344.0
1303.0
1189.0
1061.0
933.0
805.0
677.0
662.0
721.0
790.0
846.0
879.0
891.0
895.0
892.0
891.0
893.0
892.0
890.0
890.0
884.0
883.0
880.0
878.0
878.0
875.0
876.0
876.0
879.0
880.0
882.0
880.0
879.0
877.0
876.0
873.0
874.0
875.0
876.0
877.0
879.0
882.0
883.0
883.0
883.0
883.0
884.0
883.0
883.0
883.0
883.0
884.0
886.0
889.0
893.0
893.0
895.0
894.0
893.0
895.0
896.0
900.0
905.0
911.0
919.0
925.0
927.0
926.0
928.0
927.0
930.0
931.0
936.0
938.0
938.0
941.0
939.0
940.0
941.0
940.0
941.0
940.0
937.0
935.0
932.0
931.0
932.0
939.0
945.0
950.0
954.0
954.0
953.0
951.0
948.0
943.0
942.0
939.0
938.0
936.0
934.0
931.0
932.0
929.0
929.0
927.0
924.0
922.0
918.0
916.0
918.0
918.0
918.0
920.0
922.0
923.0
922.0
923.0
923.0
923.0
925.0
926.0
930.0
932.0
938.0
942.0
952.0
960.0
978.0
998.0
1020.0
1051.0
1090.0
1141.0
1204.0
1269.0
1324.0
1358.0
1353.0
1291.0
1170.0
1042.0
914.0
786.0
667.0
692.0
752.0
814.0
861.0
884.0
892.0
889.0
883.0
879.0
882.0
886.0
889.0
892.0
891.0
887.0
884.0
883.0
880.0
880.0
879.0
874.0
874.0
870.0
869.0
867.0
870.0
870.0
872.0
872.0
873.0
874.0
874.0
874.0
872.0
873.0
872.0
872.0
873.0
876.0
878.0
880.0
881.0
880.0
880.0
881.0
879.0
877.0
880.0
881.0
880.0
881.0
882.0
885.0
887.0
884.0
885.0
883.0
880.0
876.0
878.0
879.0
876.0
878.0
878.0
882.0
883.0
881.0
880.0
878.0
878.0
876.0
876.0
880.0
883.0
889.0
892.0
896.0
902.0
901.0
906.0
911.0
915.0
920.0
928.0
933.0
942.0
947.0
951.0
952.0
954.0
957.0
961.0
959.0
961.0
957.0
952.0
946.0
941.0
938.0
932.0
927.0
924.0
919.0
915.0
911.0
910.0
909.0
908.0
908.0
908.0
907.0
908.0
909.0
910.0
909.0
907.0
906.0
909.0
908.0
907.0
907.0
910.0
908.0
911.0
913.0
915.0
915.0
915.0
915.0
914.0
910.0
907.0
906.0
896.0
887.0
878.0
880.0
907.0
960.0
1050.0
1162.0
1269.0
1345.0
1371.0
1343.0
1247.0
1119.0
991.0
863.0
743.0
746.0
788.0
834.0
866.0
881.0
885.0
882.0
879.0
879.0
879.0
885.0
888.0
886.0
881.0
878.0
875.0
872.0
871.0
870.0
870.0
873.0
876.0
878.0
882.0
879.0
881.0
880.0
877.0
877.0
877.0
877.0
878.0
881.0
887.0
890.0
892.0
890.0
892.0
893.0
891.0
892.0
891.0
893.0
893.0
897.0
897.0
900.0
901.0
901.0
902.0
902.0
901.0
901.0
899.0
899.0
899.0
900.0
900.0
903.0
903.0
903.0
903.0
899.0
896.0
899.0
899.0
900.0
899.0
902.0
904.0
906.0
908.0
906.0
906.0
909.0
911.0
913.0
916.0
919.0
924.0
930.0
935.0
940.0
945.0
950.0
955.0
954.0
951.0
947.0
944.0
942.0
941.0
939.0
938.0
936.0
934.0
930.0
926.0
924.0
920.0
915.0
917.0
917.0
913.0
914.0
913.0
913.0
913.0
913.0
914.0
913.0
912.0
910.0
909.0
912.0
909.0
912.0
914.0
914.0
914.0
917.0
916.0
913.0
911.0
910.0
909.0
910.0
910.0
913.0
917.0
917.0
917.0
918.0
918.0
915.0
917.0
914.0
914.0
913.0
912.0
911.0
913.0
913.0
914.0
914.0
913.0
912.0
912.0
906.0
905.0
907.0
905.0
905.0
906.0
907.0
910.0
907.0
906.0
904.0
904.0
898.0
898.0
898.0
898.0
899.0
898.0
900.0
900.0
900.0
899.0
897.0
895.0
895.0
893.0
893.0
894.0
894.0
895.0
895.0
894.0
896.0
896.0
897.0
893.0
891.0
890.0
889.0
889.0
892.0
893.0
895.0
896.0
896.0
894.0
893.0
891.0
890.0
888.0
890.0
890.0
892.0
889.0
890.0
893.0
891.0
894.0
890.0
890.0
886.0
887.0
889.0
890.0
891.0
891.0
891.0
892.0
894.0
894.0
893.0
890.0
886.0
887.0
884.0
887.0
888.0
891.0
893.0
892.0
890.0
892.0
892.0
892.0
891.0
889.0
888.0
891.0
896.0
896.0
900.0
904.0
906.0
911.0
908.0
911.0
909.0
913.0
914.0
919.0
923.0
927.0
928.0
928.0
925.0
919.0
914.0
912.0
912.0
911.0
914.0
913.0
912.0
911.0
911.0
907.0
902.0
899.0
894.0
892.0
888.0
888.0
889.0
889.0
892.0
893.0
896.0
898.0
897.0
897.0
895.0
895.0
893.0
903.0
931.0
982.0
1059.0
1160.0
1261.0
1344.0
1388.0
1384.0
1328.0
1217.0
1089.0
961.0
833.0
717.0
728.0
773.0
822.0
854.0
868.0
870.0
866.0
863.0
862.0
868.0
871.0
875.0
878.0
877.0
876.0
877.0
874.0
875.0
874.0
877.0
875.0
875.0
874.0
877.0
878.0
877.0
881.0
882.0
882.0
881.0
882.0
883.0
879.0
880.0
884.0
886.0
888.0
889.0
891.0
891.0
893.0
893.0
892.0
890.0
891.0
891.0
891.0
893.0
896.0
897.0
899.0
900.0
901.0
903.0
904.0
903.0
901.0
901.0
903.0
903.0
907.0
906.0
910.0
911.0
910.0
913.0
912.0
912.0
910.0
909.0
911.0
909.0
908.0
910.0
909.0
908.0
907.0
905.0
905.0
905.0
903.0
904.0
904.0
905.0
906.0
907.0
910.0
913.0
915.0
920.0
920.0
924.0
927.0
929.0
935.0
939.0
945.0
948.0
952.0
954.0
954.0
952.0
950.0
946.0
943.0
937.0
937.0
933.0
931.0
928.0
931.0
927.0
923.0
922.0
918.0
915.0
912.0
911.0
910.0
907.0
907.0
908.0
907.0
909.0
907.0
908.0
912.0
911.0
913.0
914.0
916.0
915.0
920.0
922.0
925.0
928.0
929.0
933.0
931.0
934.0
932.0
932.0
935.0
936.0
940.0
941.0
944.0
945.0
944.0
944.0
943.0
941.0
941.0
942.0
941.0
939.0
940.0
939.0
940.0
939.0
939.0
940.0
939.0
934.0
931.0
929.0
929.0
927.0
927.0
928.0
927.0
929.0
927.0
924.0
919.0
918.0
918.0
916.0
917.0
916.0
918.0
917.0
916.0
916.0
916.0
917.0
914.0
911.0
908.0
909.0
908.0
908.0
909.0
909.0
911.0
911.0
910.0
908.0
908.0
908.0
906.0
905.0
904.0
903.0
905.0
905.0
904.0
902.0
905.0
903.0
902.0
906.0
905.0
905.0
901.0
905.0
904.0
903.0
906.0
907.0
907.0
906.0
905.0
900.0
900.0
901.0
899.0
903.0
902.0
903.0
903.0
903.0
902.0
901.0
901.0
900.0
900.0
899.0
899.0
898.0
899.0
898.0
902.0
903.0
903.0
905.0
904.0
903.0
900.0
901.0
899.0
900.0
902.0
901.0
906.0
905.0
905.0
904.0
903.0
904.0
903.0
902.0
903.0
903.0
903.0
903.0
903.0
905.0
904.0
905.0
904.0
903.0
902.0
902.0
901.0
900.0
903.0
904.0
907.0
907.0
908.0
905.0
907.0
908.0
908.0
911.0
913.0
915.0
919.0
920.0
920.0
924.0
925.0
926.0
927.0
928.0
926.0
925.0
924.0
919.0
918.0
915.0
915.0
917.0
917.0
919.0
919.0
916.0
913.0
911.0
905.0
903.0
902.0
903.0
905.0
907.0
909.0
910.0
913.0
914.0
918.0
917.0
918.0
926.0
949.0
990.0
1051.0
1135.0
1227.0
1313.0
1370.0
1395.0
1374.0
1304.0
1179.0
1051.0
923.0
795.0
711.0
735.0
786.0
837.0
869.0
886.0
888.0
883.0
881.0
883.0
889.0
894.0
901.0
903.0
903.0
902.0
896.0
894.0
896.0
895.0
893.0
896.0
898.0
899.0
903.0
905.0
903.0
903.0
902.0
905.0
905.0
905.0
906.0
907.0
906.0
908.0
910.0
910.0
912.0
910.0
908.0
912.0
912.0
912.0
913.0
915.0
918.0
921.0
922.0
921.0
922.0
922.0
923.0
923.0
922.0
920.0
922.0
924.0
925.0
926.0
928.0
929.0
929.0
928.0
929.0
929.0
927.0
924.0
926.0
924.0
924.0
925.0
923.0
922.0
919.0
917.0
915.0
916.0
914.0
913.0
910.0
910.0
909.0
909.0
909.0
909.0
909.0
911.0
913.0
915.0
918.0
921.0
927.0
930.0
932.0
939.0
945.0
949.0
953.0
952.0
952.0
954.0
950.0
950.0
952.0
951.0
950.0
953.0
955.0
957.0
958.0
956.0
955.0
956.0
953.0
951.0
950.0
954.0
955.0
953.0
954.0
953.0
954.0
948.0
944.0
939.0
935.0
930.0
930.0
925.0
926.0
930.0
930.0
932.0
931.0
929.0
926.0
925.0
924.0
924.0
927.0
927.0
928.0
931.0
930.0
934.0
933.0
932.0
929.0
928.0
927.0
930.0
931.0
932.0
935.0
936.0
938.0
940.0
937.0
937.0
938.0
931.0
931.0
928.0
927.0
921.0
927.0
937.0
967.0
1023.0
1101.0
1196.0
1285.0
1350.0
1375.0
1352.0
1264.0
1136.0
1008.0
880.0
752.0
696.0
746.0
811.0
865.0
897.0
912.0
913.0
911.0
908.0
906.0
906.0
904.0
905.0
904.0
907.0
906.0
904.0
904.0
901.0
900.0
901.0
903.0
902.0
909.0
910.0
910.0
911.0
911.0
913.0
910.0
910.0
909.0
912.0
913.0
917.0
919.0
918.0
921.0
924.0
921.0
924.0
927.0
926.0
930.0
934.0
940.0
946.0
950.0
956.0
958.0
959.0
962.0
963.0
965.0
965.0
970.0
972.0
977.0
975.0
979.0
978.0
978.0
974.0
965.0
964.0
959.0
956.0
954.0
954.0
953.0
952.0
952.0
952.0
946.0
946.0
942.0
940.0
937.0
936.0
935.0
934.0
938.0
941.0
945.0
947.0
947.0
949.0
950.0
949.0
945.0
943.0
940.0
938.0
936.0
935.0
934.0
930.0
927.0
924.0
920.0
919.0
915.0
913.0
912.0
910.0
908.0
905.0
907.0
908.0
905.0
906.0
909.0
908.0
908.0
909.0
908.0
909.0
912.0
916.0
917.0
920.0
921.0
920.0
919.0
920.0
921.0
923.0
928.0
930.0
935.0
938.0
943.0
948.0
954.0
964.0
980.0
999.0
1017.0
1043.0
1079.0
1126.0
1187.0
1255.0
1317.0
1357.0
1365.0
1323.0
1219.0
1091.0
963.0
835.0
707.0
716.0
771.0
833.0
887.0
916.0
922.0
922.0
916.0
908.0
899.0
894.0
894.0
894.0
894.0
896.0
896.0
898.0
898.0
898.0
898.0
897.0
896.0
902.0
908.0
910.0
913.0
917.0
916.0
920.0
922.0
924.0
926.0
926.0
927.0
927.0
926.0
927.0
925.0
925.0
923.0
922.0
919.0
914.0
913.0
907.0
904.0
900.0
897.0
898.0
898.0
900.0
901.0
898.0
895.0
892.0
889.0
885.0
882.0
879.0
877.0
875.0
876.0
876.0
874.0
876.0
874.0
873.0
871.0
869.0
866.0
865.0
867.0
868.0
869.0
869.0
871.0
873.0
875.0
876.0
880.0
883.0
886.0
888.0
895.0
898.0
904.0
911.0
917.0
925.0
929.0
933.0
935.0
936.0
933.0
932.0
933.0
934.0
934.0
933.0
934.0
932.0
932.0
931.0
928.0
925.0
928.0
926.0
929.0
927.0
928.0
927.0
931.0
933.0
933.0
934.0
936.0
938.0
936.0
941.0
948.0
959.0
977.0
1000.0
1031.0
1062.0
1098.0
1136.0
1183.0
1237.0
1295.0
1343.0
1370.0
1367.0
1322.0
1222.0
1094.0
966.0
838.0
712.0
719.0
771.0
833.0
878.0
904.0
913.0
914.0
910.0
912.0
918.0
924.0
928.0
929.0
925.0
920.0
918.0
918.0
918.0
920.0
921.0
921.0
921.0
919.0
914.0
913.0
905.0
901.0
895.0
888.0
885.0
882.0
880.0
881.0
881.0
881.0
881.0
878.0
874.0
870.0
