# Simple Text Format
# Sampling Rate (Hz):= 360.00
# Resolution:= 12
# Labels:= ECG
903.0
903.0
905.0
905.0
906.0
905.0
907.0
906.0
905.0
904.0
902.0
900.0
901.0
901.0
902.0
904.0
905.0
905.0
906.0
903.0
902.0
901.0
899.0
901.0
902.0
903.0
903.0
903.0
904.0
902.0
903.0
903.0
903.0
903.0
903.0
902.0
901.0
902.0
903.0
902.0
902.0
901.0
900.0
903.0
902.0
900.0
901.0
901.0
903.0
903.0
905.0
906.0
905.0
905.0
904.0
903.0
902.0
901.0
901.0
900.0
904.0
906.0
907.0
906.0
908.0
906.0
907.0
907.0
904.0
904.0
905.0
907.0
915.0
920.0
923.0
926.0
927.0
927.0
925.0
922.0
917.0
913.0
910.0
911.0
915.0
917.0
919.0
919.0
919.0
916.0
917.0
914.0
910.0
906.0
903.0
902.0
901.0
902.0
906.0
912.0
915.0
917.0
919.0
921.0
924.0
928.0
941.0
964.0
1003.0
1059.0
1128.0
1203.0
1278.0
1326.0
1346.0
1325.0
1258.0
1137.0
1009.0
881.0
753.0
693.0
716.0
766.0
821.0
856.0
874.0
876.0
872.0
873.0
875.0
880.0
889.0
895.0
900.0
903.0
901.0
899.0
895.0
893.0
892.0
892.0
894.0
894.0
898.0
898.0
900.0
899.0
903.0
901.0
902.0
903.0
902.0
906.0
905.0
904.0
903.0
907.0
909.0
911.0
910.0
911.0
914.0
913.0
913.0
911.0
911.0
911.0
914.0
915.0
917.0
919.0
921.0
919.0
921.0
919.0
922.0
921.0
923.0
925.0
927.0
930.0
932.0
930.0
935.0
935.0
936.0
935.0
935.0
935.0
936.0
938.0
940.0
942.0
944.0
946.0
949.0
951.0
948.0
948.0
947.0
944.0
945.0
947.0
947.0
948.0
953.0
954.0
955.0
956.0
954.0
952.0
952.0
949.0
950.0
953.0
955.0
961.0
963.0
966.0
970.0
972.0
972.0
970.0
968.0
963.0
960.0
954.0
949.0
947.0
944.0
943.0
941.0
936.0
933.0
928.0
924.0
922.0
917.0
912.0
909.0
906.0
906.0
906.0
905.0
904.0
903.0
901.0
898.0
897.0
895.0
895.0
895.0
896.0
896.0
897.0
898.0
899.0
897.0
896.0
896.0
897.0
897.0
900.0
901.0
905.0
909.0
911.0
915.0
914.0
915.0
916.0
916.0
915.0
914.0
917.0
920.0
924.0
926.0
929.0
931.0
930.0
932.0
927.0
929.0
928.0
929.0
929.0
930.0
930.0
931.0
933.0
934.0
934.0
932.0
932.0
929.0
925.0
923.0
921.0
923.0
923.0
925.0
924.0
925.0
924.0
925.0
921.0
921.0
918.0
918.0
918.0
916.0
917.0
917.0
916.0
916.0
915.0
913.0
913.0
911.0
910.0
908.0
906.0
907.0
908.0
910.0
911.0
911.0
910.0
909.0
908.0
905.0
904.0
902.0
903.0
903.0
907.0
907.0
909.0
909.0
909.0
906.0
905.0
903.0
900.0
903.0
902.0
901.0
903.0
902.0
905.0
905.0
905.0
906.0
900.0
899.0
898.0
898.0
900.0
900.0
900.0
899.0
902.0
902.0
899.0
900.0
900.0
898.0
898.0
897.0
899.0
900.0
900.0
900.0
901.0
903.0
904.0
904.0
902.0
901.0
902.0
899.0
899.0
899.0
902.0
902.0
901.0
904.0
905.0
903.0
904.0
902.0
903.0
906.0
909.0
913.0
917.0
919.0
920.0
924.0
924.0
922.0
918.0
914.0
911.0
907.0
905.0
910.0
911.0
914.0
915.0
920.0
917.0
915.0
909.0
906.0
902.0
898.0
899.0
899.0
903.0
906.0
907.0
909.0
909.0
910.0
913.0
920.0
925.0
943.0
971.0
1015.0
1078.0
1156.0
1240.0
1313.0
1352.0
1357.0
1318.0
1227.0
1099.0
971.0
843.0
715.0
704.0
748.0
803.0
845.0
872.0
884.0
885.0
883.0
881.0
886.0
891.0
894.0
895.0
897.0
895.0
895.0
894.0
894.0
894.0
892.0
892.0
891.0
894.0
893.0
896.0
897.0
901.0
903.0
904.0
904.0
902.0
898.0
897.0
896.0
896.0
898.0
900.0
900.0
903.0
906.0
907.0
907.0
906.0
905.0
904.0
906.0
906.0
904.0
911.0
913.0
911.0
916.0
917.0
915.0
918.0
919.0
916.0
916.0
916.0
920.0
923.0
921.0
926.0
929.0
928.0
927.0
929.0
929.0
930.0
931.0
933.0
934.0
935.0
935.0
939.0
939.0
938.0
941.0
940.0
939.0
939.0
936.0
938.0
939.0
943.0
945.0
947.0
945.0
947.0
947.0
948.0
949.0
949.0
951.0
955.0
958.0
964.0
965.0
967.0
965.0
963.0
958.0
959.0
954.0
952.0
944.0
943.0
939.0
936.0
933.0
929.0
931.0
927.0
924.0
919.0
917.0
910.0
909.0
907.0
905.0
902.0
902.0
902.0
902.0
901.0
899.0
897.0
893.0
893.0
891.0
892.0
892.0
894.0
895.0
894.0
894.0
896.0
894.0
893.0
892.0
892.0
892.0
893.0
895.0
896.0
900.0
899.0
903.0
905.0
906.0
908.0
908.0
907.0
909.0
911.0
913.0
916.0
919.0
922.0
921.0
921.0
919.0
922.0
922.0
921.0
920.0
922.0
922.0
924.0
926.0
928.0
929.0
928.0
925.0
924.0
923.0
920.0
919.0
920.0
919.0
921.0
921.0
921.0
920.0
919.0
919.0
917.0
915.0
913.0
912.0
912.0
913.0
913.0
911.0
912.0
914.0
913.0
912.0
910.0
910.0
907.0
907.0
905.0
905.0
906.0
906.0
906.0
909.0
910.0
905.0
906.0
904.0
901.0
899.0
902.0
901.0
903.0
904.0
906.0
905.0
906.0
903.0
904.0
902.0
900.0
899.0
900.0
900.0
900.0
901.0
903.0
904.0
903.0
903.0
900.0
900.0
900.0
899.0
899.0
900.0
903.0
900.0
902.0
904.0
900.0
903.0
899.0
899.0
899.0
900.0
901.0
900.0
900.0
899.0
901.0
906.0
905.0
905.0
905.0
905.0
901.0
901.0
899.0
900.0
901.0
904.0
906.0
910.0
915.0
919.0
920.0
922.0
922.0
920.0
917.0
917.0
913.0
913.0
915.0
914.0
915.0
915.0
916.0
914.0
915.0
910.0
913.0
909.0
909.0
908.0
907.0
906.0
904.0
906.0
907.0
909.0
908.0
908.0
911.0
916.0
920.0
927.0
951.0
992.0
1056.0
1140.0
1228.0
1301.0
1346.0
1356.0
1313.0
1217.0
1089.0
961.0
833.0
733.0
736.0
781.0
829.0
865.0
883.0
887.0
885.0
883.0
885.0
888.0
895.0
900.0
900.0
899.0
898.0
896.0
892.0
891.0
892.0
892.0
893.0
897.0
900.0
900.0
899.0
900.0
896.0
896.0
897.0
897.0
899.0
899.0
903.0
905.0
905.0
908.0
909.0
909.0
909.0
909.0
910.0
907.0
908.0
910.0
909.0
915.0
919.0
917.0
917.0
920.0
919.0
918.0
919.0
921.0
922.0
926.0
925.0
930.0
933.0
935.0
938.0
939.0
940.0
941.0
941.0
938.0
937.0
943.0
945.0
950.0
955.0
957.0
958.0
960.0
959.0
957.0
957.0
959.0
962.0
964.0
967.0
969.0
971.0
976.0
978.0
979.0
980.0
980.0
981.0
983.0
984.0
986.0
990.0
993.0
995.0
996.0
994.0
993.0
986.0
979.0
974.0
971.0
967.0
963.0
962.0
958.0
957.0
954.0
951.0
946.0
939.0
935.0
930.0
926.0
922.0
920.0
918.0
914.0
912.0
911.0
910.0
909.0
905.0
902.0
900.0
897.0
897.0
896.0
895.0
898.0
900.0
901.0
901.0
900.0
899.0
900.0
899.0
900.0
901.0
902.0
905.0
905.0
908.0
911.0
913.0
914.0
914.0
915.0
914.0
911.0
916.0
915.0
916.0
919.0
922.0
925.0
925.0
925.0
925.0
922.0
918.0
922.0
920.0
923.0
923.0
925.0
927.0
925.0
925.0
924.0
924.0
921.0
919.0
918.0
920.0
918.0
918.0
922.0
921.0
920.0
920.0
919.0
918.0
917.0
914.0
910.0
911.0
912.0
911.0
912.0
912.0
912.0
913.0
913.0
912.0
909.0
905.0
907.0
904.0
905.0
905.0
905.0
906.0
908.0
907.0
908.0
906.0
905.0
902.0
900.0
903.0
904.0
902.0
904.0
906.0
907.0
906.0
905.0
903.0
902.0
902.0
898.0
902.0
902.0
902.0
901.0
903.0
902.0
904.0
905.0
901.0
901.0
899.0
899.0
900.0
900.0
901.0
903.0
903.0
904.0
902.0
903.0
903.0
901.0
899.0
898.0
899.0
901.0
902.0
904.0
901.0
903.0
905.0
905.0
905.0
904.0
902.0
903.0
901.0
901.0
905.0
906.0
906.0
909.0
909.0
907.0
909.0
911.0
909.0
910.0
913.0
917.0
919.0
920.0
921.0
923.0
921.0
920.0
919.0
919.0
915.0
911.0
912.0
912.0
912.0
913.0
917.0
919.0
919.0
919.0
913.0
909.0
906.0
903.0
901.0
901.0
903.0
908.0
909.0
915.0
915.0
918.0
919.0
920.0
934.0
957.0
1001.0
1063.0
1144.0
1231.0
1301.0
1346.0
1354.0
1322.0
1246.0
1123.0
995.0
867.0
753.0
724.0
746.0
794.0
841.0
872.0
881.0
877.0
870.0
865.0
866.0
872.0
884.0
893.0
897.0
898.0
896.0
894.0
892.0
890.0
887.0
889.0
889.0
888.0
890.0
891.0
893.0
895.0
895.0
899.0
901.0
902.0
900.0
899.0
899.0
898.0
899.0
900.0
903.0
905.0
908.0
909.0
911.0
911.0
912.0
913.0
910.0
911.0
913.0
914.0
914.0
916.0
916.0
920.0
920.0
923.0
924.0
922.0
923.0
924.0
924.0
924.0
926.0
929.0
933.0
938.0
938.0
941.0
941.0
940.0
939.0
939.0
939.0
943.0
945.0
945.0
949.0
952.0
954.0
953.0
953.0
951.0
954.0
953.0
957.0
958.0
958.0
964.0
967.0
970.0
969.0
970.0
971.0
972.0
973.0
971.0
975.0
980.0
982.0
984.0
991.0
994.0
993.0
992.0
988.0
982.0
977.0
973.0
969.0
963.0
959.0
955.0
950.0
947.0
946.0
941.0
936.0
932.0
927.0
922.0
917.0
916.0
916.0
915.0
914.0
911.0
912.0
910.0
907.0
903.0
903.0
901.0
900.0
901.0
903.0
902.0
904.0
902.0
902.0
902.0
904.0
907.0
903.0
905.0
905.0
908.0
910.0
913.0
915.0
918.0
919.0
919.0
920.0
918.0
918.0
919.0
918.0
920.0
923.0
922.0
927.0
930.0
928.0
927.0
927.0
927.0
927.0
924.0
926.0
925.0
926.0
926.0
927.0
927.0
926.0
926.0
925.0
921.0
918.0
919.0
916.0
917.0
920.0
918.0
919.0
918.0
920.0
917.0
916.0
915.0
914.0
911.0
910.0
907.0
907.0
910.0
908.0
909.0
908.0
911.0
909.0
907.0
906.0
905.0
908.0
907.0
908.0
907.0
906.0
907.0
906.0
907.0
903.0
906.0
904.0
905.0
904.0
905.0
905.0
905.0
906.0
907.0
905.0
907.0
904.0
905.0
906.0
902.0
903.0
903.0
903.0
904.0
907.0
904.0
906.0
906.0
906.0
905.0
904.0
905.0
904.0
906.0
902.0
904.0
904.0
906.0
905.0
906.0
907.0
905.0
905.0
904.0
904.0
903.0
905.0
902.0
903.0
906.0
907.0
910.0
908.0
908.0
906.0
902.0
903.0
900.0
903.0
903.0
906.0
908.0
907.0
906.0
907.0
906.0
909.0
908.0
912.0
913.0
914.0
919.0
924.0
926.0
926.0
931.0
929.0
926.0
921.0
918.0
916.0
913.0
914.0
917.0
918.0
920.0
922.0
922.0
919.0
920.0
916.0
909.0
908.0
907.0
907.0
905.0
907.0
909.0
913.0
914.0
917.0
918.0
922.0
925.0
930.0
947.0
982.0
1032.0
1103.0
1189.0
1273.0
1339.0
1368.0
1362.0
1309.0
1203.0
1075.0
947.0
819.0
708.0
714.0
762.0
816.0
859.0
882.0
889.0
884.0
882.0
883.0
890.0
895.0
904.0
907.0
909.0
906.0
904.0
900.0
897.0
897.0
896.0
896.0
898.0
903.0
906.0
907.0
911.0
909.0
910.0
906.0
907.0
907.0
906.0
908.0
911.0
912.0
915.0
915.0
915.0
918.0
920.0
918.0
917.0
918.0
918.0
919.0
919.0
920.0
924.0
926.0
930.0
931.0
929.0
930.0
929.0
928.0
927.0
929.0
930.0
933.0
938.0
940.0
944.0
946.0
946.0
944.0
946.0
942.0
944.0
946.0
947.0
948.0
951.0
957.0
961.0
962.0
964.0
961.0
960.0
962.0
960.0
961.0
960.0
961.0
963.0
966.0
971.0
971.0
971.0
972.0
972.0
971.0
970.0
971.0
973.0
976.0
980.0
985.0
989.0
992.0
993.0
993.0
990.0
990.0
984.0
980.0
978.0
976.0
973.0
970.0
967.0
965.0
962.0
958.0
953.0
950.0
946.0
944.0
943.0
947.0
951.0
951.0
951.0
952.0
952.0
949.0
949.0
951.0
952.0
954.0
952.0
952.0
950.0
948.0
949.0
947.0
942.0
940.0
935.0
931.0
927.0
923.0
923.0
925.0
927.0
927.0
927.0
926.0
923.0
922.0
920.0
920.0
922.0
922.0
924.0
924.0
924.0
924.0
928.0
927.0
929.0
928.0
928.0
925.0
928.0
927.0
927.0
929.0
934.0
934.0
939.0
940.0
943.0
944.0
943.0
944.0
950.0
963.0
989.0
1034.0
1098.0
1175.0
1255.0
1318.0
1349.0
1346.0
1297.0
1195.0
1067.0
939.0
811.0
695.0
699.0
748.0
811.0
860.0
889.0
897.0
897.0
893.0
891.0
892.0
899.0
906.0
910.0
911.0
912.0
910.0
903.0
901.0
901.0
899.0
897.0
899.0
899.0
901.0
902.0
904.0
906.0
908.0
909.0
907.0
909.0
909.0
908.0
908.0
909.0
912.0
912.0
914.0
916.0
916.0
916.0
921.0
919.0
920.0
919.0
921.0
921.0
922.0
925.0
926.0
931.0
930.0
933.0
933.0
935.0
935.0
941.0
945.0
948.0
956.0
962.0
965.0
969.0
971.0
975.0
975.0
976.0
978.0
983.0
982.0
985.0
986.0
990.0
989.0
988.0
985.0
982.0
980.0
973.0
970.0
965.0
964.0
964.0
965.0
964.0
963.0
966.0
965.0
964.0
963.0
962.0
959.0
957.0
953.0
949.0
946.0
944.0
942.0
937.0
935.0
933.0
926.0
925.0
921.0
916.0
911.0
908.0
908.0
910.0
908.0
906.0
909.0
909.0
907.0
906.0
904.0
904.0
903.0
903.0
903.0
904.0
911.0
915.0
917.0
918.0
922.0
925.0
929.0
935.0
948.0
968.0
993.0
1024.0
1057.0
1094.0
1132.0
1178.0
1229.0
1276.0
1312.0
1318.0
1286.0
1201.0
1073.0
945.0
817.0
689.0
650.0
700.0
769.0
834.0
875.0
895.0
896.0
896.0
892.0
891.0
893.0
897.0
896.0
894.0
891.0
888.0
885.0
882.0
880.0
878.0
880.0
882.0
883.0
885.0
883.0
882.0
882.0
883.0
883.0
886.0
890.0
893.0
900.0
902.0
906.0
908.0
910.0
913.0
916.0
915.0
918.0
917.0
918.0
919.0
918.0
915.0
914.0
915.0
911.0
909.0
902.0
897.0
893.0
891.0
894.0
893.0
895.0
892.0
891.0
889.0
884.0
883.0
881.0
881.0
878.0
876.0
874.0
875.0
875.0
876.0
878.0
880.0
881.0
881.0
884.0
885.0
887.0
890.0
892.0
896.0
901.0
909.0
916.0
924.0
929.0
934.0
936.0
940.0
942.0
941.0
942.0
941.0
938.0
939.0
937.0
937.0
935.0
930.0
930.0
926.0
922.0
918.0
916.0
916.0
915.0
917.0
917.0
916.0
919.0
915.0
915.0
914.0
913.0
916.0
914.0
915.0
915.0
916.0
919.0
922.0
923.0
928.0
926.0
925.0
921.0
923.0
924.0
925.0
928.0
931.0
931.0
939.0
943.0
950.0
964.0
981.0
1004.0
1033.0
1063.0
1103.0
1142.0
1191.0
1244.0
1294.0
1332.0
1345.0
1327.0
1268.0
1155.0
1027.0
899.0
771.0
680.0
707.0
765.0
824.0
868.0
893.0
898.0
898.0
889.0
887.0
880.0
879.0
876.0
872.0
870.0
868.0
869.0
866.0
866.0
862.0
860.0
858.0
857.0
858.0
856.0
857.0
861.0
857.0
858.0
858.0
857.0
856.0
859.0
858.0
859.0
857.0
861.0
860.0
863.0
864.0
867.0
866.0
867.0
865.0
862.0
863.0
862.0
863.0
864.0
864.0
866.0
870.0
868.0
869.0
868.0
867.0
867.0
864.0
864.0
860.0
865.0
866.0
866.0
865.0
864.0
863.0
861.0
856.0
853.0
853.0
852.0
854.0
854.0
855.0
855.0
856.0
860.0
861.0
861.0
864.0
867.0
876.0
883.0
895.0
907.0
916.0
925.0
929.0
939.0
941.0
946.0
945.0
945.0
945.0
945.0
945.0
942.0
940.0
934.0
934.0
928.0
921.0
915.0
909.0
907.0
904.0
907.0
907.0
908.0
905.0
906.0
906.0
903.0
901.0
899.0
898.0
895.0
894.0
892.0
895.0
892.0
896.0
897.0
899.0
898.0
898.0
898.0
897.0
896.0
896.0
894.0
894.0
895.0
897.0
899.0
898.0
900.0
901.0
897.0
897.0
894.0
892.0
890.0
890.0
891.0
891.0
894.0
896.0
897.0
894.0
895.0
893.0
892.0
890.0
889.0
888.0
887.0
886.0
891.0
908.0
946.0
1006.0
1089.0
1181.0
1263.0
1311.0
1306.0
1240.0
1112.0
984.0
856.0
728.0
648.0
688.0
752.0
814.0
857.0
878.0
883.0
881.0
876.0
876.0
876.0
878.0
880.0
879.0
877.0
875.0
873.0
867.0
866.0
868.0
869.0
871.0
872.0
875.0
877.0
877.0
876.0
875.0
874.0
874.0
872.0
875.0
879.0
881.0
882.0
885.0
881.0
883.0
883.0
884.0
884.0
884.0
884.0
882.0
885.0
888.0
889.0
887.0
889.0
890.0
890.0
889.0
885.0
886.0
888.0
888.0
888.0
887.0
889.0
891.0
890.0
886.0
888.0
886.0
886.0
883.0
881.0
880.0
879.0
880.0
879.0
880.0
880.0
878.0
878.0
878.0
877.0
877.0
877.0
882.0
884.0
891.0
896.0
905.0
909.0
913.0
916.0
920.0
924.0
926.0
926.0
925.0
924.0
925.0
924.0
923.0
920.0
917.0
916.0
913.0
910.0
905.0
904.0
901.0
901.0
901.0
899.0
902.0
901.0
899.0
897.0
897.0
898.0
897.0
896.0
899.0
899.0
901.0
900.0
905.0
905.0
905.0
908.0
907.0
909.0
910.0
911.0
911.0
914.0
916.0
919.0
920.0
921.0
921.0
923.0
921.0
920.0
920.0
917.0
917.0
917.0
918.0
916.0
918.0
917.0
916.0
914.0
912.0
909.0
908.0
904.0
905.0
904.0
903.0
904.0
901.0
901.0
901.0
902.0
899.0
897.0
894.0
893.0
892.0
894.0
894.0
896.0
894.0
895.0
893.0
892.0
892.0
891.0
890.0
887.0
888.0
887.0
888.0
889.0
891.0
891.0
892.0
890.0
885.0
887.0
888.0
886.0
886.0
886.0
890.0
891.0
894.0
896.0
897.0
898.0
899.0
900.0
902.0
903.0
905.0
905.0
909.0
915.0
916.0
920.0
917.0
911.0
910.0
906.0
904.0
905.0
907.0
907.0
909.0
907.0
905.0
900.0
899.0
895.0
889.0
886.0
882.0
879.0
878.0
878.0
883.0
884.0
886.0
885.0
886.0
886.0
883.0
882.0
882.0
883.0
884.0
884.0
886.0
897.0
927.0
973.0
1035.0
1117.0
1205.0
1281.0
1331.0
1343.0
1313.0
1241.0
1126.0
998.0
870.0
746.0
709.0
725.0
768.0
814.0
841.0
852.0
855.0
851.0
848.0
853.0
858.0
868.0
874.0
874.0
874.0
873.0
871.0
866.0
867.0
869.0
869.0
874.0
875.0
877.0
877.0
875.0
875.0
876.0
877.0
875.0
876.0
877.0
878.0
881.0
884.0
884.0
883.0
884.0
883.0
882.0
883.0
884.0
886.0
887.0
889.0
889.0
890.0
892.0
892.0
890.0
891.0
892.0
892.0
893.0
895.0
896.0
898.0
899.0
901.0
902.0
905.0
903.0
904.0
901.0
903.0
903.0
904.0
905.0
908.0
911.0
912.0
911.0
909.0
913.0
912.0
909.0
909.0
909.0
906.0
908.0
910.0
910.0
913.0
913.0
915.0
914.0
914.0
915.0
916.0
919.0
923.0
925.0
930.0
934.0
940.0
944.0
946.0
949.0
949.0
947.0
945.0
943.0
944.0
940.0
939.0
936.0
934.0
932.0
929.0
924.0
923.0
917.0
916.0
912.0
909.0
906.0
906.0
906.0
905.0
904.0
903.0
901.0
899.0
895.0
894.0
891.0
891.0
892.0
895.0
897.0
894.0
898.0
893.0
895.0
895.0
894.0
893.0
894.0
896.0
898.0
901.0
903.0
907.0
908.0
909.0
911.0
910.0
912.0
910.0
909.0
912.0
914.0
915.0
917.0
919.0
923.0
924.0
925.0
924.0
920.0
918.0
921.0
920.0
918.0
919.0
923.0
923.0
921.0
921.0
918.0
915.0
916.0
914.0
914.0
913.0
913.0
913.0
913.0
913.0
913.0
911.0
910.0
907.0
903.0
902.0
902.0
900.0
902.0
903.0
903.0
905.0
903.0
903.0
902.0
899.0
897.0
899.0
897.0
898.0
898.0
895.0
895.0
897.0
896.0
896.0
897.0
895.0
892.0
891.0
891.0
894.0
894.0
894.0
896.0
898.0
898.0
897.0
897.0
892.0
894.0
890.0
891.0
891.0
892.0
896.0
895.0
897.0
898.0
896.0
895.0
895.0
891.0
893.0
890.0
890.0
891.0
891.0
890.0
893.0
891.0
893.0
890.0
891.0
891.0
888.0
889.0
889.0
889.0
890.0
891.0
894.0
894.0
894.0
891.0
892.0
892.0
888.0
887.0
887.0
890.0
892.0
893.0
894.0
893.0
892.0
894.0
892.0
891.0
891.0
891.0
892.0
892.0
892.0
891.0
892.0
893.0
894.0
894.0
891.0
890.0
891.0
889.0
888.0
888.0
891.0
893.0
895.0
896.0
891.0
896.0
894.0
892.0
890.0
891.0
891.0
892.0
893.0
895.0
894.0
898.0
896.0
896.0
895.0
893.0
894.0
892.0
892.0
892.0
893.0
894.0
898.0
896.0
897.0
899.0
898.0
896.0
896.0
894.0
894.0
896.0
897.0
896.0
898.0
903.0
899.0
900.0
898.0
897.0
897.0
897.0
896.0
896.0
899.0
899.0
903.0
903.0
906.0
908.0
912.0
912.0
910.0
909.0
912.0
911.0
911.0
913.0
910.0
910.0
908.0
907.0
904.0
905.0
905.0
908.0
906.0
906.0
905.0
903.0
900.0
899.0
895.0
897.0
899.0
900.0
902.0
902.0
903.0
906.0
906.0
910.0
914.0
922.0
940.0
976.0
1029.0
1105.0
1190.0
1268.0
1329.0
1354.0
1341.0
1283.0
1179.0
1051.0
923.0
795.0
725.0
732.0
774.0
823.0
854.0
873.0
879.0
879.0
876.0
877.0
882.0
888.0
890.0
891.0
887.0
880.0
881.0
882.0
884.0
887.0
888.0
892.0
893.0
895.0
890.0
890.0
890.0
888.0
889.0
890.0
896.0
899.0
900.0
901.0
901.0
903.0
900.0
900.0
898.0
898.0
899.0
901.0
905.0
904.0
907.0
908.0
908.0
909.0
911.0
909.0
909.0
909.0
912.0
914.0
914.0
917.0
917.0
919.0
921.0
921.0
918.0
918.0
917.0
917.0
920.0
920.0
923.0
924.0
927.0
929.0
927.0
927.0
924.0
922.0
919.0
916.0
918.0
919.0
921.0
921.0
921.0
923.0
920.0
917.0
915.0
913.0
909.0
913.0
911.0
916.0
922.0
926.0
931.0
935.0
940.0
941.0
943.0
945.0
947.0
948.0
951.0
952.0
956.0
953.0
951.0
948.0
945.0
942.0
937.0
932.0
931.0
928.0
925.0
924.0
920.0
921.0
922.0
923.0
920.0
917.0
912.0
912.0
908.0
908.0
908.0
910.0
911.0
913.0
914.0
916.0
913.0
913.0
914.0
915.0
913.0
916.0
917.0
918.0
922.0
925.0
927.0
928.0
929.0
933.0
930.0
930.0
931.0
931.0
932.0
935.0
939.0
941.0
944.0
947.0
946.0
944.0
943.0
941.0
941.0
942.0
940.0
943.0
945.0
943.0
945.0
946.0
948.0
947.0
946.0
942.0
938.0
937.0
935.0
935.0
936.0
934.0
936.0
937.0
938.0
937.0
933.0
930.0
926.0
924.0
924.0
923.0
923.0
922.0
926.0
926.0
925.0
924.0
921.0
920.0
918.0
920.0
916.0
917.0
917.0
916.0
916.0
916.0
918.0
916.0
918.0
915.0
914.0
912.0
913.0
911.0
911.0
913.0
911.0
913.0
910.0
911.0
911.0
910.0
909.0
909.0
910.0
910.0
909.0
910.0
910.0
911.0
912.0
909.0
907.0
906.0
905.0
905.0
906.0
908.0
907.0
906.0
909.0
909.0
912.0
912.0
910.0
908.0
907.0
905.0
906.0
906.0
906.0
910.0
911.0
912.0
913.0
910.0
909.0
910.0
907.0
904.0
908.0
909.0
912.0
913.0
914.0
913.0
914.0
917.0
922.0
928.0
929.0
928.0
930.0
933.0
935.0
940.0
946.0
952.0
953.0
954.0
949.0
947.0
946.0
942.0
938.0
933.0
933.0
928.0
924.0
921.0
918.0
915.0
917.0
915.0
913.0
911.0
906.0
904.0
904.0
900.0
902.0
902.0
903.0
904.0
906.0
902.0
901.0
902.0
903.0
903.0
904.0
907.0
908.0
910.0
907.0
906.0
900.0
904.0
923.0
962.0
1023.0
1102.0
1196.0
1277.0
1331.0
1344.0
1305.0
1212.0
1084.0
956.0
828.0
700.0
708.0
753.0
809.0
854.0
883.0
893.0
892.0
889.0
889.0
890.0
897.0
898.0
898.0
904.0
906.0
903.0
902.0
905.0
905.0
907.0
906.0
905.0
903.0
904.0
905.0
905.0
908.0
910.0
910.0
913.0
910.0
912.0
912.0
910.0
908.0
909.0
910.0
911.0
911.0
916.0
918.0
920.0
921.0
921.0
920.0
919.0
917.0
918.0
917.0
920.0
924.0
925.0
929.0
932.0
933.0
936.0
935.0
935.0
934.0
935.0
931.0
938.0
937.0
941.0
944.0
947.0
944.0
942.0
945.0
944.0
945.0
942.0
940.0
940.0
939.0
941.0
942.0
943.0
943.0
944.0
941.0
940.0
942.0
938.0
938.0
939.0
942.0
943.0
946.0
951.0
952.0
953.0
956.0
959.0
963.0
964.0
967.0
969.0
973.0
975.0
974.0
979.0
975.0
974.0
972.0
971.0
968.0
967.0
969.0
970.0
968.0
964.0
961.0
958.0
953.0
946.0
940.0
933.0
927.0
922.0
920.0
916.0
914.0
914.0
914.0
913.0
909.0
906.0
902.0
901.0
896.0
898.0
898.0
898.0
903.0
905.0
906.0
911.0
912.0
912.0
911.0
914.0
914.0
916.0
916.0
921.0
924.0
927.0
931.0
935.0
938.0
939.0
942.0
944.0
947.0
955.0
965.0
977.0
995.0
1018.0
1058.0
1110.0
1173.0
1239.0
1291.0
1320.0
1309.0
1257.0
1152.0
1024.0
896.0
768.0
697.0
720.0
774.0
831.0
878.0
901.0
909.0
906.0
904.0
905.0
909.0
910.0
911.0
913.0
912.0
909.0
908.0
906.0
903.0
903.0
903.0
902.0
904.0
905.0
910.0
909.0
910.0
910.0
907.0
905.0
906.0
906.0
909.0
910.0
911.0
915.0
918.0
920.0
920.0
921.0
923.0
923.0
919.0
919.0
922.0
926.0
926.0
929.0
933.0
934.0
936.0
938.0
939.0
942.0
949.0
954.0
956.0
963.0
966.0
966.0
970.0
974.0
977.0
982.0
982.0
986.0
983.0
983.0
983.0
983.0
982.0
980.0
981.0
980.0
974.0
971.0
967.0
965.0
962.0
962.0
961.0
959.0
962.0
963.0
965.0
967.0
966.0
967.0
965.0
963.0
960.0
953.0
949.0
946.0
942.0
938.0
937.0
936.0
933.0
928.0
927.0
924.0
919.0
916.0
915.0
916.0
916.0
914.0
914.0
917.0
917.0
917.0
917.0
916.0
914.0
914.0
915.0
918.0
921.0
923.0
927.0
929.0
931.0
931.0
934.0
932.0
935.0
939.0
945.0
958.0
976.0
1001.0
1029.0
1061.0
1097.0
1140.0
1188.0
1240.0
1285.0
1316.0
1318.0
1283.0
1197.0
1069.0
941.0
813.0
695.0
688.0
733.0
797.0
850.0
883.0
899.0
902.0
901.0
900.0
902.0
905.0
903.0
904.0
901.0
896.0
893.0
889.0
888.0
892.0
891.0
893.0
890.0
892.0
891.0
891.0
890.0
887.0
889.0
886.0
884.0
884.0
888.0
887.0
891.0
891.0
892.0
890.0
891.0
889.0
888.0
888.0
888.0
890.0
890.0
894.0
896.0
896.0
898.0
896.0
896.0
896.0
895.0
895.0
895.0
895.0
896.0
898.0
899.0
902.0
904.0
905.0
903.0
904.0
905.0
905.0
909.0
910.0
912.0
915.0
918.0
921.0
922.0
923.0
924.0
926.0
927.0
925.0
927.0
927.0
927.0
928.0
933.0
938.0
941.0
947.0
950.0
951.0
952.0
952.0
953.0
951.0
950.0
947.0
946.0
943.0
940.0
939.0
937.0
937.0
931.0
928.0
926.0
926.0
924.0
925.0
924.0
922.0
923.0
919.0
917.0
914.0
913.0
913.0
914.0
913.0
915.0
917.0
919.0
918.0
920.0
922.0
923.0
924.0
924.0
922.0
926.0
930.0
934.0
940.0
952.0
966.0
981.0
1001.0
1023.0
1061.0
1111.0
1171.0
1233.0
1287.0
1319.0
1322.0
1288.0
1211.0
1086.0
958.0
830.0
711.0
698.0
733.0
790.0
843.0
876.0
890.0
894.0
890.0
888.0
885.0
885.0
887.0
888.0
883.0
880.0
876.0
876.0
876.0
875.0
876.0
877.0
878.0
876.0
878.0
876.0
877.0
877.0
879.0
883.0
884.0
887.0
887.0
888.0
889.0
886.0
887.0
887.0
886.0
885.0
885.0
888.0
893.0
896.0
899.0
900.0
901.0
899.0
897.0
894.0
898.0
898.0
900.0
901.0
902.0
902.0
904.0
904.0
903.0
902.0
903.0
901.0
898.0
898.0
900.0
900.0
901.0
902.0
902.0
904.0
908.0
903.0
904.0
904.0
905.0
907.0
913.0
919.0
925.0
933.0
938.0
941.0
944.0
944.0
944.0
943.0
937.0
933.0
930.0
927.0
925.0
923.0
919.0
915.0
914.0
910.0
908.0
909.0
908.0
