# Simple Text Format
# Sampling Rate (Hz):= 360.00
# Resolution:= 12
# Labels:= ECG
891.0
890.0
892.0
892.0
892.0
894.0
895.0
893.0
896.0
896.0
893.0
894.0
893.0
891.0
885.0
886.0
889.0
892.0
896.0
894.0
899.0
897.0
897.0
897.0
893.0
893.0
893.0
896.0
901.0
902.0
909.0
915.0
919.0
922.0
924.0
922.0
922.0
919.0
927.0
930.0
938.0
940.0
947.0
950.0
949.0
945.0
938.0
936.0
927.0
923.0
922.0
923.0
926.0
935.0
944.0
950.0
949.0
946.0
941.0
929.0
918.0
913.0
907.0
900.0
899.0
898.0
897.0
893.0
891.0
888.0
884.0
879.0
880.0
877.0
876.0
877.0
881.0
883.0
883.0
884.0
882.0
883.0
882.0
879.0
880.0
878.0
874.0
872.0
872.0
875.0
873.0
873.0
875.0
875.0
876.0
880.0
881.0
884.0
878.0
873.0
871.0
867.0
870.0
878.0
891.0
910.0
942.0
976.0
1011.0
1043.0
1064.0
1070.0
1063.0
1058.0
1062.0
1082.0
1117.0
1159.0
1190.0
1192.0
1150.0
1064.0
946.0
825.0
725.0
657.0
623.0
607.0
602.0
595.0
587.0
580.0
570.0
568.0
568.0
567.0
570.0
577.0
582.0
589.0
602.0
619.0
641.0
666.0
698.0
736.0
766.0
791.0
812.0
828.0
840.0
845.0
850.0
850.0
854.0
856.0
857.0
859.0
865.0
864.0
860.0
861.0
862.0
868.0
869.0
866.0
866.0
865.0
862.0
857.0
858.0
855.0
852.0
853.0
852.0
848.0
850.0
845.0
842.0
839.0
836.0
830.0
826.0
821.0
820.0
818.0
819.0
820.0
824.0
818.0
814.0
810.0
808.0
806.0
803.0
801.0
802.0
804.0
807.0
808.0
808.0
809.0
808.0
809.0
808.0
803.0
804.0
805.0
810.0
815.0
820.0
827.0
830.0
834.0
838.0
842.0
844.0
847.0
851.0
853.0
853.0
860.0
867.0
871.0
876.0
878.0
880.0
881.0
879.0
879.0
882.0
879.0
882.0
883.0
886.0
886.0
887.0
886.0
890.0
891.0
888.0
888.0
885.0
883.0
881.0
881.0
882.0
888.0
890.0
888.0
887.0
886.0
884.0
880.0
877.0
875.0
877.0
881.0
882.0
881.0
884.0
882.0
878.0
878.0
876.0
872.0
873.0
871.0
872.0
873.0
872.0
876.0
877.0
875.0
877.0
878.0
874.0
873.0
873.0
872.0
875.0
873.0
877.0
880.0
877.0
874.0
873.0
872.0
874.0
871.0
872.0
873.0
872.0
876.0
877.0
876.0
876.0
876.0
874.0
875.0
875.0
874.0
871.0
872.0
869.0
873.0
876.0
876.0
879.0
881.0
877.0
883.0
877.0
877.0
876.0
876.0
876.0
876.0
875.0
875.0
878.0
876.0
875.0
873.0
875.0
876.0
877.0
877.0
880.0
884.0
885.0
883.0
885.0
888.0
892.0
894.0
896.0
898.0
899.0
899.0
898.0
902.0
902.0
912.0
920.0
929.0
931.0
931.0
925.0
923.0
915.0
908.0
906.0
902.0
902.0
909.0
916.0
924.0
928.0
929.0
927.0
919.0
911.0
905.0
894.0
891.0
886.0
881.0
878.0
875.0
871.0
870.0
864.0
863.0
860.0
854.0
851.0
853.0
855.0
859.0
860.0
862.0
865.0
860.0
863.0
857.0
855.0
851.0
854.0
854.0
859.0
860.0
863.0
862.0
861.0
862.0
859.0
859.0
856.0
854.0
853.0
850.0
851.0
850.0
857.0
858.0
865.0
869.0
884.0
906.0
940.0
982.0
1025.0
1059.0
1079.0
1082.0
1074.0
1068.0
1072.0
1087.0
1115.0
1149.0
1171.0
1175.0
1134.0
1059.0
955.0
843.0
742.0
669.0
627.0
608.0
596.0
589.0
580.0
573.0
566.0
558.0
560.0
561.0
561.0
565.0
570.0
573.0
581.0
590.0
602.0
618.0
646.0
683.0
722.0
758.0
790.0
814.0
824.0
832.0
828.0
825.0
825.0
824.0
827.0
832.0
836.0
844.0
847.0
845.0
847.0
844.0
839.0
836.0
835.0
834.0
835.0
836.0
836.0
837.0
835.0
835.0
833.0
832.0
828.0
825.0
822.0
818.0
814.0
813.0
811.0
809.0
807.0
807.0
808.0
801.0
795.0
797.0
795.0
796.0
795.0
794.0
791.0
790.0
785.0
785.0
784.0
783.0
783.0
782.0
775.0
779.0
779.0
781.0
784.0
789.0
792.0
795.0
798.0
799.0
802.0
801.0
802.0
804.0
809.0
812.0
821.0
830.0
836.0
841.0
846.0
849.0
851.0
855.0
854.0
850.0
854.0
858.0
863.0
868.0
871.0
872.0
874.0
873.0
872.0
873.0
873.0
871.0
876.0
875.0
873.0
873.0
874.0
874.0
877.0
880.0
880.0
876.0
871.0
866.0
866.0
873.0
878.0
882.0
887.0
885.0
883.0
877.0
875.0
872.0
869.0
867.0
870.0
874.0
873.0
874.0
875.0
874.0
873.0
873.0
874.0
872.0
871.0
872.0
867.0
869.0
868.0
870.0
872.0
875.0
875.0
876.0
872.0
874.0
871.0
867.0
868.0
870.0
869.0
875.0
873.0
876.0
871.0
871.0
876.0
874.0
872.0
874.0
874.0
874.0
876.0
878.0
881.0
882.0
877.0
877.0
877.0
873.0
871.0
871.0
869.0
872.0
875.0
874.0
877.0
881.0
883.0
887.0
886.0
884.0
878.0
872.0
872.0
872.0
876.0
883.0
883.0
885.0
888.0
887.0
887.0
889.0
891.0
889.0
893.0
895.0
898.0
902.0
903.0
905.0
908.0
913.0
916.0
923.0
925.0
928.0
929.0
925.0
926.0
923.0
920.0
917.0
913.0
909.0
906.0
909.0
919.0
923.0
926.0
929.0
927.0
926.0
923.0
915.0
904.0
897.0
891.0
889.0
883.0
879.0
874.0
875.0
871.0
871.0
870.0
871.0
872.0
868.0
869.0
865.0
868.0
866.0
867.0
867.0
868.0
867.0
867.0
868.0
862.0
864.0
862.0
862.0
859.0
859.0
860.0
865.0
870.0
869.0
871.0
869.0
870.0
864.0
866.0
863.0
860.0
855.0
856.0
858.0
863.0
873.0
890.0
916.0
951.0
989.0
1022.0
1044.0
1060.0
1059.0
1054.0
1059.0
1074.0
1109.0
1147.0
1183.0
1191.0
1166.0
1095.0
991.0
873.0
773.0
700.0
660.0
639.0
627.0
615.0
604.0
596.0
583.0
577.0
572.0
575.0
577.0
580.0
585.0
594.0
604.0
617.0
637.0
663.0
694.0
728.0
759.0
781.0
799.0
812.0
828.0
835.0
841.0
845.0
846.0
849.0
849.0
850.0
851.0
852.0
851.0
854.0
854.0
856.0
857.0
859.0
860.0
861.0
859.0
854.0
852.0
847.0
844.0
845.0
846.0
847.0
848.0
846.0
845.0
838.0
838.0
832.0
832.0
828.0
827.0
824.0
822.0
827.0
824.0
824.0
822.0
819.0
814.0
807.0
803.0
798.0
795.0
796.0
794.0
799.0
798.0
798.0
801.0
800.0
798.0
794.0
793.0
792.0
792.0
792.0
796.0
795.0
804.0
809.0
815.0
817.0
819.0
819.0
822.0
822.0
828.0
835.0
842.0
847.0
853.0
857.0
862.0
863.0
864.0
867.0
867.0
867.0
865.0
869.0
871.0
878.0
884.0
887.0
891.0
893.0
893.0
889.0
888.0
883.0
884.0
881.0
882.0
885.0
888.0
893.0
893.0
891.0
891.0
889.0
883.0
884.0
881.0
884.0
886.0
886.0
888.0
892.0
893.0
892.0
887.0
884.0
882.0
881.0
880.0
880.0
879.0
883.0
882.0
885.0
886.0
883.0
880.0
872.0
870.0
869.0
865.0
865.0
869.0
872.0
874.0
879.0
878.0
877.0
877.0
879.0
874.0
875.0
874.0
875.0
874.0
879.0
879.0
879.0
881.0
879.0
878.0
875.0
873.0
870.0
872.0
872.0
876.0
879.0
879.0
878.0
881.0
883.0
882.0
876.0
876.0
873.0
875.0
877.0
875.0
878.0
881.0
883.0
885.0
884.0
883.0
877.0
880.0
878.0
876.0
877.0
878.0
882.0
886.0
887.0
896.0
895.0
894.0
892.0
889.0
889.0
889.0
892.0
901.0
904.0
911.0
914.0
919.0
921.0
924.0
927.0
932.0
934.0
931.0
930.0
923.0
920.0
916.0
912.0
911.0
909.0
911.0
919.0
924.0
930.0
926.0
926.0
916.0
911.0
905.0
897.0
891.0
884.0
882.0
879.0
876.0
872.0
867.0
863.0
865.0
866.0
865.0
870.0
871.0
871.0
869.0
864.0
865.0
863.0
860.0
856.0
857.0
862.0
866.0
866.0
867.0
866.0
861.0
863.0
865.0
863.0
863.0
861.0
860.0
864.0
864.0
866.0
869.0
866.0
865.0
860.0
858.0
859.0
860.0
878.0
901.0
937.0
975.0
1012.0
1038.0
1050.0
1043.0
1039.0
1044.0
1061.0
1095.0
1141.0
1174.0
1179.0
1136.0
1047.0
928.0
803.0
699.0
633.0
594.0
575.0
567.0
568.0
567.0
569.0
571.0
574.0
574.0
572.0
575.0
580.0
588.0
605.0
626.0
649.0
684.0
719.0
752.0
784.0
806.0
824.0
831.0
835.0
838.0
840.0
843.0
846.0
850.0
849.0
854.0
859.0
860.0
861.0
861.0
858.0
854.0
853.0
850.0
850.0
852.0
856.0
857.0
858.0
854.0
850.0
843.0
839.0
836.0
832.0
828.0
829.0
828.0
826.0
825.0
823.0
818.0
816.0
817.0
814.0
812.0
807.0
803.0
806.0
801.0
800.0
802.0
799.0
803.0
804.0
801.0
802.0
802.0
797.0
799.0
797.0
800.0
803.0
808.0
811.0
816.0
813.0
817.0
822.0
823.0
829.0
834.0
835.0
841.0
843.0
852.0
855.0
859.0
859.0
861.0
866.0
865.0
865.0
864.0
869.0
869.0
873.0
879.0
882.0
887.0
889.0
886.0
882.0
880.0
877.0
878.0
875.0
879.0
883.0
885.0
890.0
889.0
888.0
887.0
885.0
879.0
881.0
882.0
880.0
881.0
883.0
883.0
881.0
880.0
880.0
879.0
879.0
877.0
877.0
877.0
881.0
878.0
876.0
875.0
875.0
874.0
875.0
873.0
872.0
875.0
874.0
873.0
874.0
875.0
872.0
877.0
881.0
878.0
877.0
875.0
875.0
874.0
875.0
877.0
878.0
877.0
879.0
878.0
881.0
883.0
886.0
882.0
883.0
881.0
876.0
872.0
870.0
874.0
879.0
882.0
883.0
885.0
884.0
881.0
876.0
876.0
877.0
881.0
883.0
879.0
879.0
879.0
882.0
887.0
889.0
887.0
884.0
883.0
877.0
878.0
881.0
883.0
884.0
893.0
894.0
898.0
897.0
896.0
893.0
894.0
896.0
899.0
902.0
906.0
907.0
911.0
914.0
918.0
922.0
926.0
934.0
937.0
936.0
938.0
934.0
929.0
926.0
920.0
919.0
918.0
921.0
922.0
927.0
931.0
934.0
936.0
933.0
926.0
918.0
911.0
903.0
899.0
896.0
891.0
886.0
883.0
877.0
878.0
870.0
871.0
869.0
874.0
878.0
876.0
870.0
869.0
867.0
866.0
869.0
870.0
870.0
867.0
871.0
872.0
874.0
873.0
875.0
871.0
869.0
866.0
860.0
861.0
862.0
864.0
862.0
869.0
872.0
870.0
873.0
871.0
867.0
864.0
861.0
864.0
876.0
891.0
913.0
949.0
987.0
1019.0
1043.0
1055.0
1049.0
1045.0
1049.0
1075.0
1114.0
1158.0
1189.0
1183.0
1124.0
1027.0
899.0
778.0
688.0
631.0
600.0
591.0
587.0
584.0
578.0
575.0
572.0
571.0
573.0
573.0
572.0
569.0
573.0
583.0
593.0
609.0
632.0
660.0
696.0
731.0
763.0
791.0
813.0
826.0
831.0
836.0
840.0
845.0
852.0
857.0
861.0
865.0
861.0
860.0
859.0
859.0
857.0
857.0
857.0
860.0
860.0
858.0
858.0
862.0
861.0
858.0
856.0
855.0
852.0
852.0
851.0
842.0
843.0
844.0
844.0
842.0
843.0
841.0
838.0
833.0
825.0
821.0
814.0
811.0
812.0
816.0
819.0
815.0
814.0
813.0
809.0
806.0
803.0
802.0
799.0
801.0
801.0
804.0
804.0
806.0
808.0
808.0
808.0
808.0
810.0
813.0
815.0
820.0
829.0
832.0
837.0
842.0
845.0
848.0
851.0
856.0
858.0
859.0
863.0
864.0
866.0
870.0
872.0
878.0
882.0
884.0
885.0
884.0
882.0
883.0
889.0
887.0
890.0
890.0
890.0
889.0
897.0
895.0
894.0
889.0
886.0
887.0
890.0
891.0
891.0
892.0
892.0
889.0
888.0
891.0
889.0
886.0
887.0
885.0
883.0
882.0
883.0
883.0
885.0
885.0
884.0
883.0
881.0
878.0
877.0
876.0
877.0
885.0
886.0
883.0
886.0
885.0
881.0
880.0
884.0
883.0
881.0
879.0
876.0
877.0
878.0
880.0
884.0
888.0
888.0
891.0
887.0
885.0
882.0
879.0
878.0
882.0
881.0
883.0
886.0
888.0
888.0
886.0
884.0
882.0
882.0
883.0
885.0
886.0
887.0
888.0
890.0
888.0
891.0
887.0
886.0
884.0
882.0
882.0
882.0
885.0
886.0
889.0
894.0
893.0
892.0
894.0
891.0
892.0
892.0
894.0
894.0
896.0
897.0
902.0
907.0
910.0
914.0
921.0
920.0
918.0
919.0
922.0
929.0
935.0
942.0
945.0
943.0
939.0
933.0
926.0
918.0
913.0
911.0
913.0
922.0
930.0
940.0
943.0
945.0
937.0
927.0
916.0
909.0
903.0
894.0
892.0
888.0
886.0
884.0
883.0
882.0
877.0
877.0
873.0
871.0
873.0
872.0
871.0
870.0
870.0
871.0
872.0
870.0
872.0
871.0
874.0
867.0
868.0
864.0
863.0
864.0
864.0
868.0
869.0
871.0
873.0
874.0
874.0
871.0
870.0
868.0
866.0
863.0
859.0
864.0
874.0
891.0
920.0
953.0
990.0
1024.0
1049.0
1058.0
1053.0
1049.0
1057.0
1082.0
1118.0
1158.0
1186.0
1182.0
1137.0
1044.0
926.0
806.0
712.0
651.0
616.0
597.0
594.0
588.0
582.0
577.0
578.0
568.0
568.0
568.0
571.0
574.0
573.0
586.0
597.0
614.0
638.0
663.0
698.0
731.0
760.0
786.0
805.0
815.0
831.0
837.0
841.0
845.0
846.0
849.0
854.0
854.0
858.0
861.0
859.0
862.0
863.0
864.0
863.0
862.0
862.0
860.0
860.0
860.0
858.0
856.0
854.0
853.0
854.0
851.0
851.0
849.0
844.0
845.0
843.0
838.0
832.0
829.0
823.0
825.0
822.0
822.0
819.0
821.0
818.0
816.0
815.0
819.0
816.0
814.0
812.0
810.0
808.0
804.0
804.0
801.0
805.0
808.0
807.0
806.0
805.0
799.0
799.0
803.0
810.0
813.0
819.0
821.0
826.0
828.0
829.0
832.0
834.0
832.0
838.0
843.0
845.0
851.0
861.0
864.0
871.0
874.0
874.0
875.0
872.0
874.0
874.0
879.0
879.0
879.0
887.0
886.0
888.0
889.0
889.0
889.0
890.0
888.0
892.0
892.0
894.0
893.0
892.0
893.0
892.0
892.0
892.0
892.0
892.0
887.0
885.0
886.0
889.0
887.0
887.0
886.0
885.0
887.0
883.0
880.0
879.0
882.0
879.0
877.0
880.0
881.0
883.0
886.0
883.0
883.0
883.0
880.0
881.0
877.0
874.0
876.0
878.0
879.0
879.0
884.0
883.0
885.0
883.0
884.0
882.0
882.0
882.0
884.0
883.0
886.0
889.0
887.0
885.0
884.0
879.0
879.0
878.0
878.0
878.0
883.0
885.0
890.0
894.0
891.0
893.0
892.0
892.0
887.0
885.0
885.0
882.0
882.0
883.0
885.0
889.0
889.0
892.0
888.0
892.0
889.0
888.0
886.0
885.0
883.0
884.0
886.0
890.0
892.0
894.0
897.0
899.0
899.0
899.0
901.0
900.0
902.0
902.0
905.0
906.0
912.0
915.0
918.0
921.0
923.0
923.0
924.0
929.0
936.0
939.0
942.0
940.0
939.0
933.0
929.0
928.0
921.0
920.0
921.0
928.0
929.0
934.0
940.0
942.0
941.0
937.0
928.0
919.0
911.0
901.0
899.0
896.0
892.0
887.0
886.0
885.0
888.0
889.0
885.0
886.0
887.0
884.0
885.0
884.0
881.0
879.0
879.0
878.0
876.0
878.0
880.0
879.0
879.0
878.0
879.0
878.0
881.0
881.0
885.0
885.0
884.0
886.0
885.0
885.0
881.0
883.0
877.0
877.0
878.0
883.0
902.0
931.0
969.0
1011.0
1054.0
1084.0
1100.0
1101.0
1090.0
1088.0
1094.0
1118.0
1147.0
1178.0
1190.0
1170.0
1104.0
999.0
886.0
784.0
706.0
655.0
631.0
619.0
616.0
613.0
611.0
608.0
605.0
598.0
599.0
597.0
599.0
601.0
608.0
618.0
628.0
645.0
672.0
706.0
742.0
780.0
808.0
827.0
839.0
844.0
847.0
852.0
853.0
856.0
863.0
861.0
867.0
870.0
870.0
868.0
865.0
863.0
864.0
865.0
865.0
870.0
871.0
872.0
867.0
872.0
865.0
867.0
858.0
853.0
852.0
850.0
849.0
852.0
854.0
855.0
851.0
845.0
840.0
835.0
830.0
830.0
828.0
825.0
824.0
824.0
823.0
822.0
816.0
817.0
820.0
818.0
817.0
815.0
815.0
815.0
818.0
817.0
821.0
824.0
826.0
830.0
831.0
833.0
836.0
835.0
840.0
842.0
851.0
861.0
867.0
875.0
879.0
880.0
883.0
884.0
885.0
890.0
893.0
898.0
903.0
908.0
913.0
914.0
916.0
918.0
919.0
922.0
920.0
922.0
924.0
922.0
925.0
928.0
930.0
930.0
929.0
929.0
926.0
927.0
931.0
929.0
927.0
927.0
930.0
933.0
930.0
934.0
935.0
931.0
932.0
931.0
930.0
928.0
927.0
929.0
929.0
927.0
928.0
929.0
930.0
926.0
927.0
927.0
926.0
927.0
926.0
923.0
927.0
927.0
931.0
933.0
932.0
931.0
930.0
930.0
926.0
926.0
926.0
927.0
929.0
929.0
932.0
938.0
938.0
940.0
934.0
936.0
938.0
934.0
937.0
938.0
934.0
937.0
939.0
940.0
940.0
938.0
940.0
940.0
939.0
938.0
941.0
940.0
942.0
938.0
940.0
940.0
940.0
940.0
939.0
937.0
938.0
938.0
936.0
937.0
937.0
942.0
943.0
948.0
946.0
945.0
948.0
948.0
947.0
948.0
948.0
953.0
954.0
958.0
965.0
967.0
969.0
971.0
972.0
976.0
978.0
982.0
987.0
988.0
989.0
988.0
985.0
984.0
978.0
975.0
973.0
972.0
973.0
979.0
985.0
986.0
992.0
993.0
986.0
979.0
971.0
962.0
956.0
950.0
946.0
944.0
941.0
936.0
939.0
937.0
939.0
937.0
935.0
933.0
933.0
929.0
929.0
925.0
927.0
926.0
928.0
928.0
931.0
933.0
929.0
929.0
927.0
925.0
922.0
922.0
921.0
921.0
923.0
926.0
928.0
930.0
931.0
929.0
928.0
922.0
918.0
915.0
912.0
915.0
919.0
931.0
954.0
986.0
1018.0
1054.0
1079.0
1095.0
1099.0
1094.0
1096.0
1109.0
1138.0
1180.0
1220.0
1248.0
1250.0
1210.0
1140.0
1034.0
923.0
829.0
763.0
722.0
700.0
686.0
677.0
667.0
653.0
648.0
644.0
640.0
639.0
637.0
638.0
644.0
653.0
665.0
680.0
706.0
736.0
773.0
805.0
833.0
855.0
870.0
882.0
891.0
895.0
897.0
900.0
904.0
905.0
908.0
907.0
911.0
910.0
912.0
912.0
909.0
915.0
915.0
913.0
911.0
911.0
909.0
906.0
907.0
902.0
903.0
902.0
901.0
902.0
899.0
900.0
898.0
893.0
889.0
886.0
882.0
879.0
875.0
872.0
872.0
872.0
871.0
870.0
871.0
865.0
856.0
858.0
856.0
852.0
853.0
849.0
846.0
848.0
849.0
850.0
852.0
851.0
853.0
852.0
853.0
854.0
857.0
858.0
861.0
865.0
865.0
869.0
874.0
875.0
878.0
882.0
884.0
886.0
891.0
895.0
901.0
910.0
916.0
919.0
924.0
925.0
924.0
927.0
924.0
924.0
926.0
925.0
931.0
936.0
936.0
940.0
943.0
944.0
943.0
939.0
938.0
936.0
935.0
932.0
933.0
937.0
940.0
942.0
943.0
942.0
939.0
933.0
935.0
932.0
930.0
928.0
930.0
934.0
937.0
938.0
934.0
932.0
931.0
929.0
924.0
923.0
926.0
924.0
924.0
927.0
928.0
931.0
929.0
929.0
928.0
926.0
923.0
922.0
920.0
918.0
921.0
922.0
921.0
926.0
927.0
930.0
925.0
929.0
925.0
923.0
926.0
924.0
922.0
923.0
923.0
926.0
929.0
932.0
929.0
928.0
925.0
924.0
923.0
920.0
921.0
922.0
927.0
928.0
930.0
927.0
929.0
927.0
928.0
928.0
927.0
925.0
928.0
929.0
930.0
931.0
933.0
933.0
933.0
931.0
931.0
929.0
930.0
931.0
936.0
940.0
946.0
951.0
955.0
956.0
952.0
952.0
952.0
951.0
949.0
952.0
960.0
970.0
975.0
980.0
982.0
980.0
976.0
973.0
967.0
960.0
957.0
952.0
950.0
952.0
959.0
968.0
974.0
975.0
975.0
969.0
964.0
954.0
944.0
933.0
925.0
922.0
922.0
920.0
920.0
918.0
915.0
911.0
909.0
907.0
906.0
908.0
908.0
910.0
911.0
906.0
905.0
907.0
902.0
902.0
901.0
899.0
898.0
894.0
895.0
898.0
900.0
904.0
905.0
907.0
908.0
905.0
904.0
903.0
903.0
903.0
899.0
901.0
902.0
903.0
906.0
915.0
930.0
956.0
993.0
1028.0
1063.0
1083.0
1094.0
1091.0
1093.0
1097.0
1123.0
1156.0
1188.0
1210.0
1191.0
1129.0
1024.0
901.0
786.0
703.0
648.0
625.0
615.0
614.0
610.0
608.0
603.0
600.0
599.0
598.0
602.0
606.0
611.0
620.0
632.0
643.0
660.0
685.0
713.0
751.0
780.0
810.0
835.0
856.0
864.0
869.0
872.0
877.0
880.0
881.0
886.0
885.0
883.0
885.0
885.0
886.0
891.0
890.0
893.0
893.0
889.0
890.0
887.0
885.0
885.0
880.0
881.0
881.0
881.0
881.0
879.0
876.0
872.0
873.0
865.0
861.0
858.0
859.0
856.0
857.0
857.0
856.0
857.0
853.0
848.0
841.0
837.0
836.0
833.0
830.0
830.0
833.0
830.0
831.0
836.0
833.0
834.0
835.0
833.0
833.0
831.0
832.0
834.0
837.0
839.0
844.0
848.0
850.0
854.0
856.0
861.0
865.0
868.0
872.0
875.0
877.0
884.0
888.0
891.0
894.0
896.0
899.0
901.0
902.0
903.0
899.0
904.0
907.0
910.0
915.0
917.0
920.0
920.0
916.0
912.0
913.0
911.0
913.0
911.0
914.0
915.0
918.0
917.0
918.0
918.0
915.0
915.0
913.0
911.0
913.0
911.0
915.0
913.0
916.0
915.0
913.0
911.0
909.0
906.0
906.0
904.0
902.0
904.0
906.0
908.0
910.0
915.0
913.0
910.0
905.0
905.0
900.0
899.0
902.0
901.0
906.0
904.0
908.0
911.0
910.0
907.0
908.0
908.0
906.0
908.0
903.0
904.0
905.0
909.0
910.0
910.0
909.0
914.0
915.0
912.0
911.0
909.0
908.0
903.0
906.0
910.0
911.0
911.0
914.0
913.0
910.0
904.0
904.0
902.0
905.0
905.0
906.0
906.0
907.0
911.0
908.0
909.0
908.0
906.0
906.0
902.0
907.0
908.0
916.0
915.0
917.0
918.0
917.0
918.0
916.0
920.0
919.0
923.0
923.0
927.0
927.0
926.0
934.0
937.0
938.0
941.0
944.0
949.0
950.0
956.0
955.0
957.0
955.0
951.0
949.0
947.0
942.0
940.0
941.0
944.0
951.0
953.0
957.0
956.0
951.0
942.0
934.0
928.0
923.0
917.0
916.0
911.0
908.0
903.0
900.0
900.0
897.0
899.0
898.0
899.0
897.0
896.0
898.0
891.0
892.0
892.0
892.0
889.0
893.0
895.0
895.0
897.0
899.0
899.0
896.0
894.0
890.0
890.0
886.0
888.0
892.0
893.0
897.0
898.0
897.0
898.0
896.0
893.0
890.0
889.0
887.0
890.0
899.0
918.0
953.0
991.0
1030.0
1064.0
1087.0
1091.0
1090.0
1079.0
1084.0
1096.0
1126.0
1162.0
1191.0
1205.0
1188.0
1127.0
1034.0
920.0
816.0
740.0
689.0
660.0
649.0
642.0
639.0
637.0
633.0
626.0
626.0
619.0
619.0
622.0
621.0
627.0
639.0
653.0
678.0
704.0
736.0
769.0
799.0
823.0
842.0
855.0
862.0
865.0
869.0
871.0
869.0
873.0
876.0
877.0
879.0
881.0
880.0
881.0
878.0
879.0
883.0
882.0
883.0
885.0
884.0
883.0
880.0
873.0
870.0
870.0
868.0
867.0
866.0
867.0
867.0
865.0
864.0
861.0
856.0
854.0
848.0
845.0
842.0
839.0
838.0
835.0
838.0
837.0
832.0
831.0
831.0
827.0
825.0
822.0
819.0
819.0
820.0
818.0
822.0
822.0
826.0
828.0
827.0
829.0
828.0
833.0
835.0
836.0
842.0
851.0
854.0
860.0
861.0
860.0
868.0
870.0
872.0
874.0
879.0
881.0
883.0
886.0
892.0
896.0
897.0
901.0
901.0
898.0
900.0
899.0
897.0
898.0
902.0
907.0
909.0
912.0
912.0
909.0
911.0
912.0
912.0
911.0
913.0
910.0
911.0
912.0
914.0
914.0
913.0
913.0
912.0
907.0
905.0
906.0
908.0
908.0
911.0
910.0
910.0
908.0
907.0
908.0
904.0
902.0
905.0
901.0
894.0
897.0
898.0
904.0
906.0
907.0
908.0
905.0
904.0
901.0
900.0
901.0
898.0
899.0
902.0
902.0
903.0
906.0
905.0
903.0
902.0
902.0
899.0
899.0
896.0
901.0
903.0
905.0
908.0
908.0
908.0
905.0
907.0
907.0
904.0
906.0
903.0
905.0
906.0
905.0
906.0
907.0
908.0
905.0
903.0
903.0
905.0
903.0
900.0
899.0
903.0
911.0
914.0
919.0
921.0
923.0
924.0
924.0
922.0
923.0
923.0
928.0
931.0
935.0
937.0
948.0
954.0
959.0
960.0
960.0
954.0
949.0
942.0
932.0
931.0
929.0
936.0
940.0
945.0
953.0
954.0
954.0
950.0
940.0
932.0
922.0
917.0
913.0
908.0
904.0
905.0
903.0
899.0
896.0
893.0
893.0
892.0
889.0
893.0
895.0
896.0
897.0
895.0
894.0
893.0
891.0
888.0
885.0
883.0
885.0
885.0
886.0
891.0
891.0
894.0
890.0
891.0
890.0
887.0
887.0
887.0
887.0
890.0
889.0
886.0
886.0
882.0
879.0
879.0
887.0
902.0
931.0
962.0
993.0
1028.0
1046.0
1052.0
1047.0
1043.0
1049.0
1069.0
1105.0
1152.0
1191.0
1208.0
1191.0
1130.0
1037.0
927.0
825.0
745.0
695.0
664.0
646.0
633.0
620.0
614.0
605.0
604.0
609.0
610.0
612.0
611.0
612.0
622.0
628.0
642.0
660.0
684.0
717.0
751.0
782.0
809.0
829.0
845.0
853.0
860.0
861.0
861.0
864.0
869.0
871.0
874.0
875.0
880.0
881.0
881.0
877.0
880.0
875.0
876.0
874.0
875.0
876.0
878.0
878.0
880.0
878.0
880.0
875.0
872.0
865.0
862.0
860.0
856.0
857.0
856.0
859.0
857.0
854.0
855.0
853.0
848.0
844.0
842.0
836.0
833.0
832.0
830.0
834.0
831.0
831.0
828.0
828.0
827.0
825.0
821.0
821.0
822.0
823.0
824.0
827.0
824.0
829.0
832.0
830.0
835.0
834.0
836.0
838.0
839.0
843.0
851.0
857.0
860.0
866.0
870.0
873.0
872.0
873.0
874.0
876.0
881.0
885.0
889.0
892.0
896.0
901.0
898.0
901.0
904.0
902.0
906.0
901.0
904.0
901.0
904.0
905.0
910.0
910.0
906.0
909.0
906.0
905.0
906.0
903.0
904.0
905.0
905.0
906.0
907.0
909.0
909.0
905.0
904.0
903.0
902.0
900.0
897.0
896.0
900.0
902.0
900.0
905.0
901.0
900.0
896.0
893.0
887.0
891.0
891.0
890.0
888.0
891.0
894.0
896.0
897.0
898.0
898.0
896.0
891.0
892.0
890.0
893.0
895.0
895.0
894.0
897.0
897.0
898.0
897.0
891.0
892.0
892.0
890.0
890.0
891.0
896.0
898.0
902.0
901.0
900.0
898.0
898.0
895.0
897.0
892.0
890.0
895.0
902.0
903.0
902.0
900.0
899.0
896.0
895.0
892.0
893.0
894.0
892.0
895.0
896.0
905.0
907.0
910.0
914.0
914.0
913.0
916.0
913.0
914.0
917.0
918.0
922.0
926.0
930.0
937.0
944.0
946.0
950.0
948.0
943.0
938.0
933.0
927.0
927.0
927.0
929.0
931.0
936.0
938.0
940.0
942.0
939.0
933.0
925.0
920.0
917.0
915.0
911.0
910.0
906.0
898.0
889.0
886.0
883.0
883.0
880.0
883.0
885.0
886.0
889.0
884.0
886.0
887.0
888.0
885.0
882.0
880.0
879.0
882.0
880.0
879.0
881.0
882.0
883.0
881.0
880.0
881.0
883.0
879.0
880.0
882.0
883.0
887.0
886.0
883.0
881.0
880.0
876.0
876.0
887.0
906.0
935.0
976.0
1017.0
1056.0
1080.0
1085.0
1080.0
1076.0
1077.0
1093.0
1118.0
1151.0
1165.0
1149.0
1086.0
984.0
872.0
765.0
688.0
640.0
613.0
604.0
600.0
597.0
596.0
597.0
602.0
602.0
604.0
609.0
611.0
613.0
612.0
616.0
627.0
648.0
684.0
723.0
767.0
800.0
823.0
836.0
839.0
845.0
850.0
857.0
859.0
860.0
864.0
870.0
874.0
873.0
870.0
872.0
874.0
873.0
874.0
872.0
866.0
862.0
869.0
880.0
887.0
888.0
878.0
853.0
838.0
836.0
844.0
856.0
863.0
871.0
870.0
854.0
837.0
828.0
825.0
827.0
829.0
826.0
825.0
830.0
831.0
829.0
824.0
817.0
814.0
814.0
818.0
826.0
828.0
825.0
816.0
808.0
807.0
811.0
815.0
828.0
831.0
828.0
824.0
819.0
820.0
825.0
829.0
831.0
831.0
830.0
832.0
834.0
838.0
849.0
858.0
865.0
875.0
878.0
878.0
878.0
877.0
881.0
881.0
885.0
887.0
889.0
893.0
900.0
905.0
904.0
899.0
888.0
873.0
869.0
871.0
881.0
898.0
910.0
914.0
913.0
911.0
909.0
911.0
911.0
908.0
901.0
891.0
882.0
886.0
892.0
903.0
906.0
907.0
