# Simple Text Format
# Sampling Rate (Hz):= 360.00
# Resolution:= 12
# Labels:= ECG
884.0
884.0
887.0
887.0
888.0
887.0
887.0
884.0
885.0
889.0
887.0
888.0
890.0
891.0
888.0
891.0
888.0
887.0
887.0
886.0
885.0
886.0
892.0
894.0
895.0
890.0
892.0
890.0
890.0
888.0
889.0
888.0
889.0
892.0
894.0
898.0
898.0
897.0
895.0
896.0
895.0
891.0
889.0
893.0
894.0
898.0
900.0
908.0
909.0
912.0
915.0
918.0
917.0
919.0
917.0
917.0
919.0
918.0
925.0
930.0
940.0
949.0
952.0
953.0
947.0
938.0
930.0
925.0
921.0
919.0
921.0
925.0
935.0
941.0
945.0
951.0
943.0
944.0
936.0
924.0
917.0
905.0
903.0
901.0
900.0
899.0
899.0
894.0
888.0
884.0
884.0
880.0
881.0
881.0
881.0
882.0
886.0
886.0
885.0
884.0
885.0
884.0
879.0
877.0
877.0
880.0
879.0
880.0
881.0
881.0
880.0
876.0
876.0
875.0
876.0
877.0
879.0
884.0
882.0
882.0
884.0
882.0
880.0
880.0
883.0
893.0
914.0
945.0
981.0
1017.0
1052.0
1071.0
1079.0
1076.0
1071.0
1076.0
1098.0
1131.0
1171.0
1203.0
1214.0
1185.0
1121.0
1020.0
905.0
801.0
724.0
678.0
649.0
631.0
616.0
608.0
596.0
592.0
589.0
586.0
587.0
589.0
593.0
596.0
607.0
621.0
646.0
680.0
719.0
762.0
799.0
829.0
848.0
855.0
856.0
858.0
856.0
857.0
857.0
857.0
864.0
864.0
869.0
871.0
872.0
874.0
873.0
871.0
868.0
867.0
865.0
865.0
864.0
866.0
865.0
865.0
863.0
862.0
860.0
859.0
857.0
853.0
849.0
846.0
846.0
848.0
848.0
847.0
846.0
845.0
841.0
837.0
832.0
828.0
819.0
819.0
822.0
822.0
825.0
827.0
829.0
827.0
824.0
819.0
813.0
813.0
811.0
814.0
813.0
814.0
813.0
811.0
814.0
818.0
825.0
831.0
835.0
838.0
840.0
843.0
846.0
846.0
849.0
862.0
865.0
871.0
874.0
876.0
877.0
882.0
879.0
881.0
885.0
890.0
892.0
893.0
895.0
898.0
899.0
898.0
898.0
896.0
895.0
894.0
894.0
894.0
897.0
902.0
906.0
905.0
908.0
907.0
905.0
901.0
900.0
898.0
897.0
896.0
898.0
900.0
900.0
901.0
901.0
899.0
900.0
895.0
893.0
891.0
895.0
899.0
897.0
898.0
897.0
896.0
894.0
892.0
889.0
888.0
884.0
883.0
883.0
887.0
886.0
889.0
891.0
893.0
889.0
889.0
887.0
885.0
884.0
882.0
886.0
886.0
886.0
892.0
894.0
898.0
899.0
898.0
898.0
890.0
890.0
888.0
888.0
886.0
891.0
893.0
894.0
897.0
895.0
896.0
892.0
895.0
896.0
896.0
896.0
894.0
897.0
897.0
895.0
894.0
894.0
893.0
894.0
894.0
893.0
891.0
893.0
894.0
900.0
903.0
908.0
905.0
903.0
897.0
896.0
895.0
893.0
890.0
890.0
893.0
893.0
893.0
897.0
897.0
894.0
895.0
895.0
899.0
897.0
899.0
898.0
901.0
902.0
909.0
911.0
914.0
914.0
915.0
914.0
915.0
915.0
919.0
925.0
932.0
939.0
939.0
937.0
932.0
923.0
918.0
910.0
904.0
907.0
916.0
931.0
941.0
945.0
945.0
936.0
926.0
913.0
910.0
904.0
901.0
900.0
896.0
896.0
892.0
893.0
895.0
899.0
900.0
899.0
892.0
888.0
884.0
881.0
884.0
886.0
886.0
891.0
896.0
898.0
897.0
896.0
896.0
888.0
887.0
881.0
880.0
881.0
884.0
885.0
891.0
895.0
901.0
904.0
907.0
911.0
906.0
901.0
889.0
886.0
884.0
887.0
894.0
911.0
931.0
955.0
981.0
1008.0
1022.0
1027.0
1029.0
1033.0
1052.0
1088.0
1134.0
1177.0
1191.0
1165.0
1099.0
1018.0
937.0
870.0
821.0
789.0
765.0
750.0
740.0
728.0
716.0
705.0
699.0
699.0
700.0
703.0
703.0
707.0
709.0
713.0
721.0
739.0
766.0
797.0
825.0
849.0
866.0
874.0
877.0
868.0
865.0
871.0
879.0
891.0
899.0
904.0
902.0
891.0
881.0
870.0
862.0
862.0
869.0
885.0
902.0
916.0
912.0
897.0
878.0
867.0
867.0
868.0
876.0
881.0
883.0
882.0
875.0
876.0
876.0
874.0
862.0
847.0
831.0
832.0
838.0
851.0
861.0
862.0
858.0
849.0
837.0
823.0
819.0
817.0
822.0
826.0
828.0
831.0
837.0
837.0
838.0
836.0
835.0
833.0
836.0
836.0
838.0
839.0
841.0
843.0
847.0
853.0
853.0
860.0
864.0
868.0
876.0
880.0
879.0
879.0
881.0
884.0
888.0
892.0
897.0
902.0
906.0
909.0
911.0
908.0
905.0
905.0
908.0
912.0
913.0
918.0
919.0
922.0
925.0
927.0
927.0
926.0
922.0
918.0
922.0
919.0
921.0
922.0
926.0
925.0
926.0
924.0
923.0
923.0
919.0
919.0
917.0
915.0
914.0
917.0
916.0
915.0
917.0
919.0
917.0
916.0
911.0
906.0
907.0
906.0
908.0
911.0
906.0
904.0
906.0
909.0
906.0
902.0
904.0
903.0
903.0
902.0
902.0
905.0
907.0
909.0
912.0
910.0
910.0
907.0
905.0
904.0
903.0
901.0
904.0
905.0
907.0
908.0
908.0
907.0
908.0
907.0
901.0
905.0
905.0
906.0
907.0
902.0
901.0
904.0
902.0
908.0
903.0
904.0
902.0
903.0
902.0
906.0
904.0
906.0
907.0
911.0
911.0
913.0
913.0
914.0
915.0
915.0
917.0
919.0
926.0
925.0
927.0
932.0
933.0
939.0
943.0
948.0
950.0
949.0
947.0
943.0
939.0
933.0
930.0
929.0
929.0
930.0
935.0
936.0
943.0
943.0
944.0
941.0
937.0
929.0
927.0
919.0
916.0
909.0
908.0
904.0
902.0
901.0
895.0
893.0
893.0
889.0
889.0
889.0
893.0
892.0
891.0
886.0
883.0
881.0
879.0
879.0
881.0
881.0
883.0
885.0
883.0
885.0
883.0
882.0
886.0
885.0
881.0
883.0
883.0
883.0
885.0
886.0
886.0
884.0
884.0
884.0
879.0
875.0
873.0
870.0
868.0
879.0
900.0
931.0
967.0
1001.0
1030.0
1048.0
1054.0
1049.0
1046.0
1054.0
1079.0
1116.0
1162.0
1197.0
1206.0
1186.0
1123.0
1026.0
918.0
824.0
748.0
703.0
680.0
667.0
657.0
649.0
640.0
629.0
625.0
619.0
617.0
610.0
606.0
610.0
616.0
620.0
639.0
658.0
684.0
713.0
747.0
781.0
806.0
825.0
840.0
847.0
858.0
859.0
860.0
859.0
856.0
856.0
857.0
860.0
863.0
863.0
862.0
864.0
866.0
868.0
872.0
873.0
875.0
877.0
874.0
870.0
870.0
868.0
862.0
861.0
859.0
857.0
856.0
856.0
854.0
849.0
846.0
845.0
842.0
837.0
829.0
830.0
830.0
830.0
828.0
827.0
827.0
824.0
825.0
819.0
817.0
816.0
811.0
809.0
809.0
811.0
809.0
810.0
810.0
809.0
808.0
810.0
808.0
807.0
808.0
807.0
811.0
811.0
816.0
822.0
823.0
822.0
823.0
826.0
827.0
830.0
836.0
836.0
840.0
842.0
846.0
851.0
857.0
860.0
868.0
875.0
879.0
874.0
876.0
881.0
880.0
880.0
880.0
882.0
884.0
886.0
885.0
886.0
885.0
886.0
888.0
888.0
888.0
886.0
884.0
886.0
889.0
891.0
889.0
890.0
888.0
885.0
885.0
878.0
883.0
884.0
883.0
888.0
884.0
886.0
884.0
884.0
879.0
881.0
881.0
876.0
876.0
876.0
875.0
876.0
879.0
881.0
879.0
880.0
880.0
878.0
877.0
876.0
874.0
872.0
870.0
870.0
870.0
871.0
876.0
880.0
879.0
877.0
873.0
872.0
878.0
881.0
882.0
879.0
879.0
877.0
881.0
887.0
890.0
879.0
875.0
869.0
873.0
877.0
883.0
882.0
877.0
872.0
871.0
871.0
872.0
879.0
885.0
885.0
881.0
881.0
884.0
886.0
881.0
875.0
870.0
867.0
870.0
872.0
882.0
883.0
887.0
892.0
910.0
920.0
918.0
900.0
883.0
870.0
868.0
872.0
880.0
885.0
888.0
893.0
901.0
910.0
922.0
929.0
929.0
921.0
915.0
914.0
913.0
923.0
940.0
944.0
943.0
934.0
926.0
922.0
919.0
913.0
917.0
919.0
921.0
918.0
923.0
931.0
940.0
950.0
951.0
941.0
923.0
902.0
889.0
883.0
887.0
893.0
898.0
901.0
896.0
890.0
882.0
881.0
882.0
882.0
883.0
889.0
891.0
893.0
891.0
888.0
878.0
869.0
866.0
863.0
869.0
872.0
874.0
876.0
881.0
882.0
886.0
882.0
884.0
883.0
882.0
883.0
881.0
878.0
869.0
863.0
861.0
864.0
866.0
877.0
892.0
912.0
941.0
973.0
1004.0
1021.0
1025.0
1020.0
1018.0
1034.0
1060.0
1103.0
1147.0
1182.0
1189.0
1155.0
1092.0
1011.0
926.0
859.0
809.0
774.0
752.0
735.0
721.0
709.0
701.0
693.0
688.0
683.0
676.0
669.0
665.0
665.0
669.0
682.0
698.0
721.0
749.0
777.0
803.0
824.0
837.0
847.0
849.0
850.0
849.0
853.0
855.0
860.0
864.0
865.0
867.0
864.0
864.0
856.0
854.0
850.0
853.0
857.0
860.0
865.0
866.0
864.0
861.0
858.0
853.0
848.0
848.0
843.0
842.0
841.0
837.0
838.0
839.0
838.0
836.0
835.0
831.0
825.0
822.0
816.0
815.0
811.0
812.0
812.0
812.0
814.0
814.0
806.0
802.0
801.0
800.0
795.0
799.0
797.0
799.0
799.0
800.0
799.0
805.0
806.0
806.0
806.0
803.0
801.0
803.0
810.0
814.0
821.0
830.0
833.0
840.0
842.0
844.0
846.0
849.0
848.0
852.0
851.0
849.0
852.0
854.0
857.0
865.0
868.0
875.0
878.0
877.0
876.0
876.0
873.0
875.0
875.0
874.0
872.0
873.0
872.0
870.0
873.0
878.0
881.0
882.0
881.0
873.0
870.0
874.0
871.0
877.0
877.0
875.0
875.0
876.0
873.0
869.0
868.0
868.0
865.0
866.0
864.0
862.0
864.0
865.0
864.0
863.0
860.0
859.0
862.0
865.0
869.0
869.0
866.0
863.0
860.0
853.0
848.0
848.0
850.0
854.0
855.0
858.0
854.0
857.0
858.0
860.0
867.0
870.0
874.0
870.0
859.0
850.0
852.0
865.0
880.0
895.0
891.0
874.0
852.0
835.0
827.0
828.0
833.0
848.0
862.0
867.0
865.0
864.0
868.0
874.0
875.0
880.0
887.0
897.0
889.0
865.0
849.0
848.0
865.0
883.0
901.0
904.0
898.0
880.0
846.0
819.0
805.0
812.0
845.0
876.0
898.0
906.0
899.0
886.0
874.0
885.0
903.0
922.0
922.0
909.0
899.0
887.0
891.0
892.0
890.0
891.0
898.0
909.0
918.0
927.0
921.0
906.0
895.0
890.0
897.0
917.0
935.0
949.0
955.0
957.0
955.0
944.0
926.0
898.0
876.0
863.0
868.0
876.0
878.0
875.0
867.0
862.0
863.0
873.0
889.0
899.0
904.0
902.0
898.0
895.0
896.0
895.0
887.0
879.0
870.0
861.0
858.0
860.0
871.0
880.0
887.0
898.0
904.0
904.0
894.0
875.0
858.0
854.0
854.0
860.0
865.0
867.0
863.0
867.0
877.0
894.0
921.0
946.0
970.0
988.0
1005.0
1011.0
1021.0
1024.0
1033.0
1055.0
1087.0
1133.0
1176.0
1202.0
1199.0
1159.0
1085.0
1000.0
927.0
864.0
821.0
796.0
773.0
753.0
740.0
729.0
717.0
705.0
692.0
681.0
675.0
674.0
674.0
677.0
679.0
683.0
698.0
715.0
742.0
774.0
800.0
826.0
844.0
853.0
860.0
861.0
858.0
856.0
856.0
852.0
854.0
861.0
863.0
864.0
864.0
863.0
863.0
867.0
862.0
864.0
860.0
860.0
854.0
851.0
848.0
844.0
843.0
849.0
851.0
852.0
849.0
847.0
844.0
847.0
845.0
843.0
842.0
838.0
836.0
835.0
828.0
823.0
816.0
812.0
811.0
809.0
809.0
812.0
811.0
807.0
806.0
804.0
800.0
798.0
796.0
797.0
799.0
796.0
795.0
793.0
793.0
795.0
797.0
802.0
805.0
805.0
802.0
803.0
803.0
810.0
814.0
817.0
817.0
825.0
827.0
835.0
839.0
843.0
847.0
849.0
853.0
854.0
855.0
852.0
854.0
858.0
862.0
867.0
871.0
875.0
878.0
875.0
875.0
875.0
874.0
876.0
875.0
876.0
878.0
879.0
883.0
883.0
885.0
885.0
880.0
877.0
877.0
881.0
875.0
875.0
874.0
876.0
880.0
880.0
875.0
877.0
873.0
874.0
874.0
872.0
870.0
869.0
871.0
871.0
872.0
874.0
871.0
866.0
869.0
866.0
867.0
867.0
868.0
864.0
865.0
867.0
868.0
870.0
869.0
865.0
866.0
864.0
865.0
867.0
860.0
862.0
864.0
867.0
870.0
870.0
867.0
869.0
870.0
869.0
870.0
866.0
865.0
864.0
863.0
863.0
865.0
869.0
871.0
872.0
872.0
869.0
871.0
867.0
864.0
865.0
870.0
872.0
874.0
873.0
873.0
870.0
868.0
868.0
864.0
865.0
864.0
863.0
869.0
869.0
871.0
876.0
877.0
873.0
871.0
870.0
869.0
871.0
871.0
869.0
871.0
872.0
879.0
882.0
888.0
891.0
888.0
890.0
890.0
891.0
889.0
890.0
893.0
896.0
906.0
910.0
917.0
917.0
913.0
910.0
904.0
895.0
890.0
885.0
888.0
895.0
901.0
911.0
914.0
916.0
915.0
906.0
894.0
884.0
878.0
873.0
874.0
874.0
870.0
866.0
861.0
858.0
855.0
852.0
851.0
848.0
842.0
849.0
850.0
850.0
854.0
856.0
855.0
855.0
854.0
852.0
849.0
851.0
848.0
846.0
845.0
849.0
850.0
851.0
852.0
852.0
850.0
851.0
849.0
851.0
848.0
849.0
848.0
845.0
845.0
845.0
846.0
859.0
879.0
902.0
936.0
971.0
999.0
1015.0
1021.0
1022.0
1022.0
1030.0
1053.0
1092.0
1132.0
1161.0
1165.0
1129.0
1057.0
956.0
857.0
775.0
719.0
687.0
668.0
654.0
644.0
634.0
626.0
621.0
618.0
614.0
611.0
608.0
613.0
617.0
624.0
633.0
650.0
672.0
697.0
725.0
754.0
775.0
792.0
804.0
812.0
818.0
821.0
822.0
824.0
824.0
825.0
824.0
826.0
829.0
833.0
835.0
839.0
837.0
837.0
834.0
831.0
830.0
831.0
830.0
827.0
825.0
823.0
820.0
823.0
822.0
819.0
815.0
817.0
812.0
808.0
807.0
803.0
801.0
801.0
800.0
801.0
798.0
798.0
794.0
793.0
784.0
781.0
778.0
774.0
777.0
777.0
777.0
779.0
781.0
780.0
781.0
778.0
776.0
772.0
770.0
768.0
770.0
773.0
777.0
782.0
783.0
787.0
786.0
789.0
793.0
795.0
798.0
800.0
805.0
809.0
815.0
816.0
819.0
823.0
829.0
831.0
837.0
837.0
838.0
839.0
837.0
841.0
843.0
846.0
847.0
852.0
854.0
857.0
857.0
857.0
855.0
854.0
852.0
854.0
857.0
861.0
865.0
867.0
866.0
866.0
863.0
864.0
864.0
861.0
858.0
862.0
865.0
864.0
868.0
866.0
863.0
862.0
854.0
855.0
854.0
854.0
859.0
860.0
862.0
862.0
863.0
860.0
857.0
854.0
850.0
845.0
843.0
841.0
848.0
847.0
850.0
850.0
854.0
851.0
852.0
848.0
849.0
850.0
850.0
848.0
847.0
848.0
848.0
854.0
854.0
854.0
852.0
854.0
854.0
852.0
851.0
849.0
848.0
849.0
856.0
854.0
857.0
857.0
853.0
852.0
847.0
853.0
851.0
853.0
855.0
853.0
859.0
858.0
861.0
859.0
858.0
856.0
852.0
853.0
855.0
856.0
858.0
865.0
871.0
878.0
886.0
889.0
891.0
889.0
886.0
887.0
884.0
886.0
891.0
897.0
899.0
903.0
903.0
904.0
898.0
896.0
890.0
881.0
879.0
880.0
883.0
892.0
898.0
900.0
907.0
902.0
893.0
883.0
870.0
861.0
858.0
853.0
853.0
852.0
850.0
853.0
854.0
849.0
849.0
843.0
843.0
839.0
840.0
840.0
841.0
843.0
845.0
847.0
849.0
850.0
850.0
847.0
847.0
841.0
846.0
845.0
843.0
843.0
841.0
841.0
844.0
846.0
849.0
849.0
845.0
840.0
835.0
829.0
821.0
827.0
835.0
854.0
881.0
911.0
938.0
961.0
969.0
971.0
966.0
975.0
999.0
1042.0
1096.0
1140.0
1166.0
1157.0
1103.0
1017.0
918.0
831.0
766.0
725.0
695.0
675.0
662.0
655.0
650.0
645.0
643.0
639.0
631.0
624.0
626.0
626.0
631.0
642.0
660.0
679.0
708.0
737.0
763.0
787.0
801.0
810.0
817.0
818.0
822.0
828.0
830.0
835.0
839.0
839.0
835.0
836.0
834.0
834.0
834.0
834.0
834.0
839.0
839.0
840.0
839.0
835.0
833.0
831.0
829.0
827.0
825.0
826.0
823.0
824.0
818.0
817.0
818.0
816.0
811.0
807.0
804.0
802.0
800.0
798.0
795.0
793.0
796.0
793.0
790.0
792.0
793.0
788.0
783.0
778.0
776.0
778.0
780.0
781.0
782.0
786.0
786.0
787.0
783.0
786.0
791.0
793.0
794.0
797.0
798.0
805.0
808.0
811.0
816.0
819.0
821.0
827.0
831.0
836.0
840.0
841.0
842.0
846.0
849.0
853.0
853.0
852.0
853.0
855.0
857.0
859.0
860.0
857.0
860.0
860.0
860.0
861.0
859.0
863.0
865.0
869.0
866.0
864.0
862.0
860.0
859.0
861.0
863.0
864.0
861.0
864.0
859.0
861.0
856.0
856.0
853.0
854.0
856.0
858.0
859.0
857.0
856.0
858.0
857.0
856.0
853.0
848.0
848.0
846.0
846.0
847.0
852.0
851.0
852.0
856.0
860.0
861.0
861.0
855.0
845.0
835.0
835.0
837.0
845.0
852.0
861.0
868.0
868.0
861.0
844.0
833.0
831.0
829.0
830.0
835.0
842.0
850.0
853.0
854.0
858.0
857.0
855.0
855.0
851.0
846.0
839.0
836.0
837.0
840.0
850.0
858.0
860.0
863.0
859.0
854.0
848.0
845.0
851.0
855.0
859.0
864.0
869.0
873.0
878.0
882.0
887.0
888.0
886.0
881.0
881.0
882.0
886.0
893.0
903.0
904.0
910.0
912.0
907.0
904.0
896.0
887.0
883.0
883.0
887.0
893.0
902.0
908.0
910.0
910.0
908.0
899.0
888.0
879.0
870.0
869.0
868.0
867.0
862.0
864.0
860.0
857.0
853.0
849.0
849.0
847.0
849.0
849.0
853.0
855.0
854.0
856.0
855.0
852.0
852.0
852.0
847.0
850.0
847.0
851.0
847.0
850.0
848.0
850.0
850.0
853.0
855.0
855.0
854.0
848.0
846.0
839.0
839.0
836.0
837.0
841.0
850.0
860.0
880.0
903.0
934.0
967.0
993.0
1003.0
1008.0
1005.0
1014.0
1040.0
1075.0
1115.0
1148.0
1154.0
1121.0
1057.0
963.0
869.0
794.0
744.0
716.0
691.0
674.0
657.0
641.0
631.0
628.0
623.0
623.0
623.0
623.0
620.0
623.0
622.0
629.0
637.0
649.0
671.0
697.0
725.0
755.0
777.0
798.0
810.0
815.0
817.0
817.0
814.0
816.0
814.0
812.0
812.0
813.0
813.0
815.0
818.0
821.0
825.0
823.0
827.0
822.0
819.0
814.0
810.0
804.0
802.0
799.0
799.0
794.0
796.0
794.0
796.0
799.0
798.0
793.0
790.0
781.0
779.0
781.0
779.0
782.0
783.0
790.0
791.0
789.0
779.0
771.0
764.0
761.0
757.0
761.0
764.0
768.0
769.0
767.0
762.0
758.0
759.0
757.0
759.0
764.0
774.0
779.0
783.0
782.0
780.0
775.0
769.0
769.0
774.0
780.0
787.0
797.0
807.0
811.0
818.0
821.0
826.0
827.0
826.0
820.0
816.0
813.0
816.0
824.0
835.0
843.0
846.0
845.0
844.0
845.0
846.0
846.0
849.0
853.0
853.0
855.0
850.0
844.0
841.0
846.0
848.0
849.0
848.0
850.0
848.0
851.0
846.0
845.0
842.0
845.0
847.0
846.0
850.0
854.0
852.0
851.0
849.0
844.0
840.0
834.0
834.0
840.0
847.0
849.0
850.0
848.0
843.0
840.0
836.0
834.0
830.0
830.0
835.0
838.0
841.0
842.0
843.0
840.0
843.0
838.0
838.0
835.0
833.0
833.0
830.0
831.0
832.0
837.0
840.0
842.0
840.0
843.0
844.0
841.0
837.0
834.0
833.0
834.0
834.0
835.0
837.0
835.0
838.0
837.0
833.0
835.0
832.0
834.0
835.0
838.0
839.0
841.0
842.0
843.0
845.0
845.0
844.0
845.0
846.0
849.0
849.0
854.0
855.0
860.0
862.0
867.0
872.0
876.0
879.0
878.0
874.0
869.0
865.0
859.0
854.0
857.0
857.0
864.0
867.0
870.0
875.0
871.0
869.0
862.0
855.0
847.0
841.0
837.0
834.0
832.0
830.0
824.0
826.0
822.0
819.0
818.0
818.0
819.0
820.0
824.0
824.0
823.0
823.0
822.0
816.0
813.0
814.0
811.0
813.0
814.0
817.0
820.0
822.0
822.0
823.0
821.0
818.0
821.0
818.0
815.0
819.0
819.0
822.0
823.0
817.0
818.0
812.0
809.0
817.0
831.0
855.0
894.0
933.0
969.0
992.0
998.0
1000.0
996.0
997.0
1012.0
1038.0
1073.0
1105.0
1111.0
1081.0
1010.0
916.0
822.0
749.0
696.0
666.0
647.0
635.0
625.0
621.0
617.0
613.0
614.0
608.0
607.0
602.0
602.0
599.0
605.0
613.0
625.0
648.0
676.0
710.0
736.0
761.0
779.0
793.0
797.0
796.0
791.0
793.0
791.0
794.0
795.0
800.0
805.0
809.0
808.0
806.0
806.0
804.0
800.0
793.0
796.0
793.0
792.0
795.0
795.0
796.0
796.0
795.0
794.0
788.0
789.0
785.0
779.0
778.0
776.0
772.0
772.0
771.0
770.0
770.0
771.0
771.0
766.0
763.0
758.0
755.0
747.0
751.0
751.0
754.0
751.0
749.0
744.0
746.0
741.0
740.0
743.0
742.0
746.0
749.0
749.0
751.0
750.0
756.0
757.0
758.0
757.0
757.0
759.0
758.0
764.0
769.0
771.0
776.0
779.0
787.0
786.0
788.0
796.0
794.0
797.0
799.0
801.0
802.0
805.0
807.0
809.0
814.0
818.0
818.0
820.0
824.0
821.0
819.0
819.0
820.0
825.0
826.0
830.0
832.0
830.0
832.0
826.0
828.0
824.0
824.0
825.0
825.0
829.0
830.0
833.0
831.0
828.0
828.0
830.0
829.0
824.0
825.0
822.0
822.0
824.0
825.0
823.0
826.0
825.0
824.0
823.0
820.0
822.0
819.0
820.0
822.0
822.0
821.0
821.0
819.0
818.0
818.0
816.0
814.0
816.0
814.0
816.0
822.0
820.0
824.0
824.0
825.0
821.0
819.0
817.0
816.0
814.0
815.0
814.0
816.0
822.0
823.0
828.0
826.0
826.0
826.0
822.0
822.0
823.0
825.0
824.0
825.0
828.0
832.0
836.0
843.0
847.0
849.0
854.0
852.0
854.0
856.0
856.0
858.0
865.0
869.0
873.0
877.0
878.0
881.0
876.0
871.0
863.0
859.0
857.0
853.0
853.0
856.0
864.0
869.0
874.0
879.0
878.0
874.0
866.0
856.0
844.0
837.0
835.0
833.0
833.0
834.0
827.0
827.0
821.0
820.0
821.0
816.0
820.0
820.0
819.0
822.0
821.0
819.0
820.0
820.0
820.0
819.0
818.0
817.0
816.0
815.0
818.0
820.0
824.0
824.0
821.0
823.0
819.0
819.0
814.0
811.0
809.0
807.0
806.0
803.0
799.0
798.0
802.0
811.0
824.0
847.0
870.0
893.0
911.0
916.0
917.0
920.0
937.0
964.0
1010.0
1063.0
1106.0
1129.0
1123.0
1079.0
1016.0
939.0
870.0
816.0
780.0
753.0
729.0
704.0
684.0
667.0
655.0
649.0
648.0
649.0
649.0
639.0
640.0
643.0
643.0
649.0
665.0
683.0
711.0
738.0
759.0
779.0
794.0
803.0
806.0
809.0
810.0
811.0
811.0
812.0
814.0
814.0
816.0
817.0
818.0
819.0
819.0
821.0
820.0
820.0
817.0
815.0
811.0
807.0
808.0
809.0
807.0
810.0
809.0
810.0
807.0
808.0
804.0
801.0
797.0
794.0
794.0
793.0
792.0
792.0
789.0
789.0
788.0
788.0
785.0
781.0
777.0
773.0
773.0
768.0
770.0
774.0
771.0
771.0
773.0
769.0
771.0
768.0
768.0
767.0
765.0
768.0
771.0
773.0
777.0
781.0
785.0
788.0
791.0
793.0
797.0
799.0
799.0
806.0
811.0
813.0
820.0
822.0
827.0
828.0
829.0
829.0
829.0
828.0
833.0
835.0
839.0
843.0
844.0
846.0
847.0
849.0
849.0
845.0
846.0
845.0
843.0
842.0
841.0
845.0
849.0
844.0
844.0
844.0
846.0
845.0
844.0
841.0
842.0
841.0
842.0
843.0
844.0
843.0
843.0
842.0
838.0
836.0
836.0
832.0
835.0
834.0
832.0
832.0
833.0
832.0
832.0
831.0
830.0
828.0
827.0
827.0
827.0
830.0
834.0
837.0
838.0
838.0
838.0
837.0
834.0
837.0
835.0
834.0
831.0
830.0
836.0
835.0
838.0
841.0
839.0
839.0
840.0
839.0
836.0
838.0
839.0
839.0
839.0
840.0
841.0
839.0
841.0
837.0
835.0
837.0
835.0
838.0
837.0
839.0
842.0
843.0
845.0
844.0
841.0
840.0
840.0
841.0
839.0
842.0
845.0
849.0
854.0
859.0
864.0
870.0
868.0
867.0
870.0
869.0
871.0
872.0
876.0
878.0
884.0
887.0
887.0
885.0
884.0
879.0
873.0
870.0
867.0
868.0
872.0
879.0
886.0
892.0
893.0
886.0
876.0
866.0
858.0
848.0
843.0
839.0
838.0
841.0
843.0
840.0
838.0
839.0
837.0
835.0
832.0
831.0
829.0
829.0
828.0
826.0
827.0
828.0
829.0
828.0
831.0
831.0
831.0
830.0
831.0
829.0
827.0
830.0
828.0
831.0
832.0
833.0
833.0
830.0
828.0
830.0
825.0
820.0
819.0
820.0
836.0
852.0
885.0
918.0
947.0
967.0
976.0
978.0
977.0
984.0
1010.0
1047.0
1088.0
1131.0
1149.0
1141.0
1088.0
1007.0
911.0
818.0
747.0
697.0
671.0
652.0
641.0
629.0
622.0
614.0
605.0
604.0
598.0
595.0
593.0
595.0
598.0
608.0
621.0
643.0
672.0
703.0
736.0
759.0
774.0
785.0
794.0
797.0
800.0
800.0
805.0
810.0
812.0
817.0
818.0
818.0
817.0
818.0
818.0
818.0
815.0
819.0
817.0
818.0
818.0
820.0
820.0
817.0
815.0
811.0
809.0
805.0
803.0
803.0
803.0
806.0
805.0
804.0
802.0
798.0
796.0
793.0
789.0
786.0
784.0
782.0
784.0
781.0
780.0
778.0
776.0
775.0
772.0
770.0
771.0
768.0
767.0
768.0
765.0
769.0
769.0
771.0
770.0
770.0
769.0
767.0
770.0
767.0
769.0
770.0
776.0
782.0
788.0
796.0
799.0
801.0
803.0
806.0
807.0
807.0
811.0
813.0
818.0
822.0
827.0
830.0
833.0
834.0
838.0
839.0
837.0
838.0
838.0
840.0
843.0
845.0
847.0
850.0
852.0
849.0
845.0
845.0
845.0
844.0
843.0
844.0
843.0
848.0
849.0
853.0
850.0
850.0
847.0
846.0
843.0
843.0
841.0
844.0
843.0
845.0
845.0
848.0
849.0
845.0
841.0
841.0
839.0
837.0
837.0
835.0
836.0
838.0
835.0
836.0
836.0
836.0
833.0
834.0
835.0
835.0
832.0
834.0
834.0
838.0
841.0
840.0
842.0
836.0
839.0
837.0
835.0
835.0
835.0
837.0
839.0
842.0
841.0
843.0
841.0
842.0
839.0
838.0
838.0
837.0
837.0
839.0
842.0
842.0
844.0
847.0
846.0
845.0
845.0
843.0
841.0
843.0
842.0
845.0
842.0
848.0
850.0
850.0
853.0
851.0
856.0
858.0
858.0
860.0
864.0
866.0
869.0
871.0
878.0
879.0
882.0
885.0
891.0
893.0
896.0
897.0
892.0
887.0
884.0
879.0
875.0
873.0
875.0
881.0
886.0
891.0
893.0
888.0
884.0
875.0
864.0
859.0
855.0
855.0
852.0
850.0
846.0
842.0
838.0
836.0
833.0
834.0
832.0
836.0
836.0
837.0
834.0
837.0
833.0
834.0
832.0
831.0
829.0
830.0
829.0
832.0
832.0
835.0
833.0
832.0
831.0
829.0
830.0
831.0
831.0
831.0
831.0
832.0
829.0
832.0
826.0
829.0
838.0
856.0
881.0
912.0
940.0
966.0
979.0
983.0
982.0
984.0
997.0
1025.0
1063.0
1103.0
1135.0
1144.0
1112.0
1043.0
942.0
839.0
752.0
692.0
653.0
633.0
620.0
609.0
603.0
596.0
593.0
590.0
590.0
591.0
595.0
598.0
604.0
611.0
628.0
649.0
678.0
704.0
737.0
761.0
783.0
797.0
804.0
811.0
807.0
808.0
810.0
814.0
815.0
816.0
818.0
819.0
824.0
824.0
828.0
831.0
829.0
829.0
827.0
826.0
822.0
820.0
818.0
818.0
817.0
819.0
818.0
817.0
817.0
813.0
807.0
807.0
801.0
803.0
801.0
799.0
799.0
800.0
796.0
794.0
791.0
790.0
786.0
783.0
779.0
779.0
775.0
776.0
778.0
778.0
778.0
779.0
778.0
778.0
776.0
777.0
779.0
774.0
770.0
774.0
780.0
784.0
788.0
791.0
794.0
800.0
803.0
806.0
809.0
812.0
815.0
821.0
824.0
827.0
831.0
835.0
835.0
839.0
841.0
839.0
839.0
843.0
846.0
847.0
847.0
851.0
854.0
858.0
857.0
851.0
856.0
855.0
855.0
853.0
851.0
850.0
853.0
856.0
858.0
859.0
856.0
855.0
853.0
853.0
852.0
854.0
851.0
849.0
849.0
849.0
848.0
850.0
851.0
850.0
846.0
847.0
844.0
845.0
846.0
845.0
843.0
848.0
848.0
850.0
846.0
843.0
843.0
840.0
840.0
841.0
842.0
838.0
841.0
