# Simple Text Format
# Sampling Rate (Hz):= 360.00
# Resolution:= 12
# Labels:= ECG
772.0
780.0
783.0
792.0
797.0
799.0
802.0
805.0
807.0
808.0
807.0
809.0
808.0
804.0
807.0
808.0
809.0
810.0
809.0
810.0
812.0
808.0
803.0
802.0
801.0
800.0
799.0
794.0
795.0
796.0
792.0
790.0
791.0
790.0
783.0
782.0
774.0
776.0
774.0
775.0
773.0
771.0
767.0
764.0
767.0
761.0
760.0
758.0
759.0
756.0
759.0
760.0
758.0
758.0
759.0
756.0
760.0
760.0
761.0
759.0
761.0
763.0
766.0
772.0
774.0
776.0
781.0
781.0
790.0
792.0
793.0
796.0
793.0
799.0
800.0
806.0
809.0
816.0
820.0
823.0
825.0
825.0
826.0
826.0
826.0
824.0
829.0
832.0
834.0
836.0
840.0
841.0
841.0
841.0
840.0
837.0
835.0
838.0
837.0
839.0
839.0
841.0
844.0
842.0
842.0
838.0
834.0
834.0
834.0
834.0
835.0
836.0
840.0
841.0
841.0
838.0
837.0
837.0
838.0
837.0
831.0
830.0
830.0
830.0
833.0
835.0
835.0
834.0
834.0
830.0
831.0
828.0
831.0
830.0
831.0
832.0
832.0
835.0
836.0
838.0
837.0
836.0
836.0
833.0
832.0
831.0
831.0
836.0
838.0
837.0
842.0
842.0
840.0
839.0
839.0
834.0
834.0
837.0
839.0
842.0
841.0
844.0
846.0
843.0
844.0
840.0
840.0
837.0
835.0
836.0
837.0
839.0
839.0
841.0
845.0
845.0
842.0
838.0
839.0
837.0
842.0
841.0
842.0
846.0
849.0
857.0
860.0
862.0
862.0
864.0
863.0
864.0
861.0
866.0
866.0
875.0
882.0
889.0
896.0
891.0
885.0
884.0
878.0
870.0
868.0
865.0
867.0
868.0
875.0
881.0
891.0
890.0
888.0
881.0
873.0
862.0
855.0
852.0
849.0
848.0
847.0
847.0
843.0
840.0
838.0
837.0
835.0
833.0
831.0
830.0
830.0
828.0
831.0
835.0
833.0
833.0
833.0
833.0
832.0
831.0
831.0
828.0
831.0
829.0
834.0
835.0
837.0
835.0
839.0
834.0
834.0
832.0
834.0
832.0
830.0
831.0
832.0
828.0
831.0
830.0
831.0
841.0
856.0
879.0
908.0
938.0
966.0
983.0
985.0
983.0
987.0
999.0
1027.0
1065.0
1099.0
1116.0
1098.0
1035.0
942.0
840.0
751.0
692.0
659.0
641.0
634.0
623.0
613.0
606.0
595.0
590.0
588.0
588.0
594.0
596.0
601.0
604.0
608.0
612.0
618.0
628.0
647.0
672.0
704.0
733.0
759.0
779.0
797.0
805.0
807.0
810.0
811.0
811.0
816.0
817.0
823.0
826.0
830.0
831.0
834.0
834.0
832.0
833.0
829.0
829.0
826.0
827.0
827.0
829.0
830.0
830.0
830.0
827.0
825.0
821.0
816.0
815.0
813.0
809.0
807.0
809.0
811.0
810.0
806.0
805.0
803.0
802.0
798.0
797.0
797.0
794.0
788.0
789.0
787.0
787.0
786.0
785.0
784.0
783.0
779.0
783.0
779.0
781.0
781.0
783.0
785.0
786.0
790.0
792.0
792.0
794.0
794.0
795.0
798.0
798.0
800.0
808.0
815.0
818.0
826.0
829.0
831.0
831.0
833.0
833.0
837.0
839.0
841.0
848.0
850.0
853.0
856.0
857.0
857.0
858.0
857.0
856.0
855.0
857.0
861.0
864.0
865.0
867.0
870.0
867.0
864.0
862.0
863.0
861.0
864.0
862.0
861.0
861.0
863.0
860.0
861.0
858.0
862.0
861.0
862.0
860.0
856.0
859.0
858.0
860.0
860.0
860.0
860.0
857.0
852.0
853.0
853.0
849.0
854.0
851.0
850.0
851.0
853.0
853.0
855.0
858.0
854.0
854.0
853.0
851.0
853.0
852.0
851.0
853.0
857.0
857.0
858.0
857.0
859.0
857.0
855.0
854.0
855.0
851.0
855.0
855.0
860.0
859.0
864.0
863.0
861.0
863.0
863.0
860.0
859.0
855.0
857.0
859.0
861.0
864.0
863.0
858.0
857.0
859.0
859.0
859.0
858.0
858.0
859.0
862.0
864.0
867.0
871.0
871.0
875.0
872.0
871.0
873.0
878.0
881.0
881.0
883.0
888.0
890.0
896.0
898.0
904.0
911.0
910.0
910.0
908.0
904.0
899.0
892.0
892.0
891.0
896.0
897.0
905.0
909.0
912.0
912.0
907.0
902.0
895.0
887.0
883.0
878.0
873.0
871.0
867.0
867.0
859.0
859.0
857.0
853.0
852.0
855.0
855.0
856.0
855.0
854.0
857.0
857.0
854.0
851.0
851.0
850.0
849.0
847.0
853.0
855.0
857.0
855.0
852.0
851.0
852.0
848.0
850.0
847.0
846.0
850.0
850.0
851.0
854.0
853.0
850.0
851.0
849.0
851.0
860.0
885.0
914.0
951.0
980.0
1003.0
1009.0
1009.0
1012.0
1029.0
1062.0
1098.0
1128.0
1123.0
1081.0
998.0
893.0
785.0
705.0
650.0
623.0
612.0
608.0
606.0
600.0
599.0
597.0
598.0
600.0
601.0
602.0
608.0
614.0
624.0
637.0
660.0
684.0
711.0
745.0
774.0
795.0
815.0
828.0
826.0
829.0
831.0
828.0
832.0
833.0
835.0
835.0
839.0
845.0
844.0
843.0
846.0
844.0
843.0
839.0
839.0
841.0
836.0
836.0
837.0
836.0
833.0
833.0
833.0
831.0
825.0
824.0
818.0
818.0
813.0
813.0
811.0
811.0
809.0
812.0
804.0
801.0
801.0
795.0
794.0
795.0
792.0
790.0
790.0
793.0
792.0
790.0
787.0
787.0
791.0
790.0
790.0
790.0
791.0
788.0
793.0
793.0
797.0
802.0
807.0
813.0
816.0
819.0
820.0
825.0
825.0
830.0
833.0
839.0
843.0
847.0
850.0
850.0
855.0
856.0
853.0
854.0
856.0
859.0
858.0
862.0
866.0
869.0
870.0
872.0
870.0
870.0
870.0
870.0
870.0
870.0
870.0
870.0
870.0
874.0
871.0
870.0
869.0
868.0
871.0
867.0
862.0
866.0
867.0
868.0
871.0
872.0
868.0
864.0
865.0
864.0
861.0
859.0
859.0
859.0
860.0
862.0
866.0
867.0
865.0
865.0
863.0
864.0
860.0
863.0
861.0
862.0
866.0
865.0
869.0
870.0
869.0
863.0
864.0
864.0
861.0
860.0
864.0
863.0
865.0
867.0
866.0
870.0
871.0
868.0
868.0
867.0
865.0
865.0
867.0
867.0
871.0
871.0
870.0
871.0
874.0
876.0
872.0
869.0
869.0
866.0
863.0
867.0
868.0
872.0
873.0
873.0
876.0
871.0
871.0
871.0
871.0
872.0
873.0
872.0
873.0
877.0
878.0
882.0
885.0
885.0
888.0
886.0
886.0
890.0
890.0
893.0
893.0
897.0
906.0
909.0
916.0
918.0
921.0
921.0
915.0
909.0
905.0
900.0
896.0
898.0
900.0
906.0
910.0
914.0
918.0
921.0
915.0
912.0
904.0
898.0
891.0
887.0
885.0
885.0
883.0
883.0
879.0
874.0
872.0
865.0
859.0
863.0
861.0
863.0
867.0
870.0
871.0
866.0
864.0
862.0
862.0
859.0
860.0
860.0
864.0
864.0
864.0
868.0
866.0
866.0
865.0
867.0
861.0
861.0
859.0
861.0
860.0
860.0
863.0
865.0
864.0
859.0
858.0
855.0
853.0
859.0
869.0
887.0
920.0
950.0
986.0
1015.0
1029.0
1033.0
1029.0
1023.0
1025.0
1039.0
1071.0
1106.0
1138.0
1148.0
1129.0
1073.0
987.0
886.0
795.0
726.0
682.0
661.0
647.0
642.0
637.0
632.0
629.0
626.0
625.0
624.0
622.0
622.0
619.0
624.0
628.0
639.0
653.0
672.0
702.0
731.0
759.0
785.0
805.0
818.0
829.0
836.0
836.0
838.0
841.0
846.0
846.0
854.0
855.0
856.0
857.0
854.0
856.0
853.0
855.0
853.0
853.0
856.0
860.0
859.0
857.0
855.0
852.0
850.0
848.0
844.0
843.0
841.0
842.0
841.0
843.0
838.0
836.0
833.0
826.0
824.0
823.0
820.0
814.0
811.0
814.0
814.0
815.0
810.0
808.0
807.0
804.0
797.0
795.0
795.0
797.0
794.0
795.0
797.0
799.0
804.0
805.0
804.0
804.0
801.0
802.0
803.0
808.0
806.0
813.0
817.0
823.0
826.0
833.0
834.0
837.0
840.0
842.0
849.0
851.0
852.0
856.0
863.0
866.0
871.0
873.0
873.0
874.0
873.0
871.0
873.0
872.0
878.0
879.0
882.0
883.0
884.0
883.0
882.0
881.0
881.0
879.0
878.0
878.0
877.0
875.0
882.0
881.0
882.0
883.0
880.0
878.0
877.0
878.0
877.0
873.0
873.0
873.0
875.0
877.0
878.0
879.0
879.0
876.0
871.0
872.0
870.0
872.0
872.0
872.0
874.0
872.0
872.0
872.0
870.0
866.0
867.0
871.0
869.0
867.0
868.0
869.0
873.0
873.0
876.0
878.0
876.0
876.0
873.0
870.0
873.0
870.0
872.0
874.0
874.0
876.0
876.0
877.0
875.0
875.0
872.0
873.0
870.0
871.0
870.0
872.0
874.0
877.0
881.0
879.0
883.0
878.0
879.0
877.0
873.0
875.0
879.0
880.0
883.0
886.0
891.0
892.0
894.0
893.0
896.0
900.0
900.0
897.0
898.0
902.0
908.0
914.0
917.0
922.0
927.0
929.0
923.0
920.0
912.0
910.0
903.0
900.0
901.0
904.0
912.0
921.0
926.0
928.0
926.0
920.0
915.0
906.0
897.0
892.0
888.0
886.0
885.0
884.0
881.0
879.0
873.0
869.0
861.0
860.0
863.0
865.0
864.0
868.0
871.0
871.0
869.0
867.0
865.0
862.0
861.0
862.0
862.0
862.0
865.0
866.0
865.0
868.0
868.0
868.0
869.0
867.0
862.0
863.0
864.0
866.0
866.0
867.0
866.0
860.0
862.0
856.0
859.0
869.0
886.0
917.0
950.0
981.0
1006.0
1015.0
1013.0
1010.0
1014.0
1036.0
1063.0
1112.0
1143.0
1152.0
1126.0
1060.0
965.0
863.0
778.0
714.0
678.0
655.0
645.0
636.0
627.0
617.0
612.0
611.0
615.0
616.0
620.0
621.0
623.0
627.0
634.0
642.0
655.0
675.0
704.0
733.0
764.0
792.0
811.0
827.0
837.0
843.0
845.0
841.0
847.0
845.0
847.0
850.0
857.0
855.0
860.0
859.0
863.0
862.0
857.0
856.0
855.0
854.0
854.0
855.0
855.0
858.0
854.0
850.0
851.0
849.0
847.0
841.0
839.0
835.0
833.0
833.0
837.0
830.0
829.0
832.0
828.0
827.0
822.0
821.0
814.0
811.0
811.0
806.0
810.0
810.0
812.0
810.0
806.0
804.0
803.0
803.0
801.0
799.0
798.0
799.0
801.0
804.0
806.0
808.0
809.0
811.0
813.0
814.0
818.0
818.0
816.0
821.0
826.0
834.0
841.0
847.0
850.0
851.0
849.0
851.0
853.0
853.0
858.0
861.0
865.0
868.0
873.0
874.0
875.0
874.0
874.0
876.0
875.0
876.0
872.0
877.0
879.0
878.0
880.0
881.0
881.0
880.0
876.0
875.0
874.0
872.0
873.0
872.0
876.0
877.0
879.0
878.0
875.0
874.0
872.0
867.0
862.0
865.0
865.0
867.0
867.0
866.0
869.0
866.0
866.0
866.0
865.0
864.0
863.0
857.0
861.0
862.0
862.0
864.0
865.0
865.0
861.0
863.0
863.0
862.0
859.0
857.0
858.0
864.0
863.0
865.0
868.0
868.0
866.0
866.0
865.0
862.0
860.0
857.0
862.0
862.0
866.0
864.0
868.0
868.0
868.0
866.0
865.0
865.0
862.0
865.0
864.0
865.0
867.0
867.0
867.0
867.0
867.0
867.0
864.0
862.0
860.0
863.0
863.0
866.0
868.0
870.0
872.0
876.0
881.0
880.0
881.0
881.0
881.0
880.0
884.0
886.0
892.0
894.0
899.0
903.0
908.0
911.0
911.0
908.0
901.0
896.0
892.0
892.0
888.0
889.0
891.0
893.0
897.0
900.0
900.0
905.0
903.0
897.0
893.0
881.0
878.0
873.0
867.0
864.0
865.0
861.0
852.0
850.0
850.0
848.0
849.0
849.0
850.0
850.0
853.0
849.0
850.0
846.0
845.0
844.0
843.0
843.0
843.0
844.0
844.0
845.0
842.0
846.0
844.0
845.0
841.0
842.0
842.0
841.0
843.0
845.0
842.0
842.0
841.0
842.0
841.0
843.0
854.0
874.0
900.0
929.0
960.0
984.0
995.0
995.0
992.0
996.0
1016.0
1049.0
1087.0
1114.0
1114.0
1079.0
1004.0
903.0
800.0
721.0
666.0
639.0
626.0
622.0
610.0
603.0
597.0
590.0
587.0
587.0
593.0
592.0
596.0
601.0
607.0
616.0
625.0
644.0
667.0
697.0
727.0
752.0
780.0
795.0
810.0
815.0
820.0
821.0
821.0
825.0
827.0
828.0
829.0
831.0
834.0
835.0
835.0
836.0
833.0
830.0
833.0
824.0
826.0
824.0
826.0
826.0
829.0
825.0
824.0
824.0
825.0
821.0
818.0
813.0
811.0
810.0
808.0
805.0
806.0
802.0
803.0
801.0
797.0
794.0
793.0
788.0
785.0
786.0
784.0
787.0
786.0
786.0
787.0
787.0
787.0
782.0
783.0
783.0
777.0
779.0
779.0
780.0
787.0
791.0
790.0
795.0
796.0
797.0
799.0
800.0
803.0
807.0
811.0
817.0
824.0
828.0
832.0
835.0
839.0
841.0
841.0
840.0
839.0
842.0
844.0
848.0
851.0
854.0
856.0
858.0
856.0
857.0
854.0
853.0
851.0
853.0
851.0
853.0
858.0
858.0
860.0
858.0
858.0
858.0
856.0
854.0
853.0
853.0
847.0
846.0
853.0
852.0
851.0
855.0
855.0
855.0
855.0
854.0
853.0
853.0
850.0
851.0
851.0
853.0
852.0
853.0
852.0
851.0
851.0
850.0
845.0
845.0
842.0
846.0
845.0
845.0
849.0
851.0
851.0
850.0
849.0
847.0
845.0
842.0
842.0
847.0
847.0
853.0
854.0
852.0
852.0
850.0
849.0
846.0
849.0
847.0
844.0
843.0
845.0
848.0
851.0
851.0
853.0
853.0
852.0
852.0
848.0
849.0
847.0
849.0
853.0
854.0
854.0
856.0
855.0
856.0
849.0
852.0
848.0
852.0
851.0
857.0
856.0
861.0
864.0
870.0
871.0
869.0
871.0
871.0
872.0
872.0
874.0
876.0
884.0
886.0
898.0
905.0
907.0
906.0
900.0
895.0
889.0
885.0
882.0
881.0
881.0
884.0
891.0
896.0
902.0
903.0
902.0
894.0
888.0
874.0
864.0
859.0
854.0
855.0
859.0
858.0
856.0
851.0
848.0
848.0
845.0
844.0
844.0
843.0
842.0
846.0
847.0
847.0
846.0
846.0
845.0
840.0
840.0
838.0
839.0
841.0
842.0
844.0
843.0
847.0
844.0
844.0
840.0
840.0
835.0
833.0
837.0
834.0
840.0
840.0
837.0
836.0
837.0
834.0
831.0
848.0
863.0
890.0
921.0
953.0
983.0
998.0
999.0
992.0
988.0
1000.0
1022.0
1060.0
1099.0
1125.0
1128.0
1096.0
1029.0
931.0
836.0
754.0
691.0
656.0
638.0
624.0
614.0
603.0
596.0
589.0
583.0
584.0
585.0
591.0
592.0
595.0
595.0
602.0
613.0
622.0
643.0
675.0
708.0
742.0
768.0
787.0
802.0
807.0
810.0
809.0
811.0
810.0
818.0
817.0
824.0
826.0
829.0
832.0
832.0
834.0
828.0
828.0
826.0
828.0
825.0
825.0
824.0
826.0
827.0
828.0
827.0
824.0
819.0
814.0
814.0
810.0
808.0
809.0
808.0
811.0
807.0
808.0
803.0
799.0
795.0
789.0
788.0
787.0
785.0
784.0
783.0
783.0
785.0
784.0
784.0
783.0
781.0
775.0
774.0
774.0
772.0
774.0
776.0
779.0
780.0
781.0
780.0
782.0
783.0
782.0
780.0
784.0
789.0
792.0
798.0
799.0
803.0
806.0
807.0
812.0
818.0
821.0
823.0
826.0
827.0
828.0
833.0
835.0
841.0
844.0
845.0
848.0
845.0
849.0
847.0
848.0
849.0
853.0
854.0
856.0
857.0
857.0
854.0
858.0
854.0
856.0
850.0
850.0
853.0
855.0
856.0
857.0
860.0
859.0
860.0
856.0
854.0
853.0
852.0
847.0
850.0
850.0
846.0
851.0
853.0
854.0
850.0
850.0
848.0
847.0
844.0
843.0
842.0
845.0
849.0
850.0
851.0
852.0
849.0
850.0
847.0
849.0
848.0
846.0
845.0
846.0
846.0
846.0
850.0
849.0
850.0
850.0
849.0
843.0
845.0
846.0
845.0
847.0
849.0
850.0
852.0
852.0
852.0
849.0
851.0
849.0
847.0
846.0
844.0
846.0
849.0
851.0
854.0
853.0
852.0
848.0
848.0
851.0
848.0
850.0
847.0
852.0
852.0
853.0
854.0
858.0
856.0
858.0
862.0
859.0
861.0
866.0
869.0
869.0
871.0
874.0
877.0
880.0
881.0
889.0
890.0
895.0
896.0
902.0
902.0
899.0
898.0
893.0
888.0
881.0
881.0
879.0
883.0
886.0
889.0
892.0
895.0
894.0
897.0
893.0
881.0
878.0
871.0
868.0
862.0
855.0
853.0
850.0
849.0
847.0
847.0
846.0
847.0
847.0
846.0
845.0
844.0
841.0
842.0
842.0
840.0
839.0
842.0
841.0
845.0
846.0
843.0
844.0
843.0
839.0
839.0
840.0
841.0
838.0
842.0
841.0
844.0
844.0
844.0
841.0
834.0
834.0
834.0
839.0
854.0
872.0
905.0
938.0
967.0
986.0
989.0
985.0
981.0
983.0
1002.0
1034.0
1078.0
1112.0
1130.0
1111.0
1050.0
954.0
847.0
752.0
683.0
641.0
620.0
610.0
604.0
602.0
598.0
597.0
598.0
599.0
601.0
599.0
599.0
606.0
609.0
619.0
633.0
657.0
686.0
719.0
749.0
776.0
791.0
806.0
816.0
819.0
820.0
823.0
824.0
830.0
832.0
838.0
839.0
838.0
838.0
835.0
835.0
834.0
835.0
833.0
835.0
834.0
835.0
836.0
837.0
837.0
839.0
831.0
826.0
824.0
820.0
817.0
816.0
817.0
818.0
818.0
817.0
815.0
814.0
812.0
808.0
805.0
800.0
797.0
794.0
799.0
798.0
795.0
795.0
794.0
792.0
790.0
789.0
789.0
783.0
785.0
783.0
785.0
786.0
787.0
791.0
797.0
795.0
794.0
798.0
797.0
801.0
801.0
803.0
808.0
815.0
817.0
827.0
828.0
833.0
835.0
840.0
839.0
844.0
843.0
847.0
847.0
853.0
856.0
858.0
863.0
865.0
862.0
865.0
862.0
861.0
859.0
859.0
863.0
865.0
864.0
869.0
870.0
870.0
869.0
867.0
867.0
860.0
864.0
864.0
862.0
864.0
864.0
866.0
866.0
866.0
867.0
863.0
862.0
860.0
859.0
857.0
856.0
860.0
860.0
860.0
862.0
861.0
861.0
858.0
858.0
852.0
855.0
855.0
853.0
856.0
860.0
859.0
864.0
859.0
857.0
855.0
854.0
851.0
850.0
850.0
853.0
856.0
858.0
859.0
860.0
859.0
860.0
858.0
858.0
856.0
858.0
857.0
857.0
856.0
864.0
862.0
863.0
861.0
860.0
862.0
857.0
860.0
862.0
859.0
862.0
861.0
864.0
864.0
865.0
865.0
864.0
862.0
862.0
861.0
860.0
859.0
862.0
867.0
867.0
871.0
874.0
874.0
875.0
877.0
875.0
873.0
876.0
876.0
879.0
881.0
887.0
893.0
900.0
905.0
908.0
908.0
906.0
900.0
895.0
889.0
884.0
879.0
883.0
889.0
894.0
899.0
905.0
904.0
902.0
899.0
895.0
888.0
878.0
872.0
864.0
864.0
871.0
866.0
865.0
860.0
855.0
849.0
849.0
845.0
843.0
846.0
848.0
851.0
853.0
852.0
845.0
843.0
841.0
840.0
844.0
842.0
844.0
845.0
844.0
848.0
847.0
848.0
848.0
846.0
845.0
844.0
844.0
844.0
849.0
845.0
845.0
844.0
846.0
840.0
845.0
843.0
850.0
867.0
896.0
928.0
963.0
996.0
1018.0
1022.0
1022.0
1014.0
1017.0
1037.0
1070.0
1100.0
1116.0
1097.0
1033.0
936.0
825.0
731.0
668.0
629.0
612.0
605.0
599.0
592.0
588.0
584.0
580.0
587.0
587.0
590.0
596.0
600.0
606.0
615.0
628.0
648.0
679.0
714.0
746.0
774.0
799.0
813.0
824.0
826.0
824.0
825.0
827.0
828.0
828.0
833.0
834.0
835.0
835.0
835.0
837.0
836.0
835.0
836.0
834.0
832.0
832.0
832.0
830.0
831.0
829.0
833.0
834.0
832.0
826.0
824.0
818.0
816.0
811.0
809.0
806.0
810.0
811.0
810.0
808.0
805.0
802.0
800.0
794.0
796.0
792.0
792.0
787.0
790.0
791.0
786.0
790.0
786.0
783.0
783.0
782.0
781.0
779.0
781.0
782.0
782.0
786.0
788.0
793.0
795.0
798.0
802.0
803.0
809.0
812.0
813.0
816.0
826.0
831.0
836.0
841.0
843.0
846.0
845.0
849.0
847.0
845.0
848.0
849.0
855.0
855.0
858.0
861.0
859.0
861.0
860.0
859.0
862.0
864.0
863.0
864.0
865.0
868.0
866.0
867.0
863.0
865.0
863.0
863.0
858.0
858.0
856.0
857.0
859.0
860.0
861.0
863.0
861.0
858.0
860.0
855.0
854.0
853.0
852.0
851.0
852.0
852.0
856.0
858.0
860.0
857.0
856.0
854.0
851.0
853.0
851.0
849.0
852.0
856.0
856.0
856.0
855.0
855.0
855.0
855.0
855.0
855.0
853.0
850.0
853.0
854.0
856.0
858.0
857.0
859.0
857.0
853.0
853.0
853.0
853.0
852.0
856.0
856.0
859.0
860.0
858.0
856.0
855.0
853.0
854.0
856.0
853.0
852.0
854.0
856.0
859.0
862.0
862.0
861.0
861.0
861.0
857.0
861.0
859.0
861.0
862.0
868.0
866.0
872.0
875.0
878.0
878.0
876.0
875.0
876.0
876.0
879.0
883.0
889.0
898.0
904.0
906.0
904.0
898.0
894.0
888.0
885.0
879.0
880.0
884.0
891.0
898.0
902.0
906.0
903.0
896.0
885.0
878.0
870.0
861.0
860.0
859.0
858.0
861.0
857.0
853.0
850.0
849.0
845.0
842.0
843.0
842.0
845.0
844.0
845.0
845.0
849.0
846.0
848.0
847.0
842.0
839.0
840.0
839.0
840.0
840.0
839.0
844.0
847.0
844.0
844.0
844.0
844.0
845.0
842.0
839.0
839.0
837.0
840.0
835.0
841.0
848.0
862.0
886.0
921.0
954.0
984.0
1003.0
1013.0
1012.0
1010.0
1019.0
1043.0
1074.0
1110.0
1135.0
1134.0
1105.0
1036.0
943.0
841.0
754.0
695.0
667.0
653.0
643.0
633.0
624.0
615.0
608.0
605.0
604.0
605.0
601.0
603.0
610.0
613.0
619.0
625.0
644.0
662.0
689.0
720.0
750.0
771.0
792.0
810.0
817.0
821.0
821.0
822.0
822.0
818.0
824.0
826.0
826.0
827.0
832.0
832.0
832.0
837.0
835.0
833.0
833.0
833.0
831.0
829.0
827.0
824.0
825.0
828.0
826.0
827.0
823.0
816.0
816.0
815.0
812.0
811.0
806.0
805.0
803.0
801.0
800.0
802.0
798.0
794.0
793.0
791.0
784.0
784.0
780.0
778.0
779.0
781.0
783.0
782.0
779.0
778.0
779.0
776.0
776.0
773.0
772.0
770.0
775.0
780.0
783.0
789.0
790.0
793.0
792.0
793.0
797.0
802.0
803.0
807.0
813.0
820.0
826.0
829.0
831.0
832.0
835.0
834.0
838.0
838.0
842.0
844.0
847.0
850.0
854.0
855.0
855.0
859.0
858.0
857.0
857.0
857.0
853.0
858.0
858.0
862.0
865.0
865.0
866.0
866.0
863.0
863.0
859.0
859.0
859.0
856.0
861.0
861.0
864.0
860.0
860.0
861.0
857.0
860.0
857.0
856.0
852.0
850.0
857.0
859.0
859.0
860.0
861.0
859.0
858.0
856.0
856.0
854.0
851.0
851.0
851.0
854.0
855.0
858.0
857.0
857.0
855.0
855.0
851.0
851.0
855.0
854.0
857.0
860.0
860.0
858.0
859.0
860.0
857.0
854.0
852.0
853.0
853.0
853.0
857.0
856.0
857.0
858.0
863.0
860.0
859.0
857.0
856.0
854.0
856.0
855.0
858.0
863.0
864.0
865.0
863.0
863.0
861.0
859.0
856.0
858.0
859.0
861.0
868.0
868.0
874.0
875.0
875.0
881.0
881.0
882.0
882.0
880.0
880.0
885.0
890.0
896.0
902.0
913.0
911.0
913.0
911.0
906.0
900.0
893.0
887.0
883.0
884.0
887.0
892.0
901.0
907.0
911.0
910.0
904.0
897.0
888.0
877.0
871.0
868.0
868.0
868.0
867.0
865.0
862.0
856.0
854.0
851.0
847.0
846.0
847.0
848.0
849.0
849.0
854.0
853.0
852.0
850.0
848.0
845.0
845.0
847.0
845.0
847.0
850.0
849.0
853.0
852.0
852.0
846.0
844.0
848.0
849.0
850.0
846.0
848.0
849.0
850.0
845.0
843.0
836.0
838.0
848.0
856.0
879.0
906.0
938.0
968.0
989.0
996.0
999.0
990.0
992.0
1006.0
1037.0
1081.0
1120.0
1146.0
1145.0
1097.0
1012.0
907.0
808.0
725.0
671.0
641.0
624.0
613.0
609.0
603.0
601.0
603.0
606.0
607.0
608.0
611.0
613.0
618.0
629.0
644.0
666.0
694.0
725.0
756.0
780.0
799.0
811.0
823.0
829.0
829.0
828.0
829.0
832.0
833.0
836.0
838.0
842.0
845.0
846.0
844.0
843.0
841.0
839.0
838.0
837.0
834.0
838.0
837.0
836.0
837.0
835.0
834.0
832.0
834.0
829.0
826.0
821.0
820.0
816.0
816.0
816.0
817.0
818.0
816.0
814.0
810.0
805.0
802.0
798.0
795.0
792.0
792.0
795.0
797.0
796.0
795.0
793.0
789.0
787.0
785.0
784.0
783.0
786.0
788.0
792.0
796.0
800.0
802.0
802.0
804.0
808.0
807.0
808.0
815.0
817.0
824.0
828.0
830.0
837.0
840.0
844.0
848.0
847.0
849.0
850.0
854.0
855.0
860.0
861.0
868.0
868.0
870.0
870.0
868.0
869.0
871.0
872.0
869.0
871.0
872.0
876.0
875.0
878.0
873.0
875.0
871.0
871.0
871.0
868.0
866.0
867.0
869.0
873.0
871.0
875.0
874.0
875.0
875.0
874.0
870.0
867.0
865.0
862.0
865.0
864.0
866.0
867.0
868.0
870.0
869.0
868.0
866.0
865.0
866.0
863.0
864.0
865.0
865.0
866.0
866.0
866.0
865.0
869.0
868.0
867.0
867.0
868.0
870.0
869.0
869.0
869.0
870.0
870.0
871.0
870.0
869.0
867.0
865.0
869.0
871.0
874.0
875.0
875.0
874.0
873.0
873.0
869.0
865.0
869.0
868.0
870.0
873.0
874.0
873.0
878.0
877.0
877.0
876.0
875.0
877.0
875.0
878.0
880.0
885.0
887.0
892.0
895.0
899.0
898.0
899.0
898.0
898.0
905.0
910.0
918.0
921.0
922.0
921.0
918.0
911.0
906.0
902.0
901.0
898.0
900.0
905.0
911.0
917.0
920.0
917.0
912.0
902.0
891.0
885.0
883.0
878.0
877.0
873.0
871.0
873.0
870.0
869.0
869.0
869.0
866.0
863.0
862.0
862.0
861.0
862.0
860.0
861.0
861.0
863.0
862.0
863.0
864.0
863.0
859.0
860.0
859.0
859.0
860.0
862.0
863.0
864.0
867.0
870.0
869.0
867.0
866.0
859.0
855.0
857.0
854.0
860.0
871.0
893.0
922.0
955.0
988.0
1017.0
1039.0
1044.0
1036.0
1027.0
1030.0
1046.0
1077.0
1115.0
1146.0
1145.0
1109.0
1029.0
923.0
815.0
725.0
663.0
630.0
616.0
612.0
611.0
613.0
613.0
613.0
609.0
608.0
608.0
606.0
608.0
614.0
625.0
640.0
659.0
685.0
713.0
742.0
770.0
794.0
812.0
824.0
833.0
834.0
835.0
839.0
842.0
845.0
853.0
856.0
852.0
850.0
853.0
853.0
850.0
855.0
854.0
855.0
857.0
857.0
857.0
857.0
856.0
847.0
845.0
845.0
847.0
847.0
846.0
845.0
847.0
842.0
841.0
836.0
833.0
832.0
827.0
825.0
819.0
818.0
815.0
819.0
820.0
823.0
818.0
814.0
813.0
806.0
806.0
801.0
801.0
800.0
800.0
803.0
802.0
807.0
806.0
807.0
810.0
806.0
805.0
809.0
811.0
811.0
814.0
816.0
820.0
823.0
827.0
830.0
836.0
840.0
839.0
845.0
846.0
846.0
854.0
857.0
862.0
864.0
865.0
867.0
868.0
869.0
869.0
871.0
877.0
876.0
880.0
877.0
882.0
883.0
883.0
883.0
886.0
884.0
882.0
880.0
882.0
882.0
884.0
885.0
889.0
891.0
892.0
890.0
888.0
887.0
884.0
884.0
882.0
883.0
883.0
882.0
884.0
884.0
884.0
885.0
883.0
880.0
878.0
876.0
876.0
876.0
877.0
875.0
876.0
880.0
881.0
880.0
876.0
878.0
877.0
875.0
875.0
875.0
876.0
876.0
875.0
878.0
881.0
880.0
881.0
877.0
876.0
875.0
875.0
877.0
878.0
877.0
881.0
884.0
880.0
879.0
880.0
878.0
875.0
874.0
878.0
875.0
877.0
879.0
880.0
882.0
885.0
880.0
880.0
880.0
878.0
879.0
874.0
875.0
876.0
878.0
879.0
884.0
884.0
886.0
885.0
885.0
887.0
884.0
887.0
891.0
894.0
902.0
903.0
906.0
906.0
908.0
907.0
905.0
908.0
916.0
919.0
925.0
927.0
925.0
923.0
917.0
912.0
906.0
906.0
908.0
911.0
916.0
920.0
925.0
924.0
922.0
919.0
906.0
900.0
894.0
891.0
886.0
884.0
878.0
876.0
873.0
872.0
874.0
877.0
877.0
878.0
877.0
876.0
874.0
873.0
872.0
867.0
867.0
864.0
870.0
871.0
871.0
870.0
874.0
872.0
871.0
872.0
869.0
870.0
868.0
865.0
869.0
870.0
873.0
873.0
870.0
867.0
865.0
859.0
854.0
857.0
863.0
875.0
896.0
931.0
968.0
1003.0
1025.0
1034.0
1034.0
1029.0
1037.0
1060.0
1098.0
1132.0
1153.0
1136.0
1075.0
981.0
877.0
787.0
720.0
678.0
653.0
644.0
641.0
641.0
634.0
632.0
634.0
633.0
628.0
628.0
625.0
631.0
634.0
644.0
663.0
686.0
717.0
746.0
780.0
807.0
826.0
837.0
844.0
