# Simple Text Format
# Sampling Rate (Hz):= 360.00
# Resolution:= 12
# Labels:= ECG
851.0
855.0
860.0
862.0
863.0
864.0
863.0
867.0
864.0
863.0
865.0
867.0
867.0
867.0
872.0
872.0
875.0
878.0
876.0
877.0
872.0
873.0
871.0
869.0
871.0
869.0
871.0
875.0
877.0
879.0
879.0
877.0
875.0
871.0
870.0
870.0
869.0
868.0
871.0
871.0
874.0
872.0
870.0
871.0
868.0
870.0
869.0
872.0
868.0
866.0
865.0
867.0
867.0
864.0
866.0
866.0
871.0
869.0
868.0
868.0
867.0
869.0
867.0
868.0
874.0
874.0
876.0
873.0
874.0
873.0
873.0
871.0
870.0
871.0
870.0
874.0
878.0
883.0
882.0
879.0
878.0
879.0
874.0
875.0
876.0
877.0
879.0
881.0
882.0
881.0
879.0
881.0
880.0
881.0
877.0
880.0
881.0
882.0
884.0
888.0
890.0
893.0
894.0
891.0
892.0
891.0
891.0
890.0
892.0
893.0
896.0
901.0
904.0
911.0
921.0
925.0
930.0
927.0
920.0
913.0
906.0
903.0
899.0
898.0
901.0
908.0
913.0
920.0
924.0
922.0
918.0
911.0
905.0
894.0
894.0
890.0
888.0
891.0
888.0
883.0
880.0
875.0
872.0
870.0
867.0
867.0
870.0
869.0
871.0
875.0
874.0
870.0
869.0
867.0
869.0
869.0
869.0
869.0
865.0
870.0
872.0
875.0
876.0
874.0
870.0
870.0
872.0
870.0
868.0
865.0
868.0
869.0
873.0
875.0
872.0
871.0
870.0
871.0
871.0
883.0
902.0
928.0
961.0
995.0
1027.0
1050.0
1057.0
1055.0
1049.0
1042.0
1053.0
1078.0
1103.0
1123.0
1120.0
1077.0
995.0
898.0
798.0
719.0
670.0
645.0
635.0
637.0
634.0
634.0
635.0
634.0
635.0
637.0
634.0
631.0
633.0
636.0
642.0
647.0
659.0
678.0
704.0
737.0
770.0
799.0
818.0
836.0
848.0
851.0
850.0
852.0
850.0
854.0
856.0
859.0
866.0
870.0
868.0
867.0
867.0
867.0
865.0
865.0
862.0
863.0
866.0
866.0
868.0
869.0
865.0
863.0
859.0
854.0
853.0
853.0
850.0
851.0
847.0
850.0
850.0
848.0
847.0
843.0
841.0
831.0
830.0
830.0
825.0
824.0
826.0
825.0
826.0
827.0
824.0
819.0
821.0
816.0
815.0
818.0
817.0
818.0
821.0
822.0
827.0
830.0
830.0
833.0
835.0
835.0
836.0
843.0
842.0
845.0
851.0
859.0
863.0
866.0
868.0
868.0
871.0
874.0
878.0
880.0
883.0
884.0
886.0
892.0
897.0
898.0
897.0
896.0
895.0
898.0
895.0
898.0
892.0
899.0
900.0
903.0
905.0
909.0
907.0
905.0
905.0
898.0
899.0
901.0
899.0
900.0
901.0
902.0
905.0
906.0
907.0
903.0
902.0
900.0
902.0
898.0
898.0
896.0
899.0
900.0
899.0
900.0
898.0
899.0
897.0
894.0
895.0
890.0
892.0
893.0
896.0
895.0
897.0
901.0
898.0
900.0
896.0
898.0
896.0
896.0
893.0
889.0
893.0
898.0
902.0
902.0
900.0
902.0
898.0
894.0
895.0
891.0
889.0
894.0
893.0
895.0
900.0
902.0
901.0
902.0
899.0
893.0
893.0
894.0
897.0
895.0
896.0
897.0
899.0
901.0
906.0
903.0
904.0
905.0
907.0
905.0
906.0
911.0
912.0
915.0
920.0
923.0
923.0
924.0
920.0
922.0
922.0
929.0
932.0
936.0
942.0
946.0
940.0
939.0
934.0
927.0
923.0
918.0
914.0
923.0
926.0
933.0
938.0
940.0
941.0
940.0
933.0
921.0
917.0
910.0
906.0
903.0
902.0
895.0
895.0
894.0
891.0
889.0
890.0
890.0
889.0
889.0
887.0
883.0
882.0
883.0
885.0
889.0
887.0
890.0
887.0
884.0
883.0
881.0
881.0
878.0
877.0
881.0
883.0
887.0
887.0
890.0
888.0
887.0
887.0
884.0
881.0
879.0
875.0
872.0
876.0
877.0
888.0
906.0
929.0
956.0
989.0
1016.0
1036.0
1038.0
1033.0
1028.0
1040.0
1066.0
1103.0
1136.0
1147.0
1119.0
1052.0
959.0
859.0
776.0
717.0
679.0
663.0
655.0
650.0
650.0
646.0
643.0
642.0
637.0
636.0
639.0
639.0
645.0
657.0
669.0
689.0
713.0
741.0
771.0
798.0
818.0
832.0
844.0
848.0
853.0
860.0
861.0
864.0
871.0
872.0
873.0
874.0
872.0
868.0
870.0
866.0
866.0
869.0
870.0
875.0
878.0
875.0
873.0
870.0
868.0
865.0
861.0
859.0
858.0
856.0
858.0
856.0
858.0
851.0
847.0
845.0
844.0
840.0
840.0
833.0
835.0
834.0
834.0
830.0
832.0
834.0
831.0
829.0
825.0
820.0
820.0
821.0
821.0
821.0
823.0
827.0
828.0
828.0
830.0
828.0
829.0
829.0
830.0
832.0
838.0
841.0
849.0
854.0
857.0
860.0
862.0
865.0
868.0
870.0
873.0
874.0
875.0
877.0
879.0
884.0
891.0
891.0
888.0
892.0
891.0
894.0
894.0
889.0
893.0
893.0
896.0
898.0
898.0
900.0
896.0
896.0
893.0
891.0
892.0
893.0
893.0
895.0
893.0
896.0
899.0
898.0
894.0
892.0
889.0
888.0
887.0
886.0
885.0
885.0
884.0
888.0
891.0
889.0
887.0
888.0
886.0
883.0
877.0
873.0
874.0
879.0
881.0
881.0
887.0
885.0
886.0
885.0
883.0
882.0
880.0
879.0
882.0
881.0
882.0
885.0
885.0
887.0
885.0
886.0
882.0
882.0
881.0
880.0
880.0
880.0
883.0
886.0
887.0
890.0
888.0
886.0
881.0
879.0
883.0
880.0
880.0
882.0
886.0
890.0
888.0
890.0
894.0
892.0
891.0
893.0
896.0
898.0
899.0
904.0
902.0
907.0
908.0
908.0
911.0
910.0
916.0
920.0
925.0
926.0
930.0
925.0
926.0
922.0
918.0
912.0
909.0
906.0
905.0
910.0
914.0
917.0
919.0
923.0
921.0
919.0
913.0
899.0
892.0
886.0
884.0
880.0
876.0
874.0
873.0
873.0
871.0
873.0
874.0
875.0
873.0
872.0
870.0
865.0
863.0
864.0
861.0
861.0
862.0
862.0
867.0
868.0
867.0
866.0
867.0
864.0
864.0
863.0
862.0
862.0
865.0
867.0
867.0
867.0
867.0
858.0
854.0
852.0
859.0
866.0
880.0
906.0
941.0
973.0
997.0
1017.0
1019.0
1010.0
1003.0
1007.0
1025.0
1058.0
1097.0
1125.0
1127.0
1084.0
1002.0
899.0
797.0
720.0
671.0
642.0
631.0
623.0
620.0
617.0
615.0
614.0
611.0
613.0
615.0
617.0
614.0
620.0
627.0
635.0
650.0
673.0
698.0
729.0
758.0
782.0
800.0
813.0
824.0
829.0
830.0
836.0
838.0
843.0
847.0
851.0
854.0
852.0
853.0
852.0
853.0
851.0
849.0
850.0
848.0
847.0
848.0
854.0
856.0
855.0
854.0
848.0
848.0
843.0
840.0
837.0
836.0
832.0
834.0
836.0
834.0
833.0
830.0
829.0
823.0
818.0
816.0
815.0
815.0
816.0
816.0
813.0
812.0
812.0
810.0
809.0
808.0
805.0
805.0
805.0
805.0
807.0
810.0
810.0
810.0
810.0
812.0
813.0
812.0
812.0
814.0
819.0
822.0
829.0
835.0
838.0
844.0
846.0
849.0
850.0
848.0
849.0
849.0
855.0
860.0
860.0
866.0
867.0
867.0
869.0
870.0
873.0
871.0
873.0
872.0
873.0
875.0
875.0
875.0
877.0
880.0
880.0
881.0
878.0
879.0
875.0
875.0
874.0
875.0
874.0
876.0
879.0
879.0
879.0
877.0
877.0
876.0
875.0
870.0
872.0
871.0
873.0
872.0
871.0
873.0
874.0
873.0
871.0
865.0
863.0
863.0
861.0
863.0
863.0
865.0
867.0
871.0
873.0
875.0
871.0
868.0
867.0
862.0
864.0
864.0
864.0
866.0
866.0
870.0
870.0
868.0
869.0
866.0
866.0
864.0
866.0
869.0
873.0
868.0
871.0
871.0
871.0
873.0
875.0
869.0
868.0
864.0
865.0
863.0
865.0
868.0
869.0
874.0
877.0
877.0
878.0
874.0
875.0
875.0
874.0
879.0
881.0
885.0
886.0
889.0
889.0
891.0
893.0
896.0
894.0
899.0
904.0
906.0
913.0
915.0
914.0
911.0
909.0
904.0
897.0
891.0
891.0
892.0
895.0
901.0
908.0
912.0
914.0
911.0
902.0
891.0
882.0
874.0
868.0
863.0
865.0
864.0
862.0
860.0
861.0
862.0
857.0
855.0
853.0
854.0
851.0
848.0
848.0
845.0
849.0
850.0
853.0
855.0
853.0
853.0
856.0
853.0
851.0
850.0
848.0
846.0
846.0
848.0
850.0
851.0
852.0
854.0
852.0
854.0
851.0
849.0
846.0
843.0
845.0
846.0
848.0
862.0
881.0
906.0
935.0
966.0
984.0
993.0
991.0
987.0
988.0
1006.0
1037.0
1077.0
1112.0
1124.0
1103.0
1043.0
954.0
847.0
753.0
689.0
650.0
635.0
629.0
625.0
618.0
612.0
606.0
601.0
600.0
599.0
598.0
600.0
603.0
611.0
622.0
637.0
652.0
675.0
704.0
728.0
754.0
775.0
793.0
808.0
816.0
821.0
827.0
831.0
835.0
834.0
835.0
836.0
838.0
837.0
836.0
838.0
843.0
847.0
846.0
845.0
848.0
845.0
844.0
841.0
839.0
835.0
833.0
831.0
836.0
836.0
835.0
837.0
836.0
832.0
828.0
826.0
824.0
820.0
817.0
816.0
814.0
814.0
811.0
809.0
807.0
802.0
803.0
803.0
805.0
802.0
803.0
801.0
798.0
797.0
795.0
798.0
799.0
802.0
805.0
804.0
800.0
799.0
798.0
799.0
799.0
805.0
812.0
818.0
822.0
826.0
826.0
827.0
830.0
829.0
832.0
834.0
841.0
844.0
847.0
853.0
859.0
858.0
860.0
858.0
858.0
856.0
855.0
858.0
859.0
863.0
869.0
868.0
872.0
867.0
866.0
867.0
865.0
870.0
872.0
871.0
870.0
871.0
867.0
866.0
867.0
870.0
876.0
870.0
866.0
860.0
859.0
861.0
860.0
864.0
865.0
866.0
868.0
865.0
867.0
865.0
862.0
857.0
855.0
853.0
853.0
856.0
856.0
859.0
858.0
858.0
856.0
854.0
853.0
856.0
859.0
859.0
857.0
856.0
857.0
858.0
858.0
860.0
861.0
861.0
861.0
859.0
861.0
858.0
858.0
860.0
860.0
864.0
866.0
868.0
867.0
864.0
858.0
859.0
859.0
860.0
866.0
870.0
872.0
875.0
873.0
875.0
874.0
872.0
871.0
868.0
868.0
869.0
876.0
877.0
884.0
888.0
885.0
886.0
887.0
887.0
889.0
890.0
894.0
901.0
907.0
911.0
912.0
912.0
914.0
911.0
903.0
899.0
897.0
893.0
893.0
892.0
898.0
906.0
913.0
913.0
915.0
908.0
901.0
890.0
876.0
869.0
863.0
864.0
862.0
860.0
861.0
863.0
862.0
863.0
859.0
861.0
858.0
855.0
854.0
856.0
856.0
857.0
856.0
859.0
859.0
860.0
856.0
856.0
855.0
854.0
852.0
855.0
854.0
855.0
853.0
851.0
853.0
856.0
857.0
855.0
859.0
851.0
846.0
849.0
852.0
866.0
886.0
914.0
943.0
972.0
996.0
1009.0
1007.0
1003.0
998.0
1008.0
1036.0
1072.0
1110.0
1130.0
1117.0
1067.0
980.0
876.0
779.0
702.0
656.0
630.0
618.0
612.0
608.0
604.0
604.0
600.0
595.0
598.0
597.0
604.0
607.0
618.0
634.0
657.0
688.0
721.0
758.0
786.0
808.0
821.0
829.0
833.0
832.0
830.0
831.0
837.0
845.0
851.0
855.0
854.0
856.0
855.0
853.0
847.0
843.0
844.0
845.0
847.0
850.0
851.0
851.0
853.0
850.0
841.0
838.0
834.0
832.0
834.0
827.0
827.0
832.0
836.0
833.0
829.0
826.0
822.0
820.0
815.0
811.0
811.0
811.0
813.0
813.0
814.0
815.0
811.0
808.0
806.0
804.0
803.0
802.0
802.0
800.0
802.0
803.0
808.0
811.0
810.0
810.0
812.0
812.0
817.0
818.0
823.0
829.0
833.0
837.0
842.0
846.0
849.0
850.0
850.0
850.0
851.0
856.0
860.0
865.0
868.0
867.0
868.0
871.0
871.0
868.0
869.0
871.0
867.0
869.0
871.0
872.0
875.0
877.0
881.0
882.0
878.0
877.0
875.0
872.0
869.0
872.0
871.0
874.0
873.0
875.0
871.0
872.0
871.0
869.0
867.0
867.0
866.0
867.0
869.0
866.0
869.0
868.0
872.0
870.0
869.0
868.0
867.0
866.0
863.0
864.0
864.0
865.0
866.0
869.0
870.0
871.0
872.0
871.0
867.0
865.0
865.0
863.0
863.0
865.0
868.0
870.0
872.0
872.0
872.0
875.0
871.0
868.0
869.0
867.0
866.0
865.0
868.0
872.0
874.0
873.0
876.0
875.0
872.0
870.0
870.0
871.0
873.0
874.0
876.0
878.0
881.0
881.0
884.0
884.0
887.0
889.0
889.0
889.0
889.0
889.0
893.0
901.0
909.0
913.0
920.0
920.0
916.0
915.0
907.0
905.0
901.0
898.0
898.0
896.0
900.0
909.0
913.0
917.0
919.0
918.0
916.0
906.0
899.0
892.0
885.0
882.0
879.0
882.0
879.0
876.0
870.0
866.0
861.0
862.0
862.0
862.0
862.0
862.0
861.0
864.0
862.0
862.0
862.0
862.0
857.0
855.0
857.0
858.0
860.0
862.0
860.0
862.0
861.0
862.0
860.0
858.0
860.0
858.0
858.0
858.0
859.0
859.0
859.0
860.0
864.0
870.0
886.0
908.0
936.0
968.0
999.0
1025.0
1035.0
1034.0
1027.0
1029.0
1039.0
1061.0
1091.0
1113.0
1122.0
1107.0
1046.0
960.0
855.0
763.0
693.0
657.0
634.0
624.0
618.0
612.0
608.0
603.0
598.0
598.0
598.0
600.0
604.0
609.0
614.0
621.0
631.0
648.0
668.0
701.0
734.0
768.0
794.0
817.0
834.0
842.0
847.0
845.0
847.0
843.0
847.0
846.0
850.0
854.0
856.0
856.0
858.0
857.0
857.0
859.0
857.0
856.0
853.0
849.0
848.0
851.0
852.0
849.0
852.0
849.0
848.0
845.0
840.0
838.0
837.0
834.0
834.0
830.0
830.0
827.0
826.0
824.0
824.0
821.0
818.0
817.0
813.0
813.0
811.0
809.0
813.0
813.0
813.0
815.0
814.0
812.0
809.0
809.0
808.0
809.0
809.0
811.0
815.0
813.0
816.0
823.0
824.0
826.0
830.0
835.0
839.0
841.0
842.0
846.0
850.0
859.0
861.0
867.0
871.0
873.0
874.0
872.0
873.0
873.0
873.0
873.0
872.0
876.0
883.0
881.0
882.0
884.0
884.0
882.0
884.0
879.0
881.0
884.0
884.0
883.0
885.0
888.0
888.0
885.0
882.0
882.0
877.0
877.0
879.0
882.0
879.0
882.0
880.0
885.0
884.0
882.0
878.0
873.0
875.0
873.0
874.0
874.0
874.0
873.0
877.0
883.0
881.0
878.0
876.0
874.0
871.0
873.0
869.0
871.0
870.0
871.0
874.0
876.0
879.0
877.0
876.0
875.0
872.0
871.0
873.0
873.0
876.0
878.0
878.0
876.0
878.0
876.0
875.0
872.0
873.0
872.0
873.0
874.0
875.0
879.0
879.0
882.0
881.0
880.0
882.0
882.0
879.0
882.0
882.0
884.0
888.0
894.0
896.0
899.0
901.0
902.0
902.0
903.0
907.0
909.0
911.0
917.0
922.0
924.0
926.0
926.0
919.0
912.0
907.0
903.0
899.0
898.0
901.0
905.0
915.0
925.0
929.0
927.0
920.0
909.0
899.0
895.0
885.0
882.0
879.0
878.0
879.0
875.0
877.0
878.0
873.0
871.0
868.0
863.0
858.0
861.0
859.0
861.0
864.0
864.0
867.0
868.0
866.0
869.0
865.0
864.0
861.0
858.0
855.0
857.0
860.0
860.0
863.0
864.0
867.0
866.0
867.0
866.0
865.0
862.0
862.0
858.0
861.0
863.0
870.0
885.0
910.0
940.0
966.0
995.0
1012.0
1021.0
1018.0
1012.0
1017.0
1031.0
1067.0
1104.0
1135.0
1140.0
1111.0
1039.0
935.0
826.0
731.0
666.0
630.0
614.0
609.0
606.0
600.0
598.0
591.0
589.0
588.0
588.0
590.0
591.0
595.0
606.0
615.0
626.0
640.0
662.0
689.0
719.0
750.0
776.0
796.0
819.0
834.0
840.0
846.0
846.0
846.0
850.0
851.0
851.0
850.0
855.0
856.0
855.0
855.0
857.0
857.0
861.0
860.0
859.0
855.0
854.0
851.0
850.0
849.0
846.0
841.0
845.0
849.0
846.0
845.0
841.0
839.0
837.0
831.0
827.0
826.0
822.0
821.0
822.0
825.0
825.0
824.0
821.0
818.0
815.0
814.0
811.0
811.0
809.0
811.0
813.0
813.0
811.0
809.0
808.0
807.0
808.0
809.0
809.0
810.0
815.0
818.0
822.0
826.0
830.0
832.0
833.0
835.0
839.0
842.0
844.0
846.0
849.0
857.0
861.0
863.0
870.0
872.0
874.0
878.0
878.0
878.0
875.0
875.0
875.0
877.0
880.0
882.0
886.0
887.0
886.0
888.0
885.0
885.0
884.0
884.0
884.0
885.0
886.0
886.0
888.0
885.0
888.0
885.0
886.0
880.0
880.0
878.0
877.0
882.0
882.0
885.0
885.0
883.0
884.0
881.0
879.0
874.0
874.0
873.0
872.0
873.0
873.0
874.0
879.0
875.0
873.0
873.0
873.0
870.0
869.0
867.0
873.0
873.0
877.0
876.0
878.0
874.0
874.0
880.0
875.0
875.0
875.0
874.0
873.0
878.0
876.0
879.0
878.0
882.0
879.0
876.0
877.0
877.0
876.0
876.0
876.0
877.0
882.0
882.0
886.0
884.0
884.0
880.0
875.0
874.0
876.0
878.0
877.0
877.0
885.0
885.0
885.0
893.0
891.0
894.0
891.0
893.0
898.0
896.0
899.0
899.0
902.0
903.0
907.0
912.0
916.0
922.0
925.0
927.0
927.0
923.0
920.0
916.0
914.0
914.0
912.0
910.0
906.0
908.0
911.0
913.0
920.0
923.0
923.0
922.0
915.0
909.0
907.0
900.0
891.0
888.0
887.0
881.0
881.0
876.0
872.0
869.0
872.0
871.0
873.0
872.0
873.0
871.0
873.0
869.0
867.0
865.0
862.0
863.0
867.0
867.0
868.0
871.0
872.0
870.0
867.0
862.0
863.0
863.0
866.0
867.0
868.0
871.0
871.0
867.0
866.0
865.0
862.0
859.0
860.0
866.0
881.0
908.0
937.0
975.0
1006.0
1023.0
1034.0
1032.0
1027.0
1027.0
1043.0
1073.0
1103.0
1131.0
1139.0
1108.0
1042.0
947.0
844.0
756.0
690.0
652.0
636.0
622.0
616.0
610.0
606.0
604.0
605.0
604.0
605.0
609.0
612.0
616.0
621.0
629.0
643.0
664.0
694.0
723.0
754.0
781.0
802.0
817.0
829.0
835.0
838.0
845.0
851.0
854.0
858.0
862.0
865.0
866.0
865.0
865.0
865.0
864.0
862.0
862.0
859.0
863.0
864.0
866.0
867.0
863.0
862.0
862.0
857.0
851.0
847.0
841.0
845.0
843.0
846.0
844.0
844.0
839.0
837.0
837.0
834.0
828.0
827.0
820.0
822.0
823.0
824.0
818.0
822.0
821.0
819.0
821.0
820.0
816.0
817.0
816.0
816.0
819.0
822.0
824.0
826.0
826.0
824.0
831.0
832.0
833.0
834.0
835.0
841.0
848.0
856.0
858.0
865.0
865.0
870.0
871.0
873.0
871.0
873.0
874.0
877.0
879.0
883.0
885.0
890.0
892.0
891.0
892.0
889.0
889.0
888.0
886.0
885.0
887.0
890.0
891.0
893.0
894.0
894.0
894.0
895.0
889.0
888.0
888.0
885.0
887.0
887.0
891.0
893.0
887.0
883.0
886.0
885.0
884.0
883.0
882.0
881.0
882.0
884.0
885.0
885.0
882.0
883.0
880.0
878.0
875.0
876.0
870.0
874.0
875.0
878.0
880.0
882.0
878.0
878.0
881.0
879.0
873.0
871.0
871.0
875.0
875.0
877.0
879.0
877.0
877.0
875.0
875.0
880.0
880.0
881.0
879.0
879.0
882.0
877.0
879.0
882.0
884.0
883.0
883.0
882.0
880.0
879.0
879.0
881.0
886.0
887.0
889.0
891.0
895.0
893.0
892.0
896.0
895.0
893.0
897.0
897.0
900.0
907.0
912.0
921.0
927.0
930.0
927.0
926.0
926.0
918.0
916.0
910.0
910.0
905.0
905.0
906.0
913.0
918.0
923.0
927.0
926.0
922.0
923.0
912.0
905.0
897.0
892.0
890.0
886.0
887.0
881.0
878.0
876.0
872.0
869.0
869.0
869.0
871.0
868.0
867.0
867.0
866.0
864.0
866.0
864.0
863.0
862.0
863.0
865.0
865.0
865.0
868.0
866.0
865.0
864.0
862.0
859.0
856.0
859.0
862.0
863.0
863.0
866.0
869.0
869.0
867.0
869.0
870.0
877.0
891.0
912.0
941.0
971.0
1001.0
1025.0
1037.0
1029.0
1022.0
1028.0
1042.0
1071.0
1103.0
1128.0
1127.0
1095.0
1023.0
925.0
820.0
732.0
670.0
633.0
621.0
614.0
611.0
605.0
601.0
597.0
594.0
594.0
596.0
597.0
600.0
601.0
604.0
611.0
619.0
632.0
651.0
681.0
713.0
745.0
776.0
799.0
819.0
830.0
839.0
842.0
841.0
842.0
842.0
844.0
851.0
857.0
863.0
863.0
864.0
861.0
858.0
861.0
859.0
857.0
855.0
857.0
857.0
854.0
859.0
855.0
851.0
852.0
851.0
847.0
846.0
843.0
840.0
840.0
840.0
838.0
836.0
833.0
828.0
824.0
825.0
823.0
818.0
815.0
816.0
820.0
816.0
819.0
820.0
819.0
820.0
819.0
819.0
816.0
814.0
813.0
814.0
815.0
817.0
820.0
825.0
821.0
830.0
830.0
833.0
833.0
836.0
832.0
839.0
844.0
848.0
852.0
858.0
861.0
865.0
864.0
867.0
873.0
868.0
867.0
872.0
879.0
880.0
881.0
883.0
882.0
886.0
887.0
886.0
887.0
889.0
889.0
890.0
889.0
892.0
895.0
897.0
900.0
897.0
897.0
892.0
892.0
893.0
889.0
889.0
886.0
892.0
895.0
899.0
894.0
893.0
893.0
892.0
892.0
889.0
885.0
881.0
883.0
883.0
886.0
890.0
886.0
888.0
889.0
885.0
882.0
884.0
884.0
882.0
883.0
883.0
884.0
887.0
886.0
888.0
887.0
886.0
884.0
884.0
883.0
885.0
885.0
888.0
892.0
892.0
891.0
888.0
889.0
887.0
884.0
883.0
882.0
884.0
888.0
890.0
894.0
896.0
891.0
892.0
891.0
890.0
885.0
886.0
884.0
884.0
885.0
888.0
890.0
893.0
891.0
889.0
894.0
891.0
892.0
889.0
892.0
894.0
897.0
901.0
900.0
902.0
904.0
908.0
911.0
909.0
909.0
911.0
913.0
919.0
925.0
932.0
938.0
940.0
939.0
938.0
935.0
928.0
921.0
919.0
915.0
913.0
917.0
920.0
930.0
937.0
941.0
941.0
937.0
931.0
923.0
912.0
905.0
895.0
891.0
891.0
894.0
893.0
890.0
888.0
887.0
881.0
880.0
880.0
876.0
878.0
881.0
882.0
881.0
880.0
880.0
877.0
875.0
873.0
872.0
872.0
872.0
873.0
871.0
878.0
880.0
882.0
880.0
877.0
876.0
878.0
875.0
872.0
871.0
871.0
872.0
875.0
888.0
903.0
927.0
963.0
995.0
1021.0
1038.0
1044.0
1037.0
1036.0
1048.0
1077.0
1114.0
1147.0
1155.0
1136.0
1074.0
977.0
869.0
776.0
709.0
664.0
648.0
643.0
640.0
634.0
625.0
619.0
613.0
610.0
609.0
612.0
609.0
614.0
621.0
629.0
638.0
650.0
668.0
689.0
718.0
743.0
774.0
801.0
819.0
837.0
846.0
854.0
860.0
864.0
862.0
864.0
866.0
865.0
867.0
866.0
868.0
868.0
872.0
869.0
870.0
870.0
870.0
868.0
866.0
862.0
862.0
859.0
856.0
855.0
854.0
853.0
850.0
850.0
847.0
846.0
845.0
839.0
837.0
834.0
833.0
830.0
828.0
826.0
826.0
826.0
824.0
824.0
823.0
823.0
821.0
818.0
814.0
816.0
816.0
819.0
822.0
823.0
824.0
820.0
819.0
820.0
822.0
823.0
825.0
829.0
832.0
836.0
841.0
845.0
851.0
854.0
857.0
861.0
858.0
863.0
866.0
866.0
871.0
874.0
877.0
881.0
882.0
882.0
888.0
887.0
888.0
887.0
887.0
887.0
884.0
886.0
890.0
890.0
895.0
895.0
893.0
891.0
893.0
893.0
892.0
889.0
891.0
892.0
893.0
894.0
892.0
891.0
892.0
889.0
889.0
888.0
886.0
885.0
887.0
885.0
887.0
890.0
888.0
892.0
884.0
884.0
885.0
882.0
880.0
880.0
884.0
883.0
884.0
888.0
888.0
885.0
883.0
884.0
884.0
882.0
879.0
879.0
881.0
884.0
884.0
887.0
886.0
890.0
889.0
887.0
887.0
885.0
884.0
880.0
884.0
884.0
887.0
884.0
889.0
889.0
888.0
890.0
889.0
889.0
886.0
888.0
888.0
890.0
891.0
892.0
894.0
895.0
894.0
890.0
892.0
891.0
891.0
895.0
897.0
900.0
904.0
907.0
912.0
916.0
914.0
912.0
914.0
913.0
916.0
918.0
926.0
933.0
941.0
944.0
941.0
939.0
937.0
930.0
921.0
920.0
914.0
913.0
921.0
925.0
932.0
940.0
938.0
941.0
939.0
929.0
918.0
909.0
900.0
896.0
894.0
893.0
890.0
889.0
884.0
881.0
881.0
879.0
877.0
876.0
872.0
873.0
874.0
875.0
874.0
877.0
879.0
877.0
877.0
874.0
875.0
867.0
867.0
867.0
867.0
871.0
875.0
878.0
878.0
877.0
877.0
871.0
871.0
872.0
873.0
872.0
870.0
873.0
872.0
873.0
872.0
881.0
894.0
915.0
947.0
976.0
1005.0
1026.0
1033.0
1033.0
1031.0
1039.0
1059.0
1094.0
1132.0
1156.0
1159.0
1124.0
1050.0
944.0
836.0
743.0
682.0
646.0
636.0
628.0
622.0
617.0
605.0
600.0
593.0
595.0
598.0
601.0
607.0
613.0
618.0
627.0
638.0
651.0
672.0
697.0
727.0
760.0
786.0
811.0
832.0
846.0
853.0
857.0
858.0
858.0
860.0
862.0
863.0
867.0
867.0
868.0
868.0
869.0
870.0
870.0
869.0
867.0
864.0
862.0
860.0
858.0
857.0
857.0
857.0
859.0
861.0
858.0
857.0
849.0
846.0
842.0
839.0
834.0
834.0
833.0
834.0
835.0
834.0
832.0
825.0
823.0
821.0
817.0
814.0
812.0
815.0
815.0
818.0
819.0
822.0
819.0
815.0
817.0
817.0
816.0
814.0
818.0
822.0
825.0
828.0
831.0
834.0
836.0
842.0
842.0
846.0
845.0
850.0
853.0
856.0
864.0
870.0
871.0
872.0
873.0
873.0
873.0
876.0
877.0
874.0
877.0
881.0
885.0
885.0
891.0
893.0
898.0
896.0
888.0
887.0
886.0
882.0
885.0
886.0
885.0
892.0
892.0
894.0
890.0
891.0
885.0
885.0
881.0
881.0
881.0
878.0
883.0
883.0
882.0
881.0
880.0
882.0
879.0
880.0
880.0
872.0
876.0
877.0
880.0
880.0
880.0
882.0
881.0
880.0
877.0
878.0
876.0
875.0
877.0
879.0
880.0
882.0
882.0
883.0
884.0
882.0
885.0
879.0
878.0
878.0
876.0
878.0
879.0
882.0
885.0
887.0
889.0
888.0
884.0
884.0
881.0
876.0
880.0
879.0
879.0
880.0
885.0
886.0
883.0
884.0
880.0
883.0
882.0
883.0
884.0
883.0
885.0
885.0
885.0
886.0
888.0
887.0
890.0
891.0
890.0
892.0
890.0
896.0
900.0
900.0
903.0
909.0
908.0
909.0
907.0
911.0
910.0
914.0
921.0
923.0
926.0
933.0
935.0
934.0
928.0
922.0
916.0
915.0
914.0
914.0
919.0
925.0
932.0
936.0
936.0
934.0
926.0
916.0
910.0
903.0
898.0
895.0
894.0
892.0
892.0
884.0
886.0
882.0
882.0
878.0
878.0
873.0
871.0
870.0
871.0
875.0
874.0
875.0
878.0
879.0
877.0
877.0
873.0
872.0
869.0
869.0
871.0
870.0
874.0
876.0
879.0
881.0
880.0
880.0
877.0
875.0
870.0
870.0
867.0
869.0
882.0
898.0
923.0
958.0
992.0
1027.0
1052.0
1066.0
1070.0
1061.0
1058.0
1061.0
1079.0
1112.0
1143.0
1165.0
1164.0
1130.0
1055.0
952.0
844.0
752.0
686.0
655.0
638.0
632.0
627.0
625.0
619.0
615.0
610.0
605.0
600.0
600.0
604.0
608.0
616.0
625.0
641.0
661.0
684.0
712.0
743.0
774.0
798.0
817.0
833.0
842.0
849.0
857.0
855.0
861.0
863.0
868.0
866.0
864.0
868.0
869.0
871.0
870.0
869.0
872.0
873.0
872.0
870.0
870.0
869.0
865.0
865.0
863.0
860.0
858.0
863.0
862.0
863.0
858.0
853.0
853.0
849.0
844.0
838.0
835.0
835.0
835.0
837.0
835.0
836.0
835.0
831.0
828.0
824.0
826.0
821.0
821.0
819.0
821.0
824.0
823.0
820.0
821.0
823.0
823.0
823.0
822.0
822.0
822.0
824.0
827.0
831.0
833.0
841.0
844.0
847.0
848.0
850.0
854.0
855.0
859.0
864.0
869.0
877.0
881.0
886.0
887.0
885.0
890.0
889.0
887.0
888.0
893.0
892.0
896.0
900.0
900.0
901.0
903.0
902.0
901.0
900.0
898.0
895.0
896.0
897.0
898.0
902.0
903.0
903.0
905.0
901.0
902.0
901.0
902.0
898.0
899.0
897.0
897.0
900.0
895.0
897.0
900.0
897.0
897.0
892.0
891.0
891.0
890.0
893.0
892.0
893.0
892.0
893.0
894.0
896.0
894.0
891.0
888.0
885.0
886.0
883.0
885.0
886.0
885.0
889.0
894.0
897.0
899.0
895.0
891.0
891.0
892.0
890.0
893.0
890.0
895.0
894.0
893.0
896.0
896.0
898.0
898.0
897.0
892.0
888.0
889.0
889.0
891.0
890.0
893.0
894.0
896.0
897.0
897.0
896.0
897.0
894.0
893.0
894.0
895.0
896.0
898.0
897.0
902.0
898.0
903.0
903.0
905.0
905.0
908.0
913.0
916.0
917.0
926.0
929.0
932.0
932.0
938.0
