# Simple Text Format
# Sampling Rate (Hz):= 360.00
# Resolution:= 12
# Labels:= ECG
1066.0
1065.0
1059.0
1057.0
1060.0
1063.0
1067.0
1069.0
1066.0
1068.0
1067.0
1065.0
1063.0
1060.0
1061.0
1060.0
1059.0
1057.0
1054.0
1052.0
1053.0
1047.0
1042.0
1038.0
1035.0
1031.0
1026.0
1026.0
1027.0
1026.0
1024.0
1025.0
1021.0
1017.0
1012.0
1005.0
1002.0
998.0
995.0
992.0
995.0
989.0
988.0
985.0
985.0
980.0
981.0
978.0
975.0
974.0
971.0
970.0
973.0
975.0
978.0
977.0
976.0
975.0
973.0
974.0
976.0
978.0
982.0
982.0
988.0
993.0
997.0
1000.0
999.0
1002.0
1004.0
1003.0
1005.0
1010.0
1016.0
1026.0
1027.0
1036.0
1037.0
1041.0
1039.0
1037.0
1038.0
1038.0
1038.0
1041.0
1041.0
1045.0
1050.0
1053.0
1056.0
1061.0
1059.0
1056.0
1055.0
1053.0
1053.0
1050.0
1051.0
1051.0
1052.0
1055.0
1062.0
1063.0
1061.0
1061.0
1060.0
1054.0
1054.0
1052.0
1051.0
1053.0
1052.0
1057.0
1058.0
1059.0
1057.0
1055.0
1055.0
1054.0
1055.0
1056.0
1054.0
1059.0
1063.0
1062.0
1062.0
1061.0
1058.0
1055.0
1053.0
1054.0
1053.0
1051.0
1053.0
1055.0
1061.0
1060.0
1059.0
1063.0
1059.0
1055.0
1051.0
1049.0
1049.0
1045.0
1050.0
1049.0
1056.0
1057.0
1058.0
1060.0
1056.0
1056.0
1052.0
1047.0
1049.0
1048.0
1047.0
1047.0
1048.0
1051.0
1053.0
1057.0
1056.0
1051.0
1049.0
1048.0
1048.0
1042.0
1042.0
1043.0
1043.0
1042.0
1044.0
1046.0
1047.0
1048.0
1046.0
1044.0
1040.0
1042.0
1047.0
1056.0
1062.0
1065.0
1070.0
1070.0
1064.0
1056.0
1055.0
1055.0
1054.0
1059.0
1069.0
1074.0
1080.0
1085.0
1084.0
1082.0
1077.0
1069.0
1058.0
1052.0
1048.0
1049.0
1052.0
1051.0
1055.0
1052.0
1053.0
1051.0
1048.0
1044.0
1043.0
1042.0
1040.0
1039.0
1037.0
1037.0
1038.0
1041.0
1042.0
1047.0
1045.0
1044.0
1043.0
1040.0
1036.0
1036.0
1032.0
1034.0
1037.0
1041.0
1041.0
1044.0
1043.0
1037.0
1035.0
1033.0
1026.0
1022.0
1023.0
1020.0
1009.0
1006.0
990.0
967.0
938.0
909.0
872.0
837.0
812.0
799.0
808.0
831.0
863.0
898.0
934.0
974.0
1024.0
1093.0
1162.0
1214.0
1236.0
1224.0
1188.0
1138.0
1095.0
1059.0
1041.0
1026.0
1012.0
1005.0
995.0
986.0
984.0
983.0
984.0
984.0
993.0
994.0
992.0
989.0
987.0
985.0
981.0
982.0
987.0
995.0
1008.0
1024.0
1032.0
1041.0
1048.0
1050.0
1054.0
1052.0
1051.0
1046.0
1045.0
1045.0
1045.0
1044.0
1047.0
1047.0
1049.0
1050.0
1049.0
1046.0
1042.0
1037.0
1035.0
1029.0
1026.0
1026.0
1026.0
1024.0
1022.0
1020.0
1017.0
1012.0
1009.0
1001.0
1000.0
994.0
993.0
993.0
993.0
989.0
990.0
990.0
987.0
985.0
983.0
977.0
972.0
969.0
967.0
964.0
963.0
964.0
965.0
963.0
961.0
958.0
958.0
956.0
954.0
953.0
952.0
953.0
956.0
954.0
959.0
955.0
958.0
955.0
958.0
958.0
958.0
962.0
964.0
970.0
973.0
978.0
980.0
982.0
985.0
985.0
984.0
982.0
984.0
986.0
990.0
992.0
994.0
997.0
1004.0
1003.0
1008.0
1010.0
1008.0
1006.0
1008.0
1008.0
1008.0
1010.0
1014.0
1010.0
1018.0
1024.0
1025.0
1022.0
1024.0
1024.0
1020.0
1019.0
1019.0
1017.0
1020.0
1019.0
1023.0
1025.0
1024.0
1020.0
1022.0
1017.0
1013.0
1014.0
1010.0
1013.0
1015.0
1017.0
1018.0
1019.0
1014.0
1013.0
1008.0
1006.0
1001.0
1003.0
1005.0
1004.0
1005.0
1006.0
1008.0
1007.0
1010.0
1011.0
1008.0
1007.0
1005.0
1003.0
1001.0
1003.0
1004.0
1005.0
1005.0
1009.0
1008.0
1007.0
1008.0
1006.0
1000.0
1000.0
1001.0
1002.0
1001.0
1003.0
1001.0
1005.0
1004.0
1003.0
1010.0
1008.0
1011.0
1007.0
1003.0
1004.0
1004.0
1003.0
1007.0
1005.0
1006.0
1003.0
1001.0
993.0
990.0
989.0
988.0
989.0
991.0
994.0
995.0
1001.0
1002.0
1007.0
1011.0
1010.0
1007.0
998.0
994.0
994.0
996.0
1001.0
1013.0
1024.0
1033.0
1033.0
1031.0
1031.0
1024.0
1014.0
1002.0
999.0
997.0
996.0
1002.0
1004.0
1004.0
1003.0
1000.0
998.0
993.0
993.0
989.0
991.0
988.0
989.0
990.0
990.0
994.0
987.0
989.0
990.0
990.0
989.0
993.0
990.0
992.0
993.0
991.0
993.0
988.0
984.0
983.0
982.0
977.0
979.0
975.0
974.0
976.0
970.0
964.0
956.0
943.0
918.0
891.0
853.0
814.0
785.0
758.0
750.0
757.0
779.0
812.0
846.0
881.0
918.0
973.0
1039.0
1105.0
1160.0
1187.0
1170.0
1133.0
1076.0
1026.0
992.0
971.0
956.0
949.0
939.0
931.0
923.0
921.0
919.0
924.0
929.0
932.0
934.0
931.0
926.0
923.0
919.0
918.0
927.0
937.0
952.0
963.0
975.0
985.0
991.0
994.0
994.0
991.0
988.0
986.0
984.0
987.0
984.0
986.0
988.0
991.0
990.0
989.0
985.0
985.0
984.0
983.0
982.0
981.0
978.0
974.0
971.0
967.0
967.0
964.0
961.0
959.0
954.0
956.0
952.0
948.0
947.0
946.0
941.0
937.0
935.0
934.0
927.0
926.0
921.0
919.0
919.0
917.0
917.0
917.0
918.0
916.0
908.0
904.0
897.0
895.0
895.0
897.0
899.0
897.0
902.0
903.0
897.0
903.0
898.0
899.0
899.0
898.0
898.0
903.0
900.0
901.0
909.0
913.0
920.0
923.0
927.0
930.0
931.0
930.0
930.0
935.0
936.0
940.0
942.0
945.0
949.0
954.0
960.0
963.0
963.0
968.0
967.0
966.0
962.0
963.0
963.0
965.0
965.0
971.0
974.0
977.0
975.0
974.0
971.0
969.0
966.0
966.0
965.0
971.0
972.0
972.0
973.0
973.0
975.0
969.0
966.0
964.0
963.0
962.0
967.0
965.0
966.0
966.0
964.0
963.0
963.0
962.0
959.0
959.0
961.0
959.0
958.0
955.0
956.0
962.0
958.0
960.0
964.0
967.0
965.0
964.0
963.0
963.0
964.0
966.0
967.0
967.0
969.0
966.0
962.0
960.0
959.0
962.0
960.0
963.0
963.0
962.0
963.0
963.0
966.0
964.0
968.0
964.0
962.0
961.0
958.0
963.0
960.0
962.0
963.0
963.0
963.0
964.0
964.0
967.0
964.0
961.0
955.0
952.0
954.0
954.0
958.0
959.0
958.0
960.0
956.0
953.0
951.0
948.0
949.0
952.0
952.0
957.0
962.0
965.0
969.0
971.0
970.0
967.0
963.0
959.0
956.0
959.0
962.0
971.0
980.0
993.0
1000.0
1002.0
1002.0
993.0
982.0
974.0
963.0
959.0
961.0
964.0
968.0
968.0
974.0
971.0
972.0
964.0
958.0
952.0
949.0
948.0
948.0
951.0
955.0
960.0
961.0
960.0
961.0
956.0
957.0
952.0
955.0
952.0
953.0
950.0
952.0
954.0
955.0
958.0
957.0
959.0
955.0
955.0
946.0
947.0
941.0
939.0
932.0
924.0
914.0
892.0
868.0
832.0
797.0
769.0
744.0
744.0
761.0
795.0
826.0
863.0
898.0
941.0
1002.0
1069.0
1132.0
1174.0
1177.0
1144.0
1089.0
1030.0
983.0
952.0
941.0
930.0
919.0
915.0
903.0
895.0
890.0
888.0
893.0
898.0
903.0
904.0
903.0
903.0
896.0
895.0
898.0
906.0
914.0
927.0
943.0
947.0
959.0
964.0
965.0
964.0
963.0
964.0
964.0
964.0
961.0
961.0
962.0
965.0
962.0
965.0
967.0
965.0
962.0
957.0
955.0
949.0
947.0
944.0
938.0
938.0
935.0
934.0
933.0
934.0
933.0
927.0
923.0
916.0
910.0
906.0
901.0
901.0
901.0
902.0
902.0
900.0
895.0
889.0
889.0
879.0
875.0
872.0
867.0
871.0
871.0
871.0
869.0
872.0
866.0
865.0
861.0
858.0
855.0
860.0
861.0
863.0
866.0
867.0
872.0
875.0
871.0
870.0
870.0
870.0
868.0
876.0
879.0
883.0
885.0
893.0
897.0
899.0
901.0
901.0
903.0
903.0
906.0
908.0
910.0
914.0
917.0
922.0
930.0
933.0
934.0
935.0
937.0
934.0
937.0
930.0
934.0
939.0
939.0
945.0
945.0
944.0
948.0
947.0
945.0
945.0
943.0
940.0
944.0
944.0
946.0
946.0
950.0
951.0
946.0
948.0
944.0
943.0
941.0
941.0
939.0
945.0
952.0
953.0
951.0
948.0
946.0
943.0
941.0
937.0
938.0
941.0
938.0
940.0
939.0
941.0
941.0
941.0
938.0
938.0
935.0
932.0
930.0
929.0
933.0
931.0
932.0
935.0
936.0
934.0
933.0
931.0
929.0
930.0
930.0
933.0
933.0
936.0
938.0
940.0
943.0
942.0
943.0
940.0
938.0
934.0
931.0
934.0
931.0
935.0
939.0
939.0
941.0
941.0
936.0
934.0
931.0
929.0
930.0
930.0
927.0
927.0
929.0
929.0
928.0
927.0
927.0
926.0
928.0
927.0
935.0
936.0
943.0
947.0
947.0
946.0
946.0
941.0
940.0
938.0
939.0
942.0
946.0
953.0
958.0
963.0
965.0
960.0
958.0
952.0
942.0
938.0
938.0
937.0
935.0
940.0
939.0
937.0
937.0
934.0
933.0
934.0
934.0
934.0
929.0
931.0
929.0
927.0
929.0
930.0
928.0
930.0
929.0
928.0
927.0
925.0
920.0
922.0
923.0
924.0
924.0
926.0
927.0
929.0
930.0
926.0
922.0
918.0
916.0
911.0
903.0
894.0
882.0
871.0
851.0
820.0
792.0
758.0
723.0
702.0
689.0
696.0
714.0
744.0
777.0
805.0
845.0
891.0
952.0
1022.0
1085.0
1127.0
1134.0
1113.0
1066.0
1015.0
970.0
946.0
923.0
909.0
907.0
899.0
888.0
880.0
872.0
869.0
870.0
874.0
879.0
879.0
882.0
878.0
873.0
871.0
873.0
874.0
882.0
891.0
903.0
916.0
925.0
933.0
936.0
938.0
939.0
939.0
938.0
933.0
936.0
935.0
935.0
931.0
933.0
932.0
936.0
935.0
937.0
934.0
928.0
931.0
927.0
924.0
920.0
920.0
920.0
919.0
916.0
920.0
917.0
914.0
910.0
904.0
896.0
890.0
887.0
884.0
881.0
882.0
882.0
881.0
883.0
880.0
874.0
872.0
867.0
861.0
858.0
858.0
858.0
854.0
857.0
857.0
859.0
858.0
856.0
854.0
851.0
848.0
845.0
841.0
844.0
847.0
851.0
852.0
852.0
856.0
853.0
857.0
857.0
855.0
857.0
858.0
862.0
866.0
875.0
876.0
880.0
885.0
888.0
890.0
887.0
888.0
887.0
888.0
888.0
892.0
897.0
905.0
913.0
915.0
919.0
918.0
917.0
916.0
912.0
916.0
914.0
915.0
925.0
925.0
926.0
927.0
928.0
926.0
925.0
927.0
923.0
919.0
920.0
918.0
919.0
922.0
920.0
922.0
920.0
924.0
921.0
918.0
922.0
919.0
917.0
918.0
916.0
915.0
921.0
917.0
918.0
915.0
916.0
915.0
913.0
911.0
914.0
911.0
914.0
917.0
919.0
918.0
918.0
919.0
915.0
912.0
909.0
906.0
912.0
913.0
916.0
920.0
920.0
921.0
917.0
916.0
915.0
912.0
910.0
910.0
912.0
913.0
916.0
918.0
918.0
917.0
918.0
915.0
916.0
911.0
908.0
909.0
908.0
913.0
911.0
911.0
912.0
916.0
911.0
911.0
907.0
903.0
901.0
902.0
900.0
900.0
900.0
904.0
907.0
910.0
914.0
918.0
923.0
922.0
926.0
925.0
926.0
926.0
918.0
922.0
923.0
926.0
931.0
936.0
938.0
940.0
944.0
942.0
943.0
940.0
935.0
932.0
930.0
927.0
923.0
923.0
919.0
920.0
918.0
915.0
917.0
912.0
914.0
915.0
915.0
915.0
915.0
914.0
911.0
911.0
908.0
907.0
905.0
904.0
909.0
908.0
911.0
912.0
913.0
912.0
912.0
908.0
905.0
907.0
909.0
909.0
910.0
911.0
908.0
904.0
898.0
888.0
871.0
850.0
820.0
785.0
747.0
706.0
680.0
670.0
682.0
708.0
745.0
782.0
819.0
868.0
926.0
1001.0
1067.0
1111.0
1116.0
1092.0
1047.0
993.0
950.0
919.0
902.0
889.0
877.0
869.0
861.0
855.0
852.0
852.0
857.0
862.0
861.0
862.0
858.0
855.0
850.0
851.0
858.0
865.0
877.0
891.0
907.0
917.0
922.0
926.0
927.0
926.0
926.0
929.0
933.0
935.0
941.0
942.0
946.0
944.0
942.0
941.0
935.0
933.0
928.0
923.0
924.0
923.0
923.0
924.0
922.0
923.0
923.0
920.0
917.0
910.0
905.0
900.0
895.0
890.0
888.0
883.0
881.0
881.0
881.0
878.0
873.0
868.0
868.0
861.0
862.0
861.0
860.0
860.0
862.0
859.0
854.0
848.0
843.0
842.0
843.0
841.0
844.0
846.0
854.0
855.0
853.0
851.0
851.0
846.0
845.0
844.0
847.0
850.0
853.0
856.0
861.0
866.0
867.0
869.0
874.0
880.0
878.0
880.0
879.0
880.0
884.0
886.0
891.0
898.0
902.0
907.0
910.0
913.0
911.0
910.0
908.0
906.0
910.0
912.0
915.0
924.0
928.0
928.0
930.0
926.0
922.0
921.0
920.0
915.0
917.0
916.0
922.0
927.0
929.0
932.0
933.0
933.0
928.0
926.0
926.0
925.0
924.0
925.0
929.0
930.0
931.0
931.0
931.0
925.0
927.0
924.0
922.0
921.0
925.0
926.0
928.0
927.0
929.0
927.0
926.0
925.0
922.0
923.0
925.0
920.0
923.0
919.0
923.0
927.0
932.0
930.0
931.0
929.0
930.0
923.0
924.0
920.0
920.0
917.0
919.0
924.0
929.0
931.0
933.0
933.0
930.0
927.0
927.0
928.0
930.0
933.0
932.0
932.0
931.0
930.0
931.0
931.0
930.0
931.0
931.0
932.0
932.0
932.0
932.0
930.0
929.0
930.0
923.0
922.0
920.0
923.0
921.0
923.0
926.0
929.0
934.0
939.0
940.0
944.0
941.0
938.0
934.0
929.0
927.0
925.0
928.0
933.0
940.0
948.0
954.0
965.0
972.0
979.0
970.0
963.0
952.0
942.0
934.0
935.0
936.0
944.0
946.0
944.0
944.0
944.0
938.0
936.0
932.0
931.0
929.0
932.0
939.0
942.0
943.0
944.0
941.0
939.0
931.0
928.0
928.0
929.0
931.0
935.0
936.0
939.0
938.0
941.0
942.0
938.0
940.0
932.0
932.0
926.0
926.0
922.0
917.0
911.0
909.0
894.0
870.0
844.0
808.0
775.0
746.0
728.0
728.0
745.0
775.0
804.0
842.0
874.0
917.0
975.0
1046.0
1112.0
1158.0
1168.0
1142.0
1093.0
1030.0
979.0
942.0
926.0
910.0
904.0
896.0
887.0
878.0
872.0
871.0
874.0
882.0
886.0
891.0
890.0
887.0
882.0
876.0
875.0
876.0
885.0
901.0
918.0
936.0
948.0
955.0
962.0
961.0
958.0
956.0
950.0
946.0
950.0
952.0
957.0
957.0
961.0
957.0
955.0
953.0
947.0
949.0
945.0
941.0
938.0
935.0
931.0
931.0
930.0
927.0
928.0
923.0
922.0
926.0
920.0
912.0
907.0
902.0
900.0
901.0
893.0
895.0
891.0
885.0
883.0
878.0
872.0
868.0
870.0
867.0
865.0
866.0
869.0
869.0
869.0
869.0
862.0
859.0
856.0
854.0
856.0
856.0
856.0
861.0
866.0
861.0
866.0
867.0
865.0
867.0
868.0
868.0
872.0
878.0
878.0
885.0
887.0
894.0
899.0
901.0
904.0
906.0
905.0
909.0
913.0
916.0
920.0
928.0
929.0
935.0
938.0
939.0
942.0
939.0
933.0
936.0
938.0
938.0
940.0
948.0
954.0
954.0
959.0
956.0
953.0
950.0
947.0
946.0
941.0
942.0
947.0
948.0
954.0
958.0
960.0
957.0
956.0
955.0
946.0
944.0
942.0
945.0
940.0
944.0
946.0
946.0
950.0
951.0
948.0
946.0
941.0
940.0
940.0
940.0
937.0
938.0
940.0
945.0
946.0
946.0
947.0
947.0
949.0
942.0
944.0
945.0
941.0
942.0
946.0
948.0
950.0
948.0
945.0
943.0
938.0
938.0
939.0
935.0
938.0
942.0
943.0
951.0
956.0
952.0
951.0
948.0
944.0
940.0
939.0
938.0
937.0
943.0
942.0
942.0
945.0
944.0
938.0
937.0
934.0
931.0
925.0
918.0
917.0
918.0
926.0
928.0
933.0
938.0
942.0
945.0
947.0
947.0
947.0
944.0
943.0
944.0
944.0
943.0
947.0
948.0
954.0
958.0
962.0
967.0
967.0
966.0
959.0
961.0
953.0
952.0
947.0
946.0
945.0
945.0
942.0
939.0
940.0
939.0
937.0
941.0
942.0
947.0
943.0
942.0
937.0
936.0
934.0
933.0
927.0
929.0
924.0
929.0
929.0
927.0
934.0
930.0
929.0
925.0
926.0
925.0
924.0
924.0
923.0
925.0
929.0
927.0
924.0
922.0
909.0
899.0
883.0
861.0
834.0
807.0
769.0
742.0
718.0
711.0
716.0
741.0
769.0
801.0
832.0
870.0
919.0
983.0
1060.0
1125.0
1160.0
1167.0
1138.0
1085.0
1026.0
974.0
947.0
927.0
915.0
906.0
896.0
885.0
876.0
874.0
875.0
879.0
888.0
885.0
883.0
878.0
876.0
866.0
865.0
867.0
872.0
883.0
900.0
908.0
922.0
927.0
931.0
936.0
938.0
936.0
938.0
939.0
940.0
944.0
947.0
949.0
947.0
942.0
939.0
937.0
933.0
929.0
927.0
930.0
930.0
932.0
929.0
929.0
925.0
920.0
916.0
912.0
905.0
900.0
896.0
896.0
896.0
892.0
891.0
889.0
888.0
880.0
880.0
872.0
867.0
867.0
865.0
862.0
861.0
862.0
858.0
857.0
854.0
850.0
844.0
841.0
842.0
841.0
840.0
843.0
842.0
843.0
840.0
842.0
841.0
838.0
836.0
838.0
840.0
843.0
846.0
850.0
857.0
861.0
870.0
867.0
872.0
872.0
869.0
873.0
875.0
880.0
883.0
888.0
893.0
897.0
898.0
900.0
903.0
902.0
903.0
907.0
907.0
907.0
913.0
915.0
918.0
920.0
927.0
925.0
923.0
922.0
919.0
918.0
914.0
918.0
915.0
923.0
924.0
927.0
929.0
924.0
921.0
918.0
919.0
916.0
919.0
920.0
921.0
923.0
923.0
927.0
923.0
924.0
920.0
918.0
919.0
912.0
911.0
913.0
912.0
916.0
919.0
918.0
923.0
922.0
921.0
923.0
917.0
917.0
913.0
912.0
913.0
916.0
921.0
922.0
923.0
920.0
921.0
918.0
915.0
912.0
914.0
909.0
913.0
919.0
916.0
919.0
918.0
915.0
912.0
908.0
910.0
909.0
908.0
906.0
908.0
914.0
915.0
916.0
920.0
917.0
915.0
917.0
911.0
913.0
908.0
904.0
902.0
903.0
901.0
903.0
907.0
908.0
911.0
912.0
912.0
914.0
919.0
922.0
925.0
927.0
926.0
921.0
922.0
919.0
921.0
922.0
925.0
932.0
936.0
939.0
945.0
947.0
947.0
941.0
934.0
925.0
919.0
917.0
917.0
916.0
915.0
916.0
915.0
914.0
911.0
913.0
913.0
912.0
910.0
904.0
902.0
900.0
899.0
896.0
903.0
907.0
907.0
912.0
911.0
912.0
905.0
904.0
899.0
900.0
899.0
900.0
900.0
900.0
905.0
906.0
904.0
907.0
902.0
899.0
890.0
884.0
871.0
854.0
830.0
804.0
770.0
737.0
704.0
679.0
669.0
685.0
704.0
735.0
765.0
806.0
853.0
916.0
984.0
1054.0
1101.0
1114.0
1100.0
1056.0
1002.0
952.0
918.0
900.0
886.0
882.0
876.0
867.0
858.0
852.0
844.0
845.0
846.0
844.0
849.0
848.0
848.0
845.0
847.0
849.0
850.0
858.0
864.0
873.0
882.0
894.0
905.0
911.0
918.0
919.0
921.0
924.0
922.0
921.0
919.0
919.0
916.0
916.0
918.0
914.0
918.0
918.0
922.0
924.0
923.0
918.0
916.0
908.0
903.0
898.0
894.0
892.0
891.0
891.0
890.0
887.0
882.0
883.0
876.0
870.0
863.0
863.0
857.0
856.0
850.0
851.0
850.0
849.0
850.0
848.0
847.0
844.0
840.0
837.0
835.0
834.0
833.0
830.0
835.0
834.0
835.0
836.0
831.0
832.0
833.0
830.0
829.0
829.0
832.0
835.0
840.0
842.0
846.0
847.0
848.0
844.0
851.0
848.0
849.0
853.0
861.0
861.0
869.0
871.0
875.0
876.0
877.0
878.0
877.0
879.0
882.0
887.0
889.0
893.0
895.0
895.0
896.0
899.0
896.0
897.0
896.0
900.0
899.0
896.0
899.0
904.0
906.0
907.0
908.0
908.0
910.0
908.0
907.0
905.0
902.0
904.0
901.0
904.0
904.0
909.0
910.0
908.0
904.0
902.0
900.0
900.0
900.0
900.0
903.0
902.0
905.0
902.0
903.0
906.0
903.0
901.0
900.0
899.0
899.0
898.0
895.0
893.0
896.0
896.0
900.0
896.0
894.0
899.0
896.0
896.0
895.0
892.0
896.0
897.0
897.0
900.0
898.0
900.0
898.0
896.0
897.0
890.0
891.0
892.0
893.0
895.0
897.0
904.0
904.0
901.0
901.0
901.0
898.0
896.0
892.0
892.0
889.0
887.0
887.0
889.0
890.0
886.0
888.0
887.0
890.0
884.0
891.0
895.0
900.0
907.0
913.0
915.0
915.0
911.0
905.0
900.0
898.0
896.0
903.0
906.0
919.0
922.0
926.0
926.0
928.0
923.0
913.0
905.0
901.0
894.0
894.0
893.0
894.0
894.0
896.0
900.0
899.0
899.0
898.0
900.0
893.0
891.0
891.0
892.0
894.0
897.0
897.0
898.0
899.0
893.0
891.0
887.0
887.0
887.0
888.0
886.0
886.0
892.0
891.0
892.0
894.0
893.0
889.0
886.0
884.0
883.0
880.0
870.0
868.0
858.0
847.0
830.0
807.0
781.0
739.0
706.0
675.0
659.0
662.0
682.0
717.0
754.0
792.0
835.0
888.0
964.0
1031.0
1088.0
1108.0
1096.0
1056.0
998.0
946.0
905.0
878.0
865.0
856.0
847.0
841.0
836.0
827.0
827.0
824.0
830.0
834.0
839.0
838.0
836.0
835.0
831.0
830.0
834.0
838.0
851.0
864.0
877.0
891.0
899.0
910.0
914.0
913.0
912.0
911.0
910.0
908.0
910.0
906.0
905.0
907.0
906.0
905.0
906.0
904.0
907.0
904.0
904.0
895.0
888.0
887.0
884.0
882.0
881.0
880.0
885.0
884.0
880.0
876.0
873.0
870.0
864.0
857.0
855.0
855.0
850.0
847.0
840.0
841.0
839.0
835.0
832.0
830.0
826.0
823.0
819.0
819.0
821.0
822.0
820.0
821.0
822.0
819.0
820.0
822.0
818.0
816.0
813.0
814.0
814.0
811.0
817.0
820.0
828.0
832.0
836.0
833.0
833.0
831.0
832.0
835.0
839.0
846.0
851.0
855.0
858.0
861.0
862.0
866.0
869.0
872.0
872.0
874.0
881.0
886.0
890.0
894.0
896.0
897.0
899.0
900.0
894.0
893.0
895.0
899.0
898.0
903.0
905.0
904.0
907.0
910.0
905.0
904.0
901.0
901.0
898.0
900.0
906.0
909.0
913.0
917.0
915.0
912.0
910.0
907.0
906.0
899.0
900.0
900.0
901.0
902.0
899.0
901.0
900.0
896.0
900.0
900.0
905.0
904.0
905.0
900.0
904.0
904.0
903.0
903.0
904.0
904.0
904.0
904.0
901.0
900.0
900.0
900.0
906.0
910.0
910.0
911.0
913.0
911.0
909.0
905.0
902.0
903.0
903.0
904.0
907.0
905.0
909.0
911.0
914.0
914.0
915.0
913.0
912.0
911.0
907.0
907.0
907.0
909.0
906.0
913.0
911.0
910.0
904.0
901.0
898.0
890.0
888.0
889.0
892.0
895.0
902.0
911.0
910.0
916.0
916.0
918.0
924.0
922.0
920.0
915.0
912.0
910.0
913.0
913.0
921.0
930.0
938.0
942.0
950.0
948.0
946.0
941.0
933.0
924.0
920.0
921.0
926.0
928.0
931.0
925.0
922.0
917.0
911.0
911.0
912.0
916.0
914.0
919.0
916.0
916.0
912.0
910.0
906.0
904.0
906.0
907.0
909.0
913.0
912.0
911.0
911.0
910.0
907.0
908.0
904.0
905.0
904.0
907.0
904.0
908.0
907.0
903.0
897.0
883.0
865.0
842.0
811.0
775.0
742.0
712.0
694.0
698.0
722.0
758.0
790.0
828.0
875.0
934.0
1006.0
1081.0
1136.0
1161.0
1146.0
1097.0
1033.0
975.0
935.0
908.0
896.0
886.0
877.0
865.0
855.0
852.0
853.0
855.0
859.0
863.0
866.0
858.0
860.0
853.0
850.0
851.0
852.0
866.0
880.0
899.0
912.0
926.0
935.0
936.0
938.0
935.0
932.0
930.0
927.0
926.0
929.0
930.0
933.0
934.0
933.0
934.0
932.0
925.0
920.0
918.0
914.0
914.0
912.0
911.0
911.0
910.0
909.0
905.0
898.0
897.0
892.0
887.0
882.0
878.0
874.0
869.0
867.0
863.0
862.0
858.0
851.0
842.0
840.0
837.0
835.0
834.0
833.0
838.0
835.0
833.0
833.0
827.0
827.0
822.0
818.0
818.0
817.0
818.0
824.0
830.0
833.0
836.0
839.0
842.0
841.0
839.0
844.0
845.0
847.0
849.0
861.0
860.0
869.0
873.0
876.0
879.0
886.0
887.0
886.0
886.0
888.0
893.0
897.0
899.0
901.0
906.0
909.0
910.0
911.0
911.0
911.0
910.0
911.0
911.0
914.0
915.0
917.0
923.0
919.0
921.0
920.0
917.0
914.0
917.0
916.0
915.0
912.0
921.0
921.0
923.0
923.0
922.0
922.0
919.0
920.0
919.0
917.0
918.0
917.0
916.0
919.0
922.0
924.0
919.0
917.0
913.0
913.0
912.0
914.0
915.0
917.0
923.0
924.0
922.0
924.0
921.0
916.0
912.0
910.0
906.0
906.0
908.0
910.0
914.0
914.0
917.0
917.0
915.0
914.0
913.0
916.0
911.0
910.0
912.0
910.0
912.0
914.0
917.0
919.0
921.0
915.0
914.0
909.0
908.0
909.0
908.0
910.0
910.0
904.0
904.0
902.0
905.0
907.0
911.0
911.0
913.0
915.0
920.0
923.0
927.0
931.0
932.0
929.0
924.0
919.0
922.0
922.0
928.0
931.0
937.0
949.0
944.0
947.0
944.0
934.0
923.0
916.0
912.0
910.0
911.0
912.0
910.0
912.0
911.0
911.0
912.0
911.0
911.0
911.0
908.0
909.0
906.0
905.0
905.0
903.0
907.0
915.0
913.0
915.0
909.0
909.0
906.0
903.0
902.0
902.0
901.0
904.0
908.0
906.0
910.0
908.0
908.0
906.0
896.0
891.0
881.0
867.0
853.0
828.0
807.0
781.0
748.0
716.0
688.0
673.0
673.0
690.0
718.0
752.0
785.0
822.0
875.0
936.0
1016.0
1085.0
1124.0
1130.0
1101.0
1050.0
989.0
943.0
915.0
896.0
887.0
882.0
873.0
867.0
858.0
852.0
854.0
855.0
860.0
859.0
859.0
854.0
852.0
848.0
851.0
855.0
866.0
878.0
890.0
897.0
909.0
915.0
920.0
922.0
928.0
927.0
927.0
926.0
926.0
923.0
919.0
920.0
917.0
915.0
914.0
914.0
915.0
917.0
916.0
914.0
908.0
904.0
900.0
896.0
890.0
888.0
882.0
882.0
881.0
882.0
880.0
881.0
878.0
874.0
871.0
867.0
862.0
857.0
855.0
855.0
852.0
851.0
848.0
849.0
844.0
842.0
837.0
835.0
834.0
830.0
829.0
832.0
831.0
832.0
835.0
833.0
831.0
831.0
831.0
829.0
830.0
829.0
829.0
834.0
835.0
839.0
840.0
844.0
845.0
846.0
844.0
845.0
844.0
846.0
850.0
856.0
861.0
869.0
875.0
876.0
876.0
878.0
877.0
874.0
876.0
879.0
886.0
885.0
892.0
895.0
897.0
902.0
900.0
903.0
902.0
899.0
898.0
899.0
901.0
903.0
902.0
907.0
911.0
910.0
915.0
913.0
917.0
913.0
911.0
908.0
908.0
910.0
910.0
912.0
911.0
913.0
913.0
910.0
906.0
905.0
901.0
901.0
902.0
903.0
903.0
904.0
904.0
902.0
904.0
900.0
898.0
897.0
895.0
894.0
894.0
894.0
898.0
899.0
907.0
908.0
907.0
907.0
901.0
898.0
897.0
896.0
895.0
897.0
896.0
904.0
905.0
907.0
907.0
908.0
910.0
905.0
903.0
897.0
899.0
899.0
902.0
906.0
906.0
907.0
907.0
904.0
900.0
900.0
897.0
893.0
897.0
894.0
893.0
892.0
891.0
895.0
896.0
893.0
897.0
899.0
902.0
903.0
912.0
914.0
914.0
917.0
909.0
912.0
910.0
908.0
917.0
918.0
926.0
932.0
935.0
935.0
929.0
924.0
915.0
910.0
907.0
909.0
911.0
910.0
910.0
905.0
903.0
903.0
901.0
902.0
903.0
906.0
903.0
901.0
897.0
898.0
894.0
893.0
895.0
899.0
903.0
900.0
903.0
901.0
893.0
892.0
890.0
892.0
892.0
895.0
892.0
893.0
890.0
892.0
892.0
893.0
888.0
882.0
873.0
857.0
838.0
815.0
781.0
743.0
708.0
671.0
649.0
640.0
650.0
678.0
712.0
743.0
774.0
807.0
862.0
936.0
1016.0
1084.0
1117.0
1113.0
1069.0
1013.0
955.0
913.0
889.0
872.0
864.0
856.0
853.0
847.0
842.0
844.0
848.0
847.0
851.0
846.0
843.0
838.0
836.0
839.0
842.0
855.0
868.0
879.0
889.0
897.0
904.0
905.0
905.0
909.0
908.0
910.0
911.0
918.0
919.0
922.0
921.0
917.0
912.0
911.0
906.0
903.0
906.0
910.0
908.0
911.0
911.0
912.0
905.0
904.0
897.0
893.0
888.0
884.0
880.0
880.0
879.0
879.0
878.0
873.0
875.0
870.0
863.0
857.0
853.0
853.0
851.0
848.0
848.0
849.0
846.0
846.0
841.0
836.0
833.0
832.0
830.0
829.0
830.0
830.0
825.0
827.0
827.0
828.0
825.0
828.0
825.0
824.0
821.0
822.0
822.0
827.0
832.0
835.0
839.0
845.0
848.0
849.0
850.0
852.0
853.0
853.0
856.0
864.0
869.0
873.0
878.0
879.0
881.0
881.0
883.0
881.0
885.0
887.0
890.0
893.0
893.0
897.0
902.0
903.0
902.0
902.0
