# Simple Text Format
# Sampling Rate (Hz):= 360.00
# Resolution:= 12
# Labels:= ECG
834.0
840.0
841.0
845.0
848.0
845.0
848.0
849.0
848.0
848.0
849.0
848.0
848.0
848.0
852.0
852.0
854.0
852.0
851.0
846.0
842.0
843.0
839.0
837.0
836.0
838.0
835.0
833.0
834.0
827.0
825.0
822.0
818.0
816.0
814.0
814.0
808.0
809.0
808.0
810.0
811.0
807.0
805.0
802.0
802.0
798.0
793.0
790.0
791.0
793.0
795.0
796.0
798.0
798.0
798.0
799.0
798.0
797.0
798.0
801.0
808.0
809.0
815.0
821.0
827.0
828.0
830.0
832.0
837.0
839.0
843.0
846.0
853.0
857.0
863.0
866.0
869.0
869.0
868.0
870.0
871.0
870.0
874.0
872.0
875.0
878.0
880.0
882.0
880.0
882.0
880.0
879.0
877.0
873.0
873.0
874.0
877.0
878.0
886.0
888.0
888.0
884.0
882.0
877.0
882.0
879.0
879.0
876.0
878.0
877.0
880.0
880.0
878.0
877.0
878.0
877.0
876.0
872.0
871.0
870.0
872.0
870.0
869.0
872.0
873.0
872.0
872.0
875.0
871.0
871.0
869.0
868.0
872.0
873.0
872.0
877.0
880.0
873.0
874.0
872.0
872.0
868.0
867.0
868.0
868.0
875.0
882.0
882.0
887.0
884.0
881.0
879.0
879.0
880.0
878.0
877.0
880.0
879.0
880.0
880.0
882.0
878.0
877.0
879.0
880.0
878.0
878.0
877.0
879.0
882.0
886.0
883.0
890.0
890.0
888.0
888.0
886.0
882.0
885.0
889.0
891.0
896.0
897.0
904.0
906.0
905.0
907.0
911.0
909.0
909.0
915.0
916.0
924.0
930.0
935.0
935.0
935.0
930.0
924.0
917.0
914.0
909.0
908.0
910.0
914.0
922.0
931.0
938.0
942.0
935.0
926.0
916.0
907.0
900.0
890.0
889.0
886.0
883.0
884.0
883.0
882.0
879.0
879.0
874.0
872.0
871.0
866.0
867.0
866.0
870.0
874.0
875.0
877.0
874.0
871.0
870.0
870.0
870.0
870.0
872.0
872.0
870.0
873.0
871.0
874.0
874.0
872.0
872.0
875.0
871.0
869.0
866.0
864.0
861.0
862.0
869.0
884.0
902.0
932.0
963.0
998.0
1029.0
1048.0
1051.0
1047.0
1047.0
1055.0
1078.0
1116.0
1150.0
1167.0
1157.0
1103.0
1008.0
901.0
798.0
719.0
670.0
648.0
633.0
628.0
621.0
618.0
608.0
603.0
597.0
602.0
600.0
600.0
608.0
619.0
632.0
652.0
678.0
707.0
738.0
767.0
793.0
813.0
828.0
835.0
842.0
848.0
852.0
857.0
857.0
861.0
859.0
860.0
859.0
855.0
858.0
858.0
857.0
860.0
860.0
862.0
865.0
861.0
864.0
858.0
855.0
852.0
847.0
847.0
846.0
849.0
850.0
847.0
849.0
842.0
837.0
836.0
833.0
827.0
826.0
822.0
822.0
825.0
824.0
825.0
823.0
819.0
816.0
815.0
811.0
807.0
806.0
804.0
802.0
805.0
807.0
804.0
804.0
807.0
806.0
805.0
804.0
803.0
801.0
799.0
804.0
810.0
815.0
817.0
819.0
825.0
829.0
833.0
839.0
839.0
843.0
845.0
853.0
856.0
860.0
867.0
870.0
872.0
874.0
871.0
875.0
876.0
874.0
877.0
881.0
881.0
883.0
889.0
892.0
891.0
893.0
890.0
889.0
887.0
884.0
883.0
884.0
886.0
889.0
892.0
893.0
895.0
893.0
889.0
888.0
889.0
891.0
892.0
891.0
892.0
892.0
892.0
892.0
889.0
889.0
887.0
885.0
884.0
885.0
879.0
881.0
883.0
882.0
886.0
886.0
883.0
880.0
881.0
880.0
874.0
871.0
874.0
879.0
881.0
879.0
881.0
883.0
883.0
881.0
880.0
877.0
876.0
876.0
875.0
877.0
881.0
883.0
887.0
886.0
884.0
879.0
880.0
880.0
879.0
877.0
880.0
879.0
882.0
885.0
886.0
884.0
886.0
884.0
884.0
883.0
883.0
879.0
878.0
879.0
884.0
882.0
886.0
884.0
887.0
888.0
885.0
886.0
886.0
885.0
885.0
889.0
893.0
896.0
901.0
905.0
905.0
906.0
906.0
905.0
906.0
901.0
905.0
912.0
918.0
924.0
933.0
939.0
941.0
936.0
932.0
930.0
919.0
915.0
910.0
910.0
910.0
914.0
919.0
923.0
932.0
934.0
932.0
927.0
920.0
910.0
901.0
898.0
892.0
892.0
893.0
889.0
887.0
884.0
880.0
876.0
874.0
870.0
869.0
870.0
871.0
871.0
874.0
871.0
869.0
867.0
867.0
867.0
867.0
863.0
866.0
865.0
867.0
868.0
871.0
869.0
868.0
867.0
867.0
866.0
861.0
861.0
866.0
866.0
869.0
870.0
870.0
869.0
866.0
862.0
858.0
857.0
860.0
869.0
891.0
912.0
946.0
975.0
1001.0
1014.0
1019.0
1014.0
1010.0
1021.0
1041.0
1078.0
1119.0
1148.0
1149.0
1107.0
1030.0
924.0
820.0
736.0
677.0
644.0
625.0
616.0
611.0
610.0
607.0
608.0
608.0
608.0
606.0
604.0
605.0
606.0
614.0
625.0
639.0
666.0
693.0
725.0
753.0
779.0
797.0
811.0
818.0
820.0
826.0
831.0
834.0
840.0
845.0
851.0
854.0
853.0
855.0
856.0
854.0
852.0
855.0
854.0
851.0
854.0
855.0
856.0
855.0
852.0
849.0
849.0
844.0
842.0
841.0
839.0
838.0
837.0
835.0
834.0
833.0
830.0
826.0
828.0
825.0
823.0
819.0
816.0
813.0
816.0
812.0
814.0
814.0
812.0
809.0
808.0
804.0
800.0
798.0
796.0
796.0
798.0
800.0
804.0
805.0
804.0
806.0
808.0
808.0
809.0
812.0
814.0
814.0
819.0
825.0
830.0
834.0
838.0
843.0
846.0
851.0
852.0
849.0
854.0
858.0
859.0
861.0
865.0
870.0
870.0
872.0
875.0
874.0
875.0
873.0
874.0
873.0
874.0
881.0
883.0
883.0
886.0
884.0
881.0
881.0
877.0
874.0
876.0
876.0
876.0
880.0
880.0
881.0
879.0
882.0
878.0
876.0
869.0
870.0
871.0
870.0
870.0
873.0
874.0
878.0
875.0
874.0
876.0
870.0
868.0
865.0
864.0
866.0
868.0
871.0
869.0
871.0
872.0
874.0
870.0
869.0
865.0
862.0
868.0
868.0
868.0
869.0
871.0
871.0
872.0
871.0
870.0
870.0
869.0
869.0
867.0
869.0
870.0
871.0
871.0
874.0
871.0
874.0
873.0
871.0
868.0
867.0
869.0
869.0
869.0
873.0
877.0
879.0
880.0
878.0
878.0
877.0
872.0
873.0
867.0
865.0
874.0
877.0
880.0
883.0
883.0
886.0
883.0
882.0
882.0
882.0
883.0
885.0
890.0
895.0
892.0
897.0
902.0
899.0
907.0
912.0
914.0
915.0
912.0
910.0
907.0
901.0
898.0
902.0
901.0
904.0
905.0
909.0
914.0
915.0
912.0
910.0
905.0
897.0
890.0
887.0
882.0
879.0
872.0
869.0
866.0
861.0
859.0
860.0
857.0
859.0
861.0
863.0
861.0
861.0
860.0
854.0
851.0
854.0
849.0
851.0
853.0
858.0
859.0
861.0
862.0
861.0
857.0
856.0
856.0
855.0
854.0
853.0
859.0
859.0
861.0
862.0
860.0
858.0
859.0
856.0
861.0
867.0
884.0
910.0
944.0
981.0
1011.0
1026.0
1031.0
1025.0
1026.0
1037.0
1063.0
1096.0
1127.0
1132.0
1099.0
1028.0
929.0
834.0
747.0
685.0
652.0
630.0
620.0
613.0
609.0
605.0
602.0
600.0
601.0
604.0
605.0
604.0
605.0
608.0
614.0
625.0
637.0
659.0
679.0
710.0
745.0
772.0
796.0
812.0
823.0
826.0
833.0
829.0
833.0
833.0
835.0
840.0
845.0
848.0
850.0
849.0
848.0
849.0
844.0
846.0
844.0
846.0
842.0
844.0
846.0
847.0
849.0
849.0
848.0
844.0
839.0
835.0
830.0
829.0
830.0
830.0
830.0
829.0
827.0
825.0
822.0
818.0
812.0
811.0
807.0
806.0
805.0
803.0
804.0
805.0
804.0
804.0
802.0
798.0
795.0
795.0
794.0
791.0
792.0
793.0
791.0
793.0
795.0
797.0
799.0
803.0
803.0
804.0
806.0
808.0
815.0
820.0
826.0
830.0
834.0
838.0
843.0
843.0
845.0
845.0
850.0
855.0
857.0
858.0
866.0
868.0
867.0
871.0
869.0
870.0
873.0
871.0
871.0
874.0
873.0
880.0
879.0
875.0
881.0
880.0
879.0
880.0
877.0
874.0
875.0
876.0
875.0
876.0
879.0
884.0
885.0
885.0
882.0
880.0
877.0
875.0
875.0
874.0
874.0
873.0
876.0
874.0
876.0
875.0
873.0
871.0
869.0
869.0
870.0
864.0
870.0
871.0
870.0
870.0
871.0
871.0
870.0
869.0
870.0
865.0
867.0
867.0
869.0
869.0
872.0
871.0
875.0
876.0
875.0
873.0
873.0
869.0
870.0
871.0
868.0
872.0
877.0
877.0
877.0
875.0
877.0
872.0
873.0
868.0
868.0
874.0
874.0
874.0
877.0
879.0
880.0
882.0
882.0
878.0
878.0
876.0
871.0
875.0
877.0
877.0
878.0
881.0
886.0
888.0
888.0
890.0
889.0
891.0
892.0
896.0
897.0
900.0
903.0
908.0
908.0
915.0
921.0
922.0
924.0
924.0
925.0
920.0
919.0
915.0
912.0
912.0
910.0
910.0
913.0
916.0
920.0
919.0
922.0
922.0
918.0
916.0
908.0
903.0
895.0
895.0
891.0
886.0
884.0
877.0
870.0
866.0
868.0
866.0
868.0
872.0
870.0
872.0
870.0
868.0
869.0
864.0
865.0
861.0
864.0
867.0
866.0
868.0
867.0
868.0
868.0
867.0
867.0
867.0
864.0
860.0
862.0
863.0
869.0
870.0
872.0
871.0
871.0
867.0
864.0
862.0
856.0
862.0
874.0
897.0
926.0
955.0
986.0
1006.0
1015.0
1011.0
1013.0
1023.0
1052.0
1090.0
1122.0
1144.0
1132.0
1080.0
998.0
900.0
809.0
739.0
693.0
664.0
649.0
634.0
628.0
622.0
615.0
612.0
614.0
610.0
610.0
612.0
613.0
617.0
625.0
638.0
658.0
680.0
709.0
739.0
766.0
790.0
808.0
820.0
830.0
836.0
838.0
843.0
844.0
851.0
855.0
857.0
857.0
861.0
863.0
862.0
862.0
858.0
857.0
859.0
860.0
860.0
861.0
863.0
862.0
859.0
859.0
856.0
853.0
850.0
847.0
845.0
845.0
842.0
844.0
844.0
844.0
839.0
835.0
831.0
826.0
824.0
821.0
821.0
820.0
818.0
818.0
822.0
818.0
817.0
816.0
812.0
809.0
807.0
808.0
809.0
813.0
810.0
811.0
815.0
818.0
817.0
820.0
821.0
824.0
822.0
827.0
831.0
831.0
836.0
837.0
845.0
852.0
856.0
858.0
859.0
860.0
864.0
867.0
869.0
872.0
873.0
879.0
881.0
886.0
889.0
889.0
889.0
890.0
888.0
889.0
891.0
893.0
895.0
896.0
899.0
900.0
898.0
898.0
895.0
893.0
891.0
891.0
890.0
888.0
892.0
893.0
894.0
896.0
895.0
895.0
889.0
888.0
884.0
884.0
884.0
888.0
887.0
888.0
890.0
886.0
891.0
889.0
888.0
885.0
883.0
881.0
882.0
883.0
884.0
885.0
885.0
886.0
884.0
881.0
881.0
882.0
878.0
882.0
880.0
884.0
884.0
887.0
885.0
889.0
888.0
884.0
884.0
881.0
881.0
880.0
880.0
882.0
882.0
885.0
884.0
886.0
885.0
886.0
883.0
879.0
880.0
877.0
877.0
881.0
882.0
882.0
886.0
888.0
891.0
889.0
885.0
885.0
884.0
883.0
884.0
881.0
884.0
885.0
887.0
890.0
893.0
896.0
899.0
898.0
899.0
900.0
901.0
903.0
906.0
907.0
910.0
913.0
918.0
924.0
925.0
929.0
929.0
928.0
923.0
916.0
915.0
914.0
913.0
915.0
914.0
915.0
921.0
921.0
922.0
924.0
917.0
916.0
911.0
907.0
899.0
898.0
896.0
890.0
891.0
882.0
879.0
873.0
867.0
869.0
874.0
875.0
875.0
874.0
872.0
873.0
869.0
867.0
867.0
863.0
863.0
863.0
864.0
868.0
866.0
864.0
865.0
868.0
865.0
865.0
862.0
862.0
864.0
862.0
864.0
867.0
865.0
868.0
868.0
863.0
861.0
860.0
863.0
869.0
885.0
910.0
936.0
969.0
1004.0
1028.0
1037.0
1039.0
1035.0
1037.0
1047.0
1070.0
1096.0
1124.0
1129.0
1113.0
1064.0
983.0
885.0
799.0
727.0
677.0
647.0
626.0
618.0
611.0
605.0
598.0
596.0
593.0
598.0
600.0
598.0
598.0
598.0
601.0
607.0
617.0
631.0
652.0
672.0
705.0
732.0
763.0
782.0
800.0
811.0
823.0
827.0
829.0
832.0
836.0
842.0
846.0
848.0
851.0
851.0
853.0
850.0
849.0
847.0
848.0
851.0
854.0
853.0
854.0
853.0
852.0
849.0
846.0
844.0
838.0
835.0
838.0
833.0
837.0
837.0
835.0
833.0
829.0
823.0
821.0
819.0
811.0
809.0
811.0
812.0
809.0
807.0
803.0
805.0
805.0
803.0
801.0
800.0
795.0
793.0
791.0
792.0
797.0
799.0
798.0
796.0
796.0
798.0
799.0
798.0
799.0
802.0
807.0
812.0
816.0
823.0
825.0
829.0
835.0
836.0
840.0
842.0
846.0
848.0
851.0
858.0
862.0
866.0
870.0
872.0
871.0
872.0
873.0
873.0
873.0
873.0
875.0
876.0
879.0
880.0
883.0
884.0
885.0
885.0
884.0
883.0
879.0
880.0
881.0
883.0
885.0
885.0
886.0
882.0
888.0
884.0
883.0
880.0
877.0
877.0
880.0
879.0
880.0
881.0
880.0
881.0
880.0
878.0
877.0
875.0
875.0
873.0
874.0
875.0
875.0
878.0
877.0
879.0
877.0
877.0
876.0
876.0
874.0
874.0
875.0
877.0
878.0
880.0
882.0
880.0
882.0
881.0
879.0
878.0
877.0
876.0
881.0
881.0
879.0
881.0
886.0
883.0
879.0
883.0
878.0
876.0
880.0
877.0
879.0
881.0
883.0
883.0
887.0
886.0
887.0
884.0
883.0
884.0
883.0
882.0
884.0
885.0
887.0
890.0
893.0
890.0
895.0
894.0
893.0
894.0
896.0
896.0
902.0
906.0
908.0
913.0
920.0
925.0
927.0
929.0
930.0
926.0
923.0
916.0
912.0
909.0
909.0
908.0
910.0
914.0
916.0
922.0
926.0
925.0
921.0
911.0
906.0
897.0
892.0
892.0
888.0
886.0
881.0
878.0
876.0
869.0
865.0
866.0
867.0
867.0
866.0
867.0
868.0
866.0
870.0
870.0
865.0
862.0
864.0
864.0
860.0
861.0
864.0
863.0
866.0
867.0
864.0
865.0
865.0
862.0
861.0
858.0
861.0
862.0
864.0
859.0
859.0
855.0
854.0
860.0
873.0
898.0
926.0
957.0
989.0
1012.0
1016.0
1018.0
1018.0
1031.0
1059.0
1097.0
1132.0
1153.0
1149.0
1108.0
1034.0
937.0
838.0
764.0
711.0
680.0
659.0
643.0
631.0
620.0
612.0
604.0
602.0
603.0
605.0
611.0
614.0
613.0
617.0
623.0
635.0
649.0
672.0
703.0
735.0
767.0
792.0
811.0
824.0
830.0
836.0
834.0
839.0
840.0
840.0
841.0
843.0
847.0
850.0
850.0
851.0
852.0
851.0
849.0
846.0
846.0
845.0
843.0
842.0
844.0
845.0
843.0
841.0
841.0
837.0
834.0
830.0
827.0
823.0
821.0
821.0
820.0
820.0
819.0
815.0
813.0
812.0
808.0
805.0
803.0
795.0
796.0
795.0
793.0
794.0
794.0
798.0
796.0
793.0
791.0
791.0
792.0
788.0
789.0
791.0
791.0
795.0
798.0
799.0
801.0
806.0
810.0
810.0
816.0
819.0
822.0
827.0
836.0
833.0
839.0
846.0
848.0
853.0
855.0
855.0
854.0
859.0
860.0
864.0
866.0
869.0
873.0
877.0
877.0
878.0
876.0
874.0
874.0
872.0
873.0
872.0
872.0
874.0
879.0
881.0
880.0
879.0
876.0
875.0
872.0
871.0
868.0
868.0
871.0
870.0
872.0
875.0
872.0
873.0
868.0
866.0
864.0
862.0
858.0
867.0
865.0
864.0
868.0
867.0
869.0
866.0
865.0
863.0
858.0
863.0
859.0
857.0
858.0
860.0
863.0
870.0
866.0
864.0
864.0
860.0
858.0
861.0
857.0
857.0
859.0
864.0
867.0
867.0
867.0
866.0
862.0
861.0
859.0
859.0
860.0
861.0
861.0
864.0
869.0
872.0
869.0
868.0
865.0
867.0
865.0
865.0
864.0
864.0
868.0
867.0
870.0
869.0
871.0
871.0
870.0
871.0
874.0
875.0
878.0
879.0
882.0
883.0
889.0
892.0
890.0
894.0
895.0
898.0
900.0
908.0
910.0
914.0
916.0
911.0
906.0
905.0
899.0
894.0
890.0
888.0
892.0
897.0
903.0
910.0
910.0
912.0
907.0
901.0
892.0
884.0
874.0
869.0
865.0
862.0
861.0
861.0
861.0
858.0
859.0
860.0
858.0
856.0
856.0
852.0
850.0
846.0
850.0
850.0
851.0
850.0
852.0
856.0
855.0
852.0
851.0
848.0
849.0
850.0
849.0
847.0
850.0
849.0
847.0
852.0
852.0
851.0
850.0
847.0
843.0
842.0
838.0
842.0
851.0
866.0
891.0
920.0
950.0
974.0
988.0
989.0
984.0
983.0
992.0
1017.0
1058.0
1107.0
1141.0
1157.0
1136.0
1074.0
982.0
877.0
782.0
708.0
666.0
642.0
632.0
623.0
615.0
608.0
600.0
592.0
591.0
589.0
590.0
587.0
590.0
593.0
603.0
613.0
627.0
647.0
670.0
706.0
735.0
759.0
780.0
797.0
811.0
819.0
825.0
830.0
831.0
837.0
840.0
840.0
842.0
842.0
839.0
840.0
842.0
841.0
846.0
844.0
847.0
849.0
845.0
844.0
842.0
840.0
839.0
838.0
835.0
833.0
833.0
834.0
832.0
833.0
828.0
825.0
823.0
821.0
819.0
815.0
811.0
811.0
810.0
807.0
806.0
808.0
807.0
803.0
800.0
799.0
795.0
790.0
789.0
791.0
794.0
794.0
795.0
796.0
796.0
795.0
795.0
793.0
790.0
797.0
801.0
799.0
804.0
811.0
811.0
818.0
821.0
825.0
826.0
827.0
828.0
832.0
836.0
841.0
847.0
849.0
855.0
857.0
856.0
860.0
862.0
862.0
864.0
861.0
862.0
865.0
869.0
870.0
876.0
877.0
876.0
875.0
877.0
871.0
869.0
869.0
873.0
868.0
875.0
875.0
875.0
878.0
874.0
873.0
872.0
867.0
865.0
869.0
868.0
870.0
869.0
867.0
870.0
869.0
868.0
867.0
866.0
866.0
864.0
863.0
860.0
861.0
860.0
862.0
864.0
867.0
866.0
866.0
862.0
860.0
858.0
859.0
859.0
861.0
860.0
865.0
866.0
867.0
865.0
866.0
866.0
862.0
863.0
861.0
859.0
862.0
864.0
866.0
869.0
872.0
870.0
867.0
865.0
865.0
862.0
865.0
863.0
863.0
866.0
866.0
867.0
871.0
870.0
869.0
869.0
868.0
868.0
869.0
866.0
866.0
867.0
868.0
872.0
873.0
874.0
875.0
875.0
874.0
875.0
873.0
877.0
881.0
885.0
887.0
888.0
887.0
890.0
892.0
893.0
893.0
897.0
900.0
901.0
906.0
910.0
911.0
913.0
909.0
903.0
896.0
892.0
892.0
892.0
899.0
902.0
909.0
916.0
915.0
914.0
908.0
900.0
891.0
882.0
874.0
872.0
869.0
866.0
862.0
859.0
859.0
858.0
858.0
858.0
856.0
855.0
854.0
851.0
851.0
849.0
850.0
852.0
851.0
849.0
853.0
853.0
853.0
851.0
848.0
846.0
845.0
842.0
845.0
846.0
849.0
851.0
854.0
853.0
853.0
852.0
852.0
849.0
846.0
845.0
848.0
856.0
868.0
888.0
918.0
943.0
971.0
996.0
1005.0
1009.0
1000.0
994.0
1000.0
1019.0
1056.0
1098.0
1130.0
1137.0
1114.0
1046.0
950.0
843.0
749.0
681.0
642.0
620.0
611.0
609.0
604.0
596.0
588.0
583.0
581.0
584.0
582.0
578.0
581.0
589.0
596.0
612.0
631.0
650.0
676.0
708.0
738.0
763.0
780.0
795.0
809.0
817.0
824.0
827.0
827.0
829.0
832.0
834.0
836.0
837.0
839.0
838.0
839.0
839.0
839.0
844.0
847.0
846.0
843.0
842.0
840.0
835.0
832.0
831.0
828.0
827.0
826.0
827.0
829.0
826.0
824.0
820.0
813.0
812.0
810.0
807.0
802.0
804.0
805.0
803.0
803.0
799.0
799.0
799.0
799.0
795.0
794.0
790.0
791.0
791.0
790.0
794.0
794.0
792.0
793.0
793.0
793.0
792.0
792.0
791.0
792.0
795.0
799.0
803.0
807.0
811.0
812.0
814.0
817.0
821.0
826.0
828.0
830.0
831.0
840.0
843.0
847.0
850.0
851.0
855.0
856.0
858.0
858.0
860.0
863.0
864.0
864.0
871.0
872.0
872.0
873.0
873.0
871.0
869.0
869.0
866.0
866.0
867.0
866.0
864.0
866.0
862.0
865.0
861.0
857.0
856.0
860.0
860.0
862.0
865.0
866.0
868.0
868.0
866.0
864.0
864.0
860.0
861.0
860.0
860.0
856.0
862.0
861.0
861.0
862.0
865.0
864.0
860.0
857.0
856.0
854.0
851.0
852.0
852.0
855.0
859.0
861.0
864.0
864.0
861.0
860.0
861.0
855.0
858.0
854.0
856.0
860.0
863.0
866.0
865.0
863.0
862.0
862.0
858.0
857.0
857.0
857.0
859.0
864.0
863.0
864.0
865.0
866.0
864.0
862.0
864.0
860.0
862.0
861.0
866.0
866.0
868.0
868.0
869.0
867.0
864.0
863.0
863.0
860.0
865.0
863.0
864.0
866.0
870.0
876.0
880.0
881.0
880.0
877.0
882.0
882.0
881.0
884.0
891.0
895.0
902.0
911.0
913.0
915.0
913.0
908.0
898.0
895.0
893.0
891.0
890.0
893.0
895.0
904.0
909.0
914.0
915.0
912.0
903.0
897.0
889.0
882.0
879.0
876.0
873.0
875.0
871.0
867.0
864.0
860.0
857.0
856.0
858.0
856.0
859.0
860.0
858.0
858.0
862.0
860.0
859.0
854.0
856.0
855.0
852.0
854.0
855.0
858.0
860.0
863.0
861.0
861.0
861.0
854.0
854.0
856.0
854.0
851.0
852.0
852.0
852.0
853.0
853.0
858.0
868.0
887.0
914.0
945.0
977.0
1003.0
1019.0
1022.0
1018.0
1015.0
1031.0
1055.0
1089.0
1126.0
1140.0
1123.0
1069.0
980.0
881.0
787.0
719.0
678.0
660.0
643.0
634.0
627.0
619.0
613.0
610.0
608.0
607.0
610.0
611.0
616.0
618.0
625.0
635.0
650.0
674.0
707.0
739.0
772.0
795.0
813.0
823.0
833.0
836.0
836.0
838.0
838.0
840.0
838.0
842.0
842.0
843.0
845.0
847.0
848.0
849.0
848.0
848.0
847.0
844.0
842.0
840.0
839.0
838.0
838.0
837.0
838.0
834.0
832.0
831.0
827.0
827.0
821.0
817.0
818.0
817.0
816.0
816.0
815.0
810.0
809.0
806.0
801.0
798.0
797.0
796.0
795.0
795.0
796.0
796.0
794.0
792.0
790.0
787.0
783.0
782.0
786.0
789.0
790.0
792.0
798.0
802.0
807.0
804.0
806.0
810.0
812.0
815.0
815.0
820.0
822.0
829.0
835.0
844.0
847.0
850.0
853.0
856.0
854.0
857.0
857.0
859.0
861.0
864.0
866.0
865.0
871.0
868.0
869.0
868.0
868.0
867.0
866.0
865.0
866.0
868.0
872.0
874.0
873.0
874.0
869.0
868.0
866.0
858.0
861.0
863.0
860.0
862.0
863.0
865.0
868.0
867.0
865.0
861.0
856.0
854.0
856.0
856.0
853.0
852.0
853.0
856.0
858.0
859.0
859.0
855.0
853.0
854.0
853.0
850.0
850.0
852.0
853.0
856.0
857.0
857.0
855.0
856.0
851.0
854.0
853.0
852.0
850.0
855.0
856.0
859.0
862.0
863.0
862.0
862.0
854.0
853.0
851.0
847.0
848.0
851.0
856.0
858.0
860.0
863.0
860.0
857.0
856.0
855.0
851.0
850.0
850.0
849.0
854.0
857.0
859.0
865.0
866.0
867.0
868.0
868.0
870.0
869.0
870.0
870.0
875.0
875.0
881.0
886.0
892.0
896.0
900.0
897.0
897.0
894.0
891.0
887.0
883.0
881.0
877.0
880.0
884.0
889.0
888.0
893.0
895.0
891.0
886.0
879.0
872.0
864.0
860.0
857.0
855.0
851.0
849.0
843.0
842.0
837.0
835.0
836.0
838.0
837.0
840.0
837.0
833.0
835.0
831.0
829.0
829.0
828.0
828.0
826.0
831.0
834.0
836.0
837.0
836.0
833.0
833.0
828.0
827.0
827.0
826.0
823.0
831.0
831.0
833.0
835.0
831.0
824.0
826.0
819.0
816.0
821.0
831.0
852.0
881.0
916.0
942.0
965.0
979.0
975.0
969.0
967.0
974.0
1004.0
1043.0
1091.0
1126.0
1132.0
1103.0
1040.0
944.0
841.0
745.0
681.0
640.0
618.0
608.0
599.0
589.0
583.0
576.0
575.0
574.0
571.0
573.0
569.0
568.0
573.0
580.0
588.0
607.0
634.0
661.0
696.0
728.0
752.0
771.0
781.0
791.0
794.0
798.0
799.0
805.0
809.0
812.0
812.0
816.0
814.0
815.0
813.0
812.0
808.0
812.0
810.0
814.0
808.0
810.0
811.0
805.0
807.0
804.0
802.0
798.0
798.0
796.0
794.0
796.0
798.0
795.0
794.0
792.0
787.0
782.0
782.0
778.0
776.0
768.0
770.0
769.0
769.0
770.0
764.0
762.0
764.0
762.0
759.0
756.0
751.0
750.0
752.0
756.0
759.0
760.0
760.0
760.0
761.0
760.0
758.0
762.0
766.0
769.0
771.0
773.0
782.0
788.0
794.0
796.0
799.0
800.0
799.0
803.0
806.0
810.0
809.0
814.0
818.0
821.0
825.0
828.0
829.0
828.0
828.0
828.0
826.0
830.0
829.0
832.0
834.0
836.0
835.0
833.0
835.0
831.0
832.0
830.0
829.0
831.0
831.0
832.0
835.0
834.0
834.0
832.0
832.0
829.0
824.0
822.0
824.0
823.0
824.0
827.0
829.0
831.0
833.0
831.0
826.0
826.0
826.0
819.0
818.0
820.0
819.0
822.0
818.0
820.0
819.0
818.0
823.0
818.0
820.0
817.0
820.0
820.0
823.0
825.0
826.0
827.0
823.0
822.0
821.0
822.0
824.0
823.0
824.0
824.0
822.0
826.0
828.0
825.0
828.0
827.0
826.0
825.0
824.0
823.0
823.0
823.0
823.0
826.0
826.0
828.0
828.0
827.0
829.0
828.0
828.0
825.0
823.0
824.0
824.0
828.0
832.0
836.0
839.0
838.0
839.0
841.0
839.0
843.0
843.0
841.0
846.0
849.0
854.0
857.0
864.0
870.0
874.0
876.0
878.0
873.0
869.0
861.0
856.0
852.0
850.0
852.0
856.0
863.0
869.0
873.0
876.0
873.0
864.0
858.0
852.0
844.0
839.0
838.0
832.0
830.0
827.0
825.0
818.0
811.0
814.0
813.0
814.0
813.0
814.0
817.0
815.0
814.0
813.0
809.0
809.0
807.0
808.0
808.0
809.0
809.0
811.0
809.0
811.0
811.0
813.0
810.0
809.0
810.0
808.0
805.0
808.0
807.0
807.0
811.0
808.0
806.0
804.0
803.0
807.0
820.0
845.0
875.0
906.0
934.0
954.0
961.0
958.0
954.0
959.0
982.0
1020.0
1063.0
1096.0
1106.0
1076.0
1009.0
906.0
802.0
711.0
649.0
614.0
593.0
585.0
578.0
572.0
561.0
555.0
552.0
556.0
558.0
561.0
564.0
566.0
574.0
582.0
593.0
610.0
637.0
670.0
704.0
735.0
760.0
776.0
786.0
790.0
792.0
791.0
792.0
793.0
792.0
796.0
798.0
802.0
804.0
806.0
810.0
808.0
806.0
806.0
803.0
803.0
803.0
804.0
802.0
804.0
801.0
802.0
801.0
800.0
794.0
792.0
790.0
786.0
784.0
783.0
785.0
783.0
782.0
782.0
780.0
778.0
773.0
769.0
767.0
764.0
764.0
762.0
762.0
763.0
764.0
765.0
761.0
759.0
760.0
753.0
754.0
751.0
752.0
752.0
754.0
760.0
762.0
763.0
764.0
766.0
771.0
769.0
772.0
778.0
780.0
787.0
788.0
793.0
799.0
806.0
807.0
812.0
814.0
815.0
815.0
814.0
817.0
820.0
820.0
826.0
832.0
832.0
834.0
835.0
834.0
832.0
834.0
830.0
830.0
831.0
833.0
839.0
839.0
839.0
840.0
838.0
835.0
832.0
831.0
828.0
829.0
830.0
832.0
836.0
836.0
836.0
835.0
833.0
828.0
831.0
830.0
826.0
826.0
829.0
829.0
832.0
832.0
828.0
829.0
828.0
826.0
825.0
826.0
824.0
824.0
826.0
825.0
828.0
828.0
828.0
829.0
826.0
826.0
825.0
828.0
823.0
822.0
822.0
825.0
828.0
827.0
831.0
833.0
830.0
831.0
827.0
825.0
828.0
825.0
829.0
829.0
830.0
834.0
837.0
836.0
836.0
834.0
829.0
827.0
827.0
826.0
829.0
832.0
833.0
835.0
837.0
836.0
838.0
835.0
832.0
830.0
829.0
826.0
828.0
830.0
832.0
833.0
832.0
839.0
840.0
842.0
842.0
844.0
848.0
850.0
850.0
854.0
857.0
862.0
862.0
868.0
870.0
874.0
879.0
882.0
878.0
878.0
874.0
872.0
871.0
868.0
864.0
866.0
866.0
864.0
867.0
871.0
873.0
878.0
879.0
876.0
875.0
867.0
863.0
857.0
851.0
845.0
839.0
832.0
832.0
831.0
826.0
828.0
828.0
829.0
827.0
824.0
824.0
824.0
820.0
823.0
821.0
820.0
820.0
821.0
823.0
822.0
822.0
819.0
820.0
819.0
818.0
817.0
815.0
816.0
817.0
817.0
820.0
822.0
823.0
822.0
823.0
821.0
819.0
818.0
817.0
816.0
814.0
824.0
833.0
852.0
884.0
914.0
945.0
972.0
984.0
989.0
982.0
979.0
981.0
997.0
1023.0
1060.0
1093.0
1109.0
1106.0
1057.0
972.0
864.0
757.0
673.0
618.0
591.0
579.0
574.0
571.0
568.0
561.0
558.0
557.0
558.0
559.0
557.0
565.0
575.0
590.0
600.0
626.0
660.0
688.0
717.0
740.0
757.0
