# Simple Text Format
# Sampling Rate (Hz):= 360.00
# Resolution:= 12
# Labels:= ECG
1168.0
1188.0
1179.0
1124.0
1034.0
923.0
816.0
735.0
680.0
651.0
636.0
624.0
611.0
595.0
577.0
567.0
564.0
558.0
560.0
564.0
567.0
571.0
576.0
585.0
599.0
622.0
649.0
684.0
716.0
747.0
772.0
790.0
802.0
808.0
812.0
817.0
818.0
821.0
820.0
822.0
824.0
823.0
818.0
819.0
824.0
826.0
827.0
827.0
828.0
828.0
824.0
821.0
819.0
817.0
819.0
815.0
816.0
815.0
818.0
816.0
813.0
813.0
806.0
805.0
800.0
797.0
794.0
791.0
792.0
792.0
793.0
792.0
790.0
787.0
786.0
778.0
773.0
770.0
769.0
772.0
770.0
772.0
772.0
775.0
775.0
778.0
776.0
773.0
770.0
769.0
770.0
770.0
772.0
780.0
782.0
783.0
787.0
792.0
794.0
796.0
799.0
805.0
808.0
815.0
819.0
828.0
831.0
838.0
839.0
839.0
840.0
843.0
840.0
840.0
845.0
846.0
852.0
853.0
857.0
857.0
857.0
859.0
858.0
859.0
857.0
859.0
856.0
855.0
856.0
854.0
855.0
855.0
856.0
860.0
859.0
856.0
855.0
853.0
849.0
852.0
855.0
857.0
859.0
861.0
856.0
856.0
854.0
852.0
851.0
850.0
852.0
850.0
850.0
849.0
854.0
856.0
855.0
852.0
848.0
848.0
845.0
847.0
845.0
848.0
848.0
848.0
850.0
852.0
851.0
854.0
851.0
853.0
853.0
850.0
845.0
846.0
854.0
853.0
856.0
861.0
860.0
858.0
857.0
854.0
853.0
854.0
853.0
855.0
855.0
858.0
858.0
863.0
858.0
856.0
854.0
851.0
851.0
855.0
854.0
855.0
858.0
861.0
861.0
867.0
865.0
864.0
863.0
863.0
860.0
859.0
859.0
864.0
869.0
874.0
878.0
881.0
885.0
885.0
888.0
887.0
888.0
888.0
888.0
893.0
902.0
909.0
913.0
918.0
919.0
909.0
908.0
904.0
897.0
892.0
887.0
888.0
890.0
898.0
907.0
917.0
919.0
916.0
910.0
899.0
887.0
874.0
870.0
864.0
866.0
864.0
865.0
865.0
861.0
860.0
857.0
849.0
846.0
846.0
844.0
844.0
846.0
850.0
853.0
854.0
851.0
852.0
848.0
847.0
845.0
845.0
841.0
844.0
845.0
846.0
847.0
852.0
855.0
854.0
853.0
853.0
848.0
845.0
844.0
841.0
841.0
846.0
847.0
854.0
869.0
895.0
926.0
960.0
990.0
1013.0
1022.0
1021.0
1019.0
1028.0
1058.0
1105.0
1151.0
1187.0
1196.0
1166.0
1089.0
990.0
876.0
782.0
712.0
669.0
643.0
627.0
614.0
602.0
590.0
583.0
582.0
586.0
585.0
583.0
585.0
590.0
601.0
619.0
637.0
664.0
699.0
730.0
756.0
776.0
796.0
805.0
815.0
820.0
824.0
830.0
834.0
833.0
833.0
833.0
831.0
830.0
830.0
832.0
834.0
839.0
844.0
846.0
843.0
841.0
839.0
833.0
833.0
829.0
828.0
824.0
823.0
822.0
825.0
822.0
819.0
821.0
818.0
814.0
808.0
809.0
804.0
807.0
802.0
799.0
801.0
798.0
797.0
796.0
794.0
790.0
788.0
788.0
786.0
786.0
789.0
789.0
791.0
791.0
790.0
787.0
784.0
785.0
783.0
781.0
781.0
784.0
788.0
794.0
795.0
803.0
803.0
807.0
811.0
813.0
815.0
817.0
822.0
829.0
834.0
840.0
842.0
846.0
850.0
856.0
850.0
852.0
853.0
855.0
853.0
856.0
859.0
862.0
866.0
872.0
873.0
870.0
870.0
867.0
865.0
866.0
864.0
866.0
867.0
872.0
873.0
877.0
876.0
878.0
876.0
874.0
875.0
872.0
868.0
867.0
869.0
871.0
870.0
869.0
873.0
870.0
868.0
864.0
863.0
864.0
863.0
865.0
864.0
867.0
866.0
870.0
869.0
864.0
864.0
861.0
860.0
859.0
859.0
860.0
864.0
865.0
865.0
862.0
866.0
863.0
864.0
866.0
863.0
865.0
861.0
860.0
859.0
859.0
865.0
867.0
864.0
864.0
862.0
858.0
858.0
860.0
858.0
861.0
861.0
863.0
867.0
867.0
864.0
861.0
859.0
859.0
859.0
859.0
859.0
860.0
867.0
870.0
869.0
872.0
867.0
867.0
866.0
860.0
861.0
861.0
861.0
862.0
863.0
865.0
869.0
872.0
877.0
878.0
881.0
881.0
881.0
883.0
883.0
885.0
885.0
889.0
888.0
891.0
896.0
899.0
900.0
904.0
911.0
914.0
916.0
920.0
923.0
920.0
912.0
908.0
898.0
892.0
892.0
898.0
901.0
905.0
914.0
918.0
920.0
919.0
912.0
904.0
897.0
889.0
883.0
879.0
874.0
870.0
865.0
863.0
862.0
859.0
859.0
858.0
858.0
856.0
862.0
857.0
855.0
852.0
856.0
857.0
857.0
861.0
860.0
860.0
859.0
860.0
856.0
856.0
854.0
855.0
855.0
857.0
861.0
861.0
864.0
863.0
863.0
861.0
858.0
858.0
853.0
852.0
848.0
849.0
850.0
844.0
851.0
862.0
879.0
903.0
938.0
969.0
1003.0
1027.0
1037.0
1038.0
1036.0
1043.0
1068.0
1112.0
1160.0
1195.0
1201.0
1161.0
1073.0
953.0
831.0
733.0
667.0
629.0
616.0
611.0
604.0
595.0
592.0
589.0
581.0
579.0
575.0
572.0
579.0
584.0
593.0
610.0
626.0
651.0
683.0
720.0
749.0
774.0
795.0
807.0
817.0
824.0
831.0
837.0
841.0
846.0
848.0
851.0
849.0
847.0
845.0
846.0
850.0
853.0
853.0
856.0
856.0
854.0
853.0
850.0
845.0
837.0
833.0
831.0
836.0
839.0
841.0
842.0
840.0
835.0
825.0
819.0
815.0
810.0
809.0
811.0
809.0
806.0
803.0
799.0
795.0
800.0
806.0
812.0
812.0
809.0
798.0
797.0
790.0
788.0
787.0
790.0
794.0
798.0
795.0
796.0
800.0
799.0
796.0
800.0
807.0
810.0
813.0
815.0
816.0
820.0
821.0
826.0
832.0
837.0
839.0
842.0
847.0
850.0
852.0
858.0
858.0
861.0
864.0
864.0
864.0
864.0
861.0
858.0
860.0
868.0
880.0
898.0
904.0
904.0
893.0
877.0
867.0
865.0
868.0
875.0
882.0
881.0
876.0
875.0
872.0
872.0
877.0
879.0
874.0
877.0
874.0
876.0
878.0
878.0
876.0
880.0
878.0
878.0
874.0
866.0
860.0
861.0
868.0
878.0
883.0
881.0
876.0
875.0
876.0
878.0
873.0
870.0
868.0
867.0
864.0
866.0
868.0
869.0
872.0
876.0
876.0
874.0
870.0
872.0
873.0
870.0
864.0
864.0
865.0
869.0
873.0
876.0
873.0
875.0
873.0
873.0
874.0
873.0
871.0
870.0
868.0
868.0
869.0
875.0
874.0
873.0
873.0
870.0
866.0
866.0
868.0
870.0
869.0
874.0
873.0
878.0
877.0
876.0
874.0
874.0
876.0
877.0
874.0
872.0
871.0
873.0
873.0
874.0
876.0
877.0
877.0
875.0
876.0
877.0
875.0
878.0
885.0
889.0
894.0
897.0
895.0
895.0
894.0
896.0
900.0
907.0
914.0
921.0
925.0
924.0
920.0
922.0
918.0
916.0
903.0
897.0
896.0
900.0
904.0
909.0
918.0
925.0
929.0
928.0
922.0
918.0
909.0
899.0
893.0
890.0
879.0
879.0
873.0
869.0
866.0
872.0
869.0
867.0
864.0
863.0
863.0
864.0
861.0
860.0
861.0
861.0
859.0
859.0
859.0
862.0
862.0
862.0
856.0
854.0
853.0
848.0
847.0
846.0
848.0
854.0
861.0
862.0
860.0
861.0
863.0
863.0
862.0
858.0
847.0
849.0
860.0
883.0
912.0
946.0
988.0
1029.0
1063.0
1083.0
1082.0
1077.0
1076.0
1085.0
1109.0
1143.0
1179.0
1199.0
1200.0
1169.0
1100.0
1005.0
901.0
805.0
736.0
692.0
666.0
649.0
629.0
614.0
602.0
591.0
584.0
576.0
572.0
567.0
567.0
572.0
577.0
591.0
601.0
615.0
632.0
654.0
679.0
708.0
737.0
765.0
796.0
814.0
824.0
828.0
829.0
823.0
819.0
820.0
823.0
834.0
835.0
837.0
840.0
844.0
840.0
838.0
840.0
843.0
845.0
842.0
833.0
829.0
831.0
830.0
835.0
838.0
836.0
832.0
830.0
826.0
824.0
818.0
816.0
815.0
808.0
804.0
804.0
803.0
799.0
802.0
800.0
797.0
794.0
792.0
788.0
782.0
781.0
784.0
786.0
786.0
786.0
784.0
783.0
781.0
782.0
785.0
785.0
780.0
777.0
779.0
783.0
793.0
800.0
805.0
803.0
803.0
804.0
799.0
803.0
806.0
806.0
807.0
812.0
817.0
824.0
831.0
834.0
842.0
842.0
844.0
842.0
848.0
852.0
857.0
857.0
862.0
865.0
868.0
868.0
871.0
873.0
872.0
873.0
873.0
876.0
876.0
875.0
873.0
870.0
870.0
876.0
876.0
878.0
873.0
870.0
867.0
866.0
871.0
873.0
876.0
879.0
879.0
879.0
880.0
875.0
871.0
865.0
864.0
861.0
859.0
861.0
866.0
871.0
873.0
871.0
866.0
867.0
865.0
867.0
861.0
857.0
855.0
854.0
862.0
866.0
867.0
868.0
865.0
865.0
862.0
858.0
856.0
856.0
857.0
865.0
864.0
864.0
869.0
867.0
865.0
866.0
864.0
862.0
857.0
849.0
851.0
855.0
859.0
870.0
876.0
878.0
875.0
873.0
872.0
869.0
866.0
865.0
860.0
864.0
868.0
870.0
874.0
876.0
873.0
874.0
867.0
867.0
867.0
870.0
871.0
878.0
875.0
878.0
883.0
886.0
888.0
890.0
885.0
886.0
884.0
886.0
895.0
904.0
910.0
914.0
916.0
920.0
922.0
926.0
927.0
920.0
908.0
897.0
890.0
890.0
896.0
902.0
908.0
913.0
916.0
917.0
914.0
911.0
909.0
903.0
899.0
894.0
886.0
882.0
880.0
881.0
877.0
871.0
870.0
866.0
863.0
859.0
859.0
861.0
861.0
862.0
862.0
862.0
860.0
857.0
860.0
858.0
860.0
858.0
860.0
859.0
863.0
861.0
866.0
864.0
865.0
860.0
858.0
856.0
858.0
861.0
857.0
855.0
850.0
847.0
855.0
863.0
886.0
915.0
951.0
986.0
1016.0
1031.0
1036.0
1042.0
1049.0
1073.0
1111.0
1157.0
1191.0
1199.0
1163.0
1084.0
973.0
859.0
765.0
702.0
661.0
647.0
636.0
625.0
611.0
602.0
598.0
592.0
590.0
587.0
584.0
587.0
594.0
607.0
624.0
652.0
683.0
722.0
756.0
785.0
803.0
818.0
825.0
829.0
831.0
835.0
836.0
840.0
838.0
840.0
841.0
844.0
849.0
851.0
849.0
849.0
845.0
845.0
844.0
846.0
847.0
847.0
844.0
839.0
832.0
825.0
823.0
818.0
817.0
817.0
823.0
828.0
829.0
828.0
822.0
814.0
807.0
798.0
798.0
797.0
802.0
806.0
802.0
799.0
799.0
795.0
791.0
788.0
783.0
782.0
780.0
786.0
786.0
791.0
794.0
797.0
798.0
795.0
791.0
792.0
792.0
796.0
799.0
800.0
808.0
806.0
813.0
819.0
826.0
835.0
846.0
847.0
843.0
838.0
832.0
832.0
846.0
857.0
873.0
880.0
880.0
880.0
875.0
872.0
872.0
871.0
877.0
878.0
882.0
881.0
880.0
880.0
881.0
880.0
880.0
879.0
879.0
881.0
877.0
880.0
883.0
882.0
878.0
876.0
872.0
872.0
868.0
872.0
874.0
880.0
881.0
882.0
878.0
872.0
869.0
871.0
872.0
874.0
873.0
873.0
873.0
873.0
869.0
865.0
867.0
865.0
868.0
871.0
871.0
869.0
870.0
871.0
870.0
868.0
872.0
868.0
868.0
871.0
875.0
874.0
874.0
873.0
872.0
873.0
867.0
865.0
869.0
871.0
877.0
881.0
882.0
883.0
880.0
878.0
876.0
869.0
863.0
862.0
861.0
864.0
875.0
877.0
882.0
880.0
879.0
879.0
875.0
877.0
871.0
875.0
875.0
873.0
876.0
880.0
881.0
880.0
882.0
882.0
882.0
880.0
880.0
879.0
880.0
881.0
883.0
887.0
893.0
898.0
904.0
904.0
902.0
895.0
897.0
893.0
897.0
903.0
906.0
912.0
918.0
922.0
930.0
932.0
930.0
928.0
921.0
917.0
912.0
910.0
910.0
908.0
908.0
911.0
918.0
921.0
922.0
924.0
920.0
912.0
905.0
898.0
890.0
886.0
883.0
882.0
877.0
875.0
870.0
863.0
867.0
863.0
861.0
863.0
861.0
864.0
868.0
869.0
870.0
867.0
866.0
861.0
856.0
855.0
850.0
853.0
855.0
860.0
862.0
863.0
862.0
860.0
860.0
859.0
861.0
858.0
858.0
858.0
861.0
864.0
863.0
860.0
849.0
848.0
849.0
857.0
874.0
901.0
932.0
969.0
1005.0
1029.0
1041.0
1040.0
1039.0
1045.0
1070.0
1103.0
1149.0
1193.0
1216.0
1209.0
1169.0
1091.0
992.0
888.0
796.0
730.0
691.0
665.0
646.0
628.0
614.0
599.0
591.0
582.0
576.0
579.0
584.0
581.0
579.0
581.0
580.0
587.0
599.0
620.0
650.0
687.0
722.0
756.0
784.0
805.0
821.0
827.0
829.0
829.0
831.0
833.0
841.0
843.0
845.0
847.0
845.0
844.0
843.0
839.0
839.0
839.0
841.0
841.0
843.0
846.0
845.0
836.0
832.0
832.0
832.0
835.0
836.0
834.0
830.0
825.0
822.0
818.0
816.0
815.0
814.0
815.0
810.0
805.0
803.0
797.0
793.0
790.0
792.0
792.0
795.0
797.0
796.0
793.0
789.0
788.0
786.0
788.0
785.0
787.0
785.0
788.0
792.0
796.0
801.0
802.0
801.0
804.0
804.0
805.0
808.0
813.0
820.0
826.0
831.0
834.0
837.0
838.0
845.0
851.0
853.0
858.0
861.0
860.0
867.0
869.0
866.0
864.0
865.0
866.0
869.0
871.0
873.0
871.0
876.0
881.0
882.0
884.0
889.0
886.0
880.0
877.0
873.0
877.0
879.0
880.0
882.0
880.0
875.0
877.0
877.0
878.0
882.0
883.0
881.0
876.0
872.0
873.0
866.0
860.0
859.0
859.0
866.0
875.0
884.0
885.0
881.0
871.0
862.0
858.0
860.0
865.0
870.0
875.0
876.0
876.0
874.0
873.0
870.0
866.0
864.0
862.0
862.0
866.0
867.0
870.0
873.0
871.0
871.0
875.0
876.0
876.0
874.0
874.0
873.0
874.0
872.0
869.0
871.0
873.0
873.0
875.0
876.0
875.0
876.0
874.0
874.0
878.0
879.0
881.0
885.0
884.0
882.0
881.0
880.0
882.0
877.0
876.0
882.0
883.0
885.0
886.0
887.0
886.0
884.0
883.0
882.0
880.0
880.0
881.0
880.0
884.0
888.0
893.0
898.0
899.0
903.0
909.0
903.0
905.0
906.0
905.0
912.0
914.0
924.0
931.0
938.0
940.0
940.0
935.0
932.0
924.0
919.0
916.0
912.0
914.0
916.0
922.0
927.0
932.0
935.0
932.0
926.0
919.0
904.0
899.0
891.0
889.0
889.0
888.0
887.0
883.0
881.0
875.0
870.0
867.0
863.0
865.0
864.0
868.0
868.0
873.0
873.0
875.0
873.0
872.0
873.0
870.0
865.0
861.0
862.0
861.0
865.0
868.0
870.0
872.0
874.0
872.0
870.0
869.0
869.0
869.0
865.0
866.0
864.0
865.0
858.0
861.0
870.0
887.0
913.0
943.0
976.0
1007.0
1030.0
1042.0
1043.0
1044.0
1052.0
1080.0
1122.0
1165.0
1204.0
1215.0
1186.0
1116.0
1013.0
900.0
799.0
723.0
678.0
654.0
635.0
623.0
608.0
599.0
594.0
588.0
588.0
584.0
584.0
588.0
591.0
598.0
610.0
624.0
643.0
673.0
702.0
731.0
763.0
789.0
810.0
826.0
834.0
840.0
839.0
839.0
840.0
844.0
846.0
848.0
851.0
855.0
856.0
857.0
861.0
860.0
860.0
859.0
857.0
854.0
851.0
849.0
846.0
848.0
849.0
846.0
847.0
850.0
849.0
845.0
839.0
837.0
833.0
833.0
828.0
826.0
827.0
825.0
822.0
817.0
816.0
816.0
811.0
808.0
803.0
798.0
797.0
797.0
800.0
799.0
800.0
801.0
800.0
798.0
795.0
794.0
792.0
791.0
792.0
793.0
795.0
799.0
806.0
809.0
813.0
817.0
817.0
818.0
818.0
824.0
830.0
834.0
841.0
844.0
851.0
854.0
859.0
861.0
863.0
863.0
865.0
869.0
868.0
871.0
873.0
877.0
879.0
879.0
882.0
882.0
883.0
880.0
884.0
881.0
884.0
888.0
889.0
890.0
888.0
891.0
886.0
889.0
888.0
886.0
885.0
882.0
882.0
883.0
884.0
886.0
887.0
889.0
887.0
887.0
885.0
884.0
883.0
882.0
881.0
880.0
880.0
883.0
881.0
879.0
878.0
878.0
877.0
872.0
875.0
875.0
874.0
874.0
876.0
878.0
876.0
878.0
877.0
878.0
875.0
876.0
873.0
875.0
872.0
872.0
875.0
878.0
879.0
883.0
882.0
883.0
882.0
882.0
876.0
876.0
879.0
875.0
874.0
880.0
881.0
885.0
886.0
887.0
888.0
882.0
879.0
880.0
880.0
880.0
883.0
883.0
882.0
883.0
884.0
887.0
887.0
886.0
882.0
883.0
883.0
882.0
886.0
886.0
886.0
889.0
886.0
885.0
885.0
886.0
885.0
885.0
890.0
891.0
900.0
899.0
902.0
908.0
906.0
909.0
914.0
912.0
912.0
910.0
916.0
925.0
934.0
938.0
941.0
941.0
936.0
930.0
921.0
918.0
914.0
915.0
917.0
922.0
930.0
933.0
938.0
937.0
930.0
921.0
909.0
900.0
893.0
887.0
888.0
885.0
884.0
883.0
880.0
876.0
874.0
870.0
871.0
869.0
867.0
866.0
870.0
871.0
873.0
874.0
875.0
878.0
877.0
875.0
871.0
870.0
864.0
865.0
866.0
863.0
869.0
870.0
871.0
874.0
875.0
876.0
878.0
872.0
870.0
869.0
864.0
861.0
863.0
868.0
883.0
906.0
936.0
975.0
1009.0
1035.0
1043.0
1044.0
1043.0
1052.0
1080.0
1124.0
1166.0
1202.0
1203.0
1153.0
1061.0
945.0
828.0
738.0
685.0
654.0
637.0
628.0
622.0
612.0
601.0
596.0
590.0
589.0
585.0
588.0
592.0
596.0
604.0
616.0
635.0
659.0
692.0
724.0
760.0
785.0
811.0
825.0
832.0
842.0
844.0
846.0
850.0
853.0
859.0
861.0
859.0
860.0
859.0
856.0
857.0
857.0
860.0
861.0
862.0
858.0
859.0
857.0
850.0
850.0
847.0
845.0
842.0
838.0
843.0
843.0
846.0
843.0
841.0
836.0
826.0
827.0
823.0
822.0
821.0
817.0
815.0
814.0
814.0
811.0
809.0
810.0
810.0
805.0
802.0
799.0
799.0
799.0
798.0
799.0
802.0
803.0
802.0
805.0
807.0
805.0
808.0
809.0
812.0
815.0
820.0
826.0
827.0
836.0
837.0
841.0
844.0
843.0
844.0
850.0
850.0
860.0
863.0
865.0
868.0
874.0
875.0
874.0
878.0
880.0
878.0
872.0
879.0
882.0
883.0
885.0
888.0
889.0
890.0
889.0
889.0
888.0
883.0
885.0
883.0
885.0
885.0
885.0
888.0
890.0
887.0
887.0
886.0
882.0
883.0
882.0
881.0
882.0
881.0
883.0
883.0
881.0
879.0
877.0
876.0
874.0
872.0
867.0
870.0
870.0
870.0
870.0
875.0
877.0
875.0
876.0
876.0
874.0
874.0
869.0
872.0
868.0
871.0
874.0
873.0
875.0
875.0
877.0
874.0
875.0
875.0
873.0
872.0
874.0
877.0
878.0
877.0
877.0
873.0
875.0
871.0
873.0
872.0
869.0
869.0
870.0
872.0
878.0
881.0
880.0
882.0
882.0
883.0
880.0
878.0
877.0
874.0
875.0
876.0
878.0
879.0
884.0
882.0
882.0
881.0
879.0
877.0
881.0
877.0
877.0
883.0
880.0
885.0
886.0
883.0
885.0
886.0
884.0
886.0
891.0
891.0
898.0
903.0
906.0
908.0
910.0
910.0
911.0
908.0
910.0
915.0
921.0
927.0
931.0
933.0
933.0
932.0
931.0
925.0
921.0
914.0
911.0
909.0
909.0
914.0
918.0
926.0
933.0
937.0
937.0
928.0
920.0
906.0
898.0
893.0
891.0
887.0
886.0
884.0
880.0
877.0
878.0
875.0
872.0
870.0
868.0
862.0
864.0
863.0
862.0
865.0
869.0
870.0
871.0
867.0
864.0
868.0
866.0
864.0
864.0
864.0
865.0
863.0
858.0
862.0
862.0
867.0
866.0
864.0
864.0
864.0
861.0
859.0
859.0
856.0
854.0
848.0
853.0
866.0
881.0
902.0
936.0
971.0
1001.0
1024.0
1034.0
1031.0
1027.0
1030.0
1050.0
1082.0
1128.0
1169.0
1192.0
1194.0
1149.0
1063.0
953.0
848.0
758.0
701.0
660.0
641.0
627.0
616.0
602.0
591.0
583.0
578.0
577.0
577.0
581.0
582.0
589.0
596.0
604.0
616.0
636.0
657.0
686.0
719.0
750.0
775.0
795.0
811.0
820.0
828.0
828.0
832.0
833.0
838.0
841.0
844.0
844.0
848.0
853.0
854.0
857.0
856.0
857.0
856.0
853.0
849.0
845.0
840.0
843.0
843.0
845.0
844.0
845.0
845.0
843.0
840.0
836.0
831.0
827.0
823.0
824.0
822.0
823.0
819.0
819.0
814.0
810.0
810.0
805.0
802.0
800.0
798.0
799.0
798.0
799.0
802.0
800.0
800.0
798.0
796.0
790.0
788.0
788.0
785.0
785.0
788.0
789.0
794.0
800.0
802.0
808.0
809.0
809.0
808.0
814.0
816.0
819.0
823.0
832.0
836.0
843.0
849.0
850.0
853.0
856.0
855.0
857.0
859.0
864.0
867.0
871.0
873.0
875.0
874.0
873.0
875.0
874.0
873.0
872.0
877.0
880.0
882.0
884.0
882.0
884.0
883.0
883.0
881.0
877.0
874.0
874.0
873.0
876.0
881.0
880.0
880.0
881.0
880.0
879.0
878.0
875.0
874.0
872.0
874.0
873.0
871.0
869.0
869.0
870.0
873.0
871.0
871.0
868.0
869.0
869.0
866.0
864.0
867.0
867.0
867.0
869.0
869.0
869.0
870.0
868.0
869.0
868.0
869.0
869.0
871.0
873.0
874.0
878.0
877.0
879.0
876.0
873.0
872.0
869.0
870.0
870.0
871.0
871.0
875.0
878.0
878.0
879.0
878.0
876.0
874.0
873.0
876.0
876.0
875.0
878.0
876.0
880.0
878.0
877.0
878.0
877.0
875.0
876.0
879.0
878.0
880.0
879.0
880.0
880.0
882.0
877.0
878.0
875.0
870.0
870.0
871.0
874.0
880.0
882.0
886.0
891.0
891.0
890.0
890.0
892.0
896.0
894.0
894.0
896.0
902.0
904.0
905.0
912.0
916.0
923.0
928.0
935.0
934.0
935.0
926.0
928.0
921.0
916.0
909.0
906.0
907.0
916.0
922.0
929.0
931.0
931.0
931.0
926.0
919.0
911.0
901.0
899.0
892.0
886.0
883.0
880.0
872.0
873.0
867.0
865.0
866.0
867.0
866.0
863.0
866.0
867.0
867.0
864.0
864.0
861.0
860.0
860.0
861.0
864.0
866.0
866.0
865.0
866.0
863.0
863.0
862.0
863.0
854.0
859.0
864.0
863.0
868.0
871.0
866.0
863.0
857.0
853.0
854.0
861.0
878.0
902.0
934.0
969.0
1002.0
1029.0
1036.0
1030.0
1030.0
1033.0
1052.0
1090.0
1132.0
1173.0
1194.0
1178.0
1123.0
1031.0
913.0
804.0
722.0
671.0
637.0
622.0
612.0
605.0
596.0
591.0
584.0
584.0
580.0
584.0
582.0
582.0
589.0
598.0
607.0
631.0
662.0
697.0
733.0
767.0
795.0
816.0
823.0
831.0
832.0
834.0
836.0
842.0
846.0
852.0
855.0
860.0
857.0
856.0
853.0
852.0
850.0
851.0
848.0
849.0
851.0
853.0
852.0
853.0
851.0
848.0
844.0
843.0
842.0
840.0
837.0
836.0
838.0
837.0
836.0
835.0
830.0
828.0
822.0
819.0
815.0
812.0
812.0
811.0
811.0
815.0
813.0
813.0
806.0
804.0
802.0
796.0
793.0
795.0
796.0
797.0
802.0
801.0
803.0
805.0
804.0
802.0
800.0
800.0
801.0
803.0
804.0
811.0
815.0
822.0
826.0
834.0
841.0
845.0
849.0
851.0
851.0
854.0
857.0
860.0
865.0
869.0
873.0
877.0
877.0
878.0
880.0
880.0
882.0
881.0
880.0
879.0
887.0
889.0
888.0
887.0
888.0
887.0
886.0
886.0
886.0
884.0
885.0
884.0
886.0
886.0
887.0
887.0
886.0
889.0
888.0
885.0
884.0
883.0
880.0
877.0
879.0
879.0
880.0
882.0
883.0
876.0
880.0
877.0
874.0
871.0
873.0
870.0
872.0
872.0
875.0
877.0
875.0
872.0
875.0
872.0
873.0
869.0
869.0
867.0
871.0
874.0
876.0
879.0
876.0
875.0
870.0
870.0
869.0
871.0
866.0
869.0
871.0
876.0
878.0
881.0
882.0
881.0
880.0
876.0
874.0
874.0
874.0
871.0
875.0
878.0
880.0
882.0
882.0
881.0
882.0
881.0
879.0
876.0
877.0
877.0
879.0
881.0
882.0
883.0
881.0
884.0
882.0
880.0
877.0
874.0
874.0
874.0
879.0
881.0
882.0
884.0
882.0
882.0
885.0
886.0
888.0
891.0
891.0
894.0
896.0
899.0
904.0
906.0
908.0
907.0
912.0
910.0
912.0
921.0
925.0
931.0
930.0
929.0
927.0
920.0
917.0
910.0
908.0
908.0
914.0
918.0
921.0
925.0
926.0
923.0
914.0
911.0
900.0
895.0
889.0
885.0
883.0
880.0
875.0
867.0
867.0
867.0
867.0
869.0
869.0
863.0
862.0
864.0
865.0
866.0
861.0
860.0
862.0
863.0
865.0
868.0
869.0
869.0
868.0
863.0
861.0
862.0
858.0
859.0
860.0
864.0
864.0
869.0
867.0
868.0
866.0
867.0
860.0
857.0
851.0
857.0
872.0
895.0
925.0
965.0
998.0
1024.0
1033.0
1032.0
1029.0
1037.0
1054.0
1091.0
1137.0
1183.0
1198.0
1174.0
1098.0
989.0
867.0
764.0
690.0
648.0
625.0
616.0
609.0
603.0
595.0
586.0
583.0
583.0
578.0
574.0
575.0
576.0
586.0
595.0
611.0
632.0
662.0
692.0
723.0
753.0
780.0
800.0
817.0
820.0
826.0
832.0
837.0
841.0
846.0
849.0
847.0
852.0
852.0
851.0
854.0
852.0
853.0
850.0
850.0
851.0
855.0
854.0
853.0
850.0
847.0
843.0
843.0
842.0
839.0
839.0
837.0
839.0
835.0
839.0
833.0
830.0
827.0
822.0
820.0
815.0
813.0
811.0
811.0
810.0
811.0
808.0
805.0
805.0
805.0
801.0
800.0
797.0
794.0
796.0
793.0
793.0
795.0
799.0
798.0
800.0
806.0
804.0
806.0
807.0
809.0
812.0
816.0
822.0
829.0
834.0
836.0
839.0
838.0
841.0
844.0
850.0
853.0
857.0
863.0
864.0
867.0
873.0
873.0
877.0
877.0
875.0
874.0
876.0
876.0
874.0
880.0
882.0
883.0
891.0
890.0
889.0
889.0
888.0
888.0
885.0
882.0
882.0
884.0
887.0
891.0
893.0
890.0
885.0
883.0
881.0
881.0
878.0
881.0
880.0
878.0
880.0
882.0
887.0
882.0
882.0
878.0
879.0
876.0
873.0
871.0
869.0
868.0
873.0
875.0
876.0
879.0
878.0
877.0
875.0
875.0
873.0
867.0
870.0
871.0
874.0
875.0
878.0
882.0
880.0
882.0
880.0
879.0
877.0
876.0
874.0
880.0
879.0
880.0
882.0
880.0
879.0
878.0
877.0
877.0
874.0
875.0
875.0
877.0
879.0
880.0
883.0
883.0
886.0
885.0
882.0
880.0
877.0
877.0
879.0
882.0
882.0
882.0
886.0
885.0
884.0
885.0
880.0
879.0
879.0
879.0
879.0
883.0
884.0
883.0
883.0
884.0
884.0
882.0
884.0
880.0
882.0
880.0
879.0
883.0
891.0
895.0
899.0
902.0
903.0
904.0
903.0
903.0
901.0
903.0
907.0
908.0
915.0
921.0
928.0
932.0
939.0
939.0
937.0
931.0
926.0
922.0
917.0
912.0
910.0
908.0
914.0
913.0
921.0
926.0
933.0
932.0
932.0
925.0
917.0
909.0
902.0
891.0
890.0
884.0
887.0
883.0
882.0
877.0
875.0
869.0
870.0
867.0
866.0
867.0
870.0
871.0
873.0
875.0
871.0
870.0
868.0
864.0
864.0
862.0
860.0
864.0
869.0
867.0
870.0
869.0
866.0
865.0
863.0
864.0
863.0
867.0
870.0
871.0
873.0
869.0
870.0
867.0
861.0
857.0
851.0
848.0
860.0
880.0
903.0
934.0
968.0
1000.0
1028.0
1036.0
1038.0
1032.0
1029.0
1036.0
1063.0
1104.0
1150.0
1189.0
1202.0
1171.0
1096.0
987.0
872.0
775.0
706.0
663.0
644.0
632.0
623.0
611.0
605.0
593.0
590.0
588.0
584.0
582.0
583.0
583.0
584.0
593.0
604.0
620.0
638.0
663.0
687.0
720.0
755.0
774.0
795.0
808.0
820.0
828.0
832.0
838.0
845.0
850.0
852.0
857.0
855.0
856.0
855.0
856.0
856.0
855.0
859.0
859.0
862.0
859.0
858.0
858.0
854.0
851.0
851.0
847.0
844.0
845.0
846.0
844.0
844.0
841.0
840.0
838.0
833.0
829.0
828.0
823.0
820.0
821.0
823.0
822.0
822.0
818.0
818.0
811.0
810.0
808.0
801.0
801.0
799.0
799.0
802.0
803.0
806.0
808.0
809.0
806.0
806.0
806.0
801.0
802.0
811.0
810.0
815.0
816.0
820.0
825.0
829.0
830.0
833.0
836.0
841.0
844.0
850.0
858.0
862.0
863.0
867.0
870.0
871.0
872.0
874.0
876.0
878.0
880.0
882.0
887.0
890.0
891.0
890.0
895.0
897.0
895.0
888.0
887.0
889.0
889.0
890.0
892.0
889.0
894.0
897.0
894.0
898.0
897.0
894.0
890.0
887.0
882.0
887.0
889.0
890.0
891.0
892.0
894.0
891.0
892.0
888.0
888.0
886.0
884.0
884.0
884.0
883.0
885.0
885.0
888.0
886.0
882.0
884.0
881.0
876.0
874.0
876.0
878.0
882.0
885.0
884.0
885.0
887.0
884.0
884.0
886.0
886.0
884.0
883.0
884.0
886.0
884.0
