# Simple Text Format
# Sampling Rate (Hz):= 360.00
# Resolution:= 12
# Labels:= ECG
857.0
857.0
857.0
857.0
857.0
857.0
857.0
861.0
861.0
858.0
856.0
854.0
849.0
847.0
840.0
830.0
822.0
816.0
811.0
805.0
807.0
811.0
810.0
812.0
814.0
812.0
812.0
811.0
811.0
811.0
808.0
808.0
801.0
801.0
805.0
810.0
813.0
813.0
809.0
804.0
804.0
801.0
802.0
802.0
803.0
803.0
802.0
804.0
803.0
806.0
806.0
808.0
811.0
808.0
814.0
817.0
825.0
844.0
873.0
910.0
945.0
969.0
977.0
976.0
978.0
984.0
998.0
1021.0
1046.0
1069.0
1073.0
1055.0
996.0
909.0
808.0
724.0
666.0
640.0
628.0
622.0
614.0
600.0
590.0
590.0
596.0
609.0
612.0
615.0
619.0
627.0
634.0
644.0
664.0
687.0
710.0
735.0
757.0
778.0
789.0
796.0
794.0
790.0
790.0
796.0
805.0
812.0
804.0
788.0
778.0
782.0
805.0
827.0
832.0
825.0
817.0
810.0
808.0
816.0
821.0
825.0
822.0
815.0
807.0
801.0
803.0
803.0
799.0
796.0
789.0
787.0
789.0
787.0
783.0
784.0
783.0
784.0
791.0
798.0
797.0
794.0
782.0
779.0
783.0
781.0
778.0
771.0
772.0
782.0
794.0
794.0
789.0
783.0
774.0
760.0
745.0
730.0
725.0
727.0
738.0
749.0
757.0
769.0
782.0
793.0
792.0
781.0
770.0
764.0
766.0
772.0
781.0
790.0
797.0
806.0
811.0
816.0
817.0
819.0
813.0
810.0
810.0
816.0
826.0
832.0
840.0
847.0
849.0
846.0
846.0
841.0
831.0
823.0
817.0
816.0
829.0
843.0
847.0
854.0
853.0
843.0
840.0
833.0
828.0
833.0
836.0
837.0
834.0
832.0
840.0
841.0
844.0
838.0
835.0
835.0
839.0
841.0
830.0
817.0
812.0
814.0
823.0
836.0
839.0
840.0
839.0
838.0
839.0
838.0
837.0
839.0
836.0
827.0
816.0
809.0
816.0
829.0
837.0
843.0
844.0
832.0
820.0
810.0
812.0
820.0
833.0
846.0
854.0
850.0
841.0
829.0
816.0
815.0
819.0
829.0
837.0
843.0
839.0
836.0
834.0
833.0
828.0
829.0
829.0
827.0
826.0
831.0
834.0
838.0
846.0
851.0
848.0
849.0
839.0
832.0
830.0
828.0
836.0
844.0
842.0
840.0
835.0
841.0
852.0
860.0
857.0
850.0
849.0
853.0
860.0
872.0
878.0
884.0
886.0
884.0
875.0
868.0
858.0
858.0
857.0
860.0
861.0
856.0
854.0
849.0
864.0
879.0
889.0
894.0
890.0
876.0
861.0
844.0
838.0
842.0
848.0
856.0
853.0
850.0
844.0
834.0
822.0
814.0
809.0
807.0
805.0
810.0
815.0
824.0
834.0
838.0
838.0
833.0
828.0
822.0
820.0
825.0
822.0
824.0
823.0
822.0
827.0
831.0
833.0
842.0
848.0
851.0
845.0
830.0
814.0
812.0
825.0
842.0
854.0
854.0
843.0
834.0
822.0
825.0
842.0
867.0
895.0
926.0
942.0
950.0
950.0
950.0
959.0
987.0
1031.0
1080.0
1109.0
1106.0
1066.0
990.0
897.0
813.0
757.0
721.0
700.0
684.0
660.0
634.0
618.0
602.0
595.0
594.0
597.0
604.0
605.0
605.0
608.0
612.0
622.0
637.0
649.0
655.0
663.0
683.0
707.0
735.0
763.0
783.0
795.0
801.0
803.0
801.0
796.0
790.0
792.0
803.0
818.0
830.0
830.0
825.0
816.0
808.0
804.0
806.0
810.0
814.0
819.0
823.0
826.0
822.0
820.0
812.0
811.0
810.0
811.0
815.0
814.0
809.0
803.0
798.0
794.0
790.0
787.0
783.0
787.0
790.0
793.0
793.0
792.0
792.0
790.0
786.0
775.0
765.0
762.0
766.0
776.0
787.0
792.0
791.0
776.0
760.0
749.0
753.0
771.0
784.0
791.0
789.0
780.0
771.0
768.0
766.0
772.0
783.0
781.0
783.0
783.0
787.0
787.0
791.0
799.0
809.0
822.0
830.0
828.0
824.0
816.0
815.0
822.0
829.0
830.0
835.0
834.0
835.0
842.0
846.0
847.0
840.0
837.0
844.0
852.0
858.0
858.0
853.0
844.0
837.0
836.0
835.0
837.0
841.0
850.0
858.0
861.0
859.0
854.0
851.0
850.0
850.0
853.0
856.0
853.0
843.0
832.0
829.0
834.0
844.0
851.0
849.0
840.0
838.0
834.0
837.0
834.0
826.0
824.0
827.0
833.0
840.0
844.0
849.0
851.0
848.0
845.0
845.0
844.0
838.0
834.0
828.0
835.0
845.0
850.0
850.0
841.0
835.0
833.0
836.0
843.0
843.0
837.0
832.0
833.0
836.0
847.0
849.0
856.0
855.0
854.0
848.0
840.0
839.0
845.0
853.0
857.0
853.0
852.0
852.0
853.0
851.0
844.0
843.0
844.0
850.0
854.0
858.0
854.0
845.0
840.0
835.0
838.0
842.0
849.0
851.0
850.0
853.0
853.0
852.0
853.0
857.0
860.0
866.0
869.0
873.0
873.0
877.0
880.0
880.0
882.0
882.0
884.0
883.0
880.0
874.0
870.0
863.0
861.0
867.0
881.0
890.0
898.0
893.0
887.0
880.0
881.0
884.0
875.0
860.0
845.0
839.0
842.0
847.0
851.0
857.0
855.0
848.0
845.0
843.0
839.0
837.0
831.0
829.0
828.0
827.0
826.0
831.0
837.0
843.0
845.0
839.0
832.0
826.0
818.0
819.0
824.0
829.0
829.0
825.0
824.0
829.0
837.0
836.0
839.0
833.0
826.0
822.0
821.0
823.0
819.0
817.0
821.0
841.0
871.0
902.0
933.0
954.0
959.0
953.0
944.0
950.0
978.0
1023.0
1073.0
1108.0
1111.0
1076.0
1004.0
917.0
829.0
757.0
703.0
670.0
651.0
644.0
638.0
635.0
627.0
615.0
607.0
600.0
602.0
607.0
606.0
607.0
611.0
620.0
630.0
643.0
658.0
673.0
692.0
718.0
744.0
767.0
787.0
800.0
802.0
801.0
798.0
794.0
799.0
803.0
812.0
821.0
822.0
826.0
830.0
828.0
816.0
799.0
788.0
784.0
795.0
807.0
819.0
825.0
833.0
833.0
829.0
823.0
808.0
794.0
787.0
789.0
792.0
795.0
793.0
793.0
792.0
792.0
783.0
776.0
767.0
763.0
763.0
765.0
770.0
776.0
780.0
784.0
785.0
779.0
771.0
767.0
760.0
756.0
752.0
752.0
753.0
763.0
776.0
782.0
782.0
784.0
778.0
771.0
766.0
761.0
757.0
760.0
762.0
769.0
775.0
784.0
790.0
791.0
799.0
799.0
805.0
811.0
813.0
817.0
820.0
821.0
811.0
798.0
792.0
810.0
829.0
847.0
856.0
855.0
851.0
840.0
835.0
834.0
837.0
837.0
833.0
830.0
831.0
834.0
838.0
837.0
836.0
831.0
835.0
831.0
830.0
829.0
832.0
826.0
818.0
808.0
818.0
834.0
851.0
861.0
861.0
857.0
844.0
832.0
821.0
816.0
813.0
820.0
823.0
825.0
823.0
820.0
815.0
817.0
822.0
834.0
839.0
841.0
839.0
834.0
830.0
821.0
819.0
825.0
834.0
843.0
845.0
839.0
836.0
833.0
830.0
829.0
826.0
823.0
819.0
815.0
819.0
826.0
832.0
835.0
841.0
841.0
843.0
842.0
841.0
836.0
837.0
837.0
830.0
827.0
827.0
834.0
844.0
857.0
868.0
869.0
865.0
854.0
842.0
833.0
831.0
835.0
837.0
842.0
841.0
839.0
834.0
833.0
835.0
837.0
844.0
844.0
853.0
857.0
854.0
850.0
851.0
854.0
864.0
865.0
866.0
871.0
875.0
875.0
875.0
872.0
872.0
878.0
881.0
881.0
876.0
872.0
863.0
856.0
849.0
853.0
860.0
874.0
884.0
892.0
899.0
896.0
885.0
869.0
842.0
832.0
832.0
838.0
845.0
853.0
852.0
850.0
845.0
846.0
841.0
831.0
818.0
807.0
810.0
814.0
818.0
823.0
828.0
831.0
833.0
834.0
836.0
840.0
850.0
855.0
852.0
850.0
845.0
844.0
843.0
844.0
836.0
837.0
839.0
837.0
837.0
829.0
821.0
818.0
814.0
814.0
821.0
836.0
856.0
879.0
905.0
932.0
960.0
980.0
987.0
986.0
981.0
986.0
996.0
1026.0
1059.0
1082.0
1083.0
1051.0
989.0
903.0
817.0
741.0
690.0
655.0
636.0
627.0
621.0
620.0
622.0
620.0
614.0
606.0
601.0
597.0
595.0
594.0
598.0
605.0
626.0
649.0
672.0
700.0
731.0
753.0
777.0
789.0
797.0
796.0
799.0
801.0
806.0
813.0
816.0
819.0
810.0
799.0
792.0
800.0
810.0
818.0
818.0
819.0
814.0
809.0
805.0
802.0
799.0
801.0
800.0
801.0
799.0
796.0
796.0
796.0
794.0
791.0
787.0
786.0
782.0
782.0
779.0
780.0
778.0
775.0
774.0
771.0
767.0
765.0
764.0
760.0
760.0
761.0
765.0
765.0
761.0
755.0
751.0
746.0
751.0
758.0
762.0
763.0
764.0
762.0
761.0
762.0
761.0
764.0
768.0
774.0
778.0
781.0
785.0
783.0
784.0
786.0
790.0
795.0
802.0
806.0
809.0
815.0
821.0
824.0
824.0
820.0
815.0
815.0
822.0
826.0
831.0
834.0
835.0
835.0
836.0
835.0
835.0
830.0
832.0
834.0
833.0
835.0
834.0
829.0
830.0
832.0
830.0
829.0
831.0
828.0
831.0
829.0
830.0
831.0
830.0
826.0
824.0
821.0
823.0
821.0
820.0
819.0
821.0
823.0
824.0
825.0
826.0
827.0
829.0
829.0
824.0
821.0
826.0
828.0
832.0
830.0
823.0
820.0
818.0
814.0
816.0
819.0
815.0
815.0
815.0
814.0
817.0
813.0
815.0
816.0
817.0
821.0
819.0
822.0
820.0
822.0
820.0
825.0
825.0
826.0
827.0
824.0
818.0
817.0
815.0
811.0
808.0
806.0
805.0
808.0
813.0
815.0
816.0
814.0
816.0
814.0
813.0
817.0
819.0
820.0
825.0
827.0
832.0
834.0
834.0
832.0
834.0
831.0
827.0
828.0
831.0
835.0
832.0
833.0
834.0
832.0
834.0
837.0
842.0
852.0
859.0
864.0
865.0
867.0
862.0
857.0
853.0
847.0
845.0
843.0
844.0
849.0
856.0
863.0
863.0
866.0
863.0
862.0
856.0
853.0
850.0
845.0
841.0
837.0
834.0
832.0
830.0
831.0
829.0
831.0
830.0
829.0
827.0
825.0
822.0
824.0
825.0
823.0
819.0
815.0
813.0
811.0
811.0
809.0
809.0
812.0
812.0
812.0
814.0
815.0
812.0
811.0
803.0
799.0
791.0
789.0
791.0
798.0
805.0
806.0
809.0
808.0
813.0
812.0
824.0
842.0
863.0
892.0
921.0
952.0
976.0
987.0
986.0
983.0
984.0
992.0
1011.0
1038.0
1065.0
1080.0
1079.0
1052.0
1000.0
925.0
843.0
768.0
709.0
671.0
651.0
643.0
636.0
630.0
624.0
618.0
615.0
614.0
612.0
607.0
607.0
605.0
609.0
615.0
619.0
629.0
645.0
667.0
694.0
723.0
753.0
775.0
794.0
807.0
811.0
806.0
808.0
805.0
806.0
813.0
819.0
823.0
826.0
828.0
828.0
825.0
822.0
818.0
818.0
816.0
816.0
818.0
819.0
821.0
818.0
816.0
811.0
809.0
804.0
803.0
805.0
804.0
801.0
801.0
799.0
798.0
802.0
798.0
793.0
790.0
783.0
781.0
778.0
776.0
776.0
777.0
775.0
777.0
774.0
772.0
774.0
770.0
770.0
766.0
763.0
762.0
759.0
760.0
762.0
764.0
767.0
770.0
769.0
770.0
771.0
770.0
774.0
769.0
777.0
781.0
787.0
792.0
793.0
797.0
798.0
798.0
800.0
805.0
808.0
810.0
813.0
818.0
821.0
826.0
826.0
829.0
834.0
835.0
835.0
836.0
837.0
838.0
839.0
844.0
844.0
849.0
850.0
849.0
850.0
851.0
848.0
847.0
845.0
846.0
846.0
846.0
848.0
848.0
853.0
851.0
853.0
848.0
847.0
848.0
847.0
846.0
847.0
844.0
848.0
850.0
850.0
847.0
849.0
847.0
844.0
843.0
846.0
844.0
843.0
845.0
846.0
846.0
850.0
850.0
846.0
847.0
840.0
842.0
841.0
843.0
840.0
848.0
847.0
852.0
851.0
848.0
850.0
849.0
847.0
846.0
845.0
845.0
846.0
848.0
851.0
853.0
853.0
850.0
847.0
847.0
848.0
848.0
846.0
846.0
849.0
850.0
849.0
854.0
854.0
853.0
854.0
852.0
852.0
850.0
851.0
846.0
849.0
853.0
857.0
857.0
859.0
856.0
856.0
861.0
859.0
859.0
860.0
860.0
865.0
865.0
871.0
874.0
878.0
880.0
878.0
878.0
880.0
883.0
888.0
890.0
893.0
892.0
892.0
894.0
895.0
886.0
884.0
879.0
877.0
879.0
882.0
890.0
895.0
901.0
902.0
903.0
899.0
888.0
882.0
877.0
872.0
868.0
867.0
863.0
860.0
861.0
858.0
859.0
861.0
859.0
853.0
853.0
852.0
852.0
851.0
850.0
849.0
854.0
856.0
855.0
856.0
854.0
855.0
855.0
855.0
854.0
855.0
855.0
856.0
859.0
856.0
859.0
859.0
859.0
857.0
852.0
849.0
845.0
843.0
845.0
856.0
875.0
902.0
933.0
960.0
983.0
987.0
987.0
981.0
972.0
978.0
988.0
1015.0
1050.0
1078.0
1093.0
1079.0
1031.0
957.0
878.0
806.0
755.0
722.0
701.0
687.0
680.0
670.0
663.0
658.0
654.0
653.0
651.0
649.0
650.0
650.0
647.0
654.0
663.0
674.0
693.0
724.0
753.0
784.0
811.0
830.0
841.0
848.0
847.0
847.0
852.0
854.0
856.0
861.0
858.0
860.0
857.0
854.0
852.0
852.0
847.0
848.0
845.0
850.0
849.0
851.0
851.0
847.0
843.0
841.0
835.0
831.0
829.0
829.0
826.0
829.0
829.0
829.0
829.0
822.0
820.0
817.0
815.0
810.0
807.0
805.0
801.0
799.0
795.0
792.0
788.0
784.0
779.0
775.0
769.0
768.0
762.0
761.0
762.0
768.0
769.0
777.0
778.0
783.0
787.0
792.0
799.0
804.0
809.0
813.0
820.0
823.0
827.0
835.0
834.0
839.0
842.0
842.0
843.0
847.0
843.0
844.0
848.0
852.0
856.0
856.0
859.0
857.0
859.0
856.0
857.0
856.0
856.0
859.0
860.0
867.0
865.0
868.0
868.0
869.0
871.0
868.0
866.0
862.0
863.0
863.0
863.0
865.0
866.0
870.0
871.0
867.0
865.0
864.0
860.0
859.0
855.0
855.0
855.0
857.0
859.0
859.0
859.0
859.0
857.0
852.0
853.0
853.0
847.0
850.0
851.0
852.0
853.0
851.0
853.0
849.0
852.0
853.0
853.0
853.0
851.0
853.0
856.0
855.0
856.0
857.0
857.0
858.0
855.0
851.0
851.0
850.0
849.0
850.0
853.0
855.0
860.0
861.0
858.0
857.0
856.0
853.0
852.0
853.0
851.0
855.0
854.0
857.0
853.0
861.0
857.0
859.0
857.0
857.0
856.0
856.0
857.0
861.0
864.0
867.0
869.0
872.0
871.0
876.0
874.0
874.0
876.0
876.0
879.0
883.0
890.0
894.0
898.0
899.0
895.0
892.0
886.0
881.0
878.0
874.0
874.0
880.0
888.0
894.0
898.0
900.0
896.0
889.0
882.0
872.0
865.0
859.0
856.0
858.0
857.0
859.0
856.0
858.0
851.0
851.0
844.0
844.0
840.0
843.0
842.0
842.0
841.0
845.0
850.0
850.0
851.0
850.0
847.0
844.0
841.0
842.0
839.0
837.0
838.0
839.0
841.0
843.0
847.0
846.0
844.0
846.0
847.0
842.0
837.0
836.0
836.0
840.0
844.0
855.0
871.0
894.0
920.0
945.0
975.0
995.0
1002.0
997.0
992.0
994.0
1006.0
1031.0
1060.0
1091.0
1105.0
1095.0
1053.0
980.0
891.0
802.0
733.0
687.0
663.0
646.0
641.0
631.0
624.0
619.0
614.0
613.0
613.0
612.0
616.0
619.0
622.0
628.0
636.0
648.0
668.0
691.0
723.0
752.0
776.0
798.0
815.0
825.0
828.0
830.0
829.0
831.0
833.0
835.0
834.0
834.0
835.0
838.0
837.0
837.0
836.0
837.0
833.0
835.0
836.0
832.0
827.0
828.0
827.0
827.0
827.0
823.0
824.0
823.0
821.0
824.0
818.0
816.0
813.0
809.0
808.0
804.0
805.0
803.0
805.0
805.0
802.0
796.0
796.0
791.0
786.0
783.0
785.0
784.0
786.0
788.0
787.0
791.0
788.0
787.0
788.0
788.0
786.0
784.0
780.0
785.0
789.0
792.0
797.0
797.0
803.0
804.0
808.0
808.0
811.0
811.0
815.0
819.0
823.0
828.0
834.0
839.0
838.0
838.0
841.0
844.0
845.0
850.0
850.0
851.0
853.0
853.0
855.0
857.0
859.0
859.0
859.0
860.0
858.0
859.0
855.0
855.0
859.0
858.0
859.0
860.0
860.0
863.0
862.0
856.0
862.0
860.0
858.0
856.0
854.0
854.0
858.0
857.0
862.0
861.0
862.0
860.0
857.0
853.0
856.0
854.0
853.0
853.0
854.0
857.0
855.0
854.0
857.0
852.0
849.0
852.0
853.0
853.0
856.0
858.0
857.0
860.0
859.0
856.0
856.0
855.0
855.0
856.0
857.0
855.0
861.0
860.0
862.0
863.0
860.0
862.0
860.0
859.0
858.0
858.0
859.0
860.0
864.0
864.0
865.0
868.0
867.0
866.0
865.0
865.0
864.0
862.0
860.0
865.0
867.0
867.0
869.0
872.0
873.0
871.0
869.0
870.0
869.0
874.0
876.0
877.0
881.0
885.0
889.0
892.0
893.0
893.0
892.0
890.0
892.0
894.0
894.0
898.0
903.0
904.0
902.0
902.0
895.0
891.0
887.0
885.0
879.0
881.0
882.0
885.0
887.0
890.0
894.0
890.0
886.0
880.0
872.0
864.0
857.0
855.0
851.0
849.0
847.0
847.0
848.0
848.0
848.0
843.0
844.0
842.0
839.0
835.0
833.0
834.0
837.0
836.0
840.0
843.0
840.0
840.0
839.0
839.0
839.0
837.0
836.0
840.0
841.0
841.0
846.0
848.0
848.0
851.0
847.0
843.0
835.0
836.0
831.0
834.0
847.0
869.0
894.0
928.0
958.0
985.0
997.0
999.0
996.0
997.0
1004.0
1030.0
1061.0
1091.0
1107.0
1092.0
1043.0
967.0
879.0
797.0
736.0
694.0
671.0
661.0
658.0
654.0
650.0
648.0
644.0
642.0
639.0
635.0
635.0
637.0
640.0
645.0
654.0
671.0
692.0
722.0
750.0
776.0
797.0
813.0
821.0
820.0
823.0
822.0
822.0
828.0
832.0
832.0
837.0
838.0
838.0
838.0
835.0
835.0
827.0
831.0
833.0
833.0
834.0
836.0
835.0
834.0
829.0
829.0
825.0
824.0
823.0
822.0
820.0
819.0
817.0
820.0
820.0
816.0
813.0
810.0
808.0
806.0
805.0
801.0
799.0
798.0
803.0
801.0
800.0
800.0
796.0
795.0
792.0
788.0
787.0
784.0
786.0
787.0
787.0
789.0
791.0
792.0
792.0
790.0
789.0
789.0
793.0
795.0
797.0
803.0
805.0
808.0
814.0
820.0
822.0
826.0
831.0
833.0
833.0
836.0
840.0
842.0
846.0
850.0
852.0
857.0
854.0
854.0
857.0
859.0
859.0
863.0
862.0
865.0
870.0
871.0
871.0
871.0
870.0
872.0
870.0
871.0
872.0
873.0
872.0
875.0
876.0
877.0
877.0
874.0
872.0
872.0
872.0
870.0
871.0
872.0
873.0
876.0
876.0
876.0
876.0
872.0
871.0
869.0
864.0
864.0
865.0
867.0
868.0
867.0
867.0
866.0
868.0
862.0
863.0
856.0
855.0
852.0
849.0
850.0
849.0
852.0
853.0
855.0
857.0
857.0
854.0
851.0
850.0
849.0
849.0
851.0
850.0
850.0
849.0
851.0
852.0
854.0
853.0
851.0
849.0
848.0
846.0
847.0
848.0
848.0
849.0
850.0
852.0
850.0
849.0
847.0
848.0
845.0
845.0
844.0
846.0
846.0
848.0
853.0
858.0
861.0
861.0
862.0
862.0
860.0
863.0
868.0
865.0
872.0
875.0
880.0
881.0
882.0
888.0
890.0
889.0
886.0
882.0
878.0
877.0
880.0
875.0
875.0
880.0
881.0
887.0
886.0
887.0
890.0
890.0
888.0
881.0
880.0
874.0
869.0
867.0
863.0
856.0
851.0
852.0
846.0
841.0
843.0
843.0
847.0
849.0
848.0
851.0
847.0
843.0
843.0
846.0
843.0
842.0
840.0
841.0
844.0
840.0
847.0
847.0
845.0
845.0
844.0
842.0
836.0
838.0
838.0
841.0
842.0
845.0
846.0
849.0
847.0
845.0
838.0
839.0
840.0
841.0
853.0
873.0
899.0
928.0
963.0
985.0
994.0
999.0
991.0
986.0
992.0
1010.0
1041.0
1073.0
1098.0
1104.0
1079.0
1017.0
938.0
850.0
774.0
721.0
685.0
665.0
655.0
642.0
632.0
627.0
624.0
620.0
622.0
621.0
621.0
622.0
623.0
627.0
638.0
656.0
682.0
713.0
745.0
773.0
793.0
810.0
819.0
822.0
822.0
820.0
821.0
823.0
829.0
829.0
834.0
835.0
833.0
830.0
825.0
824.0
828.0
826.0
825.0
824.0
829.0
830.0
834.0
829.0
828.0
820.0
816.0
817.0
814.0
811.0
810.0
812.0
812.0
811.0
809.0
803.0
807.0
802.0
800.0
799.0
793.0
791.0
788.0
789.0
787.0
787.0
789.0
787.0
786.0
786.0
782.0
783.0
778.0
778.0
777.0
780.0
781.0
784.0
786.0
792.0
794.0
793.0
793.0
798.0
799.0
798.0
800.0
805.0
806.0
814.0
818.0
823.0
827.0
832.0
830.0
832.0
833.0
836.0
837.0
840.0
845.0
845.0
847.0
846.0
844.0
845.0
847.0
847.0
843.0
846.0
849.0
849.0
852.0
852.0
855.0
854.0
855.0
855.0
855.0
854.0
850.0
847.0
847.0
849.0
851.0
853.0
852.0
851.0
854.0
852.0
852.0
847.0
848.0
845.0
843.0
844.0
847.0
847.0
851.0
849.0
849.0
848.0
845.0
844.0
842.0
840.0
841.0
839.0
842.0
846.0
845.0
847.0
846.0
846.0
844.0
845.0
843.0
849.0
844.0
844.0
847.0
846.0
844.0
849.0
845.0
845.0
849.0
847.0
847.0
847.0
847.0
849.0
853.0
852.0
856.0
855.0
853.0
851.0
848.0
846.0
847.0
847.0
849.0
849.0
848.0
852.0
857.0
854.0
856.0
857.0
856.0
856.0
855.0
856.0
853.0
857.0
860.0
865.0
867.0
870.0
871.0
872.0
869.0
871.0
871.0
872.0
876.0
881.0
887.0
888.0
889.0
883.0
881.0
878.0
873.0
871.0
869.0
873.0
875.0
880.0
885.0
887.0
888.0
887.0
881.0
874.0
867.0
863.0
858.0
855.0
856.0
856.0
851.0
850.0
850.0
851.0
848.0
846.0
845.0
843.0
841.0
841.0
840.0
842.0
844.0
847.0
846.0
846.0
846.0
843.0
839.0
840.0
839.0
838.0
839.0
842.0
843.0
842.0
844.0
846.0
847.0
843.0
840.0
839.0
836.0
834.0
835.0
833.0
835.0
840.0
850.0
871.0
895.0
924.0
949.0
972.0
981.0
980.0
975.0
977.0
985.0
1013.0
1043.0
1074.0
1088.0
1068.0
1017.0
941.0
858.0
792.0
742.0
716.0
703.0
696.0
686.0
679.0
667.0
659.0
655.0
651.0
648.0
647.0
645.0
646.0
650.0
658.0
673.0
693.0
719.0
743.0
770.0
795.0
809.0
817.0
823.0
822.0
821.0
823.0
829.0
834.0
838.0
837.0
835.0
834.0
836.0
838.0
840.0
839.0
835.0
835.0
834.0
836.0
833.0
832.0
834.0
830.0
832.0
830.0
829.0
829.0
828.0
827.0
830.0
827.0
821.0
816.0
811.0
807.0
810.0
810.0
810.0
810.0
810.0
808.0
805.0
804.0
802.0
795.0
795.0
791.0
792.0
788.0
789.0
787.0
787.0
787.0
790.0
792.0
792.0
791.0
792.0
791.0
790.0
789.0
791.0
794.0
800.0
803.0
807.0
812.0
816.0
818.0
818.0
817.0
823.0
825.0
828.0
832.0
838.0
840.0
846.0
848.0
850.0
849.0
850.0
853.0
850.0
850.0
849.0
850.0
856.0
859.0
858.0
863.0
861.0
859.0
857.0
854.0
855.0
856.0
859.0
858.0
861.0
862.0
864.0
863.0
864.0
862.0
860.0
855.0
853.0
855.0
854.0
856.0
858.0
857.0
857.0
858.0
857.0
856.0
852.0
851.0
847.0
845.0
847.0
845.0
846.0
847.0
847.0
851.0
856.0
861.0
860.0
855.0
851.0
841.0
835.0
841.0
848.0
851.0
857.0
853.0
848.0
840.0
837.0
836.0
837.0
835.0
838.0
837.0
841.0
842.0
847.0
847.0
845.0
846.0
843.0
839.0
844.0
842.0
842.0
845.0
847.0
851.0
853.0
854.0
853.0
851.0
850.0
850.0
854.0
851.0
858.0
857.0
863.0
871.0
870.0
874.0
875.0
877.0
875.0
875.0
872.0
869.0
868.0
871.0
872.0
874.0
877.0
871.0
869.0
871.0
872.0
877.0
881.0
878.0
879.0
874.0
874.0
866.0
865.0
858.0
845.0
840.0
839.0
838.0
835.0
836.0
837.0
837.0
836.0
834.0
828.0
831.0
832.0
831.0
828.0
825.0
826.0
827.0
830.0
828.0
833.0
829.0
832.0
830.0
831.0
827.0
826.0
824.0
822.0
817.0
816.0
817.0
820.0
821.0
823.0
824.0
825.0
821.0
819.0
816.0
811.0
805.0
801.0
800.0
805.0
811.0
828.0
847.0
872.0
892.0
902.0
906.0
907.0
909.0
923.0
950.0
988.0
1029.0
1062.0
1070.0
1059.0
1021.0
962.0
894.0
824.0
768.0
729.0
705.0
691.0
685.0
677.0
667.0
652.0
643.0
638.0
634.0
631.0
629.0
636.0
637.0
645.0
655.0
671.0
691.0
717.0
743.0
764.0
782.0
795.0
799.0
802.0
799.0
800.0
802.0
804.0
806.0
808.0
808.0
808.0
810.0
806.0
807.0
808.0
811.0
812.0
810.0
809.0
812.0
809.0
808.0
805.0
800.0
798.0
794.0
796.0
794.0
795.0
795.0
796.0
793.0
788.0
787.0
787.0
789.0
787.0
780.0
776.0
771.0
769.0
773.0
771.0
774.0
775.0
775.0
775.0
773.0
768.0
764.0
763.0
765.0
766.0
765.0
765.0
768.0
771.0
771.0
772.0
769.0
769.0
765.0
766.0
770.0
772.0
777.0
782.0
787.0
787.0
789.0
792.0
792.0
796.0
797.0
797.0
803.0
813.0
814.0
820.0
825.0
828.0
831.0
827.0
823.0
820.0
816.0
819.0
821.0
822.0
824.0
827.0
832.0
833.0
833.0
833.0
827.0
825.0
826.0
822.0
826.0
827.0
827.0
829.0
832.0
835.0
837.0
833.0
825.0
819.0
815.0
811.0
811.0
817.0
825.0
830.0
830.0
825.0
818.0
814.0
813.0
811.0
817.0
821.0
824.0
824.0
823.0
822.0
816.0
815.0
811.0
808.0
811.0
814.0
816.0
819.0
819.0
819.0
819.0
816.0
816.0
816.0
812.0
809.0
808.0
810.0
812.0
811.0
815.0
816.0
813.0
813.0
812.0
812.0
804.0
801.0
798.0
794.0
793.0
799.0
809.0
816.0
820.0
817.0
812.0
806.0
801.0
802.0
801.0
805.0
803.0
801.0
799.0
799.0
805.0
807.0
809.0
810.0
810.0
806.0
802.0
802.0
799.0
795.0
798.0
803.0
804.0
805.0
804.0
804.0
804.0
809.0
809.0
812.0
811.0
811.0
810.0
810.0
812.0
812.0
821.0
819.0
821.0
827.0
830.0
833.0
833.0
835.0
835.0
835.0
831.0
829.0
825.0
822.0
822.0
819.0
822.0
826.0
832.0
836.0
837.0
836.0
830.0
820.0
812.0
806.0
802.0
802.0
798.0
793.0
792.0
791.0
787.0
785.0
786.0
784.0
786.0
785.0
784.0
788.0
789.0
787.0
782.0
779.0
775.0
775.0
776.0
786.0
788.0
791.0
783.0
784.0
779.0
780.0
778.0
777.0
779.0
783.0
787.0
793.0
794.0
788.0
782.0
775.0
767.0
759.0
758.0
762.0
776.0
799.0
832.0
861.0
887.0
900.0
912.0
911.0
907.0
908.0
914.0
938.0
970.0
1004.0
1032.0
1034.0
1016.0
955.0
871.0
788.0
712.0
655.0
618.0
591.0
581.0
575.0
576.0
576.0
582.0
581.0
583.0
581.0
578.0
572.0
572.0
577.0
586.0
606.0
633.0
661.0
687.0
709.0
722.0
738.0
745.0
747.0
747.0
749.0
748.0
754.0
761.0
766.0
771.0
771.0
770.0
766.0
763.0
764.0
759.0
755.0
748.0
751.0
749.0
757.0
760.0
763.0
763.0
755.0
752.0
752.0
747.0
746.0
747.0
748.0
751.0
748.0
742.0
738.0
736.0
735.0
733.0
731.0
728.0
724.0
719.0
719.0
716.0
719.0
724.0
721.0
724.0
725.0
725.0
717.0
716.0
714.0
715.0
717.0
720.0
725.0
726.0
725.0
723.0
724.0
722.0
723.0
721.0
720.0
723.0
729.0
739.0
749.0
756.0
761.0
761.0
758.0
752.0
745.0
747.0
753.0
761.0
773.0
780.0
783.0
789.0
790.0
789.0
792.0
791.0
792.0
789.0
787.0
783.0
781.0
782.0
783.0
786.0
789.0
787.0
787.0
789.0
788.0
787.0
787.0
784.0
785.0
789.0
791.0
794.0
792.0
795.0
793.0
789.0
792.0
787.0
784.0
782.0
789.0
791.0
787.0
789.0
791.0
789.0
783.0
777.0
772.0
775.0
775.0
776.0
783.0
786.0
789.0
788.0
786.0
780.0
777.0
774.0
776.0
777.0
778.0
783.0
783.0
788.0
784.0
786.0
787.0
791.0
794.0
794.0
788.0
784.0
776.0
773.0
773.0
778.0
779.0
783.0
789.0
785.0
787.0
791.0
790.0
791.0
788.0
786.0
784.0
786.0
785.0
785.0
788.0
787.0
787.0
789.0
790.0
792.0
789.0
787.0
788.0
787.0
785.0
790.0
789.0
794.0
794.0
793.0
792.0
792.0
792.0
790.0
792.0
797.0
798.0
802.0
799.0
797.0
792.0
789.0
788.0
792.0
795.0
801.0
805.0
807.0
809.0
814.0
813.0
813.0
816.0
817.0
