# Simple Text Format
# Sampling Rate (Hz):= 360.00
# Resolution:= 12
# Labels:= ECG
766.0
796.0
821.0
845.0
861.0
873.0
877.0
878.0
873.0
878.0
880.0
881.0
887.0
890.0
891.0
891.0
892.0
887.0
888.0
886.0
883.0
884.0
883.0
883.0
887.0
883.0
884.0
883.0
882.0
879.0
873.0
870.0
865.0
865.0
865.0
859.0
858.0
860.0
863.0
863.0
863.0
862.0
855.0
849.0
843.0
841.0
837.0
837.0
839.0
839.0
844.0
844.0
841.0
838.0
837.0
835.0
833.0
832.0
831.0
829.0
830.0
833.0
837.0
838.0
836.0
835.0
836.0
836.0
839.0
845.0
850.0
854.0
858.0
866.0
872.0
876.0
880.0
882.0
881.0
881.0
882.0
885.0
886.0
890.0
894.0
896.0
900.0
904.0
907.0
908.0
910.0
906.0
909.0
903.0
903.0
904.0
908.0
910.0
912.0
921.0
920.0
920.0
920.0
911.0
913.0
910.0
909.0
909.0
912.0
913.0
917.0
918.0
917.0
916.0
913.0
910.0
907.0
908.0
905.0
907.0
911.0
912.0
914.0
915.0
912.0
911.0
907.0
904.0
898.0
901.0
903.0
900.0
905.0
906.0
909.0
914.0
912.0
911.0
912.0
904.0
902.0
904.0
903.0
905.0
905.0
908.0
914.0
916.0
918.0
919.0
916.0
914.0
910.0
907.0
908.0
907.0
909.0
911.0
912.0
915.0
914.0
914.0
913.0
914.0
913.0
911.0
911.0
911.0
914.0
914.0
914.0
916.0
915.0
915.0
912.0
914.0
912.0
912.0
914.0
914.0
919.0
923.0
922.0
924.0
920.0
924.0
923.0
925.0
927.0
927.0
926.0
930.0
932.0
935.0
942.0
945.0
952.0
955.0
959.0
960.0
959.0
954.0
950.0
941.0
936.0
938.0
938.0
938.0
940.0
944.0
950.0
954.0
958.0
953.0
948.0
939.0
930.0
927.0
923.0
923.0
921.0
916.0
916.0
911.0
908.0
906.0
904.0
905.0
910.0
912.0
910.0
910.0
908.0
906.0
906.0
904.0
903.0
902.0
897.0
899.0
901.0
902.0
902.0
902.0
903.0
903.0
904.0
901.0
902.0
901.0
900.0
900.0
898.0
900.0
901.0
903.0
900.0
900.0
901.0
901.0
904.0
923.0
945.0
975.0
1012.0
1043.0
1064.0
1069.0
1062.0
1057.0
1063.0
1075.0
1106.0
1136.0
1159.0
1160.0
1130.0
1060.0
971.0
878.0
802.0
746.0
714.0
690.0
679.0
672.0
667.0
666.0
667.0
667.0
669.0
669.0
670.0
671.0
676.0
680.0
688.0
701.0
726.0
756.0
786.0
812.0
835.0
850.0
863.0
872.0
876.0
876.0
879.0
882.0
884.0
887.0
892.0
891.0
890.0
888.0
890.0
888.0
889.0
891.0
889.0
888.0
887.0
886.0
887.0
890.0
888.0
890.0
887.0
883.0
881.0
879.0
877.0
874.0
870.0
868.0
867.0
865.0
864.0
865.0
864.0
856.0
854.0
854.0
854.0
849.0
845.0
843.0
842.0
839.0
841.0
844.0
843.0
843.0
837.0
835.0
836.0
834.0
832.0
829.0
832.0
836.0
836.0
842.0
846.0
848.0
849.0
848.0
853.0
853.0
855.0
860.0
866.0
872.0
876.0
883.0
884.0
885.0
888.0
886.0
883.0
887.0
891.0
889.0
896.0
899.0
904.0
909.0
909.0
909.0
911.0
909.0
906.0
906.0
903.0
902.0
903.0
906.0
908.0
910.0
910.0
906.0
904.0
904.0
902.0
904.0
905.0
904.0
903.0
906.0
907.0
911.0
910.0
907.0
907.0
904.0
902.0
901.0
901.0
902.0
902.0
902.0
902.0
903.0
903.0
899.0
896.0
892.0
894.0
893.0
889.0
894.0
897.0
896.0
896.0
899.0
899.0
898.0
897.0
895.0
891.0
891.0
891.0
890.0
894.0
896.0
898.0
901.0
904.0
903.0
899.0
898.0
896.0
891.0
892.0
895.0
896.0
895.0
899.0
898.0
897.0
899.0
899.0
898.0
897.0
895.0
891.0
894.0
894.0
893.0
896.0
898.0
901.0
901.0
898.0
895.0
896.0
896.0
895.0
900.0
903.0
907.0
906.0
914.0
920.0
925.0
925.0
921.0
922.0
919.0
921.0
926.0
933.0
938.0
940.0
940.0
939.0
935.0
931.0
925.0
920.0
918.0
919.0
922.0
933.0
936.0
941.0
936.0
931.0
922.0
913.0
909.0
908.0
903.0
902.0
900.0
894.0
891.0
888.0
888.0
886.0
887.0
883.0
884.0
883.0
883.0
885.0
886.0
885.0
886.0
883.0
882.0
880.0
883.0
883.0
880.0
879.0
880.0
883.0
884.0
884.0
885.0
885.0
884.0
889.0
888.0
885.0
882.0
881.0
876.0
873.0
873.0
876.0
884.0
902.0
929.0
958.0
987.0
1007.0
1025.0
1025.0
1018.0
1012.0
1020.0
1042.0
1079.0
1120.0
1149.0
1146.0
1106.0
1024.0
925.0
833.0
758.0
711.0
684.0
672.0
666.0
663.0
658.0
652.0
651.0
649.0
649.0
646.0
644.0
647.0
655.0
667.0
683.0
703.0
732.0
763.0
787.0
809.0
825.0
838.0
846.0
851.0
852.0
859.0
864.0
867.0
870.0
871.0
872.0
871.0
869.0
866.0
869.0
868.0
867.0
866.0
869.0
868.0
871.0
869.0
873.0
873.0
868.0
866.0
863.0
863.0
860.0
859.0
856.0
857.0
856.0
854.0
850.0
850.0
848.0
845.0
843.0
841.0
835.0
837.0
834.0
837.0
839.0
836.0
830.0
831.0
826.0
827.0
827.0
826.0
830.0
829.0
830.0
828.0
830.0
833.0
831.0
836.0
835.0
837.0
839.0
838.0
837.0
842.0
848.0
853.0
861.0
866.0
867.0
871.0
872.0
875.0
873.0
874.0
876.0
879.0
882.0
885.0
889.0
893.0
894.0
891.0
890.0
890.0
890.0
889.0
891.0
896.0
899.0
901.0
902.0
899.0
899.0
896.0
891.0
892.0
888.0
887.0
887.0
891.0
890.0
894.0
893.0
897.0
894.0
894.0
890.0
888.0
885.0
884.0
883.0
890.0
887.0
887.0
886.0
889.0
887.0
885.0
884.0
882.0
881.0
880.0
879.0
880.0
881.0
883.0
882.0
882.0
882.0
885.0
885.0
882.0
881.0
880.0
881.0
880.0
882.0
884.0
884.0
887.0
886.0
885.0
885.0
885.0
883.0
883.0
884.0
885.0
885.0
885.0
888.0
888.0
888.0
884.0
886.0
890.0
887.0
888.0
887.0
885.0
887.0
888.0
892.0
893.0
893.0
891.0
887.0
887.0
887.0
887.0
888.0
890.0
892.0
891.0
897.0
900.0
904.0
904.0
905.0
904.0
904.0
904.0
905.0
906.0
907.0
913.0
917.0
925.0
926.0
935.0
932.0
931.0
926.0
921.0
919.0
914.0
916.0
914.0
917.0
924.0
929.0
929.0
931.0
928.0
925.0
919.0
913.0
909.0
904.0
900.0
900.0
899.0
896.0
893.0
889.0
887.0
881.0
881.0
880.0
882.0
883.0
884.0
886.0
889.0
888.0
883.0
882.0
881.0
878.0
876.0
875.0
876.0
874.0
881.0
881.0
884.0
882.0
883.0
883.0
885.0
882.0
880.0
881.0
884.0
886.0
886.0
883.0
882.0
880.0
879.0
880.0
885.0
896.0
917.0
947.0
980.0
1012.0
1036.0
1055.0
1058.0
1049.0
1045.0
1049.0
1064.0
1089.0
1118.0
1135.0
1126.0
1082.0
1000.0
904.0
814.0
743.0
699.0
673.0
661.0
654.0
651.0
653.0
652.0
654.0
650.0
649.0
647.0
648.0
653.0
657.0
666.0
677.0
698.0
722.0
754.0
782.0
811.0
830.0
842.0
847.0
850.0
848.0
847.0
849.0
853.0
858.0
864.0
871.0
873.0
870.0
866.0
867.0
863.0
862.0
865.0
858.0
860.0
864.0
866.0
863.0
863.0
865.0
865.0
865.0
860.0
859.0
856.0
855.0
851.0
852.0
848.0
847.0
842.0
839.0
839.0
841.0
842.0
840.0
833.0
834.0
827.0
827.0
826.0
823.0
824.0
822.0
822.0
820.0
821.0
822.0
820.0
820.0
819.0
818.0
814.0
821.0
824.0
829.0
831.0
830.0
835.0
834.0
837.0
837.0
838.0
840.0
849.0
852.0
861.0
864.0
868.0
869.0
872.0
870.0
872.0
872.0
873.0
878.0
879.0
885.0
888.0
889.0
891.0
887.0
888.0
887.0
887.0
889.0
888.0
887.0
886.0
887.0
890.0
894.0
900.0
900.0
897.0
896.0
889.0
882.0
886.0
886.0
889.0
891.0
895.0
896.0
893.0
895.0
896.0
892.0
887.0
883.0
881.0
882.0
886.0
887.0
892.0
889.0
887.0
883.0
882.0
877.0
878.0
876.0
876.0
874.0
880.0
882.0
882.0
886.0
884.0
881.0
879.0
881.0
879.0
881.0
880.0
885.0
886.0
887.0
885.0
882.0
880.0
881.0
881.0
881.0
881.0
879.0
884.0
883.0
882.0
883.0
877.0
880.0
882.0
883.0
885.0
882.0
883.0
882.0
884.0
884.0
886.0
888.0
892.0
895.0
893.0
890.0
889.0
887.0
889.0
892.0
898.0
901.0
903.0
903.0
909.0
911.0
917.0
923.0
926.0
927.0
917.0
916.0
907.0
902.0
901.0
902.0
905.0
903.0
908.0
911.0
917.0
918.0
917.0
914.0
903.0
896.0
893.0
888.0
893.0
894.0
889.0
883.0
874.0
868.0
866.0
866.0
867.0
867.0
867.0
864.0
870.0
875.0
876.0
873.0
871.0
869.0
861.0
859.0
860.0
858.0
863.0
861.0
868.0
874.0
878.0
874.0
873.0
871.0
866.0
862.0
863.0
860.0
862.0
866.0
866.0
866.0
863.0
856.0
853.0
847.0
850.0
860.0
875.0
899.0
928.0
957.0
977.0
982.0
983.0
978.0
985.0
1006.0
1040.0
1081.0
1115.0
1137.0
1129.0
1093.0
1019.0
933.0
855.0
790.0
751.0
727.0
708.0
689.0
674.0
658.0
651.0
650.0
650.0
652.0
652.0
654.0
652.0
652.0
663.0
673.0
688.0
707.0
735.0
761.0
785.0
810.0
823.0
833.0
842.0
843.0
846.0
845.0
848.0
845.0
849.0
851.0
854.0
856.0
859.0
853.0
857.0
857.0
858.0
859.0
859.0
859.0
859.0
858.0
858.0
858.0
857.0
855.0
856.0
854.0
850.0
847.0
842.0
836.0
833.0
836.0
834.0
838.0
837.0
837.0
838.0
837.0
834.0
827.0
824.0
820.0
818.0
819.0
820.0
821.0
820.0
822.0
824.0
824.0
825.0
822.0
819.0
819.0
816.0
819.0
817.0
820.0
824.0
824.0
830.0
833.0
833.0
832.0
836.0
837.0
841.0
848.0
854.0
859.0
864.0
868.0
867.0
868.0
868.0
869.0
869.0
869.0
874.0
882.0
884.0
888.0
890.0
889.0
889.0
887.0
881.0
881.0
880.0
880.0
881.0
880.0
887.0
888.0
890.0
889.0
890.0
887.0
884.0
884.0
885.0
884.0
885.0
883.0
885.0
885.0
883.0
884.0
881.0
881.0
880.0
878.0
878.0
877.0
880.0
879.0
878.0
878.0
880.0
877.0
878.0
876.0
878.0
876.0
878.0
878.0
876.0
877.0
880.0
882.0
879.0
880.0
875.0
874.0
872.0
872.0
874.0
872.0
874.0
876.0
881.0
883.0
886.0
886.0
885.0
886.0
882.0
878.0
880.0
878.0
878.0
880.0
880.0
881.0
886.0
884.0
885.0
884.0
879.0
881.0
881.0
882.0
882.0
886.0
885.0
885.0
888.0
885.0
882.0
883.0
885.0
883.0
885.0
883.0
889.0
897.0
898.0
903.0
904.0
902.0
903.0
905.0
908.0
911.0
916.0
922.0
928.0
929.0
930.0
928.0
924.0
919.0
916.0
914.0
910.0
908.0
904.0
911.0
915.0
922.0
927.0
925.0
921.0
918.0
909.0
899.0
894.0
890.0
887.0
884.0
878.0
879.0
877.0
877.0
881.0
878.0
876.0
875.0
871.0
867.0
868.0
866.0
868.0
869.0
870.0
872.0
869.0
872.0
872.0
869.0
867.0
865.0
866.0
864.0
865.0
867.0
869.0
871.0
873.0
872.0
868.0
869.0
864.0
863.0
859.0
858.0
860.0
868.0
882.0
903.0
932.0
960.0
988.0
1007.0
1015.0
1011.0
1002.0
1002.0
1011.0
1044.0
1084.0
1120.0
1136.0
1121.0
1061.0
972.0
864.0
776.0
703.0
667.0
650.0
640.0
637.0
632.0
630.0
628.0
625.0
626.0
622.0
620.0
623.0
626.0
633.0
642.0
661.0
676.0
704.0
731.0
760.0
782.0
802.0
813.0
825.0
831.0
837.0
842.0
847.0
853.0
857.0
861.0
864.0
864.0
866.0
863.0
857.0
860.0
856.0
857.0
859.0
862.0
864.0
861.0
863.0
862.0
862.0
856.0
853.0
849.0
845.0
847.0
850.0
850.0
850.0
849.0
847.0
841.0
836.0
832.0
831.0
831.0
829.0
828.0
830.0
832.0
831.0
829.0
825.0
822.0
818.0
815.0
813.0
814.0
820.0
823.0
823.0
822.0
824.0
823.0
825.0
827.0
825.0
826.0
825.0
826.0
832.0
835.0
846.0
849.0
849.0
851.0
855.0
856.0
857.0
857.0
862.0
865.0
871.0
874.0
874.0
875.0
881.0
881.0
883.0
879.0
878.0
881.0
881.0
885.0
887.0
884.0
886.0
885.0
889.0
884.0
886.0
885.0
884.0
880.0
878.0
878.0
881.0
884.0
885.0
888.0
890.0
885.0
885.0
883.0
881.0
879.0
873.0
877.0
875.0
877.0
875.0
879.0
877.0
877.0
876.0
876.0
874.0
875.0
875.0
875.0
874.0
874.0
880.0
876.0
878.0
877.0
877.0
872.0
871.0
870.0
868.0
869.0
869.0
871.0
874.0
875.0
879.0
875.0
875.0
872.0
873.0
872.0
873.0
870.0
874.0
879.0
882.0
882.0
884.0
881.0
876.0
871.0
869.0
872.0
875.0
877.0
878.0
877.0
879.0
882.0
884.0
881.0
883.0
883.0
880.0
877.0
880.0
874.0
877.0
880.0
885.0
892.0
898.0
897.0
902.0
902.0
901.0
899.0
899.0
901.0
904.0
911.0
918.0
920.0
926.0
927.0
929.0
925.0
921.0
913.0
910.0
908.0
910.0
914.0
920.0
922.0
923.0
923.0
920.0
917.0
912.0
906.0
899.0
891.0
888.0
886.0
884.0
889.0
887.0
880.0
877.0
868.0
867.0
862.0
866.0
864.0
868.0
872.0
876.0
876.0
873.0
869.0
862.0
860.0
862.0
864.0
864.0
863.0
862.0
867.0
867.0
868.0
868.0
865.0
865.0
867.0
866.0
865.0
866.0
866.0
868.0
869.0
866.0
864.0
863.0
864.0
870.0
882.0
898.0
917.0
944.0
972.0
995.0
1013.0
1018.0
1015.0
1013.0
1018.0
1037.0
1069.0
1098.0
1117.0
1110.0
1058.0
970.0
874.0
781.0
709.0
668.0
645.0
638.0
636.0
629.0
628.0
621.0
618.0
616.0
619.0
616.0
625.0
630.0
632.0
639.0
643.0
658.0
672.0
697.0
722.0
751.0
777.0
798.0
817.0
831.0
845.0
845.0
848.0
845.0
847.0
851.0
853.0
856.0
858.0
856.0
856.0
859.0
859.0
862.0
861.0
856.0
855.0
856.0
855.0
852.0
854.0
853.0
855.0
857.0
854.0
853.0
847.0
846.0
843.0
843.0
834.0
836.0
834.0
837.0
836.0
832.0
831.0
827.0
824.0
821.0
822.0
822.0
818.0
816.0
819.0
819.0
820.0
823.0
820.0
814.0
811.0
807.0
807.0
811.0
813.0
816.0
820.0
817.0
819.0
825.0
826.0
827.0
828.0
831.0
829.0
834.0
837.0
842.0
849.0
852.0
856.0
860.0
860.0
857.0
861.0
859.0
860.0
864.0
865.0
867.0
870.0
872.0
875.0
879.0
878.0
877.0
878.0
878.0
876.0
877.0
876.0
880.0
884.0
884.0
883.0
884.0
879.0
877.0
875.0
873.0
872.0
874.0
872.0
875.0
879.0
881.0
879.0
883.0
884.0
883.0
880.0
874.0
872.0
865.0
864.0
865.0
868.0
869.0
871.0
874.0
874.0
874.0
874.0
872.0
869.0
864.0
860.0
857.0
861.0
867.0
870.0
874.0
875.0
874.0
874.0
869.0
867.0
864.0
865.0
866.0
869.0
870.0
872.0
873.0
874.0
874.0
874.0
871.0
869.0
869.0
866.0
864.0
868.0
870.0
877.0
879.0
878.0
877.0
877.0
877.0
872.0
869.0
868.0
864.0
871.0
879.0
881.0
884.0
882.0
881.0
876.0
878.0
879.0
881.0
883.0
887.0
890.0
892.0
893.0
894.0
899.0
903.0
904.0
903.0
909.0
906.0
907.0
911.0
917.0
920.0
916.0
918.0
912.0
904.0
898.0
893.0
895.0
903.0
909.0
914.0
921.0
920.0
919.0
910.0
899.0
891.0
886.0
882.0
879.0
875.0
869.0
866.0
863.0
866.0
868.0
869.0
868.0
868.0
866.0
864.0
861.0
862.0
862.0
858.0
862.0
863.0
863.0
866.0
856.0
860.0
862.0
860.0
865.0
866.0
865.0
858.0
857.0
860.0
863.0
866.0
866.0
869.0
871.0
866.0
863.0
859.0
854.0
854.0
858.0
866.0
880.0
900.0
926.0
959.0
986.0
1009.0
1014.0
1010.0
999.0
998.0
1005.0
1036.0
1074.0
1107.0
1115.0
1082.0
1006.0
901.0
796.0
713.0
659.0
629.0
617.0
616.0
616.0
615.0
615.0
612.0
613.0
612.0
615.0
610.0
616.0
618.0
630.0
648.0
666.0
693.0
718.0
747.0
771.0
794.0
808.0
821.0
827.0
832.0
839.0
845.0
850.0
855.0
856.0
856.0
852.0
849.0
849.0
851.0
849.0
855.0
853.0
857.0
860.0
863.0
863.0
861.0
860.0
855.0
850.0
848.0
844.0
842.0
848.0
850.0
848.0
847.0
847.0
840.0
833.0
832.0
833.0
831.0
832.0
826.0
824.0
826.0
825.0
827.0
827.0
822.0
816.0
816.0
811.0
812.0
814.0
817.0
813.0
815.0
813.0
817.0
818.0
819.0
822.0
824.0
823.0
823.0
823.0
824.0
827.0
831.0
843.0
849.0
851.0
851.0
851.0
851.0
855.0
854.0
859.0
860.0
865.0
867.0
874.0
875.0
873.0
870.0
873.0
874.0
877.0
880.0
880.0
884.0
886.0
888.0
886.0
888.0
888.0
887.0
884.0
881.0
880.0
880.0
881.0
886.0
883.0
882.0
885.0
883.0
879.0
880.0
880.0
878.0
876.0
877.0
875.0
875.0
872.0
880.0
882.0
884.0
885.0
882.0
881.0
876.0
876.0
875.0
872.0
871.0
869.0
870.0
874.0
880.0
882.0
882.0
879.0
876.0
870.0
867.0
867.0
866.0
869.0
873.0
876.0
878.0
881.0
880.0
880.0
876.0
876.0
873.0
873.0
878.0
879.0
880.0
880.0
879.0
880.0
881.0
879.0
877.0
877.0
878.0
877.0
879.0
880.0
881.0
883.0
887.0
884.0
884.0
883.0
880.0
879.0
882.0
879.0
878.0
880.0
883.0
891.0
897.0
898.0
898.0
897.0
898.0
902.0
903.0
903.0
903.0
906.0
911.0
916.0
923.0
929.0
927.0
927.0
918.0
913.0
907.0
905.0
906.0
909.0
911.0
916.0
921.0
922.0
923.0
918.0
914.0
911.0
898.0
892.0
883.0
882.0
882.0
882.0
880.0
879.0
875.0
869.0
868.0
866.0
865.0
866.0
869.0
869.0
868.0
869.0
873.0
877.0
875.0
870.0
868.0
863.0
862.0
862.0
865.0
870.0
871.0
869.0
867.0
866.0
866.0
870.0
868.0
865.0
866.0
867.0
869.0
868.0
871.0
870.0
869.0
873.0
882.0
897.0
925.0
955.0
987.0
1008.0
1022.0
1021.0
1016.0
1012.0
1022.0
1046.0
1081.0
1110.0
1123.0
1103.0
1043.0
951.0
847.0
757.0
694.0
659.0
642.0
641.0
638.0
636.0
630.0
626.0
620.0
619.0
618.0
621.0
628.0
633.0
643.0
653.0
659.0
673.0
691.0
718.0
747.0
779.0
805.0
826.0
838.0
844.0
846.0
848.0
847.0
851.0
852.0
854.0
853.0
853.0
852.0
858.0
862.0
860.0
861.0
863.0
864.0
865.0
867.0
865.0
861.0
861.0
858.0
857.0
853.0
852.0
848.0
848.0
853.0
849.0
848.0
845.0
837.0
833.0
832.0
832.0
835.0
836.0
838.0
836.0
832.0
827.0
822.0
822.0
820.0
818.0
817.0
819.0
821.0
823.0
822.0
820.0
821.0
819.0
815.0
814.0
817.0
821.0
829.0
837.0
842.0
846.0
845.0
850.0
850.0
849.0
848.0
854.0
853.0
857.0
865.0
867.0
872.0
874.0
879.0
881.0
884.0
885.0
884.0
885.0
882.0
883.0
885.0
886.0
887.0
881.0
887.0
885.0
888.0
892.0
893.0
894.0
891.0
887.0
886.0
886.0
888.0
887.0
889.0
888.0
890.0
884.0
883.0
883.0
882.0
879.0
883.0
884.0
881.0
884.0
886.0
885.0
884.0
881.0
879.0
882.0
880.0
877.0
876.0
878.0
880.0
881.0
884.0
881.0
880.0
881.0
883.0
881.0
880.0
881.0
881.0
882.0
884.0
883.0
888.0
886.0
889.0
887.0
888.0
886.0
880.0
878.0
879.0
877.0
883.0
885.0
888.0
890.0
892.0
891.0
891.0
888.0
886.0
882.0
883.0
884.0
886.0
891.0
891.0
891.0
889.0
892.0
891.0
890.0
890.0
889.0
890.0
893.0
895.0
898.0
902.0
908.0
910.0
911.0
909.0
908.0
911.0
916.0
923.0
929.0
932.0
933.0
931.0
929.0
925.0
922.0
914.0
911.0
910.0
913.0
917.0
924.0
928.0
930.0
931.0
929.0
922.0
912.0
904.0
899.0
889.0
886.0
883.0
886.0
884.0
882.0
882.0
882.0
881.0
879.0
877.0
876.0
869.0
866.0
864.0
867.0
872.0
876.0
880.0
879.0
876.0
870.0
867.0
865.0
866.0
863.0
869.0
873.0
875.0
872.0
876.0
875.0
876.0
872.0
870.0
868.0
869.0
866.0
870.0
868.0
868.0
874.0
876.0
885.0
900.0
923.0
953.0
983.0
1011.0
1030.0
1033.0
1030.0
1026.0
1028.0
1042.0
1067.0
1103.0
1126.0
1129.0
1099.0
1032.0
931.0
831.0
746.0
686.0
655.0
639.0
636.0
631.0
628.0
624.0
620.0
617.0
615.0
618.0
620.0
625.0
630.0
635.0
645.0
651.0
665.0
688.0
715.0
745.0
773.0
792.0
816.0
827.0
836.0
843.0
848.0
850.0
852.0
853.0
851.0
848.0
847.0
848.0
849.0
853.0
857.0
861.0
863.0
861.0
861.0
858.0
856.0
852.0
853.0
850.0
852.0
854.0
856.0
856.0
856.0
851.0
849.0
846.0
843.0
842.0
837.0
835.0
836.0
838.0
834.0
835.0
836.0
830.0
828.0
823.0
823.0
820.0
819.0
817.0
816.0
817.0
818.0
815.0
816.0
813.0
813.0
811.0
810.0
814.0
813.0
818.0
818.0
821.0
823.0
824.0
829.0
825.0
825.0
829.0
829.0
833.0
836.0
837.0
842.0
849.0
854.0
862.0
864.0
865.0
864.0
861.0
860.0
862.0
864.0
865.0
867.0
867.0
870.0
871.0
875.0
879.0
881.0
881.0
883.0
882.0
877.0
876.0
878.0
876.0
879.0
881.0
884.0
880.0
882.0
881.0
881.0
879.0
877.0
878.0
875.0
877.0
877.0
881.0
882.0
876.0
876.0
874.0
875.0
870.0
872.0
871.0
871.0
871.0
873.0
878.0
878.0
876.0
872.0
869.0
867.0
867.0
867.0
865.0
868.0
871.0
875.0
877.0
879.0
880.0
879.0
875.0
872.0
865.0
863.0
864.0
866.0
871.0
875.0
878.0
877.0
877.0
877.0
875.0
871.0
871.0
873.0
873.0
873.0
869.0
871.0
871.0
873.0
871.0
870.0
873.0
868.0
869.0
868.0
868.0
871.0
877.0
879.0
881.0
879.0
880.0
878.0
877.0
877.0
876.0
878.0
880.0
881.0
885.0
884.0
884.0
890.0
891.0
896.0
896.0
895.0
894.0
893.0
897.0
904.0
910.0
913.0
916.0
917.0
915.0
914.0
912.0
914.0
909.0
906.0
904.0
901.0
904.0
906.0
912.0
918.0
919.0
921.0
915.0
906.0
895.0
883.0
879.0
874.0
874.0
876.0
877.0
877.0
874.0
868.0
867.0
866.0
862.0
860.0
860.0
860.0
860.0
863.0
865.0
868.0
868.0
868.0
865.0
864.0
865.0
862.0
865.0
862.0
866.0
859.0
864.0
863.0
862.0
866.0
862.0
862.0
856.0
858.0
864.0
868.0
870.0
871.0
869.0
869.0
867.0
872.0
886.0
912.0
942.0
971.0
1000.0
1017.0
1019.0
1014.0
1008.0
1013.0
1031.0
1061.0
1099.0
1119.0
1116.0
1078.0
994.0
892.0
790.0
709.0
657.0
636.0
624.0
623.0
623.0
622.0
616.0
616.0
616.0
620.0
618.0
625.0
631.0
639.0
658.0
675.0
696.0
720.0
746.0
770.0
789.0
807.0
821.0
828.0
832.0
835.0
840.0
840.0
846.0
849.0
848.0
847.0
846.0
849.0
849.0
850.0
854.0
855.0
860.0
861.0
860.0
855.0
850.0
841.0
839.0
840.0
846.0
852.0
851.0
852.0
851.0
845.0
842.0
837.0
839.0
836.0
834.0
830.0
826.0
824.0
823.0
824.0
825.0
822.0
823.0
821.0
815.0
810.0
811.0
811.0
814.0
810.0
812.0
812.0
811.0
808.0
802.0
805.0
806.0
812.0
813.0
815.0
819.0
814.0
817.0
821.0
826.0
827.0
827.0
830.0
835.0
835.0
836.0
843.0
847.0
850.0
861.0
865.0
864.0
864.0
861.0
860.0
856.0
858.0
859.0
863.0
866.0
869.0
874.0
878.0
880.0
876.0
875.0
871.0
874.0
873.0
878.0
877.0
879.0
879.0
878.0
876.0
877.0
874.0
874.0
875.0
874.0
873.0
872.0
872.0
870.0
874.0
872.0
873.0
873.0
872.0
872.0
867.0
863.0
861.0
858.0
862.0
864.0
864.0
865.0
861.0
862.0
866.0
864.0
863.0
859.0
857.0
857.0
860.0
863.0
861.0
862.0
865.0
867.0
866.0
860.0
856.0
855.0
854.0
856.0
861.0
866.0
870.0
869.0
871.0
869.0
867.0
864.0
862.0
861.0
856.0
863.0
864.0
869.0
868.0
871.0
874.0
874.0
870.0
871.0
867.0
867.0
863.0
864.0
863.0
865.0
870.0
873.0
878.0
880.0
880.0
881.0
880.0
878.0
883.0
887.0
886.0
885.0
888.0
890.0
894.0
900.0
906.0
910.0
912.0
912.0
909.0
910.0
904.0
901.0
898.0
896.0
894.0
897.0
902.0
905.0
911.0
908.0
908.0
901.0
898.0
893.0
888.0
881.0
873.0
866.0
866.0
865.0
866.0
866.0
862.0
858.0
856.0
856.0
857.0
861.0
862.0
862.0
860.0
857.0
852.0
851.0
845.0
844.0
844.0
846.0
852.0
856.0
860.0
862.0
860.0
855.0
853.0
849.0
848.0
848.0
844.0
845.0
849.0
856.0
859.0
858.0
857.0
856.0
851.0
848.0
849.0
856.0
870.0
891.0
914.0
946.0
970.0
986.0
999.0
1002.0
992.0
987.0
992.0
1013.0
1046.0
1082.0
1111.0
1110.0
1069.0
983.0
877.0
774.0
690.0
635.0
612.0
604.0
603.0
607.0
608.0
608.0
612.0
609.0
608.0
607.0
607.0
612.0
613.0
626.0
640.0
661.0
689.0
723.0
754.0
778.0
799.0
811.0
815.0
815.0
819.0
824.0
830.0
836.0
841.0
846.0
847.0
847.0
843.0
841.0
838.0
841.0
840.0
842.0
844.0
843.0
842.0
841.0
842.0
843.0
843.0
841.0
838.0
834.0
826.0
824.0
824.0
824.0
827.0
829.0
830.0
827.0
822.0
814.0
810.0
810.0
811.0
812.0
806.0
803.0
804.0
805.0
805.0
806.0
805.0
803.0
799.0
799.0
799.0
801.0
803.0
804.0
805.0
805.0
805.0
804.0
804.0
802.0
811.0
814.0
817.0
817.0
822.0
827.0
832.0
837.0
842.0
846.0
848.0
848.0
846.0
841.0
842.0
844.0
847.0
851.0
859.0
861.0
869.0
865.0
865.0
864.0
863.0
861.0
858.0
859.0
860.0
863.0
866.0
869.0
872.0
871.0
871.0
868.0
869.0
864.0
863.0
862.0
861.0
863.0
866.0
866.0
868.0
863.0
863.0
865.0
865.0
865.0
862.0
856.0
856.0
852.0
855.0
858.0
862.0
861.0
860.0
859.0
861.0
859.0
859.0
858.0
854.0
857.0
858.0
858.0
857.0
861.0
860.0
859.0
856.0
857.0
855.0
856.0
854.0
859.0
860.0
865.0
869.0
871.0
868.0
866.0
865.0
861.0
858.0
854.0
854.0
858.0
860.0
866.0
868.0
869.0
867.0
862.0
857.0
856.0
856.0
860.0
863.0
864.0
867.0
870.0
871.0
869.0
867.0
866.0
866.0
866.0
869.0
872.0
871.0
876.0
883.0
886.0
890.0
887.0
886.0
883.0
882.0
886.0
893.0
901.0
907.0
911.0
911.0
909.0
905.0
900.0
895.0
894.0
889.0
892.0
894.0
904.0
906.0
913.0
909.0
906.0
900.0
890.0
881.0
874.0
868.0
866.0
865.0
864.0
861.0
861.0
860.0
856.0
856.0
851.0
853.0
855.0
856.0
856.0
858.0
855.0
849.0
846.0
849.0
850.0
852.0
855.0
858.0
855.0
852.0
849.0
853.0
851.0
854.0
856.0
857.0
858.0
860.0
859.0
854.0
854.0
850.0
848.0
849.0
846.0
850.0
861.0
879.0
910.0
944.0
980.0
1010.0
1028.0
1032.0
1025.0
1018.0
1016.0
1027.0
1055.0
1084.0
1105.0
1100.0
1051.0
966.0
860.0
758.0
679.0
630.0
606.0
595.0
593.0
604.0
608.0
610.0
610.0
608.0
606.0
604.0
608.0
614.0
624.0
636.0
656.0
681.0
713.0
739.0
768.0
789.0
805.0
815.0
819.0
821.0
822.0
825.0
827.0
832.0
836.0
836.0
840.0
839.0
841.0
841.0
841.0
839.0
839.0
838.0
837.0
841.0
839.0
844.0
843.0
839.0
836.0
835.0
831.0
830.0
827.0
823.0
826.0
824.0
822.0
823.0
819.0
815.0
814.0
812.0
812.0
810.0
809.0
805.0
806.0
805.0
805.0
804.0
803.0
802.0
799.0
796.0
794.0
792.0
793.0
792.0
793.0
797.0
802.0
804.0
805.0
805.0
806.0
807.0
804.0
806.0
812.0
815.0
819.0
822.0
831.0
834.0
839.0
842.0
843.0
846.0
849.0
850.0
