# Simple Text Format
# Sampling Rate (Hz):= 360.00
# Resolution:= 12
# Labels:= ECG
935.0
927.0
913.0
897.0
888.0
884.0
885.0
885.0
889.0
893.0
893.0
896.0
896.0
892.0
880.0
870.0
863.0
863.0
865.0
869.0
873.0
879.0
885.0
887.0
884.0
871.0
861.0
856.0
861.0
868.0
877.0
880.0
882.0
884.0
878.0
877.0
872.0
873.0
873.0
875.0
878.0
884.0
896.0
909.0
922.0
949.0
979.0
1011.0
1038.0
1044.0
1040.0
1036.0
1034.0
1051.0
1082.0
1113.0
1135.0
1145.0
1116.0
1055.0
967.0
871.0
784.0
719.0
675.0
654.0
644.0
639.0
639.0
637.0
626.0
615.0
609.0
607.0
612.0
615.0
621.0
625.0
630.0
634.0
639.0
654.0
675.0
703.0
733.0
763.0
789.0
811.0
820.0
830.0
836.0
832.0
837.0
843.0
846.0
849.0
850.0
849.0
849.0
852.0
854.0
857.0
859.0
856.0
853.0
846.0
839.0
845.0
850.0
854.0
855.0
854.0
850.0
843.0
843.0
839.0
837.0
842.0
847.0
850.0
848.0
833.0
816.0
808.0
810.0
819.0
827.0
832.0
832.0
828.0
825.0
824.0
820.0
811.0
802.0
794.0
790.0
794.0
796.0
802.0
804.0
803.0
805.0
802.0
798.0
794.0
791.0
790.0
793.0
796.0
804.0
804.0
807.0
812.0
810.0
815.0
818.0
816.0
817.0
817.0
818.0
824.0
829.0
836.0
841.0
850.0
852.0
852.0
851.0
852.0
854.0
856.0
857.0
861.0
864.0
867.0
870.0
876.0
878.0
876.0
876.0
874.0
875.0
873.0
874.0
877.0
883.0
883.0
884.0
885.0
886.0
883.0
880.0
876.0
873.0
875.0
877.0
877.0
878.0
884.0
887.0
884.0
880.0
880.0
879.0
876.0
877.0
874.0
874.0
877.0
879.0
878.0
881.0
883.0
881.0
880.0
876.0
870.0
866.0
870.0
872.0
881.0
884.0
885.0
885.0
885.0
883.0
882.0
879.0
878.0
877.0
879.0
881.0
880.0
884.0
884.0
886.0
894.0
892.0
893.0
891.0
890.0
889.0
885.0
890.0
887.0
888.0
889.0
890.0
895.0
895.0
893.0
891.0
890.0
890.0
885.0
891.0
894.0
894.0
896.0
901.0
899.0
899.0
901.0
905.0
904.0
906.0
910.0
913.0
914.0
915.0
918.0
923.0
927.0
931.0
933.0
934.0
931.0
933.0
933.0
934.0
935.0
935.0
932.0
927.0
925.0
921.0
919.0
919.0
922.0
922.0
930.0
933.0
935.0
936.0
928.0
925.0
921.0
915.0
908.0
906.0
902.0
896.0
896.0
895.0
898.0
897.0
898.0
898.0
892.0
894.0
891.0
890.0
889.0
887.0
890.0
891.0
893.0
892.0
898.0
900.0
898.0
899.0
892.0
892.0
889.0
887.0
884.0
886.0
886.0
887.0
890.0
890.0
890.0
890.0
890.0
882.0
877.0
878.0
878.0
884.0
904.0
933.0
970.0
1006.0
1031.0
1046.0
1048.0
1039.0
1035.0
1044.0
1068.0
1108.0
1147.0
1175.0
1177.0
1144.0
1074.0
979.0
886.0
809.0
751.0
718.0
691.0
680.0
669.0
666.0
661.0
660.0
656.0
657.0
651.0
656.0
655.0
655.0
656.0
661.0
674.0
691.0
721.0
752.0
784.0
812.0
833.0
848.0
860.0
864.0
863.0
863.0
864.0
866.0
869.0
873.0
874.0
875.0
873.0
874.0
873.0
872.0
872.0
871.0
869.0
873.0
874.0
873.0
875.0
878.0
874.0
873.0
870.0
864.0
862.0
857.0
856.0
853.0
854.0
854.0
853.0
852.0
852.0
849.0
846.0
842.0
839.0
836.0
834.0
835.0
831.0
835.0
832.0
830.0
832.0
830.0
828.0
826.0
827.0
826.0
825.0
830.0
833.0
831.0
835.0
837.0
833.0
831.0
833.0
832.0
833.0
830.0
842.0
848.0
855.0
857.0
860.0
870.0
872.0
873.0
874.0
875.0
877.0
876.0
876.0
880.0
886.0
890.0
895.0
897.0
900.0
903.0
902.0
900.0
898.0
897.0
898.0
898.0
901.0
903.0
903.0
906.0
903.0
905.0
902.0
900.0
900.0
899.0
896.0
900.0
901.0
902.0
903.0
904.0
900.0
897.0
898.0
896.0
892.0
893.0
891.0
891.0
892.0
895.0
894.0
897.0
895.0
895.0
891.0
889.0
886.0
888.0
889.0
890.0
893.0
895.0
897.0
898.0
894.0
897.0
893.0
890.0
894.0
893.0
891.0
891.0
892.0
896.0
898.0
899.0
899.0
899.0
893.0
896.0
894.0
892.0
893.0
894.0
896.0
892.0
899.0
899.0
900.0
899.0
895.0
896.0
894.0
896.0
895.0
897.0
901.0
902.0
906.0
911.0
913.0
918.0
919.0
916.0
919.0
919.0
923.0
927.0
932.0
935.0
936.0
939.0
938.0
941.0
940.0
939.0
935.0
927.0
923.0
920.0
920.0
918.0
917.0
918.0
923.0
925.0
934.0
933.0
934.0
933.0
930.0
923.0
917.0
911.0
910.0
906.0
903.0
901.0
896.0
893.0
890.0
890.0
891.0
892.0
892.0
893.0
891.0
889.0
886.0
885.0
886.0
889.0
885.0
885.0
880.0
883.0
886.0
891.0
890.0
888.0
891.0
888.0
889.0
888.0
884.0
886.0
883.0
884.0
876.0
878.0
875.0
878.0
888.0
907.0
936.0
963.0
993.0
1012.0
1021.0
1026.0
1029.0
1042.0
1075.0
1114.0
1153.0
1178.0
1178.0
1137.0
1060.0
968.0
874.0
802.0
754.0
728.0
715.0
700.0
686.0
666.0
653.0
642.0
636.0
632.0
631.0
630.0
626.0
635.0
649.0
665.0
682.0
699.0
719.0
742.0
766.0
787.0
808.0
827.0
842.0
855.0
859.0
866.0
869.0
870.0
874.0
876.0
875.0
874.0
874.0
877.0
884.0
883.0
885.0
885.0
886.0
883.0
879.0
878.0
878.0
874.0
874.0
876.0
878.0
875.0
878.0
876.0
875.0
874.0
870.0
867.0
862.0
857.0
854.0
850.0
852.0
852.0
851.0
852.0
849.0
847.0
845.0
842.0
839.0
836.0
836.0
835.0
833.0
833.0
832.0
834.0
836.0
834.0
835.0
834.0
832.0
829.0
832.0
834.0
835.0
837.0
839.0
844.0
845.0
847.0
847.0
850.0
851.0
854.0
859.0
861.0
863.0
869.0
878.0
881.0
881.0
882.0
885.0
887.0
888.0
890.0
892.0
891.0
894.0
900.0
902.0
907.0
904.0
905.0
905.0
903.0
907.0
907.0
906.0
906.0
909.0
908.0
908.0
907.0
909.0
908.0
907.0
908.0
905.0
904.0
906.0
907.0
906.0
907.0
910.0
911.0
906.0
904.0
901.0
902.0
897.0
895.0
896.0
897.0
899.0
901.0
904.0
906.0
904.0
904.0
903.0
900.0
899.0
896.0
893.0
893.0
895.0
899.0
901.0
904.0
903.0
899.0
894.0
895.0
895.0
899.0
900.0
904.0
904.0
904.0
906.0
905.0
901.0
898.0
901.0
900.0
900.0
899.0
904.0
905.0
909.0
906.0
907.0
906.0
907.0
907.0
905.0
907.0
907.0
906.0
909.0
913.0
919.0
921.0
931.0
931.0
932.0
931.0
931.0
927.0
932.0
932.0
935.0
939.0
941.0
944.0
948.0
954.0
954.0
955.0
953.0
950.0
944.0
935.0
928.0
928.0
928.0
929.0
937.0
946.0
949.0
957.0
954.0
949.0
943.0
931.0
924.0
921.0
919.0
919.0
917.0
914.0
911.0
909.0
901.0
899.0
897.0
893.0
894.0
894.0
898.0
902.0
902.0
907.0
905.0
904.0
900.0
897.0
894.0
895.0
892.0
894.0
895.0
898.0
899.0
900.0
899.0
897.0
896.0
892.0
895.0
890.0
891.0
892.0
892.0
893.0
901.0
915.0
941.0
972.0
1005.0
1039.0
1058.0
1067.0
1061.0
1059.0
1066.0
1090.0
1125.0
1160.0
1182.0
1178.0
1132.0
1053.0
948.0
850.0
769.0
717.0
689.0
677.0
674.0
670.0
663.0
651.0
648.0
642.0
639.0
637.0
639.0
638.0
639.0
647.0
659.0
669.0
688.0
712.0
744.0
775.0
803.0
827.0
840.0
858.0
862.0
866.0
870.0
871.0
875.0
877.0
875.0
876.0
882.0
877.0
877.0
877.0
879.0
877.0
882.0
883.0
883.0
883.0
882.0
877.0
873.0
872.0
868.0
871.0
872.0
870.0
866.0
869.0
866.0
862.0
861.0
861.0
856.0
850.0
845.0
848.0
846.0
848.0
843.0
846.0
845.0
842.0
840.0
837.0
833.0
832.0
830.0
829.0
829.0
830.0
832.0
832.0
829.0
831.0
830.0
828.0
827.0
830.0
830.0
836.0
838.0
844.0
848.0
851.0
848.0
849.0
857.0
855.0
857.0
860.0
860.0
867.0
870.0
877.0
885.0
889.0
889.0
892.0
890.0
892.0
893.0
894.0
897.0
896.0
902.0
906.0
908.0
909.0
908.0
907.0
903.0
903.0
902.0
903.0
902.0
905.0
905.0
906.0
909.0
910.0
911.0
909.0
908.0
908.0
904.0
900.0
900.0
901.0
904.0
908.0
906.0
907.0
906.0
903.0
903.0
901.0
902.0
899.0
899.0
897.0
900.0
900.0
898.0
898.0
895.0
895.0
897.0
892.0
892.0
895.0
891.0
896.0
897.0
897.0
900.0
900.0
901.0
897.0
897.0
896.0
893.0
893.0
894.0
892.0
895.0
900.0
900.0
903.0
902.0
903.0
903.0
900.0
898.0
893.0
893.0
894.0
895.0
901.0
901.0
900.0
902.0
900.0
901.0
903.0
900.0
899.0
900.0
899.0
899.0
900.0
902.0
904.0
903.0
903.0
903.0
907.0
909.0
916.0
918.0
921.0
924.0
927.0
928.0
931.0
931.0
935.0
940.0
940.0
940.0
942.0
938.0
937.0
935.0
933.0
932.0
927.0
924.0
924.0
923.0
925.0
929.0
931.0
936.0
941.0
940.0
940.0
937.0
926.0
918.0
913.0
908.0
904.0
900.0
895.0
894.0
889.0
889.0
892.0
892.0
892.0
890.0
889.0
885.0
880.0
882.0
882.0
885.0
886.0
886.0
889.0
892.0
887.0
884.0
884.0
881.0
879.0
880.0
881.0
882.0
881.0
885.0
884.0
887.0
883.0
887.0
885.0
884.0
882.0
877.0
878.0
871.0
869.0
875.0
885.0
909.0
938.0
971.0
1004.0
1022.0
1029.0
1028.0
1028.0
1043.0
1079.0
1123.0
1167.0
1194.0
1186.0
1135.0
1055.0
956.0
865.0
790.0
745.0
720.0
705.0
694.0
682.0
666.0
657.0
643.0
637.0
637.0
634.0
639.0
639.0
640.0
644.0
650.0
662.0
679.0
704.0
731.0
756.0
787.0
812.0
826.0
841.0
851.0
854.0
858.0
860.0
866.0
872.0
869.0
873.0
873.0
875.0
874.0
872.0
872.0
875.0
876.0
880.0
880.0
881.0
879.0
879.0
876.0
879.0
875.0
874.0
871.0
863.0
865.0
863.0
864.0
866.0
865.0
861.0
856.0
851.0
850.0
845.0
842.0
839.0
836.0
834.0
834.0
832.0
834.0
833.0
830.0
831.0
826.0
826.0
825.0
823.0
824.0
828.0
829.0
831.0
829.0
824.0
821.0
819.0
821.0
824.0
831.0
832.0
836.0
844.0
848.0
852.0
851.0
856.0
857.0
860.0
863.0
865.0
870.0
874.0
877.0
882.0
886.0
889.0
892.0
894.0
896.0
897.0
893.0
895.0
893.0
897.0
897.0
897.0
902.0
905.0
904.0
904.0
906.0
901.0
900.0
897.0
896.0
899.0
901.0
903.0
905.0
907.0
903.0
900.0
901.0
898.0
897.0
889.0
893.0
896.0
894.0
894.0
896.0
897.0
894.0
892.0
894.0
889.0
886.0
887.0
887.0
884.0
888.0
888.0
893.0
892.0
893.0
892.0
893.0
891.0
890.0
888.0
888.0
887.0
887.0
893.0
893.0
895.0
896.0
895.0
898.0
897.0
897.0
895.0
891.0
891.0
891.0
891.0
890.0
896.0
898.0
897.0
897.0
892.0
891.0
891.0
891.0
891.0
897.0
899.0
900.0
904.0
905.0
904.0
901.0
901.0
900.0
904.0
905.0
910.0
915.0
916.0
923.0
923.0
923.0
923.0
927.0
932.0
938.0
940.0
949.0
948.0
946.0
940.0
935.0
931.0
925.0
927.0
927.0
933.0
937.0
942.0
945.0
946.0
942.0
936.0
926.0
919.0
908.0
904.0
901.0
901.0
898.0
895.0
891.0
889.0
889.0
888.0
888.0
889.0
889.0
888.0
887.0
880.0
883.0
880.0
885.0
881.0
884.0
889.0
889.0
890.0
888.0
886.0
884.0
878.0
877.0
879.0
881.0
880.0
885.0
884.0
888.0
888.0
888.0
882.0
880.0
878.0
874.0
872.0
882.0
904.0
933.0
968.0
1002.0
1031.0
1038.0
1035.0
1030.0
1035.0
1055.0
1098.0
1143.0
1177.0
1180.0
1138.0
1051.0
941.0
829.0
747.0
694.0
664.0
646.0
641.0
632.0
628.0
625.0
622.0
627.0
628.0
628.0
629.0
627.0
627.0
633.0
637.0
651.0
671.0
700.0
731.0
761.0
793.0
816.0
834.0
845.0
854.0
852.0
858.0
859.0
862.0
867.0
872.0
877.0
879.0
881.0
884.0
882.0
880.0
873.0
872.0
872.0
873.0
877.0
879.0
883.0
882.0
876.0
875.0
873.0
872.0
866.0
861.0
859.0
859.0
861.0
860.0
862.0
860.0
859.0
855.0
850.0
847.0
843.0
841.0
838.0
835.0
834.0
834.0
833.0
833.0
830.0
831.0
830.0
827.0
826.0
824.0
821.0
823.0
825.0
825.0
825.0
830.0
829.0
831.0
833.0
830.0
832.0
834.0
835.0
838.0
842.0
845.0
852.0
860.0
862.0
868.0
868.0
871.0
871.0
874.0
875.0
877.0
879.0
885.0
885.0
888.0
890.0
891.0
893.0
893.0
895.0
894.0
893.0
896.0
898.0
898.0
900.0
902.0
901.0
901.0
900.0
901.0
901.0
900.0
900.0
898.0
901.0
905.0
904.0
906.0
904.0
900.0
898.0
897.0
897.0
893.0
895.0
892.0
895.0
897.0
896.0
899.0
898.0
901.0
900.0
896.0
894.0
891.0
891.0
889.0
887.0
889.0
891.0
892.0
894.0
894.0
892.0
889.0
892.0
893.0
894.0
892.0
892.0
892.0
890.0
893.0
892.0
895.0
893.0
894.0
892.0
889.0
893.0
892.0
895.0
898.0
899.0
901.0
898.0
895.0
893.0
893.0
890.0
889.0
892.0
894.0
898.0
896.0
895.0
899.0
899.0
900.0
900.0
900.0
899.0
900.0
899.0
896.0
895.0
899.0
902.0
904.0
906.0
907.0
910.0
913.0
913.0
917.0
917.0
919.0
919.0
921.0
925.0
927.0
934.0
940.0
942.0
945.0
942.0
939.0
931.0
927.0
927.0
926.0
923.0
929.0
930.0
934.0
937.0
942.0
943.0
942.0
935.0
928.0
923.0
917.0
912.0
910.0
904.0
900.0
898.0
895.0
892.0
888.0
886.0
886.0
887.0
886.0
888.0
889.0
885.0
887.0
884.0
884.0
882.0
879.0
875.0
875.0
879.0
880.0
883.0
884.0
883.0
884.0
883.0
880.0
877.0
876.0
877.0
876.0
878.0
881.0
881.0
883.0
879.0
874.0
871.0
870.0
869.0
874.0
887.0
912.0
948.0
988.0
1019.0
1038.0
1041.0
1038.0
1049.0
1072.0
1110.0
1152.0
1175.0
1150.0
1080.0
982.0
876.0
788.0
725.0
686.0
667.0
655.0
645.0
639.0
633.0
630.0
630.0
634.0
636.0
635.0
637.0
638.0
641.0
651.0
667.0
693.0
720.0
754.0
783.0
807.0
826.0
843.0
852.0
858.0
859.0
858.0
859.0
862.0
864.0
867.0
871.0
872.0
875.0
876.0
876.0
874.0
873.0
873.0
874.0
873.0
873.0
867.0
866.0
865.0
865.0
868.0
866.0
863.0
864.0
858.0
853.0
851.0
846.0
844.0
844.0
845.0
840.0
842.0
836.0
830.0
828.0
824.0
822.0
819.0
817.0
817.0
818.0
820.0
821.0
824.0
819.0
819.0
818.0
815.0
818.0
813.0
812.0
814.0
822.0
823.0
829.0
831.0
833.0
831.0
832.0
836.0
839.0
846.0
851.0
859.0
864.0
867.0
871.0
875.0
871.0
870.0
876.0
876.0
881.0
882.0
883.0
885.0
892.0
894.0
896.0
898.0
893.0
894.0
894.0
892.0
893.0
893.0
893.0
892.0
894.0
898.0
902.0
903.0
901.0
899.0
896.0
894.0
894.0
895.0
891.0
894.0
898.0
895.0
895.0
891.0
891.0
890.0
890.0
890.0
892.0
890.0
889.0
887.0
886.0
886.0
885.0
885.0
884.0
886.0
886.0
887.0
884.0
885.0
884.0
886.0
885.0
886.0
889.0
891.0
887.0
882.0
884.0
882.0
882.0
882.0
884.0
885.0
888.0
889.0
889.0
892.0
891.0
890.0
887.0
886.0
884.0
882.0
884.0
884.0
884.0
888.0
888.0
894.0
894.0
891.0
892.0
889.0
888.0
888.0
891.0
890.0
892.0
895.0
896.0
896.0
892.0
897.0
900.0
902.0
902.0
904.0
908.0
910.0
914.0
917.0
921.0
923.0
923.0
927.0
930.0
938.0
939.0
941.0
940.0
938.0
936.0
935.0
933.0
931.0
927.0
921.0
920.0
921.0
927.0
934.0
936.0
934.0
937.0
933.0
929.0
925.0
917.0
909.0
903.0
898.0
894.0
891.0
887.0
887.0
887.0
886.0
887.0
889.0
885.0
882.0
879.0
875.0
874.0
876.0
875.0
876.0
876.0
879.0
878.0
878.0
880.0
881.0
879.0
875.0
872.0
872.0
870.0
870.0
872.0
876.0
879.0
877.0
880.0
880.0
876.0
874.0
872.0
867.0
867.0
871.0
890.0
914.0
944.0
976.0
1004.0
1018.0
1020.0
1018.0
1020.0
1036.0
1067.0
1114.0
1158.0
1182.0
1174.0
1123.0
1030.0
923.0
823.0
743.0
695.0
675.0
662.0
653.0
647.0
641.0
632.0
627.0
622.0
620.0
615.0
617.0
616.0
613.0
619.0
623.0
637.0
653.0
673.0
699.0
728.0
757.0
782.0
800.0
815.0
828.0
831.0
841.0
846.0
853.0
853.0
860.0
864.0
862.0
863.0
867.0
864.0
864.0
864.0
867.0
869.0
869.0
873.0
875.0
872.0
869.0
863.0
862.0
861.0
862.0
863.0
863.0
864.0
859.0
855.0
860.0
858.0
855.0
854.0
853.0
845.0
842.0
839.0
837.0
838.0
836.0
830.0
833.0
831.0
829.0
828.0
825.0
822.0
822.0
816.0
818.0
817.0
816.0
817.0
822.0
824.0
823.0
822.0
820.0
817.0
818.0
819.0
820.0
827.0
832.0
839.0
843.0
846.0
847.0
852.0
852.0
853.0
852.0
857.0
859.0
865.0
869.0
879.0
885.0
884.0
887.0
889.0
887.0
888.0
887.0
891.0
889.0
892.0
893.0
895.0
898.0
897.0
896.0
894.0
896.0
896.0
897.0
895.0
893.0
894.0
895.0
897.0
898.0
898.0
897.0
899.0
894.0
888.0
888.0
886.0
887.0
892.0
892.0
893.0
892.0
891.0
891.0
889.0
885.0
887.0
881.0
880.0
884.0
886.0
889.0
890.0
888.0
887.0
884.0
882.0
878.0
879.0
880.0
886.0
880.0
881.0
878.0
884.0
886.0
890.0
894.0
894.0
896.0
896.0
891.0
886.0
884.0
883.0
880.0
880.0
878.0
886.0
897.0
906.0
908.0
898.0
884.0
880.0
881.0
886.0
894.0
899.0
899.0
901.0
902.0
905.0
905.0
900.0
888.0
880.0
881.0
887.0
892.0
895.0
894.0
899.0
904.0
911.0
914.0
912.0
914.0
917.0
918.0
919.0
911.0
908.0
915.0
928.0
938.0
949.0
957.0
958.0
952.0
939.0
928.0
918.0
914.0
915.0
916.0
921.0
928.0
940.0
949.0
949.0
942.0
927.0
917.0
908.0
900.0
899.0
900.0
901.0
897.0
894.0
891.0
885.0
883.0
882.0
881.0
873.0
862.0
848.0
849.0
857.0
869.0
880.0
883.0
885.0
880.0
872.0
859.0
850.0
848.0
858.0
870.0
881.0
886.0
886.0
880.0
876.0
872.0
868.0
871.0
876.0
878.0
875.0
872.0
860.0
850.0
842.0
854.0
872.0
897.0
929.0
961.0
995.0
1020.0
1029.0
1026.0
1017.0
1014.0
1030.0
1067.0
1117.0
1154.0
1168.0
1141.0
1069.0
971.0
865.0
773.0
699.0
657.0
638.0
631.0
625.0
617.0
602.0
581.0
566.0
553.0
557.0
566.0
575.0
584.0
588.0
593.0
597.0
605.0
624.0
652.0
688.0
723.0
749.0
770.0
785.0
798.0
809.0
813.0
819.0
819.0
816.0
818.0
824.0
828.0
829.0
826.0
828.0
833.0
836.0
839.0
842.0
841.0
840.0
835.0
830.0
822.0
817.0
819.0
818.0
817.0
814.0
815.0
818.0
819.0
816.0
810.0
804.0
797.0
796.0
797.0
794.0
793.0
791.0
788.0
787.0
783.0
785.0
784.0
783.0
776.0
772.0
768.0
770.0
772.0
780.0
786.0
789.0
785.0
781.0
775.0
774.0
779.0
780.0
781.0
783.0
785.0
791.0
797.0
803.0
798.0
788.0
773.0
768.0
780.0
796.0
814.0
825.0
829.0
827.0
830.0
829.0
830.0
835.0
838.0
841.0
841.0
843.0
847.0
844.0
841.0
842.0
847.0
849.0
850.0
846.0
844.0
842.0
840.0
841.0
845.0
850.0
849.0
847.0
843.0
850.0
849.0
851.0
845.0
837.0
827.0
830.0
845.0
856.0
862.0
860.0
849.0
835.0
822.0
818.0
820.0
833.0
848.0
854.0
856.0
845.0
837.0
833.0
829.0
830.0
836.0
838.0
842.0
841.0
840.0
836.0
832.0
834.0
830.0
832.0
833.0
834.0
839.0
842.0
843.0
840.0
837.0
841.0
847.0
853.0
857.0
849.0
837.0
826.0
825.0
834.0
845.0
852.0
857.0
859.0
854.0
847.0
841.0
838.0
836.0
835.0
838.0
838.0
847.0
853.0
852.0
847.0
843.0
843.0
843.0
845.0
851.0
847.0
841.0
833.0
838.0
845.0
856.0
867.0
873.0
872.0
865.0
855.0
846.0
840.0
843.0
854.0
865.0
872.0
875.0
876.0
881.0
888.0
888.0
882.0
875.0
871.0
874.0
880.0
888.0
898.0
907.0
908.0
905.0
901.0
894.0
890.0
880.0
875.0
876.0
881.0
895.0
903.0
908.0
909.0
902.0
896.0
882.0
867.0
852.0
839.0
833.0
834.0
836.0
845.0
855.0
861.0
865.0
870.0
862.0
846.0
829.0
826.0
839.0
851.0
857.0
852.0
842.0
839.0
840.0
841.0
844.0
849.0
846.0
841.0
830.0
826.0
825.0
829.0
836.0
834.0
837.0
837.0
844.0
849.0
856.0
852.0
843.0
833.0
824.0
822.0
831.0
847.0
878.0
925.0
972.0
1011.0
1028.0
1026.0
1014.0
1010.0
1019.0
1047.0
1087.0
1126.0
1162.0
1176.0
1169.0
1133.0
1061.0
970.0
873.0
786.0
726.0
692.0
673.0
658.0
643.0
623.0
608.0
596.0
587.0
585.0
581.0
579.0
578.0
586.0
593.0
594.0
598.0
605.0
621.0
652.0
683.0
716.0
744.0
766.0
785.0
800.0
808.0
807.0
808.0
802.0
793.0
791.0
790.0
793.0
796.0
803.0
810.0
817.0
818.0
819.0
818.0
812.0
801.0
792.0
793.0
797.0
800.0
801.0
800.0
798.0
799.0
794.0
791.0
791.0
795.0
791.0
782.0
764.0
756.0
752.0
759.0
769.0
777.0
779.0
779.0
777.0
768.0
756.0
747.0
742.0
738.0
737.0
743.0
749.0
749.0
750.0
746.0
749.0
747.0
746.0
740.0
731.0
731.0
726.0
728.0
734.0
753.0
767.0
774.0
778.0
772.0
780.0
776.0
782.0
785.0
785.0
785.0
790.0
792.0
796.0
801.0
803.0
804.0
809.0
812.0
818.0
826.0
830.0
822.0
824.0
820.0
819.0
822.0
829.0
833.0
834.0
830.0
823.0
820.0
824.0
826.0
825.0
825.0
823.0
833.0
836.0
842.0
838.0
832.0
826.0
824.0
822.0
822.0
820.0
825.0
827.0
827.0
823.0
821.0
820.0
818.0
819.0
818.0
817.0
818.0
818.0
818.0
819.0
819.0
819.0
816.0
811.0
807.0
809.0
813.0
820.0
818.0
820.0
815.0
808.0
808.0
808.0
808.0
810.0
807.0
802.0
795.0
795.0
792.0
795.0
804.0
808.0
813.0
818.0
815.0
818.0
812.0
803.0
797.0
793.0
798.0
806.0
813.0
813.0
816.0
819.0
816.0
815.0
811.0
806.0
799.0
796.0
795.0
798.0
799.0
800.0
804.0
808.0
809.0
815.0
816.0
820.0
814.0
812.0
813.0
814.0
826.0
829.0
835.0
838.0
837.0
834.0
830.0
832.0
836.0
840.0
850.0
852.0
855.0
854.0
854.0
846.0
839.0
834.0
832.0
831.0
837.0
839.0
836.0
835.0
833.0
841.0
852.0
851.0
848.0
839.0
822.0
814.0
803.0
796.0
797.0
794.0
789.0
790.0
790.0
794.0
797.0
796.0
794.0
793.0
789.0
790.0
790.0
794.0
802.0
804.0
808.0
809.0
802.0
791.0
783.0
779.0
781.0
790.0
793.0
795.0
801.0
802.0
801.0
800.0
805.0
802.0
803.0
801.0
798.0
795.0
792.0
791.0
791.0
800.0
817.0
844.0
878.0
917.0
950.0
970.0
975.0
971.0
966.0
976.0
1004.0
1054.0
1106.0
1141.0
1145.0
1109.0
1025.0
924.0
823.0
746.0
690.0
653.0
625.0
602.0
588.0
580.0
570.0
562.0
549.0
544.0
544.0
549.0
557.0
562.0
566.0
574.0
585.0
596.0
617.0
643.0
673.0
694.0
719.0
735.0
752.0
764.0
771.0
778.0
782.0
785.0
788.0
786.0
792.0
789.0
791.0
794.0
795.0
793.0
790.0
790.0
788.0
784.0
785.0
789.0
792.0
794.0
780.0
773.0
770.0
774.0
780.0
782.0
785.0
786.0
785.0
784.0
779.0
778.0
773.0
767.0
761.0
759.0
762.0
766.0
768.0
771.0
765.0
760.0
753.0
748.0
745.0
745.0
748.0
748.0
750.0
749.0
752.0
750.0
749.0
747.0
747.0
740.0
739.0
739.0
743.0
749.0
754.0
758.0
764.0
772.0
774.0
775.0
779.0
782.0
786.0
785.0
784.0
781.0
788.0
801.0
814.0
821.0
823.0
826.0
823.0
819.0
820.0
821.0
823.0
825.0
828.0
827.0
831.0
831.0
832.0
831.0
832.0
832.0
837.0
834.0
836.0
833.0
834.0
838.0
838.0
840.0
837.0
840.0
831.0
832.0
828.0
827.0
829.0
832.0
834.0
836.0
839.0
839.0
839.0
839.0
837.0
836.0
831.0
828.0
825.0
823.0
820.0
817.0
821.0
826.0
833.0
832.0
829.0
825.0
823.0
822.0
822.0
824.0
828.0
832.0
835.0
835.0
832.0
835.0
831.0
829.0
829.0
831.0
834.0
832.0
834.0
831.0
834.0
832.0
832.0
836.0
839.0
839.0
832.0
828.0
837.0
834.0
836.0
833.0
826.0
829.0
841.0
849.0
851.0
846.0
837.0
833.0
832.0
836.0
840.0
845.0
842.0
841.0
838.0
840.0
842.0
845.0
842.0
843.0
843.0
842.0
844.0
844.0
844.0
845.0
849.0
855.0
863.0
872.0
875.0
877.0
874.0
866.0
865.0
865.0
870.0
877.0
887.0
895.0
903.0
902.0
894.0
881.0
873.0
870.0
871.0
877.0
882.0
888.0
892.0
898.0
901.0
897.0
891.0
877.0
868.0
863.0
862.0
857.0
855.0
854.0
851.0
844.0
840.0
831.0
827.0
827.0
828.0
830.0
837.0
840.0
842.0
838.0
832.0
830.0
830.0
830.0
834.0
835.0
831.0
830.0
833.0
833.0
837.0
837.0
831.0
829.0
829.0
830.0
827.0
832.0
832.0
833.0
829.0
822.0
817.0
816.0
820.0
835.0
857.0
884.0
919.0
957.0
989.0
1016.0
1022.0
1018.0
1016.0
1023.0
1049.0
1094.0
1137.0
1164.0
1166.0
1129.0
1056.0
961.0
860.0
778.0
721.0
678.0
654.0
635.0
613.0
599.0
590.0
587.0
585.0
586.0
588.0
583.0
583.0
581.0
583.0
588.0
596.0
611.0
631.0
661.0
698.0
728.0
757.0
779.0
793.0
802.0
806.0
807.0
808.0
810.0
810.0
812.0
817.0
818.0
819.0
819.0
820.0
819.0
816.0
817.0
815.0
815.0
810.0
811.0
809.0
808.0
809.0
809.0
809.0
809.0
805.0
807.0
803.0
799.0
795.0
786.0
783.0
783.0
780.0
781.0
785.0
788.0
787.0
784.0
782.0
774.0
773.0
764.0
763.0
760.0
764.0
764.0
767.0
765.0
765.0
765.0
764.0
762.0
762.0
765.0
765.0
766.0
775.0
778.0
784.0
785.0
787.0
789.0
792.0
798.0
796.0
799.0
799.0
803.0
812.0
818.0
825.0
830.0
832.0
837.0
839.0
836.0
835.0
836.0
834.0
838.0
839.0
845.0
846.0
845.0
848.0
849.0
851.0
847.0
848.0
848.0
848.0
847.0
849.0
850.0
853.0
851.0
853.0
850.0
849.0
848.0
850.0
849.0
850.0
849.0
851.0
850.0
854.0
853.0
852.0
851.0
845.0
847.0
842.0
841.0
844.0
842.0
845.0
845.0
849.0
850.0
849.0
848.0
846.0
846.0
841.0
838.0
840.0
839.0
842.0
842.0
845.0
845.0
847.0
848.0
844.0
845.0
842.0
842.0
839.0
841.0
842.0
843.0
846.0
848.0
845.0
844.0
843.0
842.0
845.0
842.0
840.0
842.0
843.0
849.0
851.0
849.0
848.0
849.0
848.0
846.0
846.0
844.0
842.0
846.0
849.0
851.0
850.0
855.0
857.0
854.0
855.0
855.0
852.0
853.0
854.0
858.0
862.0
864.0
869.0
873.0
873.0
877.0
879.0
878.0
877.0
877.0
885.0
888.0
898.0
903.0
900.0
899.0
888.0
888.0
882.0
874.0
871.0
872.0
875.0
881.0
889.0
894.0
897.0
904.0
901.0
893.0
884.0
869.0
861.0
852.0
847.0
843.0
844.0
843.0
845.0
845.0
845.0
840.0
838.0
835.0
835.0
831.0
831.0
830.0
829.0
832.0
831.0
833.0
834.0
833.0
832.0
831.0
827.0
826.0
826.0
827.0
825.0
829.0
827.0
833.0
835.0
835.0
834.0
829.0
827.0
822.0
823.0
821.0
820.0
828.0
839.0
868.0
896.0
932.0
965.0
993.0
1009.0
1010.0
1001.0
1002.0
1013.0
1039.0
1078.0
1130.0
