# Simple Text Format
# Sampling Rate (Hz):= 360.00
# Resolution:= 12
# Labels:= ECG
800.0
805.0
814.0
819.0
825.0
827.0
828.0
828.0
827.0
829.0
828.0
832.0
840.0
844.0
844.0
846.0
849.0
849.0
853.0
856.0
858.0
859.0
859.0
859.0
858.0
857.0
860.0
862.0
862.0
862.0
859.0
851.0
851.0
851.0
853.0
855.0
859.0
858.0
860.0
860.0
860.0
857.0
856.0
858.0
860.0
858.0
856.0
855.0
854.0
858.0
857.0
856.0
853.0
852.0
850.0
850.0
853.0
851.0
854.0
850.0
848.0
843.0
847.0
851.0
854.0
856.0
857.0
851.0
849.0
847.0
848.0
848.0
852.0
851.0
852.0
850.0
852.0
850.0
855.0
857.0
859.0
857.0
856.0
853.0
850.0
849.0
848.0
853.0
861.0
864.0
863.0
858.0
856.0
851.0
853.0
853.0
856.0
858.0
861.0
865.0
866.0
864.0
863.0
863.0
863.0
864.0
872.0
879.0
885.0
889.0
888.0
889.0
885.0
883.0
881.0
884.0
892.0
899.0
905.0
906.0
908.0
902.0
895.0
886.0
882.0
880.0
885.0
891.0
900.0
900.0
904.0
906.0
903.0
899.0
891.0
883.0
877.0
875.0
870.0
872.0
867.0
864.0
861.0
855.0
854.0
849.0
852.0
853.0
852.0
857.0
856.0
853.0
851.0
853.0
857.0
855.0
854.0
854.0
854.0
853.0
858.0
856.0
858.0
855.0
856.0
854.0
857.0
857.0
856.0
855.0
854.0
853.0
852.0
850.0
848.0
842.0
837.0
836.0
844.0
859.0
881.0
903.0
928.0
951.0
959.0
956.0
954.0
958.0
980.0
1017.0
1066.0
1111.0
1137.0
1133.0
1099.0
1037.0
967.0
908.0
861.0
834.0
814.0
795.0
773.0
753.0
739.0
728.0
722.0
719.0
719.0
716.0
709.0
708.0
704.0
701.0
702.0
707.0
719.0
734.0
757.0
781.0
804.0
822.0
837.0
846.0
847.0
846.0
838.0
834.0
834.0
837.0
839.0
846.0
850.0
856.0
854.0
854.0
856.0
854.0
853.0
846.0
844.0
848.0
844.0
845.0
848.0
850.0
850.0
845.0
843.0
837.0
834.0
830.0
829.0
831.0
832.0
834.0
833.0
832.0
829.0
826.0
819.0
813.0
810.0
811.0
810.0
810.0
809.0
807.0
807.0
806.0
802.0
801.0
798.0
795.0
795.0
797.0
797.0
801.0
798.0
800.0
798.0
801.0
801.0
799.0
806.0
809.0
811.0
809.0
808.0
814.0
819.0
827.0
830.0
832.0
837.0
841.0
846.0
850.0
851.0
854.0
853.0
857.0
860.0
868.0
871.0
871.0
873.0
871.0
872.0
871.0
871.0
869.0
871.0
873.0
880.0
885.0
883.0
884.0
881.0
881.0
879.0
874.0
875.0
875.0
879.0
881.0
884.0
885.0
886.0
882.0
879.0
877.0
876.0
874.0
878.0
875.0
871.0
867.0
868.0
872.0
876.0
879.0
881.0
880.0
879.0
874.0
870.0
868.0
864.0
865.0
866.0
866.0
868.0
876.0
876.0
873.0
870.0
865.0
866.0
867.0
867.0
870.0
873.0
874.0
875.0
877.0
876.0
876.0
871.0
869.0
868.0
865.0
865.0
867.0
870.0
874.0
874.0
876.0
877.0
875.0
872.0
870.0
872.0
871.0
867.0
865.0
865.0
863.0
865.0
867.0
872.0
873.0
872.0
867.0
866.0
866.0
868.0
873.0
872.0
868.0
867.0
871.0
872.0
871.0
869.0
869.0
873.0
877.0
883.0
885.0
885.0
881.0
885.0
888.0
891.0
895.0
899.0
903.0
908.0
907.0
904.0
901.0
893.0
894.0
893.0
896.0
901.0
901.0
899.0
889.0
882.0
876.0
875.0
880.0
885.0
888.0
898.0
903.0
907.0
903.0
893.0
888.0
880.0
876.0
878.0
879.0
876.0
870.0
859.0
851.0
851.0
854.0
860.0
858.0
859.0
850.0
849.0
847.0
851.0
852.0
858.0
856.0
854.0
851.0
851.0
853.0
851.0
852.0
852.0
853.0
855.0
860.0
860.0
857.0
858.0
858.0
856.0
853.0
846.0
843.0
838.0
842.0
848.0
864.0
891.0
924.0
960.0
994.0
1013.0
1022.0
1017.0
1011.0
1016.0
1037.0
1067.0
1108.0
1135.0
1136.0
1097.0
1022.0
929.0
838.0
772.0
732.0
714.0
694.0
685.0
674.0
667.0
661.0
658.0
658.0
654.0
640.0
632.0
628.0
632.0
639.0
649.0
660.0
673.0
694.0
724.0
752.0
780.0
801.0
815.0
819.0
820.0
820.0
817.0
820.0
819.0
824.0
829.0
832.0
832.0
833.0
830.0
833.0
829.0
828.0
827.0
831.0
833.0
835.0
832.0
826.0
826.0
831.0
832.0
827.0
824.0
818.0
813.0
808.0
805.0
810.0
811.0
815.0
815.0
805.0
794.0
787.0
788.0
787.0
789.0
787.0
785.0
788.0
790.0
791.0
793.0
789.0
788.0
782.0
778.0
775.0
773.0
770.0
768.0
774.0
780.0
784.0
791.0
790.0
787.0
780.0
782.0
787.0
790.0
793.0
799.0
809.0
812.0
815.0
818.0
817.0
821.0
825.0
826.0
831.0
832.0
833.0
833.0
836.0
844.0
846.0
848.0
849.0
852.0
847.0
847.0
848.0
849.0
852.0
852.0
855.0
860.0
860.0
863.0
862.0
860.0
860.0
857.0
858.0
859.0
855.0
855.0
856.0
864.0
865.0
865.0
858.0
854.0
853.0
846.0
849.0
852.0
857.0
857.0
858.0
859.0
857.0
857.0
852.0
853.0
850.0
848.0
854.0
857.0
859.0
859.0
857.0
853.0
854.0
856.0
858.0
861.0
863.0
861.0
855.0
850.0
849.0
851.0
858.0
861.0
859.0
856.0
854.0
858.0
857.0
857.0
858.0
856.0
857.0
855.0
855.0
861.0
863.0
866.0
867.0
866.0
863.0
858.0
852.0
851.0
851.0
857.0
863.0
871.0
870.0
870.0
867.0
863.0
862.0
859.0
859.0
862.0
870.0
876.0
880.0
881.0
881.0
885.0
887.0
890.0
891.0
892.0
894.0
897.0
900.0
900.0
904.0
902.0
899.0
891.0
887.0
883.0
878.0
878.0
879.0
876.0
878.0
880.0
885.0
891.0
897.0
905.0
901.0
892.0
884.0
870.0
864.0
863.0
864.0
867.0
868.0
868.0
862.0
856.0
850.0
848.0
850.0
852.0
856.0
853.0
850.0
842.0
843.0
850.0
852.0
856.0
853.0
852.0
847.0
848.0
847.0
846.0
846.0
847.0
848.0
850.0
851.0
848.0
850.0
846.0
838.0
837.0
839.0
840.0
842.0
842.0
843.0
844.0
851.0
870.0
894.0
922.0
951.0
976.0
988.0
988.0
987.0
994.0
1016.0
1048.0
1082.0
1119.0
1138.0
1137.0
1100.0
1034.0
957.0
879.0
826.0
789.0
773.0
759.0
744.0
723.0
712.0
699.0
691.0
682.0
677.0
676.0
676.0
674.0
672.0
676.0
680.0
680.0
690.0
705.0
718.0
740.0
764.0
788.0
805.0
817.0
828.0
840.0
847.0
846.0
848.0
846.0
846.0
847.0
843.0
841.0
842.0
846.0
848.0
852.0
850.0
851.0
851.0
851.0
846.0
845.0
843.0
841.0
843.0
844.0
848.0
846.0
845.0
841.0
837.0
834.0
833.0
830.0
830.0
827.0
826.0
826.0
830.0
825.0
820.0
816.0
815.0
814.0
814.0
811.0
807.0
798.0
797.0
800.0
801.0
799.0
798.0
802.0
810.0
813.0
808.0
802.0
794.0
786.0
788.0
795.0
802.0
808.0
810.0
812.0
815.0
816.0
817.0
819.0
824.0
828.0
831.0
835.0
830.0
832.0
838.0
847.0
856.0
858.0
858.0
857.0
852.0
857.0
863.0
864.0
870.0
873.0
876.0
879.0
874.0
877.0
881.0
882.0
883.0
883.0
884.0
885.0
883.0
881.0
880.0
882.0
883.0
888.0
888.0
884.0
884.0
888.0
886.0
887.0
888.0
892.0
891.0
890.0
886.0
881.0
877.0
874.0
880.0
889.0
897.0
901.0
900.0
894.0
891.0
886.0
881.0
877.0
872.0
869.0
869.0
873.0
878.0
884.0
886.0
891.0
890.0
887.0
886.0
882.0
876.0
868.0
865.0
869.0
874.0
880.0
885.0
888.0
891.0
893.0
892.0
896.0
898.0
902.0
904.0
906.0
912.0
917.0
920.0
920.0
918.0
918.0
918.0
918.0
915.0
914.0
916.0
923.0
928.0
934.0
935.0
933.0
927.0
916.0
906.0
892.0
887.0
885.0
889.0
891.0
901.0
901.0
902.0
897.0
891.0
885.0
874.0
872.0
869.0
868.0
870.0
871.0
874.0
878.0
877.0
877.0
876.0
875.0
875.0
878.0
878.0
874.0
871.0
870.0
871.0
874.0
876.0
879.0
881.0
880.0
880.0
881.0
878.0
875.0
873.0
871.0
873.0
871.0
869.0
879.0
881.0
886.0
888.0
884.0
879.0
875.0
874.0
874.0
874.0
875.0
876.0
872.0
868.0
866.0
870.0
878.0
898.0
924.0
951.0
983.0
1011.0
1018.0
1021.0
1026.0
1037.0
1069.0
1115.0
1158.0
1177.0
1160.0
1100.0
1006.0
908.0
824.0
764.0
729.0
707.0
697.0
689.0
681.0
674.0
672.0
672.0
669.0
665.0
656.0
653.0
653.0
657.0
668.0
679.0
695.0
719.0
743.0
772.0
798.0
819.0
834.0
844.0
849.0
851.0
851.0
852.0
852.0
854.0
857.0
854.0
857.0
859.0
861.0
864.0
870.0
872.0
873.0
869.0
866.0
862.0
863.0
858.0
860.0
854.0
856.0
850.0
854.0
853.0
852.0
848.0
845.0
838.0
835.0
833.0
829.0
832.0
832.0
833.0
832.0
833.0
831.0
827.0
822.0
817.0
813.0
813.0
814.0
815.0
816.0
818.0
816.0
816.0
814.0
811.0
808.0
809.0
807.0
808.0
811.0
811.0
814.0
817.0
822.0
827.0
830.0
830.0
833.0
833.0
832.0
832.0
838.0
847.0
852.0
858.0
862.0
867.0
871.0
872.0
874.0
872.0
873.0
875.0
874.0
874.0
876.0
877.0
882.0
885.0
885.0
887.0
886.0
883.0
885.0
885.0
888.0
886.0
886.0
884.0
888.0
890.0
890.0
886.0
885.0
886.0
887.0
888.0
890.0
892.0
890.0
889.0
890.0
884.0
884.0
881.0
880.0
875.0
877.0
876.0
878.0
876.0
878.0
879.0
883.0
886.0
887.0
890.0
882.0
877.0
869.0
871.0
871.0
877.0
881.0
883.0
888.0
885.0
884.0
881.0
879.0
876.0
876.0
876.0
883.0
884.0
881.0
881.0
878.0
879.0
881.0
881.0
884.0
877.0
877.0
878.0
879.0
884.0
884.0
885.0
886.0
881.0
885.0
883.0
885.0
885.0
882.0
883.0
881.0
882.0
882.0
882.0
882.0
884.0
886.0
883.0
879.0
876.0
880.0
885.0
886.0
888.0
887.0
885.0
884.0
882.0
886.0
885.0
888.0
884.0
881.0
875.0
879.0
886.0
889.0
895.0
898.0
897.0
896.0
894.0
889.0
886.0
890.0
892.0
897.0
906.0
909.0
913.0
912.0
913.0
914.0
914.0
919.0
924.0
926.0
925.0
925.0
927.0
923.0
919.0
917.0
905.0
902.0
902.0
906.0
912.0
915.0
922.0
928.0
927.0
928.0
923.0
915.0
905.0
897.0
890.0
884.0
879.0
882.0
880.0
878.0
879.0
877.0
878.0
875.0
870.0
869.0
868.0
867.0
873.0
877.0
875.0
874.0
869.0
866.0
867.0
865.0
867.0
866.0
869.0
869.0
869.0
867.0
867.0
865.0
869.0
870.0
871.0
873.0
869.0
864.0
860.0
859.0
863.0
879.0
907.0
935.0
966.0
991.0
1014.0
1019.0
1015.0
1013.0
1014.0
1028.0
1061.0
1098.0
1136.0
1161.0
1170.0
1137.0
1068.0
976.0
883.0
805.0
749.0
715.0
695.0
681.0
670.0
659.0
651.0
643.0
643.0
643.0
643.0
644.0
644.0
639.0
639.0
646.0
657.0
676.0
700.0
731.0
763.0
791.0
816.0
825.0
835.0
834.0
831.0
831.0
833.0
841.0
850.0
856.0
856.0
858.0
857.0
855.0
854.0
849.0
849.0
848.0
848.0
849.0
843.0
847.0
846.0
849.0
847.0
844.0
841.0
841.0
839.0
837.0
833.0
831.0
828.0
826.0
830.0
832.0
831.0
825.0
819.0
816.0
809.0
807.0
809.0
808.0
809.0
807.0
810.0
810.0
810.0
809.0
802.0
797.0
793.0
793.0
792.0
797.0
803.0
804.0
810.0
811.0
808.0
808.0
805.0
811.0
813.0
820.0
826.0
831.0
835.0
838.0
838.0
840.0
842.0
844.0
849.0
851.0
855.0
856.0
855.0
859.0
867.0
874.0
877.0
872.0
867.0
869.0
872.0
876.0
880.0
882.0
884.0
882.0
881.0
881.0
880.0
878.0
876.0
875.0
874.0
873.0
874.0
876.0
878.0
879.0
881.0
880.0
882.0
881.0
878.0
877.0
879.0
880.0
880.0
878.0
873.0
866.0
864.0
861.0
867.0
871.0
874.0
874.0
874.0
872.0
866.0
867.0
866.0
863.0
864.0
865.0
868.0
868.0
868.0
866.0
865.0
864.0
863.0
866.0
865.0
863.0
866.0
869.0
872.0
875.0
876.0
874.0
873.0
866.0
861.0
859.0
861.0
866.0
871.0
873.0
878.0
878.0
874.0
872.0
870.0
868.0
863.0
864.0
867.0
866.0
865.0
865.0
868.0
871.0
874.0
876.0
875.0
874.0
877.0
873.0
872.0
871.0
874.0
874.0
875.0
877.0
877.0
881.0
885.0
890.0
890.0
894.0
891.0
891.0
890.0
895.0
902.0
911.0
919.0
918.0
912.0
906.0
899.0
897.0
892.0
884.0
886.0
886.0
893.0
903.0
907.0
913.0
916.0
911.0
905.0
896.0
891.0
882.0
878.0
874.0
868.0
867.0
865.0
869.0
867.0
863.0
863.0
861.0
860.0
859.0
858.0
854.0
854.0
850.0
849.0
850.0
854.0
861.0
860.0
859.0
856.0
859.0
861.0
858.0
858.0
858.0
859.0
855.0
858.0
855.0
852.0
848.0
844.0
845.0
841.0
845.0
847.0
856.0
868.0
887.0
914.0
949.0
986.0
1014.0
1025.0
1022.0
1014.0
1013.0
1021.0
1049.0
1082.0
1116.0
1148.0
1147.0
1108.0
1041.0
949.0
854.0
778.0
728.0
701.0
691.0
675.0
672.0
667.0
661.0
652.0
645.0
641.0
639.0
638.0
638.0
643.0
649.0
654.0
664.0
680.0
702.0
728.0
757.0
787.0
813.0
833.0
838.0
839.0
839.0
834.0
833.0
833.0
837.0
840.0
840.0
837.0
835.0
838.0
839.0
846.0
845.0
845.0
841.0
839.0
839.0
839.0
836.0
833.0
831.0
830.0
828.0
829.0
833.0
834.0
830.0
826.0
819.0
810.0
810.0
807.0
807.0
809.0
813.0
811.0
813.0
809.0
803.0
798.0
794.0
792.0
788.0
792.0
790.0
792.0
789.0
792.0
797.0
797.0
799.0
798.0
794.0
789.0
787.0
787.0
788.0
794.0
796.0
794.0
800.0
803.0
806.0
805.0
811.0
814.0
821.0
819.0
821.0
826.0
831.0
835.0
847.0
849.0
852.0
854.0
855.0
853.0
849.0
848.0
846.0
854.0
860.0
868.0
874.0
876.0
877.0
872.0
869.0
868.0
869.0
873.0
871.0
875.0
877.0
874.0
877.0
880.0
880.0
878.0
880.0
877.0
876.0
879.0
882.0
884.0
886.0
883.0
881.0
878.0
879.0
876.0
876.0
872.0
874.0
867.0
869.0
873.0
877.0
878.0
877.0
875.0
875.0
872.0
871.0
871.0
870.0
869.0
868.0
869.0
869.0
870.0
869.0
869.0
872.0
871.0
870.0
870.0
870.0
870.0
865.0
871.0
874.0
879.0
882.0
874.0
874.0
875.0
869.0
866.0
866.0
866.0
869.0
876.0
881.0
884.0
885.0
880.0
879.0
877.0
872.0
870.0
871.0
870.0
867.0
865.0
869.0
873.0
880.0
881.0
881.0
878.0
877.0
881.0
880.0
882.0
882.0
884.0
891.0
898.0
900.0
899.0
896.0
896.0
897.0
896.0
897.0
900.0
905.0
911.0
918.0
923.0
925.0
924.0
921.0
914.0
909.0
902.0
900.0
901.0
901.0
907.0
912.0
919.0
922.0
923.0
918.0
916.0
914.0
913.0
911.0
906.0
903.0
896.0
891.0
882.0
880.0
876.0
873.0
875.0
872.0
870.0
872.0
867.0
869.0
871.0
874.0
871.0
869.0
867.0
869.0
864.0
863.0
862.0
864.0
864.0
866.0
867.0
870.0
870.0
873.0
874.0
872.0
873.0
866.0
865.0
863.0
864.0
855.0
852.0
850.0
848.0
853.0
869.0
887.0
911.0
939.0
967.0
993.0
1006.0
1008.0
1010.0
1014.0
1036.0
1069.0
1108.0
1151.0
1173.0
1163.0
1119.0
1043.0
954.0
869.0
808.0
773.0
756.0
739.0
725.0
709.0
693.0
679.0
674.0
668.0
669.0
669.0
669.0
667.0
663.0
665.0
673.0
683.0
700.0
725.0
752.0
781.0
800.0
817.0
830.0
840.0
849.0
851.0
856.0
852.0
851.0
851.0
850.0
851.0
849.0
850.0
855.0
851.0
852.0
859.0
856.0
855.0
854.0
850.0
850.0
848.0
848.0
850.0
850.0
847.0
845.0
847.0
844.0
840.0
836.0
829.0
825.0
824.0
824.0
827.0
827.0
825.0
825.0
820.0
817.0
817.0
817.0
816.0
818.0
818.0
813.0
808.0
806.0
805.0
804.0
809.0
808.0
806.0
807.0
808.0
802.0
799.0
801.0
803.0
804.0
808.0
812.0
817.0
818.0
821.0
818.0
816.0
819.0
824.0
831.0
841.0
848.0
854.0
853.0
856.0
859.0
861.0
864.0
863.0
864.0
865.0
863.0
864.0
871.0
876.0
881.0
887.0
891.0
888.0
886.0
879.0
877.0
878.0
877.0
878.0
881.0
884.0
886.0
889.0
884.0
887.0
888.0
887.0
882.0
877.0
878.0
877.0
879.0
882.0
885.0
888.0
884.0
882.0
878.0
873.0
873.0
872.0
875.0
877.0
877.0
879.0
881.0
877.0
876.0
871.0
872.0
872.0
871.0
872.0
870.0
865.0
869.0
873.0
878.0
881.0
880.0
884.0
880.0
878.0
874.0
871.0
872.0
873.0
873.0
877.0
881.0
883.0
882.0
875.0
873.0
875.0
872.0
876.0
875.0
879.0
879.0
882.0
883.0
885.0
885.0
881.0
877.0
875.0
875.0
878.0
882.0
882.0
882.0
880.0
879.0
886.0
891.0
900.0
901.0
903.0
906.0
907.0
907.0
905.0
906.0
907.0
907.0
912.0
917.0
929.0
933.0
931.0
926.0
920.0
913.0
910.0
910.0
908.0
911.0
911.0
911.0
916.0
922.0
925.0
929.0
928.0
926.0
920.0
906.0
897.0
892.0
893.0
897.0
898.0
892.0
886.0
878.0
870.0
868.0
870.0
870.0
874.0
878.0
879.0
884.0
884.0
880.0
880.0
873.0
871.0
869.0
862.0
866.0
871.0
875.0
876.0
881.0
882.0
883.0
881.0
876.0
875.0
871.0
873.0
873.0
876.0
874.0
870.0
868.0
863.0
863.0
865.0
874.0
891.0
919.0
951.0
982.0
1005.0
1012.0
1008.0
1010.0
1023.0
1052.0
1092.0
1137.0
1171.0
1179.0
1154.0
1096.0
1020.0
939.0
874.0
826.0
793.0
770.0
751.0
731.0
715.0
700.0
691.0
686.0
680.0
681.0
682.0
682.0
680.0
684.0
692.0
703.0
721.0
740.0
772.0
797.0
823.0
841.0
855.0
857.0
856.0
855.0
855.0
854.0
857.0
855.0
858.0
861.0
865.0
863.0
866.0
871.0
873.0
870.0
870.0
864.0
857.0
854.0
857.0
859.0
858.0
861.0
861.0
858.0
855.0
851.0
849.0
847.0
846.0
842.0
840.0
837.0
837.0
835.0
837.0
834.0
832.0
832.0
829.0
831.0
824.0
820.0
815.0
811.0
809.0
812.0
819.0
824.0
823.0
818.0
809.0
807.0
806.0
806.0
815.0
820.0
826.0
828.0
830.0
832.0
834.0
831.0
833.0
837.0
842.0
843.0
848.0
856.0
861.0
863.0
868.0
870.0
873.0
875.0
877.0
879.0
880.0
881.0
882.0
885.0
888.0
887.0
891.0
889.0
892.0
894.0
895.0
895.0
894.0
894.0
898.0
896.0
899.0
900.0
902.0
902.0
898.0
900.0
895.0
892.0
892.0
890.0
892.0
893.0
891.0
895.0
896.0
891.0
893.0
890.0
892.0
892.0
895.0
891.0
890.0
890.0
890.0
888.0
885.0
883.0
886.0
885.0
886.0
888.0
886.0
884.0
883.0
884.0
889.0
888.0
893.0
887.0
887.0
885.0
889.0
891.0
894.0
892.0
892.0
890.0
891.0
895.0
893.0
896.0
892.0
891.0
885.0
885.0
881.0
887.0
886.0
891.0
892.0
893.0
898.0
898.0
893.0
893.0
894.0
894.0
890.0
890.0
886.0
890.0
895.0
898.0
901.0
903.0
903.0
902.0
899.0
898.0
895.0
900.0
905.0
913.0
914.0
920.0
923.0
924.0
918.0
919.0
918.0
920.0
927.0
933.0
938.0
940.0
940.0
936.0
937.0
932.0
929.0
924.0
915.0
915.0
918.0
917.0
928.0
933.0
940.0
944.0
947.0
942.0
931.0
920.0
909.0
900.0
896.0
893.0
892.0
892.0
889.0
893.0
893.0
891.0
891.0
887.0
882.0
880.0
880.0
881.0
883.0
884.0
885.0
885.0
886.0
884.0
880.0
879.0
878.0
873.0
875.0
877.0
881.0
886.0
886.0
884.0
885.0
886.0
884.0
883.0
880.0
875.0
868.0
864.0
860.0
867.0
889.0
915.0
949.0
979.0
1001.0
1013.0
1020.0
1017.0
1026.0
1046.0
1077.0
1123.0
1168.0
1199.0
1202.0
1162.0
1094.0
1010.0
921.0
852.0
801.0
774.0
749.0
736.0
723.0
706.0
698.0
688.0
682.0
677.0
671.0
670.0
668.0
671.0
673.0
677.0
687.0
700.0
728.0
754.0
786.0
811.0
831.0
844.0
849.0
852.0
852.0
855.0
855.0
857.0
863.0
868.0
875.0
880.0
877.0
873.0
868.0
860.0
863.0
867.0
866.0
866.0
865.0
870.0
868.0
866.0
862.0
857.0
854.0
855.0
855.0
859.0
856.0
854.0
847.0
847.0
843.0
841.0
836.0
838.0
836.0
828.0
831.0
827.0
829.0
830.0
828.0
827.0
828.0
821.0
822.0
820.0
817.0
816.0
815.0
811.0
810.0
808.0
811.0
813.0
816.0
822.0
819.0
817.0
814.0
813.0
815.0
819.0
822.0
828.0
833.0
841.0
841.0
844.0
844.0
848.0
853.0
855.0
859.0
860.0
863.0
869.0
874.0
877.0
879.0
879.0
879.0
884.0
887.0
885.0
884.0
886.0
885.0
889.0
890.0
890.0
898.0
899.0
901.0
900.0
896.0
893.0
892.0
894.0
896.0
894.0
894.0
894.0
894.0
893.0
892.0
891.0
888.0
890.0
891.0
892.0
889.0
890.0
890.0
888.0
887.0
890.0
890.0
890.0
885.0
877.0
875.0
874.0
878.0
882.0
889.0
893.0
890.0
888.0
881.0
876.0
874.0
875.0
878.0
884.0
883.0
884.0
887.0
888.0
885.0
884.0
882.0
879.0
880.0
879.0
880.0
884.0
887.0
889.0
890.0
889.0
887.0
881.0
879.0
884.0
884.0
882.0
881.0
880.0
881.0
886.0
890.0
894.0
890.0
889.0
884.0
888.0
883.0
886.0
885.0
886.0
886.0
889.0
893.0
897.0
895.0
894.0
891.0
889.0
883.0
882.0
882.0
884.0
889.0
896.0
901.0
905.0
911.0
913.0
913.0
907.0
900.0
895.0
895.0
902.0
913.0
921.0
931.0
937.0
940.0
942.0
940.0
935.0
925.0
917.0
912.0
908.0
903.0
907.0
916.0
918.0
922.0
927.0
929.0
930.0
931.0
925.0
920.0
914.0
905.0
900.0
896.0
896.0
892.0
890.0
886.0
882.0
885.0
881.0
875.0
876.0
875.0
879.0
879.0
884.0
879.0
877.0
874.0
873.0
869.0
868.0
869.0
872.0
873.0
876.0
874.0
875.0
874.0
877.0
877.0
876.0
874.0
876.0
877.0
879.0
880.0
877.0
875.0
868.0
864.0
864.0
867.0
874.0
891.0
916.0
944.0
970.0
994.0
1007.0
1014.0
1010.0
1011.0
1025.0
1052.0
1093.0
1143.0
1176.0
1187.0
1163.0
1101.0
1015.0
919.0
833.0
775.0
737.0
717.0
700.0
689.0
675.0
664.0
656.0
652.0
650.0
653.0
656.0
651.0
653.0
653.0
660.0
670.0
689.0
712.0
740.0
767.0
793.0
814.0
832.0
843.0
846.0
851.0
850.0
851.0
851.0
852.0
852.0
856.0
861.0
866.0
869.0
867.0
866.0
864.0
857.0
855.0
853.0
855.0
856.0
862.0
859.0
853.0
851.0
853.0
855.0
860.0
859.0
855.0
853.0
845.0
842.0
844.0
838.0
837.0
838.0
838.0
834.0
831.0
829.0
827.0
823.0
825.0
823.0
824.0
824.0
823.0
820.0
821.0
819.0
817.0
816.0
812.0
808.0
808.0
808.0
813.0
818.0
818.0
813.0
813.0
820.0
821.0
827.0
826.0
825.0
824.0
828.0
830.0
837.0
841.0
846.0
851.0
855.0
853.0
860.0
863.0
869.0
869.0
873.0
873.0
873.0
876.0
878.0
878.0
881.0
886.0
882.0
881.0
877.0
877.0
882.0
886.0
892.0
898.0
900.0
899.0
895.0
889.0
888.0
886.0
886.0
885.0
889.0
890.0
890.0
891.0
887.0
889.0
889.0
888.0
885.0
888.0
885.0
885.0
884.0
884.0
886.0
888.0
889.0
884.0
881.0
878.0
876.0
877.0
878.0
883.0
888.0
891.0
888.0
887.0
883.0
877.0
878.0
877.0
874.0
870.0
871.0
874.0
879.0
882.0
882.0
885.0
892.0
891.0
886.0
882.0
876.0
877.0
878.0
877.0
881.0
882.0
887.0
886.0
887.0
888.0
885.0
884.0
885.0
882.0
881.0
883.0
881.0
883.0
881.0
884.0
885.0
887.0
888.0
885.0
883.0
884.0
887.0
886.0
890.0
892.0
895.0
890.0
892.0
897.0
901.0
902.0
905.0
906.0
907.0
911.0
915.0
919.0
917.0
920.0
925.0
931.0
935.0
939.0
939.0
933.0
924.0
915.0
907.0
906.0
909.0
911.0
918.0
924.0
931.0
933.0
937.0
936.0
930.0
920.0
910.0
901.0
896.0
896.0
895.0
893.0
891.0
886.0
883.0
878.0
877.0
876.0
875.0
874.0
875.0
878.0
879.0
880.0
877.0
871.0
872.0
872.0
873.0
874.0
878.0
877.0
878.0
877.0
877.0
881.0
878.0
877.0
874.0
870.0
871.0
872.0
874.0
876.0
874.0
871.0
870.0
879.0
892.0
912.0
944.0
973.0
1000.0
1015.0
1022.0
1022.0
1024.0
1042.0
1074.0
1114.0
1156.0
1185.0
1177.0
1128.0
1037.0
927.0
829.0
755.0
714.0
693.0
687.0
680.0
670.0
657.0
647.0
642.0
640.0
636.0
634.0
641.0
644.0
651.0
658.0
674.0
694.0
723.0
753.0
783.0
808.0
830.0
840.0
852.0
855.0
860.0
865.0
867.0
863.0
862.0
860.0
861.0
868.0
874.0
880.0
880.0
877.0
875.0
873.0
869.0
873.0
871.0
872.0
865.0
863.0
859.0
860.0
863.0
865.0
870.0
866.0
862.0
858.0
850.0
848.0
841.0
842.0
842.0
841.0
843.0
838.0
838.0
840.0
839.0
835.0
836.0
826.0
824.0
824.0
821.0
821.0
822.0
826.0
826.0
825.0
818.0
814.0
816.0
817.0
823.0
824.0
825.0
829.0
830.0
832.0
832.0
839.0
844.0
847.0
848.0
854.0
853.0
858.0
860.0
862.0
867.0
877.0
885.0
888.0
886.0
887.0
882.0
883.0
884.0
882.0
888.0
888.0
892.0
897.0
897.0
902.0
904.0
905.0
900.0
896.0
895.0
892.0
891.0
893.0
893.0
895.0
897.0
901.0
902.0
901.0
901.0
900.0
896.0
897.0
894.0
898.0
900.0
901.0
900.0
896.0
894.0
892.0
891.0
890.0
888.0
887.0
887.0
885.0
888.0
885.0
888.0
892.0
889.0
888.0
887.0
889.0
887.0
892.0
892.0
891.0
888.0
884.0
882.0
880.0
883.0
884.0
884.0
888.0
894.0
898.0
897.0
896.0
894.0
892.0
892.0
894.0
891.0
891.0
893.0
892.0
889.0
883.0
881.0
882.0
888.0
895.0
899.0
899.0
896.0
897.0
895.0
893.0
895.0
895.0
896.0
898.0
898.0
898.0
901.0
898.0
898.0
896.0
899.0
906.0
909.0
911.0
911.0
914.0
911.0
911.0
912.0
922.0
924.0
925.0
927.0
929.0
931.0
932.0
936.0
938.0
940.0
941.0
937.0
932.0
927.0
926.0
921.0
921.0
921.0
928.0
934.0
941.0
948.0
943.0
931.0
918.0
906.0
901.0
900.0
899.0
898.0
893.0
888.0
884.0
879.0
881.0
882.0
883.0
883.0
882.0
881.0
882.0
882.0
882.0
878.0
880.0
884.0
888.0
886.0
883.0
877.0
875.0
873.0
871.0
874.0
876.0
876.0
876.0
878.0
881.0
880.0
884.0
879.0
867.0
859.0
856.0
861.0
872.0
891.0
915.0
946.0
978.0
1006.0
1034.0
1050.0
1052.0
1050.0
1048.0
1064.0
1096.0
1133.0
1167.0
1185.0
1162.0
1098.0
999.0
890.0
797.0
733.0
694.0
677.0
667.0
655.0
637.0
629.0
624.0
621.0
620.0
618.0
619.0
623.0
622.0
624.0
625.0
625.0
643.0
669.0
706.0
744.0
775.0
802.0
819.0
832.0
837.0
842.0
844.0
847.0
847.0
853.0
858.0
858.0
862.0
863.0
864.0
862.0
862.0
861.0
861.0
862.0
858.0
858.0
856.0
852.0
855.0
863.0
865.0
864.0
859.0
851.0
850.0
847.0
848.0
849.0
846.0
846.0
843.0
839.0
839.0
836.0
836.0
831.0
828.0
825.0
822.0
821.0
821.0
820.0
822.0
823.0
822.0
816.0
813.0
810.0
806.0
806.0
805.0
808.0
810.0
812.0
813.0
811.0
812.0
815.0
816.0
816.0
819.0
820.0
825.0
828.0
834.0
839.0
845.0
850.0
856.0
856.0
862.0
865.0
863.0
866.0
866.0
867.0
872.0
875.0
880.0
883.0
887.0
884.0
884.0
881.0
885.0
882.0
887.0
890.0
891.0
892.0
893.0
896.0
889.0
890.0
891.0
893.0
892.0
891.0
894.0
890.0
890.0
892.0
892.0
893.0
892.0
889.0
887.0
