# Simple Text Format
# Sampling Rate (Hz):= 360.00
# Resolution:= 12
# Labels:= ECG
821.0
828.0
828.0
832.0
833.0
831.0
831.0
825.0
818.0
819.0
817.0
814.0
821.0
830.0
836.0
836.0
834.0
831.0
826.0
823.0
815.0
805.0
800.0
801.0
797.0
795.0
792.0
785.0
786.0
783.0
784.0
786.0
787.0
789.0
792.0
788.0
788.0
785.0
781.0
781.0
785.0
788.0
794.0
796.0
795.0
795.0
787.0
783.0
772.0
771.0
770.0
775.0
779.0
783.0
790.0
792.0
792.0
789.0
786.0
781.0
777.0
779.0
784.0
799.0
824.0
856.0
890.0
920.0
932.0
933.0
922.0
921.0
929.0
960.0
996.0
1029.0
1047.0
1032.0
980.0
900.0
814.0
735.0
677.0
644.0
629.0
621.0
610.0
600.0
591.0
580.0
573.0
572.0
573.0
573.0
571.0
567.0
566.0
569.0
578.0
589.0
605.0
623.0
646.0
677.0
699.0
721.0
741.0
751.0
753.0
756.0
760.0
767.0
774.0
779.0
783.0
784.0
787.0
782.0
776.0
770.0
768.0
770.0
768.0
777.0
775.0
775.0
777.0
778.0
774.0
774.0
771.0
770.0
769.0
768.0
769.0
767.0
767.0
763.0
764.0
760.0
759.0
755.0
755.0
754.0
751.0
749.0
744.0
740.0
737.0
734.0
735.0
738.0
737.0
737.0
738.0
738.0
737.0
735.0
732.0
730.0
734.0
737.0
738.0
742.0
740.0
735.0
734.0
735.0
736.0
740.0
741.0
746.0
753.0
757.0
763.0
766.0
767.0
768.0
769.0
768.0
772.0
780.0
782.0
783.0
787.0
790.0
794.0
800.0
802.0
804.0
803.0
798.0
798.0
801.0
802.0
803.0
806.0
811.0
817.0
821.0
816.0
811.0
811.0
803.0
802.0
804.0
804.0
808.0
812.0
816.0
818.0
818.0
816.0
811.0
803.0
801.0
801.0
801.0
801.0
803.0
809.0
809.0
809.0
812.0
809.0
805.0
799.0
792.0
787.0
788.0
792.0
796.0
801.0
803.0
804.0
803.0
802.0
802.0
802.0
801.0
802.0
801.0
798.0
797.0
798.0
798.0
802.0
803.0
803.0
807.0
808.0
806.0
805.0
803.0
801.0
800.0
800.0
800.0
805.0
806.0
801.0
802.0
802.0
805.0
804.0
805.0
805.0
803.0
803.0
803.0
808.0
813.0
814.0
809.0
805.0
797.0
797.0
798.0
799.0
798.0
805.0
809.0
812.0
813.0
814.0
813.0
809.0
809.0
808.0
810.0
809.0
810.0
816.0
816.0
821.0
824.0
822.0
824.0
823.0
828.0
829.0
836.0
839.0
847.0
852.0
851.0
845.0
840.0
835.0
831.0
830.0
826.0
826.0
825.0
829.0
835.0
840.0
847.0
852.0
849.0
840.0
832.0
828.0
824.0
818.0
816.0
814.0
809.0
808.0
807.0
809.0
811.0
813.0
811.0
806.0
799.0
792.0
787.0
784.0
789.0
794.0
799.0
802.0
803.0
798.0
798.0
798.0
797.0
796.0
796.0
794.0
791.0
792.0
793.0
795.0
805.0
805.0
808.0
807.0
802.0
799.0
794.0
788.0
790.0
790.0
800.0
815.0
838.0
870.0
902.0
934.0
954.0
961.0
957.0
947.0
947.0
957.0
979.0
1011.0
1045.0
1061.0
1060.0
1025.0
955.0
871.0
783.0
709.0
657.0
629.0
614.0
606.0
602.0
595.0
588.0
586.0
581.0
583.0
589.0
592.0
595.0
601.0
607.0
613.0
619.0
632.0
653.0
681.0
711.0
734.0
753.0
764.0
774.0
778.0
777.0
778.0
779.0
776.0
776.0
775.0
778.0
780.0
782.0
783.0
782.0
790.0
791.0
790.0
789.0
786.0
784.0
782.0
780.0
779.0
780.0
779.0
779.0
781.0
778.0
782.0
779.0
770.0
769.0
767.0
764.0
763.0
761.0
757.0
752.0
748.0
748.0
751.0
753.0
758.0
755.0
752.0
749.0
747.0
741.0
735.0
734.0
737.0
741.0
742.0
746.0
747.0
752.0
748.0
745.0
743.0
741.0
736.0
740.0
744.0
748.0
754.0
763.0
765.0
765.0
767.0
768.0
767.0
769.0
773.0
778.0
783.0
786.0
794.0
797.0
802.0
806.0
810.0
810.0
808.0
806.0
804.0
803.0
810.0
811.0
813.0
818.0
820.0
816.0
815.0
811.0
810.0
811.0
813.0
817.0
819.0
819.0
819.0
819.0
816.0
814.0
813.0
817.0
818.0
817.0
813.0
813.0
811.0
813.0
810.0
814.0
813.0
814.0
815.0
810.0
811.0
808.0
808.0
811.0
815.0
813.0
815.0
814.0
817.0
815.0
810.0
811.0
808.0
809.0
809.0
813.0
814.0
817.0
819.0
823.0
824.0
825.0
826.0
826.0
823.0
819.0
815.0
813.0
813.0
814.0
818.0
822.0
825.0
828.0
827.0
821.0
816.0
812.0
812.0
813.0
817.0
821.0
825.0
828.0
831.0
826.0
827.0
826.0
825.0
822.0
823.0
824.0
827.0
829.0
834.0
833.0
832.0
832.0
829.0
831.0
832.0
829.0
834.0
835.0
838.0
844.0
845.0
850.0
851.0
856.0
855.0
856.0
852.0
855.0
857.0
859.0
865.0
867.0
862.0
857.0
853.0
852.0
850.0
849.0
845.0
845.0
845.0
847.0
855.0
858.0
865.0
871.0
874.0
867.0
865.0
858.0
850.0
839.0
832.0
836.0
835.0
842.0
844.0
846.0
841.0
837.0
832.0
821.0
817.0
813.0
810.0
814.0
821.0
823.0
824.0
827.0
824.0
824.0
818.0
818.0
817.0
813.0
812.0
811.0
811.0
817.0
819.0
823.0
825.0
825.0
824.0
823.0
818.0
817.0
816.0
813.0
814.0
812.0
813.0
813.0
814.0
818.0
834.0
855.0
879.0
901.0
923.0
936.0
941.0
941.0
940.0
945.0
970.0
998.0
1033.0
1061.0
1068.0
1046.0
989.0
914.0
835.0
771.0
723.0
693.0
680.0
669.0
659.0
649.0
641.0
634.0
631.0
632.0
633.0
639.0
638.0
639.0
641.0
644.0
648.0
663.0
683.0
709.0
732.0
748.0
763.0
775.0
783.0
794.0
796.0
801.0
803.0
805.0
809.0
809.0
812.0
809.0
806.0
804.0
804.0
803.0
802.0
803.0
806.0
805.0
807.0
805.0
803.0
802.0
802.0
799.0
802.0
801.0
804.0
799.0
796.0
791.0
788.0
787.0
786.0
783.0
786.0
785.0
782.0
779.0
777.0
780.0
774.0
773.0
773.0
772.0
770.0
766.0
763.0
761.0
761.0
766.0
766.0
762.0
764.0
759.0
752.0
757.0
752.0
755.0
758.0
762.0
765.0
771.0
773.0
778.0
781.0
776.0
776.0
778.0
780.0
784.0
789.0
797.0
801.0
807.0
809.0
808.0
810.0
811.0
816.0
819.0
821.0
824.0
826.0
826.0
827.0
831.0
832.0
835.0
838.0
838.0
835.0
832.0
832.0
827.0
827.0
832.0
835.0
844.0
844.0
842.0
836.0
833.0
826.0
828.0
827.0
828.0
826.0
831.0
832.0
835.0
835.0
837.0
838.0
838.0
837.0
831.0
830.0
830.0
830.0
827.0
829.0
831.0
831.0
831.0
830.0
830.0
829.0
831.0
828.0
834.0
834.0
837.0
835.0
839.0
839.0
839.0
837.0
837.0
832.0
832.0
832.0
828.0
832.0
833.0
834.0
838.0
836.0
833.0
836.0
837.0
832.0
835.0
834.0
839.0
847.0
850.0
850.0
854.0
854.0
856.0
855.0
853.0
855.0
853.0
853.0
858.0
856.0
859.0
861.0
866.0
866.0
867.0
867.0
869.0
869.0
864.0
867.0
870.0
873.0
878.0
882.0
881.0
886.0
886.0
883.0
885.0
884.0
884.0
889.0
893.0
898.0
903.0
908.0
912.0
917.0
915.0
914.0
903.0
898.0
892.0
887.0
885.0
886.0
890.0
894.0
903.0
910.0
916.0
916.0
910.0
901.0
893.0
884.0
882.0
877.0
879.0
880.0
882.0
880.0
880.0
880.0
871.0
869.0
863.0
862.0
862.0
867.0
868.0
871.0
874.0
875.0
876.0
875.0
876.0
876.0
874.0
876.0
874.0
876.0
878.0
881.0
880.0
877.0
876.0
877.0
876.0
875.0
872.0
875.0
874.0
872.0
871.0
868.0
872.0
882.0
899.0
925.0
951.0
975.0
995.0
1001.0
1004.0
1005.0
1017.0
1039.0
1072.0
1107.0
1132.0
1137.0
1113.0
1059.0
981.0
898.0
824.0
773.0
748.0
732.0
723.0
711.0
696.0
685.0
676.0
669.0
667.0
663.0
664.0
666.0
669.0
669.0
677.0
683.0
697.0
710.0
725.0
752.0
773.0
795.0
815.0
830.0
843.0
848.0
851.0
850.0
850.0
852.0
851.0
854.0
857.0
856.0
858.0
856.0
860.0
861.0
862.0
860.0
860.0
860.0
856.0
855.0
851.0
848.0
851.0
852.0
854.0
856.0
852.0
856.0
850.0
847.0
843.0
842.0
838.0
835.0
835.0
828.0
829.0
831.0
827.0
830.0
827.0
824.0
821.0
819.0
819.0
818.0
817.0
815.0
816.0
815.0
812.0
815.0
816.0
815.0
812.0
811.0
810.0
812.0
809.0
810.0
813.0
819.0
826.0
829.0
834.0
837.0
839.0
840.0
843.0
844.0
850.0
857.0
859.0
862.0
869.0
871.0
873.0
875.0
875.0
876.0
878.0
878.0
879.0
881.0
885.0
887.0
889.0
891.0
890.0
890.0
890.0
890.0
886.0
886.0
888.0
891.0
892.0
893.0
895.0
896.0
896.0
895.0
894.0
889.0
886.0
882.0
886.0
889.0
892.0
894.0
895.0
894.0
892.0
885.0
886.0
883.0
882.0
879.0
875.0
877.0
880.0
880.0
879.0
884.0
883.0
884.0
881.0
881.0
877.0
875.0
878.0
878.0
882.0
884.0
886.0
888.0
890.0
888.0
886.0
882.0
876.0
875.0
877.0
879.0
883.0
883.0
887.0
888.0
889.0
889.0
886.0
884.0
882.0
879.0
883.0
884.0
885.0
884.0
885.0
884.0
883.0
883.0
882.0
878.0
880.0
878.0
879.0
879.0
883.0
886.0
889.0
891.0
888.0
888.0
886.0
886.0
885.0
885.0
886.0
886.0
892.0
894.0
898.0
900.0
900.0
901.0
901.0
900.0
898.0
897.0
897.0
901.0
907.0
918.0
924.0
930.0
927.0
923.0
917.0
915.0
907.0
901.0
897.0
900.0
909.0
912.0
919.0
925.0
923.0
923.0
921.0
922.0
919.0
912.0
906.0
901.0
893.0
892.0
888.0
883.0
883.0
878.0
875.0
875.0
869.0
867.0
864.0
862.0
868.0
870.0
871.0
873.0
871.0
873.0
874.0
874.0
876.0
878.0
874.0
873.0
874.0
875.0
876.0
871.0
870.0
872.0
869.0
866.0
864.0
865.0
868.0
872.0
874.0
872.0
872.0
871.0
878.0
882.0
896.0
917.0
941.0
970.0
997.0
1015.0
1022.0
1016.0
1014.0
1019.0
1035.0
1057.0
1086.0
1110.0
1122.0
1108.0
1065.0
992.0
909.0
830.0
768.0
732.0
714.0
702.0
691.0
684.0
676.0
672.0
664.0
659.0
661.0
659.0
661.0
662.0
665.0
670.0
675.0
687.0
701.0
726.0
757.0
786.0
819.0
842.0
855.0
860.0
858.0
853.0
852.0
851.0
850.0
852.0
853.0
858.0
862.0
863.0
863.0
864.0
863.0
865.0
864.0
862.0
859.0
855.0
855.0
859.0
858.0
856.0
855.0
851.0
847.0
846.0
847.0
845.0
840.0
839.0
837.0
833.0
834.0
835.0
832.0
832.0
829.0
827.0
824.0
818.0
815.0
815.0
814.0
808.0
813.0
812.0
813.0
815.0
809.0
812.0
810.0
808.0
806.0
808.0
807.0
808.0
808.0
811.0
812.0
817.0
817.0
821.0
819.0
819.0
825.0
830.0
833.0
834.0
835.0
843.0
843.0
850.0
853.0
857.0
861.0
862.0
858.0
861.0
859.0
863.0
863.0
865.0
867.0
869.0
870.0
872.0
871.0
874.0
871.0
872.0
872.0
877.0
877.0
877.0
878.0
879.0
878.0
879.0
877.0
874.0
874.0
868.0
872.0
874.0
872.0
876.0
878.0
883.0
881.0
880.0
874.0
870.0
867.0
867.0
868.0
869.0
872.0
875.0
877.0
878.0
876.0
875.0
869.0
866.0
863.0
860.0
863.0
867.0
869.0
871.0
864.0
865.0
865.0
865.0
864.0
865.0
863.0
863.0
865.0
864.0
864.0
867.0
870.0
872.0
871.0
871.0
870.0
866.0
865.0
866.0
868.0
874.0
873.0
877.0
875.0
878.0
878.0
877.0
873.0
875.0
870.0
868.0
874.0
874.0
877.0
877.0
877.0
879.0
879.0
877.0
878.0
880.0
878.0
881.0
888.0
889.0
893.0
898.0
898.0
899.0
896.0
901.0
900.0
903.0
898.0
902.0
900.0
899.0
899.0
898.0
896.0
898.0
901.0
908.0
910.0
910.0
902.0
896.0
889.0
885.0
884.0
882.0
882.0
883.0
880.0
877.0
871.0
863.0
859.0
856.0
852.0
851.0
855.0
858.0
864.0
867.0
865.0
865.0
862.0
856.0
850.0
849.0
843.0
842.0
843.0
848.0
856.0
859.0
865.0
866.0
863.0
860.0
857.0
857.0
856.0
860.0
862.0
861.0
855.0
847.0
843.0
844.0
858.0
882.0
906.0
934.0
960.0
970.0
970.0
966.0
966.0
977.0
1008.0
1044.0
1088.0
1115.0
1116.0
1083.0
1020.0
938.0
857.0
790.0
751.0
726.0
710.0
698.0
683.0
669.0
658.0
648.0
644.0
645.0
652.0
658.0
663.0
666.0
669.0
676.0
686.0
701.0
716.0
737.0
756.0
789.0
814.0
832.0
839.0
842.0
844.0
845.0
847.0
849.0
850.0
853.0
848.0
848.0
846.0
850.0
850.0
851.0
852.0
850.0
841.0
840.0
842.0
840.0
846.0
848.0
848.0
850.0
849.0
848.0
846.0
841.0
834.0
829.0
826.0
825.0
823.0
824.0
821.0
818.0
818.0
821.0
822.0
822.0
819.0
812.0
809.0
805.0
802.0
802.0
803.0
808.0
811.0
815.0
811.0
809.0
803.0
799.0
792.0
793.0
794.0
800.0
802.0
803.0
803.0
804.0
805.0
812.0
814.0
820.0
821.0
824.0
819.0
818.0
817.0
826.0
834.0
843.0
849.0
851.0
850.0
850.0
850.0
848.0
845.0
846.0
847.0
853.0
855.0
862.0
865.0
872.0
871.0
868.0
869.0
866.0
866.0
862.0
865.0
867.0
873.0
877.0
875.0
875.0
869.0
865.0
863.0
859.0
860.0
860.0
862.0
865.0
866.0
862.0
867.0
870.0
872.0
868.0
861.0
860.0
856.0
856.0
852.0
854.0
855.0
856.0
856.0
853.0
852.0
851.0
850.0
848.0
848.0
847.0
851.0
854.0
859.0
859.0
862.0
860.0
858.0
856.0
853.0
848.0
851.0
851.0
850.0
859.0
861.0
863.0
862.0
857.0
854.0
851.0
850.0
851.0
855.0
856.0
858.0
860.0
863.0
868.0
869.0
870.0
866.0
860.0
858.0
852.0
852.0
855.0
856.0
862.0
863.0
864.0
866.0
864.0
865.0
866.0
869.0
869.0
873.0
874.0
879.0
884.0
891.0
890.0
889.0
891.0
890.0
892.0
893.0
895.0
897.0
900.0
898.0
896.0
893.0
885.0
877.0
877.0
876.0
880.0
884.0
886.0
888.0
887.0
889.0
886.0
883.0
881.0
874.0
869.0
866.0
865.0
860.0
856.0
848.0
847.0
844.0
846.0
843.0
844.0
843.0
845.0
848.0
845.0
846.0
845.0
844.0
844.0
843.0
841.0
838.0
838.0
837.0
839.0
841.0
843.0
843.0
839.0
838.0
837.0
840.0
844.0
851.0
850.0
844.0
839.0
829.0
823.0
821.0
826.0
833.0
851.0
872.0
899.0
924.0
942.0
951.0
950.0
943.0
941.0
957.0
985.0
1024.0
1067.0
1099.0
1108.0
1085.0
1025.0
937.0
845.0
766.0
714.0
686.0
665.0
653.0
646.0
638.0
629.0
625.0
626.0
625.0
628.0
631.0
633.0
630.0
630.0
633.0
643.0
659.0
686.0
715.0
748.0
770.0
792.0
806.0
813.0
817.0
819.0
819.0
819.0
823.0
825.0
828.0
831.0
836.0
834.0
829.0
829.0
828.0
826.0
822.0
821.0
828.0
830.0
831.0
831.0
832.0
831.0
825.0
821.0
818.0
813.0
811.0
814.0
811.0
810.0
814.0
812.0
811.0
808.0
805.0
802.0
798.0
795.0
792.0
792.0
787.0
788.0
787.0
786.0
790.0
790.0
786.0
783.0
780.0
777.0
777.0
774.0
774.0
779.0
781.0
785.0
785.0
785.0
785.0
786.0
786.0
789.0
788.0
790.0
792.0
799.0
802.0
803.0
810.0
811.0
811.0
814.0
816.0
822.0
827.0
827.0
831.0
833.0
835.0
837.0
837.0
841.0
843.0
840.0
841.0
842.0
839.0
841.0
844.0
845.0
846.0
852.0
853.0
849.0
847.0
843.0
840.0
839.0
839.0
841.0
844.0
845.0
847.0
841.0
841.0
841.0
842.0
843.0
840.0
838.0
833.0
835.0
837.0
838.0
840.0
839.0
840.0
842.0
842.0
836.0
835.0
836.0
834.0
835.0
837.0
836.0
837.0
842.0
840.0
841.0
837.0
838.0
832.0
831.0
830.0
829.0
832.0
838.0
838.0
837.0
841.0
837.0
841.0
836.0
840.0
840.0
839.0
837.0
839.0
842.0
843.0
848.0
855.0
858.0
859.0
857.0
854.0
848.0
843.0
844.0
843.0
847.0
849.0
849.0
848.0
846.0
841.0
834.0
830.0
829.0
828.0
831.0
832.0
834.0
835.0
838.0
838.0
836.0
835.0
834.0
836.0
834.0
836.0
836.0
841.0
845.0
847.0
853.0
860.0
867.0
872.0
872.0
874.0
873.0
869.0
865.0
864.0
860.0
858.0
859.0
861.0
863.0
864.0
868.0
867.0
868.0
864.0
863.0
857.0
856.0
850.0
842.0
837.0
832.0
833.0
830.0
828.0
824.0
822.0
821.0
820.0
821.0
824.0
823.0
824.0
822.0
824.0
820.0
818.0
816.0
817.0
817.0
820.0
820.0
821.0
821.0
819.0
813.0
816.0
814.0
816.0
816.0
816.0
817.0
820.0
821.0
821.0
820.0
819.0
814.0
810.0
809.0
809.0
821.0
839.0
865.0
894.0
925.0
950.0
968.0
965.0
960.0
959.0
965.0
987.0
1018.0
1045.0
1055.0
1035.0
974.0
887.0
793.0
712.0
652.0
620.0
604.0
597.0
595.0
588.0
586.0
581.0
581.0
585.0
586.0
587.0
588.0
590.0
595.0
599.0
614.0
630.0
652.0
682.0
712.0
738.0
761.0
774.0
785.0
789.0
788.0
790.0
789.0
789.0
794.0
797.0
802.0
806.0
808.0
807.0
806.0
802.0
800.0
798.0
798.0
797.0
796.0
797.0
799.0
801.0
802.0
799.0
798.0
793.0
792.0
788.0
783.0
782.0
776.0
776.0
782.0
781.0
782.0
781.0
778.0
772.0
768.0
765.0
759.0
757.0
758.0
756.0
755.0
754.0
761.0
759.0
757.0
758.0
758.0
759.0
756.0
756.0
755.0
755.0
755.0
756.0
762.0
765.0
766.0
770.0
767.0
769.0
766.0
771.0
775.0
783.0
789.0
793.0
797.0
800.0
802.0
803.0
805.0
806.0
805.0
807.0
806.0
811.0
814.0
821.0
821.0
822.0
822.0
820.0
820.0
817.0
820.0
820.0
822.0
821.0
822.0
823.0
826.0
827.0
824.0
824.0
826.0
823.0
823.0
820.0
819.0
819.0
821.0
821.0
824.0
824.0
821.0
818.0
814.0
809.0
812.0
813.0
816.0
820.0
820.0
822.0
819.0
817.0
815.0
815.0
812.0
815.0
816.0
815.0
816.0
818.0
818.0
817.0
819.0
816.0
818.0
815.0
814.0
812.0
808.0
808.0
811.0
815.0
816.0
819.0
821.0
818.0
817.0
813.0
812.0
814.0
815.0
814.0
812.0
812.0
813.0
815.0
819.0
819.0
819.0
821.0
822.0
818.0
815.0
813.0
812.0
811.0
813.0
820.0
819.0
819.0
821.0
818.0
817.0
814.0
815.0
814.0
814.0
816.0
821.0
823.0
829.0
828.0
828.0
830.0
828.0
828.0
829.0
830.0
830.0
832.0
841.0
847.0
852.0
858.0
859.0
858.0
849.0
842.0
836.0
829.0
825.0
826.0
836.0
842.0
848.0
854.0
857.0
858.0
851.0
839.0
833.0
822.0
816.0
814.0
814.0
816.0
817.0
817.0
815.0
813.0
809.0
806.0
805.0
804.0
801.0
803.0
802.0
802.0
803.0
803.0
803.0
799.0
802.0
799.0
803.0
802.0
802.0
801.0
802.0
801.0
806.0
807.0
805.0
804.0
804.0
801.0
800.0
800.0
797.0
798.0
799.0
798.0
802.0
804.0
816.0
835.0
862.0
890.0
921.0
938.0
941.0
945.0
943.0
956.0
982.0
1008.0
1033.0
1047.0
1032.0
986.0
908.0
814.0
728.0
680.0
648.0
639.0
638.0
634.0
625.0
616.0
610.0
608.0
600.0
584.0
566.0
562.0
569.0
585.0
609.0
628.0
652.0
678.0
697.0
713.0
722.0
738.0
761.0
776.0
788.0
790.0
791.0
785.0
777.0
775.0
776.0
779.0
785.0
786.0
783.0
770.0
766.0
770.0
784.0
792.0
797.0
795.0
795.0
790.0
787.0
786.0
775.0
771.0
773.0
781.0
789.0
791.0
788.0
772.0
755.0
743.0
743.0
746.0
751.0
757.0
763.0
766.0
772.0
771.0
761.0
748.0
733.0
724.0
732.0
739.0
748.0
750.0
746.0
731.0
716.0
706.0
710.0
724.0
744.0
756.0
758.0
749.0
740.0
740.0
746.0
758.0
774.0
786.0
784.0
778.0
760.0
750.0
753.0
758.0
771.0
781.0
784.0
784.0
785.0
793.0
793.0
791.0
785.0
774.0
770.0
763.0
770.0
779.0
796.0
808.0
826.0
837.0
842.0
842.0
828.0
805.0
784.0
780.0
786.0
800.0
816.0
825.0
832.0
825.0
811.0
796.0
785.0
782.0
790.0
803.0
814.0
819.0
822.0
817.0
813.0
804.0
790.0
779.0
769.0
776.0
786.0
794.0
795.0
786.0
783.0
786.0
797.0
802.0
799.0
798.0
794.0
786.0
783.0
780.0
786.0
795.0
797.0
793.0
787.0
780.0
778.0
782.0
785.0
789.0
790.0
793.0
794.0
791.0
789.0
783.0
785.0
788.0
793.0
794.0
794.0
792.0
790.0
793.0
795.0
801.0
805.0
806.0
802.0
790.0
786.0
788.0
790.0
797.0
803.0
806.0
807.0
800.0
798.0
797.0
799.0
803.0
812.0
815.0
812.0
809.0
800.0
798.0
802.0
806.0
809.0
812.0
815.0
820.0
826.0
829.0
823.0
820.0
812.0
805.0
807.0
807.0
806.0
807.0
809.0
813.0
816.0
819.0
819.0
820.0
821.0
813.0
809.0
800.0
795.0
792.0
789.0
788.0
789.0
787.0
781.0
773.0
767.0
765.0
766.0
769.0
774.0
775.0
771.0
766.0
759.0
756.0
756.0
764.0
768.0
770.0
772.0
768.0
762.0
755.0
755.0
758.0
761.0
763.0
765.0
764.0
762.0
757.0
761.0
762.0
762.0
763.0
767.0
767.0
762.0
759.0
754.0
751.0
765.0
778.0
801.0
829.0
862.0
888.0
908.0
913.0
914.0
912.0
917.0
933.0
962.0
990.0
1006.0
1003.0
972.0
920.0
849.0
773.0
707.0
653.0
620.0
603.0
595.0
587.0
581.0
572.0
566.0
559.0
553.0
550.0
553.0
553.0
557.0
553.0
554.0
556.0
570.0
590.0
617.0
647.0
681.0
702.0
717.0
721.0
721.0
715.0
712.0
711.0
716.0
719.0
727.0
728.0
731.0
732.0
728.0
727.0
725.0
723.0
721.0
722.0
722.0
729.0
730.0
731.0
732.0
734.0
735.0
738.0
737.0
732.0
722.0
709.0
700.0
699.0
704.0
712.0
718.0
718.0
710.0
706.0
697.0
692.0
694.0
692.0
691.0
693.0
689.0
689.0
687.0
684.0
685.0
684.0
686.0
686.0
683.0
679.0
679.0
683.0
687.0
694.0
692.0
689.0
688.0
689.0
687.0
688.0
686.0
687.0
685.0
685.0
694.0
704.0
716.0
720.0
719.0
711.0
704.0
700.0
703.0
710.0
719.0
728.0
730.0
733.0
728.0
729.0
727.0
727.0
728.0
733.0
739.0
746.0
749.0
749.0
748.0
744.0
744.0
741.0
743.0
750.0
743.0
743.0
740.0
739.0
740.0
743.0
750.0
755.0
758.0
755.0
749.0
743.0
746.0
745.0
743.0
744.0
742.0
736.0
732.0
731.0
735.0
747.0
749.0
752.0
751.0
751.0
747.0
741.0
736.0
735.0
737.0
742.0
747.0
745.0
745.0
742.0
741.0
740.0
736.0
738.0
739.0
746.0
750.0
751.0
747.0
747.0
742.0
741.0
743.0
745.0
748.0
746.0
746.0
747.0
748.0
748.0
746.0
743.0
741.0
739.0
739.0
737.0
737.0
740.0
746.0
751.0
753.0
752.0
756.0
756.0
754.0
753.0
749.0
745.0
746.0
741.0
746.0
751.0
760.0
766.0
770.0
774.0
771.0
765.0
761.0
764.0
765.0
764.0
771.0
778.0
784.0
785.0
784.0
787.0
786.0
783.0
777.0
776.0
775.0
777.0
780.0
781.0
787.0
792.0
799.0
800.0
800.0
793.0
783.0
772.0
762.0
757.0
760.0
767.0
769.0
769.0
771.0
763.0
754.0
747.0
740.0
737.0
736.0
744.0
751.0
756.0
755.0
753.0
752.0
749.0
755.0
761.0
763.0
760.0
758.0
756.0
755.0
753.0
752.0
756.0
758.0
759.0
762.0
765.0
761.0
756.0
750.0
745.0
740.0
740.0
746.0
762.0
789.0
822.0
851.0
874.0
903.0
917.0
922.0
916.0
911.0
914.0
932.0
960.0
991.0
1020.0
1020.0
991.0
936.0
856.0
770.0
697.0
649.0
626.0
618.0
614.0
604.0
590.0
577.0
564.0
560.0
561.0
558.0
557.0
552.0
553.0
555.0
560.0
574.0
590.0
616.0
634.0
660.0
686.0
707.0
721.0
735.0
740.0
741.0
739.0
741.0
748.0
757.0
767.0
769.0
766.0
762.0
759.0
753.0
756.0
757.0
758.0
759.0
755.0
757.0
760.0
761.0
762.0
763.0
761.0
764.0
757.0
752.0
746.0
745.0
748.0
746.0
741.0
739.0
737.0
734.0
733.0
731.0
730.0
733.0
732.0
732.0
727.0
722.0
721.0
718.0
720.0
728.0
732.0
731.0
734.0
730.0
725.0
722.0
720.0
720.0
724.0
726.0
726.0
725.0
728.0
725.0
732.0
736.0
738.0
739.0
747.0
750.0
751.0
747.0
748.0
753.0
757.0
762.0
773.0
779.0
776.0
779.0
779.0
781.0
784.0
786.0
789.0
788.0
789.0
789.0
791.0
792.0
796.0
797.0
792.0
796.0
798.0
802.0
803.0
800.0
798.0
794.0
794.0
796.0
799.0
801.0
800.0
802.0
801.0
801.0
802.0
799.0
797.0
794.0
795.0
800.0
798.0
806.0
809.0
808.0
804.0
801.0
793.0
790.0
789.0
793.0
793.0
798.0
795.0
796.0
799.0
797.0
794.0
794.0
794.0
792.0
793.0
793.0
793.0
796.0
796.0
798.0
802.0
800.0
800.0
799.0
798.0
799.0
795.0
795.0
797.0
800.0
803.0
805.0
808.0
810.0
807.0
805.0
802.0
800.0
801.0
799.0
802.0
802.0
805.0
805.0
805.0
803.0
800.0
801.0
801.0
805.0
807.0
808.0
811.0
816.0
818.0
823.0
828.0
827.0
826.0
823.0
828.0
830.0
833.0
837.0
840.0
844.0
843.0
839.0
837.0
834.0
830.0
824.0
821.0
821.0
827.0
833.0
839.0
842.0
845.0
842.0
836.0
832.0
824.0
818.0
812.0
804.0
803.0
799.0
796.0
799.0
795.0
799.0
798.0
795.0
793.0
792.0
789.0
792.0
792.0
790.0
793.0
792.0
793.0
796.0
795.0
795.0
794.0
791.0
791.0
790.0
790.0
791.0
790.0
795.0
796.0
799.0
801.0
798.0
794.0
788.0
783.0
782.0
783.0
793.0
808.0
832.0
858.0
894.0
921.0
942.0
947.0
943.0
941.0
947.0
966.0
995.0
1031.0
1053.0
1053.0
1027.0
956.0
869.0
780.0
712.0
664.0
642.0
626.0
614.0
608.0
604.0
598.0
596.0
593.0
590.0
591.0
585.0
588.0
588.0
591.0
601.0
618.0
639.0
666.0
697.0
727.0
747.0
765.0
773.0
771.0
771.0
772.0
773.0
775.0
780.0
786.0
791.0
792.0
789.0
785.0
783.0
778.0
775.0
775.0
776.0
778.0
783.0
782.0
785.0
786.0
784.0
779.0
777.0
773.0
766.0
768.0
768.0
765.0
766.0
767.0
769.0
766.0
765.0
763.0
760.0
758.0
752.0
747.0
748.0
745.0
747.0
746.0
746.0
745.0
747.0
744.0
744.0
740.0
738.0
734.0
738.0
740.0
744.0
744.0
746.0
744.0
747.0
749.0
746.0
747.0
752.0
752.0
753.0
756.0
761.0
765.0
771.0
778.0
777.0
778.0
777.0
780.0
784.0
787.0
788.0
794.0
798.0
801.0
805.0
808.0
812.0
813.0
810.0
810.0
808.0
808.0
807.0
809.0
812.0
812.0
812.0
816.0
816.0
814.0
813.0
811.0
809.0
807.0
812.0
812.0
811.0
813.0
816.0
817.0
819.0
820.0
812.0
811.0
807.0
808.0
805.0
809.0
813.0
813.0
817.0
815.0
814.0
816.0
814.0
809.0
809.0
807.0
805.0
808.0
807.0
812.0
814.0
813.0
813.0
813.0
813.0
812.0
810.0
806.0
803.0
807.0
810.0
810.0
816.0
813.0
814.0
815.0
812.0
816.0
811.0
811.0
812.0
814.0
813.0
814.0
819.0
818.0
819.0
819.0
817.0
815.0
814.0
812.0
812.0
815.0
820.0
822.0
824.0
827.0
825.0
827.0
831.0
830.0
831.0
832.0
830.0
833.0
831.0
838.0
843.0
847.0
851.0
855.0
855.0
852.0
847.0
844.0
841.0
838.0
839.0
839.0
843.0
846.0
851.0
856.0
857.0
854.0
850.0
842.0
835.0
828.0
827.0
822.0
822.0
823.0
821.0
816.0
814.0
811.0
806.0
801.0
802.0
798.0
805.0
807.0
806.0
810.0
809.0
805.0
804.0
802.0
800.0
800.0
802.0
802.0
803.0
807.0
810.0
810.0
808.0
810.0
808.0
810.0
807.0
805.0
807.0
807.0
807.0
808.0
807.0
804.0
802.0
803.0
