# Simple Text Format
# Sampling Rate (Hz):= 360.00
# Resolution:= 12
# Labels:= ECG
938.0
937.0
937.0
936.0
936.0
934.0
935.0
932.0
927.0
928.0
928.0
933.0
938.0
943.0
943.0
942.0
938.0
931.0
924.0
921.0
913.0
910.0
906.0
898.0
894.0
892.0
889.0
887.0
883.0
881.0
881.0
883.0
881.0
882.0
883.0
885.0
880.0
877.0
876.0
876.0
877.0
876.0
876.0
876.0
876.0
876.0
874.0
878.0
877.0
876.0
875.0
876.0
879.0
876.0
876.0
879.0
873.0
875.0
873.0
869.0
867.0
867.0
873.0
891.0
912.0
938.0
975.0
1012.0
1033.0
1046.0
1043.0
1035.0
1031.0
1044.0
1072.0
1117.0
1155.0
1171.0
1159.0
1106.0
1016.0
900.0
795.0
707.0
651.0
620.0
612.0
605.0
605.0
601.0
600.0
602.0
601.0
601.0
604.0
599.0
600.0
599.0
609.0
629.0
646.0
675.0
708.0
744.0
775.0
804.0
821.0
831.0
840.0
843.0
844.0
844.0
849.0
852.0
856.0
861.0
861.0
863.0
858.0
860.0
860.0
858.0
860.0
864.0
861.0
860.0
861.0
859.0
856.0
853.0
853.0
854.0
852.0
848.0
851.0
847.0
848.0
846.0
845.0
843.0
838.0
840.0
834.0
828.0
822.0
816.0
815.0
815.0
819.0
817.0
820.0
822.0
820.0
817.0
811.0
804.0
804.0
801.0
801.0
804.0
806.0
809.0
810.0
811.0
813.0
810.0
807.0
802.0
802.0
811.0
816.0
820.0
826.0
827.0
833.0
833.0
838.0
840.0
844.0
852.0
852.0
853.0
858.0
858.0
860.0
865.0
871.0
873.0
874.0
873.0
872.0
871.0
871.0
870.0
870.0
877.0
880.0
881.0
884.0
883.0
882.0
880.0
881.0
878.0
878.0
874.0
873.0
870.0
868.0
871.0
873.0
879.0
878.0
881.0
877.0
872.0
866.0
867.0
867.0
869.0
866.0
869.0
867.0
869.0
867.0
870.0
865.0
867.0
870.0
868.0
863.0
863.0
864.0
867.0
866.0
864.0
866.0
864.0
861.0
859.0
857.0
856.0
857.0
858.0
860.0
863.0
866.0
866.0
866.0
866.0
863.0
863.0
861.0
862.0
861.0
862.0
864.0
864.0
868.0
869.0
870.0
868.0
869.0
867.0
868.0
868.0
865.0
864.0
865.0
862.0
863.0
863.0
863.0
866.0
863.0
865.0
867.0
868.0
867.0
868.0
871.0
871.0
877.0
877.0
879.0
876.0
874.0
876.0
876.0
881.0
887.0
888.0
890.0
893.0
898.0
902.0
902.0
905.0
906.0
907.0
909.0
913.0
917.0
921.0
920.0
921.0
921.0
919.0
912.0
909.0
904.0
902.0
903.0
906.0
910.0
915.0
922.0
926.0
926.0
919.0
912.0
900.0
896.0
884.0
882.0
879.0
876.0
873.0
871.0
866.0
867.0
864.0
865.0
864.0
865.0
865.0
859.0
859.0
858.0
858.0
860.0
862.0
864.0
867.0
861.0
860.0
858.0
856.0
855.0
857.0
858.0
854.0
854.0
853.0
854.0
860.0
860.0
863.0
866.0
862.0
862.0
857.0
853.0
858.0
864.0
878.0
904.0
938.0
974.0
1008.0
1031.0
1037.0
1035.0
1029.0
1035.0
1052.0
1092.0
1125.0
1149.0
1138.0
1081.0
986.0
870.0
758.0
674.0
626.0
602.0
595.0
597.0
594.0
590.0
584.0
581.0
576.0
571.0
576.0
576.0
578.0
587.0
599.0
618.0
645.0
678.0
715.0
742.0
768.0
789.0
803.0
810.0
813.0
816.0
817.0
821.0
829.0
832.0
835.0
835.0
837.0
836.0
833.0
831.0
832.0
832.0
832.0
831.0
835.0
835.0
840.0
838.0
836.0
828.0
823.0
817.0
817.0
815.0
818.0
818.0
819.0
816.0
817.0
813.0
809.0
804.0
804.0
798.0
795.0
795.0
795.0
793.0
792.0
793.0
796.0
796.0
794.0
786.0
781.0
778.0
775.0
774.0
777.0
779.0
781.0
784.0
787.0
786.0
788.0
786.0
787.0
789.0
790.0
792.0
796.0
798.0
804.0
810.0
815.0
821.0
825.0
830.0
831.0
836.0
839.0
838.0
837.0
840.0
844.0
849.0
855.0
856.0
855.0
852.0
852.0
852.0
854.0
851.0
851.0
855.0
854.0
859.0
864.0
866.0
866.0
860.0
858.0
854.0
851.0
852.0
853.0
859.0
857.0
860.0
858.0
855.0
854.0
853.0
852.0
853.0
852.0
853.0
855.0
852.0
855.0
855.0
855.0
854.0
853.0
852.0
851.0
847.0
846.0
844.0
846.0
844.0
846.0
846.0
846.0
846.0
849.0
850.0
853.0
850.0
843.0
838.0
839.0
842.0
847.0
852.0
858.0
856.0
856.0
850.0
848.0
844.0
849.0
848.0
849.0
852.0
853.0
853.0
855.0
855.0
856.0
853.0
858.0
852.0
848.0
848.0
851.0
851.0
848.0
858.0
860.0
862.0
863.0
860.0
857.0
852.0
853.0
850.0
849.0
852.0
855.0
858.0
860.0
857.0
858.0
858.0
859.0
862.0
862.0
860.0
863.0
862.0
869.0
874.0
877.0
877.0
878.0
879.0
879.0
882.0
882.0
884.0
888.0
895.0
901.0
909.0
915.0
915.0
917.0
906.0
900.0
891.0
887.0
882.0
884.0
890.0
895.0
903.0
910.0
916.0
914.0
902.0
895.0
883.0
875.0
866.0
865.0
864.0
859.0
856.0
856.0
854.0
856.0
854.0
851.0
851.0
850.0
850.0
848.0
852.0
852.0
856.0
858.0
858.0
858.0
856.0
854.0
852.0
847.0
845.0
845.0
844.0
846.0
849.0
854.0
856.0
856.0
857.0
852.0
849.0
850.0
848.0
849.0
850.0
852.0
854.0
862.0
876.0
901.0
930.0
963.0
999.0
1028.0
1043.0
1046.0
1040.0
1041.0
1051.0
1080.0
1114.0
1149.0
1171.0
1163.0
1114.0
1026.0
915.0
803.0
717.0
658.0
631.0
616.0
604.0
595.0
587.0
579.0
573.0
573.0
575.0
577.0
582.0
591.0
604.0
618.0
636.0
659.0
685.0
716.0
744.0
769.0
792.0
809.0
821.0
828.0
832.0
836.0
842.0
842.0
844.0
845.0
845.0
847.0
845.0
845.0
847.0
850.0
850.0
852.0
851.0
850.0
846.0
845.0
845.0
846.0
846.0
850.0
853.0
856.0
854.0
851.0
846.0
839.0
837.0
832.0
828.0
823.0
821.0
819.0
821.0
821.0
822.0
822.0
821.0
821.0
817.0
813.0
812.0
810.0
809.0
807.0
806.0
805.0
803.0
805.0
803.0
804.0
806.0
808.0
810.0
808.0
808.0
811.0
817.0
822.0
828.0
833.0
831.0
834.0
836.0
837.0
843.0
847.0
850.0
855.0
859.0
864.0
871.0
875.0
872.0
876.0
874.0
871.0
874.0
876.0
881.0
877.0
882.0
886.0
890.0
892.0
893.0
893.0
893.0
888.0
889.0
888.0
890.0
890.0
891.0
893.0
895.0
894.0
893.0
892.0
892.0
890.0
888.0
889.0
884.0
884.0
886.0
888.0
888.0
887.0
888.0
888.0
887.0
886.0
886.0
884.0
885.0
883.0
887.0
884.0
888.0
889.0
890.0
889.0
891.0
892.0
886.0
885.0
882.0
881.0
883.0
888.0
894.0
895.0
893.0
891.0
889.0
886.0
883.0
883.0
887.0
888.0
892.0
893.0
894.0
897.0
892.0
888.0
888.0
891.0
895.0
896.0
897.0
899.0
899.0
901.0
899.0
900.0
904.0
900.0
898.0
899.0
895.0
897.0
895.0
896.0
894.0
896.0
898.0
903.0
901.0
906.0
908.0
904.0
904.0
903.0
902.0
900.0
905.0
913.0
918.0
922.0
929.0
926.0
927.0
928.0
925.0
924.0
927.0
932.0
939.0
950.0
958.0
962.0
959.0
953.0
945.0
941.0
934.0
929.0
930.0
932.0
940.0
947.0
954.0
960.0
955.0
950.0
943.0
935.0
919.0
915.0
908.0
902.0
902.0
901.0
906.0
904.0
902.0
900.0
896.0
892.0
892.0
886.0
882.0
883.0
887.0
890.0
892.0
894.0
893.0
892.0
888.0
884.0
880.0
883.0
881.0
883.0
886.0
886.0
892.0
896.0
895.0
890.0
890.0
889.0
889.0
888.0
885.0
884.0
887.0
887.0
889.0
895.0
902.0
915.0
940.0
970.0
999.0
1032.0
1056.0
1067.0
1072.0
1071.0
1069.0
1090.0
1119.0
1160.0
1192.0
1200.0
1157.0
1067.0
944.0
819.0
728.0
665.0
638.0
626.0
622.0
618.0
618.0
615.0
615.0
617.0
615.0
613.0
616.0
622.0
630.0
639.0
651.0
665.0
689.0
718.0
745.0
778.0
804.0
827.0
845.0
859.0
869.0
872.0
873.0
875.0
878.0
881.0
882.0
882.0
882.0
881.0
889.0
888.0
893.0
896.0
895.0
896.0
894.0
890.0
890.0
889.0
887.0
883.0
883.0
883.0
882.0
883.0
884.0
881.0
880.0
875.0
871.0
870.0
869.0
866.0
868.0
869.0
867.0
868.0
859.0
856.0
854.0
850.0
845.0
845.0
844.0
844.0
844.0
846.0
846.0
843.0
845.0
846.0
845.0
842.0
841.0
846.0
844.0
847.0
849.0
852.0
859.0
858.0
864.0
866.0
870.0
873.0
874.0
878.0
883.0
885.0
890.0
893.0
900.0
906.0
909.0
909.0
911.0
912.0
912.0
916.0
917.0
919.0
918.0
922.0
927.0
930.0
929.0
929.0
930.0
927.0
927.0
929.0
927.0
927.0
929.0
933.0
932.0
935.0
933.0
930.0
928.0
926.0
924.0
923.0
923.0
925.0
925.0
924.0
930.0
932.0
927.0
929.0
926.0
921.0
917.0
917.0
915.0
916.0
915.0
918.0
917.0
924.0
924.0
923.0
922.0
922.0
920.0
917.0
915.0
916.0
921.0
922.0
922.0
923.0
924.0
923.0
926.0
925.0
923.0
924.0
920.0
917.0
920.0
924.0
923.0
929.0
927.0
924.0
925.0
923.0
919.0
919.0
916.0
922.0
927.0
930.0
931.0
934.0
927.0
923.0
922.0
921.0
922.0
920.0
922.0
921.0
926.0
925.0
930.0
930.0
928.0
926.0
926.0
926.0
925.0
922.0
920.0
920.0
923.0
924.0
929.0
932.0
938.0
936.0
939.0
935.0
938.0
941.0
940.0
943.0
945.0
947.0
947.0
952.0
961.0
968.0
971.0
975.0
972.0
970.0
962.0
956.0
951.0
948.0
948.0
952.0
958.0
961.0
966.0
969.0
968.0
965.0
953.0
946.0
936.0
933.0
932.0
929.0
930.0
928.0
920.0
914.0
909.0
905.0
901.0
903.0
905.0
903.0
904.0
906.0
904.0
907.0
906.0
903.0
905.0
901.0
898.0
897.0
899.0
900.0
901.0
906.0
903.0
904.0
906.0
905.0
904.0
903.0
900.0
905.0
905.0
905.0
904.0
902.0
902.0
900.0
902.0
904.0
917.0
946.0
979.0
1021.0
1060.0
1087.0
1101.0
1107.0
1103.0
1104.0
1120.0
1147.0
1180.0
1199.0
1190.0
1141.0
1052.0
940.0
834.0
750.0
694.0
668.0
658.0
650.0
644.0
639.0
630.0
626.0
622.0
623.0
626.0
626.0
632.0
633.0
641.0
643.0
652.0
667.0
686.0
712.0
746.0
780.0
809.0
835.0
852.0
863.0
868.0
872.0
871.0
873.0
876.0
880.0
886.0
886.0
891.0
891.0
891.0
890.0
891.0
889.0
887.0
886.0
882.0
884.0
883.0
888.0
888.0
890.0
887.0
885.0
879.0
878.0
875.0
871.0
869.0
866.0
865.0
865.0
865.0
864.0
862.0
862.0
856.0
853.0
844.0
846.0
842.0
837.0
836.0
842.0
842.0
843.0
838.0
835.0
835.0
828.0
830.0
833.0
831.0
833.0
833.0
837.0
837.0
845.0
849.0
851.0
854.0
854.0
853.0
854.0
858.0
863.0
872.0
880.0
883.0
891.0
893.0
897.0
899.0
896.0
898.0
900.0
900.0
900.0
904.0
909.0
913.0
915.0
917.0
921.0
920.0
921.0
920.0
918.0
918.0
921.0
921.0
927.0
926.0
930.0
929.0
926.0
926.0
922.0
919.0
917.0
918.0
924.0
923.0
924.0
923.0
923.0
919.0
919.0
918.0
916.0
918.0
919.0
917.0
917.0
918.0
917.0
922.0
924.0
922.0
918.0
916.0
914.0
911.0
908.0
907.0
909.0
910.0
913.0
917.0
917.0
917.0
916.0
913.0
911.0
913.0
910.0
911.0
910.0
911.0
913.0
914.0
920.0
920.0
917.0
915.0
912.0
908.0
911.0
914.0
918.0
918.0
921.0
919.0
923.0
921.0
920.0
914.0
917.0
915.0
914.0
914.0
913.0
913.0
917.0
920.0
924.0
925.0
926.0
925.0
921.0
921.0
919.0
918.0
918.0
917.0
918.0
917.0
920.0
919.0
926.0
926.0
930.0
934.0
932.0
934.0
933.0
939.0
941.0
945.0
948.0
951.0
956.0
958.0
965.0
969.0
971.0
975.0
972.0
967.0
963.0
958.0
948.0
948.0
945.0
947.0
947.0
953.0
959.0
964.0
968.0
968.0
962.0
958.0
953.0
941.0
935.0
928.0
924.0
920.0
915.0
914.0
912.0
912.0
912.0
914.0
910.0
914.0
914.0
917.0
916.0
912.0
906.0
903.0
899.0
899.0
901.0
904.0
906.0
907.0
906.0
907.0
906.0
906.0
901.0
901.0
902.0
904.0
906.0
908.0
911.0
909.0
909.0
906.0
904.0
902.0
900.0
901.0
902.0
910.0
925.0
954.0
988.0
1025.0
1063.0
1086.0
1096.0
1092.0
1087.0
1088.0
1111.0
1147.0
1189.0
1223.0
1238.0
1218.0
1159.0
1063.0
944.0
837.0
753.0
696.0
671.0
659.0
652.0
647.0
638.0
628.0
622.0
616.0
615.0
618.0
621.0
618.0
623.0
627.0
636.0
647.0
662.0
682.0
708.0
738.0
770.0
802.0
825.0
851.0
864.0
877.0
883.0
887.0
891.0
892.0
893.0
895.0
891.0
898.0
894.0
896.0
897.0
896.0
899.0
902.0
903.0
902.0
904.0
901.0
896.0
890.0
886.0
887.0
888.0
891.0
895.0
892.0
891.0
889.0
880.0
876.0
873.0
866.0
864.0
863.0
861.0
860.0
862.0
863.0
860.0
857.0
852.0
851.0
848.0
847.0
847.0
840.0
849.0
850.0
853.0
850.0
852.0
852.0
849.0
848.0
852.0
847.0
847.0
849.0
850.0
858.0
862.0
865.0
870.0
874.0
878.0
881.0
882.0
881.0
880.0
890.0
891.0
898.0
904.0
910.0
915.0
919.0
922.0
921.0
921.0
922.0
922.0
921.0
921.0
923.0
927.0
932.0
933.0
934.0
932.0
929.0
928.0
928.0
926.0
929.0
930.0
932.0
930.0
932.0
931.0
934.0
932.0
933.0
932.0
929.0
927.0
923.0
923.0
923.0
925.0
926.0
927.0
929.0
925.0
926.0
925.0
921.0
917.0
918.0
918.0
920.0
922.0
923.0
921.0
922.0
925.0
923.0
921.0
918.0
918.0
915.0
919.0
920.0
924.0
924.0
924.0
922.0
921.0
923.0
924.0
923.0
924.0
920.0
921.0
922.0
923.0
923.0
924.0
923.0
924.0
926.0
926.0
927.0
923.0
923.0
920.0
923.0
924.0
928.0
930.0
927.0
928.0
931.0
929.0
925.0
925.0
923.0
924.0
924.0
928.0
930.0
932.0
932.0
932.0
931.0
928.0
928.0
931.0
932.0
937.0
941.0
943.0
948.0
952.0
952.0
952.0
956.0
952.0
957.0
957.0
959.0
966.0
972.0
976.0
983.0
983.0
980.0
976.0
969.0
960.0
955.0
953.0
952.0
958.0
966.0
974.0
974.0
977.0
977.0
974.0
965.0
951.0
942.0
932.0
931.0
928.0
927.0
931.0
929.0
928.0
926.0
922.0
917.0
914.0
911.0
909.0
905.0
906.0
907.0
913.0
912.0
914.0
916.0
916.0
915.0
912.0
910.0
905.0
900.0
906.0
906.0
911.0
910.0
915.0
915.0
913.0
915.0
913.0
913.0
914.0
910.0
909.0
908.0
910.0
911.0
920.0
933.0
953.0
979.0
1018.0
1051.0
1079.0
1097.0
1099.0
1092.0
1088.0
1096.0
1120.0
1159.0
1200.0
1229.0
1232.0
1185.0
1098.0
983.0
868.0
771.0
704.0
668.0
655.0
648.0
642.0
636.0
625.0
619.0
611.0
611.0
609.0
614.0
621.0
630.0
645.0
659.0
674.0
696.0
726.0
755.0
784.0
812.0
835.0
854.0
867.0
879.0
887.0
891.0
894.0
894.0
893.0
897.0
898.0
899.0
903.0
905.0
906.0
907.0
905.0
906.0
906.0
899.0
901.0
896.0
892.0
889.0
891.0
893.0
897.0
899.0
897.0
893.0
886.0
880.0
878.0
876.0
871.0
870.0
866.0
866.0
866.0
864.0
865.0
863.0
857.0
857.0
852.0
852.0
850.0
849.0
846.0
847.0
847.0
846.0
847.0
847.0
849.0
850.0
851.0
853.0
851.0
851.0
852.0
853.0
856.0
858.0
862.0
864.0
867.0
872.0
873.0
875.0
880.0
882.0
889.0
895.0
901.0
904.0
907.0
910.0
912.0
912.0
911.0
913.0
914.0
916.0
918.0
923.0
923.0
928.0
931.0
934.0
932.0
932.0
934.0
933.0
931.0
931.0
930.0
930.0
931.0
927.0
928.0
930.0
930.0
931.0
927.0
928.0
932.0
928.0
927.0
920.0
923.0
924.0
924.0
924.0
920.0
920.0
920.0
920.0
919.0
919.0
916.0
917.0
918.0
916.0
917.0
916.0
920.0
918.0
920.0
920.0
914.0
912.0
910.0
908.0
915.0
916.0
922.0
924.0
919.0
921.0
917.0
912.0
913.0
915.0
915.0
917.0
916.0
918.0
923.0
924.0
922.0
921.0
922.0
919.0
916.0
913.0
914.0
913.0
917.0
916.0
922.0
925.0
925.0
924.0
923.0
922.0
915.0
914.0
914.0
916.0
920.0
920.0
924.0
924.0
927.0
925.0
924.0
922.0
921.0
922.0
926.0
930.0
930.0
933.0
937.0
936.0
938.0
940.0
939.0
939.0
941.0
943.0
950.0
957.0
968.0
972.0
977.0
976.0
971.0
965.0
960.0
950.0
945.0
947.0
944.0
948.0
954.0
958.0
967.0
974.0
974.0
969.0
962.0
948.0
938.0
928.0
924.0
921.0
918.0
918.0
916.0
915.0
914.0
912.0
911.0
907.0
903.0
901.0
899.0
901.0
902.0
900.0
902.0
903.0
902.0
900.0
901.0
900.0
898.0
898.0
900.0
901.0
901.0
901.0
900.0
903.0
902.0
903.0
903.0
902.0
897.0
893.0
890.0
890.0
896.0
911.0
932.0
963.0
999.0
1034.0
1068.0
1086.0
1089.0
1080.0
1075.0
1086.0
1111.0
1149.0
1192.0
1214.0
1195.0
1135.0
1029.0
908.0
786.0
700.0
646.0
623.0
614.0
611.0
611.0
608.0
601.0
601.0
597.0
594.0
596.0
597.0
605.0
614.0
627.0
644.0
671.0
703.0
732.0
768.0
798.0
823.0
839.0
853.0
859.0
863.0
867.0
871.0
872.0
876.0
879.0
878.0
875.0
877.0
875.0
875.0
876.0
875.0
877.0
877.0
877.0
877.0
874.0
873.0
871.0
870.0
867.0
861.0
858.0
859.0
857.0
855.0
855.0
852.0
850.0
849.0
843.0
841.0
836.0
831.0
829.0
827.0
828.0
827.0
827.0
820.0
820.0
821.0
819.0
817.0
813.0
812.0
807.0
806.0
807.0
809.0
809.0
810.0
812.0
810.0
809.0
809.0
813.0
815.0
818.0
821.0
829.0
835.0
838.0
843.0
847.0
853.0
853.0
859.0
860.0
858.0
866.0
867.0
874.0
881.0
886.0
888.0
889.0
888.0
886.0
885.0
887.0
887.0
890.0
891.0
895.0
893.0
891.0
890.0
890.0
894.0
895.0
893.0
890.0
890.0
883.0
884.0
890.0
890.0
892.0
894.0
892.0
890.0
886.0
884.0
884.0
884.0
885.0
884.0
885.0
887.0
888.0
886.0
886.0
884.0
881.0
879.0
876.0
875.0
876.0
876.0
876.0
880.0
881.0
885.0
883.0
883.0
884.0
879.0
875.0
877.0
873.0
875.0
882.0
883.0
886.0
885.0
883.0
883.0
883.0
881.0
882.0
882.0
882.0
880.0
880.0
881.0
887.0
884.0
885.0
883.0
880.0
881.0
882.0
884.0
884.0
883.0
885.0
883.0
882.0
882.0
882.0
883.0
882.0
883.0
885.0
885.0
887.0
885.0
885.0
889.0
887.0
887.0
886.0
891.0
881.0
882.0
885.0
886.0
891.0
891.0
893.0
898.0
899.0
903.0
905.0
911.0
910.0
908.0
907.0
909.0
915.0
920.0
924.0
931.0
941.0
942.0
941.0
940.0
932.0
929.0
919.0
913.0
913.0
915.0
922.0
928.0
936.0
941.0
940.0
942.0
931.0
924.0
916.0
906.0
901.0
895.0
894.0
892.0
889.0
886.0
881.0
880.0
873.0
873.0
872.0
866.0
870.0
869.0
873.0
873.0
876.0
878.0
877.0
873.0
867.0
870.0
867.0
868.0
870.0
871.0
870.0
869.0
871.0
871.0
871.0
872.0
874.0
876.0
870.0
870.0
871.0
867.0
867.0
867.0
867.0
866.0
871.0
875.0
888.0
909.0
940.0
975.0
1015.0
1046.0
1066.0
1068.0
1061.0
1062.0
1067.0
1094.0
1130.0
1167.0
1189.0
1185.0
1140.0
1054.0
940.0
823.0
729.0
664.0
626.0
611.0
607.0
600.0
593.0
587.0
582.0
580.0
578.0
578.0
583.0
591.0
598.0
604.0
615.0
629.0
644.0
675.0
709.0
743.0
776.0
801.0
822.0
833.0
842.0
847.0
848.0
850.0
852.0
852.0
855.0
863.0
863.0
866.0
866.0
864.0
867.0
867.0
866.0
865.0
859.0
858.0
857.0
861.0
863.0
863.0
865.0
864.0
863.0
860.0
858.0
853.0
846.0
843.0
843.0
840.0
838.0
840.0
838.0
839.0
835.0
831.0
825.0
824.0
818.0
820.0
817.0
818.0
812.0
812.0
814.0
815.0
809.0
807.0
805.0
806.0
807.0
807.0
806.0
807.0
810.0
812.0
815.0
818.0
819.0
817.0
825.0
823.0
824.0
829.0
837.0
840.0
848.0
854.0
859.0
859.0
862.0
861.0
867.0
867.0
868.0
871.0
872.0
874.0
877.0
881.0
884.0
887.0
891.0
892.0
895.0
895.0
893.0
894.0
893.0
893.0
896.0
896.0
897.0
898.0
898.0
897.0
898.0
895.0
891.0
893.0
891.0
888.0
888.0
890.0
892.0
894.0
895.0
894.0
892.0
891.0
887.0
887.0
885.0
883.0
886.0
888.0
888.0
896.0
890.0
889.0
885.0
887.0
882.0
881.0
882.0
882.0
886.0
885.0
885.0
885.0
887.0
889.0
886.0
883.0
883.0
877.0
879.0
881.0
888.0
889.0
892.0
888.0
886.0
887.0
886.0
886.0
886.0
887.0
883.0
883.0
884.0
884.0
885.0
887.0
890.0
890.0
888.0
886.0
885.0
884.0
888.0
886.0
886.0
887.0
889.0
888.0
887.0
888.0
887.0
885.0
884.0
887.0
888.0
892.0
892.0
890.0
894.0
893.0
900.0
898.0
901.0
902.0
900.0
901.0
903.0
904.0
909.0
914.0
914.0
920.0
924.0
928.0
934.0
938.0
940.0
940.0
935.0
930.0
933.0
932.0
934.0
926.0
922.0
922.0
923.0
926.0
933.0
939.0
943.0
943.0
941.0
930.0
920.0
913.0
902.0
900.0
893.0
891.0
887.0
884.0
881.0
881.0
882.0
883.0
883.0
884.0
883.0
882.0
879.0
879.0
873.0
872.0
868.0
871.0
874.0
877.0
880.0
876.0
875.0
873.0
874.0
873.0
873.0
873.0
872.0
871.0
872.0
873.0
876.0
880.0
878.0
878.0
878.0
879.0
877.0
875.0
872.0
873.0
888.0
909.0
946.0
983.0
1025.0
1055.0
1067.0
1067.0
1059.0
1062.0
1080.0
1112.0
1157.0
1194.0
1206.0
1176.0
1096.0
982.0
854.0
742.0
661.0
619.0
599.0
591.0
593.0
593.0
590.0
585.0
583.0
584.0
584.0
587.0
591.0
592.0
602.0
617.0
635.0
663.0
693.0
729.0
762.0
789.0
810.0
825.0
833.0
837.0
843.0
848.0
861.0
866.0
868.0
867.0
867.0
868.0
866.0
867.0
867.0
869.0
873.0
872.0
872.0
874.0
872.0
871.0
870.0
865.0
861.0
861.0
860.0
855.0
851.0
850.0
852.0
852.0
855.0
856.0
852.0
847.0
843.0
839.0
833.0
832.0
831.0
828.0
827.0
828.0
829.0
830.0
829.0
827.0
825.0
819.0
814.0
812.0
812.0
811.0
814.0
815.0
818.0
817.0
817.0
819.0
819.0
822.0
822.0
823.0
824.0
832.0
837.0
840.0
846.0
855.0
860.0
862.0
866.0
870.0
872.0
874.0
874.0
877.0
877.0
881.0
883.0
888.0
890.0
889.0
891.0
890.0
890.0
893.0
891.0
895.0
898.0
900.0
902.0
904.0
901.0
897.0
896.0
893.0
891.0
891.0
898.0
898.0
898.0
900.0
899.0
898.0
898.0
896.0
896.0
890.0
887.0
885.0
887.0
886.0
891.0
890.0
896.0
898.0
900.0
897.0
891.0
889.0
887.0
885.0
884.0
885.0
888.0
889.0
885.0
889.0
888.0
890.0
890.0
887.0
888.0
883.0
887.0
888.0
889.0
888.0
891.0
894.0
898.0
895.0
895.0
892.0
890.0
889.0
885.0
887.0
891.0
894.0
900.0
902.0
897.0
895.0
890.0
889.0
889.0
891.0
894.0
895.0
898.0
899.0
901.0
900.0
897.0
899.0
898.0
894.0
895.0
899.0
898.0
898.0
901.0
898.0
898.0
902.0
897.0
897.0
898.0
907.0
907.0
910.0
908.0
911.0
913.0
914.0
918.0
921.0
922.0
925.0
920.0
927.0
929.0
932.0
939.0
946.0
950.0
952.0
952.0
944.0
936.0
931.0
924.0
924.0
926.0
928.0
938.0
946.0
950.0
953.0
949.0
941.0
933.0
922.0
915.0
908.0
902.0
899.0
897.0
895.0
891.0
893.0
891.0
896.0
896.0
894.0
890.0
885.0
882.0
881.0
879.0
879.0
880.0
878.0
883.0
886.0
884.0
882.0
883.0
881.0
879.0
880.0
875.0
878.0
882.0
886.0
887.0
888.0
886.0
886.0
883.0
880.0
877.0
874.0
874.0
877.0
883.0
892.0
909.0
935.0
969.0
1005.0
1042.0
1073.0
1091.0
1091.0
1084.0
1080.0
1095.0
1121.0
1156.0
1194.0
1202.0
1177.0
1103.0
991.0
866.0
754.0
676.0
632.0
610.0
607.0
602.0
604.0
600.0
596.0
591.0
590.0
588.0
589.0
589.0
593.0
600.0
612.0
624.0
645.0
667.0
697.0
729.0
762.0
789.0
811.0
828.0
842.0
850.0
855.0
858.0
862.0
863.0
862.0
862.0
862.0
864.0
863.0
867.0
867.0
871.0
871.0
872.0
877.0
873.0
874.0
871.0
864.0
861.0
859.0
856.0
855.0
854.0
857.0
858.0
862.0
859.0
858.0
851.0
845.0
842.0
840.0
839.0
835.0
834.0
830.0
830.0
828.0
822.0
821.0
821.0
822.0
818.0
820.0
817.0
812.0
812.0
812.0
814.0
817.0
816.0
817.0
816.0
817.0
814.0
814.0
818.0
819.0
827.0
830.0
836.0
842.0
843.0
850.0
853.0
856.0
861.0
863.0
866.0
868.0
876.0
880.0
885.0
891.0
894.0
894.0
892.0
891.0
891.0
892.0
892.0
892.0
898.0
902.0
903.0
909.0
905.0
910.0
905.0
906.0
904.0
904.0
905.0
902.0
904.0
905.0
907.0
911.0
910.0
912.0
908.0
906.0
904.0
904.0
899.0
899.0
902.0
908.0
909.0
908.0
906.0
904.0
902.0
898.0
897.0
898.0
897.0
896.0
899.0
898.0
901.0
902.0
901.0
905.0
902.0
900.0
897.0
896.0
892.0
893.0
895.0
899.0
899.0
903.0
905.0
901.0
902.0
900.0
899.0
897.0
898.0
895.0
896.0
897.0
902.0
906.0
904.0
904.0
905.0
904.0
901.0
904.0
900.0
899.0
896.0
900.0
900.0
906.0
902.0
904.0
901.0
899.0
898.0
901.0
902.0
900.0
903.0
905.0
904.0
907.0
906.0
904.0
901.0
905.0
899.0
901.0
903.0
903.0
904.0
907.0
911.0
915.0
918.0
923.0
925.0
924.0
925.0
922.0
922.0
922.0
928.0
931.0
939.0
942.0
948.0
955.0
955.0
956.0
956.0
949.0
943.0
936.0
934.0
931.0
933.0
937.0
939.0
945.0
951.0
951.0
950.0
946.0
940.0
932.0
925.0
921.0
917.0
916.0
912.0
906.0
902.0
894.0
889.0
888.0
884.0
885.0
887.0
889.0
893.0
892.0
893.0
893.0
891.0
886.0
886.0
885.0
884.0
881.0
882.0
879.0
883.0
885.0
885.0
882.0
888.0
886.0
885.0
887.0
882.0
881.0
882.0
883.0
882.0
883.0
878.0
885.0
878.0
883.0
889.0
906.0
930.0
971.0
1013.0
1048.0
1074.0
1086.0
1078.0
1073.0
1075.0
1094.0
1130.0
1172.0
1203.0
1212.0
1181.0
1107.0
1004.0
894.0
790.0
713.0
668.0
642.0
628.0
618.0
606.0
596.0
585.0
582.0
579.0
582.0
585.0
587.0
589.0
591.0
595.0
603.0
611.0
632.0
663.0
692.0
733.0
764.0
794.0
814.0
831.0
839.0
844.0
847.0
851.0
851.0
855.0
860.0
864.0
869.0
870.0
871.0
870.0
868.0
870.0
871.0
869.0
870.0
871.0
874.0
874.0
873.0
871.0
867.0
867.0
867.0
863.0
857.0
857.0
852.0
852.0
852.0
851.0
851.0
848.0
843.0
842.0
837.0
835.0
831.0
827.0
824.0
824.0
824.0
823.0
825.0
821.0
818.0
818.0
819.0
816.0
814.0
812.0
810.0
811.0
814.0
814.0
815.0
814.0
819.0
818.0
818.0
820.0
822.0
824.0
828.0
827.0
836.0
842.0
847.0
854.0
857.0
860.0
861.0
862.0
866.0
867.0
871.0
875.0
874.0
878.0
885.0
888.0
887.0
889.0
890.0
889.0
891.0
891.0
893.0
895.0
898.0
901.0
902.0
901.0
902.0
900.0
893.0
895.0
896.0
899.0
897.0
900.0
902.0
905.0
902.0
901.0
894.0
896.0
893.0
893.0
895.0
893.0
896.0
896.0
897.0
898.0
896.0
893.0
889.0
889.0
885.0
884.0
886.0
884.0
886.0
888.0
889.0
893.0
893.0
892.0
893.0
892.0
891.0
886.0
888.0
887.0
887.0
888.0
889.0
888.0
890.0
888.0
889.0
889.0
885.0
886.0
887.0
884.0
886.0
889.0
889.0
892.0
894.0
898.0
896.0
894.0
