# Simple Text Format
# Sampling Rate (Hz):= 360.00
# Resolution:= 12
# Labels:= ECG
872.0
879.0
883.0
885.0
880.0
880.0
881.0
875.0
871.0
867.0
860.0
858.0
863.0
868.0
876.0
879.0
884.0
883.0
882.0
878.0
873.0
867.0
867.0
868.0
860.0
864.0
868.0
869.0
868.0
873.0
875.0
870.0
863.0
861.0
861.0
863.0
863.0
864.0
866.0
865.0
864.0
864.0
869.0
872.0
878.0
875.0
875.0
870.0
867.0
865.0
872.0
873.0
879.0
881.0
881.0
876.0
872.0
871.0
868.0
866.0
866.0
871.0
873.0
874.0
875.0
876.0
878.0
878.0
880.0
882.0
881.0
882.0
886.0
888.0
893.0
893.0
895.0
895.0
897.0
906.0
908.0
911.0
913.0
913.0
911.0
908.0
909.0
910.0
905.0
906.0
899.0
897.0
895.0
896.0
900.0
909.0
911.0
915.0
917.0
918.0
912.0
904.0
895.0
889.0
886.0
885.0
882.0
883.0
880.0
878.0
875.0
871.0
871.0
867.0
865.0
866.0
866.0
867.0
867.0
870.0
870.0
866.0
867.0
865.0
861.0
861.0
860.0
862.0
860.0
861.0
860.0
855.0
852.0
854.0
860.0
864.0
870.0
869.0
866.0
863.0
858.0
850.0
847.0
839.0
837.0
837.0
847.0
869.0
896.0
933.0
964.0
988.0
995.0
993.0
988.0
992.0
1015.0
1060.0
1111.0
1150.0
1158.0
1128.0
1063.0
982.0
903.0
837.0
791.0
759.0
738.0
719.0
705.0
687.0
675.0
668.0
662.0
657.0
654.0
651.0
650.0
653.0
657.0
666.0
685.0
711.0
743.0
770.0
797.0
813.0
824.0
832.0
830.0
827.0
824.0
825.0
830.0
836.0
838.0
845.0
842.0
841.0
840.0
835.0
832.0
834.0
836.0
839.0
841.0
840.0
840.0
841.0
840.0
834.0
831.0
829.0
829.0
825.0
822.0
819.0
818.0
822.0
819.0
819.0
816.0
811.0
810.0
805.0
799.0
799.0
795.0
793.0
794.0
793.0
794.0
794.0
792.0
789.0
794.0
789.0
784.0
787.0
785.0
783.0
784.0
787.0
786.0
785.0
786.0
787.0
789.0
791.0
793.0
792.0
794.0
797.0
802.0
806.0
808.0
815.0
821.0
820.0
825.0
824.0
829.0
831.0
835.0
838.0
843.0
844.0
848.0
854.0
857.0
861.0
861.0
862.0
861.0
858.0
864.0
864.0
866.0
866.0
866.0
868.0
865.0
865.0
864.0
862.0
863.0
865.0
864.0
862.0
864.0
868.0
868.0
869.0
867.0
867.0
865.0
864.0
858.0
857.0
857.0
853.0
854.0
856.0
856.0
859.0
859.0
860.0
860.0
857.0
854.0
853.0
850.0
850.0
851.0
849.0
852.0
854.0
855.0
857.0
854.0
850.0
854.0
850.0
851.0
852.0
853.0
857.0
856.0
856.0
854.0
853.0
850.0
853.0
853.0
854.0
854.0
857.0
857.0
859.0
862.0
865.0
864.0
864.0
861.0
861.0
861.0
860.0
857.0
856.0
858.0
857.0
858.0
864.0
865.0
864.0
864.0
862.0
863.0
860.0
861.0
861.0
865.0
865.0
867.0
869.0
871.0
873.0
875.0
879.0
880.0
881.0
884.0
886.0
885.0
889.0
892.0
897.0
900.0
902.0
905.0
903.0
902.0
902.0
898.0
896.0
890.0
891.0
888.0
890.0
895.0
899.0
903.0
904.0
904.0
902.0
897.0
894.0
888.0
880.0
872.0
871.0
869.0
864.0
864.0
860.0
855.0
853.0
849.0
847.0
847.0
848.0
850.0
851.0
853.0
851.0
847.0
846.0
843.0
843.0
844.0
842.0
846.0
847.0
847.0
849.0
851.0
848.0
846.0
847.0
847.0
844.0
843.0
846.0
847.0
849.0
849.0
851.0
850.0
846.0
841.0
838.0
831.0
828.0
830.0
846.0
869.0
904.0
936.0
968.0
986.0
990.0
986.0
983.0
989.0
1013.0
1054.0
1099.0
1133.0
1143.0
1121.0
1054.0
968.0
876.0
804.0
747.0
714.0
694.0
681.0
667.0
653.0
638.0
630.0
623.0
620.0
618.0
617.0
612.0
611.0
611.0
613.0
621.0
636.0
660.0
686.0
714.0
745.0
767.0
785.0
798.0
807.0
808.0
812.0
818.0
821.0
825.0
828.0
827.0
833.0
833.0
836.0
832.0
836.0
834.0
832.0
831.0
833.0
836.0
837.0
836.0
833.0
830.0
824.0
823.0
817.0
817.0
816.0
821.0
819.0
819.0
817.0
815.0
812.0
806.0
805.0
799.0
795.0
794.0
791.0
791.0
790.0
788.0
791.0
790.0
791.0
790.0
787.0
783.0
781.0
779.0
780.0
777.0
779.0
780.0
785.0
784.0
785.0
785.0
783.0
783.0
785.0
787.0
788.0
791.0
797.0
801.0
807.0
810.0
812.0
812.0
817.0
816.0
820.0
824.0
826.0
830.0
838.0
838.0
842.0
849.0
849.0
850.0
850.0
850.0
849.0
850.0
850.0
853.0
854.0
858.0
861.0
862.0
863.0
863.0
859.0
862.0
857.0
856.0
856.0
857.0
856.0
857.0
856.0
861.0
858.0
859.0
853.0
853.0
848.0
848.0
847.0
848.0
853.0
854.0
855.0
856.0
853.0
851.0
851.0
849.0
847.0
845.0
843.0
842.0
844.0
844.0
847.0
846.0
848.0
847.0
845.0
844.0
840.0
839.0
837.0
839.0
838.0
838.0
843.0
845.0
846.0
847.0
846.0
847.0
845.0
844.0
842.0
845.0
847.0
850.0
848.0
852.0
851.0
850.0
849.0
846.0
844.0
844.0
845.0
846.0
843.0
848.0
848.0
851.0
854.0
854.0
850.0
848.0
849.0
849.0
846.0
845.0
846.0
848.0
851.0
854.0
856.0
858.0
856.0
854.0
856.0
856.0
858.0
863.0
866.0
871.0
873.0
877.0
877.0
879.0
882.0
882.0
889.0
889.0
893.0
899.0
900.0
896.0
892.0
891.0
885.0
880.0
873.0
871.0
874.0
878.0
885.0
888.0
897.0
895.0
894.0
888.0
877.0
868.0
856.0
851.0
848.0
847.0
843.0
843.0
841.0
839.0
837.0
839.0
837.0
837.0
840.0
838.0
836.0
834.0
832.0
831.0
832.0
830.0
832.0
833.0
833.0
836.0
835.0
833.0
832.0
829.0
827.0
830.0
834.0
835.0
838.0
838.0
837.0
832.0
830.0
823.0
824.0
825.0
835.0
854.0
880.0
917.0
951.0
976.0
985.0
984.0
978.0
981.0
1000.0
1035.0
1084.0
1118.0
1134.0
1110.0
1048.0
955.0
855.0
765.0
700.0
660.0
634.0
621.0
609.0
600.0
595.0
587.0
588.0
589.0
588.0
589.0
590.0
588.0
595.0
599.0
610.0
627.0
653.0
681.0
716.0
745.0
768.0
788.0
797.0
806.0
807.0
810.0
810.0
818.0
823.0
827.0
831.0
834.0
836.0
833.0
833.0
826.0
824.0
824.0
823.0
828.0
828.0
831.0
830.0
828.0
828.0
824.0
822.0
816.0
813.0
807.0
804.0
799.0
800.0
804.0
807.0
808.0
808.0
806.0
803.0
797.0
793.0
788.0
784.0
782.0
782.0
781.0
779.0
781.0
778.0
781.0
780.0
783.0
778.0
783.0
779.0
780.0
780.0
781.0
785.0
786.0
788.0
787.0
788.0
786.0
788.0
792.0
793.0
797.0
804.0
810.0
816.0
821.0
822.0
825.0
828.0
830.0
826.0
828.0
831.0
836.0
837.0
843.0
844.0
850.0
851.0
853.0
853.0
852.0
852.0
855.0
851.0
853.0
854.0
853.0
854.0
856.0
855.0
857.0
857.0
856.0
852.0
855.0
855.0
854.0
853.0
855.0
856.0
857.0
852.0
853.0
851.0
849.0
846.0
846.0
846.0
846.0
847.0
846.0
846.0
851.0
848.0
849.0
848.0
846.0
845.0
842.0
841.0
840.0
846.0
846.0
848.0
848.0
850.0
850.0
851.0
847.0
849.0
848.0
848.0
849.0
849.0
851.0
852.0
853.0
847.0
849.0
845.0
845.0
848.0
849.0
851.0
848.0
856.0
858.0
860.0
862.0
860.0
859.0
857.0
856.0
854.0
851.0
856.0
854.0
858.0
858.0
856.0
859.0
862.0
860.0
861.0
858.0
858.0
855.0
853.0
855.0
856.0
861.0
863.0
866.0
867.0
869.0
869.0
869.0
868.0
873.0
876.0
878.0
878.0
880.0
882.0
883.0
886.0
887.0
892.0
897.0
901.0
903.0
905.0
905.0
901.0
901.0
899.0
894.0
891.0
890.0
889.0
892.0
897.0
900.0
902.0
904.0
904.0
899.0
893.0
889.0
882.0
875.0
873.0
865.0
861.0
857.0
850.0
847.0
846.0
849.0
848.0
850.0
850.0
849.0
850.0
846.0
844.0
841.0
840.0
843.0
840.0
838.0
841.0
844.0
844.0
842.0
841.0
838.0
839.0
839.0
836.0
839.0
841.0
844.0
845.0
848.0
847.0
844.0
840.0
838.0
836.0
837.0
845.0
864.0
894.0
930.0
967.0
998.0
1023.0
1036.0
1031.0
1020.0
1018.0
1024.0
1042.0
1073.0
1105.0
1125.0
1117.0
1067.0
979.0
876.0
775.0
699.0
646.0
618.0
606.0
603.0
597.0
592.0
585.0
584.0
582.0
579.0
579.0
578.0
578.0
582.0
587.0
599.0
613.0
635.0
668.0
704.0
737.0
765.0
786.0
801.0
808.0
809.0
811.0
810.0
814.0
818.0
820.0
824.0
827.0
828.0
827.0
823.0
823.0
824.0
824.0
824.0
825.0
822.0
823.0
827.0
823.0
821.0
821.0
820.0
815.0
817.0
811.0
809.0
812.0
810.0
808.0
809.0
801.0
797.0
800.0
795.0
792.0
790.0
788.0
784.0
783.0
783.0
786.0
785.0
781.0
785.0
782.0
777.0
775.0
772.0
771.0
774.0
776.0
778.0
781.0
783.0
783.0
782.0
784.0
782.0
784.0
785.0
787.0
786.0
790.0
795.0
800.0
803.0
809.0
810.0
817.0
819.0
822.0
824.0
825.0
829.0
832.0
838.0
840.0
843.0
847.0
847.0
849.0
850.0
851.0
850.0
849.0
854.0
852.0
855.0
857.0
862.0
859.0
859.0
856.0
853.0
851.0
853.0
854.0
855.0
855.0
859.0
859.0
862.0
860.0
855.0
857.0
853.0
851.0
850.0
850.0
852.0
853.0
854.0
857.0
858.0
857.0
856.0
852.0
852.0
848.0
843.0
842.0
843.0
846.0
848.0
850.0
854.0
852.0
849.0
849.0
847.0
844.0
847.0
847.0
848.0
854.0
851.0
852.0
856.0
857.0
857.0
854.0
853.0
851.0
852.0
850.0
849.0
851.0
852.0
857.0
857.0
856.0
856.0
855.0
857.0
856.0
855.0
854.0
855.0
857.0
858.0
860.0
861.0
862.0
861.0
861.0
860.0
860.0
857.0
856.0
858.0
861.0
865.0
868.0
871.0
873.0
873.0
873.0
874.0
875.0
878.0
879.0
884.0
885.0
888.0
892.0
899.0
903.0
905.0
911.0
909.0
909.0
906.0
901.0
897.0
895.0
891.0
890.0
890.0
889.0
890.0
896.0
900.0
906.0
909.0
906.0
900.0
895.0
888.0
882.0
874.0
871.0
869.0
866.0
862.0
856.0
855.0
851.0
851.0
852.0
852.0
856.0
859.0
856.0
854.0
854.0
851.0
848.0
847.0
847.0
847.0
848.0
852.0
854.0
854.0
857.0
854.0
851.0
849.0
850.0
849.0
846.0
846.0
847.0
849.0
851.0
851.0
850.0
847.0
846.0
843.0
840.0
845.0
857.0
876.0
905.0
939.0
971.0
996.0
1006.0
1005.0
1001.0
997.0
1008.0
1036.0
1071.0
1113.0
1141.0
1143.0
1111.0
1039.0
944.0
848.0
767.0
709.0
675.0
656.0
641.0
629.0
622.0
612.0
610.0
607.0
606.0
606.0
606.0
604.0
607.0
615.0
621.0
632.0
652.0
677.0
704.0
735.0
762.0
784.0
802.0
813.0
818.0
823.0
827.0
826.0
830.0
835.0
839.0
844.0
839.0
842.0
844.0
841.0
840.0
838.0
838.0
838.0
837.0
841.0
842.0
844.0
841.0
837.0
839.0
835.0
827.0
829.0
827.0
824.0
827.0
827.0
826.0
825.0
824.0
820.0
817.0
814.0
811.0
810.0
807.0
806.0
801.0
803.0
800.0
800.0
800.0
802.0
797.0
796.0
797.0
790.0
791.0
792.0
795.0
796.0
794.0
799.0
799.0
798.0
799.0
797.0
797.0
798.0
798.0
800.0
804.0
806.0
808.0
820.0
822.0
824.0
824.0
829.0
833.0
835.0
838.0
839.0
843.0
842.0
848.0
852.0
854.0
854.0
860.0
859.0
859.0
863.0
865.0
864.0
869.0
869.0
872.0
872.0
870.0
870.0
865.0
869.0
866.0
867.0
865.0
866.0
868.0
870.0
870.0
874.0
872.0
869.0
869.0
863.0
862.0
857.0
859.0
854.0
856.0
860.0
861.0
865.0
866.0
864.0
859.0
858.0
860.0
856.0
855.0
853.0
853.0
855.0
853.0
857.0
853.0
854.0
855.0
854.0
855.0
853.0
852.0
855.0
851.0
852.0
854.0
859.0
856.0
860.0
855.0
860.0
856.0
856.0
854.0
856.0
855.0
858.0
860.0
861.0
862.0
862.0
857.0
857.0
857.0
855.0
853.0
852.0
852.0
855.0
860.0
859.0
863.0
864.0
864.0
862.0
861.0
862.0
859.0
860.0
862.0
862.0
864.0
865.0
863.0
867.0
867.0
866.0
869.0
874.0
880.0
883.0
885.0
885.0
883.0
885.0
888.0
892.0
895.0
899.0
901.0
903.0
904.0
908.0
907.0
903.0
900.0
895.0
893.0
886.0
888.0
891.0
899.0
905.0
906.0
910.0
906.0
903.0
894.0
886.0
878.0
871.0
871.0
869.0
871.0
865.0
860.0
855.0
851.0
849.0
846.0
848.0
848.0
851.0
855.0
856.0
856.0
857.0
853.0
843.0
842.0
844.0
847.0
852.0
852.0
851.0
849.0
847.0
846.0
849.0
849.0
851.0
852.0
853.0
854.0
856.0
854.0
851.0
852.0
852.0
851.0
853.0
863.0
881.0
912.0
951.0
984.0
1017.0
1033.0
1039.0
1035.0
1028.0
1031.0
1051.0
1080.0
1112.0
1134.0
1140.0
1103.0
1028.0
925.0
823.0
729.0
669.0
634.0
614.0
608.0
604.0
599.0
597.0
595.0
597.0
596.0
596.0
593.0
593.0
594.0
600.0
609.0
624.0
643.0
672.0
710.0
744.0
777.0
797.0
815.0
822.0
822.0
829.0
829.0
832.0
834.0
839.0
841.0
844.0
847.0
845.0
847.0
842.0
843.0
844.0
839.0
840.0
841.0
842.0
844.0
842.0
840.0
842.0
841.0
839.0
836.0
831.0
829.0
831.0
828.0
831.0
829.0
827.0
830.0
827.0
823.0
817.0
813.0
807.0
808.0
804.0
808.0
811.0
809.0
809.0
806.0
801.0
803.0
805.0
804.0
803.0
799.0
798.0
798.0
800.0
798.0
800.0
802.0
799.0
800.0
801.0
803.0
803.0
806.0
809.0
812.0
815.0
820.0
822.0
824.0
829.0
833.0
837.0
837.0
839.0
838.0
842.0
847.0
850.0
856.0
863.0
866.0
868.0
870.0
866.0
866.0
862.0
862.0
862.0
863.0
870.0
873.0
878.0
879.0
878.0
877.0
876.0
874.0
869.0
870.0
870.0
873.0
873.0
875.0
874.0
872.0
874.0
873.0
873.0
873.0
869.0
872.0
871.0
866.0
868.0
867.0
867.0
866.0
865.0
866.0
862.0
862.0
863.0
864.0
863.0
865.0
867.0
869.0
870.0
870.0
869.0
868.0
866.0
867.0
864.0
864.0
860.0
864.0
867.0
870.0
867.0
870.0
871.0
872.0
870.0
870.0
870.0
873.0
874.0
872.0
872.0
873.0
874.0
871.0
872.0
874.0
872.0
873.0
870.0
869.0
870.0
872.0
876.0
878.0
877.0
874.0
874.0
871.0
869.0
870.0
871.0
873.0
872.0
876.0
878.0
877.0
878.0
880.0
879.0
882.0
882.0
887.0
888.0
884.0
885.0
888.0
889.0
894.0
900.0
904.0
905.0
906.0
909.0
909.0
910.0
913.0
919.0
920.0
920.0
918.0
913.0
905.0
903.0
897.0
898.0
902.0
907.0
910.0
917.0
921.0
919.0
918.0
915.0
906.0
895.0
886.0
878.0
874.0
872.0
875.0
876.0
873.0
872.0
868.0
868.0
863.0
861.0
861.0
865.0
864.0
863.0
865.0
863.0
864.0
864.0
862.0
860.0
863.0
866.0
865.0
865.0
865.0
864.0
861.0
861.0
860.0
863.0
864.0
864.0
864.0
864.0
862.0
861.0
858.0
853.0
847.0
849.0
852.0
867.0
886.0
916.0
955.0
989.0
1013.0
1029.0
1025.0
1021.0
1015.0
1032.0
1062.0
1100.0
1135.0
1155.0
1142.0
1090.0
1006.0
902.0
814.0
746.0
701.0
681.0
670.0
661.0
657.0
651.0
642.0
637.0
627.0
625.0
624.0
628.0
626.0
630.0
636.0
644.0
660.0
682.0
712.0
742.0
772.0
792.0
811.0
822.0
829.0
833.0
837.0
843.0
844.0
847.0
848.0
850.0
846.0
845.0
848.0
846.0
848.0
849.0
854.0
854.0
853.0
854.0
852.0
851.0
848.0
847.0
848.0
847.0
846.0
843.0
838.0
835.0
836.0
839.0
838.0
839.0
835.0
833.0
827.0
825.0
822.0
820.0
822.0
821.0
824.0
821.0
820.0
819.0
818.0
810.0
806.0
805.0
803.0
802.0
799.0
801.0
802.0
806.0
804.0
804.0
804.0
806.0
802.0
798.0
795.0
801.0
802.0
806.0
811.0
814.0
818.0
822.0
824.0
824.0
829.0
829.0
830.0
834.0
843.0
854.0
858.0
860.0
860.0
858.0
855.0
857.0
856.0
859.0
861.0
865.0
870.0
877.0
877.0
879.0
881.0
881.0
877.0
876.0
874.0
875.0
878.0
879.0
879.0
881.0
883.0
883.0
884.0
880.0
882.0
880.0
882.0
884.0
882.0
878.0
878.0
877.0
875.0
873.0
877.0
878.0
878.0
877.0
878.0
879.0
876.0
874.0
872.0
872.0
872.0
873.0
873.0
875.0
877.0
875.0
874.0
872.0
869.0
868.0
869.0
867.0
864.0
869.0
875.0
874.0
874.0
872.0
873.0
870.0
867.0
867.0
868.0
870.0
872.0
875.0
876.0
876.0
875.0
874.0
873.0
870.0
867.0
868.0
869.0
873.0
878.0
882.0
878.0
876.0
874.0
873.0
867.0
869.0
870.0
871.0
876.0
879.0
882.0
881.0
878.0
881.0
879.0
881.0
881.0
882.0
883.0
882.0
882.0
886.0
891.0
893.0
897.0
902.0
901.0
900.0
901.0
902.0
907.0
912.0
919.0
923.0
925.0
926.0
923.0
920.0
915.0
911.0
905.0
901.0
898.0
898.0
907.0
918.0
923.0
926.0
929.0
921.0
907.0
898.0
891.0
885.0
875.0
873.0
868.0
869.0
871.0
871.0
870.0
869.0
872.0
872.0
868.0
863.0
863.0
863.0
863.0
868.0
866.0
869.0
872.0
867.0
867.0
862.0
860.0
857.0
858.0
861.0
864.0
866.0
866.0
868.0
867.0
864.0
864.0
861.0
862.0
859.0
862.0
860.0
861.0
860.0
861.0
862.0
866.0
886.0
909.0
944.0
975.0
1001.0
1014.0
1016.0
1011.0
1012.0
1026.0
1053.0
1089.0
1129.0
1158.0
1162.0
1129.0
1057.0
958.0
859.0
776.0
718.0
686.0
667.0
655.0
643.0
637.0
631.0
626.0
624.0
621.0
622.0
623.0
630.0
643.0
651.0
667.0
691.0
716.0
742.0
763.0
785.0
803.0
817.0
828.0
837.0
844.0
848.0
853.0
852.0
852.0
852.0
854.0
852.0
852.0
851.0
849.0
852.0
855.0
862.0
867.0
869.0
866.0
862.0
857.0
852.0
850.0
849.0
849.0
850.0
849.0
849.0
853.0
853.0
849.0
847.0
844.0
835.0
830.0
831.0
827.0
826.0
827.0
828.0
830.0
829.0
829.0
823.0
821.0
815.0
813.0
809.0
810.0
810.0
814.0
816.0
817.0
815.0
813.0
812.0
811.0
810.0
811.0
814.0
815.0
817.0
819.0
824.0
827.0
833.0
835.0
834.0
837.0
839.0
842.0
847.0
853.0
859.0
862.0
865.0
866.0
865.0
868.0
870.0
868.0
872.0
875.0
878.0
879.0
882.0
883.0
882.0
882.0
884.0
887.0
885.0
884.0
883.0
880.0
884.0
885.0
886.0
889.0
889.0
892.0
890.0
888.0
884.0
880.0
881.0
878.0
877.0
878.0
877.0
878.0
880.0
879.0
881.0
881.0
879.0
874.0
875.0
874.0
874.0
871.0
874.0
875.0
876.0
877.0
871.0
868.0
866.0
867.0
864.0
864.0
861.0
866.0
874.0
875.0
876.0
878.0
878.0
875.0
873.0
871.0
870.0
868.0
868.0
870.0
872.0
875.0
878.0
879.0
878.0
876.0
876.0
873.0
874.0
874.0
873.0
874.0
872.0
874.0
876.0
876.0
872.0
876.0
875.0
877.0
872.0
872.0
871.0
872.0
869.0
868.0
872.0
876.0
875.0
877.0
878.0
875.0
876.0
877.0
879.0
881.0
885.0
886.0
892.0
892.0
893.0
892.0
894.0
895.0
892.0
891.0
894.0
896.0
906.0
910.0
917.0
922.0
923.0
920.0
919.0
913.0
907.0
903.0
899.0
899.0
904.0
910.0
915.0
922.0
923.0
918.0
912.0
903.0
896.0
887.0
882.0
878.0
875.0
878.0
878.0
880.0
878.0
875.0
865.0
863.0
859.0
859.0
862.0
861.0
864.0
861.0
861.0
864.0
864.0
863.0
863.0
857.0
858.0
855.0
851.0
856.0
858.0
856.0
859.0
861.0
858.0
855.0
856.0
858.0
856.0
858.0
858.0
860.0
859.0
858.0
860.0
866.0
881.0
907.0
941.0
974.0
1006.0
1029.0
1039.0
1038.0
1035.0
1041.0
1056.0
1085.0
1119.0
1137.0
1125.0
1074.0
980.0
871.0
769.0
696.0
652.0
632.0
625.0
624.0
622.0
618.0
612.0
606.0
600.0
598.0
600.0
604.0
608.0
614.0
628.0
638.0
653.0
680.0
707.0
733.0
762.0
783.0
802.0
811.0
816.0
818.0
822.0
828.0
835.0
840.0
843.0
846.0
844.0
843.0
843.0
845.0
846.0
848.0
854.0
855.0
853.0
852.0
849.0
848.0
843.0
838.0
840.0
840.0
842.0
845.0
844.0
844.0
842.0
839.0
833.0
826.0
823.0
819.0
821.0
822.0
827.0
822.0
822.0
819.0
814.0
812.0
810.0
806.0
804.0
802.0
799.0
800.0
799.0
804.0
803.0
807.0
804.0
804.0
803.0
800.0
803.0
802.0
802.0
801.0
802.0
807.0
813.0
818.0
817.0
824.0
826.0
826.0
827.0
834.0
834.0
842.0
848.0
855.0
861.0
865.0
868.0
865.0
864.0
865.0
866.0
867.0
872.0
871.0
873.0
878.0
880.0
882.0
885.0
887.0
882.0
881.0
881.0
881.0
882.0
880.0
880.0
879.0
881.0
879.0
879.0
884.0
882.0
881.0
882.0
880.0
876.0
878.0
878.0
877.0
879.0
878.0
880.0
879.0
876.0
873.0
870.0
866.0
870.0
867.0
871.0
874.0
874.0
875.0
876.0
876.0
872.0
872.0
870.0
868.0
865.0
866.0
863.0
867.0
872.0
878.0
878.0
879.0
875.0
871.0
867.0
865.0
870.0
868.0
867.0
869.0
869.0
873.0
873.0
874.0
875.0
873.0
870.0
872.0
874.0
872.0
873.0
876.0
876.0
877.0
875.0
877.0
871.0
872.0
870.0
873.0
872.0
874.0
877.0
876.0
878.0
880.0
877.0
877.0
878.0
879.0
881.0
886.0
888.0
888.0
890.0
893.0
898.0
901.0
904.0
903.0
902.0
902.0
901.0
903.0
911.0
919.0
926.0
931.0
929.0
921.0
913.0
904.0
899.0
895.0
895.0
896.0
904.0
912.0
920.0
924.0
925.0
921.0
914.0
908.0
899.0
891.0
884.0
880.0
878.0
878.0
876.0
872.0
871.0
871.0
871.0
867.0
868.0
864.0
866.0
864.0
865.0
864.0
862.0
861.0
865.0
865.0
870.0
865.0
865.0
864.0
859.0
857.0
860.0
859.0
861.0
862.0
865.0
865.0
863.0
861.0
864.0
864.0
860.0
858.0
857.0
859.0
860.0
865.0
874.0
895.0
923.0
954.0
986.0
1009.0
1020.0
1018.0
1020.0
1024.0
1047.0
1080.0
1119.0
1148.0
1156.0
1130.0
1062.0
965.0
869.0
784.0
724.0
686.0
674.0
666.0
664.0
656.0
645.0
637.0
627.0
622.0
619.0
618.0
620.0
624.0
629.0
636.0
641.0
650.0
664.0
686.0
714.0
741.0
765.0
786.0
798.0
813.0
822.0
826.0
835.0
838.0
840.0
846.0
847.0
849.0
847.0
849.0
847.0
851.0
854.0
854.0
853.0
855.0
857.0
854.0
849.0
848.0
847.0
847.0
845.0
846.0
849.0
848.0
848.0
846.0
844.0
842.0
841.0
839.0
836.0
831.0
825.0
824.0
826.0
828.0
827.0
827.0
825.0
819.0
815.0
811.0
809.0
809.0
805.0
810.0
811.0
807.0
809.0
809.0
811.0
815.0
808.0
808.0
809.0
810.0
809.0
809.0
810.0
811.0
817.0
821.0
823.0
826.0
827.0
830.0
834.0
832.0
836.0
844.0
852.0
855.0
860.0
859.0
859.0
860.0
861.0
866.0
866.0
868.0
870.0
873.0
874.0
879.0
884.0
886.0
882.0
882.0
876.0
878.0
877.0
877.0
876.0
881.0
882.0
884.0
885.0
887.0
889.0
887.0
885.0
881.0
881.0
880.0
882.0
885.0
886.0
889.0
890.0
887.0
884.0
881.0
881.0
879.0
881.0
880.0
882.0
883.0
879.0
880.0
880.0
877.0
881.0
880.0
881.0
876.0
873.0
872.0
873.0
876.0
880.0
878.0
880.0
884.0
883.0
883.0
886.0
883.0
884.0
884.0
882.0
877.0
880.0
880.0
883.0
881.0
881.0
877.0
876.0
877.0
877.0
881.0
882.0
885.0
888.0
887.0
891.0
889.0
886.0
884.0
881.0
878.0
878.0
876.0
878.0
882.0
885.0
888.0
890.0
890.0
891.0
887.0
884.0
881.0
877.0
874.0
876.0
881.0
882.0
884.0
888.0
891.0
895.0
893.0
895.0
896.0
899.0
905.0
907.0
909.0
910.0
910.0
913.0
911.0
918.0
922.0
926.0
930.0
930.0
928.0
924.0
922.0
919.0
912.0
908.0
910.0
913.0
918.0
920.0
925.0
928.0
927.0
920.0
916.0
910.0
909.0
899.0
895.0
892.0
894.0
891.0
887.0
885.0
879.0
873.0
869.0
872.0
871.0
880.0
877.0
880.0
875.0
876.0
874.0
871.0
870.0
871.0
873.0
872.0
869.0
870.0
871.0
872.0
876.0
878.0
876.0
873.0
875.0
872.0
874.0
876.0
875.0
874.0
874.0
874.0
871.0
867.0
867.0
869.0
878.0
891.0
922.0
958.0
994.0
1018.0
1029.0
1028.0
1024.0
1028.0
1041.0
1070.0
1108.0
1141.0
1164.0
1159.0
1120.0
1047.0
953.0
853.0
780.0
729.0
700.0
686.0
677.0
666.0
657.0
645.0
638.0
636.0
634.0
636.0
636.0
637.0
638.0
640.0
645.0
654.0
667.0
689.0
718.0
747.0
779.0
801.0
815.0
825.0
830.0
835.0
841.0
845.0
851.0
854.0
860.0
867.0
869.0
869.0
869.0
867.0
866.0
864.0
865.0
863.0
866.0
866.0
870.0
870.0
871.0
869.0
867.0
863.0
860.0
859.0
857.0
855.0
853.0
854.0
855.0
855.0
854.0
851.0
849.0
842.0
835.0
832.0
827.0
827.0
829.0
831.0
833.0
831.0
833.0
832.0
831.0
828.0
827.0
824.0
820.0
822.0
823.0
823.0
828.0
829.0
832.0
831.0
829.0
831.0
828.0
827.0
828.0
832.0
838.0
841.0
844.0
847.0
856.0
855.0
859.0
863.0
863.0
863.0
863.0
866.0
870.0
873.0
876.0
888.0
891.0
888.0
888.0
886.0
889.0
889.0
890.0
891.0
892.0
897.0
900.0
899.0
903.0
902.0
902.0
900.0
895.0
896.0
896.0
895.0
894.0
894.0
893.0
897.0
900.0
899.0
897.0
893.0
892.0
890.0
891.0
888.0
890.0
891.0
891.0
888.0
888.0
885.0
887.0
884.0
884.0
881.0
882.0
882.0
883.0
886.0
886.0
885.0
890.0
888.0
889.0
886.0
886.0
884.0
880.0
880.0
885.0
886.0
889.0
893.0
891.0
890.0
885.0
885.0
884.0
885.0
888.0
886.0
885.0
887.0
886.0
887.0
891.0
894.0
892.0
892.0
886.0
884.0
887.0
887.0
886.0
890.0
888.0
889.0
893.0
890.0
889.0
892.0
888.0
889.0
887.0
887.0
890.0
889.0
891.0
894.0
896.0
896.0
898.0
895.0
894.0
896.0
896.0
896.0
896.0
905.0
908.0
910.0
914.0
914.0
914.0
914.0
915.0
915.0
917.0
920.0
929.0
931.0
936.0
938.0
940.0
933.0
928.0
921.0
917.0
914.0
913.0
916.0
923.0
930.0
930.0
938.0
942.0
936.0
930.0
920.0
906.0
899.0
896.0
890.0
889.0
890.0
887.0
885.0
888.0
886.0
885.0
879.0
879.0
877.0
876.0
872.0
874.0
876.0
878.0
878.0
879.0
882.0
880.0
881.0
881.0
877.0
875.0
873.0
872.0
875.0
876.0
874.0
878.0
879.0
877.0
879.0
878.0
875.0
872.0
872.0
869.0
871.0
872.0
876.0
883.0
893.0
915.0
939.0
968.0
992.0
1016.0
1026.0
1022.0
1020.0
1022.0
1041.0
1072.0
1108.0
1137.0
1150.0
1131.0
1071.0
985.0
883.0
795.0
733.0
698.0
678.0
669.0
659.0
654.0
644.0
636.0
630.0
630.0
629.0
629.0
631.0
635.0
643.0
651.0
658.0
672.0
690.0
713.0
741.0
768.0
795.0
815.0
829.0
843.0
854.0
858.0
858.0
858.0
862.0
864.0
865.0
863.0
865.0
865.0
870.0
874.0
874.0
878.0
873.0
872.0
874.0
871.0
868.0
866.0
862.0
861.0
864.0
861.0
863.0
865.0
865.0
860.0
857.0
855.0
852.0
844.0
841.0
842.0
844.0
840.0
842.0
842.0
841.0
838.0
835.0
835.0
832.0
831.0
829.0
828.0
828.0
829.0
829.0
834.0
829.0
832.0
829.0
831.0
828.0
827.0
824.0
829.0
831.0
837.0
842.0
847.0
850.0
847.0
851.0
852.0
855.0
856.0
862.0
861.0
868.0
874.0
879.0
883.0
883.0
887.0
889.0
889.0
892.0
894.0
895.0
896.0
894.0
896.0
898.0
901.0
901.0
903.0
901.0
902.0
897.0
