# Simple Text Format
# Sampling Rate (Hz):= 360.00
# Resolution:= 12
# Labels:= ECG
805.0
811.0
826.0
850.0
883.0
909.0
936.0
955.0
957.0
954.0
952.0
961.0
978.0
1004.0
1041.0
1071.0
1085.0
1074.0
1033.0
968.0
892.0
817.0
760.0
720.0
696.0
679.0
667.0
653.0
641.0
631.0
624.0
617.0
618.0
615.0
612.0
608.0
609.0
608.0
611.0
617.0
623.0
640.0
664.0
690.0
715.0
743.0
760.0
773.0
781.0
782.0
781.0
780.0
778.0
781.0
787.0
790.0
796.0
798.0
796.0
793.0
791.0
787.0
787.0
785.0
785.0
788.0
789.0
789.0
790.0
792.0
789.0
786.0
789.0
786.0
785.0
781.0
781.0
779.0
775.0
772.0
773.0
772.0
772.0
770.0
765.0
763.0
757.0
759.0
757.0
754.0
756.0
755.0
756.0
754.0
751.0
751.0
751.0
751.0
747.0
744.0
744.0
745.0
745.0
746.0
747.0
749.0
750.0
746.0
748.0
748.0
748.0
749.0
754.0
759.0
762.0
767.0
771.0
774.0
773.0
776.0
780.0
780.0
782.0
784.0
785.0
787.0
794.0
800.0
803.0
808.0
812.0
814.0
812.0
812.0
813.0
814.0
815.0
817.0
818.0
817.0
817.0
822.0
820.0
822.0
823.0
818.0
820.0
819.0
820.0
820.0
821.0
821.0
821.0
824.0
825.0
821.0
820.0
819.0
818.0
816.0
815.0
818.0
819.0
822.0
822.0
823.0
821.0
818.0
817.0
815.0
813.0
808.0
807.0
808.0
810.0
811.0
816.0
811.0
812.0
809.0
812.0
812.0
809.0
807.0
810.0
810.0
813.0
808.0
813.0
815.0
814.0
813.0
814.0
813.0
814.0
812.0
812.0
810.0
811.0
813.0
817.0
820.0
818.0
814.0
814.0
814.0
814.0
814.0
813.0
816.0
817.0
817.0
820.0
822.0
825.0
827.0
828.0
827.0
828.0
829.0
829.0
834.0
837.0
837.0
840.0
843.0
842.0
844.0
847.0
850.0
852.0
853.0
857.0
856.0
857.0
858.0
855.0
852.0
849.0
845.0
843.0
844.0
847.0
850.0
856.0
856.0
860.0
857.0
851.0
847.0
837.0
831.0
828.0
824.0
821.0
819.0
817.0
812.0
812.0
812.0
811.0
812.0
810.0
811.0
810.0
807.0
804.0
805.0
805.0
807.0
810.0
811.0
813.0
813.0
812.0
811.0
810.0
807.0
806.0
808.0
807.0
810.0
810.0
812.0
814.0
818.0
814.0
812.0
804.0
800.0
801.0
799.0
803.0
817.0
842.0
865.0
893.0
920.0
939.0
945.0
947.0
949.0
954.0
972.0
1007.0
1046.0
1088.0
1114.0
1115.0
1081.0
1012.0
928.0
849.0
781.0
736.0
711.0
696.0
685.0
672.0
662.0
648.0
640.0
635.0
629.0
626.0
626.0
624.0
622.0
627.0
633.0
643.0
661.0
683.0
709.0
735.0
759.0
777.0
791.0
801.0
805.0
806.0
808.0
811.0
815.0
817.0
823.0
822.0
822.0
824.0
827.0
825.0
822.0
824.0
824.0
823.0
820.0
824.0
824.0
823.0
816.0
819.0
814.0
813.0
808.0
805.0
808.0
806.0
806.0
803.0
805.0
800.0
798.0
792.0
790.0
789.0
786.0
785.0
782.0
786.0
786.0
787.0
785.0
785.0
782.0
782.0
779.0
778.0
777.0
774.0
773.0
776.0
777.0
781.0
785.0
784.0
783.0
782.0
781.0
781.0
784.0
787.0
791.0
794.0
800.0
804.0
809.0
812.0
815.0
820.0
818.0
821.0
819.0
821.0
824.0
831.0
835.0
837.0
841.0
842.0
845.0
846.0
845.0
843.0
843.0
845.0
848.0
849.0
852.0
855.0
854.0
855.0
855.0
852.0
852.0
850.0
848.0
849.0
851.0
852.0
851.0
853.0
856.0
856.0
854.0
853.0
848.0
849.0
847.0
845.0
848.0
846.0
847.0
848.0
848.0
848.0
849.0
846.0
847.0
843.0
843.0
843.0
843.0
842.0
845.0
847.0
851.0
847.0
849.0
845.0
846.0
843.0
843.0
843.0
845.0
844.0
850.0
851.0
853.0
854.0
853.0
851.0
848.0
847.0
845.0
845.0
843.0
844.0
845.0
847.0
848.0
849.0
848.0
847.0
849.0
846.0
850.0
852.0
849.0
850.0
849.0
856.0
857.0
857.0
864.0
864.0
863.0
866.0
865.0
865.0
869.0
871.0
872.0
875.0
879.0
872.0
877.0
881.0
882.0
884.0
886.0
884.0
881.0
880.0
877.0
879.0
878.0
876.0
880.0
882.0
885.0
890.0
891.0
887.0
883.0
877.0
872.0
866.0
862.0
861.0
858.0
853.0
852.0
843.0
840.0
840.0
843.0
843.0
842.0
843.0
840.0
839.0
840.0
842.0
838.0
842.0
838.0
837.0
838.0
838.0
839.0
837.0
838.0
837.0
837.0
834.0
836.0
835.0
838.0
834.0
829.0
831.0
833.0
837.0
838.0
838.0
836.0
836.0
833.0
834.0
838.0
854.0
871.0
903.0
935.0
963.0
984.0
993.0
990.0
984.0
981.0
988.0
1005.0
1037.0
1073.0
1100.0
1105.0
1082.0
1019.0
932.0
845.0
768.0
719.0
689.0
673.0
662.0
653.0
646.0
638.0
634.0
633.0
628.0
626.0
622.0
618.0
618.0
618.0
623.0
632.0
648.0
669.0
695.0
723.0
750.0
773.0
790.0
805.0
812.0
814.0
812.0
812.0
814.0
816.0
821.0
824.0
824.0
824.0
825.0
824.0
823.0
822.0
819.0
818.0
820.0
824.0
824.0
824.0
823.0
821.0
818.0
811.0
811.0
809.0
804.0
804.0
802.0
798.0
801.0
802.0
799.0
796.0
794.0
790.0
787.0
787.0
787.0
784.0
783.0
783.0
779.0
782.0
781.0
777.0
778.0
774.0
774.0
769.0
770.0
772.0
773.0
775.0
776.0
782.0
779.0
782.0
780.0
782.0
780.0
784.0
783.0
785.0
789.0
795.0
797.0
809.0
811.0
812.0
813.0
816.0
814.0
817.0
819.0
819.0
824.0
830.0
832.0
839.0
840.0
840.0
840.0
840.0
840.0
839.0
841.0
838.0
840.0
843.0
848.0
852.0
850.0
850.0
849.0
850.0
850.0
847.0
846.0
846.0
849.0
853.0
856.0
857.0
853.0
853.0
847.0
847.0
845.0
847.0
847.0
848.0
850.0
850.0
851.0
854.0
849.0
849.0
846.0
847.0
842.0
841.0
841.0
839.0
845.0
849.0
849.0
851.0
851.0
849.0
846.0
847.0
843.0
845.0
842.0
842.0
844.0
846.0
849.0
851.0
851.0
851.0
850.0
848.0
849.0
846.0
843.0
845.0
848.0
851.0
852.0
853.0
852.0
850.0
847.0
847.0
846.0
850.0
848.0
851.0
853.0
856.0
855.0
855.0
855.0
854.0
857.0
856.0
857.0
857.0
859.0
859.0
865.0
869.0
872.0
876.0
874.0
875.0
875.0
874.0
875.0
880.0
884.0
889.0
891.0
889.0
889.0
888.0
881.0
875.0
870.0
869.0
875.0
878.0
880.0
888.0
892.0
893.0
891.0
887.0
879.0
873.0
866.0
860.0
860.0
857.0
852.0
850.0
850.0
847.0
844.0
844.0
848.0
847.0
849.0
847.0
846.0
841.0
836.0
836.0
838.0
839.0
840.0
843.0
842.0
844.0
846.0
844.0
839.0
837.0
837.0
838.0
838.0
841.0
840.0
843.0
844.0
841.0
838.0
834.0
832.0
830.0
835.0
849.0
872.0
900.0
935.0
966.0
981.0
987.0
986.0
977.0
981.0
994.0
1021.0
1060.0
1095.0
1121.0
1121.0
1092.0
1027.0
942.0
860.0
797.0
752.0
727.0
710.0
700.0
687.0
675.0
664.0
654.0
647.0
641.0
637.0
632.0
633.0
629.0
630.0
636.0
649.0
665.0
684.0
716.0
741.0
771.0
793.0
806.0
813.0
820.0
816.0
818.0
821.0
824.0
829.0
831.0
832.0
829.0
829.0
829.0
829.0
829.0
827.0
825.0
827.0
830.0
829.0
832.0
829.0
828.0
826.0
824.0
818.0
815.0
816.0
812.0
814.0
816.0
813.0
814.0
810.0
803.0
799.0
794.0
793.0
792.0
792.0
789.0
790.0
792.0
792.0
793.0
793.0
785.0
787.0
782.0
780.0
778.0
774.0
779.0
780.0
781.0
782.0
787.0
784.0
781.0
784.0
783.0
782.0
786.0
785.0
788.0
794.0
798.0
801.0
805.0
805.0
805.0
812.0
816.0
817.0
820.0
821.0
822.0
831.0
833.0
839.0
842.0
843.0
844.0
844.0
844.0
844.0
845.0
846.0
849.0
852.0
855.0
858.0
860.0
858.0
859.0
857.0
856.0
855.0
854.0
853.0
855.0
856.0
853.0
855.0
856.0
856.0
858.0
861.0
857.0
856.0
858.0
854.0
851.0
854.0
855.0
857.0
857.0
857.0
860.0
857.0
852.0
851.0
846.0
845.0
847.0
848.0
851.0
853.0
855.0
855.0
851.0
848.0
844.0
846.0
844.0
842.0
843.0
847.0
846.0
848.0
852.0
856.0
856.0
852.0
852.0
845.0
845.0
843.0
846.0
847.0
850.0
851.0
850.0
853.0
853.0
854.0
852.0
853.0
854.0
850.0
850.0
848.0
851.0
851.0
855.0
851.0
854.0
855.0
856.0
851.0
856.0
862.0
862.0
865.0
867.0
871.0
873.0
874.0
875.0
876.0
876.0
875.0
879.0
881.0
884.0
890.0
896.0
895.0
897.0
898.0
891.0
886.0
881.0
875.0
875.0
875.0
876.0
881.0
888.0
893.0
896.0
897.0
892.0
887.0
875.0
868.0
857.0
856.0
855.0
857.0
855.0
857.0
855.0
854.0
852.0
847.0
845.0
843.0
842.0
841.0
841.0
842.0
845.0
846.0
848.0
846.0
847.0
845.0
841.0
839.0
839.0
838.0
837.0
841.0
842.0
844.0
843.0
844.0
845.0
843.0
842.0
839.0
841.0
840.0
839.0
838.0
836.0
833.0
832.0
827.0
833.0
843.0
860.0
883.0
910.0
931.0
953.0
965.0
970.0
965.0
967.0
980.0
1007.0
1046.0
1088.0
1116.0
1128.0
1111.0
1054.0
971.0
886.0
811.0
758.0
727.0
705.0
688.0
675.0
657.0
644.0
633.0
624.0
625.0
623.0
625.0
626.0
626.0
628.0
630.0
642.0
655.0
675.0
704.0
735.0
763.0
785.0
799.0
812.0
818.0
819.0
817.0
822.0
823.0
826.0
826.0
823.0
828.0
829.0
834.0
836.0
835.0
833.0
833.0
830.0
832.0
826.0
824.0
825.0
824.0
822.0
823.0
822.0
820.0
821.0
819.0
814.0
811.0
807.0
802.0
802.0
800.0
801.0
803.0
802.0
800.0
799.0
798.0
790.0
786.0
784.0
783.0
787.0
789.0
789.0
786.0
788.0
785.0
786.0
782.0
783.0
782.0
781.0
785.0
788.0
791.0
792.0
793.0
795.0
798.0
801.0
802.0
800.0
798.0
805.0
807.0
810.0
817.0
824.0
828.0
832.0
836.0
835.0
834.0
838.0
840.0
840.0
842.0
843.0
844.0
849.0
854.0
856.0
859.0
861.0
860.0
857.0
856.0
857.0
859.0
859.0
859.0
862.0
863.0
864.0
864.0
865.0
860.0
860.0
858.0
858.0
857.0
857.0
856.0
858.0
858.0
858.0
859.0
859.0
855.0
853.0
853.0
852.0
852.0
852.0
850.0
852.0
852.0
852.0
853.0
855.0
853.0
854.0
852.0
848.0
849.0
849.0
852.0
855.0
853.0
859.0
858.0
856.0
853.0
851.0
849.0
847.0
845.0
846.0
845.0
850.0
855.0
858.0
856.0
855.0
856.0
853.0
854.0
852.0
854.0
851.0
854.0
856.0
857.0
853.0
851.0
855.0
858.0
856.0
856.0
857.0
857.0
858.0
859.0
860.0
863.0
863.0
866.0
871.0
872.0
877.0
876.0
873.0
875.0
878.0
881.0
883.0
891.0
898.0
900.0
900.0
897.0
893.0
889.0
881.0
877.0
877.0
876.0
879.0
887.0
893.0
899.0
903.0
902.0
892.0
888.0
877.0
872.0
868.0
863.0
863.0
863.0
865.0
860.0
856.0
852.0
849.0
845.0
845.0
845.0
844.0
845.0
847.0
848.0
850.0
847.0
848.0
846.0
845.0
841.0
842.0
844.0
843.0
845.0
844.0
847.0
851.0
850.0
847.0
844.0
846.0
841.0
842.0
842.0
838.0
842.0
840.0
841.0
842.0
846.0
855.0
873.0
894.0
928.0
955.0
977.0
988.0
994.0
987.0
990.0
1002.0
1025.0
1059.0
1096.0
1126.0
1134.0
1117.0
1062.0
980.0
890.0
809.0
749.0
704.0
680.0
667.0
652.0
642.0
631.0
620.0
612.0
609.0
609.0
609.0
610.0
610.0
613.0
619.0
630.0
641.0
658.0
684.0
713.0
744.0
770.0
789.0
805.0
816.0
819.0
822.0
822.0
824.0
824.0
823.0
824.0
824.0
825.0
829.0
832.0
836.0
838.0
834.0
834.0
833.0
829.0
827.0
823.0
825.0
824.0
825.0
824.0
828.0
825.0
819.0
817.0
812.0
809.0
806.0
804.0
801.0
802.0
800.0
803.0
803.0
806.0
802.0
799.0
791.0
788.0
785.0
783.0
780.0
783.0
784.0
786.0
788.0
789.0
789.0
785.0
780.0
782.0
779.0
778.0
778.0
779.0
784.0
789.0
794.0
795.0
794.0
793.0
793.0
797.0
797.0
803.0
808.0
813.0
823.0
827.0
832.0
833.0
837.0
837.0
837.0
842.0
843.0
842.0
844.0
846.0
850.0
853.0
853.0
852.0
858.0
860.0
858.0
859.0
861.0
861.0
856.0
858.0
859.0
861.0
864.0
867.0
865.0
863.0
863.0
858.0
859.0
857.0
856.0
858.0
859.0
860.0
863.0
862.0
860.0
859.0
858.0
859.0
856.0
854.0
852.0
853.0
856.0
856.0
854.0
855.0
855.0
854.0
851.0
851.0
849.0
850.0
850.0
848.0
851.0
851.0
854.0
856.0
853.0
854.0
853.0
850.0
849.0
850.0
851.0
853.0
854.0
855.0
857.0
857.0
856.0
852.0
854.0
853.0
853.0
852.0
856.0
855.0
855.0
856.0
860.0
861.0
861.0
860.0
858.0
855.0
857.0
856.0
857.0
857.0
856.0
858.0
860.0
863.0
862.0
860.0
859.0
859.0
857.0
856.0
861.0
863.0
869.0
869.0
872.0
875.0
876.0
878.0
879.0
875.0
875.0
877.0
881.0
882.0
889.0
894.0
900.0
900.0
902.0
898.0
893.0
886.0
879.0
873.0
873.0
873.0
879.0
887.0
897.0
903.0
906.0
903.0
899.0
889.0
882.0
872.0
869.0
868.0
866.0
864.0
865.0
862.0
857.0
855.0
849.0
849.0
850.0
850.0
847.0
849.0
849.0
854.0
854.0
852.0
851.0
851.0
849.0
844.0
841.0
840.0
842.0
846.0
848.0
847.0
850.0
851.0
851.0
849.0
851.0
846.0
849.0
847.0
846.0
847.0
847.0
841.0
840.0
841.0
840.0
843.0
849.0
865.0
890.0
916.0
946.0
976.0
999.0
1006.0
1006.0
1002.0
1006.0
1023.0
1055.0
1093.0
1124.0
1137.0
1119.0
1064.0
988.0
897.0
817.0
758.0
719.0
691.0
673.0
655.0
644.0
634.0
629.0
621.0
623.0
617.0
620.0
620.0
622.0
626.0
638.0
654.0
673.0
700.0
732.0
762.0
786.0
803.0
813.0
824.0
824.0
827.0
825.0
825.0
827.0
830.0
833.0
838.0
841.0
841.0
841.0
841.0
839.0
833.0
834.0
833.0
829.0
828.0
826.0
828.0
828.0
824.0
827.0
824.0
827.0
825.0
820.0
818.0
813.0
812.0
807.0
810.0
807.0
806.0
806.0
807.0
801.0
799.0
796.0
793.0
791.0
788.0
790.0
789.0
787.0
783.0
791.0
789.0
787.0
783.0
784.0
784.0
783.0
780.0
782.0
785.0
788.0
788.0
790.0
795.0
791.0
795.0
794.0
799.0
798.0
795.0
801.0
809.0
816.0
822.0
823.0
828.0
830.0
834.0
836.0
838.0
837.0
841.0
841.0
846.0
848.0
854.0
859.0
859.0
860.0
863.0
863.0
859.0
859.0
856.0
859.0
859.0
861.0
868.0
869.0
869.0
870.0
870.0
866.0
866.0
864.0
862.0
863.0
864.0
863.0
867.0
868.0
868.0
865.0
864.0
865.0
860.0
861.0
861.0
862.0
860.0
862.0
859.0
857.0
862.0
858.0
858.0
853.0
852.0
852.0
853.0
852.0
857.0
855.0
861.0
860.0
862.0
858.0
858.0
859.0
857.0
855.0
854.0
854.0
855.0
860.0
863.0
864.0
864.0
864.0
862.0
861.0
855.0
857.0
855.0
857.0
856.0
859.0
862.0
863.0
859.0
860.0
861.0
859.0
861.0
860.0
854.0
855.0
857.0
858.0
863.0
863.0
864.0
866.0
866.0
863.0
864.0
864.0
868.0
868.0
870.0
878.0
880.0
883.0
885.0
886.0
886.0
887.0
884.0
885.0
893.0
896.0
900.0
905.0
908.0
902.0
904.0
898.0
893.0
887.0
884.0
879.0
878.0
880.0
889.0
897.0
905.0
911.0
906.0
900.0
893.0
880.0
876.0
870.0
862.0
862.0
863.0
864.0
860.0
860.0
860.0
855.0
853.0
853.0
852.0
851.0
846.0
846.0
847.0
848.0
850.0
851.0
848.0
851.0
848.0
846.0
842.0
844.0
842.0
845.0
845.0
847.0
848.0
849.0
850.0
851.0
849.0
847.0
846.0
844.0
843.0
843.0
841.0
844.0
845.0
843.0
839.0
839.0
839.0
848.0
862.0
890.0
918.0
948.0
973.0
988.0
988.0
991.0
994.0
1011.0
1040.0
1083.0
1120.0
1143.0
1136.0
1093.0
1018.0
928.0
841.0
773.0
735.0
708.0
692.0
673.0
658.0
646.0
629.0
619.0
615.0
616.0
618.0
619.0
618.0
621.0
618.0
623.0
625.0
632.0
644.0
666.0
699.0
730.0
759.0
783.0
803.0
817.0
823.0
824.0
825.0
830.0
831.0
832.0
832.0
835.0
843.0
839.0
841.0
842.0
842.0
839.0
840.0
835.0
834.0
833.0
831.0
838.0
839.0
838.0
841.0
838.0
834.0
829.0
828.0
824.0
820.0
817.0
817.0
818.0
817.0
818.0
819.0
814.0
812.0
810.0
805.0
801.0
800.0
797.0
795.0
797.0
796.0
794.0
792.0
792.0
793.0
792.0
789.0
789.0
786.0
785.0
785.0
788.0
791.0
793.0
796.0
798.0
796.0
798.0
799.0
798.0
798.0
804.0
806.0
812.0
817.0
820.0
824.0
828.0
830.0
829.0
832.0
833.0
838.0
841.0
845.0
850.0
853.0
856.0
854.0
858.0
858.0
859.0
857.0
859.0
859.0
863.0
866.0
864.0
869.0
871.0
872.0
871.0
870.0
867.0
864.0
863.0
862.0
863.0
864.0
867.0
866.0
865.0
866.0
867.0
868.0
864.0
859.0
861.0
856.0
858.0
857.0
859.0
858.0
861.0
863.0
862.0
859.0
856.0
854.0
849.0
847.0
852.0
855.0
856.0
856.0
858.0
861.0
862.0
860.0
860.0
854.0
854.0
854.0
853.0
855.0
854.0
856.0
863.0
860.0
861.0
858.0
858.0
857.0
854.0
855.0
855.0
855.0
858.0
857.0
856.0
858.0
856.0
856.0
858.0
857.0
856.0
856.0
854.0
860.0
860.0
862.0
862.0
864.0
865.0
865.0
862.0
862.0
860.0
855.0
858.0
859.0
861.0
865.0
867.0
873.0
873.0
876.0
874.0
878.0
878.0
877.0
880.0
880.0
884.0
889.0
896.0
903.0
906.0
906.0
902.0
897.0
892.0
886.0
881.0
880.0
880.0
884.0
889.0
894.0
898.0
903.0
902.0
891.0
884.0
875.0
866.0
860.0
860.0
860.0
860.0
860.0
857.0
855.0
850.0
846.0
844.0
840.0
840.0
840.0
839.0
838.0
841.0
842.0
842.0
842.0
841.0
836.0
839.0
837.0
837.0
837.0
838.0
843.0
845.0
847.0
844.0
842.0
838.0
838.0
839.0
838.0
837.0
833.0
834.0
839.0
838.0
838.0
840.0
845.0
862.0
886.0
913.0
944.0
967.0
979.0
986.0
985.0
991.0
1011.0
1046.0
1088.0
1124.0
1142.0
1126.0
1071.0
984.0
881.0
789.0
724.0
683.0
659.0
646.0
637.0
626.0
612.0
603.0
596.0
591.0
593.0
592.0
591.0
593.0
598.0
609.0
620.0
632.0
651.0
680.0
708.0
742.0
768.0
793.0
805.0
815.0
818.0
821.0
821.0
824.0
822.0
823.0
824.0
825.0
824.0
827.0
827.0
830.0
826.0
826.0
826.0
821.0
824.0
824.0
823.0
818.0
819.0
819.0
818.0
821.0
817.0
818.0
813.0
814.0
809.0
807.0
804.0
800.0
799.0
797.0
796.0
795.0
796.0
799.0
797.0
794.0
789.0
784.0
781.0
779.0
778.0
782.0
780.0
778.0
778.0
777.0
775.0
777.0
774.0
773.0
771.0
770.0
775.0
778.0
781.0
784.0
790.0
791.0
793.0
795.0
796.0
796.0
797.0
800.0
806.0
811.0
815.0
820.0
828.0
832.0
834.0
836.0
835.0
834.0
838.0
841.0
844.0
845.0
851.0
851.0
852.0
855.0
855.0
852.0
848.0
848.0
849.0
852.0
853.0
857.0
858.0
858.0
858.0
859.0
857.0
854.0
851.0
849.0
845.0
844.0
846.0
848.0
850.0
851.0
855.0
853.0
851.0
850.0
849.0
847.0
842.0
842.0
841.0
842.0
846.0
844.0
846.0
844.0
845.0
844.0
842.0
837.0
839.0
838.0
841.0
838.0
840.0
839.0
842.0
846.0
846.0
845.0
845.0
844.0
843.0
844.0
843.0
846.0
846.0
848.0
849.0
848.0
847.0
847.0
847.0
844.0
845.0
847.0
844.0
848.0
844.0
844.0
849.0
848.0
849.0
844.0
846.0
845.0
844.0
848.0
849.0
849.0
849.0
851.0
856.0
856.0
854.0
853.0
850.0
847.0
844.0
841.0
843.0
849.0
847.0
852.0
853.0
853.0
854.0
852.0
854.0
855.0
853.0
856.0
859.0
861.0
862.0
872.0
874.0
875.0
875.0
872.0
874.0
873.0
873.0
878.0
886.0
893.0
895.0
896.0
894.0
888.0
882.0
876.0
871.0
869.0
873.0
880.0
886.0
890.0
896.0
896.0
894.0
886.0
876.0
868.0
858.0
853.0
846.0
848.0
847.0
847.0
845.0
846.0
843.0
844.0
841.0
839.0
837.0
835.0
833.0
836.0
839.0
836.0
838.0
839.0
839.0
836.0
835.0
832.0
835.0
828.0
831.0
832.0
834.0
835.0
838.0
840.0
840.0
841.0
839.0
838.0
837.0
837.0
836.0
829.0
829.0
829.0
829.0
832.0
845.0
863.0
889.0
920.0
952.0
981.0
997.0
1001.0
998.0
998.0
1005.0
1027.0
1059.0
1099.0
1130.0
1141.0
1107.0
1033.0
936.0
832.0
750.0
691.0
658.0
641.0
629.0
622.0
614.0
608.0
603.0
596.0
591.0
588.0
589.0
592.0
596.0
609.0
624.0
642.0
667.0
695.0
719.0
743.0
763.0
781.0
794.0
798.0
803.0
804.0
805.0
809.0
814.0
813.0
813.0
813.0
817.0
814.0
816.0
817.0
818.0
816.0
816.0
813.0
817.0
815.0
814.0
809.0
810.0
808.0
808.0
804.0
804.0
805.0
805.0
802.0
800.0
792.0
791.0
786.0
784.0
783.0
780.0
782.0
783.0
783.0
775.0
780.0
778.0
774.0
771.0
768.0
765.0
761.0
762.0
764.0
763.0
763.0
764.0
765.0
766.0
764.0
765.0
766.0
765.0
767.0
765.0
774.0
775.0
777.0
783.0
786.0
788.0
794.0
796.0
796.0
801.0
806.0
807.0
815.0
818.0
823.0
827.0
829.0
831.0
831.0
832.0
834.0
835.0
834.0
836.0
840.0
839.0
844.0
848.0
847.0
849.0
849.0
848.0
847.0
844.0
846.0
847.0
846.0
848.0
852.0
852.0
855.0
853.0
852.0
852.0
851.0
847.0
843.0
845.0
844.0
847.0
848.0
850.0
849.0
849.0
847.0
848.0
847.0
844.0
841.0
841.0
839.0
842.0
842.0
846.0
846.0
844.0
844.0
841.0
841.0
841.0
841.0
841.0
842.0
844.0
842.0
846.0
843.0
843.0
841.0
842.0
845.0
842.0
841.0
843.0
847.0
845.0
848.0
848.0
846.0
844.0
847.0
842.0
839.0
842.0
841.0
840.0
845.0
847.0
849.0
854.0
854.0
852.0
851.0
849.0
848.0
848.0
846.0
848.0
849.0
849.0
853.0
854.0
854.0
852.0
854.0
848.0
847.0
849.0
851.0
852.0
859.0
864.0
866.0
868.0
872.0
873.0
875.0
871.0
873.0
871.0
873.0
880.0
888.0
891.0
897.0
900.0
900.0
894.0
887.0
883.0
877.0
876.0
873.0
875.0
881.0
891.0
898.0
901.0
901.0
895.0
886.0
876.0
867.0
860.0
852.0
851.0
852.0
852.0
851.0
852.0
850.0
844.0
844.0
841.0
838.0
837.0
839.0
837.0
840.0
837.0
840.0
843.0
840.0
845.0
842.0
839.0
837.0
839.0
835.0
834.0
834.0
834.0
837.0
839.0
841.0
841.0
841.0
844.0
842.0
835.0
835.0
836.0
836.0
834.0
834.0
834.0
833.0
835.0
842.0
860.0
882.0
915.0
944.0
971.0
989.0
993.0
989.0
992.0
1003.0
1030.0
1072.0
1114.0
1143.0
1144.0
1104.0
1030.0
935.0
844.0
769.0
723.0
693.0
673.0
661.0
641.0
628.0
618.0
603.0
595.0
593.0
597.0
595.0
602.0
600.0
602.0
603.0
610.0
618.0
628.0
651.0
678.0
707.0
738.0
765.0
787.0
796.0
807.0
811.0
813.0
816.0
816.0
819.0
823.0
827.0
830.0
834.0
837.0
834.0
832.0
831.0
826.0
823.0
825.0
824.0
824.0
827.0
826.0
827.0
828.0
829.0
824.0
820.0
820.0
815.0
814.0
810.0
812.0
812.0
811.0
811.0
811.0
804.0
802.0
802.0
798.0
790.0
789.0
783.0
783.0
783.0
785.0
784.0
785.0
783.0
780.0
780.0
779.0
779.0
775.0
776.0
773.0
777.0
779.0
780.0
783.0
781.0
784.0
782.0
783.0
782.0
787.0
789.0
792.0
796.0
801.0
808.0
814.0
816.0
817.0
822.0
827.0
830.0
832.0
833.0
834.0
840.0
846.0
850.0
854.0
853.0
853.0
858.0
857.0
856.0
856.0
854.0
856.0
858.0
861.0
863.0
866.0
871.0
864.0
863.0
859.0
856.0
859.0
857.0
858.0
861.0
860.0
863.0
865.0
864.0
864.0
861.0
858.0
855.0
857.0
852.0
852.0
858.0
857.0
855.0
858.0
857.0
855.0
856.0
853.0
852.0
851.0
851.0
849.0
851.0
854.0
852.0
855.0
854.0
853.0
852.0
851.0
849.0
850.0
851.0
849.0
853.0
854.0
853.0
857.0
857.0
858.0
856.0
853.0
853.0
852.0
852.0
851.0
855.0
854.0
855.0
858.0
857.0
857.0
856.0
854.0
853.0
854.0
854.0
853.0
854.0
856.0
859.0
862.0
857.0
859.0
858.0
854.0
853.0
855.0
854.0
855.0
859.0
861.0
864.0
868.0
870.0
872.0
874.0
874.0
873.0
873.0
875.0
876.0
881.0
885.0
887.0
891.0
894.0
900.0
906.0
907.0
911.0
908.0
901.0
895.0
891.0
887.0
888.0
889.0
895.0
898.0
901.0
905.0
904.0
901.0
892.0
889.0
882.0
875.0
869.0
867.0
867.0
865.0
862.0
859.0
852.0
853.0
849.0
849.0
845.0
850.0
852.0
851.0
850.0
851.0
850.0
848.0
848.0
848.0
847.0
844.0
846.0
849.0
849.0
848.0
847.0
851.0
846.0
845.0
848.0
845.0
847.0
848.0
846.0
845.0
845.0
849.0
847.0
843.0
840.0
838.0
838.0
851.0
870.0
896.0
934.0
967.0
994.0
1008.0
1004.0
1007.0
1021.0
1052.0
1097.0
1142.0
1162.0
1139.0
1075.0
974.0
871.0
785.0
722.0
684.0
666.0
651.0
638.0
625.0
610.0
600.0
596.0
594.0
596.0
598.0
597.0
597.0
599.0
605.0
612.0
628.0
650.0
678.0
712.0
745.0
771.0
795.0
808.0
815.0
820.0
820.0
820.0
823.0
825.0
830.0
835.0
836.0
838.0
839.0
837.0
839.0
838.0
836.0
833.0
836.0
832.0
834.0
835.0
832.0
835.0
837.0
837.0
838.0
833.0
829.0
824.0
819.0
817.0
814.0
816.0
817.0
815.0
816.0
811.0
808.0
805.0
801.0
799.0
793.0
793.0
787.0
790.0
788.0
791.0
794.0
792.0
792.0
791.0
787.0
785.0
785.0
783.0
780.0
786.0
790.0
789.0
794.0
790.0
791.0
794.0
799.0
802.0
806.0
808.0
810.0
814.0
820.0
821.0
825.0
834.0
837.0
839.0
843.0
844.0
849.0
848.0
850.0
853.0
856.0
857.0
862.0
864.0
866.0
867.0
867.0
865.0
869.0
867.0
866.0
869.0
871.0
871.0
873.0
875.0
874.0
872.0
869.0
868.0
867.0
862.0
865.0
865.0
865.0
866.0
865.0
868.0
864.0
866.0
863.0
862.0
861.0
861.0
858.0
859.0
857.0
859.0
861.0
858.0
860.0
859.0
857.0
854.0
854.0
853.0
851.0
854.0
856.0
860.0
863.0
860.0
858.0
859.0
855.0
853.0
849.0
850.0
848.0
851.0
857.0
858.0
864.0
864.0
863.0
862.0
858.0
858.0
853.0
850.0
855.0
858.0
862.0
861.0
860.0
860.0
861.0
862.0
859.0
858.0
855.0
854.0
853.0
851.0
856.0
856.0
861.0
861.0
858.0
860.0
858.0
859.0
858.0
859.0
857.0
860.0
863.0
863.0
868.0
864.0
865.0
865.0
860.0
867.0
867.0
867.0
873.0
876.0
882.0
886.0
887.0
887.0
890.0
888.0
886.0
888.0
891.0
896.0
902.0
903.0
907.0
906.0
910.0
903.0
899.0
894.0
891.0
888.0
886.0
888.0
892.0
897.0
906.0
911.0
915.0
910.0
900.0
892.0
885.0
877.0
872.0
867.0
863.0
867.0
865.0
864.0
860.0
857.0
857.0
854.0
853.0
852.0
849.0
847.0
850.0
850.0
853.0
852.0
855.0
855.0
855.0
853.0
849.0
847.0
844.0
844.0
845.0
845.0
848.0
852.0
850.0
850.0
852.0
851.0
848.0
849.0
848.0
846.0
845.0
846.0
843.0
842.0
845.0
851.0
863.0
886.0
914.0
949.0
983.0
1010.0
1027.0
1031.0
1024.0
1024.0
1029.0
1053.0
1088.0
1125.0
1158.0
1167.0
1140.0
1079.0
982.0
878.0
788.0
720.0
678.0
653.0
