# Simple Text Format
# Sampling Rate (Hz):= 360.00
# Resolution:= 12
# Labels:= ECG
852.0
851.0
850.0
844.0
837.0
836.0
835.0
843.0
848.0
851.0
852.0
846.0
835.0
829.0
830.0
837.0
841.0
844.0
843.0
844.0
848.0
848.0
845.0
840.0
828.0
820.0
817.0
819.0
826.0
835.0
838.0
841.0
838.0
836.0
833.0
833.0
830.0
825.0
824.0
824.0
830.0
834.0
836.0
839.0
841.0
838.0
834.0
832.0
829.0
825.0
825.0
825.0
827.0
831.0
832.0
834.0
836.0
837.0
835.0
835.0
835.0
831.0
832.0
828.0
826.0
828.0
834.0
843.0
839.0
836.0
831.0
833.0
834.0
835.0
837.0
836.0
836.0
835.0
838.0
840.0
843.0
844.0
844.0
843.0
840.0
833.0
836.0
844.0
846.0
849.0
854.0
856.0
857.0
858.0
858.0
859.0
858.0
852.0
852.0
853.0
861.0
873.0
888.0
893.0
891.0
887.0
874.0
860.0
852.0
849.0
854.0
869.0
874.0
882.0
891.0
895.0
894.0
883.0
868.0
854.0
849.0
848.0
853.0
854.0
849.0
840.0
835.0
833.0
832.0
837.0
838.0
838.0
833.0
829.0
827.0
824.0
830.0
833.0
829.0
830.0
827.0
829.0
827.0
833.0
836.0
834.0
833.0
829.0
826.0
821.0
824.0
824.0
830.0
836.0
837.0
836.0
834.0
829.0
825.0
820.0
823.0
827.0
848.0
878.0
914.0
946.0
970.0
979.0
987.0
988.0
983.0
983.0
1000.0
1030.0
1074.0
1110.0
1122.0
1099.0
1037.0
947.0
850.0
763.0
699.0
663.0
647.0
640.0
633.0
630.0
621.0
614.0
609.0
604.0
596.0
587.0
587.0
590.0
602.0
614.0
626.0
638.0
652.0
678.0
710.0
746.0
775.0
792.0
802.0
806.0
806.0
804.0
801.0
805.0
808.0
812.0
820.0
823.0
824.0
823.0
820.0
818.0
820.0
821.0
822.0
825.0
826.0
827.0
819.0
814.0
814.0
813.0
812.0
811.0
808.0
806.0
804.0
800.0
801.0
804.0
804.0
805.0
801.0
800.0
798.0
795.0
790.0
790.0
783.0
778.0
778.0
780.0
786.0
790.0
792.0
796.0
790.0
779.0
766.0
755.0
752.0
763.0
775.0
786.0
790.0
785.0
782.0
776.0
775.0
774.0
775.0
781.0
788.0
794.0
799.0
806.0
805.0
809.0
811.0
809.0
811.0
808.0
812.0
820.0
828.0
834.0
839.0
844.0
844.0
842.0
837.0
833.0
832.0
839.0
846.0
855.0
856.0
857.0
856.0
852.0
848.0
852.0
849.0
846.0
844.0
844.0
846.0
849.0
856.0
853.0
856.0
855.0
852.0
850.0
849.0
847.0
843.0
841.0
837.0
844.0
850.0
854.0
858.0
857.0
856.0
850.0
844.0
835.0
831.0
836.0
845.0
851.0
853.0
849.0
847.0
840.0
833.0
836.0
839.0
842.0
844.0
845.0
845.0
844.0
843.0
842.0
840.0
843.0
845.0
841.0
838.0
836.0
838.0
842.0
841.0
844.0
844.0
846.0
848.0
850.0
850.0
844.0
843.0
841.0
839.0
842.0
842.0
841.0
843.0
844.0
839.0
839.0
845.0
845.0
848.0
847.0
845.0
842.0
846.0
847.0
852.0
852.0
855.0
861.0
863.0
861.0
861.0
864.0
867.0
869.0
873.0
876.0
875.0
880.0
882.0
887.0
886.0
888.0
890.0
891.0
890.0
886.0
883.0
875.0
871.0
871.0
877.0
881.0
887.0
889.0
891.0
889.0
890.0
883.0
875.0
865.0
855.0
845.0
839.0
842.0
845.0
847.0
846.0
846.0
843.0
844.0
840.0
831.0
827.0
830.0
829.0
834.0
837.0
840.0
839.0
833.0
828.0
824.0
825.0
833.0
838.0
839.0
841.0
841.0
836.0
830.0
826.0
828.0
830.0
831.0
830.0
830.0
825.0
826.0
827.0
825.0
827.0
835.0
850.0
874.0
904.0
932.0
964.0
986.0
994.0
990.0
988.0
990.0
1005.0
1033.0
1072.0
1098.0
1109.0
1087.0
1029.0
944.0
852.0
771.0
714.0
672.0
651.0
639.0
634.0
625.0
615.0
602.0
594.0
594.0
595.0
600.0
606.0
611.0
617.0
621.0
634.0
653.0
676.0
708.0
729.0
752.0
769.0
791.0
803.0
813.0
815.0
810.0
810.0
813.0
813.0
816.0
813.0
812.0
811.0
815.0
822.0
823.0
824.0
825.0
822.0
821.0
818.0
819.0
815.0
812.0
816.0
815.0
811.0
809.0
803.0
804.0
799.0
798.0
798.0
799.0
799.0
797.0
795.0
795.0
793.0
790.0
786.0
782.0
776.0
772.0
767.0
767.0
770.0
775.0
779.0
780.0
778.0
773.0
766.0
767.0
764.0
767.0
763.0
762.0
758.0
759.0
768.0
774.0
783.0
784.0
782.0
778.0
775.0
782.0
790.0
793.0
793.0
798.0
803.0
809.0
814.0
816.0
817.0
819.0
820.0
820.0
822.0
821.0
823.0
832.0
836.0
843.0
842.0
841.0
839.0
840.0
842.0
841.0
835.0
830.0
835.0
840.0
843.0
846.0
847.0
849.0
847.0
847.0
845.0
839.0
841.0
835.0
831.0
830.0
830.0
833.0
842.0
844.0
845.0
845.0
842.0
840.0
837.0
841.0
839.0
835.0
830.0
824.0
826.0
832.0
837.0
843.0
842.0
838.0
835.0
832.0
832.0
832.0
834.0
834.0
839.0
839.0
834.0
832.0
830.0
828.0
832.0
839.0
840.0
838.0
833.0
830.0
833.0
834.0
836.0
840.0
837.0
835.0
835.0
839.0
841.0
845.0
842.0
842.0
839.0
837.0
836.0
835.0
832.0
833.0
830.0
835.0
838.0
843.0
843.0
845.0
845.0
843.0
841.0
839.0
839.0
839.0
848.0
852.0
853.0
855.0
855.0
853.0
854.0
853.0
857.0
856.0
861.0
866.0
870.0
871.0
867.0
864.0
867.0
870.0
871.0
865.0
861.0
852.0
853.0
856.0
860.0
868.0
870.0
870.0
869.0
865.0
859.0
854.0
850.0
849.0
844.0
838.0
835.0
828.0
825.0
822.0
816.0
817.0
819.0
823.0
826.0
825.0
823.0
824.0
825.0
828.0
829.0
820.0
812.0
807.0
807.0
817.0
824.0
829.0
831.0
828.0
823.0
815.0
813.0
813.0
811.0
813.0
816.0
823.0
824.0
825.0
820.0
816.0
815.0
821.0
830.0
857.0
891.0
919.0
942.0
962.0
968.0
963.0
957.0
956.0
964.0
987.0
1024.0
1063.0
1085.0
1074.0
1022.0
944.0
858.0
781.0
724.0
698.0
685.0
679.0
673.0
666.0
650.0
640.0
636.0
634.0
635.0
641.0
647.0
647.0
645.0
644.0
642.0
653.0
677.0
714.0
751.0
781.0
798.0
807.0
811.0
807.0
803.0
803.0
801.0
804.0
807.0
804.0
804.0
809.0
817.0
822.0
817.0
812.0
800.0
795.0
797.0
803.0
810.0
818.0
822.0
821.0
812.0
805.0
795.0
791.0
784.0
782.0
786.0
791.0
801.0
808.0
805.0
799.0
788.0
777.0
778.0
777.0
774.0
771.0
771.0
774.0
775.0
782.0
788.0
791.0
785.0
775.0
767.0
756.0
755.0
759.0
765.0
767.0
770.0
767.0
763.0
762.0
767.0
766.0
765.0
758.0
758.0
760.0
766.0
770.0
778.0
782.0
787.0
792.0
794.0
795.0
795.0
794.0
791.0
793.0
796.0
804.0
812.0
817.0
821.0
824.0
828.0
826.0
827.0
823.0
822.0
826.0
829.0
825.0
825.0
832.0
838.0
840.0
839.0
840.0
834.0
835.0
831.0
830.0
835.0
838.0
840.0
846.0
847.0
843.0
842.0
838.0
834.0
837.0
839.0
841.0
843.0
844.0
848.0
849.0
851.0
851.0
850.0
847.0
840.0
834.0
837.0
832.0
833.0
834.0
834.0
840.0
846.0
851.0
851.0
848.0
840.0
840.0
842.0
842.0
845.0
852.0
853.0
852.0
851.0
844.0
849.0
850.0
848.0
846.0
843.0
845.0
849.0
856.0
855.0
857.0
853.0
850.0
847.0
847.0
842.0
843.0
842.0
844.0
847.0
854.0
859.0
862.0
864.0
864.0
865.0
866.0
856.0
854.0
842.0
841.0
845.0
856.0
863.0
865.0
872.0
873.0
876.0
874.0
871.0
870.0
870.0
869.0
873.0
877.0
881.0
885.0
891.0
898.0
905.0
906.0
900.0
890.0
878.0
871.0
868.0
876.0
881.0
886.0
890.0
891.0
895.0
898.0
900.0
902.0
896.0
889.0
879.0
870.0
860.0
854.0
852.0
853.0
858.0
860.0
859.0
853.0
848.0
843.0
850.0
851.0
858.0
859.0
855.0
851.0
844.0
844.0
845.0
847.0
855.0
852.0
849.0
848.0
847.0
852.0
856.0
860.0
861.0
859.0
856.0
849.0
846.0
843.0
843.0
845.0
849.0
848.0
848.0
848.0
853.0
869.0
889.0
916.0
944.0
967.0
981.0
987.0
982.0
982.0
990.0
1009.0
1042.0
1081.0
1106.0
1108.0
1078.0
1016.0
943.0
867.0
806.0
771.0
747.0
734.0
721.0
707.0
689.0
679.0
675.0
668.0
669.0
664.0
668.0
671.0
673.0
678.0
683.0
704.0
733.0
766.0
793.0
808.0
815.0
825.0
829.0
834.0
841.0
840.0
835.0
837.0
833.0
827.0
824.0
827.0
826.0
827.0
831.0
836.0
844.0
849.0
848.0
841.0
830.0
819.0
816.0
818.0
824.0
828.0
827.0
826.0
829.0
830.0
828.0
822.0
810.0
806.0
802.0
805.0
807.0
811.0
813.0
814.0
815.0
810.0
802.0
795.0
787.0
785.0
789.0
788.0
788.0
791.0
792.0
789.0
787.0
782.0
779.0
783.0
783.0
783.0
784.0
788.0
796.0
793.0
791.0
789.0
790.0
800.0
809.0
816.0
820.0
815.0
816.0
814.0
820.0
823.0
828.0
836.0
841.0
846.0
845.0
843.0
845.0
842.0
846.0
848.0
849.0
850.0
854.0
854.0
860.0
859.0
863.0
868.0
870.0
866.0
860.0
853.0
853.0
860.0
861.0
862.0
864.0
864.0
865.0
865.0
868.0
866.0
862.0
856.0
856.0
858.0
860.0
863.0
868.0
865.0
865.0
861.0
856.0
856.0
856.0
853.0
854.0
857.0
857.0
860.0
858.0
852.0
845.0
839.0
838.0
844.0
854.0
860.0
864.0
865.0
866.0
857.0
856.0
849.0
851.0
853.0
858.0
858.0
857.0
857.0
855.0
853.0
851.0
852.0
853.0
855.0
858.0
861.0
861.0
858.0
853.0
850.0
846.0
843.0
846.0
848.0
855.0
859.0
862.0
861.0
860.0
861.0
855.0
852.0
857.0
862.0
864.0
866.0
865.0
870.0
877.0
882.0
887.0
884.0
878.0
870.0
863.0
864.0
871.0
881.0
894.0
906.0
907.0
907.0
895.0
887.0
873.0
864.0
862.0
868.0
877.0
882.0
889.0
892.0
896.0
894.0
895.0
890.0
885.0
874.0
868.0
862.0
857.0
851.0
854.0
856.0
859.0
861.0
861.0
853.0
842.0
836.0
830.0
838.0
843.0
845.0
851.0
849.0
847.0
852.0
849.0
849.0
848.0
844.0
840.0
835.0
836.0
840.0
841.0
840.0
843.0
848.0
848.0
844.0
841.0
837.0
836.0
834.0
830.0
832.0
833.0
839.0
850.0
864.0
878.0
903.0
930.0
959.0
978.0
984.0
975.0
965.0
969.0
989.0
1016.0
1054.0
1076.0
1084.0
1055.0
991.0
913.0
840.0
780.0
744.0
724.0
711.0
701.0
696.0
693.0
690.0
687.0
679.0
676.0
677.0
677.0
676.0
680.0
684.0
691.0
703.0
720.0
743.0
771.0
796.0
817.0
831.0
835.0
837.0
829.0
818.0
814.0
819.0
826.0
831.0
839.0
838.0
840.0
840.0
841.0
839.0
834.0
827.0
823.0
824.0
826.0
827.0
828.0
828.0
830.0
828.0
828.0
823.0
821.0
817.0
811.0
813.0
815.0
814.0
811.0
805.0
801.0
798.0
801.0
806.0
812.0
810.0
807.0
801.0
799.0
795.0
793.0
790.0
791.0
783.0
778.0
776.0
773.0
777.0
783.0
784.0
785.0
786.0
790.0
786.0
789.0
792.0
792.0
792.0
793.0
787.0
784.0
786.0
786.0
796.0
805.0
813.0
820.0
824.0
828.0
826.0
824.0
819.0
824.0
827.0
829.0
832.0
838.0
838.0
839.0
848.0
854.0
854.0
848.0
840.0
834.0
836.0
843.0
848.0
854.0
855.0
854.0
856.0
858.0
855.0
859.0
857.0
855.0
851.0
851.0
851.0
850.0
855.0
854.0
854.0
856.0
860.0
864.0
865.0
866.0
860.0
852.0
846.0
839.0
836.0
838.0
843.0
852.0
853.0
859.0
859.0
856.0
857.0
856.0
854.0
853.0
849.0
847.0
843.0
846.0
844.0
847.0
849.0
852.0
851.0
847.0
846.0
850.0
850.0
850.0
849.0
846.0
845.0
845.0
847.0
853.0
857.0
856.0
853.0
847.0
842.0
836.0
842.0
847.0
855.0
860.0
864.0
862.0
855.0
846.0
838.0
845.0
849.0
858.0
864.0
867.0
869.0
872.0
872.0
870.0
863.0
857.0
861.0
870.0
877.0
881.0
885.0
885.0
886.0
892.0
895.0
901.0
897.0
890.0
879.0
866.0
865.0
864.0
874.0
878.0
889.0
898.0
901.0
900.0
897.0
891.0
886.0
880.0
865.0
855.0
851.0
855.0
859.0
860.0
857.0
852.0
851.0
848.0
845.0
843.0
846.0
849.0
856.0
853.0
847.0
843.0
842.0
844.0
852.0
857.0
859.0
852.0
841.0
833.0
834.0
843.0
847.0
858.0
857.0
853.0
852.0
844.0
836.0
832.0
828.0
830.0
839.0
848.0
865.0
881.0
898.0
917.0
933.0
944.0
942.0
939.0
935.0
942.0
960.0
995.0
1034.0
1067.0
1067.0
1038.0
989.0
933.0
877.0
839.0
812.0
792.0
782.0
778.0
773.0
769.0
760.0
748.0
746.0
742.0
740.0
738.0
737.0
738.0
744.0
747.0
754.0
770.0
786.0
800.0
816.0
834.0
851.0
866.0
871.0
868.0
857.0
851.0
847.0
850.0
854.0
857.0
861.0
862.0
862.0
865.0
869.0
868.0
864.0
861.0
860.0
860.0
857.0
859.0
860.0
856.0
851.0
845.0
841.0
843.0
853.0
862.0
864.0
859.0
846.0
837.0
834.0
839.0
843.0
846.0
843.0
839.0
837.0
835.0
833.0
829.0
826.0
827.0
830.0
835.0
837.0
833.0
823.0
811.0
805.0
803.0
807.0
814.0
822.0
825.0
823.0
820.0
815.0
819.0
823.0
823.0
822.0
816.0
812.0
817.0
825.0
831.0
836.0
839.0
841.0
840.0
840.0
841.0
847.0
855.0
860.0
859.0
858.0
861.0
865.0
864.0
864.0
866.0
870.0
875.0
877.0
881.0
882.0
886.0
890.0
895.0
893.0
891.0
886.0
875.0
875.0
880.0
888.0
895.0
893.0
893.0
893.0
892.0
889.0
885.0
884.0
884.0
888.0
886.0
890.0
891.0
891.0
897.0
900.0
901.0
897.0
892.0
887.0
883.0
882.0
885.0
884.0
885.0
888.0
894.0
899.0
900.0
891.0
887.0
886.0
892.0
893.0
896.0
896.0
896.0
891.0
890.0
888.0
890.0
895.0
891.0
890.0
885.0
883.0
883.0
885.0
885.0
890.0
894.0
898.0
897.0
895.0
889.0
883.0
884.0
890.0
895.0
895.0
891.0
886.0
887.0
893.0
900.0
905.0
907.0
906.0
907.0
904.0
900.0
904.0
901.0
909.0
913.0
917.0
922.0
922.0
926.0
930.0
932.0
929.0
929.0
923.0
916.0
915.0
917.0
922.0
916.0
913.0
911.0
909.0
913.0
915.0
924.0
933.0
936.0
937.0
929.0
915.0
901.0
889.0
885.0
885.0
889.0
897.0
900.0
901.0
894.0
889.0
881.0
879.0
876.0
879.0
880.0
880.0
885.0
883.0
885.0
883.0
879.0
879.0
875.0
877.0
878.0
881.0
884.0
884.0
884.0
884.0
883.0
890.0
892.0
885.0
879.0
872.0
867.0
869.0
867.0
867.0
861.0
854.0
853.0
861.0
870.0
891.0
906.0
920.0
925.0
930.0
931.0
929.0
929.0
939.0
968.0
1014.0
1063.0
1097.0
1114.0
1104.0
1070.0
1021.0
967.0
930.0
899.0
877.0
858.0
838.0
819.0
809.0
802.0
795.0
795.0
797.0
790.0
783.0
772.0
766.0
765.0
764.0
770.0
786.0
805.0
832.0
851.0
863.0
872.0
875.0
873.0
868.0
857.0
851.0
852.0
858.0
869.0
872.0
876.0
873.0
872.0
871.0
870.0
870.0
867.0
863.0
864.0
863.0
867.0
869.0
870.0
864.0
857.0
852.0
852.0
850.0
845.0
842.0
836.0
836.0
844.0
846.0
847.0
848.0
845.0
846.0
844.0
833.0
831.0
827.0
822.0
820.0
819.0
824.0
828.0
832.0
833.0
832.0
828.0
823.0
819.0
820.0
822.0
825.0
825.0
827.0
823.0
821.0
819.0
823.0
825.0
826.0
829.0
832.0
839.0
843.0
845.0
840.0
839.0
837.0
839.0
842.0
848.0
857.0
863.0
871.0
871.0
874.0
875.0
870.0
868.0
869.0
877.0
879.0
880.0
880.0
878.0
881.0
883.0
887.0
889.0
889.0
889.0
891.0
892.0
889.0
890.0
887.0
890.0
891.0
893.0
891.0
891.0
890.0
888.0
888.0
888.0
888.0
880.0
872.0
869.0
875.0
883.0
894.0
893.0
890.0
884.0
878.0
878.0
883.0
885.0
888.0
887.0
881.0
876.0
876.0
882.0
890.0
890.0
888.0
883.0
879.0
880.0
877.0
874.0
867.0
871.0
875.0
882.0
891.0
892.0
893.0
888.0
883.0
877.0
878.0
879.0
880.0
882.0
875.0
876.0
878.0
883.0
888.0
887.0
890.0
890.0
889.0
885.0
882.0
879.0
876.0
881.0
888.0
896.0
900.0
896.0
888.0
883.0
879.0
886.0
891.0
899.0
904.0
906.0
907.0
909.0
911.0
910.0
912.0
911.0
911.0
912.0
914.0
917.0
922.0
924.0
927.0
934.0
933.0
922.0
914.0
904.0
899.0
898.0
906.0
912.0
917.0
920.0
921.0
927.0
933.0
926.0
916.0
902.0
893.0
887.0
889.0
891.0
893.0
894.0
887.0
880.0
877.0
871.0
869.0
872.0
874.0
875.0
877.0
876.0
878.0
877.0
878.0
878.0
880.0
882.0
884.0
881.0
871.0
863.0
863.0
865.0
870.0
873.0
877.0
879.0
883.0
883.0
882.0
872.0
861.0
852.0
849.0
858.0
879.0
904.0
931.0
957.0
974.0
984.0
984.0
976.0
979.0
991.0
1022.0
1061.0
1106.0
1140.0
1143.0
1115.0
1059.0
984.0
916.0
859.0
833.0
811.0
795.0
774.0
751.0
737.0
727.0
723.0
721.0
715.0
710.0
706.0
701.0
701.0
703.0
707.0
715.0
727.0
742.0
764.0
788.0
810.0
828.0
840.0
846.0
849.0
853.0
854.0
855.0
858.0
858.0
858.0
858.0
861.0
862.0
865.0
862.0
856.0
854.0
851.0
857.0
862.0
867.0
872.0
865.0
860.0
855.0
856.0
860.0
861.0
855.0
847.0
843.0
849.0
851.0
856.0
849.0
840.0
835.0
828.0
828.0
828.0
831.0
829.0
830.0
828.0
828.0
828.0
827.0
825.0
819.0
813.0
810.0
811.0
812.0
813.0
817.0
819.0
818.0
813.0
813.0
816.0
813.0
808.0
809.0
813.0
817.0
825.0
830.0
835.0
839.0
835.0
830.0
829.0
832.0
843.0
849.0
856.0
856.0
859.0
862.0
865.0
875.0
883.0
887.0
886.0
879.0
871.0
864.0
866.0
871.0
883.0
895.0
899.0
898.0
891.0
890.0
886.0
882.0
883.0
891.0
889.0
886.0
881.0
882.0
888.0
897.0
900.0
901.0
900.0
900.0
897.0
888.0
884.0
881.0
883.0
886.0
889.0
887.0
889.0
885.0
880.0
877.0
874.0
872.0
875.0
871.0
874.0
875.0
880.0
880.0
881.0
881.0
878.0
883.0
884.0
877.0
870.0
866.0
866.0
870.0
873.0
880.0
887.0
891.0
888.0
890.0
884.0
879.0
871.0
868.0
876.0
885.0
892.0
891.0
888.0
880.0
879.0
880.0
882.0
885.0
887.0
885.0
882.0
880.0
883.0
887.0
888.0
890.0
887.0
884.0
887.0
885.0
886.0
891.0
890.0
890.0
893.0
886.0
885.0
887.0
898.0
904.0
915.0
920.0
921.0
919.0
914.0
909.0
905.0
908.0
915.0
922.0
929.0
930.0
932.0
930.0
923.0
918.0
917.0
917.0
913.0
910.0
910.0
911.0
912.0
914.0
918.0
918.0
915.0
917.0
920.0
924.0
919.0
909.0
898.0
888.0
883.0
875.0
877.0
882.0
887.0
886.0
880.0
876.0
871.0
872.0
874.0
876.0
880.0
879.0
877.0
876.0
874.0
872.0
875.0
876.0
877.0
873.0
873.0
872.0
874.0
877.0
874.0
872.0
863.0
853.0
855.0
858.0
866.0
878.0
895.0
918.0
942.0
966.0
983.0
984.0
982.0
981.0
994.0
1024.0
1062.0
1104.0
1137.0
1149.0
1127.0
1076.0
995.0
912.0
839.0
784.0
754.0
732.0
722.0
706.0
694.0
685.0
677.0
671.0
671.0
672.0
673.0
673.0
674.0
669.0
673.0
677.0
695.0
720.0
755.0
787.0
812.0
832.0
848.0
860.0
860.0
852.0
843.0
841.0
842.0
850.0
855.0
865.0
871.0
871.0
869.0
867.0
869.0
862.0
860.0
857.0
861.0
865.0
863.0
856.0
848.0
846.0
846.0
852.0
851.0
855.0
855.0
852.0
846.0
839.0
836.0
826.0
826.0
825.0
826.0
831.0
834.0
836.0
828.0
826.0
823.0
828.0
832.0
830.0
818.0
805.0
801.0
805.0
819.0
823.0
831.0
826.0
826.0
826.0
822.0
820.0
824.0
828.0
829.0
833.0
830.0
826.0
825.0
829.0
838.0
845.0
848.0
849.0
849.0
850.0
857.0
863.0
874.0
879.0
878.0
877.0
875.0
875.0
874.0
875.0
874.0
873.0
874.0
881.0
886.0
892.0
896.0
898.0
895.0
890.0
886.0
878.0
881.0
891.0
896.0
895.0
893.0
883.0
877.0
878.0
881.0
887.0
889.0
891.0
892.0
890.0
886.0
882.0
883.0
886.0
887.0
889.0
883.0
886.0
879.0
880.0
875.0
875.0
876.0
879.0
882.0
886.0
889.0
889.0
882.0
882.0
875.0
870.0
870.0
875.0
881.0
885.0
879.0
876.0
875.0
872.0
874.0
872.0
880.0
883.0
886.0
890.0
890.0
890.0
887.0
885.0
882.0
884.0
882.0
882.0
882.0
885.0
884.0
884.0
884.0
884.0
883.0
879.0
875.0
880.0
883.0
886.0
888.0
885.0
887.0
886.0
890.0
891.0
893.0
896.0
900.0
902.0
905.0
905.0
896.0
894.0
898.0
903.0
909.0
917.0
920.0
924.0
927.0
928.0
927.0
923.0
915.0
910.0
913.0
918.0
920.0
921.0
921.0
919.0
913.0
902.0
895.0
895.0
898.0
903.0
910.0
917.0
921.0
922.0
917.0
913.0
905.0
902.0
900.0
889.0
884.0
872.0
866.0
867.0
873.0
878.0
879.0
880.0
879.0
881.0
878.0
875.0
872.0
870.0
865.0
863.0
866.0
873.0
876.0
875.0
871.0
870.0
870.0
880.0
883.0
882.0
872.0
858.0
851.0
858.0
871.0
877.0
877.0
870.0
863.0
869.0
882.0
901.0
926.0
947.0
968.0
983.0
992.0
993.0
988.0
985.0
995.0
1018.0
1054.0
1101.0
1140.0
1161.0
1147.0
1089.0
994.0
888.0
800.0
750.0
728.0
725.0
715.0
704.0
679.0
660.0
643.0
636.0
641.0
653.0
659.0
666.0
660.0
653.0
646.0
646.0
653.0
665.0
686.0
711.0
742.0
773.0
800.0
822.0
834.0
839.0
834.0
834.0
834.0
841.0
847.0
858.0
867.0
867.0
867.0
860.0
854.0
849.0
848.0
851.0
858.0
861.0
863.0
863.0
858.0
852.0
851.0
860.0
861.0
855.0
837.0
827.0
822.0
833.0
837.0
843.0
848.0
848.0
847.0
842.0
833.0
827.0
819.0
817.0
815.0
815.0
814.0
817.0
817.0
816.0
818.0
816.0
818.0
814.0
813.0
812.0
810.0
806.0
802.0
795.0
792.0
790.0
800.0
815.0
823.0
825.0
822.0
806.0
798.0
798.0
807.0
818.0
825.0
833.0
840.0
847.0
849.0
849.0
843.0
847.0
839.0
842.0
845.0
854.0
851.0
858.0
860.0
863.0
869.0
875.0
881.0
882.0
875.0
865.0
862.0
858.0
867.0
874.0
879.0
888.0
886.0
884.0
881.0
875.0
869.0
871.0
864.0
866.0
872.0
873.0
880.0
883.0
879.0
876.0
877.0
879.0
875.0
872.0
863.0
861.0
860.0
870.0
872.0
870.0
871.0
874.0
879.0
875.0
864.0
858.0
855.0
856.0
861.0
866.0
866.0
867.0
868.0
872.0
876.0
877.0
872.0
869.0
869.0
868.0
868.0
869.0
866.0
867.0
872.0
879.0
882.0
879.0
877.0
865.0
859.0
862.0
865.0
874.0
878.0
882.0
885.0
879.0
870.0
867.0
864.0
874.0
876.0
877.0
874.0
875.0
873.0
879.0
887.0
891.0
892.0
896.0
894.0
889.0
885.0
887.0
892.0
894.0
906.0
913.0
914.0
912.0
914.0
913.0
911.0
910.0
912.0
910.0
910.0
914.0
912.0
911.0
901.0
892.0
888.0
891.0
899.0
904.0
911.0
909.0
911.0
912.0
909.0
907.0
901.0
894.0
887.0
872.0
863.0
861.0
863.0
868.0
878.0
875.0
873.0
869.0
867.0
866.0
865.0
868.0
867.0
865.0
862.0
864.0
863.0
863.0
860.0
863.0
863.0
861.0
862.0
860.0
860.0
856.0
857.0
862.0
864.0
862.0
859.0
858.0
857.0
851.0
854.0
861.0
881.0
900.0
923.0
945.0
967.0
981.0
988.0
991.0
993.0
998.0
1013.0
1041.0
1077.0
1110.0
1132.0
1130.0
1090.0
1020.0
929.0
841.0
770.0
719.0
689.0
670.0
663.0
655.0
656.0
654.0
653.0
647.0
637.0
631.0
632.0
635.0
639.0
645.0
648.0
656.0
674.0
701.0
726.0
754.0
776.0
796.0
810.0
826.0
836.0
844.0
849.0
852.0
853.0
848.0
847.0
844.0
849.0
857.0
864.0
867.0
864.0
857.0
851.0
851.0
852.0
854.0
861.0
860.0
858.0
855.0
850.0
846.0
844.0
845.0
843.0
844.0
838.0
839.0
835.0
832.0
827.0
827.0
827.0
830.0
832.0
828.0
825.0
817.0
810.0
812.0
813.0
815.0
812.0
814.0
809.0
812.0
815.0
817.0
815.0
815.0
814.0
811.0
811.0
810.0
811.0
813.0
818.0
821.0
823.0
823.0
824.0
821.0
817.0
816.0
819.0
829.0
841.0
852.0
862.0
863.0
865.0
861.0
857.0
853.0
857.0
866.0
871.0
876.0
873.0
870.0
870.0
871.0
879.0
887.0
885.0
882.0
877.0
873.0
883.0
888.0
890.0
889.0
879.0
875.0
872.0
875.0
877.0
878.0
877.0
880.0
885.0
889.0
892.0
890.0
885.0
886.0
887.0
882.0
877.0
873.0
864.0
858.0
857.0
862.0
876.0
888.0
888.0
885.0
882.0
875.0
869.0
868.0
865.0
867.0
869.0
871.0
872.0
871.0
868.0
869.0
871.0
871.0
880.0
876.0
876.0
872.0
872.0
874.0
877.0
879.0
877.0
876.0
874.0
874.0
878.0
878.0
875.0
872.0
868.0
870.0
870.0
882.0
886.0
890.0
890.0
885.0
876.0
872.0
869.0
867.0
867.0
873.0
876.0
885.0
887.0
892.0
896.0
895.0
891.0
887.0
888.0
893.0
902.0
912.0
919.0
922.0
924.0
919.0
915.0
911.0
913.0
917.0
920.0
916.0
912.0
906.0
905.0
908.0
908.0
906.0
902.0
898.0
903.0
901.0
902.0
899.0
898.0
903.0
902.0
908.0
905.0
898.0
887.0
881.0
878.0
881.0
880.0
869.0
856.0
848.0
851.0
864.0
878.0
882.0
875.0
866.0
858.0
855.0
857.0
857.0
860.0
860.0
864.0
869.0
868.0
869.0
862.0
854.0
851.0
851.0
850.0
852.0
858.0
861.0
863.0
867.0
865.0
858.0
854.0
855.0
861.0
875.0
896.0
927.0
960.0
985.0
999.0
1002.0
993.0
997.0
1008.0
1035.0
1070.0
1105.0
1124.0
1119.0
1084.0
1010.0
915.0
826.0
750.0
697.0
675.0
657.0
650.0
644.0
636.0
631.0
630.0
633.0
638.0
636.0
633.0
626.0
625.0
633.0
643.0
651.0
662.0
677.0
706.0
747.0
777.0
803.0
820.0
831.0
839.0
839.0
834.0
832.0
833.0
839.0
841.0
847.0
846.0
852.0
856.0
859.0
858.0
858.0
857.0
852.0
848.0
845.0
844.0
846.0
847.0
849.0
848.0
846.0
847.0
840.0
840.0
838.0
837.0
831.0
828.0
827.0
829.0
831.0
825.0
821.0
818.0
817.0
820.0
824.0
821.0
815.0
817.0
814.0
808.0
817.0
813.0
810.0
807.0
807.0
807.0
806.0
802.0
797.0
801.0
803.0
807.0
809.0
812.0
814.0
814.0
816.0
818.0
817.0
818.0
817.0
821.0
830.0
837.0
844.0
847.0
845.0
847.0
849.0
850.0
855.0
858.0
858.0
855.0
858.0
861.0
871.0
875.0
876.0
879.0
878.0
878.0
879.0
878.0
875.0
872.0
871.0
872.0
882.0
884.0
882.0
882.0
879.0
871.0
876.0
880.0
881.0
880.0
875.0
879.0
885.0
881.0
870.0
864.0
867.0
874.0
882.0
876.0
873.0
871.0
870.0
878.0
879.0
877.0
879.0
879.0
876.0
872.0
870.0
865.0
865.0
867.0
867.0
871.0
880.0
884.0
879.0
871.0
864.0
860.0
866.0
868.0
874.0
877.0
875.0
875.0
879.0
879.0
878.0
875.0
874.0
876.0
878.0
882.0
884.0
886.0
878.0
873.0
872.0
874.0
880.0
886.0
889.0
888.0
887.0
884.0
884.0
885.0
887.0
890.0
892.0
891.0
891.0
890.0
888.0
890.0
893.0
895.0
900.0
901.0
909.0
917.0
922.0
926.0
929.0
929.0
926.0
922.0
920.0
920.0
917.0
915.0
920.0
928.0
933.0
934.0
932.0
922.0
914.0
910.0
909.0
911.0
916.0
920.0
921.0
919.0
916.0
923.0
933.0
