# Simple Text Format
# Sampling Rate (Hz):= 360.00
# Resolution:= 12
# Labels:= ECG
885.0
884.0
882.0
879.0
876.0
875.0
872.0
872.0
874.0
874.0
875.0
876.0
878.0
877.0
877.0
878.0
876.0
872.0
868.0
862.0
856.0
856.0
855.0
853.0
856.0
853.0
848.0
840.0
834.0
828.0
824.0
823.0
825.0
827.0
829.0
829.0
825.0
826.0
817.0
818.0
814.0
812.0
809.0
809.0
814.0
817.0
817.0
820.0
824.0
824.0
824.0
827.0
827.0
827.0
829.0
833.0
837.0
842.0
848.0
856.0
861.0
865.0
869.0
872.0
871.0
872.0
873.0
875.0
873.0
878.0
884.0
890.0
894.0
897.0
897.0
891.0
892.0
896.0
893.0
891.0
893.0
894.0
895.0
895.0
895.0
899.0
897.0
895.0
891.0
890.0
890.0
890.0
892.0
891.0
893.0
891.0
891.0
892.0
888.0
888.0
882.0
882.0
881.0
878.0
877.0
878.0
880.0
882.0
882.0
886.0
882.0
877.0
870.0
871.0
869.0
867.0
869.0
871.0
874.0
876.0
879.0
879.0
875.0
878.0
877.0
878.0
875.0
876.0
876.0
870.0
873.0
874.0
875.0
880.0
876.0
877.0
877.0
875.0
874.0
872.0
872.0
871.0
870.0
868.0
867.0
874.0
871.0
879.0
880.0
883.0
885.0
881.0
881.0
881.0
884.0
892.0
897.0
897.0
896.0
891.0
890.0
890.0
895.0
900.0
906.0
908.0
912.0
912.0
912.0
910.0
904.0
902.0
897.0
893.0
892.0
892.0
893.0
897.0
901.0
900.0
904.0
898.0
891.0
882.0
869.0
859.0
853.0
846.0
847.0
845.0
843.0
838.0
838.0
837.0
835.0
832.0
831.0
829.0
821.0
820.0
818.0
814.0
815.0
815.0
817.0
815.0
815.0
814.0
810.0
811.0
810.0
807.0
805.0
804.0
806.0
803.0
806.0
804.0
799.0
796.0
789.0
785.0
778.0
775.0
778.0
788.0
806.0
829.0
859.0
886.0
907.0
925.0
927.0
928.0
932.0
951.0
983.0
1022.0
1062.0
1078.0
1070.0
1021.0
941.0
851.0
764.0
695.0
640.0
607.0
580.0
564.0
554.0
545.0
539.0
536.0
530.0
528.0
524.0
523.0
525.0
529.0
538.0
558.0
579.0
606.0
633.0
662.0
684.0
699.0
708.0
715.0
718.0
722.0
723.0
729.0
733.0
734.0
738.0
738.0
740.0
735.0
733.0
733.0
732.0
732.0
732.0
731.0
730.0
729.0
728.0
727.0
725.0
725.0
718.0
716.0
712.0
710.0
708.0
707.0
708.0
706.0
707.0
706.0
703.0
700.0
695.0
692.0
689.0
680.0
681.0
679.0
683.0
684.0
683.0
687.0
684.0
679.0
673.0
670.0
670.0
668.0
670.0
673.0
673.0
677.0
680.0
682.0
685.0
685.0
686.0
686.0
687.0
690.0
694.0
698.0
705.0
707.0
714.0
718.0
723.0
723.0
725.0
729.0
728.0
732.0
731.0
733.0
743.0
742.0
748.0
752.0
751.0
751.0
753.0
750.0
751.0
750.0
750.0
755.0
757.0
762.0
764.0
762.0
757.0
756.0
754.0
756.0
759.0
757.0
754.0
757.0
759.0
759.0
757.0
761.0
757.0
757.0
758.0
755.0
755.0
754.0
750.0
750.0
752.0
754.0
755.0
753.0
749.0
746.0
747.0
748.0
748.0
746.0
746.0
746.0
745.0
748.0
748.0
748.0
749.0
748.0
749.0
747.0
747.0
746.0
748.0
752.0
753.0
754.0
755.0
757.0
756.0
756.0
753.0
751.0
750.0
751.0
748.0
752.0
757.0
757.0
760.0
758.0
761.0
758.0
761.0
759.0
759.0
759.0
760.0
764.0
768.0
771.0
773.0
775.0
780.0
784.0
785.0
785.0
785.0
787.0
793.0
798.0
805.0
810.0
815.0
816.0
814.0
808.0
803.0
797.0
790.0
786.0
785.0
794.0
800.0
807.0
809.0
815.0
812.0
805.0
795.0
786.0
776.0
770.0
765.0
764.0
765.0
764.0
761.0
758.0
757.0
755.0
753.0
752.0
747.0
747.0
749.0
748.0
750.0
752.0
755.0
756.0
753.0
753.0
746.0
748.0
746.0
748.0
750.0
750.0
752.0
753.0
754.0
757.0
758.0
757.0
755.0
752.0
747.0
747.0
744.0
747.0
751.0
763.0
780.0
803.0
827.0
857.0
882.0
896.0
901.0
904.0
913.0
935.0
971.0
1016.0
1053.0
1074.0
1061.0
1015.0
937.0
844.0
757.0
685.0
636.0
605.0
585.0
568.0
554.0
538.0
525.0
512.0
507.0
506.0
504.0
503.0
502.0
506.0
514.0
521.0
538.0
559.0
583.0
608.0
637.0
663.0
681.0
700.0
713.0
720.0
727.0
735.0
739.0
739.0
742.0
745.0
747.0
746.0
747.0
748.0
750.0
751.0
752.0
754.0
753.0
751.0
759.0
758.0
753.0
751.0
749.0
746.0
741.0
742.0
743.0
743.0
743.0
740.0
737.0
737.0
736.0
733.0
728.0
727.0
724.0
722.0
725.0
724.0
721.0
719.0
715.0
713.0
712.0
709.0
700.0
701.0
698.0
702.0
706.0
709.0
710.0
709.0
705.0
704.0
701.0
695.0
696.0
702.0
707.0
711.0
714.0
716.0
721.0
724.0
729.0
737.0
741.0
744.0
745.0
743.0
746.0
750.0
758.0
763.0
772.0
776.0
778.0
772.0
771.0
772.0
775.0
776.0
783.0
782.0
783.0
781.0
777.0
778.0
780.0
791.0
800.0
805.0
804.0
797.0
787.0
781.0
782.0
790.0
798.0
803.0
804.0
803.0
798.0
794.0
789.0
787.0
789.0
788.0
791.0
792.0
796.0
795.0
794.0
790.0
787.0
785.0
784.0
782.0
785.0
786.0
790.0
790.0
785.0
783.0
779.0
780.0
782.0
783.0
783.0
783.0
786.0
786.0
787.0
785.0
785.0
788.0
787.0
792.0
792.0
791.0
787.0
784.0
781.0
781.0
783.0
790.0
793.0
796.0
799.0
797.0
795.0
791.0
789.0
789.0
787.0
790.0
791.0
795.0
793.0
798.0
798.0
799.0
798.0
798.0
795.0
794.0
798.0
804.0
808.0
811.0
817.0
820.0
820.0
823.0
826.0
826.0
824.0
815.0
815.0
823.0
837.0
852.0
865.0
868.0
862.0
852.0
841.0
834.0
828.0
829.0
830.0
831.0
836.0
838.0
848.0
858.0
860.0
861.0
849.0
836.0
826.0
821.0
817.0
813.0
811.0
805.0
802.0
797.0
798.0
795.0
793.0
792.0
790.0
790.0
789.0
792.0
788.0
787.0
788.0
789.0
788.0
791.0
788.0
786.0
784.0
782.0
777.0
782.0
782.0
788.0
789.0
788.0
790.0
787.0
783.0
779.0
776.0
776.0
784.0
790.0
791.0
790.0
786.0
782.0
775.0
777.0
785.0
806.0
833.0
869.0
901.0
929.0
945.0
946.0
942.0
946.0
963.0
997.0
1049.0
1099.0
1130.0
1133.0
1094.0
1018.0
913.0
807.0
720.0
665.0
630.0
609.0
589.0
565.0
544.0
527.0
520.0
517.0
520.0
523.0
523.0
524.0
529.0
536.0
540.0
553.0
575.0
602.0
637.0
672.0
703.0
728.0
747.0
755.0
761.0
760.0
762.0
766.0
770.0
773.0
773.0
775.0
776.0
782.0
783.0
786.0
785.0
783.0
784.0
780.0
775.0
772.0
768.0
768.0
771.0
773.0
775.0
780.0
776.0
774.0
771.0
768.0
764.0
756.0
752.0
750.0
751.0
754.0
758.0
759.0
758.0
755.0
751.0
743.0
741.0
735.0
733.0
731.0
728.0
731.0
731.0
732.0
733.0
737.0
733.0
733.0
727.0
720.0
715.0
713.0
718.0
727.0
739.0
744.0
746.0
746.0
743.0
741.0
739.0
745.0
751.0
756.0
766.0
776.0
780.0
783.0
785.0
786.0
785.0
786.0
790.0
795.0
803.0
804.0
811.0
812.0
813.0
810.0
811.0
811.0
810.0
811.0
811.0
811.0
814.0
815.0
815.0
818.0
818.0
822.0
821.0
824.0
821.0
821.0
814.0
817.0
818.0
816.0
816.0
817.0
817.0
820.0
819.0
822.0
823.0
815.0
815.0
815.0
815.0
813.0
813.0
813.0
812.0
809.0
807.0
806.0
809.0
807.0
810.0
813.0
814.0
813.0
814.0
813.0
814.0
808.0
808.0
807.0
805.0
802.0
803.0
807.0
806.0
813.0
814.0
814.0
815.0
815.0
820.0
826.0
827.0
820.0
812.0
805.0
800.0
801.0
809.0
817.0
827.0
826.0
826.0
828.0
821.0
818.0
817.0
814.0
813.0
813.0
810.0
811.0
817.0
825.0
830.0
836.0
838.0
836.0
831.0
834.0
837.0
842.0
846.0
848.0
853.0
856.0
865.0
872.0
881.0
883.0
879.0
875.0
866.0
863.0
860.0
858.0
855.0
856.0
857.0
864.0
871.0
874.0
872.0
869.0
862.0
855.0
849.0
844.0
839.0
836.0
831.0
829.0
825.0
821.0
816.0
811.0
807.0
804.0
806.0
807.0
809.0
808.0
803.0
804.0
802.0
805.0
808.0
807.0
805.0
805.0
804.0
810.0
813.0
816.0
816.0
812.0
807.0
806.0
807.0
805.0
806.0
804.0
801.0
799.0
799.0
803.0
806.0
810.0
817.0
826.0
843.0
873.0
908.0
947.0
973.0
985.0
984.0
984.0
1002.0
1033.0
1087.0
1129.0
1154.0
1143.0
1089.0
990.0
877.0
766.0
681.0
624.0
588.0
571.0
561.0
551.0
546.0
541.0
530.0
527.0
525.0
527.0
530.0
537.0
542.0
549.0
558.0
574.0
598.0
627.0
659.0
690.0
720.0
744.0
764.0
776.0
782.0
787.0
788.0
788.0
791.0
791.0
789.0
795.0
798.0
801.0
803.0
800.0
803.0
806.0
805.0
804.0
804.0
807.0
805.0
808.0
803.0
800.0
795.0
796.0
793.0
793.0
792.0
791.0
788.0
785.0
775.0
773.0
768.0
773.0
774.0
778.0
778.0
778.0
775.0
771.0
769.0
764.0
759.0
755.0
748.0
748.0
750.0
754.0
757.0
755.0
754.0
751.0
749.0
747.0
745.0
749.0
754.0
757.0
758.0
761.0
763.0
766.0
770.0
774.0
778.0
782.0
786.0
789.0
796.0
803.0
808.0
811.0
813.0
817.0
820.0
823.0
816.0
813.0
816.0
820.0
822.0
828.0
833.0
835.0
838.0
837.0
837.0
833.0
832.0
835.0
835.0
838.0
840.0
841.0
839.0
839.0
834.0
834.0
834.0
834.0
830.0
829.0
828.0
827.0
827.0
826.0
828.0
831.0
832.0
835.0
832.0
828.0
822.0
817.0
813.0
814.0
818.0
822.0
827.0
825.0
825.0
818.0
816.0
811.0
813.0
814.0
811.0
815.0
820.0
822.0
824.0
825.0
819.0
817.0
818.0
819.0
817.0
817.0
815.0
813.0
811.0
814.0
820.0
824.0
826.0
826.0
823.0
822.0
821.0
823.0
820.0
821.0
818.0
823.0
824.0
826.0
826.0
825.0
824.0
823.0
824.0
819.0
821.0
822.0
825.0
827.0
830.0
834.0
831.0
833.0
836.0
835.0
837.0
837.0
839.0
842.0
849.0
849.0
852.0
858.0
859.0
858.0
864.0
873.0
876.0
882.0
880.0
877.0
878.0
871.0
867.0
864.0
861.0
857.0
859.0
862.0
866.0
874.0
876.0
876.0
881.0
871.0
866.0
858.0
846.0
833.0
827.0
824.0
820.0
822.0
819.0
815.0
813.0
813.0
815.0
818.0
819.0
819.0
813.0
814.0
812.0
809.0
807.0
807.0
809.0
809.0
812.0
811.0
814.0
812.0
814.0
813.0
814.0
813.0
811.0
810.0
808.0
810.0
813.0
816.0
808.0
806.0
799.0
797.0
798.0
804.0
812.0
831.0
858.0
895.0
933.0
962.0
980.0
990.0
990.0
987.0
997.0
1022.0
1064.0
1116.0
1153.0
1157.0
1118.0
1033.0
915.0
796.0
693.0
625.0
582.0
564.0
555.0
551.0
544.0
537.0
530.0
526.0
527.0
525.0
526.0
529.0
535.0
542.0
555.0
574.0
603.0
640.0
679.0
711.0
744.0
765.0
778.0
784.0
785.0
786.0
783.0
791.0
795.0
799.0
801.0
807.0
807.0
807.0
809.0
809.0
808.0
810.0
807.0
804.0
797.0
795.0
792.0
797.0
797.0
800.0
804.0
804.0
800.0
800.0
792.0
792.0
786.0
785.0
785.0
786.0
783.0
776.0
773.0
769.0
770.0
769.0
766.0
766.0
767.0
766.0
768.0
767.0
766.0
759.0
751.0
750.0
750.0
751.0
747.0
751.0
754.0
759.0
757.0
760.0
760.0
757.0
759.0
762.0
766.0
771.0
776.0
780.0
784.0
794.0
796.0
805.0
806.0
806.0
806.0
808.0
817.0
823.0
822.0
824.0
828.0
830.0
830.0
841.0
842.0
844.0
843.0
842.0
842.0
841.0
842.0
841.0
847.0
849.0
849.0
848.0
847.0
844.0
843.0
843.0
841.0
842.0
845.0
841.0
845.0
845.0
847.0
850.0
847.0
845.0
845.0
841.0
832.0
828.0
830.0
832.0
838.0
842.0
840.0
842.0
840.0
835.0
835.0
831.0
832.0
833.0
832.0
831.0
836.0
834.0
838.0
839.0
837.0
833.0
836.0
836.0
835.0
838.0
840.0
842.0
840.0
840.0
835.0
837.0
839.0
841.0
839.0
842.0
841.0
840.0
836.0
838.0
841.0
844.0
843.0
841.0
838.0
840.0
841.0
836.0
837.0
837.0
834.0
840.0
843.0
849.0
846.0
848.0
843.0
846.0
846.0
844.0
843.0
843.0
844.0
844.0
843.0
843.0
846.0
855.0
859.0
863.0
866.0
865.0
867.0
868.0
867.0
868.0
872.0
874.0
882.0
887.0
889.0
895.0
897.0
896.0
893.0
890.0
884.0
884.0
881.0
878.0
875.0
872.0
879.0
884.0
886.0
889.0
900.0
901.0
898.0
892.0
883.0
872.0
866.0
862.0
856.0
849.0
847.0
840.0
834.0
836.0
829.0
830.0
830.0
831.0
830.0
832.0
832.0
830.0
829.0
826.0
829.0
825.0
827.0
826.0
825.0
827.0
830.0
836.0
833.0
830.0
826.0
824.0
824.0
828.0
825.0
826.0
828.0
834.0
835.0
838.0
835.0
832.0
829.0
826.0
820.0
820.0
822.0
833.0
855.0
887.0
922.0
956.0
987.0
1004.0
1003.0
1001.0
1000.0
1018.0
1053.0
1103.0
1144.0
1176.0
1163.0
1106.0
1014.0
900.0
796.0
713.0
652.0
617.0
597.0
582.0
570.0
558.0
549.0
545.0
542.0
545.0
543.0
545.0
542.0
540.0
542.0
552.0
565.0
587.0
615.0
648.0
683.0
716.0
742.0
760.0
774.0
786.0
792.0
798.0
803.0
807.0
811.0
812.0
813.0
816.0
820.0
820.0
818.0
816.0
818.0
815.0
816.0
817.0
820.0
822.0
824.0
824.0
823.0
821.0
820.0
817.0
814.0
812.0
812.0
808.0
809.0
810.0
806.0
805.0
801.0
797.0
794.0
791.0
787.0
789.0
788.0
783.0
781.0
780.0
778.0
777.0
774.0
776.0
773.0
776.0
771.0
772.0
771.0
772.0
769.0
769.0
768.0
767.0
769.0
771.0
772.0
774.0
775.0
777.0
780.0
784.0
787.0
794.0
795.0
799.0
802.0
809.0
810.0
814.0
818.0
825.0
827.0
835.0
836.0
844.0
842.0
840.0
840.0
841.0
841.0
842.0
844.0
844.0
846.0
851.0
852.0
856.0
855.0
854.0
856.0
854.0
853.0
851.0
850.0
847.0
849.0
851.0
850.0
853.0
856.0
860.0
855.0
853.0
857.0
850.0
847.0
843.0
842.0
845.0
846.0
851.0
850.0
850.0
847.0
845.0
842.0
844.0
843.0
837.0
838.0
839.0
843.0
844.0
844.0
844.0
841.0
841.0
838.0
835.0
836.0
838.0
837.0
839.0
842.0
845.0
843.0
849.0
843.0
840.0
836.0
834.0
832.0
834.0
842.0
842.0
842.0
842.0
844.0
844.0
843.0
841.0
838.0
838.0
837.0
838.0
835.0
839.0
842.0
845.0
847.0
847.0
848.0
843.0
844.0
842.0
842.0
842.0
843.0
844.0
845.0
848.0
849.0
848.0
847.0
848.0
852.0
854.0
851.0
854.0
853.0
856.0
858.0
861.0
863.0
866.0
869.0
875.0
872.0
874.0
873.0
877.0
884.0
894.0
902.0
909.0
913.0
909.0
903.0
898.0
884.0
873.0
871.0
875.0
886.0
898.0
905.0
909.0
904.0
898.0
887.0
876.0
865.0
855.0
852.0
845.0
844.0
842.0
844.0
844.0
840.0
839.0
838.0
833.0
831.0
832.0
834.0
832.0
834.0
831.0
833.0
835.0
839.0
838.0
833.0
833.0
830.0
830.0
830.0
829.0
832.0
833.0
836.0
838.0
838.0
835.0
832.0
830.0
830.0
833.0
829.0
827.0
829.0
830.0
836.0
849.0
869.0
895.0
932.0
963.0
992.0
1004.0
1005.0
1003.0
1011.0
1036.0
1074.0
1120.0
1156.0
1168.0
1133.0
1051.0
933.0
811.0
705.0
633.0
591.0
572.0
564.0
561.0
555.0
548.0
548.0
543.0
546.0
548.0
548.0
555.0
560.0
571.0
589.0
607.0
634.0
667.0
696.0
725.0
748.0
764.0
780.0
791.0
795.0
800.0
804.0
807.0
811.0
818.0
818.0
825.0
825.0
823.0
824.0
825.0
827.0
828.0
822.0
819.0
818.0
821.0
823.0
824.0
818.0
816.0
809.0
808.0
806.0
807.0
807.0
807.0
807.0
806.0
809.0
808.0
804.0
799.0
794.0
788.0
788.0
787.0
779.0
784.0
778.0
777.0
776.0
776.0
779.0
778.0
776.0
773.0
770.0
769.0
771.0
771.0
774.0
774.0
773.0
776.0
778.0
779.0
782.0
784.0
783.0
794.0
792.0
799.0
802.0
804.0
809.0
812.0
813.0
818.0
823.0
828.0
831.0
835.0
836.0
837.0
842.0
847.0
851.0
852.0
851.0
845.0
848.0
853.0
858.0
858.0
860.0
862.0
864.0
861.0
864.0
861.0
865.0
862.0
862.0
856.0
862.0
862.0
866.0
864.0
866.0
868.0
859.0
855.0
856.0
860.0
861.0
861.0
862.0
857.0
861.0
861.0
865.0
865.0
862.0
856.0
855.0
854.0
853.0
856.0
856.0
856.0
858.0
856.0
858.0
856.0
857.0
858.0
852.0
851.0
852.0
853.0
853.0
853.0
855.0
857.0
856.0
857.0
861.0
864.0
865.0
863.0
865.0
865.0
860.0
856.0
856.0
859.0
864.0
865.0
864.0
863.0
864.0
865.0
865.0
864.0
862.0
869.0
865.0
866.0
864.0
866.0
869.0
866.0
869.0
866.0
860.0
859.0
859.0
863.0
866.0
870.0
871.0
868.0
869.0
871.0
870.0
867.0
870.0
872.0
873.0
876.0
879.0
877.0
883.0
884.0
882.0
884.0
888.0
889.0
891.0
894.0
891.0
898.0
902.0
906.0
911.0
920.0
927.0
933.0
934.0
925.0
919.0
913.0
906.0
903.0
901.0
904.0
910.0
914.0
917.0
922.0
928.0
919.0
920.0
917.0
914.0
906.0
902.0
895.0
887.0
878.0
873.0
868.0
867.0
868.0
866.0
866.0
866.0
868.0
865.0
861.0
853.0
851.0
854.0
855.0
858.0
860.0
858.0
857.0
856.0
857.0
857.0
859.0
860.0
860.0
861.0
859.0
859.0
856.0
857.0
858.0
858.0
863.0
864.0
865.0
866.0
862.0
859.0
854.0
851.0
850.0
854.0
868.0
892.0
925.0
965.0
1000.0
1026.0
1038.0
1038.0
1038.0
1050.0
1078.0
1120.0
1159.0
1183.0
1172.0
1118.0
1025.0
917.0
815.0
729.0
673.0
642.0
626.0
615.0
608.0
600.0
593.0
586.0
581.0
579.0
580.0
578.0
579.0
585.0
588.0
593.0
608.0
628.0
655.0
689.0
721.0
751.0
775.0
795.0
808.0
817.0
823.0
829.0
834.0
835.0
842.0
842.0
848.0
849.0
852.0
855.0
855.0
855.0
855.0
853.0
850.0
845.0
844.0
843.0
849.0
851.0
853.0
856.0
855.0
853.0
848.0
839.0
839.0
838.0
837.0
836.0
832.0
833.0
833.0
831.0
829.0
821.0
816.0
811.0
812.0
810.0
811.0
808.0
810.0
807.0
809.0
806.0
805.0
804.0
800.0
797.0
796.0
794.0
797.0
799.0
807.0
810.0
810.0
809.0
810.0
812.0
814.0
815.0
816.0
818.0
822.0
829.0
834.0
839.0
843.0
847.0
848.0
852.0
854.0
855.0
857.0
862.0
866.0
869.0
873.0
877.0
882.0
885.0
884.0
881.0
882.0
880.0
881.0
883.0
886.0
892.0
893.0
893.0
892.0
891.0
891.0
888.0
883.0
886.0
887.0
889.0
890.0
888.0
892.0
891.0
887.0
888.0
883.0
881.0
878.0
878.0
880.0
880.0
882.0
883.0
885.0
882.0
876.0
873.0
874.0
874.0
873.0
872.0
875.0
873.0
873.0
875.0
874.0
875.0
875.0
874.0
875.0
874.0
875.0
874.0
874.0
873.0
876.0
879.0
881.0
880.0
877.0
873.0
873.0
874.0
875.0
874.0
872.0
876.0
878.0
879.0
881.0
880.0
879.0
879.0
879.0
880.0
877.0
873.0
871.0
873.0
879.0
882.0
883.0
884.0
885.0
886.0
883.0
886.0
884.0
879.0
875.0
873.0
879.0
881.0
887.0
891.0
893.0
892.0
893.0
891.0
893.0
895.0
895.0
894.0
898.0
900.0
907.0
912.0
914.0
917.0
918.0
921.0
929.0
934.0
941.0
937.0
934.0
928.0
926.0
920.0
919.0
918.0
918.0
919.0
920.0
923.0
926.0
934.0
934.0
931.0
927.0
922.0
913.0
907.0
900.0
894.0
890.0
887.0
886.0
883.0
884.0
876.0
875.0
872.0
871.0
875.0
870.0
867.0
865.0
866.0
866.0
865.0
869.0
869.0
869.0
868.0
869.0
869.0
867.0
862.0
863.0
862.0
864.0
865.0
868.0
867.0
866.0
870.0
870.0
869.0
870.0
867.0
864.0
860.0
858.0
854.0
855.0
861.0
874.0
901.0
933.0
966.0
997.0
1019.0
1029.0
1029.0
1029.0
1033.0
1055.0
1090.0
1134.0
1171.0
1190.0
1176.0
1121.0
1031.0
923.0
817.0
735.0
680.0
649.0
632.0
622.0
608.0
598.0
587.0
579.0
571.0
569.0
572.0
574.0
577.0
587.0
593.0
603.0
615.0
631.0
658.0
686.0
717.0
746.0
773.0
791.0
812.0
821.0
836.0
840.0
843.0
847.0
849.0
849.0
850.0
851.0
847.0
847.0
857.0
859.0
864.0
862.0
861.0
857.0
853.0
850.0
852.0
852.0
848.0
847.0
846.0
846.0
847.0
846.0
845.0
845.0
835.0
835.0
829.0
827.0
823.0
825.0
823.0
821.0
819.0
820.0
824.0
823.0
821.0
816.0
813.0
805.0
803.0
804.0
805.0
804.0
801.0
799.0
800.0
804.0
803.0
804.0
807.0
801.0
798.0
797.0
798.0
799.0
802.0
808.0
812.0
821.0
824.0
822.0
822.0
819.0
823.0
825.0
831.0
842.0
847.0
853.0
858.0
863.0
863.0
864.0
866.0
866.0
869.0
866.0
868.0
867.0
870.0
874.0
882.0
887.0
891.0
888.0
885.0
883.0
880.0
883.0
883.0
884.0
885.0
888.0
890.0
890.0
887.0
887.0
885.0
880.0
879.0
880.0
880.0
881.0
885.0
884.0
887.0
887.0
884.0
882.0
880.0
875.0
872.0
870.0
872.0
874.0
875.0
871.0
876.0
876.0
877.0
876.0
878.0
876.0
871.0
870.0
867.0
873.0
874.0
877.0
875.0
880.0
877.0
878.0
879.0
876.0
878.0
874.0
868.0
868.0
869.0
872.0
876.0
879.0
879.0
878.0
877.0
875.0
875.0
876.0
877.0
879.0
881.0
880.0
878.0
879.0
879.0
878.0
877.0
878.0
876.0
876.0
877.0
876.0
876.0
880.0
880.0
883.0
882.0
882.0
880.0
876.0
874.0
877.0
878.0
880.0
881.0
881.0
883.0
882.0
885.0
886.0
890.0
891.0
893.0
889.0
894.0
898.0
898.0
903.0
907.0
906.0
912.0
913.0
916.0
921.0
925.0
929.0
931.0
931.0
927.0
924.0
922.0
917.0
913.0
911.0
911.0
914.0
920.0
924.0
929.0
927.0
923.0
914.0
905.0
897.0
891.0
886.0
883.0
878.0
875.0
869.0
867.0
862.0
865.0
866.0
866.0
866.0
867.0
864.0
860.0
859.0
860.0
859.0
860.0
860.0
862.0
859.0
858.0
859.0
858.0
858.0
860.0
860.0
860.0
860.0
859.0
860.0
863.0
864.0
865.0
861.0
860.0
859.0
857.0
861.0
870.0
886.0
907.0
937.0
973.0
1005.0
1030.0
1039.0
1039.0
1034.0
1034.0
1057.0
1088.0
1123.0
1166.0
1178.0
1161.0
1104.0
1008.0
898.0
793.0
713.0
660.0
630.0
614.0
605.0
597.0
590.0
585.0
581.0
576.0
573.0
573.0
575.0
577.0
585.0
593.0
601.0
619.0
645.0
678.0
706.0
737.0
764.0
788.0
807.0
818.0
826.0
829.0
830.0
830.0
834.0
840.0
843.0
849.0
848.0
850.0
849.0
847.0
847.0
847.0
847.0
846.0
847.0
848.0
848.0
846.0
846.0
845.0
842.0
839.0
834.0
831.0
826.0
827.0
831.0
829.0
831.0
829.0
822.0
821.0
820.0
816.0
813.0
807.0
804.0
799.0
798.0
799.0
799.0
804.0
802.0
802.0
798.0
795.0
792.0
788.0
787.0
787.0
787.0
787.0
792.0
794.0
798.0
799.0
801.0
803.0
804.0
805.0
804.0
803.0
805.0
813.0
819.0
829.0
836.0
842.0
839.0
842.0
841.0
842.0
845.0
849.0
853.0
857.0
862.0
867.0
865.0
863.0
868.0
868.0
868.0
868.0
868.0
870.0
874.0
876.0
875.0
875.0
873.0
871.0
870.0
866.0
868.0
871.0
870.0
870.0
869.0
872.0
872.0
874.0
875.0
874.0
872.0
869.0
867.0
865.0
860.0
851.0
855.0
865.0
869.0
869.0
869.0
871.0
866.0
862.0
863.0
861.0
854.0
853.0
853.0
854.0
856.0
861.0
861.0
861.0
860.0
857.0
858.0
857.0
857.0
858.0
860.0
858.0
862.0
864.0
860.0
859.0
857.0
859.0
859.0
858.0
860.0
862.0
859.0
862.0
864.0
866.0
865.0
866.0
864.0
862.0
860.0
860.0
859.0
859.0
862.0
861.0
864.0
862.0
862.0
859.0
861.0
859.0
861.0
861.0
861.0
860.0
863.0
863.0
863.0
869.0
868.0
867.0
870.0
866.0
864.0
865.0
867.0
868.0
873.0
877.0
881.0
883.0
883.0
886.0
885.0
886.0
885.0
886.0
888.0
892.0
898.0
903.0
915.0
919.0
920.0
917.0
913.0
907.0
901.0
895.0
890.0
887.0
890.0
897.0
903.0
908.0
912.0
911.0
913.0
907.0
901.0
891.0
879.0
871.0
867.0
866.0
863.0
861.0
861.0
856.0
853.0
848.0
846.0
842.0
839.0
839.0
836.0
844.0
842.0
845.0
844.0
841.0
841.0
836.0
840.0
840.0
840.0
839.0
843.0
842.0
843.0
846.0
845.0
845.0
847.0
839.0
839.0
841.0
839.0
838.0
840.0
840.0
841.0
841.0
832.0
834.0
837.0
846.0
863.0
890.0
922.0
956.0
989.0
1011.0
1017.0
1016.0
1014.0
1030.0
1063.0
1106.0
1144.0
1165.0
1143.0
1068.0
961.0
841.0
733.0
666.0
622.0
601.0
592.0
579.0
571.0
566.0
559.0
555.0
557.0
557.0
560.0
563.0
571.0
580.0
591.0
612.0
639.0
673.0
704.0
736.0
766.0
787.0
805.0
815.0
817.0
820.0
819.0
821.0
824.0
825.0
828.0
831.0
832.0
835.0
835.0
838.0
839.0
839.0
837.0
836.0
833.0
832.0
833.0
830.0
830.0
832.0
831.0
834.0
831.0
827.0
825.0
820.0
818.0
813.0
811.0
810.0
809.0
811.0
809.0
806.0
804.0
804.0
800.0
795.0
792.0
787.0
783.0
784.0
787.0
787.0
788.0
788.0
788.0
783.0
784.0
782.0
780.0
781.0
778.0
779.0
783.0
782.0
786.0
790.0
794.0
795.0
795.0
801.0
803.0
800.0
805.0
812.0
818.0
823.0
829.0
835.0
839.0
840.0
840.0
844.0
846.0
850.0
849.0
851.0
854.0
861.0
861.0
863.0
868.0
868.0
870.0
870.0
866.0
870.0
865.0
869.0
866.0
871.0
873.0
873.0
877.0
872.0
871.0
867.0
865.0
868.0
868.0
867.0
868.0
871.0
872.0
872.0
874.0
870.0
867.0
860.0
861.0
859.0
856.0
857.0
864.0
859.0
863.0
865.0
863.0
861.0
861.0
860.0
857.0
857.0
856.0
857.0
858.0
862.0
865.0
866.0
863.0
864.0
862.0
860.0
858.0
854.0
857.0
859.0
862.0
864.0
865.0
864.0
866.0
867.0
866.0
865.0
864.0
864.0
860.0
861.0
863.0
866.0
866.0
868.0
866.0
865.0
868.0
866.0
865.0
867.0
863.0
866.0
866.0
872.0
869.0
872.0
870.0
871.0
871.0
871.0
868.0
866.0
864.0
869.0
867.0
870.0
868.0
871.0
877.0
878.0
877.0
876.0
878.0
877.0
878.0
877.0
879.0
886.0
890.0
893.0
897.0
898.0
898.0
899.0
896.0
898.0
901.0
905.0
911.0
919.0
926.0
931.0
928.0
922.0
915.0
913.0
907.0
904.0
901.0
902.0
908.0
919.0
927.0
929.0
931.0
928.0
918.0
907.0
902.0
894.0
891.0
887.0
880.0
879.0
878.0
879.0
875.0
874.0
871.0
868.0
866.0
866.0
863.0
864.0
866.0
866.0
867.0
870.0
871.0
869.0
864.0
863.0
861.0
863.0
863.0
864.0
864.0
866.0
865.0
868.0
866.0
868.0
867.0
866.0
865.0
866.0
864.0
861.0
861.0
862.0
858.0
861.0
865.0
882.0
902.0
932.0
970.0
1009.0
1038.0
1064.0
1073.0
1068.0
1062.0
1067.0
1081.0
1113.0
1149.0
1177.0
1179.0
1145.0
1067.0
957.0
842.0
739.0
670.0
630.0
616.0
606.0
599.0
590.0
581.0
576.0
570.0
569.0
568.0
572.0
574.0
582.0
588.0
595.0
605.0
617.0
638.0
663.0
699.0
736.0
768.0
795.0
815.0
823.0
836.0
835.0
838.0
841.0
841.0
843.0
843.0
843.0
847.0
850.0
855.0
857.0
854.0
851.0
850.0
849.0
848.0
845.0
843.0
844.0
847.0
844.0
848.0
847.0
846.0
844.0
841.0
837.0
835.0
829.0
827.0
825.0
825.0
