# Simple Text Format
# Sampling Rate (Hz):= 360.00
# Resolution:= 12
# Labels:= ECG
820.0
820.0
823.0
819.0
817.0
813.0
810.0
804.0
800.0
795.0
793.0
790.0
788.0
789.0
794.0
794.0
795.0
794.0
788.0
789.0
789.0
792.0
791.0
792.0
795.0
802.0
809.0
807.0
813.0
812.0
812.0
816.0
820.0
824.0
826.0
834.0
839.0
843.0
847.0
850.0
852.0
854.0
858.0
860.0
864.0
866.0
869.0
871.0
872.0
875.0
880.0
879.0
880.0
878.0
877.0
877.0
874.0
875.0
878.0
881.0
883.0
883.0
887.0
887.0
886.0
886.0
882.0
878.0
880.0
880.0
879.0
879.0
881.0
879.0
886.0
885.0
885.0
880.0
877.0
876.0
871.0
874.0
874.0
874.0
876.0
876.0
877.0
876.0
874.0
873.0
871.0
870.0
868.0
867.0
868.0
872.0
872.0
872.0
872.0
873.0
874.0
874.0
874.0
872.0
871.0
869.0
869.0
869.0
873.0
874.0
876.0
879.0
881.0
876.0
876.0
874.0
870.0
871.0
871.0
873.0
874.0
873.0
879.0
877.0
878.0
879.0
876.0
877.0
877.0
874.0
877.0
880.0
878.0
880.0
882.0
878.0
882.0
882.0
881.0
879.0
880.0
878.0
877.0
880.0
881.0
882.0
886.0
884.0
882.0
883.0
883.0
886.0
885.0
886.0
889.0
894.0
898.0
901.0
907.0
907.0
908.0
906.0
905.0
907.0
911.0
914.0
920.0
931.0
934.0
932.0
933.0
929.0
924.0
919.0
911.0
908.0
908.0
911.0
915.0
925.0
928.0
932.0
934.0
933.0
924.0
914.0
908.0
899.0
891.0
890.0
881.0
884.0
883.0
881.0
877.0
875.0
873.0
870.0
869.0
869.0
867.0
865.0
869.0
868.0
868.0
870.0
869.0
869.0
869.0
870.0
868.0
865.0
862.0
859.0
862.0
862.0
867.0
867.0
870.0
871.0
873.0
872.0
868.0
870.0
866.0
862.0
855.0
855.0
853.0
857.0
869.0
891.0
922.0
960.0
995.0
1022.0
1033.0
1032.0
1027.0
1030.0
1049.0
1090.0
1132.0
1174.0
1198.0
1188.0
1132.0
1043.0
933.0
831.0
747.0
692.0
668.0
652.0
638.0
632.0
616.0
602.0
594.0
588.0
585.0
584.0
585.0
591.0
595.0
601.0
609.0
621.0
637.0
658.0
688.0
718.0
748.0
775.0
792.0
814.0
825.0
832.0
836.0
839.0
842.0
842.0
843.0
847.0
847.0
845.0
850.0
850.0
853.0
856.0
856.0
853.0
857.0
855.0
855.0
851.0
848.0
848.0
847.0
843.0
845.0
845.0
841.0
841.0
840.0
835.0
833.0
827.0
823.0
820.0
818.0
817.0
817.0
817.0
815.0
813.0
810.0
806.0
805.0
805.0
802.0
797.0
795.0
797.0
796.0
797.0
798.0
798.0
799.0
796.0
794.0
790.0
788.0
793.0
795.0
797.0
803.0
806.0
810.0
815.0
817.0
816.0
819.0
820.0
825.0
828.0
832.0
838.0
844.0
849.0
854.0
860.0
860.0
864.0
861.0
867.0
868.0
866.0
868.0
873.0
875.0
876.0
882.0
886.0
882.0
880.0
880.0
878.0
878.0
877.0
880.0
876.0
883.0
883.0
883.0
885.0
885.0
883.0
884.0
882.0
879.0
877.0
875.0
880.0
878.0
881.0
883.0
881.0
878.0
876.0
875.0
870.0
869.0
865.0
865.0
868.0
868.0
870.0
875.0
873.0
872.0
872.0
870.0
869.0
864.0
865.0
864.0
862.0
864.0
868.0
870.0
873.0
871.0
873.0
873.0
870.0
872.0
867.0
869.0
874.0
871.0
873.0
874.0
878.0
876.0
873.0
876.0
874.0
870.0
869.0
870.0
875.0
876.0
879.0
881.0
879.0
880.0
879.0
874.0
871.0
872.0
866.0
869.0
871.0
872.0
875.0
880.0
879.0
883.0
879.0
875.0
870.0
873.0
870.0
873.0
878.0
881.0
885.0
889.0
894.0
894.0
896.0
895.0
897.0
899.0
898.0
901.0
900.0
904.0
915.0
921.0
926.0
932.0
928.0
928.0
923.0
916.0
910.0
907.0
902.0
903.0
902.0
902.0
906.0
912.0
917.0
922.0
921.0
918.0
912.0
901.0
896.0
889.0
886.0
880.0
878.0
874.0
870.0
867.0
863.0
858.0
855.0
856.0
855.0
858.0
859.0
863.0
865.0
865.0
861.0
859.0
856.0
856.0
854.0
853.0
852.0
852.0
854.0
857.0
856.0
856.0
860.0
852.0
849.0
848.0
848.0
851.0
855.0
856.0
858.0
859.0
855.0
851.0
852.0
852.0
863.0
877.0
905.0
939.0
971.0
997.0
1017.0
1017.0
1014.0
1012.0
1018.0
1042.0
1078.0
1125.0
1158.0
1166.0
1142.0
1075.0
977.0
871.0
775.0
704.0
661.0
638.0
623.0
613.0
600.0
589.0
578.0
571.0
568.0
571.0
579.0
583.0
581.0
583.0
591.0
596.0
609.0
634.0
664.0
699.0
736.0
764.0
790.0
807.0
817.0
823.0
823.0
826.0
827.0
831.0
836.0
839.0
845.0
849.0
847.0
847.0
847.0
843.0
845.0
844.0
845.0
845.0
842.0
840.0
841.0
842.0
842.0
840.0
840.0
835.0
829.0
830.0
824.0
823.0
820.0
819.0
820.0
815.0
814.0
812.0
810.0
805.0
804.0
800.0
799.0
796.0
798.0
799.0
800.0
799.0
799.0
794.0
791.0
792.0
791.0
784.0
785.0
783.0
785.0
792.0
793.0
797.0
799.0
802.0
804.0
807.0
806.0
812.0
812.0
815.0
817.0
829.0
834.0
836.0
845.0
847.0
846.0
851.0
851.0
855.0
855.0
856.0
858.0
859.0
863.0
867.0
867.0
871.0
872.0
871.0
871.0
872.0
869.0
868.0
871.0
872.0
874.0
876.0
880.0
880.0
880.0
873.0
875.0
871.0
871.0
871.0
871.0
873.0
876.0
879.0
874.0
875.0
872.0
872.0
869.0
869.0
868.0
866.0
867.0
869.0
869.0
868.0
867.0
866.0
865.0
865.0
862.0
860.0
859.0
860.0
861.0
862.0
865.0
864.0
865.0
865.0
866.0
867.0
865.0
863.0
861.0
862.0
863.0
863.0
862.0
863.0
865.0
867.0
867.0
865.0
863.0
861.0
861.0
863.0
865.0
867.0
868.0
870.0
871.0
873.0
872.0
868.0
868.0
865.0
862.0
863.0
867.0
868.0
871.0
870.0
872.0
869.0
871.0
869.0
867.0
866.0
866.0
867.0
866.0
868.0
872.0
873.0
873.0
874.0
873.0
871.0
873.0
874.0
872.0
876.0
877.0
881.0
879.0
887.0
890.0
892.0
892.0
893.0
895.0
895.0
897.0
903.0
911.0
917.0
920.0
921.0
917.0
912.0
908.0
899.0
896.0
895.0
895.0
900.0
908.0
913.0
913.0
920.0
917.0
909.0
900.0
889.0
883.0
873.0
874.0
867.0
866.0
865.0
864.0
862.0
863.0
861.0
857.0
856.0
851.0
849.0
848.0
847.0
849.0
852.0
852.0
855.0
856.0
853.0
852.0
852.0
848.0
845.0
846.0
846.0
848.0
850.0
848.0
852.0
855.0
852.0
850.0
850.0
847.0
844.0
841.0
838.0
835.0
839.0
848.0
868.0
893.0
923.0
960.0
995.0
1019.0
1030.0
1029.0
1022.0
1021.0
1035.0
1064.0
1106.0
1144.0
1162.0
1156.0
1100.0
1007.0
895.0
788.0
703.0
650.0
623.0
608.0
600.0
594.0
587.0
578.0
572.0
566.0
564.0
566.0
568.0
574.0
580.0
593.0
608.0
627.0
661.0
693.0
729.0
759.0
783.0
799.0
809.0
814.0
816.0
821.0
823.0
825.0
830.0
831.0
833.0
829.0
831.0
827.0
830.0
830.0
833.0
831.0
834.0
833.0
832.0
832.0
825.0
821.0
819.0
818.0
815.0
818.0
820.0
816.0
816.0
816.0
813.0
811.0
807.0
805.0
800.0
796.0
797.0
792.0
792.0
791.0
792.0
791.0
788.0
785.0
786.0
780.0
779.0
777.0
774.0
774.0
774.0
777.0
780.0
781.0
783.0
784.0
783.0
781.0
782.0
785.0
788.0
793.0
799.0
805.0
808.0
816.0
819.0
825.0
827.0
827.0
832.0
834.0
838.0
842.0
846.0
849.0
851.0
854.0
860.0
857.0
859.0
862.0
860.0
859.0
865.0
864.0
868.0
869.0
872.0
872.0
873.0
873.0
868.0
864.0
864.0
865.0
865.0
865.0
869.0
869.0
873.0
870.0
869.0
866.0
867.0
863.0
860.0
857.0
860.0
860.0
863.0
863.0
864.0
866.0
867.0
863.0
861.0
858.0
857.0
855.0
854.0
854.0
855.0
857.0
859.0
860.0
858.0
862.0
860.0
859.0
858.0
859.0
859.0
857.0
857.0
859.0
863.0
863.0
864.0
861.0
860.0
858.0
858.0
859.0
857.0
855.0
857.0
859.0
863.0
867.0
867.0
867.0
865.0
864.0
862.0
862.0
862.0
864.0
865.0
866.0
871.0
872.0
871.0
871.0
871.0
867.0
864.0
864.0
863.0
865.0
864.0
865.0
868.0
869.0
869.0
871.0
870.0
866.0
873.0
875.0
877.0
883.0
884.0
889.0
889.0
896.0
896.0
897.0
895.0
893.0
896.0
903.0
909.0
915.0
920.0
922.0
924.0
922.0
918.0
909.0
901.0
896.0
893.0
892.0
895.0
905.0
912.0
919.0
924.0
924.0
917.0
910.0
900.0
891.0
882.0
876.0
871.0
868.0
865.0
865.0
866.0
864.0
861.0
859.0
855.0
853.0
850.0
850.0
851.0
852.0
854.0
854.0
855.0
856.0
855.0
854.0
851.0
850.0
849.0
848.0
848.0
847.0
849.0
850.0
854.0
855.0
854.0
851.0
848.0
850.0
846.0
849.0
843.0
843.0
842.0
843.0
843.0
851.0
862.0
885.0
911.0
939.0
970.0
995.0
1008.0
1009.0
1006.0
1008.0
1023.0
1056.0
1102.0
1146.0
1170.0
1166.0
1115.0
1021.0
904.0
792.0
705.0
651.0
623.0
608.0
599.0
591.0
582.0
572.0
565.0
558.0
559.0
560.0
563.0
568.0
572.0
583.0
595.0
615.0
639.0
670.0
705.0
740.0
769.0
791.0
809.0
817.0
823.0
827.0
828.0
833.0
834.0
836.0
836.0
834.0
836.0
837.0
838.0
842.0
842.0
847.0
846.0
843.0
843.0
841.0
839.0
834.0
829.0
831.0
833.0
833.0
834.0
833.0
829.0
827.0
822.0
821.0
815.0
809.0
807.0
804.0
803.0
802.0
801.0
801.0
801.0
799.0
797.0
796.0
789.0
789.0
783.0
783.0
786.0
786.0
787.0
786.0
787.0
787.0
783.0
783.0
778.0
781.0
783.0
783.0
786.0
792.0
795.0
795.0
801.0
800.0
803.0
805.0
808.0
815.0
822.0
827.0
833.0
840.0
843.0
848.0
846.0
849.0
850.0
847.0
853.0
854.0
856.0
856.0
854.0
861.0
865.0
869.0
869.0
869.0
869.0
866.0
863.0
863.0
866.0
865.0
865.0
870.0
868.0
869.0
872.0
872.0
868.0
867.0
863.0
864.0
863.0
864.0
864.0
862.0
866.0
867.0
866.0
864.0
862.0
860.0
857.0
855.0
855.0
855.0
857.0
858.0
857.0
857.0
858.0
858.0
856.0
854.0
853.0
853.0
850.0
851.0
854.0
858.0
859.0
858.0
854.0
855.0
859.0
856.0
852.0
854.0
853.0
857.0
856.0
860.0
855.0
859.0
857.0
857.0
856.0
860.0
859.0
855.0
852.0
856.0
859.0
858.0
862.0
862.0
864.0
863.0
860.0
859.0
857.0
854.0
855.0
855.0
859.0
861.0
858.0
861.0
859.0
863.0
857.0
859.0
861.0
861.0
858.0
858.0
860.0
868.0
870.0
875.0
876.0
878.0
880.0
880.0
880.0
876.0
880.0
880.0
886.0
893.0
899.0
910.0
912.0
911.0
909.0
903.0
899.0
892.0
888.0
884.0
883.0
885.0
890.0
896.0
900.0
906.0
906.0
903.0
895.0
884.0
872.0
865.0
860.0
858.0
855.0
855.0
851.0
849.0
846.0
841.0
839.0
837.0
837.0
841.0
839.0
843.0
841.0
843.0
842.0
839.0
839.0
840.0
836.0
828.0
831.0
833.0
834.0
835.0
835.0
839.0
839.0
837.0
836.0
835.0
835.0
834.0
833.0
832.0
832.0
832.0
833.0
834.0
830.0
831.0
836.0
855.0
883.0
913.0
947.0
976.0
994.0
998.0
993.0
999.0
1019.0
1054.0
1096.0
1139.0
1159.0
1146.0
1094.0
1001.0
892.0
783.0
697.0
645.0
612.0
593.0
583.0
573.0
563.0
556.0
548.0
545.0
549.0
553.0
557.0
562.0
569.0
576.0
589.0
609.0
635.0
669.0
705.0
738.0
767.0
788.0
802.0
811.0
812.0
812.0
814.0
814.0
816.0
816.0
813.0
818.0
820.0
826.0
829.0
829.0
829.0
825.0
824.0
823.0
819.0
821.0
819.0
816.0
820.0
820.0
818.0
819.0
819.0
817.0
813.0
810.0
809.0
807.0
801.0
798.0
793.0
792.0
790.0
790.0
787.0
787.0
784.0
781.0
778.0
775.0
773.0
772.0
772.0
773.0
769.0
771.0
771.0
767.0
766.0
764.0
762.0
765.0
763.0
765.0
767.0
770.0
774.0
778.0
777.0
780.0
780.0
786.0
784.0
791.0
794.0
800.0
803.0
811.0
817.0
821.0
824.0
825.0
829.0
826.0
828.0
829.0
830.0
829.0
834.0
836.0
840.0
844.0
846.0
846.0
847.0
846.0
843.0
845.0
841.0
841.0
844.0
842.0
842.0
852.0
850.0
849.0
847.0
845.0
843.0
843.0
839.0
841.0
841.0
843.0
846.0
849.0
849.0
848.0
843.0
838.0
836.0
835.0
834.0
834.0
838.0
836.0
839.0
840.0
838.0
837.0
838.0
834.0
833.0
833.0
831.0
833.0
833.0
837.0
837.0
837.0
837.0
838.0
836.0
834.0
833.0
832.0
832.0
832.0
836.0
836.0
838.0
844.0
841.0
842.0
837.0
837.0
834.0
833.0
834.0
837.0
838.0
838.0
841.0
842.0
839.0
840.0
841.0
841.0
840.0
840.0
836.0
837.0
841.0
840.0
842.0
844.0
846.0
841.0
842.0
841.0
837.0
838.0
840.0
838.0
840.0
842.0
845.0
848.0
850.0
853.0
852.0
852.0
856.0
856.0
854.0
857.0
859.0
860.0
865.0
870.0
876.0
878.0
885.0
889.0
892.0
892.0
888.0
881.0
879.0
875.0
872.0
871.0
871.0
875.0
882.0
887.0
891.0
886.0
880.0
870.0
864.0
856.0
851.0
846.0
845.0
842.0
838.0
836.0
829.0
826.0
821.0
820.0
819.0
824.0
824.0
826.0
823.0
822.0
827.0
823.0
819.0
817.0
815.0
815.0
815.0
818.0
820.0
822.0
821.0
820.0
822.0
818.0
816.0
816.0
814.0
813.0
815.0
815.0
819.0
820.0
816.0
816.0
814.0
808.0
813.0
826.0
847.0
881.0
920.0
953.0
981.0
998.0
998.0
987.0
989.0
1003.0
1034.0
1074.0
1112.0
1126.0
1103.0
1025.0
914.0
794.0
684.0
608.0
564.0
543.0
533.0
532.0
528.0
531.0
533.0
533.0
535.0
535.0
539.0
544.0
555.0
568.0
592.0
619.0
651.0
686.0
717.0
744.0
762.0
777.0
784.0
788.0
788.0
790.0
790.0
792.0
794.0
795.0
798.0
802.0
804.0
807.0
807.0
807.0
803.0
800.0
799.0
797.0
798.0
793.0
793.0
794.0
795.0
794.0
791.0
789.0
786.0
782.0
779.0
775.0
770.0
768.0
763.0
762.0
764.0
765.0
761.0
757.0
755.0
753.0
752.0
750.0
746.0
744.0
745.0
745.0
746.0
744.0
745.0
741.0
741.0
740.0
738.0
736.0
738.0
742.0
745.0
749.0
753.0
754.0
757.0
762.0
766.0
767.0
767.0
772.0
777.0
783.0
787.0
795.0
800.0
803.0
807.0
807.0
811.0
811.0
807.0
809.0
812.0
812.0
815.0
819.0
822.0
826.0
825.0
824.0
823.0
820.0
819.0
822.0
819.0
820.0
821.0
823.0
828.0
828.0
827.0
826.0
825.0
824.0
819.0
820.0
816.0
813.0
813.0
814.0
816.0
818.0
819.0
819.0
818.0
817.0
815.0
814.0
810.0
812.0
812.0
814.0
811.0
814.0
812.0
814.0
811.0
811.0
811.0
808.0
807.0
806.0
808.0
811.0
813.0
813.0
812.0
811.0
812.0
812.0
812.0
808.0
807.0
806.0
810.0
812.0
813.0
817.0
817.0
815.0
815.0
813.0
812.0
810.0
810.0
809.0
812.0
815.0
815.0
817.0
815.0
814.0
811.0
808.0
810.0
812.0
811.0
808.0
814.0
816.0
816.0
819.0
816.0
816.0
815.0
818.0
816.0
816.0
819.0
824.0
827.0
832.0
836.0
841.0
841.0
839.0
840.0
840.0
839.0
843.0
848.0
858.0
865.0
874.0
874.0
873.0
867.0
860.0
854.0
846.0
842.0
836.0
839.0
845.0
855.0
864.0
870.0
870.0
867.0
857.0
845.0
833.0
823.0
821.0
812.0
810.0
809.0
813.0
811.0
809.0
806.0
805.0
803.0
796.0
797.0
799.0
799.0
801.0
798.0
800.0
799.0
803.0
799.0
797.0
799.0
798.0
796.0
799.0
798.0
797.0
798.0
801.0
803.0
805.0
804.0
801.0
804.0
797.0
796.0
797.0
791.0
791.0
790.0
790.0
796.0
808.0
827.0
851.0
884.0
909.0
937.0
956.0
961.0
958.0
962.0
974.0
1006.0
1056.0
1099.0
1120.0
1105.0
1041.0
937.0
813.0
703.0
615.0
568.0
546.0
535.0
534.0
531.0
525.0
520.0
517.0
516.0
516.0
517.0
519.0
523.0
531.0
540.0
555.0
569.0
593.0
621.0
651.0
682.0
708.0
727.0
744.0
760.0
768.0
776.0
780.0
780.0
781.0
783.0
784.0
788.0
785.0
789.0
790.0
789.0
795.0
798.0
799.0
799.0
798.0
794.0
794.0
790.0
788.0
785.0
785.0
782.0
783.0
782.0
784.0
779.0
778.0
781.0
776.0
775.0
770.0
763.0
761.0
762.0
762.0
762.0
760.0
760.0
757.0
755.0
750.0
748.0
746.0
743.0
744.0
743.0
743.0
744.0
745.0
742.0
741.0
742.0
740.0
739.0
738.0
736.0
738.0
740.0
748.0
749.0
749.0
754.0
758.0
761.0
763.0
764.0
767.0
771.0
773.0
779.0
788.0
788.0
793.0
799.0
803.0
811.0
807.0
809.0
811.0
811.0
809.0
809.0
814.0
819.0
821.0
825.0
828.0
829.0
824.0
826.0
825.0
823.0
826.0
829.0
827.0
829.0
829.0
829.0
830.0
828.0
828.0
826.0
824.0
825.0
825.0
828.0
828.0
826.0
828.0
828.0
827.0
823.0
821.0
821.0
815.0
815.0
814.0
816.0
818.0
816.0
819.0
816.0
817.0
816.0
814.0
812.0
811.0
810.0
809.0
808.0
814.0
817.0
816.0
816.0
815.0
817.0
814.0
809.0
808.0
810.0
810.0
810.0
812.0
815.0
816.0
817.0
815.0
815.0
810.0
812.0
806.0
810.0
809.0
809.0
815.0
816.0
818.0
819.0
816.0
814.0
813.0
811.0
811.0
811.0
811.0
816.0
816.0
816.0
817.0
816.0
820.0
817.0
815.0
811.0
811.0
811.0
813.0
816.0
818.0
821.0
823.0
828.0
830.0
831.0
832.0
831.0
831.0
832.0
833.0
833.0
836.0
841.0
847.0
853.0
860.0
864.0
864.0
862.0
856.0
849.0
841.0
839.0
834.0
837.0
840.0
846.0
851.0
857.0
860.0
857.0
853.0
842.0
836.0
830.0
825.0
820.0
817.0
812.0
812.0
809.0
804.0
803.0
797.0
793.0
793.0
796.0
796.0
796.0
796.0
796.0
793.0
795.0
791.0
787.0
787.0
788.0
786.0
790.0
792.0
795.0
795.0
797.0
796.0
796.0
792.0
791.0
794.0
790.0
791.0
792.0
796.0
796.0
799.0
796.0
794.0
791.0
792.0
797.0
814.0
839.0
876.0
913.0
949.0
967.0
977.0
974.0
974.0
987.0
1015.0
1052.0
1088.0
1104.0
1081.0
1018.0
918.0
809.0
710.0
642.0
598.0
577.0
566.0
556.0
546.0
537.0
531.0
524.0
524.0
530.0
532.0
531.0
533.0
536.0
545.0
553.0
564.0
587.0
617.0
647.0
680.0
709.0
732.0
749.0
762.0
767.0
769.0
771.0
770.0
773.0
777.0
781.0
784.0
786.0
787.0
789.0
792.0
789.0
792.0
789.0
787.0
785.0
783.0
784.0
783.0
786.0
784.0
785.0
783.0
782.0
775.0
769.0
762.0
761.0
758.0
758.0
763.0
758.0
759.0
757.0
756.0
753.0
749.0
745.0
743.0
740.0
741.0
739.0
738.0
737.0
737.0
738.0
735.0
735.0
732.0
731.0
729.0
729.0
730.0
734.0
735.0
735.0
739.0
744.0
746.0
749.0
750.0
752.0
753.0
756.0
763.0
766.0
770.0
777.0
780.0
788.0
791.0
792.0
793.0
794.0
795.0
799.0
798.0
800.0
805.0
805.0
809.0
812.0
813.0
816.0
817.0
813.0
817.0
815.0
814.0
817.0
819.0
818.0
820.0
821.0
821.0
822.0
819.0
818.0
817.0
816.0
816.0
815.0
820.0
819.0
820.0
822.0
818.0
819.0
818.0
814.0
810.0
810.0
807.0
808.0
809.0
811.0
812.0
814.0
816.0
813.0
811.0
808.0
807.0
807.0
806.0
809.0
805.0
809.0
810.0
811.0
809.0
808.0
808.0
811.0
809.0
809.0
810.0
809.0
810.0
811.0
815.0
814.0
816.0
815.0
813.0
811.0
810.0
808.0
813.0
810.0
813.0
815.0
816.0
816.0
820.0
817.0
816.0
815.0
814.0
815.0
816.0
818.0
818.0
819.0
820.0
822.0
823.0
822.0
819.0
819.0
815.0
814.0
819.0
822.0
827.0
830.0
833.0
839.0
841.0
843.0
843.0
845.0
846.0
846.0
848.0
853.0
858.0
863.0
872.0
879.0
882.0
881.0
878.0
872.0
865.0
857.0
851.0
850.0
855.0
860.0
870.0
878.0
881.0
882.0
875.0
865.0
852.0
847.0
842.0
837.0
833.0
833.0
833.0
830.0
827.0
828.0
817.0
818.0
818.0
816.0
815.0
816.0
819.0
816.0
818.0
824.0
823.0
822.0
816.0
815.0
813.0
814.0
813.0
816.0
817.0
816.0
822.0
821.0
822.0
822.0
822.0
822.0
820.0
815.0
814.0
810.0
814.0
821.0
831.0
851.0
878.0
914.0
949.0
975.0
986.0
986.0
982.0
989.0
1016.0
1054.0
1100.0
1134.0
1142.0
1110.0
1035.0
925.0
811.0
712.0
641.0
603.0
585.0
576.0
570.0
565.0
557.0
549.0
546.0
546.0
545.0
543.0
546.0
555.0
561.0
569.0
584.0
603.0
621.0
651.0
683.0
711.0
738.0
762.0
776.0
788.0
796.0
799.0
804.0
808.0
813.0
812.0
817.0
816.0
818.0
817.0
817.0
818.0
817.0
817.0
819.0
822.0
822.0
824.0
821.0
818.0
815.0
812.0
810.0
808.0
811.0
808.0
807.0
806.0
802.0
801.0
795.0
795.0
792.0
787.0
785.0
784.0
782.0
781.0
783.0
780.0
780.0
775.0
773.0
771.0
769.0
767.0
766.0
764.0
766.0
767.0
771.0
772.0
772.0
770.0
771.0
770.0
770.0
770.0
774.0
776.0
780.0
786.0
790.0
795.0
798.0
800.0
800.0
803.0
807.0
808.0
812.0
816.0
818.0
825.0
827.0
831.0
835.0
837.0
840.0
839.0
839.0
840.0
842.0
843.0
845.0
848.0
850.0
848.0
848.0
851.0
850.0
847.0
849.0
847.0
843.0
847.0
848.0
849.0
850.0
850.0
850.0
850.0
849.0
848.0
845.0
844.0
844.0
845.0
845.0
846.0
849.0
848.0
848.0
846.0
845.0
843.0
840.0
837.0
840.0
838.0
837.0
840.0
841.0
844.0
842.0
842.0
841.0
840.0
839.0
839.0
838.0
838.0
840.0
843.0
844.0
847.0
845.0
844.0
843.0
843.0
842.0
840.0
839.0
842.0
843.0
842.0
844.0
846.0
845.0
843.0
843.0
842.0
840.0
842.0
840.0
842.0
843.0
844.0
846.0
849.0
847.0
849.0
848.0
847.0
845.0
844.0
843.0
845.0
845.0
846.0
848.0
848.0
850.0
851.0
848.0
845.0
845.0
849.0
850.0
852.0
857.0
862.0
865.0
871.0
877.0
877.0
879.0
877.0
883.0
883.0
884.0
892.0
899.0
907.0
914.0
911.0
907.0
906.0
896.0
893.0
887.0
882.0
885.0
887.0
896.0
903.0
908.0
911.0
915.0
907.0
900.0
890.0
878.0
868.0
869.0
867.0
867.0
864.0
861.0
862.0
859.0
855.0
849.0
849.0
847.0
845.0
846.0
845.0
847.0
850.0
851.0
853.0
850.0
849.0
848.0
849.0
849.0
848.0
846.0
845.0
846.0
848.0
853.0
851.0
852.0
849.0
850.0
851.0
848.0
850.0
848.0
845.0
843.0
845.0
846.0
856.0
870.0
895.0
926.0
957.0
984.0
1005.0
1013.0
1009.0
1008.0
1014.0
1035.0
1072.0
1117.0
1155.0
1172.0
1155.0
1096.0
998.0
884.0
779.0
701.0
649.0
631.0
619.0
611.0
601.0
593.0
581.0
576.0
574.0
577.0
579.0
586.0
589.0
594.0
604.0
613.0
629.0
645.0
673.0
702.0
734.0
765.0
788.0
810.0
823.0
831.0
837.0
837.0
839.0
840.0
845.0
844.0
848.0
848.0
846.0
851.0
853.0
859.0
857.0
856.0
856.0
853.0
852.0
849.0
849.0
847.0
848.0
849.0
850.0
845.0
845.0
846.0
842.0
838.0
834.0
830.0
826.0
825.0
824.0
823.0
824.0
824.0
821.0
819.0
816.0
813.0
809.0
807.0
806.0
802.0
804.0
804.0
805.0
807.0
806.0
803.0
805.0
805.0
801.0
802.0
801.0
801.0
800.0
801.0
804.0
807.0
813.0
814.0
814.0
816.0
817.0
819.0
821.0
825.0
830.0
836.0
841.0
848.0
853.0
852.0
860.0
860.0
861.0
862.0
863.0
863.0
867.0
871.0
875.0
878.0
881.0
882.0
880.0
880.0
880.0
882.0
882.0
881.0
881.0
885.0
884.0
886.0
886.0
892.0
891.0
890.0
887.0
887.0
884.0
884.0
883.0
885.0
888.0
888.0
889.0
886.0
884.0
882.0
882.0
879.0
880.0
881.0
880.0
880.0
881.0
882.0
880.0
877.0
877.0
872.0
874.0
876.0
877.0
873.0
874.0
876.0
875.0
878.0
878.0
879.0
879.0
876.0
876.0
874.0
876.0
877.0
877.0
878.0
877.0
877.0
878.0
878.0
881.0
880.0
881.0
879.0
877.0
877.0
876.0
877.0
879.0
880.0
881.0
882.0
881.0
881.0
881.0
878.0
878.0
879.0
878.0
883.0
884.0
884.0
882.0
885.0
884.0
881.0
880.0
882.0
879.0
878.0
881.0
879.0
881.0
886.0
889.0
894.0
894.0
895.0
894.0
894.0
894.0
894.0
895.0
902.0
904.0
907.0
910.0
913.0
914.0
919.0
920.0
926.0
928.0
929.0
934.0
930.0
927.0
922.0
918.0
911.0
913.0
909.0
913.0
914.0
920.0
925.0
930.0
930.0
926.0
922.0
915.0
907.0
899.0
891.0
887.0
881.0
880.0
875.0
871.0
870.0
869.0
868.0
868.0
868.0
869.0
867.0
865.0
864.0
861.0
861.0
858.0
860.0
862.0
862.0
863.0
862.0
863.0
863.0
863.0
860.0
862.0
858.0
860.0
861.0
860.0
862.0
866.0
867.0
871.0
863.0
862.0
856.0
852.0
853.0
853.0
858.0
875.0
899.0
929.0
962.0
992.0
1018.0
1036.0
1036.0
1029.0
1027.0
1038.0
1065.0
1106.0
1146.0
1171.0
1169.0
1124.0
1039.0
923.0
813.0
720.0
655.0
623.0
610.0
605.0
602.0
598.0
586.0
579.0
572.0
574.0
573.0
575.0
576.0
578.0
588.0
592.0
607.0
626.0
650.0
677.0
707.0
741.0
768.0
788.0
806.0
817.0
824.0
829.0
834.0
838.0
844.0
847.0
846.0
846.0
845.0
843.0
844.0
842.0
845.0
845.0
848.0
849.0
848.0
844.0
842.0
838.0
836.0
836.0
833.0
835.0
833.0
835.0
836.0
838.0
831.0
828.0
825.0
820.0
811.0
808.0
805.0
807.0
807.0
804.0
804.0
810.0
805.0
802.0
799.0
791.0
793.0
791.0
788.0
792.0
793.0
794.0
798.0
795.0
794.0
794.0
795.0
795.0
790.0
791.0
797.0
799.0
803.0
808.0
813.0
819.0
821.0
824.0
826.0
828.0
830.0
836.0
840.0
843.0
849.0
856.0
858.0
858.0
860.0
863.0
866.0
864.0
867.0
869.0
870.0
869.0
870.0
876.0
880.0
881.0
879.0
878.0
871.0
873.0
873.0
876.0
876.0
878.0
877.0
880.0
883.0
880.0
883.0
878.0
877.0
878.0
871.0
874.0
873.0
875.0
874.0
875.0
871.0
876.0
875.0
874.0
872.0
871.0
871.0
868.0
868.0
870.0
871.0
869.0
869.0
871.0
869.0
868.0
867.0
868.0
866.0
865.0
867.0
867.0
867.0
869.0
870.0
872.0
871.0
870.0
869.0
866.0
863.0
866.0
863.0
867.0
871.0
872.0
877.0
876.0
874.0
873.0
873.0
871.0
870.0
868.0
866.0
869.0
870.0
872.0
875.0
871.0
873.0
871.0
871.0
874.0
871.0
870.0
870.0
870.0
872.0
874.0
877.0
878.0
877.0
877.0
880.0
878.0
878.0
879.0
881.0
886.0
887.0
891.0
895.0
900.0
901.0
902.0
899.0
898.0
900.0
905.0
911.0
917.0
921.0
925.0
929.0
927.0
920.0
914.0
907.0
901.0
900.0
903.0
906.0
913.0
920.0
924.0
925.0
921.0
913.0
898.0
891.0
879.0
877.0
875.0
871.0
869.0
865.0
865.0
864.0
865.0
865.0
864.0
863.0
860.0
857.0
854.0
855.0
855.0
854.0
856.0
857.0
859.0
859.0
861.0
859.0
860.0
855.0
856.0
854.0
854.0
855.0
858.0
862.0
862.0
861.0
860.0
861.0
858.0
852.0
852.0
850.0
848.0
854.0
871.0
895.0
928.0
961.0
995.0
1019.0
1023.0
1016.0
1013.0
1015.0
1038.0
1076.0
1123.0
1161.0
1176.0
1151.0
1076.0
969.0
856.0
753.0
681.0
638.0
620.0
613.0
605.0
600.0
594.0
589.0
583.0
584.0
585.0
587.0
588.0
588.0
595.0
609.0
626.0
649.0
681.0
715.0
748.0
771.0
796.0
812.0
824.0
828.0
