# Simple Text Format
# Sampling Rate (Hz):= 360.00
# Resolution:= 12
# Labels:= ECG
888.0
888.0
890.0
886.0
886.0
883.0
881.0
879.0
879.0
878.0
880.0
878.0
877.0
880.0
877.0
878.0
875.0
874.0
869.0
869.0
866.0
866.0
868.0
868.0
869.0
868.0
868.0
865.0
864.0
861.0
859.0
856.0
855.0
855.0
854.0
855.0
857.0
853.0
852.0
852.0
852.0
849.0
847.0
845.0
844.0
844.0
843.0
847.0
847.0
848.0
848.0
846.0
847.0
848.0
847.0
845.0
847.0
850.0
853.0
856.0
859.0
861.0
863.0
864.0
866.0
866.0
867.0
869.0
872.0
876.0
880.0
885.0
890.0
894.0
896.0
897.0
899.0
899.0
898.0
899.0
900.0
902.0
902.0
903.0
903.0
905.0
906.0
904.0
900.0
898.0
895.0
891.0
888.0
886.0
885.0
883.0
884.0
880.0
877.0
876.0
874.0
871.0
867.0
863.0
863.0
863.0
862.0
862.0
863.0
864.0
863.0
860.0
856.0
858.0
857.0
857.0
856.0
854.0
855.0
859.0
859.0
860.0
860.0
859.0
859.0
857.0
859.0
858.0
858.0
860.0
861.0
861.0
864.0
864.0
864.0
865.0
863.0
864.0
862.0
860.0
860.0
861.0
861.0
863.0
867.0
866.0
866.0
866.0
864.0
863.0
861.0
861.0
861.0
860.0
862.0
864.0
864.0
866.0
866.0
864.0
865.0
865.0
863.0
861.0
859.0
862.0
862.0
864.0
866.0
865.0
864.0
864.0
864.0
863.0
860.0
857.0
858.0
859.0
860.0
861.0
861.0
863.0
862.0
862.0
860.0
857.0
856.0
855.0
856.0
855.0
857.0
857.0
859.0
860.0
858.0
858.0
859.0
857.0
858.0
856.0
857.0
858.0
857.0
860.0
860.0
860.0
861.0
860.0
858.0
858.0
856.0
854.0
852.0
854.0
854.0
856.0
854.0
854.0
859.0
859.0
859.0
856.0
855.0
856.0
853.0
855.0
853.0
856.0
855.0
857.0
853.0
859.0
857.0
855.0
854.0
850.0
851.0
851.0
853.0
853.0
857.0
856.0
859.0
856.0
855.0
851.0
851.0
850.0
851.0
853.0
852.0
853.0
852.0
855.0
856.0
854.0
854.0
854.0
850.0
849.0
851.0
851.0
850.0
850.0
853.0
853.0
854.0
854.0
854.0
851.0
850.0
847.0
850.0
847.0
847.0
848.0
850.0
852.0
855.0
852.0
852.0
849.0
849.0
848.0
850.0
848.0
847.0
850.0
849.0
852.0
855.0
857.0
856.0
855.0
854.0
850.0
849.0
849.0
851.0
852.0
856.0
860.0
861.0
861.0
862.0
860.0
859.0
856.0
855.0
854.0
852.0
851.0
852.0
853.0
851.0
854.0
855.0
855.0
855.0
858.0
858.0
858.0
857.0
857.0
854.0
851.0
854.0
849.0
846.0
843.0
840.0
838.0
837.0
836.0
836.0
837.0
836.0
839.0
838.0
840.0
840.0
833.0
833.0
830.0
830.0
834.0
843.0
854.0
874.0
892.0
905.0
917.0
921.0
912.0
894.0
865.0
836.0
822.0
828.0
858.0
904.0
956.0
1012.0
1064.0
1114.0
1157.0
1193.0
1221.0
1241.0
1250.0
1244.0
1234.0
1210.0
1182.0
1143.0
1097.0
1051.0
1001.0
952.0
902.0
858.0
817.0
792.0
781.0
778.0
781.0
788.0
795.0
800.0
802.0
803.0
805.0
807.0
806.0
806.0
807.0
806.0
807.0
808.0
805.0
804.0
804.0
802.0
802.0
799.0
801.0
799.0
803.0
801.0
805.0
805.0
803.0
803.0
802.0
800.0
797.0
797.0
797.0
797.0
798.0
800.0
798.0
798.0
799.0
796.0
794.0
794.0
795.0
793.0
793.0
791.0
791.0
791.0
792.0
792.0
789.0
788.0
787.0
785.0
784.0
782.0
781.0
784.0
782.0
780.0
780.0
777.0
778.0
778.0
778.0
774.0
774.0
772.0
771.0
768.0
766.0
767.0
768.0
767.0
765.0
765.0
762.0
759.0
757.0
756.0
757.0
756.0
757.0
759.0
757.0
759.0
761.0
759.0
759.0
761.0
762.0
761.0
763.0
765.0
764.0
768.0
774.0
777.0
775.0
778.0
781.0
783.0
783.0
788.0
790.0
792.0
795.0
799.0
803.0
806.0
810.0
811.0
812.0
812.0
813.0
817.0
819.0
821.0
823.0
826.0
828.0
830.0
829.0
827.0
822.0
823.0
823.0
820.0
821.0
821.0
823.0
822.0
819.0
820.0
815.0
813.0
809.0
806.0
804.0
801.0
799.0
799.0
798.0
797.0
798.0
797.0
795.0
794.0
791.0
790.0
789.0
787.0
787.0
789.0
790.0
791.0
792.0
791.0
793.0
792.0
787.0
790.0
791.0
789.0
791.0
791.0
791.0
792.0
794.0
795.0
794.0
797.0
794.0
794.0
793.0
795.0
793.0
797.0
796.0
795.0
797.0
797.0
798.0
797.0
797.0
797.0
797.0
798.0
798.0
799.0
800.0
799.0
801.0
800.0
803.0
799.0
795.0
793.0
792.0
797.0
798.0
799.0
800.0
802.0
801.0
803.0
799.0
801.0
798.0
798.0
796.0
797.0
798.0
799.0
799.0
800.0
800.0
802.0
799.0
799.0
796.0
798.0
793.0
796.0
796.0
799.0
802.0
802.0
804.0
803.0
803.0
802.0
801.0
800.0
798.0
800.0
801.0
802.0
803.0
803.0
805.0
807.0
807.0
805.0
802.0
800.0
797.0
796.0
798.0
799.0
800.0
802.0
802.0
803.0
804.0
802.0
802.0
800.0
799.0
798.0
800.0
800.0
803.0
803.0
804.0
805.0
806.0
802.0
800.0
799.0
798.0
798.0
799.0
800.0
801.0
801.0
803.0
804.0
806.0
802.0
799.0
799.0
802.0
802.0
801.0
800.0
803.0
804.0
805.0
805.0
803.0
802.0
802.0
800.0
798.0
796.0
799.0
800.0
802.0
804.0
805.0
805.0
805.0
805.0
805.0
804.0
802.0
802.0
801.0
798.0
803.0
802.0
802.0
803.0
807.0
805.0
803.0
803.0
803.0
803.0
803.0
804.0
804.0
806.0
807.0
810.0
807.0
806.0
805.0
804.0
803.0
804.0
803.0
802.0
805.0
807.0
809.0
807.0
808.0
808.0
807.0
804.0
805.0
806.0
807.0
806.0
812.0
812.0
814.0
814.0
812.0
812.0
810.0
810.0
808.0
813.0
815.0
817.0
818.0
820.0
823.0
821.0
817.0
813.0
813.0
810.0
811.0
808.0
809.0
811.0
813.0
818.0
821.0
824.0
826.0
825.0
823.0
818.0
813.0
810.0
806.0
805.0
804.0
804.0
804.0
807.0
806.0
804.0
804.0
803.0
802.0
801.0
800.0
802.0
802.0
802.0
800.0
802.0
805.0
811.0
824.0
840.0
855.0
867.0
877.0
879.0
875.0
857.0
833.0
810.0
794.0
797.0
824.0
863.0
909.0
962.0
1012.0
1062.0
1111.0
1157.0
1197.0
1229.0
1245.0
1250.0
1242.0
1223.0
1199.0
1162.0
1118.0
1071.0
1018.0
967.0
912.0
861.0
815.0
779.0
758.0
746.0
747.0
751.0
758.0
763.0
768.0
771.0
775.0
780.0
780.0
781.0
782.0
779.0
775.0
773.0
774.0
774.0
775.0
780.0
780.0
783.0
783.0
781.0
777.0
776.0
776.0
774.0
775.0
775.0
775.0
777.0
778.0
780.0
779.0
778.0
778.0
775.0
771.0
772.0
771.0
774.0
773.0
774.0
775.0
777.0
773.0
772.0
773.0
772.0
770.0
770.0
769.0
769.0
771.0
771.0
771.0
773.0
771.0
770.0
770.0
768.0
766.0
760.0
764.0
760.0
763.0
762.0
762.0
762.0
761.0
760.0
758.0
757.0
755.0
750.0
750.0
750.0
750.0
748.0
751.0
752.0
752.0
750.0
749.0
747.0
748.0
743.0
745.0
746.0
747.0
749.0
750.0
750.0
751.0
752.0
753.0
753.0
752.0
752.0
756.0
756.0
758.0
765.0
767.0
770.0
771.0
773.0
772.0
775.0
776.0
777.0
780.0
785.0
789.0
792.0
796.0
797.0
798.0
800.0
801.0
801.0
802.0
803.0
804.0
807.0
809.0
812.0
814.0
815.0
814.0
815.0
812.0
812.0
807.0
805.0
805.0
805.0
806.0
805.0
803.0
803.0
800.0
796.0
795.0
790.0
786.0
785.0
781.0
782.0
778.0
781.0
783.0
783.0
779.0
779.0
775.0
774.0
771.0
772.0
770.0
772.0
772.0
775.0
776.0
776.0
774.0
775.0
774.0
771.0
770.0
773.0
774.0
773.0
774.0
773.0
779.0
782.0
784.0
782.0
781.0
775.0
776.0
775.0
778.0
780.0
781.0
784.0
785.0
788.0
787.0
787.0
789.0
787.0
786.0
783.0
782.0
783.0
785.0
787.0
790.0
793.0
792.0
791.0
793.0
790.0
786.0
785.0
786.0
788.0
789.0
789.0
790.0
790.0
791.0
792.0
793.0
790.0
789.0
788.0
788.0
790.0
788.0
791.0
793.0
795.0
795.0
795.0
794.0
793.0
788.0
785.0
784.0
787.0
788.0
791.0
794.0
796.0
795.0
795.0
795.0
793.0
791.0
787.0
789.0
791.0
791.0
792.0
795.0
797.0
797.0
796.0
794.0
793.0
793.0
791.0
790.0
791.0
794.0
796.0
797.0
799.0
801.0
799.0
797.0
796.0
794.0
792.0
792.0
793.0
795.0
798.0
796.0
800.0
799.0
798.0
798.0
796.0
795.0
793.0
792.0
792.0
794.0
794.0
797.0
800.0
800.0
797.0
797.0
796.0
794.0
792.0
795.0
796.0
798.0
801.0
800.0
802.0
802.0
799.0
799.0
795.0
796.0
794.0
794.0
794.0
799.0
801.0
804.0
805.0
805.0
803.0
801.0
801.0
800.0
797.0
797.0
794.0
798.0
798.0
801.0
801.0
800.0
800.0
799.0
797.0
798.0
797.0
796.0
795.0
797.0
802.0
802.0
806.0
804.0
804.0
804.0
800.0
798.0
798.0
797.0
797.0
801.0
801.0
801.0
806.0
803.0
804.0
801.0
800.0
800.0
797.0
796.0
797.0
799.0
803.0
804.0
808.0
807.0
808.0
806.0
805.0
800.0
800.0
799.0
802.0
803.0
807.0
811.0
816.0
816.0
817.0
817.0
815.0
811.0
810.0
807.0
803.0
806.0
809.0
808.0
812.0
813.0
813.0
816.0
817.0
814.0
813.0
812.0
811.0
809.0
809.0
807.0
809.0
806.0
805.0
803.0
800.0
798.0
798.0
798.0
797.0
798.0
803.0
803.0
806.0
806.0
805.0
803.0
797.0
795.0
797.0
798.0
809.0
826.0
846.0
866.0
880.0
888.0
886.0
871.0
842.0
810.0
785.0
775.0
788.0
823.0
868.0
920.0
971.0
1016.0
1061.0
1104.0
1140.0
1165.0
1180.0
1184.0
1178.0
1163.0
1135.0
1097.0
1056.0
1010.0
962.0
918.0
868.0
827.0
792.0
769.0
758.0
756.0
762.0
769.0
776.0
779.0
784.0
785.0
785.0
786.0
783.0
782.0
784.0
785.0
786.0
788.0
789.0
788.0
788.0
784.0
786.0
785.0
783.0
784.0
782.0
783.0
785.0
785.0
791.0
790.0
787.0
786.0
784.0
782.0
782.0
781.0
782.0
781.0
782.0
786.0
787.0
785.0
785.0
784.0
781.0
781.0
777.0
776.0
775.0
778.0
775.0
778.0
782.0
778.0
778.0
780.0
777.0
776.0
772.0
773.0
773.0
773.0
774.0
774.0
773.0
771.0
769.0
768.0
766.0
766.0
766.0
763.0
764.0
762.0
762.0
763.0
763.0
761.0
760.0
760.0
759.0
759.0
756.0
757.0
756.0
758.0
759.0
760.0
760.0
760.0
761.0
762.0
764.0
762.0
762.0
762.0
765.0
766.0
770.0
773.0
779.0
780.0
781.0
785.0
783.0
785.0
786.0
787.0
791.0
797.0
799.0
804.0
807.0
811.0
810.0
814.0
813.0
815.0
818.0
817.0
818.0
822.0
826.0
825.0
829.0
827.0
824.0
824.0
824.0
822.0
822.0
818.0
816.0
817.0
816.0
813.0
815.0
814.0
811.0
808.0
804.0
802.0
799.0
795.0
796.0
795.0
795.0
796.0
795.0
793.0
792.0
789.0
791.0
790.0
789.0
789.0
789.0
789.0
793.0
794.0
793.0
793.0
793.0
795.0
795.0
794.0
792.0
791.0
792.0
794.0
794.0
798.0
799.0
799.0
800.0
798.0
798.0
798.0
796.0
795.0
797.0
798.0
802.0
803.0
803.0
804.0
804.0
804.0
803.0
802.0
802.0
801.0
801.0
804.0
804.0
804.0
804.0
806.0
806.0
803.0
802.0
804.0
806.0
805.0
807.0
806.0
806.0
809.0
808.0
808.0
806.0
807.0
807.0
805.0
804.0
804.0
805.0
805.0
807.0
809.0
809.0
810.0
810.0
810.0
808.0
808.0
808.0
806.0
805.0
807.0
809.0
810.0
812.0
811.0
810.0
809.0
807.0
807.0
805.0
807.0
806.0
809.0
812.0
811.0
815.0
814.0
813.0
812.0
812.0
809.0
808.0
811.0
811.0
811.0
811.0
813.0
814.0
813.0
814.0
813.0
812.0
812.0
810.0
812.0
813.0
813.0
813.0
814.0
815.0
815.0
815.0
813.0
812.0
810.0
810.0
811.0
812.0
815.0
817.0
815.0
815.0
814.0
815.0
813.0
812.0
811.0
811.0
813.0
813.0
816.0
817.0
816.0
819.0
818.0
817.0
816.0
814.0
814.0
814.0
814.0
814.0
814.0
815.0
815.0
817.0
816.0
815.0
813.0
814.0
813.0
814.0
813.0
814.0
813.0
817.0
817.0
820.0
819.0
819.0
817.0
817.0
814.0
813.0
812.0
815.0
817.0
819.0
819.0
820.0
822.0
821.0
817.0
818.0
816.0
816.0
815.0
817.0
818.0
821.0
823.0
825.0
824.0
826.0
824.0
821.0
816.0
816.0
819.0
820.0
824.0
829.0
830.0
833.0
833.0
834.0
832.0
832.0
829.0
825.0
825.0
823.0
824.0
826.0
826.0
829.0
829.0
830.0
831.0
832.0
833.0
833.0
833.0
832.0
829.0
829.0
828.0
827.0
827.0
825.0
822.0
819.0
818.0
813.0
813.0
816.0
819.0
816.0
817.0
822.0
822.0
823.0
821.0
819.0
815.0
814.0
810.0
810.0
816.0
828.0
845.0
864.0
878.0
888.0
897.0
897.0
887.0
867.0
842.0
821.0
813.0
824.0
856.0
902.0
947.0
994.0
1043.0
1087.0
1132.0
1173.0
1213.0
1244.0
1262.0
1269.0
1266.0
1247.0
1220.0
1179.0
1131.0
1084.0
1039.0
995.0
953.0
911.0
870.0
834.0
805.0
786.0
775.0
773.0
774.0
778.0
781.0
785.0
786.0
791.0
795.0
797.0
801.0
797.0
799.0
794.0
794.0
791.0
794.0
793.0
793.0
795.0
796.0
797.0
796.0
798.0
796.0
795.0
794.0
792.0
792.0
791.0
792.0
789.0
792.0
794.0
793.0
796.0
794.0
794.0
792.0
790.0
786.0
786.0
785.0
784.0
785.0
786.0
788.0
789.0
788.0
786.0
784.0
783.0
783.0
780.0
777.0
781.0
780.0
782.0
782.0
781.0
782.0
779.0
778.0
775.0
774.0
773.0
772.0
769.0
770.0
771.0
772.0
770.0
770.0
769.0
765.0
764.0
762.0
761.0
760.0
761.0
761.0
763.0
763.0
765.0
764.0
763.0
759.0
759.0
761.0
760.0
763.0
765.0
767.0
770.0
773.0
778.0
777.0
778.0
778.0
779.0
779.0
781.0
786.0
789.0
792.0
798.0
803.0
802.0
808.0
809.0
810.0
812.0
814.0
815.0
817.0
820.0
825.0
827.0
829.0
830.0
831.0
826.0
826.0
827.0
828.0
828.0
825.0
826.0
826.0
828.0
829.0
829.0
826.0
825.0
822.0
818.0
812.0
812.0
807.0
808.0
808.0
809.0
809.0
808.0
804.0
803.0
801.0
801.0
798.0
798.0
801.0
798.0
799.0
801.0
805.0
804.0
804.0
803.0
803.0
802.0
799.0
799.0
801.0
802.0
803.0
806.0
806.0
807.0
809.0
810.0
810.0
808.0
806.0
807.0
806.0
807.0
809.0
809.0
810.0
812.0
811.0
811.0
812.0
809.0
810.0
812.0
810.0
811.0
812.0
814.0
815.0
820.0
818.0
817.0
818.0
815.0
814.0
815.0
814.0
815.0
817.0
815.0
817.0
819.0
819.0
819.0
820.0
819.0
818.0
819.0
817.0
817.0
818.0
822.0
820.0
822.0
823.0
824.0
822.0
820.0
820.0
820.0
818.0
820.0
819.0
820.0
823.0
826.0
826.0
825.0
822.0
821.0
818.0
820.0
817.0
818.0
820.0
824.0
826.0
826.0
828.0
829.0
823.0
821.0
825.0
823.0
823.0
820.0
823.0
824.0
827.0
829.0
828.0
830.0
829.0
827.0
824.0
823.0
824.0
824.0
824.0
826.0
829.0
831.0
830.0
829.0
829.0
827.0
827.0
827.0
827.0
825.0
827.0
829.0
832.0
832.0
833.0
832.0
832.0
831.0
830.0
828.0
828.0
827.0
827.0
830.0
831.0
836.0
834.0
831.0
833.0
832.0
829.0
829.0
829.0
828.0
830.0
830.0
831.0
833.0
836.0
833.0
834.0
833.0
832.0
830.0
830.0
830.0
828.0
831.0
832.0
836.0
835.0
834.0
834.0
832.0
833.0
830.0
830.0
829.0
832.0
831.0
834.0
836.0
834.0
834.0
836.0
835.0
831.0
830.0
830.0
833.0
832.0
834.0
835.0
837.0
836.0
835.0
835.0
833.0
831.0
833.0
833.0
833.0
835.0
837.0
837.0
840.0
840.0
841.0
839.0
840.0
839.0
838.0
838.0
840.0
842.0
847.0
850.0
850.0
853.0
851.0
849.0
847.0
845.0
841.0
840.0
839.0
841.0
840.0
843.0
847.0
851.0
851.0
855.0
854.0
852.0
851.0
847.0
845.0
842.0
839.0
838.0
837.0
837.0
837.0
834.0
834.0
834.0
833.0
832.0
833.0
834.0
835.0
836.0
835.0
834.0
832.0
832.0
840.0
852.0
867.0
885.0
898.0
907.0
906.0
888.0
863.0
839.0
823.0
834.0
867.0
914.0
971.0
1031.0
1089.0
1145.0
1197.0
1238.0
1266.0
1279.0
1279.0
1270.0
1247.0
1219.0
1175.0
1124.0
1070.0
1016.0
959.0
902.0
858.0
821.0
797.0
787.0
786.0
787.0
796.0
799.0
804.0
808.0
813.0
816.0
822.0
819.0
819.0
817.0
816.0
812.0
811.0
812.0
810.0
812.0
815.0
815.0
818.0
819.0
816.0
817.0
814.0
813.0
813.0
812.0
812.0
813.0
815.0
818.0
819.0
817.0
815.0
814.0
813.0
810.0
809.0
808.0
811.0
811.0
812.0
813.0
814.0
813.0
813.0
811.0
808.0
808.0
807.0
804.0
804.0
804.0
803.0
800.0
807.0
806.0
804.0
802.0
803.0
800.0
798.0
797.0
795.0
795.0
793.0
793.0
796.0
794.0
794.0
791.0
789.0
788.0
788.0
786.0
784.0
786.0
786.0
786.0
787.0
786.0
784.0
783.0
783.0
782.0
782.0
782.0
782.0
783.0
783.0
788.0
791.0
791.0
794.0
794.0
795.0
795.0
797.0
797.0
799.0
801.0
801.0
808.0
814.0
815.0
816.0
819.0
820.0
817.0
821.0
823.0
823.0
827.0
829.0
835.0
839.0
842.0
841.0
844.0
843.0
845.0
846.0
845.0
842.0
842.0
845.0
842.0
842.0
843.0
844.0
843.0
838.0
836.0
834.0
831.0
831.0
830.0
830.0
828.0
826.0
824.0
822.0
818.0
816.0
814.0
813.0
811.0
808.0
811.0
811.0
812.0
811.0
810.0
810.0
809.0
808.0
808.0
807.0
807.0
810.0
808.0
811.0
812.0
811.0
816.0
814.0
814.0
815.0
814.0
813.0
816.0
815.0
819.0
821.0
821.0
822.0
821.0
821.0
820.0
819.0
820.0
819.0
822.0
820.0
822.0
824.0
827.0
828.0
827.0
829.0
827.0
825.0
824.0
822.0
822.0
825.0
825.0
828.0
830.0
830.0
829.0
827.0
825.0
825.0
824.0
826.0
826.0
826.0
830.0
831.0
830.0
834.0
832.0
831.0
832.0
829.0
824.0
827.0
824.0
827.0
826.0
827.0
831.0
830.0
832.0
830.0
830.0
831.0
827.0
828.0
828.0
828.0
830.0
831.0
831.0
832.0
830.0
831.0
828.0
828.0
828.0
826.0
826.0
827.0
827.0
831.0
832.0
831.0
834.0
832.0
831.0
830.0
828.0
830.0
827.0
828.0
829.0
830.0
832.0
834.0
834.0
832.0
833.0
833.0
831.0
830.0
826.0
828.0
830.0
835.0
835.0
837.0
834.0
834.0
834.0
826.0
825.0
830.0
830.0
832.0
831.0
834.0
834.0
837.0
836.0
837.0
834.0
833.0
832.0
830.0
831.0
833.0
834.0
835.0
837.0
838.0
837.0
836.0
835.0
832.0
831.0
831.0
830.0
831.0
831.0
833.0
838.0
839.0
840.0
838.0
837.0
835.0
833.0
833.0
832.0
834.0
836.0
837.0
837.0
838.0
840.0
838.0
839.0
838.0
839.0
838.0
839.0
840.0
841.0
840.0
840.0
841.0
844.0
844.0
844.0
844.0
844.0
847.0
846.0
846.0
850.0
850.0
850.0
850.0
848.0
846.0
843.0
843.0
840.0
837.0
839.0
841.0
843.0
847.0
850.0
855.0
855.0
854.0
852.0
846.0
840.0
837.0
834.0
832.0
833.0
833.0
834.0
836.0
835.0
836.0
834.0
835.0
832.0
831.0
832.0
829.0
831.0
832.0
835.0
842.0
854.0
868.0
882.0
897.0
906.0
912.0
911.0
902.0
880.0
855.0
832.0
824.0
833.0
865.0
907.0
958.0
1010.0
1059.0
1112.0
1156.0
1198.0
1234.0
1258.0
1270.0
1268.0
1254.0
1228.0
1189.0
1144.0
1096.0
1048.0
1006.0
964.0
923.0
890.0
858.0
831.0
812.0
799.0
792.0
793.0
796.0
797.0
800.0
805.0
809.0
814.0
817.0
818.0
818.0
817.0
814.0
813.0
810.0
808.0
810.0
809.0
813.0
814.0
814.0
815.0
815.0
813.0
811.0
810.0
808.0
807.0
809.0
810.0
810.0
811.0
814.0
814.0
812.0
811.0
807.0
807.0
803.0
803.0
804.0
804.0
807.0
804.0
808.0
808.0
805.0
803.0
802.0
800.0
799.0
797.0
796.0
798.0
799.0
799.0
801.0
801.0
798.0
793.0
792.0
789.0
790.0
790.0
790.0
788.0
789.0
791.0
792.0
791.0
786.0
784.0
781.0
780.0
779.0
778.0
775.0
776.0
778.0
779.0
779.0
777.0
777.0
775.0
774.0
773.0
771.0
770.0
771.0
774.0
776.0
776.0
779.0
782.0
783.0
785.0
786.0
786.0
786.0
789.0
792.0
797.0
799.0
805.0
809.0
811.0
814.0
816.0
816.0
820.0
822.0
822.0
826.0
830.0
835.0
836.0
839.0
842.0
842.0
844.0
842.0
843.0
840.0
838.0
840.0
839.0
841.0
841.0
843.0
840.0
839.0
837.0
833.0
831.0
828.0
825.0
823.0
824.0
825.0
827.0
829.0
825.0
823.0
825.0
821.0
820.0
815.0
817.0
816.0
816.0
817.0
818.0
818.0
818.0
820.0
820.0
816.0
816.0
816.0
815.0
817.0
817.0
821.0
823.0
822.0
826.0
826.0
825.0
824.0
824.0
825.0
820.0
822.0
824.0
825.0
827.0
830.0
832.0
832.0
831.0
829.0
828.0
828.0
826.0
827.0
826.0
829.0
830.0
832.0
834.0
836.0
832.0
831.0
829.0
828.0
828.0
826.0
829.0
832.0
834.0
834.0
837.0
837.0
833.0
834.0
833.0
832.0
830.0
829.0
831.0
832.0
833.0
837.0
836.0
838.0
835.0
835.0
833.0
831.0
831.0
831.0
831.0
833.0
833.0
836.0
836.0
840.0
837.0
837.0
837.0
835.0
832.0
830.0
832.0
835.0
836.0
839.0
840.0
841.0
840.0
838.0
836.0
834.0
836.0
837.0
836.0
840.0
839.0
839.0
839.0
841.0
842.0
841.0
841.0
839.0
839.0
838.0
840.0
840.0
840.0
843.0
843.0
843.0
843.0
842.0
840.0
839.0
840.0
839.0
840.0
841.0
839.0
842.0
844.0
844.0
845.0
843.0
843.0
842.0
843.0
842.0
841.0
844.0
843.0
843.0
842.0
843.0
844.0
845.0
842.0
840.0
840.0
840.0
841.0
842.0
841.0
843.0
843.0
843.0
842.0
844.0
843.0
841.0
843.0
841.0
843.0
845.0
843.0
844.0
845.0
846.0
846.0
843.0
842.0
842.0
842.0
842.0
842.0
843.0
844.0
846.0
847.0
847.0
846.0
842.0
843.0
840.0
843.0
843.0
846.0
848.0
849.0
850.0
851.0
848.0
847.0
848.0
847.0
847.0
847.0
848.0
851.0
853.0
851.0
854.0
856.0
852.0
852.0
852.0
851.0
853.0
856.0
856.0
858.0
858.0
860.0
861.0
864.0
862.0
858.0
856.0
851.0
848.0
849.0
848.0
851.0
850.0
853.0
854.0
855.0
860.0
859.0
861.0
861.0
862.0
864.0
862.0
860.0
860.0
859.0
856.0
855.0
853.0
849.0
848.0
846.0
845.0
844.0
845.0
846.0
849.0
849.0
848.0
852.0
851.0
846.0
843.0
841.0
839.0
845.0
854.0
873.0
892.0
908.0
919.0
924.0
925.0
914.0
895.0
869.0
845.0
831.0
836.0
858.0
899.0
945.0
998.0
1049.0
1097.0
1145.0
1189.0
1228.0
1258.0
1284.0
1297.0
1297.0
1287.0
1270.0
1243.0
1205.0
1159.0
1110.0
1063.0
1021.0
975.0
929.0
888.0
854.0
828.0
812.0
807.0
806.0
808.0
810.0
815.0
814.0
812.0
815.0
817.0
820.0
825.0
829.0
827.0
830.0
830.0
827.0
823.0
823.0
823.0
821.0
821.0
822.0
824.0
825.0
823.0
826.0
827.0
828.0
827.0
825.0
823.0
823.0
821.0
820.0
822.0
825.0
825.0
825.0
826.0
825.0
823.0
821.0
819.0
817.0
820.0
818.0
819.0
818.0
820.0
823.0
823.0
820.0
819.0
815.0
816.0
814.0
815.0
816.0
813.0
815.0
816.0
816.0
815.0
815.0
812.0
811.0
805.0
805.0
803.0
804.0
804.0
804.0
805.0
804.0
803.0
803.0
802.0
801.0
799.0
797.0
796.0
797.0
797.0
795.0
797.0
798.0
798.0
800.0
796.0
795.0
795.0
796.0
798.0
801.0
801.0
803.0
805.0
809.0
813.0
814.0
816.0
816.0
815.0
817.0
820.0
822.0
826.0
828.0
833.0
838.0
840.0
842.0
845.0
847.0
848.0
849.0
852.0
851.0
856.0
858.0
861.0
862.0
863.0
863.0
862.0
862.0
860.0
859.0
855.0
856.0
859.0
856.0
858.0
857.0
855.0
853.0
848.0
844.0
841.0
840.0
839.0
837.0
837.0
837.0
836.0
836.0
835.0
831.0
831.0
827.0
826.0
825.0
824.0
823.0
823.0
828.0
827.0
829.0
828.0
828.0
828.0
829.0
826.0
827.0
826.0
825.0
827.0
829.0
833.0
837.0
836.0
835.0
836.0
835.0
832.0
834.0
834.0
835.0
834.0
835.0
839.0
841.0
840.0
840.0
840.0
838.0
838.0
838.0
838.0
838.0
840.0
841.0
843.0
844.0
845.0
846.0
845.0
840.0
840.0
842.0
842.0
842.0
844.0
844.0
846.0
846.0
844.0
845.0
847.0
846.0
841.0
841.0
843.0
843.0
844.0
842.0
847.0
848.0
846.0
847.0
845.0
845.0
843.0
844.0
841.0
842.0
843.0
843.0
846.0
845.0
846.0
847.0
843.0
843.0
842.0
841.0
841.0
843.0
845.0
844.0
848.0
848.0
849.0
848.0
848.0
848.0
846.0
845.0
843.0
845.0
845.0
847.0
847.0
850.0
849.0
850.0
846.0
846.0
845.0
844.0
846.0
846.0
845.0
846.0
847.0
850.0
849.0
848.0
847.0
847.0
843.0
844.0
844.0
844.0
845.0
848.0
847.0
851.0
849.0
849.0
849.0
848.0
845.0
846.0
844.0
845.0
844.0
846.0
847.0
849.0
849.0
847.0
843.0
846.0
843.0
843.0
846.0
844.0
845.0
844.0
845.0
847.0
847.0
848.0
847.0
847.0
844.0
843.0
843.0
844.0
844.0
846.0
847.0
848.0
848.0
848.0
847.0
845.0
846.0
846.0
846.0
844.0
846.0
847.0
847.0
850.0
850.0
851.0
849.0
850.0
850.0
847.0
846.0
849.0
847.0
848.0
849.0
850.0
851.0
854.0
854.0
855.0
857.0
857.0
857.0
856.0
856.0
856.0
854.0
856.0
852.0
853.0
852.0
850.0
848.0
851.0
852.0
856.0
859.0
863.0
863.0
862.0
860.0
859.0
854.0
850.0
849.0
846.0
845.0
845.0
845.0
845.0
846.0
847.0
846.0
845.0
843.0
842.0
842.0
840.0
840.0
840.0
840.0
840.0
841.0
852.0
863.0
881.0
899.0
913.0
921.0
924.0
915.0
891.0
859.0
835.0
824.0
835.0
866.0
912.0
964.0
1018.0
1069.0
1119.0
1162.0
1199.0
1226.0
1242.0
1245.0
1240.0
1225.0
1202.0
1169.0
1130.0
1087.0
1044.0
1004.0
962.0
922.0
884.0
850.0
829.0
813.0
802.0
800.0
804.0
808.0
815.0
817.0
820.0
825.0
828.0
829.0
830.0
827.0
827.0
825.0
823.0
820.0
822.0
822.0
823.0
824.0
825.0
826.0
827.0
825.0
824.0
823.0
819.0
818.0
819.0
820.0
819.0
822.0
822.0
826.0
822.0
819.0
818.0
817.0
816.0
813.0
815.0
813.0
816.0
813.0
815.0
813.0
813.0
810.0
812.0
812.0
811.0
809.0
807.0
809.0
808.0
808.0
810.0
809.0
809.0
808.0
806.0
804.0
804.0
801.0
801.0
800.0
799.0
798.0
798.0
799.0
798.0
797.0
794.0
792.0
789.0
789.0
788.0
788.0
788.0
788.0
787.0
787.0
790.0
787.0
787.0
784.0
782.0
783.0
782.0
783.0
784.0
784.0
790.0
792.0
793.0
793.0
794.0
794.0
795.0
793.0
799.0
800.0
805.0
809.0
812.0
816.0
821.0
822.0
823.0
824.0
827.0
830.0
832.0
833.0
837.0
839.0
842.0
845.0
850.0
849.0
846.0
850.0
849.0
850.0
847.0
849.0
848.0
851.0
852.0
849.0
851.0
849.0
847.0
845.0
843.0
841.0
840.0
838.0
835.0
838.0
837.0
841.0
840.0
838.0
837.0
836.0
832.0
832.0
829.0
827.0
828.0
829.0
830.0
833.0
833.0
833.0
831.0
830.0
828.0
825.0
827.0
826.0
829.0
830.0
831.0
830.0
831.0
830.0
830.0
828.0
828.0
828.0
828.0
828.0
831.0
