# Simple Text Format
# Sampling Rate (Hz):= 360.00
# Resolution:= 12
# Labels:= ECG
858.0
860.0
859.0
858.0
853.0
854.0
851.0
848.0
846.0
844.0
847.0
846.0
846.0
847.0
850.0
853.0
852.0
851.0
851.0
849.0
850.0
850.0
847.0
845.0
846.0
845.0
847.0
857.0
871.0
886.0
902.0
916.0
928.0
930.0
930.0
917.0
895.0
869.0
852.0
855.0
880.0
927.0
981.0
1041.0
1099.0
1148.0
1194.0
1229.0
1257.0
1272.0
1277.0
1271.0
1258.0
1234.0
1200.0
1156.0
1109.0
1064.0
1025.0
984.0
945.0
905.0
869.0
839.0
819.0
802.0
797.0
797.0
801.0
806.0
810.0
813.0
816.0
820.0
822.0
825.0
830.0
828.0
828.0
825.0
826.0
824.0
823.0
824.0
823.0
825.0
825.0
827.0
828.0
828.0
826.0
825.0
823.0
820.0
821.0
822.0
821.0
821.0
821.0
823.0
824.0
823.0
824.0
824.0
822.0
821.0
821.0
819.0
821.0
822.0
821.0
821.0
822.0
821.0
818.0
816.0
816.0
815.0
814.0
812.0
813.0
814.0
813.0
813.0
810.0
810.0
811.0
810.0
807.0
803.0
800.0
802.0
802.0
804.0
801.0
804.0
802.0
801.0
798.0
798.0
795.0
793.0
792.0
791.0
790.0
791.0
790.0
789.0
789.0
789.0
788.0
784.0
781.0
784.0
781.0
784.0
785.0
787.0
789.0
791.0
792.0
792.0
792.0
792.0
795.0
795.0
795.0
796.0
801.0
805.0
809.0
813.0
818.0
820.0
822.0
824.0
827.0
831.0
831.0
833.0
839.0
843.0
847.0
850.0
851.0
853.0
856.0
858.0
859.0
858.0
861.0
863.0
863.0
865.0
867.0
865.0
865.0
863.0
859.0
859.0
858.0
855.0
851.0
848.0
849.0
846.0
846.0
847.0
846.0
844.0
843.0
839.0
838.0
835.0
833.0
833.0
831.0
833.0
834.0
835.0
835.0
834.0
835.0
834.0
831.0
830.0
830.0
832.0
833.0
835.0
835.0
836.0
838.0
839.0
838.0
837.0
834.0
836.0
837.0
838.0
838.0
840.0
840.0
841.0
843.0
842.0
843.0
843.0
842.0
844.0
845.0
844.0
846.0
846.0
846.0
850.0
850.0
851.0
850.0
850.0
849.0
846.0
847.0
847.0
845.0
851.0
851.0
851.0
854.0
856.0
853.0
853.0
852.0
852.0
853.0
849.0
852.0
851.0
852.0
852.0
854.0
853.0
855.0
854.0
852.0
851.0
848.0
850.0
850.0
853.0
854.0
857.0
855.0
855.0
853.0
854.0
853.0
852.0
851.0
851.0
852.0
854.0
855.0
856.0
857.0
857.0
855.0
854.0
857.0
854.0
853.0
854.0
856.0
855.0
856.0
859.0
858.0
856.0
853.0
854.0
853.0
851.0
853.0
853.0
853.0
855.0
854.0
857.0
859.0
858.0
859.0
854.0
853.0
852.0
853.0
854.0
854.0
854.0
857.0
856.0
858.0
859.0
855.0
855.0
854.0
853.0
853.0
853.0
854.0
856.0
854.0
856.0
857.0
856.0
855.0
855.0
855.0
852.0
853.0
852.0
853.0
854.0
855.0
854.0
857.0
856.0
855.0
854.0
853.0
851.0
854.0
851.0
853.0
853.0
853.0
858.0
857.0
854.0
853.0
856.0
855.0
854.0
854.0
854.0
855.0
856.0
856.0
859.0
859.0
857.0
857.0
855.0
855.0
856.0
855.0
853.0
856.0
857.0
858.0
859.0
861.0
861.0
859.0
857.0
855.0
856.0
857.0
856.0
857.0
859.0
863.0
861.0
859.0
861.0
859.0
860.0
859.0
860.0
859.0
858.0
861.0
866.0
865.0
869.0
871.0
872.0
870.0
871.0
869.0
868.0
865.0
866.0
864.0
861.0
863.0
865.0
867.0
867.0
868.0
866.0
866.0
867.0
869.0
871.0
875.0
878.0
877.0
876.0
876.0
873.0
869.0
865.0
863.0
858.0
856.0
854.0
854.0
855.0
857.0
861.0
860.0
859.0
859.0
857.0
856.0
856.0
852.0
850.0
849.0
852.0
858.0
871.0
888.0
907.0
923.0
932.0
939.0
931.0
913.0
881.0
851.0
836.0
845.0
881.0
932.0
988.0
1047.0
1103.0
1152.0
1196.0
1231.0
1255.0
1270.0
1273.0
1266.0
1251.0
1224.0
1187.0
1142.0
1094.0
1047.0
996.0
944.0
895.0
856.0
826.0
810.0
805.0
807.0
811.0
817.0
822.0
825.0
825.0
829.0
830.0
831.0
834.0
835.0
831.0
834.0
831.0
830.0
832.0
832.0
828.0
828.0
832.0
832.0
832.0
832.0
832.0
834.0
832.0
830.0
831.0
828.0
826.0
828.0
827.0
824.0
829.0
830.0
830.0
831.0
830.0
830.0
825.0
827.0
823.0
823.0
824.0
822.0
823.0
824.0
825.0
824.0
823.0
822.0
819.0
821.0
818.0
818.0
817.0
817.0
817.0
816.0
817.0
818.0
816.0
815.0
811.0
810.0
808.0
808.0
805.0
803.0
801.0
803.0
805.0
806.0
805.0
803.0
803.0
800.0
799.0
799.0
798.0
797.0
799.0
799.0
802.0
804.0
803.0
804.0
804.0
805.0
806.0
807.0
811.0
809.0
814.0
815.0
820.0
822.0
825.0
827.0
827.0
829.0
831.0
832.0
836.0
839.0
841.0
846.0
850.0
856.0
857.0
858.0
859.0
860.0
861.0
864.0
864.0
867.0
867.0
870.0
874.0
873.0
873.0
871.0
868.0
867.0
865.0
862.0
860.0
858.0
858.0
855.0
856.0
856.0
852.0
848.0
844.0
843.0
840.0
839.0
837.0
835.0
835.0
834.0
834.0
836.0
834.0
834.0
830.0
828.0
825.0
825.0
827.0
825.0
829.0
830.0
833.0
832.0
832.0
836.0
835.0
834.0
831.0
835.0
834.0
835.0
836.0
838.0
840.0
841.0
843.0
841.0
841.0
839.0
835.0
839.0
841.0
840.0
843.0
844.0
848.0
847.0
849.0
848.0
846.0
846.0
846.0
844.0
844.0
847.0
848.0
849.0
848.0
851.0
849.0
850.0
850.0
847.0
845.0
844.0
844.0
847.0
850.0
851.0
854.0
854.0
852.0
854.0
852.0
850.0
849.0
850.0
849.0
849.0
851.0
853.0
853.0
855.0
856.0
856.0
852.0
851.0
849.0
849.0
847.0
851.0
851.0
854.0
857.0
856.0
857.0
857.0
856.0
854.0
853.0
853.0
852.0
852.0
853.0
855.0
856.0
858.0
859.0
857.0
858.0
854.0
854.0
853.0
853.0
854.0
854.0
855.0
857.0
857.0
857.0
853.0
856.0
854.0
851.0
853.0
854.0
851.0
859.0
858.0
859.0
858.0
859.0
859.0
859.0
859.0
856.0
852.0
856.0
856.0
858.0
859.0
861.0
863.0
862.0
860.0
859.0
856.0
856.0
856.0
856.0
858.0
859.0
860.0
859.0
860.0
862.0
862.0
859.0
858.0
858.0
856.0
854.0
859.0
861.0
862.0
862.0
864.0
864.0
861.0
860.0
860.0
860.0
856.0
857.0
858.0
862.0
864.0
864.0
864.0
864.0
864.0
862.0
860.0
860.0
858.0
859.0
863.0
862.0
861.0
865.0
866.0
865.0
863.0
864.0
862.0
860.0
860.0
862.0
863.0
864.0
865.0
865.0
868.0
865.0
863.0
861.0
862.0
859.0
859.0
858.0
858.0
862.0
863.0
868.0
870.0
870.0
871.0
869.0
867.0
866.0
868.0
868.0
869.0
874.0
878.0
879.0
883.0
882.0
881.0
880.0
876.0
875.0
875.0
871.0
872.0
873.0
874.0
875.0
876.0
876.0
876.0
879.0
881.0
882.0
883.0
881.0
879.0
877.0
873.0
874.0
871.0
868.0
862.0
862.0
859.0
860.0
859.0
858.0
860.0
859.0
862.0
862.0
868.0
865.0
861.0
858.0
855.0
857.0
863.0
879.0
896.0
916.0
933.0
946.0
948.0
936.0
914.0
883.0
859.0
857.0
879.0
923.0
980.0
1041.0
1104.0
1161.0
1214.0
1254.0
1287.0
1303.0
1306.0
1295.0
1274.0
1243.0
1203.0
1156.0
1112.0
1066.0
1022.0
973.0
930.0
887.0
849.0
827.0
813.0
808.0
810.0
815.0
821.0
828.0
833.0
834.0
835.0
836.0
836.0
836.0
833.0
835.0
837.0
836.0
837.0
840.0
840.0
839.0
837.0
834.0
835.0
834.0
835.0
835.0
834.0
836.0
837.0
838.0
840.0
841.0
838.0
838.0
836.0
832.0
832.0
832.0
833.0
833.0
832.0
832.0
833.0
830.0
832.0
831.0
830.0
828.0
827.0
826.0
826.0
827.0
827.0
830.0
829.0
827.0
826.0
823.0
822.0
819.0
818.0
818.0
819.0
819.0
821.0
819.0
820.0
820.0
817.0
814.0
814.0
808.0
809.0
808.0
808.0
809.0
810.0
810.0
809.0
809.0
807.0
803.0
803.0
800.0
799.0
798.0
799.0
800.0
802.0
803.0
804.0
802.0
803.0
805.0
803.0
805.0
807.0
810.0
811.0
815.0
818.0
821.0
825.0
827.0
829.0
830.0
833.0
835.0
835.0
835.0
843.0
849.0
852.0
856.0
860.0
863.0
864.0
863.0
867.0
870.0
870.0
873.0
876.0
878.0
880.0
884.0
885.0
886.0
886.0
883.0
883.0
880.0
878.0
874.0
873.0
873.0
874.0
874.0
875.0
871.0
868.0
867.0
863.0
860.0
856.0
854.0
854.0
854.0
853.0
855.0
853.0
853.0
852.0
851.0
847.0
845.0
843.0
843.0
844.0
844.0
845.0
850.0
852.0
851.0
849.0
847.0
849.0
849.0
849.0
851.0
848.0
850.0
851.0
855.0
858.0
858.0
858.0
858.0
858.0
856.0
855.0
856.0
857.0
857.0
861.0
862.0
863.0
862.0
862.0
863.0
862.0
861.0
860.0
860.0
858.0
860.0
861.0
864.0
868.0
867.0
868.0
870.0
867.0
865.0
862.0
863.0
863.0
867.0
867.0
866.0
868.0
869.0
869.0
870.0
868.0
867.0
865.0
864.0
864.0
864.0
867.0
867.0
872.0
872.0
870.0
869.0
866.0
868.0
865.0
865.0
866.0
866.0
867.0
867.0
868.0
866.0
870.0
871.0
867.0
866.0
868.0
867.0
867.0
868.0
871.0
873.0
874.0
872.0
873.0
872.0
870.0
868.0
867.0
867.0
866.0
869.0
870.0
870.0
872.0
874.0
873.0
871.0
872.0
869.0
867.0
869.0
868.0
869.0
871.0
870.0
874.0
873.0
872.0
874.0
872.0
872.0
871.0
868.0
869.0
871.0
871.0
873.0
874.0
873.0
876.0
872.0
871.0
870.0
870.0
867.0
868.0
870.0
874.0
876.0
875.0
876.0
877.0
874.0
874.0
871.0
869.0
870.0
868.0
871.0
874.0
876.0
876.0
879.0
877.0
878.0
877.0
876.0
875.0
871.0
871.0
874.0
875.0
875.0
879.0
879.0
879.0
876.0
874.0
874.0
872.0
872.0
872.0
873.0
874.0
876.0
881.0
877.0
876.0
876.0
875.0
873.0
872.0
871.0
873.0
876.0
877.0
879.0
877.0
877.0
877.0
877.0
876.0
875.0
875.0
875.0
873.0
875.0
876.0
878.0
881.0
879.0
881.0
879.0
880.0
879.0
878.0
878.0
879.0
882.0
882.0
885.0
885.0
882.0
880.0
880.0
880.0
875.0
876.0
881.0
884.0
885.0
889.0
890.0
891.0
890.0
888.0
886.0
885.0
883.0
883.0
881.0
881.0
883.0
886.0
885.0
890.0
891.0
893.0
892.0
889.0
889.0
889.0
884.0
883.0
881.0
879.0
876.0
875.0
873.0
874.0
873.0
871.0
871.0
869.0
869.0
871.0
873.0
873.0
875.0
874.0
871.0
871.0
877.0
889.0
906.0
924.0
940.0
950.0
952.0
945.0
924.0
892.0
857.0
834.0
831.0
850.0
888.0
933.0
978.0
1025.0
1068.0
1105.0
1138.0
1169.0
1189.0
1203.0
1208.0
1208.0
1201.0
1192.0
1169.0
1137.0
1102.0
1069.0
1036.0
1005.0
970.0
937.0
903.0
872.0
849.0
835.0
829.0
828.0
833.0
841.0
848.0
856.0
858.0
860.0
859.0
857.0
859.0
859.0
859.0
858.0
857.0
859.0
861.0
862.0
862.0
862.0
860.0
859.0
857.0
858.0
857.0
856.0
859.0
860.0
860.0
861.0
859.0
857.0
859.0
855.0
852.0
853.0
851.0
852.0
855.0
858.0
857.0
857.0
857.0
855.0
855.0
851.0
849.0
846.0
847.0
848.0
851.0
849.0
849.0
849.0
847.0
845.0
846.0
841.0
838.0
839.0
839.0
839.0
838.0
837.0
838.0
836.0
834.0
832.0
832.0
828.0
824.0
824.0
820.0
820.0
820.0
821.0
820.0
822.0
819.0
820.0
817.0
813.0
811.0
807.0
805.0
808.0
808.0
808.0
809.0
810.0
807.0
807.0
807.0
804.0
805.0
806.0
804.0
807.0
810.0
815.0
817.0
817.0
820.0
825.0
823.0
825.0
827.0
829.0
832.0
835.0
839.0
843.0
848.0
853.0
853.0
857.0
859.0
859.0
860.0
862.0
861.0
863.0
867.0
870.0
873.0
873.0
871.0
869.0
867.0
866.0
866.0
866.0
866.0
862.0
861.0
859.0
862.0
862.0
862.0
856.0
854.0
850.0
851.0
849.0
847.0
847.0
847.0
850.0
851.0
850.0
849.0
846.0
846.0
846.0
844.0
845.0
845.0
845.0
847.0
847.0
847.0
850.0
848.0
850.0
848.0
846.0
845.0
844.0
844.0
847.0
849.0
851.0
851.0
854.0
854.0
854.0
850.0
848.0
847.0
850.0
848.0
849.0
853.0
854.0
855.0
855.0
854.0
854.0
854.0
853.0
852.0
851.0
850.0
852.0
854.0
855.0
854.0
854.0
854.0
852.0
855.0
854.0
852.0
852.0
852.0
852.0
854.0
855.0
856.0
854.0
855.0
852.0
852.0
851.0
852.0
849.0
849.0
850.0
851.0
853.0
856.0
858.0
857.0
857.0
855.0
855.0
853.0
854.0
852.0
851.0
855.0
855.0
855.0
856.0
857.0
855.0
854.0
852.0
852.0
852.0
850.0
851.0
853.0
853.0
854.0
856.0
855.0
853.0
853.0
853.0
850.0
850.0
849.0
847.0
849.0
854.0
854.0
855.0
855.0
852.0
850.0
849.0
849.0
849.0
849.0
848.0
850.0
853.0
852.0
856.0
856.0
854.0
854.0
852.0
850.0
848.0
851.0
849.0
852.0
852.0
852.0
853.0
851.0
850.0
851.0
849.0
849.0
850.0
849.0
851.0
852.0
856.0
855.0
858.0
856.0
856.0
854.0
852.0
846.0
850.0
848.0
850.0
851.0
853.0
854.0
856.0
855.0
856.0
854.0
852.0
852.0
853.0
850.0
853.0
854.0
856.0
857.0
857.0
859.0
856.0
856.0
855.0
852.0
853.0
850.0
850.0
855.0
853.0
853.0
858.0
858.0
856.0
855.0
855.0
855.0
854.0
853.0
853.0
855.0
853.0
857.0
858.0
857.0
859.0
860.0
857.0
855.0
855.0
853.0
856.0
857.0
859.0
860.0
862.0
860.0
861.0
860.0
858.0
859.0
859.0
858.0
857.0
857.0
859.0
862.0
861.0
861.0
861.0
860.0
860.0
860.0
863.0
865.0
866.0
866.0
869.0
870.0
869.0
870.0
865.0
862.0
858.0
852.0
851.0
849.0
849.0
849.0
850.0
852.0
852.0
854.0
854.0
852.0
846.0
843.0
844.0
852.0
866.0
884.0
903.0
919.0
929.0
930.0
920.0
899.0
869.0
843.0
839.0
854.0
894.0
951.0
1010.0
1070.0
1124.0
1176.0
1217.0
1254.0
1279.0
1292.0
1291.0
1282.0
1269.0
1251.0
1223.0
1189.0
1150.0
1111.0
1071.0
1029.0
981.0
931.0
888.0
844.0
819.0
803.0
797.0
798.0
804.0
809.0
814.0
818.0
819.0
821.0
822.0
823.0
824.0
824.0
825.0
826.0
827.0
827.0
828.0
827.0
825.0
822.0
823.0
825.0
824.0
825.0
827.0
827.0
826.0
826.0
825.0
822.0
826.0
823.0
823.0
820.0
822.0
821.0
822.0
825.0
824.0
825.0
824.0
823.0
822.0
819.0
817.0
816.0
816.0
816.0
819.0
819.0
820.0
820.0
818.0
818.0
815.0
811.0
811.0
809.0
810.0
812.0
812.0
811.0
812.0
810.0
814.0
809.0
807.0
808.0
804.0
802.0
803.0
798.0
799.0
801.0
802.0
799.0
801.0
800.0
797.0
795.0
792.0
792.0
793.0
793.0
794.0
796.0
796.0
798.0
798.0
797.0
796.0
796.0
797.0
798.0
799.0
801.0
803.0
807.0
810.0
810.0
815.0
816.0
814.0
819.0
820.0
822.0
827.0
829.0
835.0
839.0
843.0
845.0
848.0
850.0
852.0
851.0
853.0
855.0
856.0
859.0
860.0
864.0
865.0
867.0
867.0
866.0
865.0
863.0
859.0
857.0
858.0
854.0
856.0
856.0
855.0
855.0
851.0
845.0
843.0
838.0
835.0
836.0
835.0
833.0
832.0
831.0
831.0
833.0
831.0
832.0
829.0
827.0
826.0
824.0
826.0
827.0
828.0
829.0
830.0
830.0
830.0
830.0
826.0
829.0
827.0
827.0
829.0
831.0
833.0
834.0
837.0
838.0
836.0
835.0
831.0
833.0
832.0
833.0
833.0
840.0
839.0
840.0
843.0
843.0
841.0
844.0
840.0
839.0
839.0
842.0
842.0
844.0
847.0
849.0
849.0
849.0
848.0
848.0
847.0
845.0
845.0
847.0
846.0
848.0
849.0
850.0
852.0
853.0
853.0
852.0
846.0
845.0
845.0
845.0
848.0
847.0
850.0
852.0
851.0
853.0
854.0
853.0
849.0
850.0
849.0
847.0
849.0
849.0
849.0
850.0
855.0
855.0
857.0
855.0
854.0
851.0
849.0
851.0
851.0
850.0
850.0
854.0
853.0
852.0
853.0
854.0
854.0
850.0
848.0
851.0
850.0
849.0
851.0
855.0
853.0
856.0
853.0
853.0
852.0
851.0
852.0
851.0
851.0
854.0
856.0
860.0
859.0
859.0
859.0
856.0
857.0
855.0
855.0
853.0
854.0
853.0
856.0
856.0
859.0
861.0
857.0
858.0
857.0
854.0
853.0
853.0
850.0
853.0
854.0
856.0
857.0
860.0
859.0
859.0
857.0
857.0
854.0
852.0
854.0
855.0
857.0
855.0
857.0
858.0
856.0
857.0
856.0
856.0
854.0
852.0
855.0
856.0
858.0
859.0
860.0
859.0
857.0
858.0
854.0
853.0
851.0
855.0
853.0
856.0
856.0
857.0
860.0
860.0
858.0
859.0
858.0
857.0
855.0
855.0
856.0
858.0
858.0
860.0
861.0
863.0
863.0
862.0
861.0
856.0
857.0
856.0
856.0
857.0
859.0
860.0
863.0
861.0
859.0
857.0
856.0
854.0
855.0
855.0
856.0
858.0
861.0
861.0
860.0
860.0
862.0
861.0
859.0
857.0
859.0
857.0
858.0
859.0
860.0
862.0
865.0
863.0
865.0
864.0
862.0
861.0
861.0
860.0
862.0
862.0
865.0
867.0
866.0
865.0
866.0
866.0
869.0
869.0
868.0
871.0
875.0
875.0
876.0
876.0
877.0
876.0
871.0
870.0
868.0
865.0
864.0
863.0
865.0
870.0
872.0
875.0
877.0
880.0
879.0
876.0
874.0
870.0
865.0
861.0
857.0
856.0
856.0
856.0
858.0
859.0
859.0
858.0
857.0
855.0
854.0
854.0
855.0
855.0
854.0
855.0
852.0
856.0
863.0
878.0
889.0
906.0
921.0
932.0
934.0
930.0
913.0
890.0
868.0
856.0
863.0
892.0
934.0
988.0
1041.0
1090.0
1138.0
1183.0
1227.0
1261.0
1287.0
1298.0
1295.0
1282.0
1257.0
1223.0
1181.0
1134.0
1090.0
1046.0
1005.0
962.0
923.0
884.0
850.0
825.0
807.0
798.0
796.0
800.0
803.0
812.0
820.0
825.0
828.0
829.0
830.0
829.0
829.0
828.0
827.0
825.0
826.0
827.0
828.0
828.0
831.0
830.0
829.0
829.0
829.0
826.0
824.0
823.0
824.0
825.0
824.0
827.0
830.0
829.0
828.0
827.0
823.0
823.0
821.0
820.0
822.0
824.0
825.0
823.0
825.0
825.0
825.0
821.0
820.0
816.0
818.0
815.0
816.0
817.0
817.0
818.0
819.0
819.0
816.0
815.0
813.0
811.0
809.0
806.0
806.0
806.0
802.0
806.0
807.0
806.0
805.0
803.0
802.0
800.0
796.0
792.0
793.0
795.0
793.0
796.0
794.0
797.0
794.0
795.0
792.0
790.0
789.0
784.0
785.0
785.0
790.0
790.0
794.0
795.0
799.0
798.0
796.0
801.0
802.0
802.0
805.0
806.0
811.0
815.0
818.0
825.0
829.0
828.0
833.0
833.0
837.0
838.0
837.0
843.0
849.0
852.0
855.0
860.0
863.0
865.0
864.0
867.0
864.0
865.0
863.0
868.0
870.0
871.0
872.0
872.0
873.0
870.0
866.0
865.0
862.0
859.0
858.0
856.0
853.0
849.0
850.0
852.0
848.0
847.0
844.0
842.0
836.0
833.0
833.0
833.0
834.0
833.0
831.0
831.0
830.0
829.0
829.0
831.0
826.0
828.0
830.0
830.0
832.0
834.0
835.0
837.0
838.0
837.0
839.0
837.0
836.0
836.0
836.0
838.0
838.0
841.0
844.0
845.0
846.0
846.0
845.0
843.0
843.0
840.0
841.0
840.0
842.0
843.0
845.0
847.0
847.0
848.0
850.0
849.0
849.0
849.0
847.0
848.0
850.0
853.0
855.0
852.0
851.0
853.0
852.0
851.0
851.0
851.0
852.0
853.0
853.0
855.0
857.0
854.0
857.0
855.0
853.0
856.0
851.0
849.0
852.0
854.0
856.0
857.0
859.0
859.0
858.0
858.0
857.0
858.0
855.0
855.0
857.0
856.0
855.0
858.0
858.0
862.0
861.0
861.0
861.0
859.0
857.0
858.0
859.0
859.0
859.0
860.0
862.0
864.0
862.0
864.0
861.0
861.0
860.0
858.0
861.0
860.0
861.0
862.0
864.0
864.0
863.0
863.0
862.0
861.0
860.0
860.0
858.0
861.0
863.0
863.0
865.0
866.0
865.0
866.0
864.0
866.0
863.0
863.0
862.0
863.0
865.0
865.0
868.0
871.0
869.0
868.0
866.0
864.0
861.0
862.0
863.0
862.0
864.0
865.0
867.0
868.0
867.0
865.0
865.0
864.0
865.0
862.0
862.0
862.0
863.0
863.0
864.0
866.0
866.0
867.0
866.0
866.0
864.0
863.0
864.0
864.0
865.0
864.0
866.0
871.0
870.0
870.0
868.0
867.0
866.0
865.0
867.0
867.0
867.0
869.0
868.0
870.0
868.0
868.0
866.0
866.0
865.0
864.0
863.0
865.0
865.0
866.0
864.0
866.0
865.0
869.0
865.0
864.0
864.0
863.0
865.0
867.0
869.0
868.0
870.0
870.0
870.0
870.0
865.0
868.0
867.0
865.0
869.0
870.0
871.0
875.0
875.0
875.0
876.0
872.0
876.0
875.0
876.0
877.0
877.0
879.0
880.0
879.0
883.0
883.0
882.0
879.0
873.0
874.0
871.0
869.0
873.0
873.0
874.0
876.0
877.0
882.0
882.0
886.0
887.0
884.0
884.0
882.0
881.0
878.0
875.0
873.0
874.0
872.0
871.0
866.0
864.0
861.0
860.0
862.0
861.0
861.0
864.0
865.0
866.0
868.0
868.0
866.0
864.0
860.0
854.0
855.0
859.0
870.0
885.0
904.0
923.0
934.0
941.0
945.0
941.0
925.0
902.0
870.0
855.0
852.0
873.0
913.0
963.0
1015.0
1068.0
1117.0
1160.0
1195.0
1228.0
1257.0
1275.0
1284.0
1285.0
1277.0
1261.0
1241.0
1207.0
1166.0
1124.0
1081.0
1042.0
1002.0
958.0
915.0
878.0
849.0
830.0
819.0
812.0
811.0
813.0
815.0
818.0
817.0
822.0
825.0
830.0
833.0
835.0
840.0
840.0
840.0
837.0
836.0
831.0
832.0
832.0
835.0
836.0
834.0
838.0
838.0
836.0
834.0
834.0
835.0
833.0
833.0
832.0
831.0
835.0
834.0
834.0
835.0
835.0
835.0
832.0
833.0
830.0
831.0
831.0
832.0
832.0
833.0
833.0
835.0
833.0
831.0
830.0
830.0
830.0
826.0
825.0
827.0
829.0
827.0
831.0
829.0
827.0
825.0
822.0
820.0
816.0
818.0
816.0
818.0
820.0
818.0
817.0
818.0
816.0
815.0
813.0
811.0
809.0
807.0
805.0
804.0
805.0
806.0
808.0
805.0
805.0
805.0
801.0
802.0
801.0
802.0
801.0
800.0
803.0
803.0
807.0
808.0
810.0
808.0
811.0
811.0
810.0
810.0
812.0
816.0
820.0
824.0
827.0
832.0
832.0
836.0
837.0
837.0
838.0
841.0
840.0
844.0
853.0
856.0
861.0
862.0
863.0
865.0
866.0
868.0
868.0
869.0
871.0
871.0
872.0
872.0
873.0
872.0
872.0
872.0
866.0
864.0
862.0
859.0
855.0
855.0
855.0
853.0
852.0
852.0
848.0
846.0
844.0
840.0
839.0
836.0
832.0
834.0
832.0
833.0
834.0
834.0
834.0
833.0
833.0
831.0
830.0
828.0
828.0
827.0
829.0
835.0
834.0
834.0
837.0
836.0
835.0
834.0
836.0
836.0
837.0
837.0
839.0
843.0
843.0
844.0
845.0
844.0
843.0
840.0
841.0
842.0
843.0
843.0
845.0
849.0
851.0
852.0
851.0
851.0
848.0
848.0
846.0
847.0
846.0
845.0
846.0
849.0
852.0
853.0
854.0
854.0
852.0
850.0
849.0
847.0
845.0
849.0
850.0
853.0
855.0
857.0
857.0
856.0
855.0
856.0
851.0
853.0
853.0
853.0
853.0
853.0
857.0
855.0
857.0
854.0
855.0
853.0
854.0
852.0
853.0
853.0
856.0
857.0
859.0
858.0
856.0
855.0
855.0
854.0
852.0
851.0
851.0
852.0
854.0
856.0
855.0
857.0
858.0
857.0
855.0
853.0
854.0
854.0
852.0
852.0
855.0
856.0
855.0
859.0
858.0
858.0
852.0
855.0
854.0
853.0
853.0
851.0
853.0
853.0
856.0
856.0
857.0
855.0
855.0
856.0
854.0
852.0
853.0
851.0
854.0
856.0
857.0
859.0
855.0
856.0
854.0
853.0
853.0
853.0
854.0
853.0
853.0
853.0
856.0
856.0
856.0
854.0
854.0
854.0
855.0
853.0
853.0
854.0
855.0
855.0
856.0
858.0
855.0
856.0
853.0
852.0
853.0
850.0
852.0
854.0
855.0
856.0
858.0
857.0
859.0
857.0
855.0
855.0
855.0
851.0
853.0
854.0
856.0
854.0
858.0
859.0
859.0
858.0
855.0
856.0
854.0
852.0
853.0
853.0
857.0
855.0
859.0
859.0
859.0
858.0
857.0
856.0
856.0
856.0
857.0
858.0
861.0
862.0
861.0
865.0
865.0
863.0
863.0
862.0
860.0
858.0
859.0
861.0
864.0
866.0
871.0
872.0
873.0
870.0
872.0
870.0
867.0
863.0
864.0
864.0
861.0
864.0
863.0
864.0
864.0
861.0
865.0
866.0
867.0
870.0
870.0
871.0
868.0
866.0
866.0
864.0
861.0
858.0
855.0
852.0
848.0
848.0
848.0
850.0
851.0
853.0
854.0
856.0
855.0
852.0
849.0
846.0
847.0
846.0
854.0
866.0
887.0
908.0
924.0
937.0
941.0
935.0
910.0
876.0
845.0
828.0
837.0
870.0
918.0
973.0
1031.0
1083.0
1135.0
1174.0
1209.0
1231.0
1243.0
1243.0
1232.0
1214.0
1185.0
1153.0
1110.0
1069.0
1025.0
982.0
936.0
893.0
856.0
828.0
811.0
801.0
803.0
808.0
816.0
825.0
826.0
832.0
831.0
829.0
831.0
831.0
830.0
831.0
831.0
832.0
831.0
831.0
832.0
831.0
831.0
829.0
831.0
829.0
827.0
829.0
830.0
831.0
832.0
832.0
832.0
831.0
829.0
826.0
827.0
826.0
825.0
825.0
825.0
825.0
823.0
824.0
825.0
823.0
821.0
822.0
818.0
818.0
816.0
816.0
816.0
816.0
816.0
817.0
817.0
815.0
813.0
811.0
809.0
807.0
807.0
805.0
807.0
805.0
805.0
806.0
804.0
802.0
798.0
796.0
795.0
793.0
793.0
790.0
792.0
790.0
792.0
791.0
791.0
790.0
789.0
786.0
784.0
785.0
785.0
787.0
788.0
790.0
789.0
794.0
796.0
797.0
798.0
798.0
798.0
797.0
800.0
805.0
807.0
811.0
815.0
820.0
822.0
825.0
826.0
830.0
832.0
835.0
836.0
841.0
846.0
851.0
854.0
856.0
860.0
859.0
854.0
856.0
854.0
853.0
856.0
856.0
858.0
857.0
859.0
858.0
857.0
855.0
852.0
850.0
848.0
845.0
843.0
843.0
842.0
841.0
842.0
838.0
840.0
838.0
835.0
836.0
832.0
833.0
830.0
831.0
832.0
832.0
835.0
834.0
833.0
832.0
831.0
831.0
830.0
828.0
828.0
828.0
829.0
834.0
833.0
834.0
836.0
837.0
835.0
835.0
835.0
830.0
834.0
838.0
839.0
839.0
839.0
838.0
839.0
841.0
839.0
840.0
838.0
839.0
839.0
840.0
843.0
843.0
844.0
842.0
842.0
844.0
844.0
843.0
841.0
840.0
841.0
841.0
843.0
843.0
845.0
846.0
846.0
845.0
844.0
843.0
841.0
843.0
843.0
842.0
844.0
845.0
844.0
846.0
844.0
844.0
844.0
841.0
842.0
838.0
839.0
840.0
843.0
847.0
848.0
848.0
847.0
843.0
845.0
842.0
839.0
844.0
842.0
842.0
843.0
844.0
846.0
847.0
851.0
847.0
846.0
846.0
844.0
845.0
845.0
845.0
848.0
850.0
849.0
852.0
850.0
850.0
849.0
847.0
847.0
846.0
845.0
845.0
847.0
848.0
850.0
852.0
851.0
847.0
846.0
846.0
845.0
846.0
846.0
846.0
846.0
850.0
855.0
852.0
853.0
852.0
850.0
849.0
848.0
846.0
847.0
847.0
847.0
850.0
851.0
853.0
852.0
851.0
852.0
849.0
849.0
846.0
847.0
849.0
849.0
851.0
853.0
854.0
854.0
853.0
853.0
852.0
850.0
848.0
849.0
850.0
851.0
851.0
851.0
853.0
855.0
852.0
850.0
849.0
845.0
845.0
845.0
845.0
846.0
853.0
854.0
855.0
855.0
852.0
852.0
849.0
847.0
848.0
847.0
848.0
848.0
850.0
854.0
853.0
853.0
853.0
852.0
849.0
849.0
847.0
849.0
849.0
849.0
852.0
853.0
856.0
859.0
857.0
857.0
856.0
855.0
856.0
855.0
854.0
856.0
857.0
860.0
863.0
865.0
866.0
866.0
866.0
865.0
866.0
864.0
865.0
864.0
865.0
864.0
864.0
864.0
861.0
862.0
859.0
858.0
860.0
