# Simple Text Format
# Sampling Rate (Hz):= 360.00
# Resolution:= 12
# Labels:= ECG
859.0
859.0
861.0
862.0
858.0
857.0
856.0
858.0
857.0
858.0
858.0
858.0
862.0
864.0
867.0
867.0
866.0
863.0
863.0
863.0
863.0
864.0
867.0
871.0
875.0
874.0
878.0
876.0
876.0
873.0
869.0
867.0
865.0
865.0
865.0
866.0
866.0
868.0
871.0
873.0
874.0
879.0
877.0
875.0
874.0
872.0
870.0
869.0
867.0
867.0
865.0
863.0
861.0
857.0
856.0
852.0
853.0
855.0
857.0
857.0
858.0
859.0
859.0
856.0
855.0
863.0
870.0
887.0
904.0
923.0
938.0
946.0
943.0
927.0
896.0
862.0
840.0
840.0
858.0
899.0
950.0
1004.0
1056.0
1104.0
1146.0
1183.0
1214.0
1234.0
1245.0
1246.0
1239.0
1222.0
1200.0
1167.0
1128.0
1088.0
1048.0
1007.0
964.0
920.0
881.0
850.0
828.0
816.0
813.0
817.0
821.0
829.0
834.0
840.0
844.0
846.0
848.0
847.0
843.0
844.0
843.0
841.0
842.0
843.0
843.0
846.0
849.0
847.0
845.0
847.0
845.0
844.0
841.0
841.0
842.0
843.0
845.0
845.0
846.0
845.0
844.0
844.0
841.0
841.0
839.0
840.0
838.0
839.0
838.0
839.0
840.0
839.0
839.0
837.0
835.0
830.0
832.0
832.0
831.0
832.0
833.0
834.0
835.0
833.0
834.0
831.0
830.0
829.0
825.0
825.0
824.0
822.0
825.0
826.0
824.0
823.0
825.0
820.0
816.0
815.0
814.0
816.0
814.0
813.0
814.0
815.0
813.0
812.0
811.0
811.0
808.0
807.0
806.0
805.0
805.0
808.0
809.0
811.0
813.0
813.0
812.0
812.0
813.0
811.0
814.0
815.0
817.0
822.0
826.0
830.0
833.0
837.0
838.0
840.0
842.0
844.0
847.0
847.0
850.0
856.0
862.0
865.0
867.0
870.0
873.0
874.0
874.0
877.0
876.0
877.0
878.0
880.0
882.0
887.0
889.0
888.0
888.0
886.0
884.0
881.0
880.0
878.0
875.0
876.0
878.0
877.0
877.0
874.0
872.0
870.0
867.0
864.0
861.0
859.0
858.0
857.0
858.0
858.0
857.0
856.0
854.0
852.0
852.0
852.0
850.0
850.0
848.0
850.0
849.0
852.0
856.0
856.0
855.0
855.0
855.0
852.0
850.0
851.0
854.0
855.0
857.0
857.0
861.0
864.0
862.0
858.0
860.0
859.0
862.0
860.0
860.0
861.0
862.0
863.0
866.0
868.0
864.0
865.0
864.0
864.0
863.0
863.0
862.0
864.0
867.0
867.0
869.0
871.0
871.0
870.0
870.0
869.0
867.0
869.0
869.0
869.0
871.0
872.0
875.0
872.0
872.0
873.0
873.0
871.0
868.0
867.0
869.0
871.0
871.0
874.0
876.0
876.0
876.0
874.0
872.0
873.0
872.0
871.0
871.0
873.0
874.0
875.0
877.0
876.0
877.0
873.0
873.0
873.0
873.0
873.0
873.0
872.0
877.0
878.0
877.0
877.0
878.0
878.0
876.0
876.0
872.0
874.0
873.0
875.0
876.0
877.0
880.0
881.0
880.0
878.0
876.0
877.0
876.0
878.0
878.0
880.0
879.0
881.0
883.0
884.0
883.0
883.0
880.0
880.0
880.0
877.0
879.0
879.0
879.0
883.0
884.0
884.0
884.0
882.0
881.0
878.0
878.0
877.0
879.0
881.0
882.0
881.0
885.0
884.0
882.0
881.0
879.0
879.0
877.0
876.0
876.0
879.0
881.0
883.0
885.0
884.0
883.0
881.0
883.0
880.0
879.0
878.0
880.0
882.0
883.0
885.0
887.0
886.0
885.0
885.0
882.0
883.0
882.0
882.0
881.0
882.0
885.0
886.0
888.0
888.0
887.0
883.0
882.0
884.0
881.0
883.0
883.0
882.0
884.0
887.0
889.0
888.0
887.0
888.0
887.0
884.0
884.0
884.0
884.0
885.0
888.0
888.0
887.0
891.0
893.0
891.0
890.0
888.0
887.0
887.0
886.0
888.0
894.0
898.0
902.0
904.0
902.0
900.0
900.0
899.0
898.0
897.0
891.0
892.0
891.0
895.0
896.0
896.0
895.0
894.0
894.0
894.0
897.0
901.0
901.0
902.0
901.0
901.0
898.0
893.0
892.0
886.0
885.0
882.0
881.0
879.0
880.0
882.0
885.0
888.0
889.0
890.0
887.0
886.0
882.0
880.0
878.0
881.0
893.0
912.0
932.0
950.0
965.0
971.0
970.0
958.0
930.0
900.0
879.0
871.0
887.0
927.0
974.0
1023.0
1080.0
1126.0
1177.0
1221.0
1258.0
1290.0
1313.0
1325.0
1323.0
1311.0
1288.0
1254.0
1211.0
1162.0
1115.0
1065.0
1018.0
974.0
932.0
895.0
867.0
849.0
837.0
833.0
838.0
843.0
848.0
851.0
854.0
856.0
856.0
858.0
860.0
863.0
865.0
864.0
866.0
868.0
866.0
866.0
864.0
864.0
862.0
862.0
862.0
863.0
865.0
868.0
867.0
868.0
869.0
868.0
864.0
862.0
860.0
860.0
861.0
860.0
861.0
861.0
864.0
865.0
864.0
864.0
861.0
857.0
859.0
859.0
858.0
858.0
859.0
859.0
861.0
863.0
860.0
860.0
856.0
854.0
853.0
851.0
850.0
853.0
855.0
855.0
858.0
854.0
851.0
850.0
851.0
848.0
848.0
846.0
846.0
845.0
846.0
845.0
849.0
847.0
845.0
843.0
842.0
840.0
837.0
836.0
836.0
837.0
837.0
838.0
840.0
839.0
839.0
839.0
839.0
837.0
834.0
839.0
842.0
844.0
847.0
848.0
852.0
856.0
858.0
861.0
863.0
863.0
864.0
867.0
871.0
873.0
880.0
885.0
890.0
895.0
901.0
900.0
902.0
904.0
905.0
908.0
911.0
912.0
916.0
918.0
922.0
923.0
922.0
923.0
923.0
920.0
917.0
919.0
920.0
918.0
919.0
919.0
919.0
917.0
917.0
914.0
910.0
908.0
903.0
900.0
898.0
898.0
899.0
897.0
898.0
893.0
893.0
891.0
889.0
887.0
886.0
886.0
888.0
887.0
890.0
892.0
893.0
893.0
890.0
888.0
889.0
890.0
890.0
890.0
892.0
895.0
896.0
897.0
896.0
900.0
898.0
900.0
901.0
901.0
900.0
900.0
903.0
905.0
905.0
907.0
909.0
911.0
911.0
911.0
909.0
909.0
910.0
908.0
910.0
910.0
911.0
913.0
915.0
915.0
914.0
913.0
913.0
912.0
912.0
911.0
911.0
913.0
916.0
916.0
920.0
921.0
919.0
922.0
919.0
919.0
917.0
916.0
914.0
915.0
919.0
921.0
922.0
923.0
921.0
922.0
920.0
920.0
917.0
918.0
920.0
920.0
922.0
923.0
925.0
926.0
924.0
924.0
924.0
924.0
919.0
921.0
922.0
920.0
923.0
923.0
925.0
926.0
927.0
928.0
925.0
923.0
924.0
924.0
924.0
926.0
928.0
932.0
931.0
930.0
929.0
928.0
925.0
926.0
924.0
925.0
926.0
927.0
929.0
931.0
931.0
932.0
933.0
932.0
929.0
928.0
928.0
926.0
927.0
929.0
932.0
932.0
933.0
933.0
932.0
930.0
930.0
929.0
928.0
926.0
929.0
929.0
929.0
931.0
934.0
935.0
933.0
933.0
932.0
930.0
928.0
927.0
928.0
928.0
930.0
932.0
934.0
936.0
932.0
933.0
934.0
931.0
927.0
928.0
928.0
927.0
928.0
932.0
934.0
933.0
933.0
933.0
930.0
930.0
931.0
930.0
930.0
930.0
932.0
932.0
933.0
935.0
937.0
931.0
932.0
930.0
931.0
930.0
928.0
931.0
934.0
933.0
932.0
934.0
936.0
935.0
934.0
933.0
933.0
932.0
934.0
935.0
935.0
937.0
938.0
941.0
940.0
940.0
938.0
936.0
935.0
936.0
939.0
943.0
944.0
947.0
949.0
949.0
948.0
947.0
943.0
940.0
939.0
937.0
938.0
937.0
938.0
940.0
942.0
945.0
946.0
948.0
948.0
951.0
947.0
945.0
942.0
939.0
938.0
936.0
933.0
932.0
927.0
929.0
928.0
927.0
925.0
923.0
926.0
926.0
929.0
930.0
929.0
929.0
927.0
923.0
924.0
920.0
922.0
927.0
939.0
955.0
973.0
989.0
1002.0
1010.0
1006.0
994.0
969.0
937.0
909.0
900.0
910.0
938.0
980.0
1028.0
1079.0
1122.0
1165.0
1202.0
1240.0
1272.0
1297.0
1317.0
1326.0
1327.0
1321.0
1305.0
1282.0
1248.0
1209.0
1171.0
1132.0
1090.0
1045.0
998.0
957.0
923.0
896.0
882.0
874.0
872.0
876.0
880.0
884.0
888.0
890.0
896.0
901.0
900.0
903.0
906.0
906.0
905.0
901.0
902.0
901.0
900.0
899.0
902.0
900.0
902.0
902.0
902.0
904.0
904.0
902.0
899.0
902.0
900.0
899.0
898.0
898.0
898.0
899.0
900.0
902.0
899.0
901.0
900.0
897.0
897.0
894.0
894.0
893.0
895.0
896.0
896.0
898.0
898.0
895.0
895.0
893.0
889.0
890.0
887.0
885.0
885.0
887.0
887.0
887.0
885.0
882.0
883.0
883.0
881.0
879.0
876.0
877.0
876.0
877.0
879.0
877.0
878.0
874.0
876.0
871.0
870.0
869.0
865.0
866.0
864.0
867.0
870.0
870.0
870.0
869.0
870.0
869.0
870.0
866.0
870.0
871.0
874.0
877.0
880.0
883.0
886.0
887.0
889.0
889.0
891.0
893.0
892.0
894.0
902.0
904.0
908.0
911.0
914.0
917.0
919.0
918.0
920.0
922.0
926.0
928.0
930.0
933.0
932.0
934.0
936.0
936.0
936.0
933.0
933.0
929.0
928.0
927.0
927.0
926.0
927.0
926.0
923.0
920.0
916.0
913.0
909.0
904.0
905.0
903.0
904.0
904.0
903.0
899.0
901.0
897.0
895.0
891.0
893.0
891.0
891.0
886.0
888.0
890.0
893.0
892.0
893.0
893.0
892.0
892.0
893.0
892.0
889.0
890.0
894.0
897.0
900.0
902.0
899.0
900.0
902.0
901.0
901.0
900.0
900.0
900.0
899.0
903.0
906.0
906.0
904.0
903.0
906.0
903.0
903.0
904.0
903.0
905.0
903.0
906.0
910.0
912.0
913.0
910.0
909.0
908.0
907.0
906.0
906.0
907.0
907.0
910.0
911.0
910.0
912.0
913.0
911.0
910.0
907.0
907.0
905.0
907.0
906.0
909.0
910.0
910.0
913.0
913.0
911.0
911.0
909.0
908.0
907.0
905.0
908.0
906.0
911.0
914.0
914.0
915.0
913.0
912.0
910.0
907.0
909.0
909.0
910.0
911.0
911.0
912.0
913.0
914.0
913.0
909.0
910.0
909.0
908.0
908.0
909.0
910.0
911.0
912.0
913.0
913.0
912.0
912.0
910.0
911.0
909.0
906.0
906.0
910.0
911.0
912.0
913.0
913.0
912.0
911.0
908.0
909.0
908.0
907.0
907.0
909.0
911.0
912.0
915.0
914.0
909.0
908.0
911.0
905.0
907.0
906.0
910.0
908.0
909.0
910.0
912.0
913.0
912.0
912.0
907.0
908.0
907.0
907.0
908.0
908.0
910.0
909.0
910.0
913.0
911.0
910.0
910.0
907.0
905.0
906.0
907.0
909.0
908.0
911.0
912.0
910.0
911.0
909.0
908.0
906.0
904.0
904.0
905.0
907.0
907.0
910.0
911.0
909.0
909.0
906.0
907.0
906.0
904.0
904.0
906.0
908.0
907.0
910.0
909.0
912.0
912.0
909.0
907.0
907.0
907.0
907.0
905.0
906.0
910.0
917.0
918.0
918.0
920.0
920.0
916.0
915.0
914.0
912.0
911.0
912.0
911.0
914.0
911.0
911.0
910.0
909.0
912.0
912.0
911.0
916.0
917.0
919.0
917.0
916.0
915.0
913.0
906.0
904.0
899.0
896.0
892.0
892.0
891.0
892.0
894.0
898.0
900.0
898.0
897.0
897.0
894.0
889.0
888.0
889.0
896.0
909.0
927.0
947.0
964.0
974.0
980.0
974.0
956.0
928.0
901.0
880.0
876.0
895.0
936.0
987.0
1039.0
1088.0
1133.0
1174.0
1210.0
1243.0
1269.0
1285.0
1295.0
1295.0
1284.0
1262.0
1237.0
1197.0
1153.0
1108.0
1064.0
1024.0
985.0
947.0
910.0
883.0
861.0
848.0
841.0
842.0
844.0
845.0
850.0
852.0
855.0
856.0
859.0
864.0
866.0
870.0
870.0
870.0
868.0
865.0
864.0
863.0
864.0
861.0
861.0
860.0
862.0
864.0
869.0
868.0
867.0
866.0
865.0
862.0
861.0
858.0
858.0
859.0
860.0
862.0
863.0
861.0
861.0
860.0
856.0
855.0
853.0
853.0
854.0
855.0
856.0
856.0
857.0
857.0
856.0
853.0
849.0
844.0
847.0
845.0
846.0
848.0
848.0
849.0
846.0
847.0
843.0
843.0
840.0
839.0
838.0
835.0
834.0
838.0
838.0
836.0
833.0
834.0
832.0
830.0
830.0
825.0
824.0
825.0
823.0
821.0
822.0
824.0
823.0
822.0
821.0
821.0
821.0
821.0
818.0
817.0
821.0
823.0
829.0
830.0
833.0
833.0
835.0
836.0
837.0
840.0
841.0
844.0
847.0
853.0
858.0
861.0
864.0
867.0
869.0
871.0
873.0
875.0
875.0
880.0
882.0
885.0
888.0
892.0
895.0
896.0
894.0
893.0
894.0
893.0
894.0
892.0
894.0
894.0
895.0
898.0
896.0
893.0
891.0
887.0
886.0
885.0
880.0
881.0
880.0
878.0
878.0
878.0
879.0
878.0
874.0
872.0
867.0
864.0
863.0
862.0
860.0
863.0
865.0
866.0
868.0
866.0
863.0
864.0
863.0
860.0
858.0
859.0
862.0
862.0
865.0
866.0
867.0
866.0
869.0
867.0
867.0
866.0
867.0
863.0
865.0
865.0
870.0
871.0
872.0
872.0
870.0
871.0
870.0
868.0
869.0
871.0
870.0
874.0
875.0
878.0
877.0
877.0
878.0
874.0
874.0
871.0
872.0
872.0
871.0
875.0
876.0
875.0
879.0
878.0
880.0
879.0
879.0
877.0
875.0
874.0
877.0
878.0
879.0
880.0
880.0
879.0
878.0
877.0
875.0
875.0
874.0
875.0
876.0
875.0
877.0
877.0
877.0
878.0
877.0
878.0
876.0
875.0
874.0
873.0
873.0
877.0
879.0
882.0
882.0
881.0
880.0
881.0
879.0
876.0
875.0
877.0
878.0
880.0
878.0
881.0
883.0
881.0
879.0
880.0
877.0
877.0
876.0
876.0
878.0
878.0
879.0
880.0
883.0
880.0
881.0
878.0
879.0
877.0
878.0
878.0
876.0
878.0
881.0
882.0
882.0
878.0
878.0
876.0
877.0
876.0
878.0
878.0
879.0
880.0
881.0
883.0
883.0
882.0
882.0
881.0
879.0
879.0
876.0
876.0
877.0
878.0
880.0
880.0
881.0
880.0
879.0
877.0
876.0
877.0
875.0
874.0
876.0
875.0
878.0
881.0
879.0
878.0
880.0
878.0
877.0
874.0
874.0
874.0
875.0
877.0
877.0
878.0
882.0
882.0
881.0
877.0
875.0
876.0
876.0
875.0
877.0
878.0
881.0
880.0
882.0
882.0
882.0
880.0
879.0
877.0
877.0
875.0
876.0
878.0
876.0
880.0
881.0
880.0
879.0
879.0
877.0
874.0
873.0
875.0
875.0
876.0
882.0
882.0
886.0
886.0
885.0
882.0
882.0
880.0
881.0
882.0
886.0
888.0
888.0
890.0
892.0
892.0
890.0
885.0
883.0
882.0
878.0
878.0
878.0
880.0
881.0
883.0
887.0
890.0
892.0
894.0
893.0
891.0
888.0
887.0
882.0
879.0
878.0
874.0
875.0
876.0
873.0
871.0
872.0
869.0
868.0
868.0
869.0
871.0
874.0
874.0
874.0
871.0
868.0
868.0
872.0
882.0
896.0
917.0
929.0
943.0
949.0
949.0
938.0
915.0
884.0
858.0
850.0
862.0
891.0
938.0
986.0
1040.0
1091.0
1135.0
1180.0
1217.0
1249.0
1271.0
1282.0
1286.0
1278.0
1267.0
1247.0
1218.0
1180.0
1142.0
1105.0
1068.0
1027.0
985.0
939.0
898.0
861.0
833.0
816.0
807.0
809.0
815.0
824.0
831.0
834.0
839.0
840.0
843.0
841.0
841.0
840.0
841.0
841.0
841.0
842.0
845.0
844.0
843.0
842.0
839.0
839.0
838.0
839.0
840.0
841.0
842.0
843.0
843.0
843.0
841.0
838.0
839.0
839.0
837.0
837.0
837.0
838.0
839.0
841.0
840.0
840.0
839.0
837.0
835.0
834.0
831.0
834.0
835.0
834.0
836.0
837.0
835.0
834.0
831.0
831.0
830.0
829.0
826.0
827.0
827.0
824.0
827.0
825.0
826.0
825.0
824.0
822.0
818.0
818.0
814.0
812.0
814.0
815.0
814.0
815.0
813.0
812.0
811.0
807.0
805.0
802.0
803.0
804.0
803.0
805.0
807.0
808.0
807.0
807.0
807.0
807.0
807.0
809.0
808.0
813.0
816.0
817.0
822.0
824.0
826.0
827.0
831.0
832.0
833.0
836.0
839.0
843.0
847.0
848.0
852.0
856.0
857.0
859.0
862.0
865.0
863.0
866.0
867.0
871.0
873.0
877.0
877.0
877.0
877.0
878.0
876.0
875.0
873.0
871.0
869.0
868.0
867.0
867.0
865.0
863.0
862.0
858.0
855.0
852.0
849.0
846.0
842.0
843.0
843.0
842.0
844.0
842.0
838.0
837.0
836.0
833.0
831.0
831.0
831.0
833.0
833.0
832.0
832.0
834.0
837.0
836.0
833.0
833.0
835.0
835.0
835.0
838.0
838.0
840.0
842.0
845.0
844.0
842.0
842.0
842.0
841.0
843.0
840.0
844.0
846.0
847.0
850.0
851.0
849.0
846.0
847.0
844.0
844.0
847.0
848.0
850.0
848.0
851.0
854.0
854.0
854.0
851.0
852.0
850.0
849.0
850.0
850.0
849.0
852.0
854.0
853.0
854.0
855.0
853.0
852.0
850.0
852.0
851.0
852.0
851.0
852.0
852.0
852.0
853.0
853.0
852.0
850.0
847.0
852.0
852.0
853.0
850.0
851.0
853.0
855.0
854.0
855.0
854.0
854.0
851.0
852.0
852.0
852.0
852.0
853.0
855.0
855.0
855.0
856.0
853.0
853.0
852.0
854.0
852.0
852.0
852.0
854.0
853.0
855.0
855.0
854.0
855.0
852.0
851.0
852.0
851.0
851.0
852.0
851.0
853.0
855.0
857.0
858.0
858.0
855.0
852.0
853.0
851.0
848.0
851.0
852.0
856.0
856.0
855.0
854.0
855.0
855.0
853.0
853.0
852.0
853.0
855.0
854.0
854.0
858.0
859.0
858.0
858.0
856.0
855.0
853.0
851.0
854.0
851.0
853.0
856.0
856.0
858.0
856.0
858.0
856.0
854.0
853.0
853.0
853.0
854.0
855.0
854.0
856.0
859.0
859.0
857.0
856.0
854.0
851.0
853.0
851.0
852.0
853.0
858.0
858.0
858.0
860.0
859.0
857.0
853.0
853.0
850.0
851.0
852.0
854.0
856.0
859.0
859.0
856.0
856.0
854.0
851.0
851.0
850.0
851.0
856.0
859.0
859.0
861.0
861.0
861.0
859.0
856.0
857.0
857.0
857.0
857.0
865.0
867.0
869.0
871.0
872.0
872.0
871.0
866.0
864.0
861.0
857.0
859.0
860.0
857.0
859.0
863.0
864.0
867.0
872.0
870.0
871.0
869.0
868.0
864.0
860.0
858.0
858.0
859.0
858.0
856.0
854.0
852.0
849.0
849.0
846.0
849.0
849.0
850.0
852.0
850.0
850.0
850.0
849.0
846.0
844.0
844.0
843.0
842.0
849.0
859.0
877.0
895.0
914.0
926.0
933.0
936.0
928.0
905.0
874.0
844.0
821.0
821.0
839.0
873.0
922.0
967.0
1010.0
1054.0
1091.0
1128.0
1161.0
1191.0
1215.0
1231.0
1237.0
1235.0
1225.0
1207.0
1180.0
1147.0
1105.0
1062.0
1020.0
977.0
933.0
894.0
858.0
834.0
818.0
808.0
806.0
807.0
810.0
815.0
819.0
822.0
825.0
828.0
831.0
834.0
835.0
836.0
833.0
831.0
825.0
825.0
824.0
824.0
824.0
826.0
829.0
830.0
831.0
829.0
827.0
829.0
828.0
823.0
824.0
825.0
823.0
826.0
827.0
827.0
830.0
828.0
829.0
828.0
826.0
823.0
821.0
821.0
821.0
822.0
822.0
824.0
825.0
826.0
824.0
822.0
820.0
819.0
819.0
817.0
818.0
818.0
814.0
816.0
817.0
816.0
817.0
814.0
811.0
810.0
808.0
806.0
806.0
803.0
806.0
806.0
808.0
806.0
804.0
803.0
801.0
796.0
796.0
796.0
791.0
791.0
794.0
793.0
791.0
794.0
791.0
789.0
788.0
785.0
785.0
783.0
784.0
786.0
786.0
787.0
787.0
788.0
788.0
789.0
790.0
791.0
792.0
794.0
796.0
799.0
803.0
804.0
811.0
813.0
815.0
816.0
818.0
819.0
824.0
825.0
830.0
834.0
838.0
842.0
845.0
849.0
850.0
851.0
853.0
854.0
855.0
856.0
857.0
860.0
861.0
863.0
863.0
864.0
861.0
860.0
856.0
855.0
853.0
851.0
851.0
849.0
848.0
847.0
845.0
844.0
845.0
841.0
837.0
838.0
833.0
831.0
831.0
830.0
832.0
834.0
832.0
834.0
834.0
834.0
831.0
828.0
829.0
828.0
828.0
829.0
830.0
833.0
834.0
834.0
834.0
834.0
833.0
831.0
832.0
833.0
832.0
834.0
838.0
836.0
837.0
836.0
841.0
840.0
840.0
838.0
837.0
835.0
838.0
841.0
840.0
841.0
844.0
844.0
843.0
843.0
840.0
839.0
840.0
839.0
840.0
842.0
844.0
841.0
846.0
847.0
844.0
843.0
843.0
843.0
842.0
842.0
843.0
844.0
844.0
847.0
848.0
847.0
847.0
848.0
846.0
841.0
844.0
845.0
846.0
846.0
845.0
847.0
847.0
848.0
849.0
845.0
847.0
842.0
842.0
845.0
845.0
847.0
850.0
850.0
850.0
849.0
849.0
846.0
845.0
845.0
846.0
845.0
845.0
845.0
848.0
847.0
853.0
850.0
848.0
848.0
847.0
845.0
843.0
843.0
846.0
845.0
843.0
846.0
847.0
851.0
850.0
847.0
849.0
846.0
846.0
844.0
845.0
847.0
848.0
850.0
852.0
851.0
851.0
849.0
849.0
846.0
846.0
846.0
845.0
848.0
848.0
848.0
852.0
850.0
848.0
847.0
846.0
845.0
843.0
845.0
845.0
846.0
850.0
851.0
853.0
852.0
852.0
849.0
849.0
846.0
846.0
846.0
846.0
847.0
849.0
849.0
851.0
851.0
853.0
851.0
849.0
848.0
848.0
847.0
845.0
846.0
847.0
852.0
852.0
852.0
851.0
849.0
848.0
847.0
846.0
843.0
848.0
848.0
852.0
849.0
856.0
855.0
852.0
849.0
850.0
850.0
848.0
846.0
847.0
849.0
850.0
849.0
849.0
851.0
851.0
851.0
849.0
846.0
847.0
846.0
846.0
846.0
849.0
851.0
853.0
855.0
852.0
853.0
854.0
849.0
853.0
851.0
851.0
848.0
854.0
857.0
863.0
865.0
865.0
864.0
864.0
863.0
859.0
856.0
856.0
855.0
857.0
857.0
856.0
857.0
857.0
857.0
857.0
857.0
859.0
860.0
861.0
864.0
866.0
866.0
868.0
864.0
860.0
859.0
853.0
851.0
848.0
844.0
841.0
844.0
845.0
848.0
848.0
848.0
849.0
847.0
846.0
845.0
842.0
835.0
838.0
838.0
841.0
852.0
866.0
885.0
903.0
919.0
926.0
930.0
919.0
898.0
869.0
847.0
844.0
864.0
909.0
966.0
1026.0
1088.0
1143.0
1190.0
1232.0
1262.0
1280.0
1285.0
1275.0
1251.0
1221.0
1176.0
1123.0
1070.0
1019.0
970.0
924.0
878.0
839.0
811.0
792.0
785.0
789.0
792.0
798.0
805.0
808.0
811.0
813.0
813.0
817.0
818.0
820.0
821.0
820.0
820.0
819.0
818.0
817.0
817.0
816.0
814.0
813.0
817.0
817.0
819.0
818.0
819.0
819.0
819.0
816.0
815.0
813.0
813.0
812.0
814.0
814.0
815.0
816.0
817.0
815.0
815.0
812.0
810.0
809.0
806.0
809.0
807.0
806.0
809.0
810.0
808.0
808.0
806.0
806.0
802.0
800.0
800.0
798.0
798.0
801.0
800.0
800.0
800.0
797.0
795.0
794.0
791.0
789.0
786.0
786.0
787.0
783.0
783.0
786.0
787.0
784.0
783.0
781.0
779.0
778.0
778.0
778.0
779.0
782.0
785.0
787.0
786.0
785.0
787.0
785.0
787.0
787.0
789.0
791.0
795.0
796.0
801.0
804.0
808.0
809.0
812.0
813.0
815.0
818.0
819.0
821.0
825.0
827.0
832.0
837.0
838.0
844.0
844.0
846.0
846.0
848.0
848.0
849.0
850.0
853.0
854.0
857.0
856.0
857.0
853.0
852.0
849.0
849.0
846.0
843.0
844.0
841.0
838.0
840.0
838.0
837.0
835.0
830.0
827.0
825.0
823.0
821.0
820.0
819.0
819.0
821.0
821.0
820.0
819.0
820.0
815.0
815.0
813.0
815.0
815.0
815.0
818.0
820.0
821.0
819.0
820.0
817.0
819.0
820.0
820.0
819.0
821.0
823.0
825.0
827.0
827.0
826.0
824.0
824.0
824.0
824.0
826.0
828.0
828.0
831.0
831.0
834.0
837.0
832.0
833.0
832.0
831.0
828.0
828.0
828.0
830.0
832.0
833.0
835.0
834.0
834.0
834.0
834.0
833.0
833.0
833.0
835.0
834.0
836.0
841.0
841.0
840.0
841.0
840.0
837.0
835.0
836.0
838.0
837.0
838.0
841.0
842.0
843.0
842.0
841.0
840.0
839.0
837.0
837.0
836.0
838.0
841.0
842.0
841.0
845.0
844.0
842.0
841.0
842.0
840.0
840.0
839.0
839.0
840.0
841.0
843.0
845.0
845.0
846.0
845.0
843.0
841.0
840.0
840.0
840.0
841.0
845.0
844.0
848.0
847.0
846.0
846.0
845.0
842.0
841.0
842.0
841.0
844.0
846.0
845.0
847.0
848.0
847.0
845.0
844.0
844.0
842.0
841.0
841.0
843.0
845.0
844.0
848.0
847.0
846.0
847.0
845.0
844.0
843.0
844.0
845.0
843.0
845.0
847.0
849.0
848.0
848.0
849.0
847.0
846.0
847.0
844.0
844.0
845.0
846.0
847.0
850.0
849.0
850.0
847.0
846.0
848.0
844.0
846.0
844.0
847.0
848.0
849.0
851.0
851.0
851.0
850.0
850.0
849.0
849.0
844.0
845.0
845.0
849.0
851.0
853.0
853.0
850.0
850.0
850.0
847.0
846.0
848.0
848.0
848.0
849.0
849.0
852.0
849.0
848.0
847.0
851.0
852.0
848.0
847.0
847.0
848.0
849.0
850.0
853.0
853.0
853.0
852.0
851.0
850.0
849.0
848.0
852.0
853.0
855.0
859.0
858.0
860.0
860.0
857.0
856.0
858.0
859.0
860.0
862.0
864.0
865.0
865.0
868.0
865.0
866.0
860.0
857.0
858.0
857.0
855.0
856.0
860.0
862.0
865.0
868.0
870.0
869.0
869.0
866.0
862.0
858.0
853.0
852.0
852.0
853.0
853.0
853.0
854.0
853.0
850.0
849.0
850.0
849.0
850.0
850.0
849.0
848.0
850.0
849.0
851.0
848.0
851.0
857.0
872.0
891.0
912.0
929.0
933.0
925.0
899.0
868.0
840.0
827.0
841.0
874.0
923.0
973.0
1025.0
1073.0
1117.0
1158.0
1191.0
1217.0
1231.0
1235.0
1230.0
1219.0
1204.0
1174.0
1139.0
1100.0
1063.0
1027.0
987.0
944.0
904.0
866.0
836.0
815.0
804.0
803.0
806.0
808.0
818.0
823.0
828.0
832.0
835.0
837.0
836.0
834.0
834.0
831.0
830.0
829.0
830.0
829.0
831.0
833.0
832.0
833.0
831.0
830.0
829.0
829.0
827.0
827.0
829.0
829.0
830.0
832.0
833.0
832.0
829.0
827.0
828.0
825.0
824.0
824.0
823.0
824.0
824.0
826.0
824.0
824.0
822.0
821.0
820.0
819.0
817.0
816.0
817.0
818.0
818.0
820.0
820.0
818.0
816.0
814.0
813.0
810.0
810.0
809.0
809.0
809.0
808.0
807.0
806.0
805.0
804.0
800.0
801.0
798.0
796.0
796.0
794.0
795.0
797.0
796.0
796.0
796.0
794.0
793.0
794.0
792.0
789.0
789.0
795.0
795.0
797.0
800.0
801.0
802.0
802.0
803.0
802.0
803.0
804.0
807.0
808.0
810.0
812.0
818.0
825.0
826.0
828.0
829.0
831.0
835.0
836.0
839.0
841.0
848.0
854.0
855.0
861.0
860.0
861.0
860.0
863.0
863.0
861.0
863.0
863.0
865.0
864.0
864.0
864.0
862.0
859.0
857.0
855.0
853.0
850.0
846.0
847.0
846.0
843.0
845.0
842.0
840.0
839.0
836.0
833.0
831.0
830.0
828.0
829.0
827.0
828.0
830.0
829.0
830.0
826.0
824.0
825.0
823.0
823.0
824.0
824.0
828.0
829.0
830.0
830.0
829.0
829.0
829.0
828.0
826.0
831.0
829.0
830.0
832.0
834.0
837.0
838.0
837.0
836.0
837.0
835.0
835.0
833.0
835.0
839.0
840.0
839.0
843.0
843.0
842.0
842.0
840.0
839.0
838.0
839.0
839.0
840.0
840.0
841.0
844.0
844.0
843.0
842.0
841.0
841.0
842.0
841.0
840.0
841.0
845.0
846.0
845.0
846.0
847.0
842.0
838.0
839.0
842.0
841.0
841.0
842.0
844.0
845.0
844.0
845.0
848.0
847.0
845.0
844.0
844.0
844.0
844.0
845.0
845.0
847.0
849.0
849.0
848.0
848.0
847.0
845.0
844.0
845.0
843.0
844.0
846.0
848.0
848.0
851.0
849.0
846.0
846.0
845.0
845.0
843.0
844.0
846.0
847.0
848.0
847.0
849.0
849.0
847.0
847.0
845.0
844.0
842.0
843.0
846.0
847.0
848.0
850.0
849.0
850.0
847.0
848.0
847.0
844.0
846.0
845.0
848.0
848.0
850.0
850.0
851.0
848.0
848.0
848.0
848.0
845.0
845.0
845.0
846.0
848.0
849.0
852.0
852.0
849.0
849.0
847.0
845.0
846.0
846.0
846.0
846.0
849.0
850.0
850.0
853.0
851.0
852.0
849.0
846.0
848.0
847.0
848.0
849.0
851.0
851.0
852.0
852.0
853.0
853.0
850.0
850.0
849.0
847.0
848.0
849.0
851.0
853.0
857.0
857.0
859.0
859.0
859.0
860.0
857.0
856.0
855.0
857.0
860.0
862.0
865.0
867.0
867.0
865.0
861.0
858.0
858.0
855.0
853.0
853.0
853.0
856.0
856.0
856.0
857.0
854.0
850.0
853.0
853.0
854.0
857.0
