# Simple Text Format
# Sampling Rate (Hz):= 360.00
# Resolution:= 12
# Labels:= ECG
861.0
863.0
867.0
871.0
872.0
875.0
872.0
871.0
867.0
860.0
855.0
854.0
851.0
850.0
849.0
850.0
851.0
852.0
852.0
851.0
849.0
851.0
850.0
848.0
846.0
844.0
844.0
844.0
851.0
864.0
880.0
898.0
913.0
924.0
931.0
926.0
909.0
887.0
861.0
846.0
852.0
876.0
923.0
976.0
1030.0
1084.0
1131.0
1178.0
1220.0
1256.0
1281.0
1295.0
1296.0
1288.0
1264.0
1236.0
1198.0
1149.0
1102.0
1055.0
1011.0
967.0
923.0
882.0
847.0
819.0
803.0
796.0
795.0
799.0
800.0
807.0
809.0
813.0
815.0
821.0
826.0
830.0
830.0
829.0
825.0
822.0
821.0
821.0
821.0
821.0
822.0
824.0
823.0
828.0
825.0
826.0
823.0
821.0
821.0
821.0
819.0
818.0
820.0
821.0
821.0
826.0
825.0
825.0
822.0
821.0
818.0
815.0
812.0
815.0
816.0
818.0
819.0
819.0
819.0
820.0
817.0
815.0
815.0
812.0
811.0
811.0
811.0
811.0
810.0
811.0
811.0
808.0
808.0
807.0
806.0
805.0
802.0
802.0
800.0
802.0
803.0
804.0
802.0
801.0
801.0
799.0
795.0
793.0
792.0
794.0
793.0
793.0
792.0
795.0
796.0
795.0
795.0
792.0
791.0
793.0
792.0
793.0
796.0
796.0
802.0
801.0
803.0
804.0
803.0
805.0
806.0
809.0
811.0
813.0
820.0
822.0
825.0
832.0
836.0
838.0
843.0
844.0
844.0
847.0
846.0
851.0
854.0
856.0
859.0
861.0
864.0
864.0
864.0
861.0
861.0
860.0
857.0
857.0
855.0
855.0
856.0
855.0
851.0
850.0
848.0
843.0
839.0
836.0
836.0
832.0
833.0
832.0
831.0
833.0
833.0
830.0
828.0
827.0
824.0
822.0
820.0
819.0
818.0
820.0
824.0
827.0
826.0
827.0
827.0
826.0
824.0
825.0
823.0
822.0
826.0
826.0
832.0
833.0
833.0
834.0
834.0
832.0
830.0
832.0
831.0
832.0
835.0
837.0
839.0
837.0
835.0
836.0
838.0
839.0
839.0
841.0
840.0
839.0
843.0
845.0
845.0
846.0
846.0
847.0
846.0
846.0
843.0
840.0
840.0
842.0
841.0
842.0
847.0
848.0
850.0
849.0
847.0
846.0
845.0
845.0
845.0
843.0
845.0
846.0
846.0
847.0
849.0
849.0
849.0
849.0
850.0
849.0
849.0
847.0
849.0
853.0
853.0
852.0
853.0
852.0
849.0
850.0
847.0
847.0
848.0
848.0
851.0
853.0
854.0
857.0
856.0
853.0
854.0
855.0
854.0
853.0
853.0
850.0
853.0
854.0
856.0
856.0
857.0
857.0
857.0
857.0
856.0
854.0
852.0
853.0
855.0
857.0
859.0
858.0
861.0
858.0
856.0
855.0
857.0
857.0
853.0
856.0
856.0
857.0
859.0
861.0
858.0
858.0
857.0
859.0
858.0
856.0
854.0
854.0
855.0
859.0
859.0
861.0
861.0
858.0
861.0
856.0
854.0
855.0
855.0
857.0
855.0
855.0
857.0
859.0
862.0
859.0
861.0
857.0
856.0
857.0
854.0
857.0
858.0
861.0
862.0
863.0
864.0
862.0
861.0
859.0
858.0
856.0
858.0
856.0
861.0
862.0
862.0
864.0
865.0
862.0
861.0
861.0
861.0
860.0
860.0
859.0
864.0
863.0
865.0
866.0
865.0
869.0
868.0
867.0
867.0
866.0
868.0
869.0
869.0
870.0
866.0
867.0
868.0
868.0
874.0
876.0
878.0
878.0
879.0
876.0
878.0
880.0
879.0
882.0
879.0
876.0
876.0
873.0
872.0
872.0
873.0
871.0
876.0
880.0
884.0
888.0
886.0
885.0
883.0
878.0
876.0
875.0
871.0
867.0
868.0
869.0
869.0
871.0
871.0
870.0
870.0
868.0
867.0
866.0
864.0
866.0
866.0
871.0
870.0
870.0
868.0
867.0
873.0
887.0
906.0
926.0
942.0
956.0
957.0
947.0
921.0
890.0
858.0
841.0
849.0
876.0
920.0
968.0
1016.0
1061.0
1104.0
1145.0
1180.0
1213.0
1234.0
1247.0
1251.0
1244.0
1232.0
1213.0
1184.0
1152.0
1115.0
1079.0
1042.0
1008.0
969.0
929.0
893.0
864.0
838.0
828.0
821.0
823.0
827.0
834.0
838.0
845.0
845.0
848.0
848.0
850.0
850.0
850.0
849.0
847.0
849.0
850.0
849.0
852.0
853.0
852.0
851.0
847.0
844.0
849.0
846.0
847.0
848.0
852.0
853.0
855.0
856.0
855.0
852.0
849.0
849.0
847.0
844.0
845.0
846.0
848.0
849.0
850.0
847.0
847.0
847.0
845.0
844.0
842.0
842.0
841.0
841.0
843.0
843.0
845.0
842.0
843.0
841.0
840.0
836.0
837.0
836.0
833.0
832.0
834.0
831.0
833.0
833.0
830.0
828.0
826.0
825.0
823.0
822.0
822.0
820.0
820.0
819.0
820.0
820.0
820.0
816.0
816.0
816.0
813.0
812.0
811.0
811.0
812.0
811.0
813.0
812.0
813.0
812.0
812.0
811.0
811.0
811.0
813.0
814.0
815.0
822.0
821.0
822.0
825.0
826.0
827.0
830.0
833.0
832.0
836.0
841.0
844.0
847.0
852.0
858.0
859.0
861.0
867.0
868.0
872.0
871.0
875.0
878.0
881.0
883.0
886.0
888.0
885.0
886.0
884.0
883.0
883.0
883.0
883.0
883.0
883.0
882.0
881.0
877.0
877.0
875.0
872.0
868.0
868.0
863.0
862.0
863.0
864.0
863.0
862.0
863.0
862.0
861.0
859.0
856.0
856.0
856.0
854.0
855.0
855.0
856.0
858.0
862.0
862.0
860.0
860.0
858.0
857.0
856.0
858.0
860.0
858.0
860.0
863.0
864.0
864.0
863.0
864.0
864.0
862.0
861.0
863.0
865.0
868.0
869.0
872.0
872.0
868.0
870.0
869.0
865.0
868.0
868.0
867.0
869.0
868.0
871.0
871.0
872.0
872.0
873.0
871.0
870.0
870.0
869.0
872.0
872.0
874.0
874.0
875.0
873.0
878.0
876.0
874.0
874.0
873.0
872.0
874.0
872.0
873.0
873.0
875.0
876.0
876.0
871.0
872.0
871.0
872.0
872.0
873.0
873.0
875.0
875.0
876.0
876.0
876.0
876.0
875.0
873.0
874.0
875.0
874.0
874.0
878.0
877.0
878.0
878.0
875.0
877.0
878.0
875.0
874.0
875.0
876.0
877.0
877.0
880.0
880.0
883.0
880.0
882.0
880.0
879.0
879.0
877.0
878.0
878.0
880.0
881.0
882.0
882.0
882.0
879.0
878.0
879.0
877.0
877.0
878.0
880.0
882.0
881.0
883.0
885.0
883.0
883.0
883.0
881.0
881.0
881.0
881.0
882.0
883.0
884.0
884.0
885.0
884.0
885.0
883.0
884.0
882.0
882.0
880.0
883.0
884.0
886.0
886.0
889.0
888.0
887.0
884.0
882.0
881.0
882.0
881.0
882.0
886.0
889.0
890.0
891.0
890.0
889.0
887.0
888.0
888.0
890.0
891.0
890.0
893.0
895.0
896.0
898.0
895.0
895.0
896.0
897.0
894.0
898.0
899.0
899.0
900.0
904.0
903.0
904.0
900.0
899.0
895.0
896.0
892.0
893.0
893.0
896.0
896.0
900.0
904.0
908.0
909.0
910.0
908.0
906.0
902.0
899.0
900.0
895.0
894.0
892.0
890.0
890.0
890.0
890.0
888.0
888.0
888.0
886.0
888.0
887.0
889.0
889.0
888.0
887.0
886.0
886.0
893.0
906.0
923.0
937.0
950.0
963.0
969.0
965.0
949.0
925.0
900.0
884.0
888.0
916.0
959.0
1013.0
1071.0
1128.0
1187.0
1240.0
1288.0
1323.0
1341.0
1344.0
1329.0
1301.0
1266.0
1221.0
1171.0
1122.0
1075.0
1031.0
987.0
945.0
903.0
870.0
850.0
836.0
832.0
832.0
838.0
845.0
847.0
856.0
861.0
863.0
865.0
867.0
865.0
863.0
862.0
860.0
859.0
860.0
862.0
863.0
863.0
864.0
864.0
863.0
861.0
859.0
859.0
857.0
861.0
860.0
863.0
864.0
864.0
864.0
863.0
862.0
862.0
858.0
858.0
856.0
855.0
860.0
859.0
858.0
860.0
861.0
859.0
859.0
856.0
855.0
853.0
854.0
853.0
853.0
852.0
851.0
855.0
855.0
855.0
851.0
848.0
847.0
847.0
846.0
845.0
843.0
842.0
843.0
843.0
841.0
840.0
838.0
836.0
836.0
833.0
833.0
831.0
833.0
832.0
833.0
832.0
833.0
831.0
827.0
827.0
827.0
827.0
829.0
831.0
831.0
833.0
836.0
839.0
839.0
841.0
843.0
844.0
845.0
845.0
847.0
850.0
852.0
858.0
863.0
867.0
873.0
875.0
878.0
879.0
882.0
880.0
882.0
887.0
887.0
892.0
897.0
901.0
902.0
902.0
902.0
903.0
903.0
903.0
902.0
898.0
901.0
902.0
901.0
902.0
899.0
894.0
893.0
888.0
886.0
884.0
879.0
879.0
877.0
876.0
876.0
876.0
872.0
872.0
871.0
870.0
869.0
864.0
864.0
865.0
863.0
864.0
867.0
867.0
870.0
869.0
866.0
866.0
864.0
866.0
864.0
864.0
867.0
869.0
872.0
872.0
871.0
877.0
876.0
876.0
873.0
875.0
874.0
875.0
873.0
875.0
876.0
879.0
881.0
881.0
881.0
879.0
881.0
880.0
880.0
880.0
881.0
883.0
884.0
885.0
886.0
886.0
884.0
880.0
882.0
882.0
884.0
883.0
886.0
885.0
887.0
890.0
892.0
891.0
890.0
889.0
886.0
884.0
887.0
886.0
885.0
883.0
887.0
888.0
889.0
889.0
888.0
888.0
888.0
885.0
886.0
888.0
887.0
888.0
890.0
892.0
890.0
892.0
888.0
888.0
888.0
885.0
885.0
887.0
889.0
892.0
892.0
892.0
893.0
893.0
892.0
889.0
888.0
888.0
888.0
888.0
889.0
890.0
889.0
893.0
893.0
892.0
894.0
894.0
891.0
889.0
891.0
890.0
891.0
894.0
894.0
895.0
894.0
895.0
895.0
893.0
895.0
895.0
893.0
894.0
893.0
894.0
896.0
897.0
898.0
899.0
899.0
898.0
896.0
895.0
895.0
894.0
893.0
896.0
898.0
899.0
901.0
900.0
899.0
899.0
898.0
895.0
894.0
895.0
896.0
897.0
899.0
899.0
900.0
901.0
901.0
899.0
897.0
894.0
895.0
896.0
895.0
898.0
900.0
901.0
902.0
903.0
900.0
900.0
899.0
898.0
895.0
897.0
900.0
900.0
900.0
903.0
904.0
903.0
902.0
902.0
899.0
900.0
900.0
900.0
900.0
901.0
902.0
903.0
904.0
904.0
907.0
905.0
906.0
903.0
905.0
901.0
904.0
908.0
909.0
909.0
912.0
909.0
907.0
909.0
910.0
911.0
912.0
913.0
917.0
920.0
920.0
922.0
921.0
917.0
914.0
911.0
910.0
909.0
909.0
909.0
909.0
910.0
915.0
919.0
920.0
921.0
926.0
922.0
918.0
917.0
914.0
910.0
908.0
906.0
906.0
903.0
903.0
901.0
902.0
903.0
900.0
900.0
896.0
899.0
901.0
902.0
902.0
902.0
900.0
900.0
902.0
912.0
929.0
945.0
963.0
978.0
985.0
982.0
964.0
932.0
900.0
880.0
879.0
904.0
944.0
995.0
1048.0
1099.0
1147.0
1194.0
1232.0
1261.0
1280.0
1292.0
1291.0
1278.0
1260.0
1230.0
1191.0
1146.0
1103.0
1059.0
1010.0
964.0
926.0
891.0
868.0
856.0
851.0
854.0
859.0
867.0
870.0
876.0
880.0
882.0
883.0
884.0
882.0
882.0
879.0
877.0
877.0
876.0
875.0
878.0
880.0
879.0
882.0
881.0
881.0
879.0
878.0
875.0
876.0
876.0
877.0
875.0
875.0
876.0
878.0
879.0
878.0
877.0
875.0
872.0
873.0
873.0
874.0
876.0
875.0
875.0
875.0
874.0
875.0
870.0
871.0
869.0
867.0
867.0
868.0
869.0
868.0
870.0
870.0
869.0
866.0
863.0
862.0
861.0
857.0
857.0
857.0
854.0
855.0
855.0
854.0
853.0
853.0
851.0
849.0
850.0
845.0
843.0
842.0
845.0
847.0
847.0
851.0
850.0
848.0
847.0
845.0
846.0
846.0
846.0
849.0
851.0
851.0
856.0
856.0
858.0
861.0
859.0
860.0
862.0
865.0
869.0
870.0
872.0
877.0
883.0
887.0
888.0
889.0
890.0
894.0
897.0
898.0
899.0
903.0
906.0
911.0
912.0
914.0
917.0
917.0
918.0
916.0
916.0
917.0
916.0
915.0
916.0
917.0
914.0
915.0
910.0
912.0
909.0
907.0
902.0
899.0
899.0
896.0
896.0
893.0
895.0
891.0
891.0
889.0
886.0
884.0
882.0
880.0
879.0
880.0
881.0
880.0
881.0
881.0
879.0
880.0
880.0
879.0
877.0
877.0
877.0
877.0
880.0
881.0
884.0
886.0
885.0
883.0
884.0
882.0
882.0
884.0
885.0
885.0
886.0
888.0
889.0
891.0
891.0
891.0
890.0
891.0
889.0
889.0
888.0
889.0
892.0
894.0
896.0
897.0
895.0
894.0
894.0
893.0
892.0
891.0
891.0
892.0
892.0
892.0
898.0
900.0
895.0
896.0
896.0
895.0
891.0
892.0
890.0
892.0
894.0
896.0
897.0
898.0
900.0
898.0
896.0
892.0
892.0
891.0
892.0
892.0
897.0
899.0
900.0
900.0
900.0
898.0
899.0
899.0
896.0
895.0
898.0
897.0
896.0
900.0
902.0
901.0
903.0
902.0
900.0
898.0
897.0
895.0
895.0
898.0
901.0
901.0
904.0
905.0
906.0
904.0
903.0
900.0
900.0
896.0
895.0
896.0
900.0
901.0
903.0
904.0
902.0
901.0
900.0
899.0
896.0
895.0
898.0
898.0
899.0
902.0
903.0
904.0
905.0
903.0
902.0
902.0
901.0
900.0
903.0
902.0
903.0
906.0
909.0
910.0
908.0
904.0
902.0
901.0
901.0
898.0
899.0
901.0
903.0
902.0
904.0
909.0
906.0
905.0
902.0
902.0
903.0
901.0
903.0
903.0
905.0
903.0
906.0
906.0
906.0
907.0
906.0
905.0
903.0
906.0
904.0
903.0
906.0
904.0
909.0
913.0
911.0
911.0
910.0
910.0
910.0
908.0
908.0
909.0
906.0
907.0
913.0
914.0
919.0
919.0
919.0
917.0
915.0
914.0
917.0
914.0
914.0
913.0
913.0
915.0
915.0
911.0
912.0
911.0
912.0
914.0
917.0
919.0
924.0
925.0
924.0
923.0
919.0
915.0
910.0
903.0
900.0
900.0
899.0
900.0
902.0
903.0
901.0
905.0
902.0
904.0
900.0
899.0
897.0
895.0
897.0
908.0
927.0
949.0
966.0
980.0
988.0
986.0
971.0
944.0
918.0
896.0
896.0
920.0
962.0
1015.0
1074.0
1131.0
1184.0
1234.0
1271.0
1302.0
1321.0
1329.0
1327.0
1317.0
1296.0
1270.0
1233.0
1191.0
1145.0
1103.0
1061.0
1018.0
979.0
941.0
910.0
884.0
867.0
855.0
853.0
853.0
856.0
859.0
860.0
865.0
868.0
872.0
871.0
871.0
877.0
880.0
880.0
881.0
881.0
877.0
878.0
877.0
875.0
874.0
874.0
876.0
877.0
878.0
877.0
878.0
876.0
876.0
874.0
872.0
872.0
871.0
873.0
873.0
875.0
876.0
877.0
878.0
875.0
875.0
871.0
872.0
870.0
868.0
868.0
867.0
869.0
870.0
872.0
870.0
870.0
866.0
864.0
861.0
858.0
857.0
856.0
857.0
858.0
858.0
858.0
862.0
859.0
859.0
855.0
853.0
851.0
850.0
849.0
851.0
851.0
852.0
851.0
851.0
851.0
848.0
843.0
842.0
840.0
839.0
840.0
839.0
839.0
838.0
840.0
840.0
839.0
839.0
836.0
836.0
836.0
834.0
835.0
834.0
839.0
842.0
843.0
847.0
850.0
850.0
851.0
851.0
854.0
852.0
858.0
861.0
865.0
870.0
874.0
879.0
883.0
886.0
887.0
886.0
888.0
889.0
891.0
895.0
899.0
903.0
906.0
909.0
910.0
912.0
910.0
911.0
910.0
912.0
913.0
912.0
912.0
912.0
914.0
913.0
911.0
909.0
907.0
904.0
902.0
898.0
896.0
896.0
896.0
893.0
892.0
892.0
890.0
889.0
887.0
885.0
883.0
880.0
879.0
876.0
878.0
881.0
882.0
882.0
881.0
881.0
879.0
880.0
877.0
878.0
879.0
880.0
879.0
882.0
882.0
886.0
886.0
887.0
885.0
886.0
884.0
885.0
884.0
885.0
886.0
887.0
890.0
892.0
891.0
891.0
890.0
886.0
888.0
885.0
887.0
888.0
888.0
891.0
892.0
893.0
893.0
894.0
893.0
894.0
893.0
891.0
890.0
891.0
893.0
896.0
898.0
899.0
898.0
897.0
899.0
896.0
897.0
894.0
895.0
895.0
897.0
897.0
899.0
901.0
899.0
899.0
898.0
898.0
897.0
897.0
895.0
894.0
896.0
900.0
901.0
902.0
900.0
902.0
899.0
900.0
898.0
898.0
897.0
898.0
899.0
899.0
900.0
904.0
905.0
903.0
900.0
901.0
898.0
900.0
898.0
898.0
900.0
899.0
899.0
902.0
902.0
901.0
897.0
900.0
900.0
899.0
896.0
898.0
899.0
901.0
900.0
901.0
903.0
902.0
900.0
902.0
900.0
899.0
897.0
899.0
898.0
900.0
903.0
904.0
903.0
903.0
902.0
900.0
897.0
899.0
898.0
895.0
900.0
901.0
901.0
903.0
905.0
904.0
901.0
900.0
899.0
898.0
898.0
898.0
899.0
901.0
904.0
901.0
902.0
901.0
900.0
900.0
899.0
898.0
900.0
901.0
902.0
901.0
902.0
904.0
905.0
902.0
903.0
901.0
902.0
899.0
900.0
900.0
900.0
901.0
905.0
905.0
905.0
902.0
902.0
902.0
900.0
901.0
899.0
901.0
902.0
902.0
902.0
903.0
904.0
904.0
903.0
902.0
903.0
900.0
899.0
901.0
904.0
905.0
907.0
911.0
910.0
913.0
910.0
906.0
906.0
904.0
905.0
905.0
907.0
910.0
918.0
918.0
917.0
919.0
917.0
915.0
914.0
910.0
911.0
909.0
909.0
909.0
911.0
913.0
912.0
913.0
915.0
916.0
921.0
920.0
920.0
920.0
917.0
913.0
912.0
908.0
904.0
902.0
901.0
898.0
898.0
897.0
896.0
897.0
900.0
901.0
901.0
901.0
900.0
900.0
898.0
894.0
894.0
903.0
916.0
935.0
953.0
969.0
980.0
982.0
971.0
949.0
921.0
896.0
885.0
897.0
929.0
978.0
1034.0
1089.0
1144.0
1193.0
1237.0
1274.0
1304.0
1323.0
1332.0
1328.0
1316.0
1296.0
1264.0
1225.0
1184.0
1142.0
1099.0
1056.0
1011.0
966.0
924.0
888.0
862.0
849.0
842.0
842.0
847.0
853.0
856.0
862.0
864.0
868.0
869.0
867.0
873.0
871.0
872.0
871.0
873.0
873.0
874.0
873.0
874.0
872.0
872.0
872.0
869.0
870.0
872.0
873.0
872.0
874.0
874.0
873.0
871.0
866.0
867.0
868.0
867.0
869.0
865.0
870.0
871.0
872.0
870.0
871.0
869.0
867.0
863.0
863.0
863.0
863.0
866.0
865.0
865.0
866.0
864.0
864.0
862.0
861.0
860.0
859.0
856.0
856.0
857.0
856.0
858.0
860.0
857.0
856.0
849.0
852.0
850.0
846.0
846.0
847.0
846.0
845.0
845.0
846.0
844.0
844.0
842.0
841.0
839.0
838.0
838.0
836.0
837.0
838.0
837.0
843.0
843.0
843.0
843.0
842.0
844.0
847.0
846.0
852.0
852.0
854.0
855.0
861.0
862.0
865.0
869.0
870.0
872.0
877.0
878.0
881.0
885.0
888.0
891.0
897.0
898.0
898.0
898.0
899.0
898.0
900.0
901.0
904.0
905.0
908.0
910.0
912.0
913.0
909.0
908.0
906.0
904.0
901.0
902.0
900.0
898.0
897.0
896.0
895.0
892.0
890.0
886.0
883.0
880.0
877.0
874.0
874.0
875.0
875.0
873.0
872.0
870.0
869.0
870.0
869.0
868.0
866.0
866.0
868.0
866.0
866.0
868.0
871.0
871.0
871.0
869.0
870.0
868.0
867.0
866.0
870.0
871.0
873.0
875.0
879.0
880.0
878.0
875.0
874.0
877.0
877.0
878.0
879.0
879.0
882.0
882.0
888.0
887.0
885.0
885.0
883.0
883.0
882.0
882.0
879.0
879.0
881.0
883.0
884.0
885.0
885.0
887.0
883.0
883.0
884.0
883.0
884.0
887.0
889.0
889.0
891.0
890.0
890.0
890.0
888.0
888.0
885.0
885.0
886.0
889.0
889.0
892.0
891.0
891.0
891.0
891.0
888.0
885.0
886.0
883.0
884.0
887.0
888.0
891.0
893.0
894.0
893.0
892.0
891.0
889.0
886.0
887.0
888.0
888.0
889.0
891.0
894.0
894.0
894.0
890.0
890.0
886.0
889.0
889.0
889.0
891.0
889.0
890.0
891.0
890.0
892.0
893.0
890.0
889.0
889.0
890.0
890.0
891.0
893.0
891.0
894.0
890.0
890.0
890.0
891.0
891.0
888.0
886.0
889.0
889.0
891.0
891.0
893.0
894.0
894.0
893.0
892.0
890.0
890.0
887.0
885.0
889.0
890.0
894.0
895.0
895.0
895.0
895.0
891.0
891.0
890.0
889.0
892.0
889.0
889.0
894.0
898.0
897.0
895.0
894.0
892.0
892.0
889.0
889.0
889.0
891.0
891.0
895.0
896.0
894.0
893.0
891.0
889.0
890.0
888.0
889.0
889.0
891.0
893.0
893.0
895.0
898.0
893.0
893.0
892.0
892.0
887.0
889.0
889.0
892.0
892.0
892.0
895.0
895.0
894.0
894.0
892.0
890.0
888.0
889.0
891.0
893.0
895.0
894.0
896.0
895.0
895.0
894.0
893.0
890.0
889.0
893.0
892.0
894.0
899.0
898.0
901.0
900.0
898.0
896.0
895.0
896.0
899.0
898.0
900.0
900.0
904.0
909.0
912.0
910.0
906.0
904.0
901.0
898.0
898.0
897.0
895.0
897.0
900.0
904.0
907.0
910.0
913.0
914.0
911.0
907.0
904.0
898.0
895.0
898.0
895.0
892.0
893.0
891.0
890.0
890.0
888.0
889.0
888.0
887.0
887.0
886.0
889.0
890.0
890.0
892.0
891.0
891.0
890.0
893.0
900.0
913.0
929.0
945.0
959.0
970.0
973.0
962.0
938.0
907.0
877.0
865.0
872.0
899.0
944.0
991.0
1043.0
1088.0
1133.0
1172.0
1209.0
1238.0
1257.0
1267.0
1271.0
1264.0
1253.0
1236.0
1210.0
1182.0
1146.0
1103.0
1051.0
996.0
938.0
891.0
856.0
839.0
834.0
838.0
847.0
855.0
861.0
867.0
868.0
868.0
866.0
864.0
869.0
868.0
867.0
871.0
871.0
872.0
874.0
874.0
870.0
871.0
869.0
868.0
869.0
867.0
866.0
868.0
869.0
870.0
873.0
873.0
871.0
870.0
868.0
867.0
868.0
864.0
865.0
866.0
867.0
871.0
870.0
869.0
870.0
868.0
866.0
863.0
862.0
862.0
861.0
860.0
861.0
862.0
864.0
863.0
863.0
861.0
859.0
857.0
853.0
852.0
852.0
852.0
855.0
857.0
855.0
853.0
853.0
851.0
845.0
843.0
843.0
842.0
839.0
840.0
841.0
839.0
839.0
841.0
840.0
838.0
834.0
832.0
832.0
834.0
831.0
834.0
835.0
836.0
838.0
840.0
842.0
841.0
843.0
840.0
842.0
842.0
844.0
846.0
852.0
851.0
861.0
862.0
863.0
864.0
867.0
868.0
872.0
874.0
878.0
880.0
883.0
890.0
895.0
896.0
901.0
901.0
902.0
902.0
900.0
903.0
903.0
907.0
905.0
907.0
908.0
910.0
911.0
909.0
905.0
903.0
901.0
897.0
896.0
894.0
895.0
894.0
895.0
893.0
890.0
888.0
885.0
884.0
880.0
877.0
876.0
875.0
874.0
873.0
876.0
875.0
878.0
873.0
872.0
871.0
870.0
869.0
869.0
870.0
871.0
872.0
874.0
874.0
873.0
874.0
872.0
872.0
871.0
871.0
873.0
873.0
873.0
878.0
882.0
884.0
882.0
882.0
880.0
881.0
879.0
879.0
880.0
881.0
883.0
884.0
886.0
886.0
885.0
886.0
885.0
882.0
880.0
882.0
884.0
881.0
883.0
884.0
886.0
887.0
886.0
886.0
887.0
885.0
883.0
883.0
885.0
886.0
887.0
888.0
890.0
890.0
888.0
885.0
887.0
884.0
885.0
884.0
885.0
886.0
888.0
888.0
891.0
890.0
891.0
890.0
886.0
886.0
886.0
888.0
888.0
888.0
889.0
888.0
892.0
891.0
888.0
890.0
889.0
889.0
889.0
887.0
889.0
888.0
891.0
891.0
894.0
892.0
890.0
889.0
890.0
889.0
886.0
887.0
887.0
887.0
889.0
891.0
894.0
893.0
891.0
891.0
892.0
889.0
889.0
888.0
887.0
891.0
889.0
891.0
893.0
895.0
892.0
891.0
889.0
887.0
886.0
887.0
889.0
888.0
890.0
890.0
894.0
892.0
891.0
892.0
891.0
890.0
890.0
889.0
890.0
890.0
890.0
892.0
894.0
893.0
895.0
893.0
891.0
890.0
889.0
889.0
887.0
889.0
890.0
891.0
893.0
893.0
893.0
892.0
891.0
889.0
889.0
890.0
890.0
891.0
893.0
894.0
896.0
895.0
897.0
895.0
895.0
892.0
892.0
891.0
892.0
893.0
891.0
893.0
895.0
897.0
897.0
897.0
898.0
897.0
896.0
896.0
899.0
898.0
898.0
899.0
902.0
903.0
906.0
906.0
908.0
909.0
908.0
908.0
908.0
909.0
910.0
910.0
907.0
907.0
907.0
905.0
904.0
903.0
902.0
903.0
907.0
909.0
912.0
915.0
919.0
917.0
913.0
911.0
906.0
902.0
899.0
896.0
890.0
892.0
892.0
893.0
897.0
898.0
897.0
898.0
899.0
899.0
897.0
893.0
892.0
891.0
892.0
900.0
914.0
933.0
950.0
967.0
977.0
984.0
978.0
958.0
926.0
900.0
878.0
877.0
898.0
939.0
990.0
1042.0
1091.0
1132.0
1174.0
1209.0
1242.0
1268.0
1284.0
1289.0
1287.0
1278.0
1261.0
1233.0
1198.0
1161.0
1121.0
1081.0
1042.0
1002.0
960.0
923.0
893.0
872.0
860.0
859.0
860.0
862.0
867.0
871.0
878.0
880.0
882.0
884.0
887.0
888.0
886.0
884.0
883.0
880.0
880.0
881.0
883.0
885.0
884.0
887.0
886.0
887.0
887.0
886.0
884.0
885.0
885.0
880.0
884.0
882.0
883.0
885.0
886.0
887.0
888.0
887.0
886.0
883.0
880.0
879.0
878.0
879.0
883.0
884.0
887.0
885.0
884.0
881.0
879.0
878.0
877.0
877.0
877.0
876.0
874.0
876.0
878.0
878.0
876.0
875.0
873.0
871.0
869.0
869.0
867.0
871.0
871.0
871.0
870.0
870.0
868.0
865.0
863.0
859.0
859.0
857.0
857.0
857.0
858.0
859.0
859.0
859.0
854.0
856.0
853.0
852.0
849.0
850.0
850.0
851.0
854.0
855.0
858.0
859.0
859.0
859.0
859.0
860.0
859.0
863.0
862.0
867.0
870.0
874.0
878.0
882.0
882.0
885.0
885.0
887.0
889.0
891.0
895.0
898.0
901.0
906.0
911.0
914.0
916.0
919.0
919.0
922.0
920.0
922.0
925.0
927.0
931.0
935.0
935.0
939.0
939.0
936.0
934.0
936.0
934.0
933.0
931.0
931.0
932.0
929.0
930.0
932.0
929.0
927.0
924.0
921.0
918.0
916.0
913.0
914.0
914.0
916.0
915.0
915.0
914.0
912.0
911.0
909.0
908.0
910.0
908.0
908.0
910.0
911.0
912.0
911.0
912.0
913.0
910.0
912.0
911.0
911.0
912.0
915.0
915.0
916.0
918.0
920.0
920.0
918.0
921.0
918.0
918.0
919.0
919.0
921.0
921.0
924.0
926.0
928.0
927.0
926.0
923.0
923.0
922.0
920.0
924.0
925.0
926.0
927.0
925.0
928.0
927.0
929.0
928.0
929.0
929.0
927.0
927.0
930.0
928.0
931.0
933.0
935.0
934.0
933.0
931.0
932.0
931.0
930.0
930.0
928.0
930.0
932.0
936.0
936.0
933.0
932.0
932.0
930.0
930.0
930.0
928.0
933.0
935.0
935.0
937.0
935.0
935.0
935.0
936.0
934.0
935.0
934.0
935.0
936.0
937.0
937.0
940.0
939.0
939.0
938.0
937.0
936.0
936.0
933.0
934.0
936.0
936.0
938.0
938.0
939.0
939.0
938.0
936.0
935.0
935.0
934.0
936.0
936.0
936.0
939.0
941.0
940.0
941.0
941.0
939.0
938.0
935.0
936.0
937.0
938.0
939.0
941.0
942.0
941.0
942.0
942.0
941.0
936.0
937.0
935.0
936.0
936.0
940.0
942.0
942.0
944.0
941.0
941.0
941.0
939.0
937.0
936.0
936.0
939.0
939.0
941.0
942.0
945.0
940.0
941.0
939.0
940.0
939.0
939.0
937.0
938.0
941.0
945.0
945.0
945.0
945.0
943.0
942.0
939.0
939.0
938.0
937.0
941.0
942.0
944.0
946.0
946.0
946.0
948.0
944.0
944.0
941.0
940.0
941.0
941.0
944.0
946.0
948.0
951.0
949.0
947.0
946.0
948.0
946.0
944.0
943.0
944.0
946.0
948.0
949.0
952.0
952.0
954.0
955.0
956.0
953.0
953.0
954.0
952.0
954.0
954.0
956.0
953.0
953.0
950.0
948.0
946.0
944.0
944.0
945.0
947.0
950.0
954.0
960.0
963.0
964.0
963.0
958.0
954.0
949.0
945.0
940.0
936.0
937.0
937.0
939.0
937.0
940.0
940.0
939.0
938.0
934.0
934.0
936.0
936.0
936.0
937.0
935.0
933.0
935.0
940.0
950.0
966.0
981.0
995.0
1005.0
1010.0
1010.0
998.0
977.0
951.0
929.0
922.0
937.0
972.0
1021.0
1072.0
1122.0
1172.0
1218.0
1257.0
1288.0
1314.0
1329.0
1336.0
1331.0
1319.0
1297.0
1265.0
1228.0
1190.0
1150.0
1116.0
1078.0
1040.0
996.0
955.0
919.0
895.0
881.0
878.0
881.0
886.0
895.0
900.0
906.0
911.0
911.0
911.0
914.0
913.0
910.0
908.0
909.0
909.0
908.0
909.0
910.0
910.0
910.0
909.0
908.0
906.0
904.0
906.0
903.0
904.0
905.0
906.0
906.0
906.0
905.0
903.0
903.0
903.0
902.0
901.0
901.0
901.0
902.0
902.0
904.0
903.0
903.0
903.0
899.0
898.0
898.0
898.0
898.0
897.0
899.0
900.0
899.0
900.0
898.0
896.0
894.0
890.0
