# Simple Text Format
# Sampling Rate (Hz):= 360.00
# Resolution:= 12
# Labels:= ECG
863.0
860.0
858.0
852.0
852.0
849.0
841.0
842.0
840.0
840.0
836.0
837.0
832.0
833.0
829.0
830.0
826.0
824.0
821.0
824.0
823.0
825.0
824.0
827.0
829.0
827.0
825.0
825.0
826.0
824.0
824.0
825.0
827.0
828.0
826.0
829.0
830.0
832.0
833.0
834.0
834.0
833.0
832.0
834.0
834.0
835.0
838.0
838.0
839.0
837.0
839.0
838.0
840.0
836.0
837.0
840.0
839.0
842.0
843.0
846.0
844.0
844.0
845.0
843.0
843.0
843.0
842.0
842.0
846.0
848.0
848.0
849.0
849.0
847.0
848.0
844.0
844.0
843.0
843.0
843.0
845.0
844.0
847.0
848.0
852.0
849.0
848.0
847.0
847.0
847.0
847.0
848.0
847.0
850.0
852.0
852.0
854.0
853.0
853.0
851.0
847.0
849.0
849.0
851.0
851.0
852.0
851.0
855.0
857.0
855.0
852.0
852.0
851.0
849.0
849.0
849.0
850.0
852.0
853.0
854.0
854.0
853.0
854.0
851.0
851.0
850.0
851.0
852.0
851.0
852.0
854.0
856.0
858.0
857.0
859.0
856.0
854.0
853.0
853.0
852.0
853.0
857.0
857.0
858.0
857.0
858.0
857.0
857.0
855.0
853.0
853.0
852.0
855.0
853.0
856.0
856.0
856.0
858.0
857.0
856.0
855.0
856.0
855.0
852.0
855.0
856.0
859.0
860.0
859.0
859.0
858.0
858.0
856.0
855.0
853.0
852.0
854.0
855.0
858.0
857.0
857.0
858.0
860.0
858.0
855.0
855.0
855.0
857.0
855.0
858.0
862.0
862.0
863.0
863.0
863.0
861.0
859.0
857.0
857.0
856.0
856.0
859.0
859.0
862.0
861.0
862.0
861.0
862.0
862.0
862.0
863.0
861.0
863.0
863.0
864.0
865.0
864.0
865.0
864.0
867.0
870.0
871.0
872.0
869.0
874.0
874.0
874.0
873.0
874.0
870.0
864.0
867.0
864.0
865.0
865.0
866.0
870.0
872.0
876.0
878.0
878.0
875.0
868.0
865.0
860.0
858.0
854.0
852.0
853.0
853.0
856.0
857.0
859.0
859.0
859.0
856.0
856.0
855.0
854.0
852.0
850.0
849.0
852.0
863.0
879.0
899.0
916.0
934.0
945.0
946.0
938.0
914.0
876.0
841.0
822.0
826.0
855.0
905.0
958.0
1019.0
1074.0
1126.0
1169.0
1204.0
1232.0
1250.0
1257.0
1252.0
1241.0
1225.0
1198.0
1163.0
1121.0
1080.0
1039.0
995.0
952.0
909.0
866.0
837.0
818.0
807.0
807.0
807.0
813.0
822.0
828.0
835.0
837.0
838.0
841.0
841.0
841.0
840.0
839.0
834.0
836.0
837.0
834.0
835.0
837.0
836.0
836.0
838.0
842.0
842.0
840.0
839.0
838.0
836.0
836.0
834.0
835.0
837.0
839.0
839.0
841.0
838.0
837.0
835.0
832.0
831.0
831.0
831.0
830.0
831.0
831.0
833.0
832.0
832.0
828.0
827.0
826.0
825.0
823.0
823.0
824.0
824.0
825.0
825.0
824.0
825.0
823.0
819.0
818.0
817.0
816.0
814.0
814.0
813.0
811.0
813.0
811.0
810.0
807.0
804.0
803.0
800.0
799.0
799.0
799.0
798.0
799.0
797.0
795.0
796.0
796.0
796.0
794.0
793.0
794.0
794.0
798.0
795.0
801.0
803.0
803.0
808.0
809.0
810.0
811.0
812.0
816.0
819.0
823.0
828.0
829.0
832.0
836.0
837.0
840.0
843.0
845.0
846.0
850.0
855.0
860.0
862.0
865.0
867.0
872.0
871.0
871.0
872.0
870.0
868.0
868.0
869.0
869.0
870.0
869.0
868.0
868.0
868.0
864.0
861.0
859.0
856.0
854.0
854.0
850.0
851.0
852.0
851.0
849.0
845.0
844.0
842.0
840.0
840.0
836.0
838.0
837.0
838.0
840.0
840.0
840.0
838.0
838.0
838.0
836.0
836.0
833.0
836.0
838.0
841.0
839.0
843.0
842.0
844.0
844.0
841.0
840.0
839.0
839.0
840.0
843.0
844.0
844.0
845.0
847.0
845.0
847.0
846.0
846.0
843.0
843.0
845.0
846.0
849.0
850.0
849.0
851.0
850.0
850.0
846.0
851.0
848.0
849.0
849.0
848.0
850.0
851.0
854.0
855.0
855.0
853.0
851.0
851.0
850.0
849.0
851.0
851.0
852.0
854.0
856.0
856.0
856.0
856.0
855.0
852.0
851.0
850.0
851.0
852.0
853.0
852.0
857.0
857.0
856.0
854.0
855.0
853.0
851.0
851.0
851.0
853.0
853.0
853.0
856.0
857.0
856.0
856.0
854.0
853.0
853.0
850.0
852.0
853.0
855.0
857.0
856.0
857.0
855.0
853.0
853.0
854.0
851.0
849.0
851.0
852.0
855.0
854.0
856.0
857.0
858.0
857.0
856.0
855.0
850.0
852.0
851.0
853.0
854.0
857.0
860.0
860.0
858.0
859.0
855.0
857.0
855.0
854.0
853.0
854.0
856.0
858.0
855.0
859.0
858.0
857.0
853.0
853.0
853.0
852.0
850.0
854.0
856.0
854.0
858.0
860.0
859.0
859.0
856.0
853.0
854.0
853.0
851.0
853.0
856.0
856.0
859.0
862.0
860.0
860.0
858.0
857.0
857.0
854.0
856.0
854.0
856.0
857.0
858.0
859.0
857.0
856.0
853.0
857.0
856.0
857.0
856.0
858.0
857.0
858.0
860.0
861.0
862.0
863.0
862.0
860.0
858.0
858.0
857.0
859.0
862.0
867.0
869.0
871.0
873.0
874.0
871.0
869.0
871.0
869.0
868.0
867.0
866.0
864.0
863.0
866.0
864.0
861.0
862.0
865.0
867.0
870.0
874.0
874.0
874.0
874.0
873.0
869.0
866.0
858.0
855.0
852.0
850.0
848.0
850.0
848.0
850.0
852.0
854.0
855.0
854.0
853.0
849.0
847.0
843.0
841.0
846.0
855.0
874.0
891.0
911.0
927.0
936.0
937.0
929.0
907.0
882.0
852.0
832.0
832.0
856.0
902.0
955.0
1012.0
1066.0
1115.0
1162.0
1203.0
1241.0
1274.0
1300.0
1315.0
1319.0
1308.0
1293.0
1267.0
1228.0
1180.0
1131.0
1087.0
1046.0
1006.0
965.0
921.0
880.0
844.0
818.0
800.0
792.0
791.0
791.0
795.0
799.0
802.0
807.0
813.0
817.0
822.0
824.0
825.0
823.0
822.0
819.0
816.0
816.0
815.0
817.0
817.0
819.0
820.0
819.0
823.0
820.0
819.0
818.0
818.0
816.0
817.0
815.0
817.0
816.0
818.0
817.0
820.0
822.0
820.0
817.0
818.0
815.0
812.0
814.0
815.0
815.0
815.0
817.0
818.0
817.0
818.0
816.0
812.0
812.0
809.0
810.0
810.0
810.0
811.0
812.0
812.0
810.0
808.0
808.0
806.0
806.0
803.0
799.0
800.0
801.0
802.0
801.0
802.0
801.0
800.0
798.0
793.0
791.0
791.0
790.0
791.0
791.0
790.0
791.0
790.0
789.0
789.0
787.0
785.0
781.0
783.0
783.0
783.0
787.0
788.0
790.0
793.0
793.0
792.0
794.0
796.0
795.0
798.0
798.0
803.0
808.0
811.0
814.0
820.0
823.0
826.0
825.0
827.0
828.0
830.0
834.0
837.0
841.0
846.0
849.0
852.0
852.0
854.0
854.0
855.0
854.0
856.0
857.0
857.0
857.0
860.0
859.0
863.0
861.0
858.0
856.0
852.0
849.0
848.0
846.0
843.0
845.0
841.0
841.0
840.0
836.0
834.0
830.0
826.0
822.0
824.0
821.0
821.0
823.0
821.0
822.0
822.0
819.0
819.0
816.0
817.0
816.0
816.0
815.0
817.0
819.0
819.0
820.0
824.0
823.0
820.0
822.0
822.0
823.0
820.0
822.0
825.0
826.0
828.0
830.0
831.0
829.0
831.0
829.0
830.0
827.0
828.0
830.0
831.0
832.0
832.0
833.0
836.0
837.0
837.0
835.0
833.0
830.0
830.0
835.0
839.0
836.0
841.0
842.0
842.0
842.0
844.0
842.0
840.0
837.0
837.0
838.0
837.0
840.0
840.0
841.0
844.0
844.0
843.0
840.0
839.0
839.0
839.0
839.0
840.0
843.0
843.0
845.0
846.0
846.0
845.0
842.0
839.0
838.0
840.0
839.0
842.0
844.0
844.0
845.0
847.0
844.0
844.0
843.0
844.0
841.0
841.0
841.0
840.0
842.0
844.0
846.0
848.0
846.0
846.0
845.0
845.0
842.0
840.0
841.0
842.0
847.0
849.0
849.0
851.0
849.0
851.0
850.0
847.0
847.0
846.0
845.0
845.0
848.0
852.0
852.0
852.0
854.0
850.0
849.0
849.0
849.0
846.0
846.0
847.0
848.0
852.0
853.0
853.0
852.0
850.0
850.0
847.0
848.0
846.0
847.0
848.0
849.0
850.0
853.0
852.0
852.0
853.0
852.0
850.0
850.0
846.0
847.0
850.0
852.0
853.0
854.0
854.0
853.0
853.0
852.0
848.0
849.0
846.0
846.0
847.0
850.0
852.0
855.0
856.0
856.0
855.0
856.0
855.0
852.0
850.0
854.0
854.0
855.0
853.0
855.0
857.0
857.0
856.0
856.0
856.0
854.0
852.0
854.0
855.0
857.0
859.0
857.0
858.0
860.0
860.0
861.0
863.0
863.0
866.0
866.0
869.0
868.0
868.0
869.0
866.0
865.0
864.0
861.0
858.0
858.0
856.0
858.0
859.0
864.0
865.0
869.0
874.0
873.0
873.0
869.0
863.0
855.0
851.0
850.0
849.0
847.0
849.0
849.0
850.0
852.0
850.0
849.0
846.0
845.0
844.0
845.0
845.0
842.0
842.0
849.0
857.0
875.0
896.0
914.0
931.0
936.0
937.0
921.0
891.0
855.0
824.0
815.0
827.0
862.0
912.0
967.0
1022.0
1072.0
1119.0
1162.0
1201.0
1229.0
1248.0
1256.0
1251.0
1242.0
1223.0
1196.0
1159.0
1116.0
1072.0
1032.0
989.0
943.0
903.0
864.0
836.0
817.0
806.0
801.0
800.0
801.0
810.0
815.0
819.0
825.0
826.0
830.0
833.0
834.0
837.0
832.0
831.0
830.0
828.0
829.0
828.0
828.0
828.0
832.0
834.0
833.0
833.0
831.0
828.0
826.0
826.0
826.0
827.0
825.0
828.0
831.0
829.0
831.0
830.0
829.0
823.0
821.0
823.0
822.0
822.0
823.0
826.0
827.0
826.0
824.0
823.0
821.0
819.0
816.0
817.0
816.0
815.0
816.0
818.0
818.0
819.0
819.0
816.0
815.0
812.0
810.0
810.0
809.0
806.0
807.0
806.0
805.0
806.0
805.0
805.0
803.0
801.0
797.0
796.0
794.0
792.0
793.0
794.0
795.0
795.0
793.0
793.0
791.0
789.0
787.0
789.0
787.0
787.0
789.0
793.0
795.0
800.0
804.0
805.0
805.0
809.0
808.0
809.0
811.0
815.0
819.0
824.0
830.0
834.0
838.0
841.0
845.0
846.0
849.0
849.0
853.0
855.0
859.0
863.0
865.0
868.0
870.0
870.0
868.0
865.0
864.0
865.0
866.0
865.0
864.0
865.0
865.0
864.0
862.0
858.0
854.0
853.0
848.0
845.0
842.0
841.0
841.0
842.0
844.0
842.0
842.0
838.0
838.0
836.0
832.0
831.0
833.0
833.0
833.0
833.0
835.0
835.0
836.0
834.0
831.0
830.0
829.0
831.0
827.0
831.0
831.0
834.0
835.0
838.0
839.0
838.0
837.0
836.0
836.0
837.0
836.0
836.0
840.0
841.0
844.0
843.0
840.0
838.0
841.0
841.0
840.0
841.0
842.0
843.0
842.0
843.0
845.0
846.0
847.0
847.0
844.0
843.0
841.0
842.0
842.0
843.0
841.0
841.0
846.0
849.0
849.0
848.0
844.0
843.0
843.0
845.0
845.0
845.0
847.0
847.0
848.0
850.0
847.0
847.0
845.0
845.0
844.0
843.0
844.0
847.0
849.0
850.0
850.0
851.0
847.0
848.0
848.0
847.0
846.0
846.0
846.0
843.0
846.0
847.0
849.0
852.0
850.0
848.0
847.0
847.0
844.0
845.0
843.0
847.0
847.0
848.0
850.0
850.0
848.0
849.0
846.0
846.0
844.0
845.0
845.0
846.0
849.0
847.0
849.0
850.0
850.0
849.0
848.0
845.0
843.0
844.0
843.0
845.0
846.0
847.0
849.0
852.0
851.0
852.0
850.0
848.0
845.0
845.0
846.0
847.0
848.0
848.0
850.0
853.0
853.0
852.0
851.0
849.0
846.0
846.0
845.0
848.0
848.0
850.0
851.0
852.0
850.0
849.0
849.0
849.0
850.0
847.0
846.0
849.0
849.0
850.0
851.0
854.0
851.0
849.0
848.0
847.0
847.0
849.0
847.0
847.0
849.0
847.0
849.0
850.0
851.0
852.0
850.0
849.0
848.0
848.0
849.0
849.0
850.0
852.0
851.0
853.0
855.0
855.0
853.0
853.0
851.0
851.0
852.0
853.0
852.0
854.0
855.0
858.0
860.0
862.0
862.0
860.0
859.0
859.0
857.0
859.0
865.0
865.0
866.0
864.0
861.0
858.0
856.0
856.0
854.0
853.0
853.0
855.0
859.0
863.0
870.0
870.0
869.0
869.0
865.0
861.0
858.0
852.0
851.0
847.0
845.0
845.0
845.0
846.0
845.0
844.0
845.0
843.0
841.0
842.0
843.0
841.0
840.0
839.0
838.0
836.0
841.0
846.0
857.0
876.0
891.0
905.0
917.0
926.0
927.0
913.0
890.0
860.0
838.0
834.0
857.0
897.0
952.0
1013.0
1070.0
1126.0
1180.0
1228.0
1265.0
1296.0
1311.0
1310.0
1295.0
1271.0
1233.0
1186.0
1133.0
1082.0
1035.0
983.0
932.0
886.0
843.0
811.0
790.0
780.0
777.0
781.0
786.0
794.0
801.0
806.0
811.0
815.0
818.0
818.0
817.0
814.0
812.0
811.0
810.0
813.0
813.0
813.0
815.0
815.0
816.0
814.0
814.0
812.0
812.0
809.0
808.0
809.0
811.0
809.0
811.0
813.0
813.0
814.0
812.0
810.0
807.0
806.0
805.0
805.0
808.0
809.0
811.0
813.0
811.0
811.0
807.0
807.0
804.0
800.0
799.0
799.0
797.0
800.0
800.0
801.0
798.0
798.0
796.0
796.0
792.0
791.0
788.0
790.0
790.0
789.0
789.0
789.0
788.0
787.0
786.0
784.0
781.0
779.0
779.0
778.0
778.0
777.0
778.0
779.0
778.0
779.0
776.0
775.0
775.0
774.0
776.0
779.0
777.0
781.0
784.0
786.0
788.0
790.0
791.0
793.0
793.0
797.0
801.0
803.0
808.0
811.0
816.0
821.0
824.0
826.0
829.0
830.0
831.0
833.0
835.0
837.0
840.0
847.0
850.0
853.0
854.0
854.0
854.0
853.0
851.0
850.0
850.0
849.0
849.0
849.0
849.0
847.0
848.0
844.0
841.0
836.0
834.0
828.0
828.0
825.0
823.0
822.0
823.0
824.0
822.0
820.0
819.0
816.0
814.0
812.0
810.0
809.0
810.0
811.0
812.0
813.0
813.0
813.0
810.0
809.0
812.0
812.0
812.0
812.0
814.0
816.0
816.0
819.0
818.0
820.0
819.0
821.0
818.0
819.0
818.0
820.0
823.0
824.0
826.0
826.0
827.0
826.0
825.0
825.0
824.0
822.0
821.0
824.0
823.0
828.0
830.0
831.0
830.0
831.0
830.0
830.0
827.0
827.0
827.0
829.0
833.0
832.0
835.0
835.0
836.0
835.0
834.0
833.0
831.0
831.0
833.0
834.0
834.0
834.0
833.0
837.0
835.0
837.0
837.0
833.0
831.0
831.0
833.0
833.0
834.0
837.0
837.0
839.0
838.0
838.0
836.0
837.0
837.0
834.0
837.0
835.0
836.0
837.0
839.0
840.0
839.0
839.0
835.0
835.0
832.0
832.0
834.0
835.0
836.0
836.0
838.0
840.0
841.0
839.0
838.0
834.0
834.0
833.0
833.0
834.0
835.0
839.0
840.0
842.0
840.0
840.0
837.0
835.0
835.0
835.0
837.0
837.0
837.0
840.0
840.0
844.0
842.0
842.0
839.0
839.0
838.0
838.0
838.0
838.0
836.0
842.0
842.0
844.0
846.0
843.0
843.0
839.0
838.0
838.0
838.0
836.0
837.0
837.0
841.0
841.0
840.0
839.0
841.0
837.0
837.0
836.0
837.0
840.0
840.0
842.0
843.0
843.0
839.0
841.0
837.0
837.0
838.0
834.0
836.0
836.0
836.0
839.0
841.0
842.0
837.0
841.0
840.0
839.0
839.0
838.0
835.0
837.0
838.0
841.0
843.0
843.0
843.0
843.0
843.0
843.0
841.0
842.0
842.0
843.0
843.0
843.0
847.0
847.0
849.0
850.0
851.0
850.0
851.0
851.0
850.0
852.0
850.0
852.0
852.0
853.0
850.0
849.0
845.0
845.0
849.0
847.0
849.0
854.0
855.0
859.0
858.0
858.0
854.0
852.0
848.0
841.0
838.0
836.0
832.0
833.0
835.0
835.0
838.0
840.0
840.0
839.0
835.0
835.0
833.0
831.0
827.0
829.0
839.0
855.0
876.0
897.0
915.0
923.0
922.0
904.0
878.0
840.0
818.0
813.0
837.0
885.0
945.0
1007.0
1066.0
1123.0
1169.0
1208.0
1232.0
1246.0
1248.0
1240.0
1230.0
1205.0
1177.0
1140.0
1099.0
1058.0
1019.0
974.0
928.0
884.0
847.0
816.0
800.0
789.0
791.0
792.0
797.0
801.0
801.0
804.0
807.0
809.0
809.0
812.0
815.0
814.0
817.0
816.0
818.0
816.0
814.0
813.0
812.0
812.0
810.0
812.0
813.0
814.0
813.0
816.0
814.0
811.0
811.0
811.0
810.0
810.0
809.0
809.0
810.0
811.0
812.0
815.0
814.0
810.0
811.0
808.0
810.0
809.0
808.0
807.0
807.0
809.0
809.0
810.0
807.0
806.0
806.0
802.0
803.0
801.0
799.0
798.0
799.0
801.0
802.0
803.0
801.0
799.0
796.0
796.0
795.0
791.0
792.0
791.0
791.0
790.0
792.0
793.0
791.0
792.0
789.0
786.0
784.0
782.0
783.0
783.0
783.0
784.0
785.0
786.0
786.0
786.0
782.0
781.0
783.0
783.0
784.0
783.0
789.0
790.0
792.0
795.0
797.0
798.0
798.0
800.0
802.0
802.0
804.0
809.0
811.0
818.0
822.0
826.0
831.0
832.0
832.0
836.0
833.0
836.0
837.0
841.0
847.0
850.0
853.0
856.0
857.0
857.0
856.0
856.0
854.0
852.0
853.0
853.0
851.0
852.0
850.0
853.0
850.0
847.0
843.0
840.0
838.0
833.0
831.0
829.0
828.0
827.0
827.0
826.0
825.0
821.0
818.0
816.0
817.0
811.0
811.0
809.0
811.0
812.0
813.0
813.0
813.0
812.0
814.0
811.0
811.0
812.0
809.0
810.0
815.0
817.0
819.0
821.0
821.0
819.0
820.0
819.0
817.0
820.0
818.0
821.0
824.0
824.0
825.0
826.0
828.0
831.0
830.0
829.0
828.0
827.0
826.0
828.0
829.0
830.0
833.0
834.0
835.0
833.0
835.0
832.0
830.0
830.0
830.0
832.0
830.0
833.0
832.0
836.0
839.0
838.0
837.0
837.0
833.0
835.0
833.0
834.0
833.0
836.0
836.0
839.0
838.0
839.0
838.0
834.0
832.0
834.0
832.0
834.0
836.0
837.0
839.0
839.0
838.0
839.0
837.0
835.0
834.0
832.0
833.0
833.0
835.0
836.0
837.0
839.0
839.0
840.0
841.0
837.0
836.0
836.0
835.0
834.0
837.0
838.0
839.0
840.0
841.0
835.0
837.0
837.0
836.0
833.0
835.0
835.0
834.0
835.0
835.0
841.0
841.0
840.0
837.0
839.0
834.0
834.0
834.0
834.0
835.0
836.0
837.0
837.0
835.0
839.0
839.0
835.0
834.0
832.0
832.0
833.0
834.0
834.0
837.0
840.0
839.0
839.0
838.0
839.0
835.0
833.0
835.0
835.0
835.0
837.0
838.0
840.0
839.0
839.0
840.0
839.0
835.0
835.0
837.0
833.0
834.0
836.0
838.0
839.0
841.0
841.0
839.0
839.0
838.0
835.0
835.0
832.0
835.0
832.0
837.0
839.0
843.0
843.0
841.0
841.0
840.0
841.0
844.0
842.0
844.0
843.0
840.0
844.0
844.0
848.0
851.0
852.0
852.0
855.0
853.0
851.0
853.0
854.0
850.0
853.0
848.0
847.0
844.0
842.0
840.0
844.0
842.0
844.0
848.0
849.0
855.0
856.0
857.0
858.0
856.0
848.0
844.0
840.0
836.0
834.0
835.0
834.0
835.0
835.0
837.0
837.0
833.0
834.0
833.0
832.0
830.0
832.0
830.0
828.0
826.0
827.0
830.0
838.0
853.0
873.0
891.0
903.0
914.0
916.0
909.0
881.0
850.0
824.0
818.0
847.0
893.0
954.0
1019.0
1083.0
1141.0
1189.0
1229.0
1255.0
1268.0
1267.0
1253.0
1226.0
1188.0
1139.0
1093.0
1042.0
994.0
949.0
905.0
864.0
830.0
807.0
790.0
782.0
781.0
783.0
789.0
791.0
793.0
798.0
802.0
803.0
807.0
811.0
811.0
810.0
809.0
807.0
805.0
805.0
803.0
804.0
806.0
807.0
809.0
809.0
809.0
808.0
808.0
808.0
807.0
806.0
804.0
806.0
807.0
806.0
809.0
809.0
810.0
808.0
809.0
807.0
805.0
804.0
803.0
803.0
802.0
803.0
804.0
805.0
804.0
802.0
799.0
799.0
795.0
795.0
794.0
793.0
796.0
793.0
794.0
793.0
791.0
791.0
791.0
789.0
785.0
785.0
781.0
782.0
783.0
784.0
783.0
785.0
782.0
780.0
779.0
777.0
777.0
770.0
773.0
771.0
770.0
769.0
771.0
770.0
771.0
770.0
769.0
771.0
771.0
772.0
771.0
774.0
774.0
778.0
780.0
783.0
784.0
783.0
787.0
788.0
787.0
791.0
793.0
799.0
803.0
808.0
811.0
815.0
813.0
816.0
819.0
823.0
823.0
827.0
829.0
834.0
838.0
840.0
846.0
847.0
850.0
850.0
850.0
850.0
851.0
851.0
851.0
851.0
851.0
851.0
850.0
849.0
846.0
842.0
840.0
838.0
836.0
834.0
828.0
828.0
828.0
828.0
828.0
827.0
824.0
821.0
821.0
818.0
820.0
820.0
818.0
820.0
818.0
820.0
821.0
820.0
822.0
823.0
822.0
818.0
815.0
819.0
819.0
817.0
817.0
819.0
821.0
824.0
827.0
826.0
825.0
825.0
827.0
825.0
827.0
829.0
827.0
828.0
828.0
834.0
834.0
833.0
831.0
833.0
830.0
829.0
830.0
829.0
833.0
835.0
834.0
834.0
835.0
835.0
834.0
834.0
830.0
835.0
831.0
836.0
835.0
835.0
839.0
843.0
843.0
843.0
842.0
839.0
839.0
838.0
837.0
837.0
838.0
839.0
840.0
843.0
842.0
842.0
841.0
841.0
839.0
838.0
840.0
839.0
838.0
839.0
842.0
844.0
847.0
844.0
844.0
841.0
840.0
841.0
842.0
843.0
841.0
847.0
843.0
846.0
846.0
846.0
844.0
843.0
843.0
842.0
842.0
841.0
843.0
846.0
847.0
847.0
849.0
846.0
843.0
844.0
842.0
840.0
841.0
841.0
844.0
845.0
847.0
847.0
848.0
846.0
846.0
845.0
841.0
842.0
842.0
843.0
845.0
845.0
847.0
850.0
849.0
848.0
847.0
843.0
842.0
843.0
843.0
843.0
845.0
847.0
849.0
851.0
849.0
849.0
848.0
844.0
846.0
846.0
844.0
844.0
844.0
845.0
848.0
850.0
850.0
849.0
848.0
846.0
845.0
844.0
843.0
844.0
848.0
848.0
852.0
852.0
850.0
852.0
849.0
848.0
847.0
846.0
843.0
845.0
847.0
849.0
850.0
851.0
850.0
852.0
850.0
850.0
846.0
846.0
846.0
846.0
846.0
848.0
848.0
854.0
853.0
854.0
853.0
852.0
851.0
853.0
852.0
854.0
854.0
857.0
858.0
859.0
857.0
858.0
861.0
861.0
861.0
860.0
861.0
862.0
864.0
865.0
865.0
865.0
864.0
861.0
859.0
859.0
856.0
856.0
857.0
856.0
860.0
865.0
865.0
871.0
874.0
873.0
872.0
865.0
866.0
862.0
858.0
855.0
852.0
850.0
850.0
850.0
850.0
850.0
850.0
848.0
847.0
846.0
848.0
848.0
848.0
849.0
848.0
848.0
846.0
849.0
854.0
866.0
880.0
894.0
911.0
922.0
932.0
933.0
924.0
905.0
877.0
850.0
840.0
847.0
875.0
924.0
982.0
1044.0
1108.0
1164.0
1216.0
1259.0
1287.0
1301.0
1297.0
1282.0
1255.0
1218.0
1173.0
1125.0
1078.0
1030.0
982.0
935.0
893.0
851.0
823.0
802.0
795.0
795.0
796.0
804.0
811.0
819.0
823.0
827.0
831.0
831.0
831.0
828.0
832.0
827.0
825.0
826.0
826.0
826.0
831.0
832.0
833.0
834.0
833.0
830.0
828.0
830.0
829.0
831.0
831.0
832.0
830.0
833.0
833.0
828.0
831.0
830.0
828.0
829.0
827.0
827.0
829.0
829.0
832.0
830.0
830.0
831.0
831.0
828.0
826.0
825.0
827.0
824.0
826.0
828.0
827.0
827.0
825.0
825.0
824.0
821.0
821.0
818.0
815.0
816.0
815.0
816.0
816.0
814.0
815.0
811.0
809.0
809.0
809.0
805.0
804.0
804.0
803.0
807.0
808.0
810.0
806.0
807.0
804.0
808.0
807.0
808.0
808.0
804.0
810.0
812.0
815.0
818.0
821.0
820.0
823.0
826.0
829.0
831.0
830.0
831.0
838.0
841.0
846.0
851.0
851.0
856.0
855.0
859.0
861.0
863.0
863.0
869.0
871.0
876.0
879.0
881.0
880.0
882.0
883.0
884.0
883.0
885.0
886.0
884.0
885.0
887.0
885.0
887.0
886.0
883.0
879.0
874.0
873.0
871.0
867.0
864.0
863.0
861.0
861.0
861.0
860.0
856.0
855.0
856.0
855.0
852.0
851.0
851.0
851.0
851.0
850.0
854.0
855.0
856.0
854.0
854.0
853.0
855.0
854.0
856.0
852.0
855.0
855.0
859.0
862.0
861.0
859.0
860.0
862.0
862.0
862.0
863.0
863.0
867.0
869.0
871.0
873.0
872.0
869.0
869.0
868.0
868.0
866.0
867.0
868.0
868.0
870.0
874.0
875.0
875.0
875.0
876.0
874.0
873.0
873.0
872.0
874.0
876.0
877.0
880.0
881.0
877.0
879.0
879.0
879.0
879.0
881.0
880.0
882.0
882.0
884.0
884.0
885.0
886.0
886.0
885.0
886.0
885.0
883.0
884.0
883.0
883.0
885.0
889.0
889.0
888.0
887.0
886.0
886.0
886.0
885.0
887.0
886.0
888.0
889.0
887.0
889.0
889.0
888.0
885.0
886.0
883.0
883.0
884.0
887.0
891.0
892.0
892.0
892.0
892.0
891.0
892.0
890.0
889.0
888.0
890.0
890.0
890.0
892.0
895.0
895.0
893.0
893.0
893.0
892.0
892.0
891.0
892.0
893.0
896.0
895.0
895.0
897.0
898.0
896.0
894.0
893.0
893.0
890.0
891.0
891.0
894.0
895.0
896.0
898.0
898.0
897.0
896.0
894.0
894.0
895.0
894.0
895.0
897.0
896.0
897.0
899.0
896.0
898.0
898.0
897.0
896.0
897.0
898.0
899.0
898.0
899.0
898.0
901.0
900.0
898.0
899.0
899.0
896.0
896.0
896.0
897.0
902.0
902.0
904.0
903.0
903.0
902.0
900.0
900.0
897.0
897.0
901.0
899.0
901.0
901.0
904.0
904.0
905.0
905.0
905.0
904.0
903.0
904.0
905.0
906.0
910.0
907.0
911.0
912.0
909.0
911.0
911.0
913.0
913.0
915.0
917.0
918.0
919.0
917.0
917.0
917.0
914.0
914.0
910.0
908.0
905.0
906.0
908.0
913.0
918.0
919.0
921.0
920.0
920.0
914.0
911.0
907.0
902.0
899.0
899.0
899.0
900.0
901.0
902.0
902.0
901.0
902.0
900.0
899.0
897.0
895.0
894.0
894.0
893.0
896.0
902.0
914.0
930.0
948.0
964.0
979.0
987.0
983.0
970.0
946.0
916.0
885.0
871.0
878.0
907.0
952.0
1004.0
1057.0
1108.0
1156.0
1199.0
1237.0
1266.0
1280.0
1283.0
1275.0
1252.0
1217.0
1174.0
1124.0
1078.0
1029.0
981.0
941.0
905.0
877.0
865.0
857.0
856.0
858.0
863.0
864.0
868.0
871.0
874.0
876.0
880.0
884.0
886.0
886.0
886.0
883.0
881.0
880.0
879.0
878.0
882.0
882.0
881.0
882.0
883.0
883.0
882.0
883.0
880.0
878.0
879.0
877.0
879.0
881.0
881.0
882.0
884.0
885.0
883.0
882.0
880.0
877.0
875.0
875.0
876.0
876.0
876.0
877.0
877.0
876.0
877.0
875.0
874.0
873.0
871.0
868.0
868.0
868.0
869.0
871.0
871.0
869.0
870.0
868.0
867.0
865.0
862.0
859.0
859.0
860.0
860.0
861.0
861.0
859.0
859.0
859.0
855.0
853.0
849.0
850.0
846.0
846.0
848.0
850.0
852.0
849.0
849.0
849.0
847.0
846.0
844.0
844.0
845.0
845.0
845.0
849.0
852.0
853.0
853.0
854.0
855.0
853.0
855.0
855.0
859.0
859.0
864.0
866.0
871.0
874.0
872.0
877.0
880.0
880.0
882.0
884.0
889.0
892.0
893.0
897.0
900.0
906.0
905.0
908.0
910.0
911.0
911.0
914.0
913.0
916.0
917.0
919.0
920.0
920.0
923.0
921.0
920.0
917.0
913.0
912.0
909.0
905.0
905.0
902.0
902.0
902.0
900.0
897.0
893.0
892.0
890.0
887.0
883.0
881.0
883.0
883.0
883.0
885.0
882.0
881.0
881.0
880.0
877.0
874.0
875.0
874.0
876.0
878.0
879.0
880.0
880.0
880.0
880.0
880.0
877.0
877.0
877.0
880.0
879.0
881.0
883.0
884.0
886.0
884.0
884.0
885.0
883.0
885.0
886.0
887.0
889.0
891.0
890.0
893.0
891.0
892.0
891.0
888.0
890.0
889.0
889.0
888.0
889.0
890.0
894.0
895.0
896.0
895.0
894.0
893.0
891.0
890.0
890.0
891.0
892.0
894.0
894.0
897.0
897.0
896.0
893.0
892.0
893.0
893.0
891.0
893.0
895.0
895.0
899.0
897.0
897.0
896.0
895.0
891.0
889.0
892.0
893.0
895.0
896.0
897.0
898.0
898.0
898.0
897.0
895.0
894.0
893.0
892.0
893.0
893.0
894.0
896.0
897.0
898.0
898.0
899.0
894.0
896.0
894.0
893.0
893.0
895.0
897.0
900.0
899.0
899.0
899.0
897.0
897.0
894.0
894.0
891.0
892.0
894.0
894.0
896.0
895.0
897.0
899.0
898.0
896.0
895.0
893.0
894.0
895.0
895.0
897.0
896.0
