# Simple Text Format
# Sampling Rate (Hz):= 360.00
# Resolution:= 12
# Labels:= ECG
844.0
844.0
841.0
842.0
844.0
845.0
845.0
850.0
851.0
852.0
852.0
852.0
851.0
847.0
845.0
848.0
845.0
849.0
851.0
852.0
855.0
854.0
855.0
853.0
853.0
852.0
853.0
853.0
852.0
852.0
854.0
856.0
856.0
856.0
857.0
855.0
854.0
851.0
854.0
852.0
855.0
858.0
856.0
859.0
858.0
857.0
857.0
857.0
857.0
854.0
852.0
854.0
852.0
855.0
856.0
857.0
858.0
857.0
855.0
854.0
852.0
852.0
851.0
852.0
853.0
856.0
856.0
857.0
860.0
859.0
857.0
857.0
856.0
858.0
857.0
856.0
857.0
859.0
861.0
860.0
861.0
862.0
859.0
859.0
857.0
856.0
856.0
857.0
857.0
860.0
861.0
861.0
862.0
860.0
858.0
857.0
855.0
855.0
856.0
856.0
856.0
856.0
859.0
860.0
861.0
861.0
861.0
858.0
860.0
857.0
856.0
855.0
855.0
857.0
861.0
861.0
864.0
862.0
862.0
862.0
860.0
858.0
856.0
856.0
855.0
858.0
860.0
861.0
860.0
861.0
860.0
860.0
857.0
854.0
853.0
854.0
855.0
856.0
855.0
858.0
860.0
861.0
860.0
859.0
857.0
856.0
855.0
857.0
857.0
858.0
861.0
864.0
863.0
864.0
862.0
862.0
860.0
861.0
858.0
857.0
860.0
862.0
865.0
867.0
871.0
869.0
872.0
870.0
867.0
864.0
862.0
862.0
865.0
869.0
872.0
875.0
878.0
878.0
879.0
879.0
876.0
871.0
869.0
866.0
866.0
869.0
869.0
873.0
872.0
874.0
875.0
876.0
875.0
875.0
875.0
876.0
876.0
874.0
873.0
871.0
872.0
869.0
868.0
865.0
858.0
854.0
856.0
855.0
855.0
856.0
859.0
861.0
863.0
864.0
861.0
860.0
854.0
852.0
857.0
867.0
886.0
907.0
926.0
940.0
950.0
947.0
921.0
888.0
856.0
836.0
842.0
874.0
922.0
979.0
1038.0
1091.0
1141.0
1183.0
1219.0
1247.0
1265.0
1272.0
1267.0
1258.0
1242.0
1217.0
1182.0
1144.0
1105.0
1066.0
1025.0
987.0
944.0
901.0
865.0
837.0
821.0
813.0
813.0
817.0
822.0
824.0
827.0
828.0
828.0
829.0
831.0
833.0
834.0
836.0
837.0
838.0
840.0
838.0
838.0
838.0
837.0
836.0
834.0
830.0
830.0
832.0
835.0
838.0
840.0
839.0
839.0
838.0
837.0
835.0
836.0
832.0
831.0
833.0
835.0
836.0
836.0
834.0
834.0
834.0
831.0
829.0
826.0
828.0
827.0
826.0
828.0
828.0
830.0
828.0
829.0
827.0
825.0
820.0
818.0
819.0
816.0
817.0
816.0
816.0
821.0
819.0
820.0
819.0
817.0
814.0
812.0
810.0
809.0
811.0
810.0
810.0
810.0
809.0
807.0
805.0
804.0
803.0
801.0
801.0
799.0
799.0
799.0
801.0
800.0
800.0
799.0
795.0
797.0
795.0
795.0
795.0
795.0
799.0
801.0
803.0
805.0
806.0
807.0
809.0
808.0
810.0
811.0
815.0
817.0
821.0
826.0
829.0
832.0
835.0
838.0
842.0
843.0
845.0
847.0
850.0
851.0
856.0
860.0
864.0
867.0
869.0
870.0
867.0
869.0
867.0
867.0
866.0
867.0
867.0
868.0
868.0
869.0
867.0
864.0
861.0
857.0
854.0
852.0
851.0
850.0
848.0
849.0
849.0
848.0
846.0
844.0
841.0
839.0
836.0
837.0
834.0
834.0
838.0
834.0
838.0
838.0
835.0
834.0
836.0
833.0
834.0
835.0
833.0
833.0
835.0
839.0
840.0
840.0
841.0
840.0
839.0
838.0
838.0
836.0
839.0
840.0
843.0
845.0
847.0
849.0
848.0
847.0
846.0
845.0
844.0
844.0
847.0
847.0
849.0
851.0
851.0
854.0
853.0
852.0
849.0
848.0
847.0
848.0
849.0
850.0
851.0
854.0
852.0
853.0
855.0
852.0
851.0
851.0
851.0
851.0
849.0
850.0
855.0
855.0
856.0
857.0
857.0
856.0
855.0
852.0
850.0
852.0
852.0
855.0
854.0
857.0
856.0
859.0
857.0
855.0
855.0
852.0
853.0
853.0
854.0
853.0
855.0
855.0
857.0
860.0
859.0
857.0
856.0
856.0
854.0
853.0
851.0
852.0
853.0
854.0
856.0
855.0
856.0
856.0
857.0
854.0
855.0
854.0
854.0
856.0
855.0
857.0
856.0
857.0
858.0
859.0
856.0
854.0
854.0
852.0
854.0
858.0
855.0
856.0
858.0
860.0
857.0
855.0
853.0
854.0
852.0
851.0
853.0
854.0
857.0
855.0
856.0
859.0
854.0
859.0
857.0
856.0
856.0
854.0
853.0
853.0
857.0
858.0
859.0
860.0
859.0
858.0
854.0
855.0
855.0
856.0
856.0
855.0
856.0
857.0
862.0
860.0
861.0
860.0
857.0
856.0
854.0
855.0
855.0
856.0
857.0
858.0
859.0
861.0
858.0
857.0
854.0
856.0
855.0
856.0
855.0
854.0
856.0
856.0
859.0
859.0
860.0
859.0
859.0
858.0
857.0
857.0
858.0
858.0
859.0
861.0
863.0
861.0
862.0
862.0
865.0
865.0
865.0
866.0
867.0
867.0
867.0
871.0
873.0
874.0
872.0
872.0
867.0
865.0
861.0
860.0
862.0
860.0
864.0
864.0
868.0
869.0
870.0
872.0
876.0
874.0
871.0
871.0
868.0
865.0
865.0
863.0
858.0
860.0
859.0
859.0
858.0
854.0
854.0
851.0
851.0
852.0
853.0
855.0
856.0
857.0
854.0
851.0
849.0
852.0
861.0
874.0
891.0
907.0
923.0
933.0
938.0
930.0
911.0
882.0
859.0
844.0
851.0
882.0
924.0
977.0
1033.0
1086.0
1136.0
1184.0
1223.0
1257.0
1283.0
1296.0
1293.0
1285.0
1267.0
1236.0
1199.0
1156.0
1115.0
1074.0
1031.0
995.0
954.0
915.0
876.0
845.0
822.0
808.0
800.0
801.0
805.0
810.0
814.0
817.0
820.0
822.0
826.0
826.0
827.0
827.0
828.0
829.0
830.0
831.0
829.0
829.0
826.0
826.0
825.0
826.0
825.0
828.0
827.0
828.0
828.0
830.0
830.0
829.0
827.0
825.0
825.0
825.0
824.0
824.0
825.0
825.0
825.0
825.0
827.0
824.0
824.0
821.0
820.0
818.0
818.0
817.0
817.0
818.0
817.0
819.0
818.0
817.0
816.0
815.0
814.0
812.0
811.0
809.0
810.0
811.0
809.0
810.0
808.0
807.0
804.0
802.0
799.0
801.0
798.0
798.0
797.0
795.0
794.0
794.0
796.0
794.0
793.0
790.0
788.0
788.0
788.0
786.0
786.0
789.0
788.0
788.0
788.0
790.0
790.0
791.0
792.0
792.0
793.0
795.0
798.0
803.0
805.0
810.0
812.0
814.0
817.0
818.0
821.0
826.0
828.0
832.0
835.0
839.0
843.0
846.0
846.0
851.0
854.0
854.0
856.0
856.0
856.0
858.0
860.0
861.0
861.0
864.0
864.0
864.0
862.0
859.0
859.0
857.0
855.0
852.0
852.0
852.0
848.0
848.0
844.0
843.0
842.0
838.0
837.0
834.0
833.0
831.0
833.0
831.0
832.0
831.0
831.0
831.0
830.0
830.0
828.0
828.0
828.0
827.0
828.0
831.0
832.0
835.0
833.0
832.0
831.0
831.0
831.0
831.0
832.0
833.0
836.0
835.0
837.0
840.0
842.0
841.0
840.0
840.0
841.0
840.0
841.0
842.0
842.0
842.0
843.0
846.0
845.0
845.0
844.0
844.0
843.0
843.0
842.0
843.0
844.0
846.0
847.0
849.0
849.0
848.0
848.0
847.0
845.0
846.0
847.0
846.0
849.0
849.0
850.0
851.0
850.0
850.0
850.0
848.0
846.0
846.0
846.0
849.0
851.0
851.0
854.0
856.0
856.0
853.0
853.0
850.0
851.0
848.0
849.0
848.0
851.0
855.0
855.0
855.0
854.0
854.0
854.0
850.0
851.0
849.0
849.0
849.0
849.0
850.0
852.0
854.0
853.0
853.0
854.0
852.0
850.0
848.0
849.0
850.0
849.0
848.0
852.0
852.0
854.0
856.0
855.0
851.0
851.0
849.0
852.0
853.0
851.0
853.0
855.0
854.0
854.0
855.0
855.0
850.0
851.0
849.0
848.0
850.0
850.0
855.0
857.0
858.0
858.0
856.0
856.0
855.0
855.0
853.0
852.0
852.0
854.0
857.0
858.0
859.0
858.0
855.0
855.0
856.0
854.0
854.0
853.0
853.0
854.0
856.0
859.0
859.0
860.0
860.0
857.0
856.0
854.0
853.0
851.0
851.0
850.0
855.0
855.0
857.0
857.0
858.0
857.0
858.0
856.0
854.0
851.0
850.0
852.0
853.0
855.0
860.0
859.0
859.0
859.0
858.0
856.0
855.0
855.0
857.0
858.0
859.0
862.0
864.0
864.0
863.0
860.0
858.0
858.0
860.0
861.0
864.0
865.0
866.0
869.0
873.0
872.0
871.0
868.0
863.0
863.0
857.0
856.0
856.0
858.0
860.0
860.0
864.0
868.0
866.0
870.0
870.0
869.0
870.0
868.0
865.0
863.0
863.0
860.0
857.0
858.0
855.0
851.0
851.0
851.0
851.0
849.0
846.0
850.0
853.0
856.0
855.0
856.0
854.0
849.0
847.0
847.0
856.0
872.0
892.0
914.0
932.0
938.0
936.0
921.0
893.0
863.0
842.0
841.0
862.0
907.0
960.0
1018.0
1077.0
1132.0
1179.0
1218.0
1249.0
1271.0
1281.0
1282.0
1268.0
1251.0
1224.0
1188.0
1147.0
1105.0
1065.0
1023.0
978.0
930.0
884.0
848.0
818.0
801.0
796.0
798.0
801.0
807.0
816.0
820.0
825.0
826.0
827.0
826.0
826.0
825.0
826.0
825.0
826.0
829.0
831.0
832.0
831.0
830.0
828.0
825.0
826.0
824.0
826.0
826.0
827.0
827.0
829.0
829.0
830.0
829.0
828.0
827.0
824.0
821.0
821.0
819.0
823.0
823.0
826.0
827.0
826.0
825.0
822.0
820.0
819.0
817.0
816.0
816.0
818.0
820.0
823.0
821.0
821.0
817.0
816.0
814.0
813.0
811.0
809.0
808.0
810.0
809.0
812.0
811.0
813.0
808.0
807.0
805.0
803.0
800.0
800.0
799.0
799.0
799.0
801.0
801.0
799.0
798.0
796.0
794.0
792.0
791.0
792.0
792.0
793.0
794.0
797.0
796.0
799.0
799.0
798.0
798.0
798.0
800.0
799.0
803.0
806.0
809.0
813.0
816.0
818.0
819.0
821.0
825.0
829.0
831.0
833.0
839.0
844.0
847.0
850.0
851.0
854.0
855.0
857.0
858.0
856.0
857.0
855.0
857.0
860.0
862.0
864.0
863.0
862.0
857.0
855.0
853.0
850.0
847.0
846.0
842.0
840.0
840.0
841.0
839.0
836.0
835.0
834.0
830.0
827.0
826.0
825.0
822.0
822.0
826.0
827.0
826.0
825.0
826.0
824.0
820.0
822.0
817.0
820.0
824.0
824.0
826.0
827.0
829.0
827.0
828.0
826.0
823.0
823.0
826.0
826.0
830.0
829.0
830.0
834.0
834.0
834.0
831.0
831.0
833.0
830.0
833.0
832.0
835.0
837.0
839.0
840.0
840.0
841.0
841.0
840.0
837.0
836.0
838.0
839.0
839.0
839.0
840.0
842.0
840.0
841.0
841.0
841.0
839.0
840.0
839.0
841.0
840.0
841.0
842.0
847.0
842.0
845.0
844.0
844.0
843.0
843.0
844.0
841.0
843.0
844.0
846.0
848.0
849.0
846.0
846.0
843.0
843.0
842.0
843.0
844.0
845.0
848.0
848.0
849.0
852.0
848.0
848.0
847.0
847.0
843.0
844.0
845.0
846.0
848.0
847.0
848.0
850.0
850.0
850.0
847.0
847.0
845.0
847.0
846.0
846.0
848.0
848.0
850.0
852.0
852.0
850.0
848.0
846.0
842.0
844.0
844.0
844.0
845.0
849.0
849.0
851.0
852.0
850.0
850.0
847.0
846.0
844.0
843.0
842.0
843.0
849.0
851.0
849.0
847.0
850.0
851.0
850.0
847.0
848.0
843.0
845.0
846.0
845.0
846.0
848.0
851.0
850.0
849.0
848.0
846.0
847.0
846.0
848.0
850.0
849.0
850.0
854.0
854.0
853.0
850.0
850.0
850.0
849.0
849.0
849.0
848.0
849.0
852.0
853.0
851.0
851.0
848.0
850.0
850.0
848.0
848.0
847.0
848.0
851.0
851.0
853.0
851.0
848.0
850.0
847.0
847.0
846.0
847.0
848.0
847.0
850.0
851.0
851.0
850.0
850.0
852.0
851.0
851.0
853.0
853.0
854.0
857.0
857.0
859.0
857.0
857.0
857.0
860.0
861.0
861.0
864.0
865.0
865.0
866.0
868.0
868.0
865.0
864.0
860.0
860.0
859.0
858.0
858.0
859.0
860.0
864.0
867.0
869.0
871.0
871.0
869.0
867.0
862.0
860.0
856.0
854.0
851.0
847.0
848.0
850.0
851.0
852.0
851.0
847.0
847.0
850.0
847.0
845.0
846.0
846.0
846.0
844.0
849.0
861.0
876.0
897.0
915.0
929.0
935.0
929.0
909.0
874.0
843.0
829.0
835.0
867.0
911.0
968.0
1025.0
1077.0
1126.0
1170.0
1203.0
1229.0
1244.0
1248.0
1242.0
1226.0
1201.0
1169.0
1131.0
1090.0
1054.0
1017.0
976.0
935.0
896.0
862.0
834.0
816.0
806.0
802.0
805.0
808.0
812.0
817.0
822.0
824.0
825.0
828.0
831.0
832.0
832.0
830.0
827.0
824.0
824.0
826.0
827.0
829.0
829.0
829.0
829.0
830.0
829.0
828.0
828.0
827.0
826.0
824.0
826.0
827.0
827.0
826.0
827.0
824.0
825.0
825.0
822.0
822.0
820.0
820.0
820.0
821.0
821.0
819.0
823.0
821.0
819.0
818.0
818.0
815.0
815.0
813.0
814.0
811.0
812.0
812.0
811.0
811.0
808.0
808.0
803.0
801.0
801.0
801.0
802.0
798.0
800.0
801.0
800.0
799.0
798.0
797.0
792.0
792.0
792.0
790.0
790.0
790.0
790.0
792.0
791.0
789.0
788.0
786.0
785.0
783.0
782.0
784.0
787.0
788.0
789.0
791.0
790.0
791.0
791.0
794.0
792.0
794.0
795.0
797.0
801.0
806.0
810.0
813.0
819.0
820.0
822.0
823.0
829.0
831.0
835.0
838.0
843.0
845.0
848.0
851.0
856.0
855.0
857.0
856.0
858.0
858.0
859.0
859.0
857.0
861.0
862.0
863.0
861.0
858.0
857.0
853.0
852.0
850.0
846.0
845.0
845.0
844.0
843.0
844.0
843.0
841.0
838.0
837.0
833.0
833.0
831.0
834.0
833.0
834.0
834.0
834.0
834.0
834.0
834.0
834.0
833.0
833.0
832.0
832.0
834.0
834.0
836.0
839.0
837.0
836.0
835.0
833.0
836.0
837.0
836.0
838.0
840.0
839.0
841.0
844.0
845.0
844.0
843.0
844.0
842.0
840.0
843.0
844.0
844.0
846.0
846.0
848.0
848.0
847.0
846.0
846.0
846.0
845.0
845.0
847.0
847.0
849.0
850.0
851.0
851.0
850.0
849.0
847.0
847.0
848.0
846.0
847.0
846.0
848.0
849.0
850.0
850.0
850.0
848.0
849.0
849.0
848.0
847.0
850.0
852.0
854.0
854.0
855.0
856.0
853.0
852.0
849.0
851.0
851.0
849.0
850.0
852.0
852.0
852.0
854.0
855.0
854.0
855.0
852.0
852.0
851.0
850.0
850.0
851.0
852.0
854.0
856.0
855.0
854.0
852.0
849.0
849.0
849.0
848.0
850.0
851.0
851.0
852.0
853.0
855.0
852.0
848.0
851.0
852.0
851.0
852.0
853.0
851.0
854.0
854.0
855.0
856.0
852.0
852.0
852.0
851.0
852.0
852.0
850.0
852.0
855.0
853.0
856.0
856.0
854.0
854.0
852.0
852.0
850.0
852.0
851.0
853.0
855.0
855.0
856.0
856.0
855.0
853.0
852.0
850.0
848.0
852.0
854.0
854.0
855.0
856.0
858.0
858.0
856.0
856.0
856.0
852.0
852.0
852.0
852.0
853.0
856.0
857.0
859.0
858.0
859.0
859.0
857.0
856.0
853.0
853.0
853.0
853.0
855.0
857.0
858.0
857.0
858.0
856.0
854.0
852.0
854.0
855.0
855.0
858.0
860.0
861.0
863.0
865.0
862.0
862.0
858.0
859.0
860.0
864.0
865.0
866.0
871.0
872.0
873.0
873.0
872.0
872.0
869.0
865.0
862.0
861.0
859.0
861.0
862.0
864.0
865.0
867.0
866.0
869.0
870.0
870.0
871.0
870.0
870.0
869.0
867.0
866.0
865.0
865.0
862.0
857.0
855.0
851.0
849.0
848.0
847.0
849.0
852.0
854.0
853.0
856.0
854.0
854.0
854.0
850.0
844.0
844.0
847.0
855.0
873.0
891.0
912.0
925.0
932.0
931.0
917.0
894.0
868.0
846.0
840.0
854.0
889.0
938.0
992.0
1046.0
1100.0
1150.0
1194.0
1229.0
1258.0
1278.0
1288.0
1286.0
1276.0
1255.0
1228.0
1195.0
1156.0
1115.0
1076.0
1035.0
990.0
950.0
909.0
873.0
844.0
820.0
807.0
799.0
799.0
801.0
803.0
806.0
808.0
813.0
816.0
821.0
822.0
824.0
827.0
830.0
827.0
825.0
824.0
822.0
821.0
824.0
822.0
821.0
824.0
824.0
826.0
826.0
826.0
823.0
822.0
819.0
819.0
818.0
816.0
820.0
820.0
820.0
824.0
825.0
823.0
823.0
820.0
819.0
817.0
818.0
817.0
818.0
818.0
820.0
823.0
821.0
819.0
816.0
815.0
813.0
813.0
810.0
811.0
812.0
814.0
813.0
814.0
814.0
814.0
812.0
807.0
805.0
806.0
804.0
803.0
803.0
802.0
802.0
803.0
803.0
801.0
801.0
798.0
795.0
792.0
790.0
790.0
790.0
789.0
792.0
791.0
793.0
790.0
792.0
788.0
786.0
783.0
783.0
780.0
780.0
786.0
787.0
789.0
792.0
794.0
795.0
794.0
793.0
792.0
793.0
796.0
800.0
804.0
810.0
813.0
819.0
823.0
825.0
827.0
829.0
829.0
833.0
835.0
839.0
841.0
847.0
852.0
856.0
857.0
860.0
858.0
856.0
854.0
856.0
853.0
856.0
858.0
858.0
858.0
858.0
858.0
853.0
852.0
847.0
842.0
841.0
839.0
837.0
838.0
836.0
836.0
836.0
835.0
831.0
827.0
822.0
822.0
821.0
821.0
821.0
820.0
824.0
826.0
827.0
826.0
825.0
824.0
822.0
820.0
820.0
821.0
821.0
823.0
825.0
828.0
830.0
829.0
830.0
829.0
829.0
829.0
827.0
828.0
827.0
830.0
832.0
835.0
836.0
835.0
836.0
834.0
835.0
835.0
835.0
834.0
836.0
836.0
839.0
840.0
842.0
842.0
840.0
839.0
838.0
837.0
836.0
839.0
837.0
838.0
839.0
841.0
841.0
843.0
841.0
840.0
839.0
838.0
838.0
838.0
841.0
840.0
840.0
844.0
843.0
844.0
844.0
842.0
842.0
841.0
839.0
835.0
838.0
841.0
843.0
845.0
845.0
844.0
845.0
842.0
840.0
839.0
840.0
839.0
839.0
842.0
841.0
843.0
845.0
845.0
846.0
844.0
842.0
840.0
839.0
839.0
841.0
840.0
841.0
845.0
848.0
844.0
843.0
844.0
843.0
842.0
842.0
841.0
841.0
841.0
846.0
846.0
847.0
847.0
847.0
846.0
843.0
843.0
841.0
840.0
842.0
842.0
843.0
845.0
850.0
848.0
849.0
848.0
846.0
844.0
843.0
843.0
845.0
847.0
847.0
847.0
849.0
848.0
849.0
846.0
844.0
843.0
844.0
843.0
842.0
844.0
842.0
844.0
846.0
847.0
847.0
847.0
845.0
843.0
842.0
841.0
844.0
846.0
846.0
847.0
847.0
847.0
847.0
847.0
844.0
843.0
844.0
843.0
844.0
844.0
845.0
848.0
847.0
844.0
844.0
844.0
845.0
843.0
841.0
842.0
843.0
845.0
848.0
848.0
849.0
850.0
849.0
847.0
845.0
845.0
844.0
846.0
846.0
850.0
851.0
853.0
856.0
854.0
850.0
853.0
850.0
849.0
848.0
848.0
851.0
854.0
856.0
858.0
860.0
863.0
863.0
861.0
862.0
860.0
856.0
856.0
856.0
855.0
857.0
857.0
858.0
857.0
856.0
856.0
857.0
859.0
860.0
862.0
862.0
864.0
862.0
862.0
862.0
858.0
853.0
852.0
847.0
844.0
842.0
838.0
841.0
844.0
844.0
845.0
847.0
847.0
845.0
843.0
838.0
835.0
836.0
834.0
835.0
842.0
854.0
868.0
894.0
910.0
922.0
926.0
923.0
902.0
873.0
840.0
819.0
817.0
839.0
882.0
935.0
989.0
1044.0
1091.0
1138.0
1180.0
1216.0
1241.0
1253.0
1257.0
1252.0
1239.0
1222.0
1189.0
1151.0
1109.0
1064.0
1016.0
968.0
917.0
872.0
835.0
812.0
799.0
797.0
792.0
798.0
799.0
804.0
807.0
809.0
811.0
814.0
817.0
818.0
821.0
819.0
819.0
817.0
814.0
814.0
811.0
810.0
810.0
813.0
815.0
815.0
815.0
816.0
818.0
815.0
813.0
813.0
810.0
810.0
810.0
809.0
810.0
811.0
812.0
815.0
814.0
811.0
809.0
809.0
807.0
804.0
805.0
806.0
806.0
805.0
807.0
811.0
809.0
805.0
802.0
801.0
801.0
798.0
798.0
798.0
798.0
799.0
799.0
801.0
797.0
794.0
792.0
791.0
789.0
787.0
786.0
786.0
787.0
787.0
786.0
787.0
785.0
784.0
781.0
780.0
780.0
778.0
779.0
776.0
778.0
778.0
783.0
785.0
784.0
784.0
782.0
782.0
782.0
784.0
786.0
788.0
794.0
796.0
799.0
802.0
805.0
807.0
807.0
809.0
810.0
816.0
820.0
823.0
829.0
832.0
836.0
837.0
840.0
839.0
841.0
840.0
842.0
840.0
839.0
843.0
847.0
849.0
847.0
846.0
845.0
842.0
840.0
840.0
835.0
832.0
831.0
830.0
829.0
829.0
826.0
828.0
822.0
821.0
819.0
816.0
814.0
812.0
811.0
811.0
810.0
811.0
813.0
813.0
812.0
811.0
809.0
808.0
807.0
806.0
806.0
805.0
809.0
809.0
812.0
813.0
814.0
813.0
810.0
808.0
808.0
807.0
808.0
808.0
809.0
811.0
814.0
815.0
816.0
816.0
817.0
814.0
814.0
813.0
815.0
814.0
817.0
819.0
823.0
824.0
825.0
824.0
821.0
818.0
819.0
818.0
818.0
818.0
821.0
824.0
824.0
828.0
826.0
826.0
825.0
821.0
819.0
822.0
820.0
820.0
822.0
824.0
827.0
828.0
828.0
830.0
825.0
825.0
824.0
824.0
823.0
821.0
822.0
825.0
828.0
828.0
828.0
828.0
827.0
826.0
824.0
824.0
823.0
823.0
823.0
826.0
827.0
828.0
829.0
827.0
826.0
828.0
825.0
824.0
824.0
825.0
825.0
828.0
828.0
830.0
828.0
829.0
828.0
827.0
827.0
826.0
827.0
826.0
828.0
825.0
829.0
831.0
828.0
827.0
829.0
827.0
826.0
824.0
822.0
823.0
825.0
826.0
827.0
828.0
827.0
827.0
826.0
825.0
825.0
823.0
825.0
825.0
824.0
827.0
826.0
829.0
828.0
827.0
827.0
827.0
826.0
824.0
822.0
822.0
824.0
826.0
827.0
828.0
828.0
825.0
826.0
823.0
824.0
822.0
822.0
825.0
824.0
826.0
824.0
827.0
828.0
827.0
825.0
824.0
824.0
825.0
823.0
823.0
826.0
825.0
826.0
826.0
827.0
823.0
825.0
825.0
822.0
821.0
822.0
822.0
826.0
826.0
826.0
827.0
827.0
824.0
826.0
826.0
826.0
825.0
824.0
826.0
829.0
827.0
830.0
831.0
830.0
831.0
829.0
831.0
834.0
833.0
835.0
837.0
839.0
840.0
839.0
838.0
836.0
835.0
834.0
831.0
830.0
829.0
827.0
830.0
832.0
835.0
839.0
843.0
842.0
843.0
841.0
839.0
837.0
834.0
830.0
828.0
825.0
823.0
823.0
824.0
822.0
824.0
822.0
820.0
819.0
818.0
818.0
821.0
821.0
821.0
822.0
822.0
818.0
819.0
827.0
839.0
856.0
872.0
889.0
900.0
897.0
878.0
852.0
828.0
817.0
836.0
876.0
931.0
988.0
1045.0
1104.0
1152.0
1194.0
1224.0
1245.0
1260.0
1256.0
1239.0
1212.0
1175.0
1128.0
1079.0
1034.0
991.0
948.0
906.0
866.0
829.0
802.0
781.0
769.0
762.0
763.0
763.0
770.0
773.0
776.0
782.0
787.0
790.0
791.0
794.0
794.0
793.0
788.0
789.0
789.0
788.0
791.0
791.0
793.0
794.0
794.0
792.0
793.0
789.0
790.0
788.0
790.0
790.0
790.0
792.0
791.0
789.0
788.0
785.0
785.0
779.0
778.0
779.0
779.0
782.0
781.0
781.0
785.0
783.0
780.0
781.0
779.0
776.0
774.0
770.0
774.0
774.0
775.0
775.0
775.0
776.0
775.0
773.0
769.0
768.0
767.0
767.0
766.0
766.0
768.0
767.0
767.0
768.0
766.0
765.0
762.0
759.0
758.0
756.0
755.0
754.0
756.0
755.0
757.0
759.0
758.0
757.0
753.0
752.0
750.0
749.0
751.0
752.0
755.0
757.0
760.0
759.0
759.0
762.0
764.0
763.0
763.0
764.0
767.0
768.0
774.0
777.0
781.0
785.0
786.0
788.0
791.0
792.0
793.0
794.0
797.0
801.0
805.0
809.0
815.0
819.0
819.0
821.0
820.0
820.0
819.0
821.0
819.0
822.0
823.0
822.0
822.0
822.0
821.0
818.0
815.0
814.0
808.0
806.0
802.0
801.0
802.0
801.0
802.0
802.0
796.0
795.0
794.0
791.0
790.0
788.0
789.0
789.0
788.0
789.0
788.0
792.0
793.0
791.0
791.0
789.0
789.0
788.0
789.0
790.0
791.0
795.0
792.0
796.0
796.0
798.0
798.0
798.0
796.0
795.0
795.0
793.0
798.0
799.0
801.0
804.0
806.0
805.0
805.0
804.0
802.0
802.0
802.0
803.0
805.0
808.0
810.0
812.0
811.0
812.0
808.0
807.0
807.0
806.0
804.0
808.0
809.0
810.0
812.0
813.0
814.0
814.0
811.0
810.0
810.0
809.0
808.0
811.0
813.0
815.0
817.0
818.0
818.0
817.0
815.0
815.0
814.0
815.0
814.0
813.0
815.0
816.0
818.0
821.0
820.0
820.0
820.0
817.0
817.0
817.0
815.0
816.0
818.0
819.0
820.0
822.0
821.0
822.0
822.0
818.0
815.0
817.0
815.0
816.0
819.0
820.0
821.0
822.0
823.0
824.0
822.0
821.0
820.0
819.0
819.0
819.0
819.0
823.0
824.0
825.0
827.0
824.0
824.0
822.0
819.0
818.0
817.0
818.0
819.0
820.0
822.0
824.0
823.0
824.0
824.0
821.0
818.0
821.0
820.0
818.0
820.0
822.0
822.0
827.0
827.0
826.0
824.0
824.0
824.0
823.0
823.0
823.0
822.0
823.0
825.0
826.0
825.0
824.0
824.0
825.0
823.0
821.0
820.0
820.0
821.0
823.0
823.0
825.0
824.0
826.0
825.0
825.0
823.0
821.0
821.0
822.0
824.0
825.0
824.0
828.0
826.0
825.0
825.0
823.0
824.0
824.0
825.0
828.0
828.0
828.0
827.0
830.0
830.0
831.0
833.0
834.0
834.0
836.0
836.0
839.0
840.0
839.0
840.0
839.0
837.0
836.0
835.0
834.0
833.0
834.0
833.0
834.0
837.0
840.0
843.0
847.0
848.0
847.0
843.0
841.0
838.0
834.0
833.0
829.0
825.0
824.0
827.0
827.0
825.0
821.0
822.0
822.0
818.0
818.0
818.0
821.0
823.0
823.0
823.0
824.0
819.0
819.0
821.0
827.0
841.0
857.0
873.0
890.0
900.0
909.0
909.0
900.0
877.0
846.0
821.0
809.0
819.0
848.0
891.0
947.0
1005.0
1061.0
1114.0
1164.0
1207.0
1241.0
1264.0
1269.0
1260.0
1235.0
1196.0
1149.0
1097.0
1047.0
1005.0
964.0
921.0
876.0
838.0
808.0
786.0
774.0
769.0
772.0
779.0
781.0
788.0
794.0
797.0
800.0
803.0
804.0
804.0
803.0
801.0
801.0
803.0
804.0
806.0
807.0
805.0
805.0
805.0
804.0
801.0
804.0
802.0
803.0
802.0
804.0
806.0
807.0
808.0
808.0
805.0
804.0
803.0
799.0
799.0
801.0
801.0
802.0
802.0
805.0
804.0
804.0
802.0
800.0
802.0
799.0
798.0
798.0
798.0
798.0
799.0
800.0
800.0
798.0
799.0
796.0
796.0
794.0
790.0
790.0
792.0
792.0
792.0
793.0
793.0
792.0
789.0
789.0
786.0
783.0
778.0
779.0
782.0
780.0
779.0
783.0
782.0
781.0
780.0
779.0
776.0
775.0
774.0
773.0
774.0
775.0
776.0
776.0
776.0
772.0
774.0
773.0
772.0
773.0
773.0
775.0
776.0
780.0
782.0
787.0
788.0
786.0
789.0
789.0
789.0
794.0
794.0
799.0
804.0
809.0
812.0
816.0
820.0
821.0
821.0
825.0
825.0
827.0
830.0
831.0
836.0
839.0
843.0
846.0
847.0
847.0
845.0
842.0
842.0
843.0
843.0
843.0
845.0
846.0
845.0
845.0
843.0
840.0
836.0
832.0
830.0
827.0
825.0
823.0
824.0
821.0
818.0
819.0
816.0
816.0
816.0
814.0
811.0
811.0
809.0
811.0
812.0
812.0
816.0
817.0
816.0
814.0
814.0
813.0
813.0
813.0
812.0
814.0
816.0
817.0
820.0
823.0
822.0
824.0
823.0
822.0
818.0
819.0
822.0
820.0
824.0
826.0
829.0
831.0
831.0
830.0
829.0
828.0
826.0
827.0
826.0
829.0
830.0
833.0
835.0
834.0
839.0
836.0
835.0
835.0
831.0
829.0
828.0
832.0
831.0
831.0
836.0
837.0
837.0
836.0
835.0
837.0
833.0
832.0
833.0
834.0
835.0
838.0
840.0
840.0
839.0
838.0
839.0
839.0
839.0
839.0
838.0
840.0
840.0
844.0
841.0
846.0
845.0
842.0
841.0
842.0
841.0
842.0
839.0
841.0
844.0
844.0
846.0
847.0
848.0
845.0
845.0
845.0
842.0
844.0
844.0
842.0
840.0
844.0
845.0
848.0
848.0
844.0
844.0
841.0
842.0
841.0
841.0
843.0
842.0
845.0
846.0
846.0
847.0
848.0
850.0
848.0
844.0
841.0
842.0
842.0
846.0
848.0
850.0
852.0
853.0
849.0
849.0
848.0
846.0
846.0
844.0
846.0
844.0
847.0
848.0
851.0
850.0
849.0
