# Simple Text Format
# Sampling Rate (Hz):= 360.00
# Resolution:= 12
# Labels:= ECG
827.0
827.0
828.0
826.0
827.0
827.0
829.0
831.0
831.0
833.0
831.0
831.0
830.0
828.0
829.0
827.0
827.0
829.0
830.0
831.0
834.0
834.0
834.0
832.0
830.0
830.0
828.0
831.0
829.0
831.0
832.0
834.0
834.0
834.0
833.0
834.0
832.0
830.0
831.0
832.0
832.0
833.0
833.0
833.0
834.0
836.0
837.0
835.0
835.0
834.0
832.0
834.0
832.0
833.0
832.0
835.0
838.0
837.0
839.0
838.0
838.0
839.0
838.0
838.0
839.0
839.0
840.0
839.0
841.0
840.0
841.0
846.0
844.0
847.0
845.0
847.0
849.0
849.0
852.0
853.0
851.0
852.0
847.0
847.0
846.0
845.0
844.0
843.0
844.0
845.0
847.0
852.0
854.0
857.0
858.0
857.0
851.0
850.0
847.0
844.0
842.0
838.0
836.0
836.0
837.0
838.0
832.0
832.0
831.0
832.0
830.0
833.0
831.0
834.0
837.0
837.0
835.0
835.0
832.0
834.0
840.0
852.0
868.0
887.0
904.0
917.0
924.0
917.0
896.0
862.0
830.0
810.0
817.0
841.0
883.0
938.0
993.0
1042.0
1090.0
1130.0
1166.0
1194.0
1211.0
1221.0
1220.0
1213.0
1196.0
1174.0
1145.0
1105.0
1065.0
1027.0
986.0
944.0
894.0
859.0
827.0
804.0
791.0
786.0
789.0
797.0
805.0
811.0
816.0
820.0
820.0
821.0
821.0
816.0
816.0
814.0
812.0
814.0
819.0
820.0
822.0
823.0
822.0
821.0
818.0
816.0
817.0
816.0
817.0
818.0
818.0
818.0
820.0
823.0
819.0
820.0
818.0
816.0
814.0
813.0
813.0
813.0
815.0
813.0
814.0
815.0
815.0
813.0
812.0
810.0
808.0
809.0
807.0
807.0
808.0
809.0
809.0
810.0
807.0
805.0
799.0
795.0
797.0
797.0
797.0
795.0
795.0
796.0
794.0
796.0
792.0
793.0
791.0
790.0
786.0
785.0
785.0
785.0
784.0
786.0
786.0
784.0
782.0
779.0
781.0
780.0
776.0
777.0
778.0
779.0
780.0
783.0
784.0
787.0
788.0
787.0
788.0
789.0
788.0
789.0
791.0
797.0
798.0
804.0
808.0
814.0
817.0
817.0
820.0
821.0
823.0
828.0
832.0
835.0
837.0
841.0
847.0
849.0
848.0
852.0
851.0
852.0
850.0
849.0
850.0
852.0
852.0
853.0
854.0
855.0
852.0
849.0
847.0
845.0
843.0
840.0
837.0
835.0
835.0
834.0
835.0
835.0
831.0
827.0
825.0
825.0
822.0
820.0
818.0
820.0
822.0
822.0
822.0
823.0
825.0
822.0
821.0
821.0
817.0
819.0
818.0
817.0
818.0
821.0
824.0
825.0
824.0
826.0
823.0
824.0
825.0
825.0
822.0
824.0
829.0
829.0
831.0
832.0
832.0
832.0
830.0
829.0
825.0
829.0
828.0
830.0
831.0
832.0
835.0
835.0
835.0
836.0
833.0
835.0
833.0
831.0
834.0
834.0
836.0
837.0
840.0
841.0
841.0
839.0
838.0
839.0
838.0
837.0
836.0
836.0
837.0
839.0
839.0
840.0
840.0
840.0
839.0
838.0
839.0
837.0
838.0
835.0
836.0
840.0
841.0
839.0
838.0
840.0
838.0
836.0
834.0
836.0
835.0
835.0
838.0
839.0
838.0
844.0
842.0
842.0
841.0
840.0
838.0
839.0
839.0
839.0
839.0
841.0
843.0
845.0
842.0
841.0
841.0
842.0
838.0
837.0
838.0
839.0
838.0
840.0
841.0
843.0
843.0
845.0
844.0
842.0
842.0
842.0
839.0
841.0
843.0
846.0
846.0
848.0
846.0
846.0
844.0
843.0
841.0
842.0
840.0
846.0
845.0
844.0
845.0
848.0
848.0
846.0
844.0
841.0
842.0
842.0
842.0
842.0
844.0
845.0
845.0
845.0
848.0
847.0
847.0
846.0
845.0
845.0
844.0
843.0
845.0
847.0
848.0
850.0
849.0
848.0
849.0
846.0
847.0
846.0
843.0
844.0
846.0
846.0
848.0
851.0
851.0
852.0
853.0
852.0
849.0
847.0
848.0
850.0
852.0
853.0
856.0
858.0
861.0
863.0
862.0
861.0
858.0
857.0
856.0
854.0
854.0
853.0
854.0
855.0
858.0
856.0
856.0
859.0
859.0
863.0
863.0
864.0
864.0
862.0
863.0
862.0
858.0
854.0
850.0
844.0
846.0
841.0
840.0
842.0
845.0
846.0
846.0
847.0
848.0
848.0
844.0
842.0
838.0
839.0
842.0
851.0
866.0
883.0
902.0
918.0
929.0
929.0
918.0
898.0
871.0
847.0
839.0
857.0
896.0
953.0
1016.0
1078.0
1140.0
1195.0
1244.0
1278.0
1300.0
1303.0
1295.0
1276.0
1247.0
1209.0
1164.0
1116.0
1066.0
1018.0
974.0
925.0
881.0
845.0
816.0
798.0
791.0
795.0
797.0
801.0
808.0
809.0
816.0
816.0
820.0
817.0
819.0
821.0
822.0
821.0
823.0
822.0
824.0
824.0
820.0
821.0
819.0
818.0
818.0
817.0
818.0
822.0
823.0
824.0
823.0
821.0
821.0
820.0
818.0
816.0
818.0
818.0
820.0
820.0
820.0
821.0
821.0
818.0
818.0
816.0
815.0
815.0
815.0
813.0
814.0
814.0
814.0
818.0
814.0
815.0
812.0
810.0
810.0
807.0
806.0
805.0
805.0
805.0
806.0
806.0
804.0
803.0
799.0
798.0
795.0
795.0
796.0
796.0
797.0
798.0
800.0
798.0
799.0
797.0
792.0
791.0
790.0
788.0
789.0
790.0
793.0
792.0
795.0
792.0
794.0
793.0
790.0
789.0
789.0
787.0
789.0
793.0
794.0
798.0
801.0
805.0
804.0
806.0
808.0
810.0
811.0
813.0
816.0
818.0
822.0
827.0
833.0
836.0
836.0
841.0
843.0
843.0
845.0
847.0
847.0
852.0
854.0
857.0
860.0
864.0
867.0
867.0
865.0
865.0
864.0
861.0
863.0
861.0
861.0
861.0
860.0
861.0
857.0
855.0
852.0
851.0
842.0
838.0
837.0
837.0
838.0
836.0
838.0
836.0
835.0
833.0
831.0
828.0
825.0
822.0
822.0
823.0
823.0
824.0
825.0
826.0
826.0
825.0
823.0
822.0
822.0
821.0
821.0
820.0
822.0
823.0
823.0
828.0
830.0
830.0
829.0
829.0
828.0
829.0
829.0
828.0
832.0
834.0
836.0
837.0
837.0
839.0
838.0
839.0
839.0
837.0
838.0
836.0
841.0
839.0
838.0
842.0
842.0
844.0
845.0
843.0
841.0
840.0
839.0
844.0
845.0
846.0
846.0
848.0
844.0
846.0
844.0
843.0
847.0
845.0
845.0
846.0
847.0
847.0
848.0
848.0
852.0
851.0
849.0
848.0
846.0
847.0
847.0
850.0
850.0
851.0
852.0
852.0
853.0
850.0
848.0
848.0
848.0
847.0
845.0
848.0
848.0
852.0
853.0
854.0
852.0
854.0
852.0
850.0
851.0
850.0
850.0
850.0
853.0
853.0
854.0
856.0
854.0
853.0
853.0
853.0
849.0
852.0
851.0
854.0
855.0
855.0
855.0
859.0
856.0
857.0
856.0
857.0
856.0
855.0
854.0
854.0
856.0
857.0
858.0
859.0
858.0
857.0
857.0
851.0
854.0
853.0
853.0
853.0
856.0
857.0
858.0
861.0
859.0
859.0
859.0
860.0
857.0
856.0
858.0
857.0
860.0
860.0
862.0
864.0
864.0
863.0
862.0
860.0
859.0
858.0
859.0
859.0
859.0
859.0
862.0
863.0
863.0
863.0
860.0
860.0
860.0
862.0
861.0
862.0
860.0
863.0
864.0
864.0
864.0
865.0
863.0
863.0
862.0
861.0
863.0
862.0
862.0
865.0
867.0
867.0
868.0
868.0
867.0
867.0
866.0
868.0
865.0
866.0
867.0
868.0
870.0
875.0
876.0
876.0
875.0
875.0
877.0
876.0
877.0
875.0
875.0
875.0
877.0
877.0
875.0
875.0
874.0
875.0
873.0
871.0
878.0
880.0
882.0
883.0
881.0
881.0
879.0
876.0
873.0
869.0
867.0
864.0
862.0
861.0
861.0
861.0
863.0
865.0
865.0
865.0
864.0
862.0
860.0
858.0
861.0
860.0
860.0
857.0
861.0
867.0
880.0
894.0
912.0
927.0
938.0
944.0
942.0
930.0
907.0
878.0
850.0
836.0
848.0
876.0
917.0
965.0
1016.0
1064.0
1110.0
1153.0
1191.0
1222.0
1244.0
1254.0
1252.0
1241.0
1221.0
1193.0
1155.0
1116.0
1076.0
1037.0
996.0
951.0
911.0
877.0
846.0
829.0
820.0
817.0
819.0
827.0
832.0
838.0
843.0
844.0
849.0
853.0
850.0
851.0
849.0
849.0
846.0
846.0
846.0
845.0
845.0
848.0
849.0
852.0
851.0
847.0
849.0
845.0
843.0
842.0
841.0
841.0
845.0
846.0
848.0
849.0
850.0
850.0
849.0
845.0
845.0
843.0
842.0
842.0
844.0
841.0
843.0
844.0
841.0
842.0
841.0
839.0
836.0
832.0
833.0
835.0
836.0
836.0
838.0
837.0
835.0
834.0
831.0
830.0
828.0
826.0
827.0
826.0
825.0
825.0
826.0
826.0
825.0
823.0
822.0
820.0
817.0
813.0
814.0
811.0
812.0
815.0
813.0
814.0
811.0
811.0
809.0
806.0
809.0
807.0
808.0
807.0
809.0
808.0
811.0
815.0
816.0
815.0
816.0
817.0
816.0
817.0
819.0
824.0
823.0
829.0
834.0
837.0
841.0
840.0
847.0
849.0
848.0
851.0
856.0
858.0
864.0
868.0
873.0
876.0
880.0
882.0
882.0
882.0
881.0
882.0
883.0
885.0
884.0
883.0
885.0
886.0
883.0
882.0
878.0
874.0
871.0
867.0
866.0
865.0
861.0
862.0
860.0
862.0
857.0
856.0
852.0
851.0
848.0
846.0
844.0
844.0
845.0
847.0
848.0
848.0
847.0
849.0
847.0
846.0
845.0
846.0
845.0
844.0
846.0
852.0
854.0
857.0
856.0
855.0
853.0
852.0
849.0
851.0
852.0
853.0
855.0
857.0
858.0
862.0
862.0
861.0
861.0
860.0
858.0
857.0
857.0
858.0
857.0
860.0
861.0
865.0
865.0
864.0
864.0
863.0
860.0
860.0
860.0
860.0
858.0
861.0
862.0
864.0
866.0
864.0
864.0
862.0
862.0
860.0
861.0
860.0
863.0
864.0
865.0
864.0
867.0
865.0
865.0
865.0
863.0
863.0
861.0
862.0
863.0
864.0
866.0
866.0
865.0
865.0
864.0
864.0
863.0
862.0
861.0
862.0
865.0
866.0
868.0
870.0
869.0
866.0
865.0
863.0
863.0
864.0
863.0
862.0
864.0
865.0
868.0
868.0
869.0
869.0
865.0
863.0
862.0
864.0
862.0
864.0
866.0
867.0
867.0
866.0
869.0
868.0
868.0
864.0
864.0
864.0
861.0
862.0
863.0
864.0
865.0
869.0
869.0
867.0
866.0
865.0
862.0
862.0
863.0
865.0
863.0
866.0
867.0
868.0
868.0
868.0
864.0
864.0
863.0
866.0
863.0
865.0
865.0
866.0
867.0
871.0
869.0
869.0
867.0
867.0
865.0
866.0
863.0
864.0
866.0
866.0
868.0
869.0
868.0
870.0
870.0
867.0
866.0
865.0
864.0
864.0
867.0
867.0
870.0
873.0
872.0
872.0
873.0
867.0
866.0
868.0
869.0
869.0
870.0
868.0
872.0
875.0
876.0
874.0
874.0
874.0
876.0
878.0
875.0
877.0
882.0
883.0
884.0
884.0
884.0
882.0
878.0
875.0
873.0
874.0
874.0
872.0
873.0
878.0
883.0
887.0
887.0
889.0
885.0
882.0
877.0
876.0
872.0
872.0
868.0
867.0
868.0
867.0
868.0
867.0
866.0
866.0
863.0
865.0
864.0
865.0
865.0
866.0
867.0
866.0
866.0
866.0
872.0
882.0
894.0
909.0
926.0
936.0
944.0
940.0
926.0
904.0
880.0
867.0
869.0
897.0
938.0
987.0
1041.0
1095.0
1144.0
1191.0
1232.0
1267.0
1292.0
1305.0
1308.0
1298.0
1281.0
1257.0
1225.0
1187.0
1146.0
1103.0
1060.0
1020.0
974.0
928.0
884.0
847.0
821.0
809.0
805.0
810.0
816.0
823.0
827.0
836.0
839.0
840.0
841.0
838.0
834.0
835.0
833.0
835.0
834.0
837.0
836.0
837.0
837.0
837.0
837.0
835.0
833.0
832.0
833.0
830.0
830.0
831.0
832.0
833.0
835.0
831.0
830.0
828.0
827.0
827.0
826.0
825.0
827.0
826.0
828.0
828.0
827.0
827.0
828.0
824.0
822.0
820.0
820.0
819.0
819.0
823.0
820.0
821.0
822.0
821.0
819.0
818.0
815.0
813.0
813.0
812.0
811.0
811.0
809.0
810.0
810.0
809.0
807.0
805.0
801.0
801.0
799.0
799.0
799.0
799.0
799.0
799.0
803.0
803.0
801.0
800.0
800.0
798.0
798.0
802.0
803.0
805.0
808.0
813.0
814.0
813.0
817.0
817.0
820.0
823.0
824.0
828.0
833.0
836.0
842.0
846.0
847.0
850.0
849.0
852.0
856.0
857.0
861.0
863.0
864.0
870.0
871.0
875.0
876.0
877.0
877.0
874.0
873.0
870.0
871.0
869.0
870.0
871.0
870.0
871.0
866.0
866.0
863.0
860.0
857.0
853.0
851.0
849.0
848.0
846.0
846.0
843.0
844.0
839.0
839.0
839.0
835.0
837.0
834.0
832.0
831.0
834.0
834.0
835.0
836.0
835.0
836.0
834.0
835.0
837.0
837.0
836.0
838.0
837.0
836.0
840.0
844.0
844.0
844.0
844.0
843.0
843.0
844.0
845.0
846.0
847.0
847.0
850.0
851.0
847.0
851.0
848.0
847.0
851.0
850.0
849.0
848.0
850.0
851.0
854.0
853.0
855.0
852.0
854.0
853.0
854.0
852.0
853.0
854.0
855.0
856.0
857.0
858.0
858.0
856.0
856.0
855.0
854.0
854.0
856.0
855.0
858.0
860.0
859.0
861.0
859.0
858.0
857.0
856.0
856.0
856.0
857.0
857.0
859.0
859.0
859.0
859.0
860.0
862.0
858.0
859.0
858.0
859.0
860.0
860.0
860.0
862.0
865.0
862.0
861.0
861.0
859.0
864.0
861.0
858.0
859.0
860.0
861.0
861.0
866.0
864.0
864.0
863.0
862.0
862.0
859.0
859.0
859.0
860.0
860.0
862.0
865.0
863.0
862.0
862.0
861.0
862.0
861.0
859.0
862.0
864.0
864.0
866.0
863.0
864.0
864.0
866.0
864.0
863.0
862.0
862.0
863.0
863.0
865.0
864.0
868.0
866.0
865.0
864.0
864.0
862.0
864.0
862.0
863.0
864.0
863.0
868.0
867.0
866.0
866.0
867.0
864.0
866.0
864.0
863.0
862.0
862.0
864.0
866.0
867.0
868.0
866.0
865.0
864.0
865.0
864.0
862.0
864.0
864.0
864.0
865.0
869.0
867.0
863.0
867.0
866.0
866.0
864.0
862.0
863.0
864.0
866.0
866.0
870.0
870.0
866.0
867.0
865.0
865.0
865.0
866.0
864.0
867.0
869.0
872.0
872.0
871.0
871.0
872.0
871.0
871.0
871.0
872.0
870.0
871.0
872.0
873.0
876.0
877.0
878.0
881.0
881.0
880.0
881.0
880.0
879.0
876.0
878.0
876.0
878.0
878.0
876.0
878.0
876.0
875.0
878.0
881.0
883.0
887.0
887.0
885.0
884.0
883.0
880.0
876.0
872.0
868.0
868.0
863.0
863.0
866.0
866.0
867.0
868.0
868.0
868.0
867.0
867.0
863.0
862.0
863.0
860.0
859.0
863.0
869.0
883.0
901.0
920.0
933.0
943.0
949.0
947.0
932.0
907.0
878.0
851.0
841.0
853.0
882.0
926.0
977.0
1024.0
1068.0
1108.0
1146.0
1183.0
1215.0
1239.0
1255.0
1261.0
1258.0
1248.0
1226.0
1194.0
1154.0
1111.0
1063.0
1011.0
961.0
907.0
867.0
839.0
821.0
816.0
817.0
822.0
826.0
832.0
837.0
840.0
842.0
844.0
844.0
847.0
845.0
844.0
842.0
839.0
837.0
837.0
837.0
838.0
841.0
841.0
841.0
844.0
840.0
842.0
841.0
840.0
837.0
839.0
839.0
837.0
835.0
838.0
838.0
842.0
841.0
841.0
839.0
838.0
834.0
832.0
834.0
834.0
836.0
835.0
837.0
838.0
837.0
836.0
834.0
830.0
829.0
830.0
830.0
829.0
831.0
829.0
832.0
832.0
832.0
827.0
827.0
827.0
827.0
825.0
820.0
823.0
819.0
820.0
819.0
821.0
823.0
818.0
817.0
815.0
816.0
813.0
810.0
811.0
812.0
813.0
812.0
811.0
816.0
814.0
813.0
809.0
808.0
808.0
806.0
808.0
812.0
814.0
817.0
819.0
820.0
821.0
819.0
821.0
819.0
821.0
825.0
827.0
831.0
835.0
839.0
842.0
845.0
850.0
849.0
849.0
851.0
855.0
856.0
860.0
864.0
867.0
871.0
872.0
872.0
874.0
876.0
879.0
879.0
877.0
878.0
880.0
880.0
882.0
883.0
886.0
884.0
882.0
882.0
881.0
879.0
872.0
870.0
867.0
867.0
865.0
864.0
863.0
861.0
859.0
854.0
849.0
845.0
843.0
844.0
842.0
842.0
844.0
844.0
845.0
842.0
841.0
842.0
840.0
840.0
839.0
837.0
837.0
838.0
839.0
840.0
841.0
843.0
843.0
840.0
842.0
842.0
842.0
843.0
843.0
844.0
845.0
846.0
849.0
849.0
849.0
849.0
849.0
847.0
848.0
846.0
848.0
850.0
850.0
851.0
853.0
854.0
852.0
854.0
852.0
851.0
850.0
852.0
850.0
852.0
856.0
853.0
855.0
856.0
855.0
853.0
851.0
852.0
853.0
853.0
854.0
855.0
856.0
857.0
859.0
859.0
858.0
857.0
855.0
855.0
854.0
853.0
854.0
856.0
858.0
858.0
859.0
860.0
860.0
860.0
857.0
858.0
858.0
857.0
858.0
858.0
858.0
860.0
864.0
862.0
862.0
862.0
858.0
859.0
856.0
858.0
857.0
857.0
861.0
858.0
862.0
861.0
860.0
860.0
859.0
857.0
858.0
858.0
857.0
858.0
859.0
862.0
863.0
863.0
862.0
863.0
861.0
860.0
857.0
861.0
860.0
862.0
863.0
863.0
865.0
867.0
865.0
864.0
862.0
862.0
860.0
861.0
862.0
861.0
862.0
861.0
863.0
864.0
866.0
866.0
863.0
861.0
862.0
861.0
861.0
861.0
860.0
862.0
865.0
865.0
865.0
863.0
863.0
863.0
860.0
860.0
857.0
859.0
862.0
861.0
863.0
863.0
863.0
863.0
861.0
861.0
860.0
857.0
858.0
858.0
862.0
864.0
864.0
863.0
863.0
861.0
861.0
860.0
861.0
860.0
860.0
861.0
864.0
863.0
863.0
863.0
865.0
866.0
868.0
867.0
870.0
871.0
871.0
873.0
875.0
877.0
877.0
874.0
872.0
870.0
868.0
865.0
865.0
865.0
866.0
865.0
867.0
869.0
875.0
877.0
880.0
881.0
877.0
874.0
869.0
865.0
859.0
858.0
858.0
856.0
856.0
858.0
859.0
856.0
856.0
856.0
856.0
853.0
853.0
855.0
851.0
854.0
858.0
867.0
879.0
894.0
910.0
925.0
934.0
935.0
926.0
906.0
880.0
859.0
854.0
867.0
897.0
943.0
994.0
1044.0
1095.0
1141.0
1184.0
1224.0
1257.0
1283.0
1299.0
1303.0
1295.0
1276.0
1249.0
1212.0
1166.0
1119.0
1074.0
1031.0
989.0
949.0
910.0
875.0
846.0
823.0
811.0
804.0
801.0
804.0
808.0
813.0
818.0
822.0
825.0
825.0
830.0
829.0
827.0
826.0
824.0
823.0
823.0
823.0
821.0
824.0
825.0
827.0
825.0
823.0
822.0
820.0
819.0
817.0
819.0
822.0
821.0
820.0
824.0
822.0
822.0
821.0
821.0
818.0
817.0
818.0
816.0
817.0
818.0
816.0
817.0
818.0
816.0
816.0
814.0
813.0
810.0
810.0
809.0
810.0
810.0
810.0
810.0
808.0
807.0
808.0
805.0
803.0
802.0
802.0
803.0
801.0
801.0
801.0
799.0
797.0
799.0
797.0
794.0
792.0
791.0
792.0
791.0
789.0
792.0
791.0
789.0
790.0
790.0
789.0
787.0
785.0
786.0
787.0
787.0
789.0
793.0
794.0
797.0
800.0
802.0
806.0
807.0
806.0
808.0
814.0
816.0
816.0
822.0
829.0
834.0
837.0
838.0
844.0
843.0
846.0
849.0
853.0
855.0
856.0
858.0
862.0
865.0
864.0
868.0
867.0
869.0
869.0
865.0
865.0
865.0
863.0
863.0
863.0
862.0
860.0
859.0
855.0
854.0
850.0
849.0
846.0
846.0
844.0
843.0
841.0
840.0
837.0
838.0
836.0
833.0
833.0
829.0
829.0
830.0
829.0
830.0
829.0
830.0
833.0
833.0
833.0
832.0
832.0
833.0
831.0
834.0
834.0
837.0
839.0
838.0
842.0
841.0
843.0
841.0
841.0
840.0
839.0
841.0
841.0
842.0
843.0
846.0
847.0
846.0
845.0
843.0
841.0
843.0
842.0
843.0
843.0
844.0
848.0
849.0
849.0
851.0
849.0
845.0
843.0
846.0
846.0
847.0
846.0
847.0
846.0
851.0
849.0
850.0
849.0
847.0
849.0
847.0
849.0
847.0
850.0
848.0
849.0
849.0
853.0
849.0
849.0
848.0
848.0
848.0
849.0
849.0
851.0
854.0
853.0
855.0
854.0
853.0
853.0
850.0
851.0
851.0
850.0
849.0
852.0
854.0
854.0
856.0
857.0
856.0
853.0
853.0
852.0
852.0
850.0
851.0
850.0
853.0
851.0
851.0
853.0
855.0
854.0
851.0
851.0
853.0
852.0
853.0
854.0
855.0
855.0
853.0
854.0
856.0
853.0
855.0
852.0
852.0
852.0
853.0
854.0
853.0
856.0
857.0
856.0
856.0
856.0
855.0
854.0
854.0
855.0
852.0
853.0
854.0
856.0
859.0
863.0
861.0
859.0
857.0
856.0
854.0
854.0
855.0
855.0
856.0
858.0
860.0
861.0
859.0
857.0
858.0
856.0
855.0
854.0
854.0
855.0
857.0
859.0
861.0
860.0
861.0
860.0
857.0
856.0
856.0
856.0
855.0
856.0
858.0
858.0
861.0
863.0
861.0
858.0
857.0
857.0
855.0
856.0
854.0
856.0
857.0
857.0
859.0
862.0
860.0
858.0
860.0
857.0
856.0
856.0
855.0
855.0
857.0
857.0
860.0
861.0
861.0
861.0
862.0
864.0
861.0
862.0
861.0
860.0
862.0
863.0
865.0
866.0
865.0
866.0
869.0
871.0
871.0
872.0
872.0
875.0
873.0
875.0
874.0
871.0
870.0
868.0
867.0
867.0
866.0
863.0
867.0
864.0
867.0
872.0
875.0
879.0
879.0
878.0
875.0
870.0
866.0
862.0
858.0
856.0
855.0
856.0
855.0
855.0
857.0
857.0
855.0
853.0
851.0
850.0
853.0
852.0
851.0
852.0
851.0
851.0
854.0
861.0
876.0
892.0
907.0
919.0
928.0
933.0
935.0
929.0
910.0
885.0
856.0
835.0
829.0
846.0
881.0
926.0
977.0
1026.0
1076.0
1121.0
1165.0
1207.0
1239.0
1263.0
1277.0
1281.0
1275.0
1262.0
1244.0
1216.0
1182.0
1145.0
1108.0
1070.0
1027.0
983.0
935.0
890.0
851.0
827.0
812.0
803.0
804.0
809.0
814.0
818.0
821.0
823.0
825.0
828.0
827.0
828.0
828.0
830.0
831.0
830.0
830.0
831.0
830.0
829.0
828.0
827.0
826.0
825.0
825.0
827.0
828.0
831.0
829.0
829.0
830.0
829.0
828.0
827.0
825.0
824.0
824.0
824.0
826.0
827.0
825.0
824.0
828.0
826.0
823.0
821.0
819.0
822.0
821.0
821.0
822.0
823.0
825.0
828.0
825.0
824.0
820.0
816.0
816.0
815.0
813.0
812.0
814.0
815.0
817.0
816.0
816.0
813.0
809.0
810.0
806.0
805.0
803.0
804.0
806.0
803.0
804.0
803.0
800.0
802.0
799.0
799.0
796.0
796.0
794.0
798.0
797.0
796.0
798.0
801.0
800.0
799.0
799.0
798.0
799.0
801.0
803.0
807.0
811.0
815.0
819.0
821.0
822.0
825.0
826.0
829.0
829.0
829.0
834.0
839.0
844.0
849.0
852.0
856.0
857.0
859.0
859.0
860.0
861.0
860.0
863.0
866.0
867.0
871.0
871.0
870.0
869.0
866.0
867.0
864.0
860.0
859.0
857.0
856.0
857.0
859.0
853.0
852.0
849.0
849.0
845.0
841.0
838.0
835.0
835.0
833.0
835.0
831.0
837.0
834.0
830.0
831.0
831.0
828.0
826.0
824.0
826.0
827.0
826.0
828.0
830.0
831.0
829.0
829.0
830.0
828.0
829.0
827.0
829.0
831.0
833.0
836.0
839.0
838.0
838.0
838.0
838.0
835.0
835.0
835.0
834.0
835.0
838.0
840.0
842.0
843.0
844.0
841.0
842.0
841.0
839.0
839.0
840.0
841.0
844.0
843.0
847.0
847.0
848.0
846.0
842.0
843.0
842.0
843.0
844.0
843.0
844.0
847.0
850.0
848.0
850.0
851.0
849.0
847.0
845.0
843.0
847.0
846.0
849.0
852.0
853.0
851.0
853.0
851.0
851.0
851.0
849.0
847.0
849.0
848.0
849.0
849.0
852.0
853.0
854.0
852.0
849.0
848.0
847.0
849.0
849.0
848.0
850.0
850.0
852.0
851.0
852.0
848.0
846.0
848.0
847.0
847.0
847.0
847.0
848.0
850.0
851.0
851.0
852.0
851.0
851.0
851.0
848.0
846.0
846.0
847.0
849.0
851.0
852.0
854.0
853.0
850.0
849.0
850.0
847.0
848.0
846.0
848.0
850.0
852.0
851.0
856.0
854.0
853.0
851.0
850.0
850.0
849.0
849.0
849.0
851.0
850.0
851.0
853.0
852.0
853.0
851.0
850.0
849.0
850.0
849.0
849.0
851.0
852.0
852.0
853.0
853.0
854.0
853.0
851.0
849.0
847.0
850.0
850.0
849.0
851.0
851.0
854.0
853.0
852.0
851.0
849.0
850.0
850.0
848.0
851.0
852.0
851.0
851.0
854.0
853.0
853.0
852.0
853.0
851.0
852.0
852.0
851.0
852.0
855.0
859.0
859.0
861.0
857.0
857.0
856.0
854.0
857.0
859.0
862.0
865.0
865.0
868.0
868.0
869.0
868.0
866.0
863.0
856.0
856.0
854.0
857.0
857.0
857.0
860.0
858.0
863.0
865.0
866.0
865.0
867.0
864.0
862.0
860.0
860.0
857.0
855.0
853.0
851.0
847.0
845.0
847.0
845.0
845.0
844.0
845.0
846.0
848.0
847.0
846.0
841.0
840.0
846.0
854.0
870.0
890.0
907.0
923.0
933.0
933.0
913.0
884.0
853.0
833.0
832.0
856.0
902.0
957.0
1016.0
1075.0
1131.0
1179.0
1220.0
1252.0
1270.0
1274.0
1264.0
1246.0
1215.0
1173.0
1124.0
1069.0
1019.0
970.0
922.0
879.0
843.0
817.0
800.0
795.0
797.0
800.0
806.0
813.0
819.0
820.0
826.0
828.0
827.0
825.0
825.0
821.0
824.0
822.0
823.0
819.0
822.0
824.0
827.0
828.0
828.0
826.0
826.0
824.0
823.0
822.0
821.0
821.0
820.0
822.0
825.0
826.0
825.0
824.0
824.0
822.0
819.0
818.0
817.0
816.0
817.0
818.0
816.0
817.0
818.0
815.0
813.0
811.0
809.0
808.0
807.0
806.0
809.0
808.0
806.0
805.0
805.0
802.0
801.0
801.0
800.0
799.0
798.0
800.0
797.0
799.0
798.0
797.0
797.0
795.0
795.0
793.0
789.0
787.0
788.0
786.0
787.0
786.0
787.0
787.0
787.0
785.0
788.0
783.0
782.0
781.0
783.0
784.0
787.0
792.0
795.0
801.0
802.0
804.0
804.0
807.0
807.0
810.0
812.0
816.0
818.0
822.0
828.0
832.0
836.0
837.0
836.0
840.0
841.0
843.0
846.0
848.0
853.0
856.0
858.0
862.0
864.0
864.0
865.0
865.0
861.0
862.0
861.0
862.0
863.0
865.0
864.0
864.0
863.0
860.0
858.0
855.0
851.0
849.0
849.0
847.0
847.0
846.0
845.0
844.0
843.0
840.0
837.0
837.0
836.0
833.0
833.0
831.0
833.0
831.0
832.0
835.0
834.0
832.0
833.0
833.0
830.0
830.0
831.0
832.0
832.0
834.0
836.0
838.0
835.0
836.0
835.0
834.0
832.0
833.0
836.0
837.0
841.0
842.0
845.0
846.0
844.0
843.0
840.0
842.0
842.0
839.0
841.0
841.0
842.0
842.0
843.0
847.0
847.0
846.0
843.0
845.0
844.0
843.0
845.0
845.0
846.0
847.0
849.0
853.0
852.0
848.0
847.0
847.0
844.0
847.0
848.0
848.0
849.0
851.0
852.0
853.0
852.0
850.0
848.0
850.0
851.0
849.0
849.0
851.0
853.0
853.0
855.0
856.0
856.0
854.0
854.0
850.0
849.0
851.0
850.0
852.0
854.0
854.0
856.0
859.0
858.0
855.0
856.0
852.0
851.0
851.0
852.0
850.0
851.0
851.0
854.0
856.0
854.0
854.0
854.0
854.0
853.0
852.0
850.0
851.0
852.0
853.0
856.0
859.0
858.0
856.0
853.0
852.0
851.0
853.0
853.0
850.0
853.0
853.0
855.0
856.0
856.0
856.0
853.0
854.0
850.0
849.0
849.0
852.0
855.0
855.0
857.0
859.0
856.0
857.0
853.0
853.0
852.0
852.0
852.0
852.0
856.0
857.0
855.0
858.0
860.0
858.0
856.0
854.0
853.0
851.0
848.0
852.0
853.0
855.0
855.0
858.0
856.0
854.0
855.0
855.0
854.0
853.0
852.0
855.0
855.0
856.0
856.0
858.0
857.0
858.0
857.0
853.0
852.0
848.0
848.0
846.0
848.0
854.0
856.0
858.0
859.0
857.0
854.0
853.0
852.0
854.0
852.0
852.0
851.0
856.0
859.0
860.0
860.0
859.0
858.0
858.0
857.0
860.0
858.0
859.0
858.0
859.0
858.0
860.0
861.0
862.0
866.0
866.0
865.0
867.0
867.0
868.0
867.0
868.0
868.0
868.0
868.0
867.0
862.0
863.0
861.0
861.0
860.0
860.0
866.0
868.0
871.0
877.0
877.0
874.0
870.0
864.0
861.0
854.0
851.0
851.0
854.0
854.0
855.0
858.0
857.0
854.0
853.0
852.0
853.0
849.0
849.0
848.0
847.0
847.0
850.0
858.0
870.0
887.0
904.0
917.0
926.0
929.0
929.0
922.0
901.0
876.0
852.0
839.0
841.0
873.0
915.0
967.0
1019.0
1070.0
1116.0
1162.0
1206.0
1243.0
1275.0
1293.0
1300.0
