# Simple Text Format
# Sampling Rate (Hz):= 360.00
# Resolution:= 12
# Labels:= ECG
899.0
899.0
897.0
897.0
896.0
893.0
892.0
891.0
890.0
893.0
895.0
896.0
896.0
898.0
897.0
895.0
893.0
893.0
893.0
894.0
894.0
894.0
895.0
894.0
896.0
898.0
899.0
897.0
895.0
894.0
892.0
892.0
892.0
894.0
895.0
896.0
896.0
895.0
897.0
895.0
894.0
891.0
891.0
891.0
893.0
895.0
894.0
897.0
898.0
902.0
902.0
898.0
896.0
895.0
894.0
895.0
899.0
900.0
903.0
906.0
908.0
910.0
910.0
907.0
905.0
903.0
896.0
895.0
894.0
893.0
894.0
896.0
896.0
900.0
900.0
901.0
904.0
902.0
901.0
901.0
900.0
899.0
898.0
894.0
893.0
891.0
886.0
884.0
883.0
880.0
880.0
880.0
882.0
882.0
885.0
885.0
885.0
884.0
883.0
877.0
875.0
876.0
881.0
893.0
908.0
926.0
945.0
958.0
966.0
968.0
959.0
940.0
910.0
884.0
865.0
866.0
889.0
929.0
981.0
1036.0
1091.0
1140.0
1184.0
1224.0
1255.0
1280.0
1295.0
1299.0
1294.0
1287.0
1267.0
1238.0
1204.0
1160.0
1117.0
1072.0
1030.0
987.0
942.0
906.0
870.0
845.0
830.0
822.0
821.0
828.0
831.0
837.0
839.0
846.0
846.0
845.0
848.0
850.0
850.0
849.0
845.0
846.0
847.0
847.0
846.0
845.0
843.0
843.0
842.0
844.0
845.0
845.0
845.0
847.0
847.0
846.0
841.0
843.0
841.0
840.0
839.0
839.0
839.0
840.0
841.0
840.0
840.0
840.0
837.0
836.0
837.0
835.0
834.0
834.0
833.0
835.0
835.0
834.0
831.0
830.0
830.0
827.0
826.0
825.0
824.0
825.0
827.0
828.0
825.0
822.0
822.0
821.0
818.0
819.0
818.0
816.0
814.0
813.0
814.0
812.0
812.0
812.0
809.0
810.0
807.0
804.0
804.0
803.0
801.0
803.0
803.0
803.0
801.0
803.0
803.0
804.0
802.0
801.0
801.0
803.0
803.0
806.0
804.0
806.0
809.0
814.0
815.0
817.0
818.0
822.0
822.0
824.0
826.0
828.0
832.0
840.0
844.0
847.0
850.0
852.0
854.0
856.0
858.0
860.0
861.0
865.0
869.0
872.0
876.0
877.0
879.0
879.0
880.0
879.0
876.0
878.0
875.0
877.0
878.0
876.0
874.0
874.0
871.0
871.0
867.0
863.0
860.0
856.0
853.0
852.0
851.0
852.0
852.0
851.0
847.0
847.0
845.0
841.0
840.0
838.0
837.0
838.0
838.0
841.0
844.0
843.0
842.0
844.0
841.0
840.0
839.0
839.0
839.0
839.0
840.0
843.0
846.0
846.0
849.0
850.0
848.0
848.0
847.0
847.0
848.0
848.0
850.0
852.0
854.0
855.0
855.0
853.0
854.0
855.0
853.0
850.0
850.0
850.0
851.0
853.0
854.0
857.0
856.0
856.0
855.0
854.0
853.0
853.0
852.0
855.0
856.0
858.0
859.0
858.0
860.0
858.0
857.0
857.0
856.0
856.0
855.0
857.0
857.0
857.0
857.0
857.0
859.0
858.0
857.0
857.0
855.0
855.0
856.0
856.0
856.0
857.0
857.0
859.0
860.0
860.0
859.0
858.0
855.0
853.0
855.0
856.0
857.0
857.0
860.0
860.0
861.0
861.0
858.0
858.0
856.0
856.0
856.0
858.0
858.0
858.0
859.0
862.0
859.0
862.0
859.0
859.0
858.0
854.0
854.0
856.0
857.0
856.0
859.0
860.0
857.0
860.0
859.0
859.0
855.0
855.0
856.0
857.0
857.0
858.0
861.0
860.0
860.0
860.0
859.0
858.0
855.0
854.0
855.0
855.0
858.0
857.0
855.0
858.0
858.0
858.0
857.0
856.0
856.0
856.0
855.0
857.0
858.0
854.0
856.0
857.0
855.0
856.0
856.0
852.0
853.0
854.0
853.0
855.0
853.0
854.0
857.0
859.0
857.0
857.0
856.0
855.0
855.0
853.0
854.0
855.0
854.0
855.0
855.0
858.0
859.0
858.0
856.0
857.0
852.0
852.0
851.0
852.0
853.0
855.0
858.0
859.0
859.0
855.0
856.0
854.0
855.0
853.0
853.0
852.0
856.0
856.0
859.0
858.0
859.0
858.0
860.0
857.0
858.0
855.0
856.0
854.0
855.0
860.0
862.0
860.0
861.0
861.0
861.0
866.0
868.0
869.0
868.0
868.0
870.0
872.0
872.0
871.0
868.0
866.0
862.0
859.0
860.0
860.0
859.0
860.0
865.0
868.0
874.0
879.0
877.0
876.0
872.0
868.0
867.0
862.0
857.0
856.0
854.0
855.0
857.0
853.0
851.0
849.0
848.0
847.0
847.0
846.0
849.0
848.0
849.0
849.0
849.0
850.0
846.0
847.0
849.0
855.0
869.0
884.0
902.0
916.0
928.0
935.0
929.0
914.0
887.0
861.0
842.0
840.0
856.0
892.0
938.0
985.0
1035.0
1081.0
1128.0
1176.0
1219.0
1252.0
1278.0
1290.0
1283.0
1264.0
1232.0
1189.0
1139.0
1092.0
1043.0
994.0
945.0
902.0
859.0
827.0
805.0
795.0
789.0
793.0
799.0
805.0
811.0
818.0
822.0
823.0
825.0
824.0
824.0
820.0
821.0
822.0
822.0
822.0
823.0
824.0
823.0
826.0
824.0
821.0
819.0
820.0
819.0
820.0
821.0
821.0
824.0
825.0
824.0
823.0
821.0
819.0
820.0
820.0
817.0
818.0
819.0
819.0
819.0
819.0
821.0
820.0
818.0
815.0
816.0
814.0
808.0
810.0
809.0
809.0
814.0
814.0
814.0
809.0
810.0
808.0
807.0
805.0
803.0
802.0
802.0
803.0
804.0
805.0
801.0
801.0
799.0
799.0
795.0
793.0
792.0
793.0
792.0
793.0
793.0
794.0
791.0
790.0
791.0
788.0
788.0
785.0
786.0
784.0
786.0
786.0
789.0
790.0
793.0
795.0
793.0
791.0
794.0
797.0
797.0
800.0
803.0
806.0
811.0
815.0
814.0
819.0
818.0
825.0
824.0
827.0
827.0
832.0
835.0
838.0
845.0
846.0
849.0
849.0
849.0
851.0
853.0
855.0
855.0
856.0
858.0
860.0
861.0
863.0
861.0
861.0
859.0
856.0
850.0
848.0
847.0
846.0
844.0
841.0
841.0
838.0
836.0
835.0
831.0
828.0
826.0
825.0
823.0
821.0
821.0
821.0
822.0
822.0
822.0
820.0
818.0
816.0
815.0
813.0
812.0
813.0
814.0
819.0
820.0
819.0
822.0
821.0
821.0
821.0
819.0
818.0
820.0
821.0
824.0
826.0
827.0
828.0
828.0
827.0
827.0
825.0
824.0
824.0
826.0
829.0
831.0
833.0
834.0
835.0
835.0
835.0
833.0
834.0
831.0
832.0
831.0
831.0
833.0
834.0
835.0
837.0
837.0
837.0
836.0
836.0
835.0
837.0
834.0
835.0
833.0
835.0
839.0
840.0
839.0
840.0
838.0
835.0
835.0
834.0
832.0
834.0
838.0
840.0
840.0
842.0
841.0
840.0
839.0
837.0
834.0
834.0
832.0
834.0
837.0
838.0
839.0
840.0
843.0
840.0
840.0
839.0
837.0
836.0
835.0
836.0
838.0
839.0
842.0
843.0
841.0
840.0
840.0
836.0
836.0
836.0
835.0
834.0
837.0
838.0
840.0
840.0
839.0
841.0
837.0
836.0
836.0
835.0
835.0
835.0
837.0
839.0
842.0
843.0
843.0
840.0
840.0
838.0
838.0
837.0
837.0
837.0
838.0
841.0
841.0
842.0
844.0
843.0
840.0
841.0
838.0
838.0
836.0
837.0
839.0
839.0
841.0
843.0
841.0
838.0
839.0
837.0
837.0
835.0
836.0
836.0
839.0
841.0
842.0
843.0
840.0
840.0
840.0
841.0
840.0
839.0
838.0
840.0
840.0
841.0
843.0
844.0
844.0
843.0
842.0
840.0
836.0
837.0
837.0
837.0
839.0
840.0
841.0
845.0
842.0
843.0
841.0
842.0
840.0
839.0
840.0
839.0
842.0
843.0
843.0
847.0
848.0
849.0
848.0
847.0
847.0
844.0
845.0
846.0
846.0
849.0
853.0
855.0
857.0
855.0
858.0
858.0
855.0
852.0
848.0
847.0
847.0
847.0
849.0
851.0
850.0
849.0
848.0
848.0
850.0
852.0
857.0
858.0
859.0
858.0
858.0
857.0
856.0
851.0
849.0
844.0
841.0
837.0
836.0
834.0
835.0
838.0
843.0
845.0
844.0
843.0
843.0
839.0
837.0
835.0
835.0
832.0
837.0
847.0
862.0
880.0
900.0
913.0
927.0
928.0
922.0
904.0
875.0
841.0
817.0
809.0
824.0
860.0
907.0
962.0
1012.0
1061.0
1109.0
1152.0
1189.0
1216.0
1232.0
1234.0
1223.0
1203.0
1165.0
1120.0
1073.0
1026.0
982.0
936.0
895.0
858.0
829.0
809.0
801.0
797.0
799.0
802.0
805.0
808.0
812.0
815.0
814.0
816.0
820.0
821.0
822.0
823.0
820.0
820.0
818.0
816.0
820.0
820.0
819.0
817.0
819.0
818.0
817.0
819.0
821.0
820.0
820.0
818.0
818.0
815.0
816.0
815.0
818.0
819.0
822.0
821.0
820.0
819.0
816.0
817.0
812.0
812.0
811.0
812.0
814.0
813.0
813.0
816.0
815.0
813.0
813.0
809.0
808.0
807.0
805.0
806.0
806.0
808.0
808.0
805.0
806.0
806.0
802.0
799.0
797.0
796.0
794.0
795.0
796.0
795.0
795.0
797.0
794.0
793.0
790.0
788.0
785.0
781.0
779.0
778.0
779.0
782.0
783.0
785.0
782.0
785.0
783.0
780.0
778.0
778.0
779.0
782.0
781.0
787.0
788.0
790.0
790.0
791.0
791.0
790.0
790.0
792.0
791.0
794.0
799.0
804.0
810.0
813.0
816.0
815.0
816.0
819.0
821.0
826.0
826.0
828.0
831.0
835.0
840.0
845.0
847.0
847.0
848.0
846.0
848.0
850.0
848.0
851.0
851.0
856.0
857.0
858.0
858.0
855.0
852.0
849.0
849.0
846.0
842.0
842.0
841.0
840.0
839.0
841.0
834.0
833.0
830.0
826.0
825.0
823.0
821.0
823.0
821.0
822.0
821.0
823.0
821.0
821.0
821.0
818.0
818.0
816.0
814.0
816.0
818.0
817.0
818.0
821.0
821.0
821.0
820.0
818.0
818.0
819.0
819.0
821.0
823.0
825.0
827.0
828.0
830.0
827.0
826.0
825.0
822.0
822.0
824.0
826.0
827.0
829.0
831.0
833.0
832.0
831.0
831.0
829.0
828.0
830.0
828.0
831.0
833.0
833.0
835.0
835.0
835.0
834.0
835.0
835.0
834.0
833.0
833.0
834.0
837.0
835.0
837.0
837.0
837.0
838.0
837.0
833.0
835.0
834.0
835.0
835.0
835.0
836.0
838.0
842.0
836.0
836.0
838.0
837.0
835.0
835.0
834.0
835.0
838.0
839.0
841.0
842.0
840.0
839.0
839.0
837.0
837.0
835.0
836.0
835.0
836.0
838.0
837.0
841.0
843.0
842.0
842.0
839.0
837.0
837.0
837.0
835.0
838.0
840.0
841.0
843.0
843.0
840.0
840.0
839.0
840.0
839.0
838.0
838.0
839.0
842.0
844.0
843.0
842.0
842.0
842.0
841.0
839.0
837.0
838.0
839.0
841.0
841.0
843.0
844.0
843.0
843.0
844.0
842.0
839.0
841.0
841.0
841.0
841.0
843.0
844.0
844.0
846.0
846.0
841.0
841.0
839.0
837.0
837.0
837.0
837.0
840.0
843.0
843.0
842.0
842.0
843.0
838.0
837.0
837.0
836.0
837.0
840.0
841.0
842.0
842.0
840.0
840.0
839.0
842.0
842.0
839.0
840.0
837.0
841.0
841.0
842.0
844.0
844.0
844.0
842.0
839.0
841.0
841.0
840.0
840.0
842.0
844.0
846.0
845.0
846.0
846.0
847.0
847.0
843.0
844.0
843.0
845.0
843.0
845.0
845.0
847.0
850.0
852.0
854.0
856.0
853.0
856.0
855.0
853.0
851.0
852.0
852.0
852.0
853.0
851.0
853.0
850.0
848.0
845.0
849.0
852.0
855.0
858.0
859.0
863.0
862.0
857.0
856.0
852.0
848.0
844.0
842.0
841.0
840.0
839.0
842.0
843.0
843.0
841.0
841.0
839.0
838.0
838.0
836.0
832.0
834.0
833.0
834.0
840.0
851.0
867.0
885.0
900.0
913.0
920.0
921.0
906.0
884.0
855.0
826.0
813.0
820.0
850.0
897.0
948.0
1005.0
1060.0
1113.0
1162.0
1203.0
1234.0
1253.0
1256.0
1246.0
1222.0
1191.0
1147.0
1103.0
1056.0
1010.0
962.0
915.0
871.0
836.0
812.0
796.0
791.0
792.0
793.0
799.0
802.0
804.0
807.0
811.0
813.0
816.0
818.0
819.0
817.0
817.0
812.0
811.0
810.0
809.0
811.0
810.0
814.0
815.0
817.0
817.0
815.0
816.0
814.0
813.0
812.0
808.0
810.0
813.0
812.0
813.0
813.0
813.0
813.0
812.0
811.0
810.0
808.0
807.0
806.0
808.0
808.0
809.0
809.0
808.0
806.0
807.0
806.0
805.0
802.0
800.0
800.0
801.0
800.0
799.0
803.0
802.0
798.0
796.0
794.0
791.0
793.0
789.0
790.0
790.0
789.0
787.0
788.0
787.0
788.0
783.0
782.0
781.0
779.0
779.0
777.0
777.0
779.0
779.0
779.0
779.0
779.0
776.0
777.0
776.0
774.0
777.0
777.0
778.0
781.0
781.0
787.0
787.0
788.0
791.0
792.0
792.0
796.0
797.0
799.0
803.0
806.0
810.0
815.0
817.0
822.0
822.0
823.0
827.0
828.0
830.0
833.0
836.0
841.0
844.0
849.0
851.0
853.0
851.0
853.0
853.0
853.0
853.0
852.0
854.0
857.0
855.0
855.0
855.0
851.0
849.0
844.0
841.0
841.0
838.0
836.0
835.0
835.0
834.0
833.0
833.0
829.0
828.0
826.0
822.0
823.0
821.0
821.0
822.0
823.0
822.0
823.0
826.0
825.0
826.0
823.0
824.0
824.0
822.0
820.0
821.0
822.0
825.0
829.0
828.0
827.0
826.0
826.0
827.0
826.0
825.0
826.0
830.0
830.0
833.0
833.0
832.0
835.0
834.0
833.0
831.0
829.0
828.0
828.0
831.0
831.0
834.0
835.0
836.0
837.0
833.0
835.0
834.0
833.0
833.0
835.0
836.0
837.0
837.0
840.0
841.0
839.0
840.0
836.0
837.0
836.0
836.0
834.0
836.0
841.0
841.0
843.0
841.0
841.0
839.0
839.0
837.0
835.0
837.0
839.0
836.0
839.0
841.0
843.0
841.0
840.0
840.0
839.0
839.0
838.0
836.0
837.0
838.0
840.0
843.0
843.0
842.0
841.0
843.0
840.0
838.0
839.0
840.0
837.0
839.0
837.0
841.0
840.0
841.0
842.0
840.0
838.0
840.0
838.0
840.0
840.0
842.0
842.0
844.0
846.0
843.0
844.0
844.0
843.0
841.0
841.0
840.0
841.0
843.0
844.0
845.0
844.0
844.0
845.0
844.0
842.0
842.0
842.0
840.0
841.0
842.0
840.0
842.0
845.0
846.0
840.0
842.0
841.0
839.0
840.0
841.0
843.0
845.0
844.0
846.0
845.0
846.0
844.0
847.0
844.0
844.0
841.0
843.0
842.0
844.0
844.0
845.0
848.0
844.0
845.0
844.0
843.0
842.0
842.0
840.0
840.0
842.0
843.0
845.0
849.0
848.0
847.0
847.0
845.0
845.0
844.0
842.0
842.0
842.0
847.0
849.0
849.0
848.0
849.0
849.0
848.0
846.0
844.0
843.0
844.0
843.0
845.0
848.0
851.0
851.0
851.0
850.0
849.0
849.0
848.0
847.0
846.0
847.0
850.0
854.0
854.0
856.0
856.0
859.0
861.0
861.0
861.0
860.0
860.0
861.0
861.0
861.0
861.0
859.0
858.0
856.0
854.0
852.0
850.0
849.0
847.0
848.0
854.0
859.0
863.0
862.0
865.0
866.0
865.0
865.0
863.0
858.0
857.0
855.0
853.0
851.0
849.0
849.0
847.0
846.0
846.0
847.0
844.0
842.0
844.0
845.0
848.0
848.0
849.0
848.0
843.0
843.0
842.0
844.0
853.0
866.0
882.0
897.0
910.0
922.0
929.0
925.0
910.0
885.0
857.0
836.0
830.0
846.0
884.0
930.0
985.0
1040.0
1092.0
1143.0
1186.0
1226.0
1257.0
1281.0
1293.0
1289.0
1282.0
1263.0
1238.0
1202.0
1161.0
1115.0
1071.0
1025.0
981.0
936.0
894.0
854.0
827.0
806.0
798.0
794.0
798.0
801.0
805.0
808.0
808.0
808.0
811.0
814.0
816.0
818.0
822.0
821.0
822.0
822.0
821.0
820.0
818.0
816.0
815.0
818.0
818.0
818.0
820.0
819.0
821.0
823.0
822.0
821.0
819.0
819.0
815.0
813.0
816.0
816.0
818.0
819.0
818.0
818.0
819.0
817.0
814.0
816.0
813.0
807.0
812.0
813.0
813.0
813.0
814.0
815.0
814.0
812.0
808.0
809.0
807.0
805.0
805.0
804.0
805.0
805.0
805.0
804.0
804.0
802.0
798.0
798.0
795.0
793.0
793.0
794.0
794.0
793.0
794.0
794.0
791.0
789.0
788.0
786.0
785.0
782.0
783.0
784.0
783.0
786.0
787.0
786.0
786.0
788.0
786.0
786.0
787.0
790.0
786.0
791.0
795.0
799.0
804.0
805.0
807.0
808.0
811.0
811.0
812.0
813.0
816.0
823.0
826.0
831.0
831.0
839.0
842.0
843.0
845.0
846.0
848.0
849.0
851.0
854.0
855.0
861.0
861.0
863.0
863.0
862.0
861.0
858.0
854.0
851.0
851.0
849.0
847.0
849.0
848.0
845.0
845.0
842.0
839.0
834.0
831.0
829.0
827.0
825.0
824.0
820.0
823.0
824.0
824.0
823.0
821.0
819.0
819.0
816.0
816.0
817.0
821.0
824.0
824.0
822.0
820.0
821.0
822.0
821.0
819.0
816.0
820.0
823.0
825.0
826.0
825.0
828.0
825.0
829.0
827.0
826.0
826.0
824.0
828.0
828.0
831.0
830.0
832.0
832.0
832.0
832.0
834.0
833.0
833.0
835.0
835.0
835.0
838.0
837.0
839.0
839.0
842.0
842.0
837.0
835.0
835.0
836.0
836.0
836.0
840.0
840.0
840.0
842.0
844.0
843.0
840.0
839.0
840.0
839.0
839.0
841.0
843.0
844.0
845.0
845.0
846.0
845.0
846.0
844.0
842.0
842.0
842.0
843.0
846.0
845.0
848.0
849.0
848.0
845.0
844.0
843.0
844.0
843.0
842.0
845.0
845.0
846.0
848.0
848.0
848.0
847.0
846.0
844.0
842.0
843.0
844.0
844.0
846.0
846.0
846.0
847.0
848.0
849.0
847.0
847.0
846.0
844.0
844.0
847.0
848.0
849.0
850.0
851.0
850.0
848.0
848.0
848.0
848.0
847.0
845.0
847.0
848.0
850.0
850.0
852.0
851.0
850.0
848.0
848.0
847.0
844.0
846.0
848.0
850.0
852.0
853.0
854.0
855.0
853.0
851.0
850.0
848.0
846.0
846.0
847.0
850.0
850.0
851.0
853.0
851.0
851.0
850.0
850.0
846.0
847.0
849.0
847.0
849.0
852.0
852.0
853.0
853.0
852.0
853.0
851.0
852.0
848.0
850.0
850.0
851.0
853.0
852.0
851.0
852.0
851.0
852.0
850.0
850.0
849.0
848.0
848.0
852.0
852.0
853.0
853.0
852.0
852.0
851.0
848.0
846.0
846.0
847.0
850.0
849.0
853.0
853.0
854.0
851.0
851.0
851.0
850.0
848.0
849.0
850.0
851.0
850.0
855.0
857.0
857.0
857.0
856.0
854.0
849.0
851.0
852.0
855.0
858.0
861.0
866.0
867.0
867.0
867.0
865.0
863.0
862.0
857.0
856.0
857.0
857.0
857.0
858.0
859.0
859.0
862.0
864.0
866.0
864.0
865.0
862.0
861.0
858.0
856.0
856.0
855.0
851.0
849.0
849.0
847.0
847.0
847.0
845.0
846.0
848.0
848.0
849.0
851.0
849.0
846.0
843.0
846.0
856.0
871.0
890.0
909.0
925.0
935.0
928.0
907.0
876.0
847.0
836.0
844.0
885.0
938.0
999.0
1061.0
1121.0
1172.0
1216.0
1245.0
1262.0
1267.0
1260.0
1242.0
1218.0
1183.0
1145.0
1101.0
1060.0
1015.0
969.0
922.0
879.0
844.0
819.0
803.0
797.0
797.0
801.0
809.0
816.0
820.0
824.0
827.0
827.0
828.0
828.0
826.0
824.0
823.0
820.0
821.0
820.0
822.0
823.0
824.0
827.0
827.0
825.0
823.0
821.0
821.0
820.0
820.0
820.0
820.0
822.0
822.0
822.0
821.0
822.0
822.0
819.0
817.0
815.0
815.0
814.0
816.0
817.0
819.0
818.0
817.0
816.0
814.0
811.0
810.0
810.0
809.0
809.0
810.0
809.0
808.0
811.0
811.0
809.0
806.0
806.0
804.0
802.0
802.0
801.0
801.0
802.0
801.0
802.0
801.0
799.0
793.0
796.0
792.0
791.0
793.0
793.0
792.0
792.0
792.0
792.0
791.0
789.0
790.0
789.0
789.0
789.0
790.0
792.0
792.0
796.0
795.0
799.0
801.0
801.0
799.0
800.0
798.0
802.0
805.0
810.0
814.0
818.0
821.0
826.0
830.0
828.0
831.0
834.0
835.0
839.0
843.0
844.0
846.0
851.0
855.0
859.0
859.0
860.0
860.0
860.0
861.0
860.0
860.0
861.0
863.0
861.0
860.0
862.0
858.0
857.0
854.0
851.0
847.0
846.0
842.0
842.0
840.0
839.0
839.0
839.0
835.0
835.0
833.0
829.0
828.0
825.0
825.0
824.0
825.0
825.0
826.0
825.0
823.0
824.0
824.0
821.0
821.0
822.0
818.0
818.0
819.0
821.0
823.0
825.0
826.0
825.0
827.0
826.0
827.0
823.0
826.0
828.0
830.0
831.0
835.0
835.0
835.0
835.0
835.0
834.0
832.0
832.0
835.0
834.0
837.0
839.0
840.0
839.0
840.0
838.0
837.0
836.0
837.0
835.0
837.0
838.0
837.0
840.0
844.0
845.0
845.0
846.0
843.0
841.0
838.0
839.0
841.0
842.0
843.0
845.0
847.0
847.0
848.0
849.0
848.0
844.0
843.0
841.0
842.0
846.0
848.0
846.0
848.0
852.0
849.0
848.0
847.0
845.0
847.0
846.0
847.0
847.0
851.0
849.0
851.0
854.0
852.0
851.0
851.0
847.0
847.0
846.0
846.0
847.0
849.0
851.0
851.0
853.0
852.0
852.0
851.0
849.0
846.0
846.0
847.0
847.0
850.0
851.0
854.0
855.0
854.0
853.0
852.0
851.0
848.0
850.0
850.0
850.0
850.0
851.0
854.0
856.0
855.0
854.0
853.0
852.0
850.0
852.0
850.0
851.0
852.0
852.0
853.0
852.0
853.0
854.0
852.0
850.0
847.0
846.0
846.0
846.0
850.0
854.0
851.0
854.0
853.0
853.0
852.0
851.0
849.0
848.0
848.0
849.0
852.0
851.0
853.0
856.0
856.0
852.0
851.0
850.0
849.0
847.0
849.0
850.0
851.0
852.0
853.0
853.0
854.0
854.0
850.0
853.0
850.0
846.0
848.0
847.0
847.0
851.0
851.0
851.0
851.0
851.0
852.0
850.0
849.0
851.0
849.0
849.0
852.0
854.0
855.0
858.0
856.0
854.0
853.0
857.0
857.0
858.0
859.0
860.0
863.0
866.0
867.0
867.0
864.0
863.0
858.0
855.0
851.0
854.0
854.0
856.0
855.0
858.0
862.0
865.0
867.0
867.0
867.0
866.0
863.0
861.0
856.0
852.0
852.0
851.0
850.0
851.0
850.0
848.0
846.0
845.0
842.0
842.0
842.0
845.0
847.0
849.0
850.0
850.0
848.0
846.0
851.0
859.0
875.0
896.0
915.0
930.0
936.0
928.0
907.0
877.0
848.0
831.0
839.0
868.0
919.0
975.0
1034.0
1091.0
1148.0
1193.0
1231.0
1258.0
1270.0
1269.0
1256.0
1238.0
1203.0
1167.0
1123.0
1084.0
1048.0
1008.0
971.0
932.0
888.0
853.0
825.0
808.0
795.0
798.0
801.0
807.0
812.0
816.0
821.0
825.0
826.0
828.0
825.0
825.0
824.0
822.0
824.0
820.0
825.0
827.0
828.0
828.0
828.0
827.0
824.0
823.0
822.0
819.0
821.0
821.0
821.0
823.0
818.0
820.0
823.0
824.0
821.0
820.0
819.0
814.0
817.0
819.0
819.0
821.0
821.0
823.0
821.0
820.0
817.0
816.0
813.0
812.0
814.0
812.0
812.0
812.0
813.0
813.0
812.0
808.0
810.0
808.0
804.0
803.0
801.0
802.0
803.0
801.0
804.0
803.0
802.0
801.0
798.0
797.0
794.0
790.0
789.0
788.0
787.0
787.0
789.0
789.0
789.0
789.0
785.0
784.0
783.0
782.0
782.0
782.0
783.0
785.0
787.0
788.0
791.0
792.0
792.0
792.0
793.0
793.0
796.0
799.0
803.0
805.0
809.0
813.0
815.0
820.0
824.0
828.0
828.0
831.0
834.0
837.0
841.0
847.0
849.0
851.0
855.0
856.0
856.0
858.0
858.0
858.0
858.0
860.0
860.0
861.0
859.0
860.0
861.0
859.0
855.0
854.0
850.0
847.0
846.0
845.0
845.0
844.0
844.0
843.0
841.0
838.0
837.0
834.0
833.0
831.0
831.0
831.0
831.0
830.0
832.0
833.0
835.0
835.0
834.0
831.0
830.0
829.0
830.0
828.0
833.0
832.0
835.0
836.0
835.0
835.0
836.0
836.0
833.0
834.0
832.0
833.0
836.0
838.0
840.0
842.0
840.0
841.0
842.0
840.0
836.0
836.0
839.0
839.0
841.0
842.0
845.0
846.0
846.0
845.0
843.0
844.0
841.0
843.0
841.0
842.0
844.0
844.0
845.0
847.0
847.0
845.0
846.0
845.0
842.0
843.0
842.0
843.0
845.0
844.0
847.0
848.0
846.0
846.0
844.0
844.0
843.0
843.0
841.0
843.0
845.0
847.0
849.0
851.0
851.0
850.0
848.0
849.0
847.0
848.0
847.0
847.0
847.0
847.0
849.0
850.0
847.0
849.0
844.0
843.0
843.0
844.0
843.0
847.0
845.0
846.0
845.0
848.0
847.0
847.0
846.0
843.0
846.0
844.0
844.0
845.0
847.0
847.0
850.0
850.0
850.0
850.0
851.0
848.0
846.0
847.0
846.0
848.0
848.0
847.0
850.0
850.0
851.0
850.0
848.0
846.0
845.0
845.0
844.0
846.0
846.0
847.0
850.0
851.0
851.0
850.0
849.0
847.0
847.0
848.0
847.0
849.0
847.0
848.0
847.0
851.0
848.0
849.0
846.0
845.0
841.0
843.0
846.0
846.0
846.0
849.0
849.0
851.0
849.0
850.0
849.0
846.0
846.0
843.0
845.0
843.0
845.0
847.0
851.0
850.0
850.0
851.0
848.0
848.0
847.0
844.0
845.0
846.0
847.0
849.0
849.0
850.0
850.0
847.0
846.0
843.0
843.0
844.0
843.0
842.0
847.0
849.0
849.0
851.0
851.0
850.0
849.0
846.0
849.0
847.0
851.0
850.0
852.0
854.0
857.0
856.0
856.0
854.0
852.0
850.0
851.0
851.0
856.0
855.0
857.0
858.0
861.0
864.0
864.0
862.0
861.0
858.0
856.0
854.0
851.0
852.0
851.0
853.0
856.0
858.0
859.0
861.0
863.0
863.0
864.0
864.0
862.0
862.0
858.0
858.0
858.0
853.0
853.0
849.0
846.0
844.0
842.0
841.0
842.0
841.0
842.0
841.0
843.0
849.0
846.0
846.0
842.0
839.0
837.0
842.0
851.0
868.0
886.0
903.0
917.0
923.0
923.0
912.0
887.0
863.0
840.0
830.0
844.0
876.0
923.0
975.0
1027.0
1077.0
1124.0
1165.0
1202.0
1239.0
1266.0
1281.0
1287.0
1287.0
1277.0
1261.0
1240.0
1208.0
1164.0
1118.0
1074.0
1032.0
989.0
948.0
903.0
864.0
833.0
807.0
795.0
789.0
790.0
792.0
795.0
798.0
804.0
807.0
809.0
811.0
817.0
817.0
820.0
820.0
819.0
818.0
815.0
813.0
812.0
811.0
813.0
811.0
813.0
817.0
817.0
818.0
819.0
817.0
814.0
813.0
813.0
813.0
811.0
813.0
815.0
816.0
815.0
816.0
815.0
813.0
812.0
811.0
809.0
808.0
809.0
806.0
808.0
810.0
809.0
807.0
808.0
807.0
806.0
807.0
803.0
800.0
800.0
800.0
799.0
801.0
803.0
800.0
801.0
801.0
798.0
797.0
795.0
796.0
796.0
794.0
794.0
794.0
792.0
793.0
794.0
790.0
786.0
783.0
781.0
779.0
779.0
779.0
779.0
780.0
785.0
786.0
787.0
784.0
786.0
786.0
785.0
787.0
787.0
791.0
793.0
796.0
798.0
801.0
801.0
803.0
804.0
807.0
809.0
811.0
815.0
819.0
820.0
825.0
830.0
835.0
834.0
837.0
843.0
843.0
843.0
847.0
849.0
851.0
852.0
855.0
856.0
858.0
858.0
854.0
854.0
853.0
848.0
848.0
847.0
844.0
845.0
844.0
843.0
840.0
841.0
838.0
835.0
832.0
828.0
827.0
823.0
824.0
821.0
820.0
819.0
819.0
821.0
818.0
815.0
817.0
815.0
814.0
814.0
814.0
816.0
815.0
817.0
819.0
823.0
821.0
822.0
820.0
819.0
821.0
820.0
818.0
824.0
824.0
827.0
829.0
830.0
831.0
830.0
829.0
827.0
830.0
831.0
831.0
830.0
832.0
834.0
835.0
835.0
836.0
835.0
836.0
835.0
833.0
831.0
830.0
833.0
833.0
835.0
840.0
837.0
839.0
839.0
837.0
838.0
838.0
836.0
839.0
839.0
841.0
842.0
845.0
844.0
843.0
840.0
841.0
839.0
841.0
839.0
840.0
841.0
843.0
844.0
846.0
845.0
846.0
847.0
845.0
842.0
844.0
843.0
842.0
845.0
844.0
847.0
848.0
848.0
847.0
845.0
846.0
846.0
845.0
844.0
846.0
847.0
848.0
850.0
850.0
852.0
850.0
849.0
849.0
847.0
846.0
845.0
843.0
846.0
850.0
849.0
852.0
851.0
851.0
848.0
848.0
846.0
847.0
847.0
847.0
848.0
847.0
850.0
854.0
852.0
851.0
849.0
850.0
846.0
850.0
849.0
848.0
851.0
854.0
854.0
855.0
854.0
851.0
853.0
851.0
852.0
851.0
851.0
854.0
855.0
854.0
855.0
856.0
855.0
854.0
853.0
852.0
854.0
853.0
855.0
852.0
856.0
857.0
856.0
859.0
858.0
858.0
855.0
857.0
855.0
855.0
854.0
854.0
854.0
856.0
860.0
859.0
859.0
858.0
859.0
857.0
855.0
857.0
855.0
854.0
855.0
856.0
857.0
858.0
859.0
858.0
855.0
855.0
854.0
855.0
855.0
855.0
857.0
