# Simple Text Format
# Sampling Rate (Hz):= 360.00
# Resolution:= 12
# Labels:= ECG
824.0
824.0
824.0
824.0
824.0
824.0
824.0
827.0
830.0
830.0
830.0
830.0
828.0
829.0
829.0
827.0
828.0
830.0
829.0
833.0
835.0
834.0
831.0
834.0
833.0
832.0
832.0
831.0
830.0
831.0
834.0
834.0
839.0
838.0
836.0
837.0
836.0
834.0
831.0
832.0
834.0
833.0
836.0
835.0
839.0
839.0
838.0
838.0
837.0
835.0
834.0
834.0
835.0
836.0
837.0
840.0
840.0
840.0
841.0
841.0
840.0
840.0
838.0
838.0
834.0
833.0
838.0
841.0
843.0
844.0
842.0
840.0
839.0
839.0
839.0
840.0
838.0
837.0
840.0
843.0
843.0
845.0
844.0
843.0
841.0
840.0
842.0
840.0
839.0
842.0
841.0
844.0
845.0
844.0
844.0
843.0
842.0
842.0
840.0
840.0
840.0
840.0
842.0
840.0
844.0
845.0
844.0
843.0
841.0
842.0
840.0
839.0
837.0
842.0
843.0
843.0
845.0
845.0
845.0
844.0
842.0
843.0
841.0
840.0
841.0
842.0
840.0
844.0
846.0
845.0
845.0
845.0
843.0
842.0
841.0
842.0
841.0
840.0
844.0
844.0
845.0
847.0
845.0
844.0
844.0
843.0
841.0
840.0
840.0
842.0
843.0
844.0
845.0
847.0
846.0
847.0
847.0
846.0
844.0
846.0
845.0
847.0
850.0
848.0
851.0
850.0
850.0
850.0
851.0
852.0
854.0
854.0
857.0
860.0
860.0
862.0
862.0
861.0
858.0
857.0
854.0
851.0
851.0
850.0
850.0
851.0
850.0
852.0
855.0
858.0
860.0
861.0
861.0
860.0
859.0
856.0
855.0
853.0
849.0
848.0
848.0
845.0
842.0
840.0
838.0
837.0
839.0
839.0
838.0
840.0
842.0
842.0
843.0
842.0
837.0
837.0
837.0
841.0
854.0
874.0
893.0
910.0
924.0
931.0
935.0
925.0
902.0
874.0
840.0
821.0
821.0
842.0
880.0
929.0
982.0
1031.0
1076.0
1122.0
1162.0
1200.0
1229.0
1250.0
1262.0
1263.0
1257.0
1241.0
1218.0
1187.0
1151.0
1109.0
1067.0
1024.0
981.0
938.0
895.0
857.0
828.0
810.0
799.0
796.0
798.0
800.0
805.0
808.0
807.0
810.0
810.0
812.0
815.0
817.0
820.0
821.0
824.0
824.0
823.0
820.0
819.0
816.0
816.0
814.0
815.0
816.0
818.0
819.0
821.0
822.0
819.0
819.0
817.0
815.0
816.0
815.0
816.0
816.0
819.0
820.0
821.0
820.0
820.0
817.0
815.0
814.0
812.0
812.0
812.0
813.0
812.0
815.0
814.0
813.0
813.0
810.0
809.0
809.0
808.0
806.0
806.0
807.0
806.0
808.0
807.0
808.0
807.0
806.0
802.0
799.0
799.0
797.0
794.0
794.0
796.0
796.0
797.0
793.0
790.0
789.0
785.0
786.0
787.0
784.0
784.0
785.0
784.0
782.0
785.0
783.0
785.0
783.0
782.0
782.0
780.0
782.0
782.0
783.0
788.0
788.0
791.0
792.0
792.0
793.0
795.0
796.0
800.0
801.0
803.0
806.0
810.0
814.0
820.0
823.0
825.0
830.0
831.0
834.0
837.0
837.0
840.0
844.0
847.0
854.0
855.0
856.0
855.0
859.0
857.0
857.0
858.0
858.0
860.0
860.0
860.0
862.0
862.0
861.0
859.0
855.0
852.0
849.0
847.0
844.0
843.0
843.0
843.0
841.0
844.0
840.0
839.0
836.0
836.0
831.0
832.0
830.0
830.0
830.0
832.0
832.0
832.0
830.0
830.0
832.0
829.0
828.0
829.0
826.0
828.0
830.0
831.0
833.0
834.0
834.0
833.0
833.0
835.0
836.0
833.0
834.0
837.0
837.0
838.0
839.0
841.0
841.0
840.0
842.0
839.0
839.0
838.0
838.0
838.0
840.0
839.0
843.0
842.0
843.0
844.0
845.0
842.0
842.0
843.0
842.0
842.0
843.0
845.0
846.0
849.0
847.0
847.0
845.0
846.0
843.0
844.0
843.0
845.0
845.0
846.0
846.0
849.0
850.0
848.0
848.0
848.0
845.0
844.0
844.0
844.0
845.0
847.0
849.0
852.0
852.0
852.0
851.0
850.0
851.0
848.0
850.0
849.0
851.0
852.0
852.0
853.0
853.0
853.0
851.0
851.0
851.0
848.0
850.0
851.0
850.0
852.0
851.0
855.0
855.0
855.0
855.0
852.0
852.0
851.0
849.0
849.0
851.0
851.0
852.0
852.0
855.0
856.0
854.0
852.0
852.0
849.0
852.0
852.0
852.0
852.0
855.0
856.0
856.0
854.0
855.0
851.0
852.0
850.0
849.0
848.0
847.0
852.0
853.0
855.0
857.0
855.0
853.0
852.0
851.0
851.0
850.0
852.0
851.0
855.0
853.0
857.0
854.0
852.0
856.0
853.0
853.0
852.0
853.0
852.0
853.0
855.0
856.0
856.0
857.0
855.0
855.0
856.0
852.0
853.0
853.0
852.0
852.0
853.0
852.0
854.0
855.0
856.0
852.0
852.0
850.0
848.0
853.0
851.0
854.0
854.0
855.0
856.0
857.0
857.0
857.0
853.0
854.0
853.0
853.0
855.0
854.0
857.0
856.0
858.0
857.0
859.0
860.0
859.0
857.0
857.0
858.0
859.0
860.0
858.0
859.0
860.0
863.0
865.0
865.0
866.0
866.0
865.0
866.0
868.0
868.0
867.0
866.0
866.0
864.0
863.0
860.0
860.0
861.0
860.0
861.0
865.0
869.0
870.0
873.0
874.0
873.0
869.0
867.0
867.0
861.0
855.0
853.0
850.0
851.0
852.0
851.0
854.0
855.0
854.0
855.0
852.0
852.0
851.0
851.0
851.0
849.0
849.0
849.0
856.0
864.0
879.0
896.0
911.0
925.0
932.0
929.0
922.0
902.0
876.0
854.0
843.0
855.0
886.0
933.0
983.0
1039.0
1093.0
1143.0
1192.0
1235.0
1270.0
1293.0
1304.0
1302.0
1283.0
1260.0
1227.0
1185.0
1137.0
1091.0
1046.0
999.0
955.0
908.0
869.0
838.0
815.0
802.0
795.0
797.0
800.0
804.0
809.0
814.0
820.0
820.0
826.0
831.0
830.0
828.0
828.0
825.0
822.0
821.0
823.0
825.0
828.0
828.0
829.0
828.0
828.0
826.0
825.0
823.0
823.0
821.0
822.0
824.0
825.0
827.0
828.0
828.0
828.0
825.0
823.0
822.0
817.0
818.0
818.0
819.0
821.0
823.0
824.0
824.0
823.0
819.0
815.0
813.0
813.0
811.0
809.0
808.0
811.0
809.0
812.0
808.0
809.0
808.0
806.0
803.0
802.0
800.0
798.0
798.0
800.0
800.0
802.0
800.0
800.0
797.0
797.0
792.0
792.0
791.0
790.0
791.0
792.0
794.0
797.0
795.0
795.0
796.0
795.0
795.0
796.0
796.0
802.0
804.0
810.0
812.0
817.0
821.0
822.0
823.0
826.0
827.0
830.0
833.0
836.0
839.0
846.0
849.0
852.0
855.0
859.0
860.0
861.0
864.0
862.0
863.0
864.0
865.0
870.0
869.0
871.0
870.0
870.0
866.0
865.0
861.0
858.0
858.0
854.0
850.0
849.0
850.0
850.0
847.0
844.0
842.0
838.0
838.0
830.0
827.0
832.0
829.0
830.0
831.0
830.0
831.0
829.0
829.0
825.0
824.0
824.0
823.0
823.0
824.0
825.0
829.0
828.0
829.0
828.0
830.0
827.0
827.0
828.0
828.0
830.0
833.0
835.0
838.0
840.0
841.0
839.0
839.0
838.0
840.0
837.0
836.0
838.0
839.0
842.0
843.0
844.0
844.0
843.0
843.0
842.0
843.0
842.0
841.0
840.0
844.0
847.0
848.0
850.0
849.0
850.0
848.0
846.0
844.0
842.0
844.0
845.0
848.0
848.0
849.0
850.0
851.0
850.0
850.0
850.0
848.0
847.0
848.0
848.0
848.0
850.0
852.0
853.0
853.0
853.0
854.0
851.0
850.0
849.0
850.0
851.0
851.0
852.0
853.0
856.0
856.0
856.0
855.0
854.0
851.0
852.0
850.0
850.0
853.0
853.0
852.0
855.0
856.0
855.0
857.0
854.0
853.0
850.0
849.0
849.0
852.0
851.0
854.0
856.0
856.0
856.0
854.0
856.0
852.0
851.0
851.0
851.0
854.0
855.0
856.0
859.0
860.0
860.0
859.0
856.0
854.0
855.0
853.0
851.0
851.0
856.0
856.0
859.0
860.0
859.0
858.0
858.0
857.0
856.0
855.0
855.0
854.0
857.0
856.0
857.0
857.0
860.0
859.0
857.0
857.0
853.0
855.0
855.0
856.0
859.0
860.0
859.0
861.0
859.0
859.0
857.0
856.0
857.0
857.0
857.0
856.0
857.0
858.0
861.0
862.0
863.0
861.0
858.0
856.0
858.0
858.0
858.0
860.0
860.0
863.0
864.0
862.0
861.0
862.0
858.0
859.0
856.0
856.0
857.0
859.0
862.0
865.0
866.0
867.0
864.0
863.0
861.0
860.0
861.0
861.0
858.0
862.0
866.0
873.0
876.0
878.0
878.0
877.0
877.0
874.0
874.0
874.0
870.0
868.0
868.0
870.0
871.0
870.0
870.0
871.0
869.0
869.0
871.0
874.0
874.0
877.0
877.0
877.0
874.0
871.0
869.0
864.0
859.0
857.0
855.0
856.0
857.0
858.0
859.0
862.0
863.0
860.0
859.0
858.0
855.0
852.0
850.0
857.0
873.0
892.0
914.0
932.0
946.0
949.0
942.0
921.0
887.0
856.0
839.0
841.0
873.0
921.0
980.0
1036.0
1091.0
1138.0
1180.0
1215.0
1242.0
1256.0
1261.0
1256.0
1245.0
1228.0
1206.0
1172.0
1135.0
1092.0
1053.0
1011.0
965.0
921.0
885.0
849.0
831.0
819.0
815.0
817.0
819.0
824.0
829.0
830.0
831.0
834.0
837.0
839.0
838.0
840.0
841.0
842.0
840.0
841.0
840.0
839.0
837.0
836.0
836.0
835.0
836.0
837.0
837.0
839.0
841.0
839.0
836.0
838.0
838.0
836.0
836.0
834.0
835.0
835.0
833.0
836.0
835.0
835.0
836.0
832.0
833.0
830.0
829.0
827.0
828.0
830.0
829.0
830.0
831.0
830.0
825.0
824.0
823.0
822.0
821.0
820.0
820.0
820.0
821.0
819.0
819.0
817.0
816.0
820.0
814.0
813.0
812.0
809.0
809.0
810.0
810.0
812.0
811.0
811.0
809.0
806.0
803.0
799.0
800.0
799.0
799.0
800.0
801.0
802.0
802.0
802.0
799.0
798.0
799.0
801.0
801.0
802.0
806.0
808.0
813.0
814.0
817.0
818.0
822.0
824.0
827.0
828.0
831.0
834.0
837.0
842.0
847.0
851.0
855.0
858.0
861.0
864.0
864.0
867.0
867.0
867.0
871.0
874.0
877.0
879.0
880.0
880.0
880.0
876.0
873.0
874.0
874.0
875.0
874.0
871.0
873.0
872.0
871.0
869.0
867.0
862.0
860.0
858.0
857.0
856.0
853.0
855.0
854.0
854.0
855.0
853.0
854.0
852.0
849.0
850.0
849.0
849.0
848.0
849.0
852.0
853.0
854.0
856.0
855.0
854.0
854.0
853.0
854.0
853.0
855.0
857.0
858.0
858.0
862.0
863.0
861.0
857.0
855.0
857.0
856.0
858.0
862.0
862.0
863.0
868.0
866.0
868.0
865.0
865.0
867.0
865.0
862.0
864.0
866.0
865.0
865.0
869.0
871.0
871.0
872.0
871.0
872.0
870.0
868.0
869.0
872.0
871.0
873.0
873.0
876.0
875.0
875.0
874.0
872.0
871.0
870.0
873.0
873.0
874.0
875.0
876.0
875.0
874.0
875.0
874.0
876.0
877.0
875.0
874.0
873.0
875.0
878.0
878.0
880.0
879.0
881.0
879.0
878.0
877.0
878.0
878.0
877.0
881.0
883.0
883.0
885.0
885.0
886.0
884.0
883.0
883.0
882.0
880.0
880.0
880.0
886.0
888.0
887.0
887.0
887.0
886.0
886.0
885.0
883.0
884.0
885.0
888.0
890.0
892.0
890.0
893.0
893.0
888.0
889.0
887.0
888.0
886.0
888.0
888.0
890.0
893.0
892.0
890.0
891.0
889.0
888.0
888.0
890.0
891.0
891.0
894.0
895.0
898.0
898.0
897.0
895.0
893.0
893.0
892.0
891.0
894.0
894.0
896.0
894.0
897.0
900.0
898.0
897.0
894.0
893.0
893.0
893.0
894.0
896.0
898.0
899.0
899.0
898.0
898.0
901.0
898.0
898.0
898.0
896.0
895.0
900.0
900.0
905.0
903.0
906.0
904.0
905.0
902.0
899.0
899.0
902.0
903.0
903.0
905.0
907.0
909.0
913.0
912.0
913.0
912.0
911.0
908.0
908.0
909.0
911.0
912.0
918.0
923.0
926.0
925.0
927.0
924.0
922.0
920.0
917.0
913.0
915.0
917.0
917.0
919.0
919.0
920.0
917.0
917.0
919.0
922.0
927.0
926.0
928.0
928.0
928.0
927.0
923.0
918.0
916.0
911.0
909.0
905.0
905.0
905.0
907.0
908.0
910.0
912.0
913.0
913.0
911.0
910.0
907.0
902.0
904.0
910.0
921.0
936.0
954.0
972.0
987.0
991.0
991.0
978.0
959.0
932.0
912.0
910.0
930.0
969.0
1020.0
1076.0
1128.0
1176.0
1220.0
1258.0
1293.0
1319.0
1335.0
1344.0
1347.0
1334.0
1320.0
1299.0
1266.0
1223.0
1183.0
1143.0
1104.0
1066.0
1024.0
986.0
948.0
914.0
889.0
872.0
864.0
862.0
861.0
864.0
868.0
871.0
873.0
876.0
880.0
883.0
889.0
890.0
893.0
892.0
891.0
890.0
888.0
885.0
883.0
883.0
883.0
885.0
890.0
891.0
892.0
891.0
888.0
886.0
887.0
885.0
884.0
884.0
884.0
885.0
886.0
886.0
889.0
888.0
886.0
886.0
884.0
883.0
881.0
882.0
881.0
884.0
885.0
884.0
886.0
886.0
883.0
882.0
880.0
878.0
875.0
875.0
875.0
878.0
876.0
875.0
880.0
879.0
874.0
874.0
873.0
871.0
870.0
870.0
868.0
869.0
867.0
869.0
869.0
868.0
865.0
863.0
860.0
859.0
860.0
859.0
857.0
859.0
861.0
860.0
861.0
859.0
856.0
858.0
857.0
855.0
856.0
856.0
858.0
858.0
861.0
864.0
866.0
866.0
868.0
867.0
868.0
869.0
871.0
875.0
879.0
883.0
889.0
892.0
894.0
896.0
900.0
905.0
907.0
908.0
908.0
913.0
916.0
917.0
920.0
926.0
930.0
931.0
933.0
933.0
932.0
929.0
933.0
931.0
933.0
934.0
935.0
934.0
934.0
934.0
933.0
928.0
923.0
922.0
920.0
917.0
915.0
914.0
913.0
913.0
911.0
908.0
907.0
901.0
900.0
895.0
893.0
893.0
891.0
892.0
893.0
895.0
894.0
893.0
891.0
889.0
888.0
886.0
885.0
886.0
888.0
889.0
891.0
894.0
897.0
894.0
896.0
894.0
894.0
893.0
894.0
895.0
894.0
897.0
901.0
900.0
903.0
900.0
901.0
899.0
902.0
900.0
900.0
899.0
898.0
901.0
905.0
905.0
909.0
906.0
908.0
908.0
906.0
905.0
906.0
906.0
908.0
910.0
911.0
912.0
914.0
911.0
909.0
910.0
908.0
909.0
905.0
905.0
908.0
909.0
910.0
911.0
912.0
914.0
913.0
910.0
911.0
908.0
909.0
907.0
908.0
908.0
911.0
913.0
914.0
913.0
913.0
911.0
912.0
910.0
910.0
909.0
910.0
909.0
913.0
912.0
913.0
914.0
912.0
910.0
911.0
909.0
908.0
911.0
912.0
913.0
913.0
915.0
914.0
914.0
914.0
909.0
911.0
911.0
910.0
911.0
911.0
913.0
916.0
913.0
914.0
912.0
912.0
913.0
909.0
910.0
909.0
908.0
910.0
911.0
914.0
915.0
917.0
915.0
916.0
913.0
913.0
911.0
912.0
912.0
912.0
913.0
911.0
913.0
914.0
913.0
913.0
914.0
913.0
911.0
912.0
914.0
913.0
912.0
910.0
911.0
912.0
914.0
913.0
913.0
914.0
910.0
911.0
910.0
911.0
912.0
913.0
914.0
915.0
914.0
913.0
913.0
911.0
911.0
910.0
907.0
909.0
910.0
914.0
914.0
917.0
914.0
912.0
913.0
911.0
911.0
911.0
910.0
912.0
911.0
914.0
916.0
917.0
916.0
914.0
914.0
910.0
911.0
911.0
912.0
914.0
918.0
916.0
918.0
919.0
917.0
917.0
914.0
916.0
916.0
918.0
920.0
922.0
925.0
927.0
928.0
927.0
926.0
924.0
921.0
918.0
918.0
914.0
915.0
913.0
915.0
918.0
923.0
926.0
928.0
925.0
926.0
923.0
919.0
917.0
915.0
913.0
911.0
912.0
911.0
910.0
907.0
908.0
906.0
904.0
904.0
904.0
905.0
904.0
908.0
905.0
907.0
904.0
906.0
914.0
929.0
948.0
964.0
978.0
987.0
987.0
972.0
940.0
906.0
886.0
887.0
910.0
952.0
1002.0
1054.0
1102.0
1147.0
1188.0
1224.0
1252.0
1272.0
1281.0
1279.0
1269.0
1255.0
1231.0
1200.0
1163.0
1122.0
1084.0
1046.0
1006.0
965.0
929.0
897.0
875.0
863.0
856.0
856.0
859.0
865.0
871.0
875.0
881.0
887.0
887.0
889.0
887.0
886.0
881.0
880.0
880.0
878.0
878.0
878.0
882.0
884.0
886.0
884.0
885.0
883.0
883.0
882.0
882.0
882.0
880.0
879.0
881.0
881.0
883.0
881.0
881.0
880.0
877.0
876.0
874.0
876.0
872.0
871.0
876.0
876.0
877.0
876.0
873.0
871.0
870.0
867.0
867.0
866.0
867.0
865.0
867.0
865.0
864.0
866.0
862.0
862.0
860.0
859.0
856.0
852.0
856.0
855.0
855.0
855.0
855.0
853.0
851.0
849.0
847.0
844.0
839.0
838.0
839.0
841.0
841.0
843.0
842.0
841.0
839.0
836.0
833.0
835.0
832.0
834.0
835.0
837.0
837.0
840.0
845.0
844.0
846.0
846.0
847.0
847.0
851.0
856.0
859.0
864.0
866.0
870.0
876.0
878.0
880.0
883.0
884.0
886.0
890.0
892.0
894.0
899.0
903.0
906.0
908.0
911.0
913.0
912.0
911.0
913.0
911.0
911.0
910.0
911.0
906.0
909.0
910.0
910.0
907.0
903.0
900.0
895.0
894.0
893.0
892.0
891.0
892.0
889.0
888.0
884.0
885.0
879.0
880.0
880.0
876.0
875.0
875.0
878.0
878.0
880.0
881.0
878.0
876.0
876.0
872.0
871.0
872.0
873.0
871.0
872.0
876.0
877.0
879.0
879.0
879.0
879.0
878.0
876.0
877.0
877.0
875.0
879.0
880.0
879.0
883.0
884.0
882.0
881.0
881.0
881.0
877.0
878.0
879.0
881.0
884.0
886.0
885.0
883.0
883.0
882.0
883.0
883.0
881.0
883.0
884.0
883.0
886.0
888.0
890.0
888.0
888.0
886.0
887.0
884.0
884.0
884.0
882.0
884.0
887.0
886.0
889.0
889.0
887.0
887.0
887.0
883.0
882.0
882.0
882.0
883.0
884.0
883.0
886.0
889.0
888.0
887.0
885.0
883.0
882.0
883.0
883.0
885.0
884.0
888.0
889.0
886.0
884.0
887.0
884.0
886.0
885.0
882.0
882.0
886.0
885.0
887.0
890.0
889.0
887.0
887.0
887.0
884.0
883.0
881.0
882.0
883.0
885.0
885.0
885.0
886.0
886.0
886.0
885.0
884.0
881.0
881.0
881.0
881.0
881.0
884.0
889.0
887.0
886.0
885.0
881.0
880.0
879.0
880.0
882.0
881.0
882.0
883.0
882.0
883.0
883.0
882.0
883.0
883.0
882.0
883.0
884.0
885.0
887.0
887.0
889.0
889.0
887.0
885.0
884.0
884.0
880.0
883.0
884.0
885.0
888.0
888.0
889.0
889.0
885.0
885.0
883.0
880.0
880.0
881.0
879.0
884.0
883.0
885.0
886.0
883.0
884.0
883.0
885.0
883.0
880.0
881.0
880.0
882.0
884.0
885.0
887.0
886.0
884.0
884.0
882.0
878.0
877.0
878.0
881.0
882.0
882.0
883.0
886.0
886.0
883.0
882.0
881.0
880.0
879.0
879.0
880.0
881.0
882.0
882.0
882.0
884.0
883.0
883.0
884.0
884.0
883.0
883.0
885.0
885.0
885.0
886.0
886.0
887.0
887.0
891.0
890.0
889.0
893.0
892.0
893.0
893.0
894.0
893.0
894.0
891.0
890.0
886.0
887.0
884.0
883.0
882.0
885.0
889.0
892.0
896.0
899.0
899.0
899.0
896.0
892.0
887.0
884.0
880.0
876.0
876.0
876.0
875.0
878.0
878.0
878.0
875.0
874.0
873.0
872.0
871.0
871.0
870.0
869.0
871.0
878.0
889.0
905.0
925.0
937.0
948.0
952.0
946.0
928.0
901.0
879.0
866.0
876.0
904.0
950.0
1003.0
1058.0
1113.0
1162.0
1208.0
1248.0
1284.0
1303.0
1313.0
1310.0
1294.0
1270.0
1230.0
1182.0
1131.0
1083.0
1037.0
994.0
946.0
901.0
866.0
840.0
823.0
815.0
813.0
816.0
820.0
823.0
826.0
831.0
836.0
841.0
844.0
844.0
844.0
843.0
841.0
842.0
840.0
839.0
840.0
839.0
838.0
843.0
842.0
845.0
844.0
843.0
842.0
841.0
838.0
840.0
836.0
839.0
838.0
838.0
838.0
842.0
840.0
840.0
839.0
834.0
836.0
835.0
834.0
835.0
835.0
834.0
834.0
838.0
837.0
835.0
833.0
831.0
829.0
828.0
823.0
824.0
824.0
829.0
830.0
829.0
829.0
826.0
824.0
821.0
819.0
818.0
815.0
816.0
816.0
818.0
818.0
818.0
818.0
814.0
813.0
810.0
808.0
806.0
805.0
804.0
806.0
805.0
807.0
809.0
807.0
805.0
804.0
806.0
803.0
804.0
804.0
806.0
806.0
811.0
814.0
816.0
819.0
821.0
823.0
824.0
825.0
826.0
829.0
832.0
835.0
840.0
845.0
849.0
852.0
855.0
857.0
858.0
859.0
862.0
863.0
865.0
869.0
868.0
870.0
874.0
875.0
876.0
875.0
874.0
875.0
875.0
874.0
873.0
874.0
874.0
875.0
873.0
870.0
869.0
867.0
864.0
859.0
857.0
854.0
851.0
850.0
849.0
848.0
848.0
845.0
844.0
842.0
841.0
837.0
837.0
833.0
830.0
833.0
834.0
833.0
836.0
835.0
834.0
831.0
828.0
829.0
828.0
828.0
829.0
829.0
834.0
837.0
837.0
836.0
836.0
838.0
836.0
835.0
833.0
835.0
837.0
837.0
840.0
841.0
844.0
845.0
842.0
839.0
839.0
842.0
841.0
843.0
845.0
844.0
846.0
848.0
849.0
849.0
849.0
847.0
848.0
847.0
845.0
846.0
848.0
848.0
851.0
852.0
853.0
851.0
851.0
849.0
850.0
848.0
847.0
848.0
849.0
850.0
853.0
851.0
852.0
853.0
853.0
854.0
851.0
849.0
849.0
848.0
850.0
849.0
850.0
851.0
856.0
856.0
855.0
853.0
851.0
848.0
849.0
847.0
849.0
852.0
852.0
853.0
856.0
857.0
857.0
855.0
852.0
848.0
848.0
848.0
851.0
853.0
855.0
857.0
858.0
860.0
857.0
854.0
855.0
854.0
851.0
851.0
852.0
852.0
853.0
856.0
856.0
855.0
855.0
853.0
851.0
850.0
850.0
847.0
850.0
851.0
855.0
858.0
859.0
859.0
857.0
857.0
854.0
853.0
854.0
854.0
853.0
854.0
857.0
857.0
856.0
857.0
858.0
859.0
857.0
855.0
854.0
851.0
852.0
854.0
857.0
855.0
859.0
859.0
860.0
859.0
856.0
855.0
852.0
853.0
853.0
853.0
855.0
855.0
858.0
859.0
858.0
857.0
857.0
854.0
853.0
852.0
853.0
855.0
858.0
858.0
860.0
858.0
858.0
859.0
858.0
855.0
854.0
852.0
851.0
855.0
855.0
859.0
863.0
861.0
860.0
859.0
858.0
858.0
856.0
856.0
857.0
858.0
859.0
860.0
864.0
865.0
864.0
863.0
860.0
859.0
857.0
856.0
857.0
859.0
862.0
865.0
871.0
872.0
873.0
871.0
870.0
869.0
865.0
862.0
860.0
862.0
864.0
866.0
868.0
865.0
864.0
868.0
869.0
867.0
869.0
869.0
868.0
866.0
865.0
861.0
858.0
855.0
853.0
850.0
850.0
849.0
848.0
846.0
845.0
847.0
849.0
851.0
852.0
849.0
849.0
847.0
844.0
842.0
846.0
854.0
868.0
888.0
908.0
924.0
935.0
940.0
937.0
923.0
896.0
865.0
833.0
816.0
816.0
842.0
880.0
930.0
981.0
1024.0
1062.0
1102.0
1137.0
1170.0
1195.0
1217.0
1227.0
1226.0
1218.0
1206.0
1186.0
1155.0
1118.0
1081.0
1041.0
1004.0
965.0
921.0
878.0
847.0
826.0
810.0
804.0
803.0
805.0
809.0
814.0
818.0
819.0
821.0
822.0
823.0
826.0
829.0
830.0
832.0
829.0
827.0
823.0
823.0
822.0
824.0
824.0
824.0
826.0
827.0
828.0
827.0
828.0
826.0
824.0
823.0
822.0
822.0
820.0
819.0
824.0
820.0
822.0
826.0
824.0
823.0
819.0
820.0
816.0
812.0
817.0
815.0
815.0
815.0
818.0
817.0
818.0
819.0
815.0
814.0
810.0
810.0
809.0
808.0
810.0
808.0
810.0
808.0
808.0
806.0
804.0
802.0
799.0
798.0
797.0
799.0
796.0
794.0
795.0
796.0
795.0
793.0
791.0
790.0
787.0
786.0
786.0
784.0
785.0
786.0
785.0
784.0
784.0
784.0
782.0
779.0
780.0
779.0
779.0
781.0
783.0
786.0
787.0
790.0
789.0
790.0
791.0
791.0
793.0
796.0
799.0
802.0
805.0
808.0
815.0
818.0
820.0
822.0
824.0
827.0
829.0
832.0
836.0
838.0
843.0
843.0
847.0
848.0
852.0
853.0
853.0
852.0
853.0
854.0
854.0
854.0
856.0
856.0
860.0
856.0
855.0
851.0
848.0
846.0
843.0
841.0
839.0
839.0
838.0
837.0
836.0
834.0
830.0
829.0
826.0
824.0
819.0
820.0
820.0
819.0
820.0
821.0
823.0
821.0
819.0
819.0
817.0
816.0
815.0
815.0
814.0
815.0
819.0
819.0
821.0
820.0
820.0
820.0
822.0
819.0
819.0
819.0
820.0
822.0
823.0
826.0
828.0
828.0
827.0
825.0
823.0
825.0
822.0
826.0
826.0
824.0
827.0
826.0
829.0
830.0
829.0
828.0
828.0
827.0
827.0
826.0
825.0
828.0
829.0
831.0
832.0
832.0
831.0
830.0
828.0
827.0
825.0
825.0
824.0
828.0
830.0
831.0
833.0
834.0
830.0
829.0
830.0
824.0
827.0
827.0
826.0
827.0
830.0
831.0
834.0
832.0
833.0
831.0
830.0
827.0
827.0
828.0
825.0
830.0
832.0
832.0
832.0
831.0
828.0
829.0
829.0
828.0
828.0
828.0
829.0
827.0
828.0
830.0
831.0
833.0
832.0
830.0
829.0
828.0
828.0
828.0
828.0
828.0
830.0
831.0
832.0
832.0
832.0
830.0
829.0
829.0
827.0
825.0
828.0
829.0
827.0
829.0
831.0
832.0
831.0
828.0
829.0
826.0
824.0
824.0
830.0
829.0
829.0
833.0
832.0
833.0
830.0
829.0
827.0
825.0
825.0
825.0
823.0
827.0
828.0
829.0
833.0
834.0
830.0
830.0
830.0
828.0
827.0
828.0
826.0
830.0
831.0
832.0
834.0
833.0
833.0
832.0
830.0
829.0
827.0
827.0
830.0
830.0
830.0
833.0
835.0
836.0
835.0
834.0
834.0
831.0
832.0
831.0
834.0
832.0
832.0
834.0
837.0
839.0
840.0
839.0
840.0
841.0
841.0
842.0
842.0
843.0
843.0
843.0
844.0
844.0
842.0
838.0
836.0
836.0
833.0
832.0
835.0
837.0
841.0
844.0
850.0
851.0
850.0
846.0
846.0
842.0
836.0
831.0
828.0
827.0
826.0
824.0
827.0
827.0
825.0
828.0
825.0
826.0
825.0
822.0
821.0
819.0
819.0
823.0
834.0
848.0
870.0
886.0
897.0
906.0
903.0
893.0
866.0
838.0
821.0
822.0
848.0
891.0
946.0
1003.0
1057.0
1111.0
1156.0
1195.0
1231.0
1257.0
1274.0
1276.0
1266.0
1247.0
1215.0
1174.0
1126.0
1076.0
1027.0
980.0
936.0
892.0
854.0
823.0
799.0
783.0
775.0
774.0
773.0
774.0
779.0
783.0
787.0
791.0
795.0
799.0
802.0
804.0
803.0
801.0
798.0
794.0
794.0
793.0
795.0
796.0
797.0
796.0
798.0
800.0
801.0
799.0
796.0
797.0
792.0
791.0
790.0
794.0
794.0
796.0
798.0
797.0
796.0
796.0
793.0
791.0
790.0
789.0
789.0
789.0
790.0
794.0
795.0
794.0
792.0
791.0
788.0
788.0
787.0
784.0
783.0
783.0
785.0
783.0
786.0
786.0
784.0
783.0
781.0
777.0
774.0
775.0
771.0
775.0
773.0
773.0
774.0
774.0
775.0
771.0
769.0
769.0
764.0
764.0
764.0
763.0
763.0
765.0
765.0
763.0
765.0
764.0
762.0
762.0
761.0
761.0
762.0
764.0
765.0
768.0
770.0
774.0
779.0
778.0
783.0
782.0
786.0
790.0
790.0
794.0
800.0
801.0
808.0
810.0
813.0
814.0
817.0
820.0
821.0
823.0
822.0
827.0
829.0
832.0
837.0
838.0
836.0
837.0
837.0
836.0
834.0
834.0
831.0
832.0
830.0
830.0
831.0
829.0
826.0
826.0
821.0
819.0
815.0
812.0
812.0
811.0
809.0
810.0
809.0
809.0
805.0
806.0
805.0
800.0
799.0
799.0
799.0
798.0
799.0
798.0
800.0
801.0
800.0
801.0
799.0
799.0
797.0
796.0
797.0
798.0
800.0
801.0
803.0
803.0
802.0
804.0
804.0
805.0
805.0
806.0
807.0
809.0
811.0
813.0
813.0
812.0
810.0
815.0
812.0
811.0
812.0
812.0
811.0
814.0
816.0
817.0
818.0
819.0
819.0
819.0
818.0
818.0
814.0
814.0
814.0
815.0
818.0
818.0
820.0
820.0
820.0
818.0
816.0
818.0
816.0
815.0
816.0
816.0
818.0
819.0
822.0
824.0
824.0
823.0
821.0
819.0
818.0
817.0
818.0
819.0
821.0
822.0
824.0
826.0
825.0
825.0
823.0
822.0
822.0
821.0
819.0
821.0
823.0
822.0
824.0
823.0
824.0
821.0
817.0
819.0
817.0
818.0
822.0
822.0
820.0
821.0
825.0
828.0
828.0
828.0
825.0
824.0
824.0
823.0
823.0
824.0
827.0
828.0
829.0
829.0
830.0
828.0
826.0
824.0
825.0
824.0
824.0
826.0
827.0
830.0
833.0
830.0
830.0
830.0
