# Simple Text Format
# Sampling Rate (Hz):= 360.00
# Resolution:= 12
# Labels:= ECG
848.0
848.0
846.0
845.0
846.0
848.0
847.0
850.0
851.0
854.0
852.0
851.0
849.0
847.0
847.0
842.0
844.0
842.0
845.0
849.0
848.0
849.0
851.0
849.0
846.0
847.0
847.0
847.0
847.0
847.0
849.0
850.0
852.0
853.0
852.0
853.0
853.0
850.0
850.0
848.0
846.0
847.0
849.0
850.0
851.0
853.0
854.0
854.0
854.0
854.0
852.0
854.0
852.0
851.0
852.0
855.0
857.0
858.0
864.0
867.0
864.0
866.0
867.0
864.0
863.0
859.0
858.0
859.0
858.0
858.0
860.0
860.0
859.0
859.0
859.0
858.0
858.0
864.0
866.0
865.0
867.0
865.0
861.0
858.0
856.0
851.0
847.0
846.0
844.0
844.0
846.0
847.0
848.0
851.0
848.0
850.0
849.0
849.0
847.0
844.0
840.0
839.0
839.0
846.0
858.0
879.0
899.0
915.0
927.0
937.0
936.0
924.0
903.0
872.0
846.0
833.0
842.0
876.0
923.0
979.0
1035.0
1091.0
1139.0
1181.0
1220.0
1255.0
1276.0
1280.0
1270.0
1245.0
1205.0
1153.0
1096.0
1037.0
985.0
940.0
897.0
859.0
831.0
811.0
802.0
798.0
800.0
805.0
807.0
812.0
816.0
818.0
816.0
819.0
821.0
826.0
825.0
830.0
829.0
828.0
829.0
828.0
826.0
826.0
823.0
825.0
824.0
825.0
824.0
827.0
829.0
827.0
825.0
823.0
820.0
821.0
820.0
821.0
822.0
822.0
822.0
824.0
826.0
825.0
824.0
823.0
820.0
818.0
815.0
814.0
816.0
819.0
820.0
819.0
816.0
816.0
812.0
812.0
811.0
809.0
808.0
805.0
805.0
807.0
807.0
809.0
808.0
807.0
807.0
803.0
802.0
799.0
797.0
796.0
797.0
796.0
795.0
798.0
797.0
794.0
792.0
791.0
790.0
791.0
788.0
786.0
782.0
786.0
786.0
788.0
789.0
789.0
790.0
787.0
788.0
788.0
787.0
789.0
792.0
792.0
794.0
800.0
802.0
805.0
807.0
809.0
806.0
809.0
810.0
812.0
819.0
821.0
824.0
827.0
835.0
836.0
841.0
842.0
846.0
848.0
848.0
850.0
852.0
857.0
858.0
859.0
861.0
863.0
865.0
862.0
861.0
862.0
863.0
861.0
860.0
859.0
858.0
859.0
857.0
855.0
850.0
848.0
845.0
843.0
842.0
839.0
839.0
839.0
837.0
840.0
839.0
835.0
833.0
834.0
830.0
830.0
830.0
827.0
831.0
830.0
832.0
833.0
832.0
833.0
833.0
831.0
830.0
832.0
831.0
834.0
835.0
837.0
839.0
838.0
839.0
839.0
839.0
840.0
840.0
841.0
840.0
840.0
841.0
841.0
845.0
845.0
845.0
846.0
844.0
841.0
842.0
841.0
842.0
842.0
843.0
848.0
846.0
847.0
850.0
848.0
848.0
847.0
845.0
844.0
843.0
844.0
848.0
849.0
848.0
852.0
852.0
853.0
851.0
850.0
850.0
849.0
847.0
848.0
850.0
851.0
853.0
856.0
855.0
857.0
857.0
855.0
851.0
852.0
852.0
852.0
853.0
853.0
855.0
855.0
857.0
858.0
856.0
853.0
853.0
851.0
853.0
852.0
852.0
853.0
852.0
856.0
857.0
856.0
854.0
852.0
852.0
851.0
853.0
852.0
851.0
856.0
858.0
858.0
859.0
859.0
859.0
857.0
857.0
855.0
856.0
853.0
855.0
857.0
859.0
859.0
861.0
860.0
859.0
855.0
858.0
857.0
857.0
854.0
856.0
857.0
858.0
858.0
859.0
858.0
858.0
858.0
856.0
856.0
854.0
856.0
856.0
858.0
859.0
861.0
861.0
861.0
862.0
860.0
860.0
859.0
859.0
857.0
859.0
861.0
860.0
862.0
862.0
859.0
860.0
858.0
857.0
855.0
854.0
857.0
858.0
856.0
858.0
861.0
862.0
862.0
862.0
858.0
859.0
856.0
857.0
858.0
860.0
858.0
859.0
864.0
865.0
863.0
862.0
862.0
860.0
860.0
857.0
860.0
862.0
862.0
862.0
865.0
866.0
862.0
861.0
859.0
858.0
855.0
856.0
858.0
858.0
862.0
862.0
866.0
866.0
864.0
862.0
862.0
862.0
859.0
858.0
860.0
858.0
860.0
859.0
860.0
864.0
864.0
863.0
863.0
863.0
863.0
861.0
863.0
862.0
866.0
865.0
868.0
868.0
866.0
868.0
866.0
867.0
867.0
868.0
869.0
870.0
871.0
870.0
871.0
871.0
870.0
867.0
864.0
861.0
861.0
863.0
863.0
867.0
872.0
876.0
879.0
878.0
878.0
879.0
873.0
868.0
863.0
859.0
857.0
853.0
852.0
854.0
855.0
856.0
856.0
858.0
855.0
854.0
854.0
854.0
854.0
852.0
853.0
853.0
853.0
855.0
862.0
877.0
891.0
910.0
926.0
934.0
932.0
916.0
888.0
859.0
843.0
847.0
876.0
926.0
982.0
1041.0
1096.0
1147.0
1195.0
1234.0
1267.0
1290.0
1296.0
1292.0
1278.0
1252.0
1217.0
1173.0
1122.0
1077.0
1032.0
986.0
941.0
898.0
861.0
832.0
813.0
803.0
798.0
801.0
802.0
807.0
813.0
820.0
821.0
827.0
830.0
834.0
833.0
830.0
830.0
830.0
831.0
829.0
828.0
826.0
829.0
832.0
832.0
834.0
835.0
831.0
832.0
830.0
830.0
827.0
826.0
826.0
829.0
830.0
832.0
833.0
830.0
828.0
828.0
827.0
825.0
824.0
824.0
825.0
828.0
825.0
827.0
827.0
826.0
823.0
824.0
822.0
821.0
822.0
822.0
820.0
819.0
820.0
820.0
819.0
817.0
819.0
815.0
813.0
814.0
814.0
812.0
812.0
810.0
811.0
812.0
812.0
809.0
809.0
808.0
804.0
801.0
801.0
800.0
799.0
799.0
797.0
798.0
798.0
797.0
793.0
792.0
795.0
795.0
794.0
794.0
794.0
796.0
799.0
799.0
801.0
800.0
799.0
798.0
798.0
800.0
800.0
803.0
804.0
806.0
812.0
815.0
816.0
818.0
819.0
820.0
820.0
822.0
823.0
828.0
831.0
838.0
843.0
846.0
852.0
852.0
856.0
855.0
855.0
856.0
858.0
861.0
864.0
865.0
866.0
870.0
872.0
867.0
870.0
866.0
864.0
860.0
860.0
859.0
857.0
856.0
855.0
856.0
854.0
852.0
849.0
846.0
844.0
839.0
838.0
837.0
836.0
836.0
837.0
837.0
836.0
835.0
834.0
833.0
831.0
829.0
828.0
827.0
828.0
829.0
830.0
829.0
832.0
834.0
834.0
831.0
830.0
830.0
829.0
829.0
831.0
832.0
835.0
836.0
838.0
837.0
837.0
838.0
837.0
836.0
836.0
836.0
837.0
842.0
840.0
842.0
843.0
844.0
843.0
845.0
843.0
842.0
844.0
842.0
845.0
845.0
847.0
848.0
851.0
849.0
849.0
850.0
848.0
849.0
848.0
847.0
848.0
847.0
850.0
850.0
851.0
851.0
852.0
850.0
850.0
848.0
848.0
849.0
849.0
848.0
850.0
850.0
850.0
851.0
850.0
851.0
850.0
851.0
848.0
849.0
850.0
851.0
852.0
853.0
853.0
853.0
854.0
852.0
851.0
851.0
851.0
850.0
848.0
849.0
850.0
853.0
855.0
854.0
854.0
850.0
852.0
851.0
850.0
851.0
853.0
851.0
855.0
854.0
856.0
854.0
854.0
854.0
854.0
853.0
851.0
853.0
853.0
854.0
853.0
854.0
857.0
856.0
856.0
852.0
852.0
851.0
851.0
850.0
851.0
852.0
855.0
855.0
857.0
854.0
856.0
853.0
854.0
854.0
849.0
848.0
848.0
849.0
850.0
853.0
852.0
855.0
855.0
854.0
853.0
851.0
850.0
852.0
850.0
853.0
853.0
855.0
855.0
854.0
855.0
856.0
854.0
850.0
848.0
850.0
851.0
852.0
853.0
853.0
855.0
855.0
855.0
854.0
851.0
852.0
850.0
850.0
852.0
852.0
852.0
856.0
856.0
857.0
856.0
855.0
855.0
852.0
853.0
850.0
851.0
852.0
853.0
855.0
856.0
858.0
856.0
856.0
855.0
854.0
853.0
851.0
854.0
855.0
855.0
857.0
859.0
858.0
860.0
861.0
864.0
862.0
863.0
864.0
863.0
866.0
867.0
867.0
864.0
863.0
862.0
861.0
859.0
856.0
857.0
857.0
859.0
859.0
862.0
868.0
872.0
875.0
872.0
873.0
867.0
864.0
859.0
857.0
854.0
854.0
851.0
854.0
852.0
851.0
851.0
848.0
847.0
847.0
846.0
849.0
849.0
850.0
852.0
849.0
850.0
850.0
853.0
866.0
882.0
899.0
918.0
934.0
939.0
938.0
921.0
894.0
862.0
836.0
824.0
835.0
870.0
915.0
970.0
1023.0
1071.0
1119.0
1156.0
1196.0
1226.0
1245.0
1251.0
1251.0
1239.0
1222.0
1199.0
1169.0
1134.0
1096.0
1061.0
1026.0
988.0
949.0
910.0
872.0
843.0
822.0
807.0
803.0
800.0
809.0
817.0
820.0
827.0
827.0
829.0
829.0
830.0
830.0
830.0
831.0
831.0
828.0
830.0
833.0
832.0
834.0
832.0
831.0
831.0
829.0
828.0
828.0
827.0
830.0
828.0
830.0
832.0
832.0
832.0
830.0
829.0
826.0
824.0
824.0
824.0
823.0
827.0
826.0
826.0
827.0
824.0
823.0
822.0
820.0
818.0
817.0
814.0
816.0
816.0
819.0
821.0
822.0
819.0
817.0
815.0
813.0
811.0
812.0
811.0
812.0
813.0
814.0
814.0
811.0
810.0
807.0
808.0
805.0
801.0
800.0
799.0
799.0
800.0
802.0
802.0
801.0
798.0
799.0
794.0
795.0
790.0
789.0
788.0
790.0
790.0
790.0
792.0
792.0
793.0
789.0
790.0
788.0
788.0
788.0
789.0
790.0
793.0
796.0
800.0
803.0
803.0
805.0
808.0
808.0
809.0
813.0
817.0
822.0
827.0
829.0
835.0
839.0
841.0
842.0
844.0
846.0
846.0
848.0
850.0
853.0
859.0
859.0
864.0
864.0
865.0
861.0
860.0
856.0
855.0
856.0
854.0
854.0
853.0
854.0
853.0
851.0
848.0
847.0
843.0
841.0
839.0
838.0
836.0
833.0
834.0
835.0
835.0
835.0
833.0
831.0
829.0
827.0
827.0
825.0
825.0
828.0
831.0
832.0
834.0
834.0
834.0
832.0
831.0
830.0
830.0
829.0
831.0
831.0
832.0
837.0
838.0
840.0
839.0
836.0
836.0
833.0
834.0
833.0
836.0
837.0
838.0
842.0
842.0
845.0
843.0
841.0
840.0
840.0
837.0
840.0
837.0
840.0
841.0
843.0
845.0
847.0
847.0
843.0
846.0
844.0
842.0
842.0
842.0
845.0
844.0
844.0
849.0
847.0
846.0
844.0
845.0
844.0
844.0
843.0
845.0
844.0
846.0
846.0
848.0
847.0
849.0
845.0
845.0
843.0
843.0
846.0
845.0
847.0
849.0
848.0
850.0
849.0
849.0
849.0
848.0
847.0
846.0
844.0
846.0
845.0
847.0
846.0
848.0
850.0
849.0
847.0
846.0
848.0
843.0
845.0
844.0
844.0
846.0
846.0
847.0
846.0
846.0
845.0
846.0
843.0
844.0
845.0
845.0
844.0
846.0
849.0
850.0
851.0
850.0
850.0
846.0
845.0
845.0
844.0
845.0
845.0
848.0
848.0
850.0
851.0
850.0
848.0
847.0
846.0
846.0
847.0
847.0
849.0
850.0
850.0
851.0
850.0
849.0
850.0
849.0
846.0
846.0
847.0
848.0
850.0
851.0
849.0
851.0
851.0
850.0
851.0
849.0
848.0
847.0
845.0
849.0
851.0
852.0
852.0
852.0
853.0
853.0
852.0
848.0
847.0
849.0
849.0
850.0
852.0
851.0
855.0
852.0
851.0
849.0
848.0
847.0
848.0
847.0
847.0
846.0
848.0
850.0
853.0
852.0
853.0
851.0
848.0
848.0
849.0
848.0
851.0
851.0
852.0
853.0
857.0
857.0
858.0
856.0
853.0
852.0
853.0
849.0
854.0
855.0
863.0
864.0
865.0
869.0
867.0
865.0
864.0
862.0
859.0
857.0
857.0
858.0
858.0
859.0
862.0
862.0
863.0
862.0
863.0
864.0
864.0
866.0
868.0
868.0
867.0
867.0
862.0
861.0
858.0
854.0
850.0
849.0
847.0
844.0
844.0
847.0
849.0
849.0
851.0
852.0
852.0
851.0
846.0
842.0
841.0
844.0
854.0
871.0
891.0
910.0
924.0
934.0
932.0
918.0
892.0
863.0
842.0
841.0
864.0
904.0
962.0
1018.0
1074.0
1127.0
1171.0
1212.0
1245.0
1271.0
1286.0
1290.0
1281.0
1264.0
1235.0
1195.0
1151.0
1106.0
1062.0
1024.0
981.0
936.0
894.0
858.0
829.0
806.0
796.0
793.0
797.0
802.0
806.0
810.0
811.0
813.0
814.0
815.0
814.0
819.0
820.0
824.0
826.0
824.0
826.0
824.0
822.0
822.0
820.0
819.0
816.0
821.0
822.0
822.0
823.0
823.0
823.0
822.0
818.0
816.0
815.0
816.0
814.0
815.0
818.0
819.0
818.0
819.0
820.0
819.0
817.0
816.0
812.0
811.0
810.0
810.0
812.0
814.0
814.0
817.0
815.0
813.0
813.0
808.0
807.0
806.0
802.0
803.0
803.0
803.0
804.0
805.0
805.0
801.0
802.0
799.0
797.0
794.0
792.0
794.0
793.0
793.0
791.0
793.0
793.0
792.0
792.0
788.0
786.0
785.0
784.0
783.0
783.0
783.0
783.0
784.0
786.0
786.0
785.0
785.0
784.0
782.0
783.0
786.0
788.0
795.0
800.0
800.0
801.0
806.0
809.0
810.0
813.0
814.0
814.0
820.0
824.0
829.0
834.0
838.0
839.0
843.0
842.0
842.0
843.0
846.0
849.0
851.0
853.0
855.0
858.0
859.0
857.0
859.0
859.0
857.0
854.0
854.0
852.0
850.0
851.0
849.0
847.0
847.0
847.0
843.0
841.0
840.0
836.0
834.0
832.0
830.0
830.0
828.0
830.0
831.0
829.0
828.0
824.0
824.0
820.0
820.0
819.0
819.0
821.0
821.0
822.0
824.0
826.0
825.0
824.0
822.0
824.0
822.0
824.0
825.0
824.0
826.0
828.0
829.0
829.0
828.0
830.0
829.0
826.0
828.0
829.0
831.0
832.0
835.0
836.0
837.0
837.0
838.0
838.0
838.0
838.0
839.0
838.0
836.0
840.0
839.0
842.0
842.0
841.0
842.0
841.0
842.0
840.0
839.0
841.0
841.0
842.0
846.0
845.0
848.0
847.0
846.0
844.0
845.0
844.0
845.0
845.0
845.0
845.0
845.0
845.0
844.0
849.0
849.0
847.0
847.0
844.0
842.0
844.0
844.0
843.0
846.0
849.0
852.0
850.0
850.0
849.0
848.0
845.0
845.0
844.0
844.0
847.0
850.0
848.0
852.0
851.0
851.0
849.0
848.0
847.0
844.0
845.0
847.0
847.0
848.0
851.0
854.0
853.0
852.0
850.0
850.0
847.0
846.0
847.0
846.0
845.0
848.0
852.0
856.0
854.0
854.0
853.0
850.0
848.0
847.0
846.0
849.0
850.0
853.0
854.0
855.0
855.0
855.0
852.0
849.0
849.0
849.0
848.0
848.0
849.0
852.0
854.0
857.0
857.0
856.0
855.0
853.0
853.0
853.0
850.0
853.0
853.0
854.0
857.0
858.0
857.0
857.0
856.0
852.0
854.0
855.0
851.0
850.0
854.0
852.0
853.0
856.0
853.0
853.0
853.0
848.0
851.0
849.0
850.0
850.0
851.0
854.0
854.0
856.0
854.0
854.0
855.0
853.0
853.0
853.0
853.0
851.0
853.0
853.0
855.0
856.0
856.0
856.0
856.0
855.0
855.0
854.0
853.0
853.0
856.0
855.0
856.0
859.0
856.0
855.0
859.0
860.0
854.0
857.0
856.0
855.0
856.0
859.0
857.0
863.0
863.0
864.0
862.0
861.0
859.0
860.0
862.0
865.0
866.0
869.0
872.0
874.0
875.0
873.0
871.0
869.0
866.0
865.0
863.0
864.0
866.0
861.0
865.0
866.0
869.0
873.0
876.0
874.0
874.0
873.0
868.0
868.0
863.0
860.0
859.0
858.0
857.0
857.0
851.0
854.0
853.0
853.0
852.0
854.0
855.0
855.0
858.0
858.0
857.0
855.0
856.0
858.0
867.0
884.0
899.0
916.0
931.0
938.0
931.0
913.0
882.0
851.0
835.0
839.0
867.0
911.0
963.0
1017.0
1067.0
1113.0
1157.0
1196.0
1226.0
1247.0
1261.0
1264.0
1256.0
1240.0
1213.0
1182.0
1143.0
1105.0
1066.0
1028.0
983.0
939.0
896.0
862.0
833.0
817.0
811.0
809.0
811.0
814.0
820.0
823.0
825.0
826.0
831.0
833.0
831.0
833.0
831.0
829.0
830.0
829.0
829.0
832.0
831.0
830.0
832.0
832.0
832.0
831.0
830.0
829.0
830.0
828.0
830.0
833.0
833.0
831.0
833.0
830.0
831.0
828.0
829.0
827.0
829.0
829.0
831.0
829.0
830.0
826.0
826.0
824.0
826.0
824.0
822.0
821.0
821.0
822.0
821.0
824.0
823.0
820.0
820.0
820.0
817.0
816.0
815.0
813.0
815.0
813.0
814.0
814.0
813.0
810.0
808.0
808.0
805.0
801.0
803.0
800.0
803.0
802.0
803.0
804.0
802.0
799.0
799.0
793.0
798.0
798.0
796.0
797.0
798.0
798.0
801.0
804.0
804.0
807.0
805.0
807.0
806.0
808.0
809.0
814.0
815.0
819.0
822.0
828.0
829.0
832.0
833.0
835.0
837.0
841.0
842.0
844.0
846.0
851.0
855.0
861.0
861.0
862.0
863.0
865.0
866.0
862.0
864.0
863.0
865.0
864.0
866.0
868.0
867.0
868.0
864.0
860.0
858.0
852.0
855.0
849.0
848.0
849.0
849.0
850.0
848.0
845.0
842.0
840.0
839.0
837.0
835.0
832.0
833.0
834.0
834.0
836.0
833.0
833.0
832.0
830.0
830.0
828.0
831.0
831.0
833.0
834.0
835.0
834.0
834.0
834.0
837.0
836.0
835.0
835.0
834.0
836.0
837.0
838.0
839.0
842.0
843.0
843.0
839.0
838.0
841.0
842.0
840.0
841.0
842.0
846.0
846.0
846.0
848.0
847.0
845.0
844.0
844.0
845.0
844.0
844.0
847.0
850.0
849.0
850.0
850.0
848.0
850.0
847.0
844.0
844.0
843.0
846.0
846.0
848.0
849.0
850.0
851.0
851.0
849.0
850.0
848.0
845.0
846.0
848.0
847.0
852.0
853.0
854.0
852.0
853.0
853.0
851.0
849.0
848.0
849.0
849.0
852.0
853.0
855.0
854.0
855.0
854.0
851.0
851.0
848.0
848.0
850.0
848.0
851.0
852.0
854.0
857.0
855.0
856.0
854.0
852.0
851.0
848.0
850.0
851.0
852.0
855.0
857.0
854.0
856.0
854.0
855.0
851.0
853.0
853.0
851.0
851.0
853.0
855.0
855.0
858.0
859.0
856.0
854.0
853.0
850.0
852.0
851.0
851.0
856.0
857.0
860.0
861.0
859.0
858.0
856.0
856.0
854.0
853.0
853.0
853.0
853.0
859.0
858.0
862.0
859.0
861.0
857.0
854.0
852.0
854.0
852.0
854.0
856.0
857.0
856.0
859.0
857.0
858.0
857.0
856.0
855.0
854.0
855.0
855.0
854.0
856.0
858.0
861.0
860.0
858.0
857.0
856.0
854.0
855.0
855.0
857.0
858.0
860.0
862.0
864.0
861.0
860.0
862.0
859.0
859.0
860.0
859.0
860.0
861.0
864.0
865.0
868.0
866.0
866.0
863.0
860.0
862.0
862.0
866.0
865.0
871.0
873.0
875.0
875.0
875.0
875.0
871.0
871.0
869.0
865.0
863.0
861.0
863.0
865.0
867.0
869.0
870.0
871.0
872.0
873.0
876.0
875.0
875.0
871.0
870.0
867.0
865.0
865.0
862.0
860.0
857.0
855.0
853.0
852.0
852.0
851.0
853.0
855.0
857.0
859.0
859.0
857.0
854.0
853.0
851.0
856.0
868.0
886.0
905.0
920.0
933.0
941.0
938.0
927.0
907.0
877.0
853.0
842.0
848.0
874.0
914.0
963.0
1011.0
1062.0
1105.0
1150.0
1188.0
1224.0
1253.0
1274.0
1284.0
1287.0
1278.0
1261.0
1240.0
1207.0
1170.0
1128.0
1088.0
1051.0
1013.0
977.0
939.0
903.0
871.0
844.0
826.0
814.0
810.0
809.0
810.0
812.0
814.0
813.0
816.0
818.0
824.0
826.0
831.0
834.0
836.0
833.0
831.0
827.0
826.0
827.0
828.0
829.0
830.0
831.0
834.0
831.0
831.0
832.0
830.0
829.0
829.0
825.0
824.0
824.0
827.0
828.0
828.0
831.0
827.0
828.0
826.0
825.0
824.0
823.0
821.0
823.0
823.0
824.0
823.0
825.0
823.0
821.0
821.0
820.0
819.0
815.0
813.0
816.0
813.0
816.0
818.0
818.0
818.0
818.0
816.0
814.0
813.0
808.0
808.0
807.0
808.0
807.0
808.0
807.0
808.0
806.0
803.0
801.0
803.0
799.0
797.0
797.0
794.0
795.0
798.0
799.0
795.0
795.0
795.0
791.0
789.0
789.0
787.0
786.0
789.0
789.0
792.0
796.0
798.0
798.0
799.0
800.0
800.0
801.0
801.0
804.0
805.0
808.0
812.0
816.0
817.0
820.0
825.0
825.0
831.0
832.0
831.0
834.0
842.0
847.0
851.0
853.0
857.0
856.0
857.0
860.0
859.0
863.0
865.0
866.0
867.0
870.0
869.0
870.0
871.0
870.0
869.0
868.0
864.0
863.0
861.0
860.0
860.0
859.0
857.0
855.0
852.0
849.0
848.0
848.0
845.0
842.0
840.0
837.0
836.0
839.0
837.0
838.0
835.0
837.0
837.0
834.0
835.0
835.0
833.0
834.0
835.0
835.0
837.0
839.0
837.0
839.0
839.0
838.0
838.0
839.0
839.0
839.0
841.0
844.0
844.0
845.0
848.0
848.0
847.0
848.0
846.0
846.0
847.0
847.0
847.0
850.0
850.0
851.0
852.0
850.0
850.0
849.0
849.0
849.0
849.0
850.0
851.0
851.0
851.0
854.0
854.0
854.0
853.0
850.0
849.0
849.0
849.0
850.0
853.0
854.0
853.0
852.0
852.0
853.0
852.0
853.0
852.0
850.0
851.0
851.0
849.0
854.0
854.0
858.0
856.0
855.0
854.0
855.0
852.0
852.0
855.0
851.0
853.0
855.0
857.0
857.0
858.0
858.0
856.0
855.0
854.0
856.0
856.0
855.0
857.0
858.0
858.0
859.0
859.0
859.0
856.0
856.0
856.0
856.0
857.0
856.0
857.0
857.0
861.0
855.0
858.0
857.0
859.0
858.0
856.0
856.0
856.0
857.0
858.0
858.0
858.0
857.0
858.0
856.0
858.0
857.0
856.0
855.0
855.0
858.0
857.0
859.0
859.0
862.0
865.0
863.0
861.0
857.0
858.0
857.0
856.0
859.0
860.0
861.0
863.0
862.0
865.0
863.0
862.0
858.0
856.0
855.0
853.0
856.0
855.0
858.0
859.0
859.0
860.0
860.0
856.0
856.0
854.0
854.0
854.0
855.0
855.0
859.0
860.0
861.0
862.0
862.0
860.0
860.0
857.0
858.0
857.0
857.0
857.0
859.0
859.0
860.0
862.0
861.0
860.0
861.0
858.0
856.0
855.0
855.0
857.0
857.0
861.0
861.0
864.0
862.0
860.0
858.0
857.0
858.0
858.0
858.0
859.0
861.0
864.0
866.0
865.0
866.0
866.0
865.0
863.0
863.0
863.0
866.0
869.0
872.0
873.0
877.0
877.0
878.0
875.0
873.0
870.0
864.0
861.0
863.0
862.0
865.0
865.0
869.0
870.0
872.0
871.0
875.0
875.0
872.0
872.0
871.0
871.0
871.0
869.0
865.0
862.0
861.0
858.0
856.0
855.0
852.0
852.0
852.0
855.0
856.0
858.0
858.0
860.0
860.0
857.0
855.0
851.0
849.0
851.0
858.0
872.0
893.0
911.0
926.0
938.0
942.0
936.0
917.0
888.0
861.0
844.0
850.0
875.0
923.0
977.0
1031.0
1088.0
1136.0
1180.0
1219.0
1247.0
1270.0
1278.0
1277.0
1267.0
1252.0
1227.0
1191.0
1151.0
1105.0
1057.0
1006.0
953.0
901.0
858.0
824.0
805.0
798.0
797.0
805.0
813.0
820.0
827.0
830.0
830.0
831.0
831.0
833.0
831.0
830.0
832.0
833.0
834.0
835.0
835.0
833.0
831.0
831.0
830.0
831.0
830.0
831.0
832.0
836.0
835.0
833.0
832.0
829.0
826.0
826.0
827.0
826.0
827.0
828.0
825.0
829.0
830.0
827.0
826.0
827.0
823.0
821.0
821.0
820.0
821.0
823.0
824.0
826.0
825.0
823.0
823.0
819.0
816.0
813.0
812.0
811.0
813.0
812.0
813.0
812.0
812.0
812.0
810.0
808.0
807.0
803.0
801.0
799.0
799.0
798.0
799.0
800.0
803.0
799.0
798.0
795.0
793.0
792.0
790.0
792.0
793.0
797.0
798.0
803.0
803.0
804.0
805.0
805.0
804.0
806.0
809.0
813.0
816.0
820.0
825.0
829.0
832.0
834.0
837.0
838.0
838.0
842.0
844.0
846.0
851.0
856.0
857.0
861.0
864.0
866.0
865.0
862.0
863.0
862.0
862.0
862.0
864.0
864.0
862.0
860.0
860.0
859.0
854.0
850.0
850.0
847.0
843.0
841.0
840.0
842.0
840.0
840.0
839.0
837.0
836.0
830.0
828.0
822.0
824.0
821.0
825.0
825.0
827.0
827.0
830.0
828.0
825.0
825.0
823.0
822.0
823.0
825.0
826.0
827.0
828.0
833.0
830.0
832.0
828.0
828.0
828.0
830.0
828.0
829.0
832.0
833.0
836.0
837.0
837.0
837.0
836.0
835.0
835.0
834.0
834.0
834.0
837.0
839.0
839.0
842.0
844.0
843.0
843.0
842.0
839.0
838.0
834.0
838.0
839.0
840.0
841.0
844.0
845.0
844.0
845.0
843.0
842.0
842.0
841.0
841.0
841.0
845.0
845.0
847.0
847.0
847.0
846.0
845.0
845.0
843.0
841.0
842.0
842.0
842.0
845.0
846.0
847.0
847.0
846.0
844.0
844.0
845.0
843.0
843.0
845.0
845.0
847.0
846.0
849.0
849.0
848.0
848.0
845.0
843.0
842.0
843.0
845.0
843.0
844.0
847.0
848.0
848.0
847.0
847.0
844.0
844.0
843.0
845.0
845.0
844.0
846.0
847.0
848.0
846.0
846.0
847.0
846.0
848.0
846.0
844.0
845.0
846.0
847.0
850.0
852.0
849.0
849.0
848.0
845.0
842.0
846.0
846.0
848.0
850.0
849.0
850.0
853.0
850.0
849.0
849.0
849.0
845.0
844.0
844.0
846.0
848.0
848.0
851.0
851.0
849.0
846.0
847.0
842.0
843.0
843.0
846.0
844.0
847.0
847.0
848.0
850.0
849.0
849.0
846.0
845.0
845.0
844.0
845.0
847.0
847.0
849.0
850.0
850.0
849.0
850.0
848.0
848.0
846.0
847.0
846.0
846.0
849.0
851.0
851.0
851.0
848.0
848.0
848.0
846.0
844.0
846.0
844.0
847.0
850.0
852.0
850.0
853.0
850.0
848.0
847.0
849.0
847.0
846.0
847.0
848.0
849.0
849.0
852.0
852.0
850.0
849.0
848.0
847.0
844.0
848.0
847.0
851.0
851.0
854.0
852.0
853.0
854.0
853.0
855.0
855.0
854.0
854.0
857.0
862.0
861.0
862.0
858.0
857.0
855.0
853.0
852.0
851.0
852.0
853.0
853.0
857.0
863.0
865.0
868.0
867.0
867.0
863.0
858.0
852.0
848.0
847.0
846.0
843.0
845.0
844.0
845.0
847.0
847.0
844.0
846.0
844.0
845.0
844.0
846.0
845.0
845.0
845.0
846.0
845.0
854.0
871.0
886.0
904.0
916.0
926.0
927.0
921.0
903.0
879.0
852.0
836.0
840.0
865.0
905.0
956.0
1013.0
1066.0
1113.0
1164.0
1210.0
1244.0
1264.0
1273.0
1265.0
1245.0
1212.0
1171.0
1121.0
1074.0
1025.0
979.0
933.0
890.0
851.0
825.0
807.0
797.0
795.0
796.0
799.0
805.0
809.0
813.0
816.0
822.0
826.0
827.0
825.0
824.0
821.0
820.0
817.0
817.0
819.0
820.0
822.0
823.0
824.0
825.0
824.0
824.0
821.0
821.0
820.0
816.0
817.0
819.0
820.0
819.0
821.0
821.0
821.0
818.0
817.0
813.0
811.0
814.0
812.0
812.0
813.0
815.0
817.0
820.0
819.0
816.0
815.0
812.0
809.0
807.0
807.0
805.0
808.0
808.0
810.0
811.0
808.0
807.0
803.0
803.0
801.0
798.0
800.0
797.0
795.0
796.0
799.0
799.0
799.0
795.0
792.0
791.0
789.0
788.0
786.0
788.0
789.0
790.0
789.0
788.0
788.0
787.0
786.0
784.0
783.0
782.0
784.0
784.0
786.0
787.0
793.0
797.0
794.0
797.0
799.0
797.0
798.0
798.0
803.0
803.0
808.0
814.0
816.0
823.0
824.0
828.0
827.0
830.0
828.0
832.0
836.0
840.0
843.0
848.0
851.0
855.0
857.0
856.0
854.0
856.0
853.0
853.0
851.0
854.0
855.0
855.0
855.0
855.0
854.0
851.0
847.0
845.0
840.0
838.0
835.0
834.0
832.0
832.0
833.0
830.0
828.0
826.0
823.0
820.0
820.0
814.0
817.0
818.0
819.0
820.0
824.0
824.0
824.0
823.0
822.0
821.0
821.0
822.0
821.0
824.0
826.0
827.0
826.0
828.0
830.0
829.0
824.0
824.0
823.0
825.0
827.0
829.0
833.0
832.0
835.0
837.0
835.0
837.0
835.0
834.0
833.0
834.0
833.0
837.0
838.0
840.0
841.0
842.0
843.0
843.0
842.0
840.0
837.0
838.0
839.0
839.0
841.0
844.0
847.0
847.0
846.0
848.0
847.0
845.0
843.0
843.0
843.0
843.0
845.0
845.0
847.0
850.0
850.0
850.0
849.0
847.0
846.0
846.0
845.0
851.0
851.0
852.0
854.0
854.0
853.0
854.0
849.0
850.0
852.0
850.0
850.0
852.0
853.0
856.0
858.0
858.0
859.0
858.0
857.0
853.0
852.0
852.0
853.0
852.0
857.0
858.0
859.0
861.0
862.0
860.0
860.0
858.0
857.0
857.0
856.0
858.0
860.0
863.0
864.0
870.0
870.0
870.0
871.0
869.0
866.0
862.0
859.0
858.0
857.0
860.0
862.0
865.0
866.0
866.0
863.0
864.0
862.0
863.0
863.0
864.0
866.0
867.0
871.0
873.0
874.0
874.0
873.0
872.0
870.0
871.0
868.0
870.0
870.0
873.0
876.0
875.0
874.0
876.0
874.0
873.0
872.0
870.0
872.0
872.0
875.0
873.0
877.0
880.0
