# Simple Text Format
# Sampling Rate (Hz):= 360.00
# Resolution:= 12
# Labels:= ECG
1295.0
1279.0
1255.0
1222.0
1181.0
1136.0
1090.0
1046.0
1004.0
960.0
916.0
872.0
837.0
813.0
799.0
796.0
798.0
803.0
808.0
814.0
818.0
825.0
829.0
830.0
832.0
831.0
828.0
827.0
823.0
823.0
825.0
825.0
827.0
829.0
831.0
830.0
828.0
828.0
826.0
824.0
824.0
824.0
824.0
825.0
826.0
828.0
830.0
828.0
828.0
825.0
826.0
824.0
821.0
820.0
820.0
821.0
823.0
822.0
823.0
823.0
822.0
822.0
820.0
817.0
816.0
814.0
813.0
815.0
814.0
815.0
818.0
817.0
816.0
814.0
813.0
809.0
808.0
806.0
805.0
806.0
804.0
803.0
805.0
805.0
804.0
803.0
802.0
801.0
799.0
796.0
796.0
796.0
797.0
798.0
799.0
796.0
796.0
795.0
793.0
790.0
790.0
791.0
791.0
794.0
795.0
798.0
803.0
805.0
806.0
807.0
809.0
811.0
812.0
814.0
817.0
821.0
824.0
828.0
833.0
837.0
839.0
839.0
842.0
843.0
846.0
848.0
849.0
853.0
858.0
861.0
862.0
864.0
867.0
868.0
867.0
864.0
865.0
865.0
863.0
863.0
863.0
863.0
863.0
863.0
861.0
858.0
855.0
853.0
848.0
844.0
842.0
842.0
840.0
841.0
840.0
841.0
837.0
836.0
832.0
828.0
824.0
826.0
825.0
825.0
825.0
826.0
828.0
827.0
825.0
824.0
824.0
823.0
825.0
822.0
822.0
826.0
825.0
828.0
830.0
832.0
831.0
829.0
830.0
832.0
830.0
832.0
834.0
833.0
836.0
839.0
837.0
837.0
839.0
839.0
839.0
838.0
840.0
840.0
841.0
841.0
843.0
843.0
845.0
845.0
843.0
843.0
843.0
841.0
843.0
841.0
843.0
844.0
846.0
846.0
850.0
848.0
848.0
847.0
845.0
845.0
846.0
842.0
842.0
846.0
848.0
847.0
849.0
850.0
850.0
848.0
847.0
846.0
845.0
846.0
848.0
850.0
850.0
850.0
852.0
850.0
851.0
847.0
848.0
847.0
847.0
847.0
849.0
850.0
848.0
848.0
851.0
852.0
851.0
850.0
850.0
848.0
848.0
847.0
847.0
851.0
849.0
850.0
854.0
851.0
851.0
852.0
850.0
849.0
848.0
847.0
847.0
848.0
850.0
852.0
854.0
854.0
852.0
851.0
851.0
850.0
850.0
849.0
849.0
850.0
852.0
852.0
854.0
854.0
853.0
852.0
848.0
849.0
850.0
848.0
847.0
849.0
850.0
852.0
852.0
853.0
852.0
851.0
850.0
849.0
849.0
848.0
848.0
852.0
851.0
851.0
853.0
853.0
852.0
852.0
849.0
848.0
846.0
847.0
845.0
848.0
850.0
852.0
854.0
853.0
850.0
850.0
849.0
849.0
847.0
848.0
848.0
850.0
852.0
852.0
853.0
853.0
852.0
849.0
846.0
845.0
845.0
846.0
845.0
848.0
851.0
854.0
856.0
854.0
855.0
852.0
852.0
853.0
851.0
848.0
847.0
851.0
852.0
854.0
858.0
858.0
862.0
862.0
861.0
861.0
862.0
863.0
863.0
864.0
862.0
864.0
865.0
862.0
858.0
857.0
856.0
856.0
856.0
855.0
855.0
859.0
864.0
868.0
870.0
869.0
868.0
864.0
862.0
859.0
855.0
849.0
848.0
848.0
847.0
847.0
849.0
848.0
847.0
847.0
846.0
847.0
845.0
845.0
844.0
842.0
842.0
841.0
847.0
856.0
868.0
886.0
901.0
916.0
928.0
934.0
933.0
920.0
893.0
862.0
837.0
824.0
831.0
860.0
903.0
951.0
999.0
1043.0
1085.0
1126.0
1168.0
1206.0
1240.0
1259.0
1268.0
1268.0
1255.0
1235.0
1206.0
1168.0
1128.0
1085.0
1042.0
1001.0
958.0
918.0
874.0
840.0
817.0
801.0
796.0
796.0
798.0
806.0
809.0
816.0
820.0
821.0
825.0
823.0
826.0
821.0
823.0
823.0
823.0
823.0
825.0
826.0
827.0
829.0
828.0
827.0
826.0
824.0
824.0
820.0
822.0
822.0
822.0
825.0
826.0
825.0
824.0
824.0
822.0
822.0
820.0
819.0
818.0
817.0
818.0
819.0
821.0
821.0
818.0
818.0
817.0
815.0
813.0
812.0
813.0
814.0
815.0
813.0
813.0
812.0
812.0
810.0
808.0
806.0
805.0
804.0
805.0
806.0
806.0
805.0
807.0
805.0
803.0
799.0
798.0
796.0
792.0
792.0
791.0
789.0
789.0
789.0
790.0
792.0
789.0
787.0
783.0
782.0
781.0
781.0
781.0
783.0
787.0
788.0
789.0
789.0
791.0
790.0
792.0
794.0
795.0
799.0
801.0
806.0
810.0
812.0
816.0
818.0
820.0
823.0
828.0
828.0
834.0
837.0
838.0
841.0
846.0
850.0
855.0
858.0
860.0
862.0
862.0
862.0
864.0
866.0
864.0
866.0
865.0
864.0
867.0
863.0
864.0
862.0
859.0
856.0
855.0
854.0
852.0
852.0
849.0
847.0
848.0
845.0
845.0
841.0
837.0
837.0
834.0
834.0
835.0
834.0
835.0
836.0
837.0
839.0
835.0
833.0
832.0
831.0
832.0
832.0
831.0
831.0
835.0
835.0
837.0
837.0
836.0
837.0
837.0
834.0
836.0
834.0
832.0
835.0
838.0
840.0
843.0
842.0
840.0
842.0
841.0
841.0
842.0
842.0
843.0
842.0
846.0
847.0
848.0
848.0
846.0
844.0
846.0
846.0
844.0
845.0
845.0
846.0
848.0
850.0
850.0
846.0
848.0
847.0
844.0
847.0
847.0
848.0
848.0
848.0
850.0
850.0
851.0
851.0
852.0
848.0
848.0
850.0
849.0
846.0
846.0
848.0
848.0
853.0
855.0
855.0
853.0
852.0
850.0
849.0
849.0
847.0
846.0
851.0
851.0
853.0
857.0
852.0
853.0
850.0
850.0
851.0
849.0
851.0
852.0
851.0
853.0
855.0
857.0
851.0
852.0
851.0
850.0
849.0
850.0
850.0
851.0
851.0
855.0
856.0
856.0
857.0
856.0
855.0
854.0
852.0
852.0
847.0
849.0
849.0
851.0
853.0
854.0
854.0
855.0
854.0
851.0
849.0
850.0
850.0
848.0
850.0
851.0
852.0
855.0
853.0
853.0
852.0
851.0
851.0
852.0
850.0
850.0
848.0
851.0
853.0
855.0
855.0
854.0
852.0
848.0
849.0
848.0
848.0
849.0
849.0
853.0
854.0
855.0
856.0
853.0
851.0
851.0
848.0
847.0
848.0
847.0
850.0
851.0
849.0
851.0
852.0
851.0
852.0
850.0
847.0
848.0
848.0
848.0
850.0
851.0
852.0
856.0
852.0
850.0
848.0
847.0
848.0
847.0
846.0
847.0
849.0
849.0
853.0
855.0
856.0
855.0
855.0
854.0
853.0
854.0
852.0
850.0
852.0
855.0
856.0
861.0
863.0
863.0
865.0
863.0
863.0
862.0
860.0
859.0
859.0
859.0
859.0
860.0
858.0
858.0
857.0
854.0
853.0
856.0
856.0
859.0
863.0
865.0
865.0
866.0
863.0
860.0
856.0
852.0
846.0
841.0
840.0
840.0
841.0
843.0
845.0
847.0
847.0
846.0
845.0
845.0
843.0
841.0
837.0
836.0
836.0
845.0
861.0
878.0
899.0
914.0
923.0
928.0
920.0
899.0
869.0
842.0
824.0
830.0
859.0
905.0
959.0
1014.0
1071.0
1123.0
1172.0
1217.0
1252.0
1278.0
1294.0
1295.0
1288.0
1271.0
1242.0
1203.0
1156.0
1109.0
1061.0
1008.0
960.0
912.0
869.0
832.0
807.0
794.0
789.0
790.0
792.0
798.0
801.0
804.0
807.0
811.0
817.0
820.0
823.0
821.0
823.0
819.0
817.0
818.0
815.0
816.0
815.0
816.0
815.0
816.0
818.0
818.0
820.0
821.0
817.0
816.0
815.0
814.0
811.0
813.0
812.0
814.0
813.0
816.0
816.0
815.0
815.0
813.0
813.0
809.0
810.0
808.0
809.0
810.0
814.0
812.0
811.0
812.0
810.0
808.0
802.0
804.0
800.0
804.0
803.0
803.0
803.0
805.0
804.0
802.0
800.0
799.0
797.0
796.0
795.0
794.0
792.0
795.0
795.0
795.0
795.0
792.0
793.0
789.0
787.0
785.0
784.0
782.0
783.0
786.0
785.0
788.0
788.0
789.0
788.0
785.0
785.0
787.0
789.0
790.0
791.0
795.0
797.0
800.0
803.0
805.0
806.0
807.0
809.0
807.0
810.0
812.0
818.0
821.0
826.0
829.0
835.0
838.0
839.0
842.0
843.0
844.0
844.0
848.0
850.0
853.0
855.0
859.0
858.0
859.0
858.0
857.0
856.0
856.0
855.0
854.0
854.0
852.0
854.0
853.0
849.0
848.0
845.0
843.0
839.0
838.0
836.0
832.0
829.0
828.0
831.0
831.0
829.0
826.0
822.0
820.0
817.0
815.0
816.0
815.0
815.0
817.0
818.0
818.0
819.0
816.0
817.0
816.0
815.0
812.0
813.0
815.0
816.0
818.0
819.0
820.0
822.0
822.0
821.0
820.0
819.0
821.0
821.0
820.0
823.0
825.0
825.0
829.0
832.0
828.0
829.0
829.0
828.0
826.0
827.0
827.0
828.0
832.0
833.0
834.0
836.0
836.0
833.0
832.0
832.0
831.0
831.0
832.0
832.0
834.0
834.0
836.0
840.0
838.0
839.0
837.0
834.0
832.0
831.0
834.0
836.0
837.0
839.0
840.0
837.0
838.0
838.0
836.0
835.0
834.0
836.0
834.0
836.0
837.0
839.0
842.0
842.0
844.0
842.0
840.0
841.0
835.0
835.0
834.0
833.0
836.0
839.0
842.0
842.0
843.0
842.0
839.0
838.0
837.0
837.0
834.0
836.0
838.0
838.0
842.0
842.0
844.0
839.0
841.0
840.0
836.0
834.0
838.0
836.0
839.0
839.0
840.0
842.0
842.0
842.0
842.0
841.0
838.0
838.0
837.0
837.0
838.0
840.0
840.0
842.0
842.0
841.0
841.0
840.0
838.0
838.0
838.0
838.0
840.0
839.0
842.0
839.0
838.0
835.0
834.0
834.0
835.0
835.0
837.0
837.0
840.0
842.0
841.0
841.0
841.0
839.0
837.0
838.0
837.0
836.0
836.0
835.0
837.0
838.0
841.0
840.0
840.0
840.0
839.0
837.0
835.0
837.0
835.0
837.0
837.0
838.0
839.0
840.0
840.0
841.0
843.0
840.0
839.0
838.0
839.0
843.0
842.0
846.0
847.0
848.0
849.0
847.0
846.0
844.0
843.0
842.0
842.0
845.0
852.0
854.0
856.0
858.0
858.0
858.0
856.0
854.0
848.0
846.0
845.0
844.0
844.0
844.0
847.0
848.0
850.0
853.0
854.0
855.0
854.0
850.0
851.0
851.0
848.0
844.0
845.0
842.0
840.0
837.0
838.0
834.0
832.0
835.0
834.0
833.0
835.0
838.0
839.0
840.0
835.0
833.0
831.0
829.0
837.0
851.0
870.0
892.0
910.0
925.0
930.0
922.0
898.0
859.0
823.0
800.0
803.0
832.0
881.0
940.0
1004.0
1063.0
1117.0
1166.0
1205.0
1237.0
1253.0
1262.0
1256.0
1242.0
1220.0
1191.0
1155.0
1111.0
1071.0
1033.0
990.0
947.0
903.0
862.0
828.0
804.0
786.0
783.0
783.0
789.0
799.0
804.0
806.0
811.0
813.0
815.0
814.0
819.0
818.0
817.0
817.0
819.0
819.0
819.0
817.0
815.0
816.0
817.0
816.0
816.0
814.0
816.0
817.0
819.0
820.0
820.0
820.0
815.0
815.0
814.0
814.0
813.0
813.0
816.0
817.0
816.0
817.0
819.0
816.0
814.0
813.0
812.0
811.0
811.0
809.0
810.0
807.0
808.0
809.0
809.0
807.0
806.0
805.0
805.0
802.0
800.0
801.0
802.0
802.0
800.0
802.0
802.0
799.0
799.0
795.0
796.0
792.0
789.0
790.0
790.0
790.0
792.0
791.0
789.0
786.0
786.0
782.0
780.0
780.0
777.0
777.0
777.0
780.0
779.0
782.0
780.0
783.0
783.0
779.0
780.0
779.0
782.0
783.0
787.0
789.0
792.0
796.0
796.0
801.0
801.0
804.0
806.0
808.0
807.0
814.0
819.0
826.0
828.0
831.0
837.0
839.0
839.0
844.0
843.0
844.0
848.0
845.0
852.0
855.0
857.0
861.0
862.0
858.0
858.0
855.0
857.0
857.0
857.0
854.0
854.0
855.0
855.0
854.0
855.0
852.0
848.0
845.0
843.0
840.0
835.0
837.0
837.0
838.0
835.0
836.0
838.0
835.0
834.0
831.0
829.0
828.0
827.0
828.0
829.0
828.0
831.0
834.0
834.0
835.0
835.0
833.0
832.0
831.0
830.0
832.0
835.0
837.0
837.0
837.0
839.0
839.0
839.0
838.0
837.0
835.0
835.0
836.0
835.0
838.0
839.0
843.0
845.0
843.0
844.0
842.0
842.0
842.0
841.0
842.0
842.0
843.0
846.0
848.0
847.0
848.0
844.0
844.0
845.0
844.0
844.0
845.0
844.0
847.0
849.0
849.0
851.0
851.0
850.0
848.0
847.0
846.0
846.0
846.0
846.0
846.0
850.0
849.0
848.0
851.0
851.0
847.0
846.0
845.0
845.0
845.0
847.0
849.0
850.0
850.0
852.0
850.0
849.0
847.0
847.0
846.0
846.0
847.0
847.0
846.0
849.0
851.0
853.0
851.0
849.0
847.0
849.0
847.0
846.0
845.0
846.0
849.0
848.0
849.0
849.0
851.0
850.0
848.0
849.0
849.0
847.0
847.0
846.0
849.0
851.0
852.0
853.0
850.0
852.0
853.0
849.0
847.0
849.0
850.0
852.0
853.0
854.0
854.0
853.0
852.0
853.0
852.0
851.0
849.0
848.0
850.0
849.0
850.0
850.0
855.0
856.0
855.0
851.0
851.0
851.0
850.0
849.0
849.0
849.0
848.0
851.0
851.0
851.0
851.0
849.0
850.0
846.0
849.0
850.0
847.0
849.0
849.0
849.0
852.0
853.0
852.0
853.0
851.0
849.0
849.0
850.0
850.0
850.0
853.0
855.0
855.0
854.0
856.0
853.0
853.0
854.0
853.0
852.0
853.0
855.0
857.0
858.0
860.0
863.0
861.0
860.0
858.0
858.0
856.0
856.0
858.0
859.0
864.0
869.0
872.0
873.0
872.0
870.0
869.0
867.0
864.0
862.0
860.0
861.0
863.0
863.0
864.0
862.0
862.0
861.0
863.0
864.0
865.0
868.0
872.0
874.0
873.0
872.0
872.0
872.0
865.0
862.0
855.0
852.0
848.0
848.0
847.0
850.0
851.0
850.0
852.0
856.0
853.0
853.0
852.0
849.0
846.0
845.0
843.0
845.0
857.0
876.0
893.0
914.0
927.0
933.0
934.0
921.0
897.0
866.0
842.0
831.0
844.0
881.0
929.0
984.0
1038.0
1092.0
1141.0
1186.0
1229.0
1266.0
1294.0
1310.0
1313.0
1308.0
1294.0
1267.0
1233.0
1188.0
1141.0
1095.0
1051.0
1007.0
963.0
920.0
878.0
844.0
821.0
805.0
798.0
797.0
799.0
802.0
803.0
808.0
812.0
815.0
821.0
825.0
830.0
830.0
831.0
829.0
828.0
826.0
821.0
823.0
823.0
825.0
826.0
826.0
828.0
830.0
826.0
827.0
828.0
826.0
824.0
823.0
823.0
822.0
825.0
825.0
826.0
827.0
825.0
823.0
822.0
819.0
822.0
820.0
820.0
822.0
822.0
821.0
823.0
822.0
822.0
822.0
819.0
818.0
817.0
815.0
814.0
815.0
815.0
816.0
817.0
817.0
815.0
813.0
811.0
807.0
804.0
803.0
802.0
806.0
802.0
806.0
805.0
805.0
804.0
803.0
800.0
799.0
796.0
797.0
794.0
794.0
794.0
795.0
798.0
797.0
796.0
799.0
796.0
797.0
793.0
792.0
794.0
799.0
800.0
804.0
807.0
810.0
811.0
814.0
817.0
818.0
818.0
823.0
827.0
830.0
836.0
839.0
845.0
849.0
850.0
854.0
856.0
859.0
859.0
858.0
863.0
866.0
868.0
870.0
872.0
873.0
872.0
872.0
870.0
867.0
862.0
862.0
860.0
858.0
859.0
857.0
855.0
852.0
847.0
848.0
843.0
840.0
837.0
834.0
830.0
832.0
828.0
832.0
831.0
829.0
828.0
828.0
828.0
826.0
822.0
824.0
823.0
824.0
824.0
825.0
829.0
828.0
831.0
832.0
830.0
826.0
827.0
827.0
828.0
828.0
831.0
832.0
833.0
837.0
835.0
838.0
837.0
834.0
836.0
834.0
836.0
836.0
837.0
842.0
843.0
847.0
845.0
843.0
844.0
842.0
839.0
841.0
841.0
841.0
843.0
843.0
846.0
846.0
848.0
847.0
846.0
845.0
843.0
842.0
843.0
845.0
846.0
847.0
848.0
849.0
850.0
849.0
847.0
846.0
844.0
841.0
845.0
843.0
847.0
849.0
852.0
849.0
849.0
850.0
849.0
848.0
845.0
846.0
846.0
846.0
848.0
850.0
854.0
851.0
850.0
850.0
848.0
851.0
847.0
845.0
846.0
846.0
848.0
851.0
851.0
851.0
850.0
851.0
850.0
849.0
847.0
848.0
846.0
845.0
846.0
850.0
853.0
856.0
853.0
855.0
853.0
851.0
850.0
849.0
847.0
850.0
850.0
850.0
849.0
851.0
851.0
854.0
853.0
846.0
850.0
847.0
848.0
850.0
852.0
854.0
854.0
854.0
853.0
853.0
851.0
850.0
846.0
849.0
846.0
848.0
849.0
849.0
851.0
852.0
855.0
853.0
852.0
850.0
847.0
850.0
848.0
850.0
849.0
851.0
854.0
854.0
855.0
855.0
854.0
852.0
851.0
848.0
850.0
851.0
851.0
852.0
854.0
855.0
855.0
855.0
855.0
853.0
852.0
847.0
848.0
848.0
850.0
853.0
855.0
856.0
857.0
856.0
857.0
858.0
856.0
853.0
853.0
855.0
856.0
860.0
863.0
867.0
868.0
869.0
869.0
867.0
867.0
866.0
863.0
862.0
861.0
862.0
862.0
865.0
863.0
864.0
864.0
865.0
867.0
867.0
867.0
870.0
870.0
869.0
867.0
866.0
862.0
859.0
857.0
854.0
851.0
849.0
850.0
850.0
850.0
852.0
854.0
853.0
855.0
853.0
855.0
851.0
850.0
846.0
844.0
844.0
846.0
856.0
871.0
893.0
914.0
931.0
942.0
944.0
938.0
912.0
878.0
842.0
824.0
834.0
875.0
937.0
1008.0
1077.0
1138.0
1187.0
1223.0
1249.0
1265.0
1270.0
1264.0
1250.0
1229.0
1198.0
1158.0
1116.0
1064.0
1021.0
973.0
930.0
888.0
849.0
823.0
809.0
801.0
805.0
810.0
813.0
817.0
822.0
826.0
828.0
829.0
831.0
831.0
836.0
836.0
836.0
834.0
834.0
835.0
835.0
833.0
832.0
834.0
831.0
835.0
834.0
835.0
837.0
836.0
835.0
834.0
832.0
830.0
828.0
828.0
830.0
830.0
830.0
834.0
832.0
833.0
828.0
828.0
827.0
827.0
825.0
824.0
824.0
825.0
828.0
827.0
826.0
822.0
825.0
823.0
821.0
818.0
818.0
818.0
818.0
818.0
819.0
818.0
818.0
816.0
815.0
814.0
811.0
810.0
809.0
807.0
806.0
807.0
806.0
805.0
803.0
804.0
803.0
802.0
798.0
795.0
796.0
797.0
796.0
795.0
797.0
798.0
799.0
797.0
796.0
796.0
794.0
795.0
796.0
797.0
799.0
801.0
804.0
805.0
809.0
810.0
811.0
812.0
810.0
811.0
815.0
817.0
822.0
830.0
832.0
835.0
840.0
841.0
844.0
848.0
849.0
851.0
852.0
853.0
860.0
862.0
867.0
868.0
872.0
874.0
874.0
875.0
872.0
873.0
869.0
871.0
872.0
872.0
872.0
871.0
871.0
870.0
869.0
865.0
864.0
860.0
857.0
853.0
855.0
854.0
854.0
851.0
850.0
851.0
849.0
847.0
846.0
844.0
842.0
844.0
846.0
846.0
848.0
848.0
848.0
846.0
844.0
843.0
843.0
842.0
844.0
840.0
843.0
845.0
849.0
852.0
854.0
852.0
849.0
846.0
847.0
847.0
849.0
850.0
850.0
852.0
854.0
856.0
858.0
855.0
856.0
855.0
854.0
854.0
854.0
855.0
856.0
856.0
860.0
859.0
860.0
860.0
860.0
858.0
860.0
855.0
855.0
855.0
856.0
858.0
859.0
860.0
858.0
858.0
860.0
858.0
855.0
854.0
857.0
855.0
856.0
859.0
859.0
861.0
862.0
861.0
862.0
859.0
856.0
855.0
854.0
856.0
857.0
860.0
861.0
862.0
863.0
863.0
864.0
862.0
858.0
858.0
854.0
856.0
855.0
860.0
859.0
861.0
862.0
863.0
863.0
862.0
860.0
858.0
859.0
858.0
858.0
859.0
861.0
863.0
863.0
863.0
862.0
861.0
859.0
858.0
858.0
857.0
858.0
859.0
860.0
861.0
864.0
863.0
864.0
859.0
860.0
858.0
857.0
857.0
859.0
860.0
861.0
861.0
862.0
860.0
861.0
862.0
862.0
859.0
859.0
858.0
859.0
859.0
859.0
862.0
862.0
861.0
861.0
860.0
859.0
857.0
859.0
860.0
862.0
861.0
860.0
861.0
865.0
863.0
862.0
863.0
862.0
861.0
860.0
859.0
859.0
862.0
862.0
862.0
864.0
864.0
862.0
861.0
859.0
860.0
860.0
861.0
860.0
859.0
860.0
860.0
861.0
861.0
863.0
863.0
859.0
859.0
857.0
857.0
860.0
863.0
862.0
862.0
866.0
865.0
864.0
861.0
860.0
859.0
861.0
861.0
862.0
864.0
868.0
870.0
871.0
872.0
866.0
866.0
866.0
867.0
868.0
868.0
872.0
874.0
877.0
879.0
878.0
878.0
874.0
872.0
869.0
868.0
867.0
864.0
868.0
869.0
870.0
872.0
877.0
880.0
882.0
886.0
883.0
880.0
877.0
869.0
868.0
866.0
863.0
862.0
861.0
861.0
861.0
859.0
857.0
858.0
856.0
858.0
858.0
858.0
859.0
859.0
857.0
856.0
853.0
855.0
861.0
875.0
892.0
910.0
925.0
938.0
942.0
937.0
920.0
891.0
864.0
850.0
862.0
899.0
958.0
1027.0
1098.0
1167.0
1230.0
1278.0
1312.0
1327.0
1326.0
1312.0
1290.0
1254.0
1210.0
1161.0
1112.0
1064.0
1020.0
975.0
928.0
886.0
850.0
822.0
804.0
798.0
798.0
800.0
803.0
810.0
817.0
822.0
829.0
830.0
830.0
832.0
831.0
833.0
832.0
830.0
828.0
829.0
830.0
832.0
833.0
832.0
829.0
831.0
829.0
830.0
829.0
829.0
829.0
831.0
831.0
831.0
832.0
834.0
831.0
831.0
830.0
830.0
827.0
829.0
830.0
829.0
828.0
829.0
830.0
827.0
828.0
826.0
824.0
822.0
822.0
822.0
821.0
822.0
822.0
822.0
821.0
823.0
821.0
818.0
818.0
815.0
814.0
814.0
813.0
812.0
812.0
814.0
813.0
811.0
810.0
808.0
806.0
805.0
801.0
803.0
803.0
803.0
803.0
805.0
803.0
803.0
802.0
802.0
798.0
796.0
796.0
797.0
798.0
799.0
801.0
803.0
805.0
806.0
807.0
805.0
806.0
807.0
810.0
812.0
815.0
820.0
824.0
829.0
833.0
832.0
833.0
837.0
839.0
839.0
839.0
844.0
850.0
854.0
855.0
859.0
864.0
862.0
863.0
864.0
864.0
865.0
868.0
868.0
865.0
867.0
872.0
873.0
873.0
870.0
867.0
864.0
860.0
855.0
852.0
850.0
847.0
847.0
848.0
843.0
841.0
840.0
838.0
837.0
834.0
830.0
827.0
827.0
826.0
827.0
827.0
827.0
827.0
827.0
823.0
825.0
823.0
824.0
825.0
827.0
827.0
829.0
830.0
831.0
832.0
833.0
833.0
834.0
834.0
833.0
831.0
832.0
836.0
838.0
838.0
839.0
841.0
841.0
842.0
842.0
841.0
839.0
838.0
837.0
841.0
844.0
847.0
846.0
848.0
849.0
849.0
846.0
844.0
842.0
843.0
846.0
843.0
846.0
847.0
852.0
851.0
850.0
847.0
847.0
846.0
846.0
845.0
843.0
848.0
849.0
850.0
852.0
852.0
851.0
852.0
850.0
850.0
850.0
850.0
850.0
851.0
851.0
851.0
855.0
855.0
854.0
853.0
850.0
851.0
850.0
851.0
851.0
850.0
851.0
852.0
851.0
852.0
853.0
855.0
855.0
852.0
849.0
852.0
850.0
852.0
853.0
854.0
854.0
857.0
855.0
856.0
853.0
854.0
853.0
851.0
851.0
852.0
852.0
854.0
857.0
856.0
855.0
856.0
854.0
856.0
855.0
853.0
853.0
855.0
857.0
858.0
858.0
861.0
860.0
858.0
856.0
856.0
854.0
856.0
856.0
857.0
856.0
857.0
856.0
856.0
857.0
858.0
859.0
858.0
856.0
857.0
856.0
855.0
857.0
858.0
860.0
860.0
859.0
857.0
858.0
857.0
856.0
855.0
857.0
860.0
858.0
859.0
862.0
859.0
860.0
856.0
859.0
857.0
857.0
856.0
859.0
858.0
859.0
860.0
858.0
862.0
862.0
861.0
862.0
860.0
860.0
859.0
860.0
860.0
864.0
865.0
867.0
870.0
869.0
866.0
864.0
862.0
860.0
862.0
865.0
866.0
872.0
876.0
878.0
880.0
877.0
874.0
870.0
869.0
867.0
866.0
864.0
868.0
868.0
869.0
871.0
873.0
877.0
878.0
877.0
876.0
874.0
871.0
872.0
869.0
866.0
864.0
862.0
863.0
861.0
858.0
854.0
852.0
855.0
856.0
855.0
854.0
857.0
858.0
860.0
861.0
860.0
858.0
854.0
850.0
844.0
848.0
854.0
867.0
885.0
905.0
926.0
941.0
949.0
949.0
941.0
924.0
893.0
857.0
831.0
823.0
839.0
874.0
923.0
976.0
1027.0
1075.0
1121.0
1161.0
1194.0
1226.0
1250.0
1262.0
1263.0
1256.0
1242.0
1214.0
1176.0
1126.0
1079.0
1033.0
984.0
936.0
892.0
858.0
832.0
815.0
809.0
812.0
816.0
817.0
822.0
823.0
826.0
828.0
829.0
829.0
834.0
836.0
841.0
842.0
841.0
841.0
841.0
839.0
838.0
834.0
832.0
832.0
834.0
835.0
835.0
838.0
836.0
834.0
835.0
835.0
832.0
832.0
831.0
833.0
832.0
835.0
833.0
838.0
836.0
835.0
834.0
832.0
832.0
831.0
831.0
830.0
828.0
832.0
833.0
834.0
833.0
832.0
829.0
827.0
825.0
825.0
826.0
825.0
825.0
827.0
825.0
825.0
824.0
824.0
823.0
819.0
816.0
813.0
815.0
815.0
815.0
817.0
815.0
815.0
814.0
809.0
811.0
808.0
804.0
803.0
800.0
801.0
800.0
802.0
805.0
804.0
804.0
804.0
802.0
800.0
798.0
796.0
798.0
796.0
799.0
802.0
801.0
804.0
803.0
804.0
803.0
804.0
806.0
808.0
811.0
807.0
810.0
814.0
818.0
826.0
826.0
830.0
832.0
835.0
838.0
839.0
840.0
845.0
849.0
853.0
859.0
863.0
865.0
866.0
868.0
868.0
870.0
870.0
873.0
871.0
875.0
877.0
877.0
877.0
877.0
877.0
873.0
872.0
870.0
868.0
867.0
865.0
868.0
864.0
861.0
862.0
859.0
856.0
854.0
851.0
853.0
849.0
846.0
845.0
844.0
848.0
848.0
851.0
848.0
847.0
845.0
843.0
840.0
840.0
844.0
842.0
847.0
847.0
847.0
851.0
852.0
851.0
850.0
848.0
850.0
849.0
849.0
850.0
850.0
851.0
854.0
855.0
857.0
856.0
855.0
853.0
853.0
851.0
853.0
852.0
854.0
855.0
857.0
859.0
859.0
857.0
859.0
857.0
857.0
856.0
855.0
854.0
855.0
856.0
858.0
857.0
860.0
858.0
859.0
856.0
854.0
853.0
854.0
856.0
855.0
858.0
860.0
863.0
861.0
859.0
859.0
856.0
858.0
857.0
857.0
856.0
858.0
859.0
862.0
863.0
862.0
861.0
861.0
859.0
858.0
857.0
856.0
856.0
858.0
856.0
858.0
860.0
863.0
862.0
862.0
857.0
856.0
859.0
856.0
853.0
854.0
862.0
860.0
863.0
864.0
861.0
861.0
857.0
857.0
857.0
856.0
857.0
859.0
858.0
863.0
864.0
863.0
862.0
862.0
860.0
860.0
859.0
858.0
857.0
859.0
862.0
862.0
863.0
863.0
863.0
861.0
861.0
859.0
860.0
858.0
860.0
861.0
860.0
865.0
864.0
860.0
863.0
863.0
858.0
860.0
858.0
856.0
856.0
860.0
860.0
861.0
863.0
862.0
860.0
859.0
862.0
858.0
858.0
858.0
860.0
860.0
861.0
863.0
865.0
865.0
865.0
865.0
863.0
861.0
861.0
859.0
859.0
859.0
861.0
863.0
863.0
865.0
865.0
861.0
861.0
859.0
859.0
860.0
858.0
859.0
863.0
864.0
866.0
866.0
866.0
865.0
864.0
863.0
862.0
863.0
860.0
864.0
867.0
868.0
871.0
870.0
869.0
864.0
863.0
863.0
865.0
870.0
871.0
872.0
876.0
877.0
880.0
878.0
876.0
872.0
868.0
868.0
865.0
864.0
865.0
864.0
866.0
870.0
872.0
873.0
877.0
880.0
879.0
879.0
876.0
872.0
871.0
868.0
863.0
862.0
862.0
860.0
858.0
857.0
857.0
855.0
853.0
855.0
854.0
856.0
857.0
856.0
858.0
857.0
853.0
848.0
845.0
853.0
862.0
879.0
902.0
918.0
932.0
941.0
942.0
929.0
902.0
872.0
845.0
833.0
844.0
881.0
929.0
989.0
1048.0
1106.0
1161.0
1209.0
1253.0
1287.0
1312.0
1321.0
1318.0
1305.0
1279.0
1242.0
1197.0
1147.0
1097.0
1048.0
1003.0
955.0
907.0
865.0
830.0
804.0
793.0
791.0
794.0
803.0
809.0
815.0
819.0
822.0
825.0
825.0
825.0
826.0
827.0
827.0
828.0
827.0
827.0
826.0
827.0
828.0
826.0
824.0
824.0
824.0
822.0
825.0
825.0
826.0
829.0
828.0
829.0
828.0
826.0
825.0
822.0
823.0
823.0
824.0
824.0
825.0
826.0
826.0
825.0
824.0
823.0
822.0
819.0
819.0
819.0
819.0
820.0
819.0
819.0
820.0
819.0
818.0
812.0
808.0
810.0
811.0
810.0
811.0
810.0
809.0
809.0
811.0
810.0
808.0
806.0
800.0
800.0
799.0
799.0
801.0
802.0
801.0
801.0
801.0
799.0
795.0
795.0
793.0
795.0
794.0
795.0
797.0
799.0
800.0
802.0
806.0
807.0
806.0
807.0
808.0
808.0
810.0
813.0
819.0
823.0
828.0
832.0
834.0
836.0
840.0
839.0
844.0
848.0
846.0
850.0
852.0
855.0
861.0
862.0
867.0
868.0
866.0
866.0
867.0
867.0
865.0
864.0
866.0
865.0
865.0
864.0
