# Simple Text Format
# Sampling Rate (Hz):= 360.00
# Resolution:= 12
# Labels:= ECG
880.0
881.0
880.0
877.0
876.0
877.0
876.0
875.0
877.0
877.0
882.0
884.0
885.0
884.0
883.0
882.0
879.0
879.0
878.0
881.0
883.0
885.0
885.0
887.0
885.0
886.0
882.0
882.0
884.0
884.0
884.0
886.0
886.0
890.0
891.0
893.0
892.0
892.0
890.0
890.0
888.0
887.0
888.0
891.0
894.0
900.0
902.0
904.0
906.0
907.0
903.0
901.0
898.0
894.0
891.0
895.0
894.0
897.0
898.0
899.0
902.0
901.0
903.0
903.0
906.0
908.0
905.0
904.0
905.0
902.0
899.0
899.0
897.0
895.0
892.0
889.0
889.0
889.0
888.0
890.0
893.0
894.0
895.0
896.0
895.0
893.0
890.0
890.0
887.0
887.0
887.0
894.0
906.0
924.0
944.0
959.0
973.0
981.0
983.0
977.0
961.0
935.0
903.0
880.0
873.0
886.0
921.0
966.0
1016.0
1065.0
1112.0
1158.0
1200.0
1238.0
1269.0
1287.0
1293.0
1286.0
1271.0
1245.0
1212.0
1174.0
1136.0
1099.0
1063.0
1028.0
991.0
954.0
919.0
893.0
874.0
860.0
858.0
861.0
863.0
868.0
870.0
873.0
876.0
876.0
883.0
887.0
889.0
891.0
887.0
888.0
885.0
886.0
882.0
882.0
883.0
883.0
885.0
886.0
890.0
891.0
890.0
891.0
889.0
886.0
886.0
882.0
883.0
884.0
884.0
887.0
887.0
891.0
888.0
887.0
886.0
885.0
885.0
882.0
883.0
880.0
883.0
885.0
886.0
888.0
888.0
885.0
885.0
883.0
881.0
881.0
881.0
879.0
880.0
882.0
882.0
884.0
879.0
880.0
879.0
876.0
874.0
872.0
870.0
869.0
868.0
869.0
870.0
870.0
869.0
864.0
863.0
861.0
859.0
857.0
854.0
855.0
855.0
857.0
857.0
859.0
859.0
857.0
854.0
854.0
853.0
852.0
850.0
851.0
853.0
852.0
854.0
855.0
856.0
859.0
860.0
861.0
862.0
863.0
865.0
868.0
872.0
874.0
879.0
881.0
884.0
888.0
888.0
888.0
893.0
895.0
899.0
902.0
907.0
911.0
916.0
915.0
917.0
921.0
922.0
924.0
925.0
928.0
931.0
930.0
931.0
934.0
936.0
936.0
935.0
933.0
933.0
931.0
927.0
928.0
925.0
923.0
919.0
919.0
919.0
918.0
919.0
918.0
915.0
913.0
909.0
909.0
906.0
905.0
906.0
908.0
908.0
908.0
907.0
907.0
906.0
905.0
904.0
903.0
905.0
903.0
905.0
907.0
907.0
909.0
907.0
908.0
908.0
909.0
909.0
908.0
908.0
910.0
910.0
913.0
915.0
914.0
911.0
913.0
912.0
912.0
911.0
912.0
914.0
911.0
911.0
913.0
915.0
916.0
919.0
919.0
917.0
917.0
916.0
915.0
915.0
915.0
919.0
920.0
917.0
922.0
921.0
922.0
920.0
921.0
921.0
918.0
917.0
915.0
919.0
920.0
920.0
922.0
924.0
919.0
917.0
920.0
920.0
918.0
918.0
922.0
922.0
922.0
924.0
925.0
923.0
924.0
923.0
923.0
922.0
919.0
917.0
919.0
922.0
925.0
925.0
926.0
926.0
926.0
924.0
921.0
921.0
921.0
921.0
922.0
922.0
924.0
926.0
927.0
926.0
926.0
922.0
923.0
923.0
924.0
923.0
922.0
923.0
924.0
925.0
926.0
927.0
925.0
922.0
923.0
921.0
921.0
922.0
923.0
922.0
926.0
926.0
929.0
927.0
926.0
925.0
925.0
924.0
922.0
923.0
925.0
926.0
927.0
926.0
929.0
929.0
929.0
925.0
924.0
925.0
924.0
924.0
924.0
926.0
928.0
930.0
932.0
931.0
929.0
928.0
925.0
927.0
925.0
923.0
926.0
926.0
930.0
930.0
931.0
929.0
931.0
930.0
928.0
928.0
927.0
929.0
928.0
932.0
933.0
934.0
935.0
936.0
934.0
933.0
931.0
932.0
930.0
929.0
930.0
931.0
933.0
935.0
935.0
936.0
934.0
932.0
932.0
930.0
930.0
931.0
930.0
930.0
931.0
935.0
937.0
937.0
936.0
935.0
933.0
930.0
933.0
931.0
932.0
934.0
937.0
938.0
940.0
942.0
938.0
939.0
936.0
937.0
936.0
935.0
935.0
938.0
939.0
943.0
949.0
950.0
953.0
951.0
950.0
949.0
948.0
947.0
944.0
946.0
943.0
946.0
947.0
945.0
947.0
946.0
944.0
945.0
945.0
948.0
953.0
954.0
957.0
959.0
958.0
956.0
952.0
948.0
943.0
938.0
934.0
932.0
933.0
934.0
936.0
939.0
942.0
939.0
939.0
940.0
937.0
936.0
932.0
931.0
929.0
930.0
932.0
941.0
958.0
976.0
993.0
1005.0
1015.0
1012.0
996.0
969.0
942.0
932.0
934.0
961.0
1012.0
1060.0
1113.0
1161.0
1209.0
1248.0
1283.0
1308.0
1326.0
1334.0
1332.0
1321.0
1301.0
1272.0
1232.0
1192.0
1147.0
1106.0
1066.0
1025.0
986.0
951.0
924.0
907.0
896.0
895.0
896.0
898.0
900.0
903.0
907.0
909.0
913.0
916.0
919.0
922.0
923.0
923.0
923.0
921.0
918.0
917.0
917.0
917.0
917.0
918.0
918.0
919.0
922.0
922.0
922.0
920.0
920.0
918.0
918.0
917.0
917.0
918.0
917.0
920.0
923.0
922.0
919.0
920.0
919.0
916.0
914.0
914.0
910.0
912.0
914.0
913.0
919.0
915.0
915.0
914.0
911.0
911.0
909.0
906.0
906.0
907.0
906.0
905.0
907.0
907.0
908.0
905.0
901.0
899.0
897.0
894.0
892.0
894.0
896.0
896.0
897.0
896.0
895.0
892.0
889.0
889.0
889.0
887.0
885.0
886.0
886.0
887.0
889.0
888.0
886.0
886.0
885.0
884.0
887.0
887.0
890.0
890.0
893.0
895.0
899.0
901.0
902.0
901.0
904.0
905.0
907.0
907.0
911.0
914.0
918.0
924.0
928.0
932.0
934.0
939.0
938.0
942.0
941.0
946.0
949.0
950.0
956.0
959.0
961.0
962.0
963.0
961.0
962.0
962.0
961.0
960.0
960.0
962.0
960.0
962.0
960.0
959.0
955.0
953.0
952.0
950.0
946.0
944.0
942.0
942.0
941.0
941.0
941.0
940.0
938.0
936.0
932.0
930.0
929.0
928.0
927.0
929.0
932.0
931.0
932.0
931.0
930.0
928.0
928.0
926.0
925.0
925.0
927.0
929.0
929.0
930.0
935.0
933.0
930.0
929.0
929.0
930.0
930.0
928.0
930.0
932.0
933.0
938.0
936.0
936.0
936.0
936.0
935.0
936.0
933.0
935.0
936.0
936.0
937.0
935.0
938.0
934.0
937.0
937.0
937.0
938.0
938.0
939.0
941.0
943.0
942.0
943.0
945.0
946.0
945.0
948.0
942.0
940.0
941.0
938.0
939.0
938.0
941.0
940.0
944.0
944.0
946.0
945.0
943.0
940.0
940.0
938.0
940.0
940.0
942.0
944.0
947.0
946.0
943.0
945.0
942.0
940.0
941.0
939.0
939.0
939.0
941.0
942.0
944.0
947.0
945.0
944.0
944.0
943.0
942.0
939.0
939.0
939.0
939.0
939.0
941.0
943.0
943.0
944.0
943.0
939.0
939.0
940.0
939.0
940.0
940.0
941.0
940.0
941.0
941.0
941.0
939.0
938.0
938.0
939.0
941.0
942.0
943.0
943.0
946.0
944.0
944.0
942.0
940.0
939.0
940.0
938.0
938.0
939.0
942.0
943.0
945.0
945.0
943.0
942.0
941.0
940.0
940.0
937.0
934.0
933.0
930.0
927.0
926.0
926.0
931.0
937.0
942.0
947.0
944.0
942.0
942.0
943.0
944.0
946.0
948.0
946.0
945.0
944.0
941.0
936.0
936.0
938.0
938.0
939.0
940.0
942.0
941.0
942.0
940.0
941.0
940.0
937.0
938.0
937.0
938.0
940.0
942.0
943.0
943.0
943.0
942.0
941.0
938.0
936.0
936.0
936.0
936.0
937.0
940.0
940.0
941.0
939.0
935.0
933.0
932.0
930.0
932.0
932.0
935.0
941.0
943.0
946.0
948.0
946.0
942.0
939.0
937.0
935.0
936.0
935.0
937.0
940.0
943.0
942.0
945.0
946.0
945.0
944.0
941.0
939.0
940.0
940.0
943.0
944.0
950.0
953.0
953.0
953.0
950.0
949.0
944.0
941.0
939.0
938.0
938.0
941.0
942.0
945.0
946.0
948.0
950.0
952.0
953.0
949.0
950.0
948.0
947.0
947.0
945.0
943.0
941.0
940.0
938.0
934.0
929.0
928.0
929.0
927.0
931.0
931.0
933.0
933.0
934.0
933.0
930.0
927.0
925.0
928.0
937.0
954.0
971.0
991.0
1004.0
1010.0
1011.0
995.0
967.0
937.0
916.0
913.0
929.0
968.0
1011.0
1059.0
1106.0
1150.0
1192.0
1230.0
1263.0
1290.0
1305.0
1311.0
1309.0
1300.0
1283.0
1260.0
1227.0
1190.0
1153.0
1113.0
1072.0
1025.0
983.0
938.0
906.0
883.0
873.0
869.0
871.0
878.0
883.0
887.0
890.0
892.0
893.0
893.0
895.0
899.0
901.0
900.0
901.0
903.0
905.0
905.0
903.0
900.0
900.0
898.0
896.0
893.0
896.0
895.0
896.0
898.0
897.0
898.0
901.0
899.0
899.0
894.0
896.0
894.0
892.0
894.0
894.0
894.0
895.0
897.0
895.0
895.0
894.0
890.0
888.0
888.0
889.0
888.0
888.0
890.0
891.0
887.0
890.0
888.0
884.0
885.0
885.0
884.0
882.0
882.0
878.0
879.0
881.0
884.0
882.0
878.0
875.0
871.0
869.0
868.0
869.0
865.0
869.0
867.0
868.0
868.0
867.0
863.0
860.0
860.0
857.0
856.0
854.0
855.0
853.0
853.0
854.0
853.0
854.0
853.0
853.0
852.0
851.0
852.0
852.0
856.0
857.0
860.0
861.0
864.0
865.0
866.0
870.0
870.0
867.0
871.0
876.0
878.0
880.0
883.0
888.0
890.0
893.0
898.0
896.0
898.0
902.0
904.0
905.0
908.0
910.0
912.0
917.0
917.0
918.0
918.0
916.0
914.0
910.0
910.0
912.0
913.0
913.0
912.0
910.0
911.0
908.0
904.0
900.0
899.0
894.0
893.0
890.0
890.0
889.0
887.0
887.0
883.0
884.0
881.0
879.0
876.0
873.0
874.0
872.0
871.0
872.0
873.0
875.0
877.0
873.0
873.0
872.0
869.0
869.0
869.0
869.0
873.0
875.0
875.0
878.0
878.0
877.0
876.0
872.0
871.0
872.0
872.0
875.0
878.0
879.0
882.0
884.0
885.0
883.0
882.0
879.0
878.0
879.0
879.0
882.0
883.0
883.0
886.0
887.0
885.0
885.0
885.0
881.0
882.0
881.0
879.0
880.0
880.0
881.0
883.0
886.0
884.0
883.0
880.0
878.0
879.0
879.0
879.0
879.0
881.0
883.0
884.0
885.0
884.0
883.0
884.0
880.0
880.0
880.0
879.0
880.0
879.0
880.0
883.0
885.0
883.0
882.0
882.0
879.0
877.0
876.0
875.0
879.0
878.0
880.0
879.0
880.0
881.0
881.0
879.0
878.0
876.0
875.0
872.0
873.0
875.0
878.0
880.0
881.0
880.0
880.0
877.0
879.0
877.0
875.0
875.0
875.0
877.0
878.0
879.0
880.0
880.0
879.0
879.0
876.0
875.0
876.0
875.0
871.0
873.0
874.0
872.0
877.0
879.0
877.0
876.0
877.0
876.0
875.0
875.0
875.0
877.0
876.0
875.0
878.0
877.0
876.0
877.0
875.0
875.0
874.0
871.0
872.0
874.0
873.0
877.0
876.0
878.0
877.0
875.0
873.0
872.0
872.0
872.0
870.0
871.0
871.0
873.0
873.0
873.0
872.0
873.0
872.0
871.0
869.0
870.0
870.0
871.0
871.0
871.0
874.0
870.0
871.0
872.0
869.0
870.0
870.0
868.0
870.0
872.0
873.0
874.0
875.0
874.0
875.0
874.0
871.0
874.0
870.0
870.0
869.0
873.0
874.0
875.0
877.0
876.0
876.0
877.0
874.0
872.0
869.0
871.0
870.0
872.0
873.0
876.0
880.0
883.0
882.0
881.0
883.0
882.0
880.0
879.0
879.0
880.0
877.0
879.0
876.0
878.0
876.0
876.0
874.0
875.0
878.0
880.0
882.0
882.0
881.0
882.0
880.0
876.0
874.0
868.0
864.0
863.0
861.0
861.0
861.0
862.0
864.0
863.0
865.0
866.0
866.0
863.0
860.0
861.0
857.0
854.0
854.0
853.0
858.0
866.0
881.0
899.0
919.0
933.0
940.0
945.0
941.0
931.0
912.0
883.0
855.0
834.0
829.0
843.0
874.0
915.0
959.0
1003.0
1046.0
1087.0
1122.0
1159.0
1186.0
1205.0
1218.0
1219.0
1214.0
1202.0
1185.0
1162.0
1128.0
1093.0
1059.0
1031.0
997.0
963.0
925.0
891.0
857.0
831.0
814.0
806.0
806.0
808.0
818.0
823.0
828.0
832.0
838.0
841.0
839.0
840.0
837.0
834.0
833.0
831.0
831.0
830.0
832.0
832.0
835.0
836.0
835.0
835.0
831.0
830.0
833.0
829.0
829.0
830.0
830.0
830.0
832.0
831.0
830.0
828.0
827.0
826.0
823.0
825.0
824.0
825.0
826.0
827.0
828.0
826.0
825.0
825.0
820.0
819.0
820.0
818.0
817.0
817.0
816.0
817.0
816.0
819.0
818.0
818.0
816.0
813.0
808.0
808.0
807.0
810.0
807.0
807.0
810.0
806.0
809.0
806.0
804.0
800.0
798.0
795.0
793.0
797.0
796.0
792.0
794.0
795.0
794.0
791.0
790.0
790.0
785.0
785.0
787.0
787.0
789.0
791.0
796.0
797.0
800.0
801.0
799.0
801.0
800.0
801.0
804.0
806.0
811.0
814.0
819.0
823.0
825.0
827.0
827.0
827.0
832.0
835.0
837.0
840.0
842.0
845.0
847.0
852.0
853.0
853.0
853.0
853.0
853.0
852.0
853.0
854.0
855.0
854.0
854.0
852.0
850.0
847.0
846.0
845.0
841.0
840.0
837.0
833.0
832.0
832.0
830.0
831.0
828.0
829.0
824.0
821.0
819.0
817.0
818.0
816.0
817.0
819.0
822.0
822.0
823.0
821.0
821.0
821.0
820.0
820.0
819.0
822.0
820.0
822.0
824.0
826.0
827.0
825.0
825.0
824.0
823.0
820.0
822.0
825.0
825.0
826.0
830.0
831.0
832.0
831.0
830.0
829.0
826.0
826.0
827.0
828.0
830.0
830.0
832.0
832.0
832.0
831.0
829.0
829.0
827.0
826.0
828.0
828.0
829.0
830.0
831.0
832.0
831.0
831.0
830.0
828.0
832.0
831.0
829.0
831.0
832.0
833.0
835.0
834.0
834.0
833.0
832.0
833.0
831.0
831.0
831.0
832.0
833.0
834.0
834.0
835.0
833.0
832.0
833.0
834.0
831.0
832.0
832.0
833.0
833.0
835.0
834.0
835.0
832.0
832.0
831.0
831.0
832.0
831.0
831.0
833.0
833.0
832.0
834.0
835.0
833.0
831.0
834.0
834.0
831.0
831.0
832.0
833.0
835.0
834.0
835.0
834.0
835.0
833.0
833.0
832.0
833.0
833.0
834.0
834.0
834.0
836.0
836.0
837.0
834.0
835.0
834.0
831.0
831.0
831.0
833.0
835.0
834.0
835.0
837.0
838.0
834.0
836.0
835.0
835.0
834.0
835.0
834.0
834.0
835.0
837.0
837.0
838.0
836.0
837.0
835.0
836.0
836.0
835.0
835.0
835.0
835.0
835.0
838.0
837.0
838.0
837.0
837.0
836.0
833.0
832.0
830.0
832.0
832.0
836.0
837.0
839.0
838.0
839.0
837.0
837.0
836.0
834.0
836.0
837.0
839.0
840.0
842.0
844.0
844.0
840.0
842.0
840.0
838.0
838.0
839.0
840.0
846.0
847.0
851.0
850.0
849.0
851.0
851.0
851.0
847.0
845.0
847.0
846.0
846.0
847.0
847.0
849.0
847.0
846.0
843.0
842.0
845.0
849.0
851.0
852.0
858.0
859.0
855.0
852.0
849.0
842.0
838.0
835.0
834.0
832.0
833.0
837.0
837.0
838.0
840.0
841.0
838.0
838.0
833.0
834.0
829.0
828.0
834.0
848.0
866.0
885.0
901.0
914.0
917.0
916.0
905.0
885.0
861.0
838.0
830.0
837.0
867.0
908.0
957.0
1004.0
1051.0
1097.0
1139.0
1179.0
1212.0
1236.0
1253.0
1258.0
1255.0
1244.0
1220.0
1186.0
1145.0
1099.0
1054.0
1012.0
972.0
935.0
900.0
865.0
838.0
815.0
798.0
792.0
790.0
789.0
790.0
797.0
796.0
799.0
805.0
808.0
811.0
814.0
817.0
818.0
816.0
817.0
813.0
812.0
806.0
810.0
811.0
810.0
814.0
814.0
816.0
816.0
815.0
814.0
813.0
810.0
809.0
806.0
805.0
808.0
810.0
812.0
815.0
814.0
816.0
814.0
810.0
808.0
807.0
806.0
805.0
805.0
806.0
804.0
808.0
810.0
810.0
809.0
809.0
805.0
804.0
802.0
802.0
800.0
802.0
803.0
803.0
804.0
801.0
798.0
798.0
796.0
795.0
794.0
792.0
791.0
790.0
791.0
791.0
792.0
790.0
791.0
791.0
788.0
784.0
783.0
781.0
781.0
780.0
783.0
782.0
783.0
783.0
784.0
781.0
781.0
780.0
780.0
780.0
783.0
784.0
787.0
791.0
795.0
797.0
799.0
801.0
802.0
803.0
806.0
808.0
812.0
815.0
821.0
825.0
832.0
834.0
838.0
839.0
842.0
842.0
843.0
846.0
848.0
851.0
855.0
856.0
861.0
863.0
864.0
866.0
866.0
864.0
866.0
863.0
863.0
865.0
865.0
866.0
866.0
864.0
861.0
859.0
857.0
854.0
852.0
849.0
847.0
851.0
849.0
849.0
848.0
846.0
844.0
842.0
838.0
837.0
836.0
837.0
836.0
837.0
837.0
838.0
839.0
838.0
836.0
837.0
835.0
836.0
835.0
833.0
833.0
835.0
838.0
838.0
839.0
840.0
842.0
842.0
842.0
842.0
842.0
843.0
845.0
846.0
849.0
851.0
849.0
849.0
851.0
848.0
847.0
846.0
849.0
849.0
852.0
854.0
857.0
856.0
856.0
857.0
855.0
854.0
853.0
853.0
853.0
852.0
853.0
854.0
856.0
857.0
862.0
861.0
860.0
859.0
858.0
858.0
855.0
859.0
857.0
860.0
863.0
865.0
864.0
862.0
861.0
857.0
858.0
858.0
856.0
859.0
860.0
862.0
861.0
867.0
867.0
867.0
865.0
863.0
863.0
861.0
861.0
863.0
860.0
864.0
866.0
868.0
867.0
868.0
869.0
868.0
866.0
863.0
860.0
861.0
863.0
864.0
867.0
868.0
872.0
871.0
867.0
868.0
867.0
866.0
866.0
867.0
866.0
867.0
868.0
870.0
873.0
870.0
870.0
869.0
868.0
866.0
867.0
865.0
866.0
867.0
866.0
869.0
870.0
873.0
873.0
872.0
872.0
870.0
869.0
869.0
869.0
872.0
872.0
874.0
873.0
875.0
875.0
875.0
874.0
871.0
871.0
869.0
870.0
870.0
873.0
875.0
874.0
876.0
874.0
873.0
875.0
874.0
873.0
873.0
873.0
875.0
873.0
874.0
874.0
874.0
873.0
874.0
875.0
875.0
873.0
874.0
874.0
876.0
875.0
878.0
879.0
879.0
878.0
877.0
877.0
874.0
872.0
873.0
871.0
875.0
876.0
877.0
880.0
880.0
879.0
879.0
878.0
875.0
876.0
875.0
874.0
876.0
877.0
879.0
879.0
881.0
883.0
885.0
884.0
883.0
881.0
881.0
881.0
881.0
884.0
886.0
892.0
891.0
894.0
895.0
893.0
889.0
889.0
886.0
885.0
885.0
885.0
884.0
886.0
884.0
886.0
886.0
888.0
887.0
890.0
893.0
893.0
894.0
890.0
890.0
888.0
884.0
880.0
880.0
877.0
873.0
872.0
872.0
872.0
870.0
875.0
877.0
877.0
878.0
876.0
875.0
871.0
868.0
867.0
869.0
879.0
895.0
913.0
931.0
947.0
954.0
954.0
943.0
918.0
887.0
865.0
856.0
868.0
902.0
948.0
999.0
1052.0
1101.0
1144.0
1186.0
1219.0
1248.0
1266.0
1273.0
1270.0
1263.0
1245.0
1220.0
1188.0
1152.0
1114.0
1077.0
1040.0
1001.0
959.0
920.0
882.0
854.0
835.0
824.0
824.0
824.0
827.0
832.0
834.0
840.0
846.0
847.0
851.0
854.0
855.0
855.0
855.0
853.0
854.0
848.0
853.0
852.0
851.0
852.0
853.0
852.0
852.0
852.0
854.0
853.0
854.0
852.0
851.0
849.0
849.0
851.0
849.0
851.0
851.0
852.0
854.0
853.0
852.0
850.0
848.0
846.0
846.0
844.0
845.0
847.0
846.0
846.0
849.0
846.0
845.0
847.0
844.0
842.0
840.0
841.0
839.0
840.0
840.0
839.0
841.0
839.0
837.0
836.0
834.0
832.0
829.0
831.0
831.0
828.0
832.0
832.0
833.0
829.0
827.0
824.0
823.0
824.0
823.0
819.0
820.0
821.0
820.0
823.0
824.0
822.0
823.0
822.0
823.0
821.0
826.0
825.0
828.0
832.0
831.0
835.0
836.0
842.0
845.0
847.0
845.0
850.0
854.0
857.0
858.0
862.0
866.0
869.0
874.0
875.0
876.0
878.0
878.0
883.0
883.0
886.0
889.0
890.0
894.0
895.0
899.0
897.0
897.0
897.0
893.0
889.0
889.0
889.0
887.0
888.0
888.0
884.0
883.0
882.0
879.0
877.0
870.0
868.0
869.0
868.0
867.0
865.0
863.0
864.0
866.0
864.0
864.0
861.0
861.0
858.0
856.0
857.0
857.0
858.0
858.0
861.0
864.0
863.0
861.0
862.0
863.0
862.0
861.0
863.0
864.0
867.0
871.0
870.0
869.0
868.0
868.0
870.0
870.0
870.0
871.0
871.0
873.0
874.0
876.0
878.0
879.0
879.0
876.0
878.0
876.0
876.0
875.0
876.0
877.0
881.0
881.0
880.0
882.0
883.0
883.0
879.0
880.0
879.0
878.0
879.0
880.0
883.0
885.0
886.0
887.0
887.0
886.0
883.0
886.0
884.0
884.0
886.0
887.0
886.0
888.0
890.0
891.0
892.0
889.0
888.0
887.0
887.0
887.0
887.0
887.0
887.0
889.0
890.0
891.0
891.0
891.0
889.0
890.0
888.0
887.0
890.0
892.0
891.0
893.0
893.0
894.0
894.0
892.0
891.0
890.0
889.0
887.0
887.0
891.0
893.0
894.0
898.0
896.0
897.0
896.0
893.0
893.0
892.0
893.0
892.0
891.0
893.0
894.0
895.0
895.0
893.0
894.0
893.0
892.0
892.0
892.0
891.0
893.0
895.0
898.0
898.0
901.0
897.0
895.0
894.0
893.0
892.0
891.0
888.0
891.0
893.0
896.0
896.0
898.0
897.0
898.0
896.0
894.0
893.0
895.0
893.0
894.0
895.0
897.0
900.0
899.0
899.0
898.0
898.0
895.0
895.0
893.0
895.0
894.0
895.0
896.0
898.0
897.0
896.0
898.0
898.0
897.0
896.0
894.0
896.0
899.0
900.0
903.0
903.0
904.0
903.0
901.0
900.0
900.0
897.0
902.0
904.0
907.0
909.0
910.0
912.0
914.0
913.0
912.0
910.0
907.0
906.0
902.0
901.0
902.0
903.0
903.0
905.0
908.0
910.0
909.0
913.0
913.0
913.0
911.0
910.0
909.0
909.0
907.0
907.0
906.0
902.0
900.0
899.0
895.0
895.0
892.0
893.0
893.0
892.0
897.0
899.0
898.0
900.0
898.0
893.0
892.0
889.0
892.0
904.0
920.0
940.0
958.0
973.0
981.0
980.0
970.0
946.0
916.0
888.0
868.0
869.0
896.0
937.0
983.0
1034.0
1077.0
1118.0
1155.0
1187.0
1215.0
1234.0
1245.0
1249.0
1249.0
1242.0
1227.0
1207.0
1175.0
1142.0
1107.0
1072.0
1036.0
1000.0
964.0
928.0
899.0
879.0
864.0
857.0
855.0
858.0
862.0
865.0
869.0
870.0
871.0
873.0
876.0
880.0
880.0
881.0
883.0
881.0
881.0
880.0
877.0
878.0
879.0
881.0
879.0
880.0
883.0
884.0
884.0
881.0
879.0
879.0
879.0
877.0
876.0
877.0
877.0
878.0
879.0
878.0
880.0
881.0
880.0
879.0
879.0
876.0
875.0
872.0
873.0
872.0
876.0
875.0
875.0
873.0
874.0
869.0
869.0
866.0
865.0
866.0
866.0
868.0
867.0
870.0
868.0
867.0
865.0
863.0
859.0
857.0
857.0
854.0
856.0
854.0
854.0
854.0
856.0
853.0
853.0
850.0
846.0
844.0
843.0
842.0
839.0
837.0
841.0
841.0
841.0
841.0
837.0
837.0
837.0
834.0
831.0
831.0
832.0
830.0
834.0
837.0
840.0
838.0
837.0
838.0
839.0
841.0
843.0
841.0
848.0
853.0
856.0
858.0
861.0
867.0
870.0
871.0
871.0
874.0
875.0
879.0
883.0
885.0
889.0
894.0
897.0
899.0
901.0
902.0
901.0
902.0
902.0
902.0
903.0
904.0
907.0
908.0
908.0
909.0
908.0
904.0
902.0
899.0
894.0
894.0
894.0
892.0
893.0
893.0
894.0
892.0
889.0
887.0
883.0
882.0
879.0
877.0
876.0
878.0
880.0
881.0
881.0
881.0
883.0
880.0
879.0
877.0
877.0
876.0
877.0
878.0
880.0
883.0
882.0
884.0
886.0
882.0
882.0
882.0
879.0
879.0
880.0
886.0
886.0
888.0
889.0
888.0
887.0
885.0
885.0
883.0
884.0
885.0
884.0
883.0
885.0
889.0
891.0
892.0
890.0
890.0
889.0
886.0
887.0
886.0
885.0
887.0
889.0
891.0
892.0
894.0
891.0
890.0
889.0
888.0
888.0
887.0
888.0
888.0
890.0
890.0
894.0
893.0
893.0
891.0
890.0
890.0
887.0
887.0
886.0
888.0
888.0
889.0
890.0
892.0
892.0
891.0
890.0
890.0
886.0
888.0
888.0
890.0
890.0
893.0
893.0
893.0
892.0
890.0
890.0
888.0
890.0
886.0
888.0
888.0
890.0
892.0
892.0
891.0
890.0
890.0
890.0
889.0
889.0
884.0
885.0
887.0
890.0
890.0
892.0
890.0
892.0
888.0
887.0
886.0
886.0
887.0
887.0
889.0
888.0
890.0
892.0
889.0
892.0
892.0
889.0
888.0
888.0
885.0
886.0
886.0
890.0
890.0
890.0
888.0
889.0
887.0
888.0
887.0
887.0
887.0
886.0
886.0
886.0
889.0
890.0
890.0
890.0
888.0
887.0
885.0
885.0
884.0
882.0
884.0
886.0
887.0
888.0
886.0
884.0
886.0
885.0
884.0
885.0
884.0
883.0
886.0
884.0
887.0
888.0
886.0
886.0
886.0
885.0
880.0
882.0
883.0
885.0
884.0
885.0
885.0
889.0
888.0
886.0
886.0
884.0
882.0
885.0
883.0
885.0
887.0
891.0
891.0
892.0
891.0
891.0
890.0
887.0
887.0
886.0
886.0
889.0
893.0
896.0
898.0
901.0
900.0
900.0
897.0
894.0
893.0
893.0
890.0
889.0
889.0
890.0
892.0
890.0
890.0
891.0
892.0
893.0
892.0
897.0
897.0
900.0
896.0
899.0
897.0
895.0
891.0
887.0
883.0
879.0
877.0
871.0
874.0
874.0
879.0
879.0
881.0
880.0
879.0
877.0
877.0
872.0
869.0
869.0
872.0
883.0
899.0
918.0
935.0
948.0
958.0
950.0
936.0
912.0
887.0
866.0
866.0
888.0
929.0
980.0
1036.0
1089.0
1137.0
1178.0
1216.0
1244.0
1263.0
1273.0
1270.0
1261.0
1246.0
1224.0
1190.0
1154.0
1115.0
1074.0
1033.0
990.0
946.0
906.0
867.0
838.0
822.0
815.0
817.0
821.0
827.0
831.0
836.0
839.0
839.0
841.0
839.0
844.0
842.0
844.0
843.0
846.0
842.0
842.0
839.0
840.0
839.0
838.0
841.0
837.0
840.0
844.0
843.0
845.0
843.0
842.0
841.0
839.0
835.0
833.0
832.0
832.0
836.0
835.0
838.0
840.0
836.0
833.0
831.0
827.0
827.0
827.0
825.0
826.0
826.0
827.0
828.0
829.0
825.0
824.0
822.0
817.0
817.0
814.0
813.0
813.0
812.0
812.0
812.0
814.0
810.0
810.0
807.0
806.0
804.0
803.0
799.0
800.0
799.0
799.0
802.0
799.0
799.0
796.0
795.0
795.0
790.0
790.0
791.0
793.0
794.0
793.0
796.0
798.0
798.0
799.0
803.0
800.0
803.0
807.0
810.0
813.0
818.0
821.0
826.0
830.0
835.0
835.0
838.0
837.0
841.0
842.0
844.0
845.0
849.0
852.0
854.0
859.0
859.0
860.0
859.0
858.0
859.0
857.0
856.0
855.0
855.0
856.0
855.0
855.0
854.0
853.0
849.0
848.0
843.0
842.0
839.0
837.0
835.0
835.0
830.0
834.0
830.0
826.0
826.0
823.0
820.0
820.0
818.0
818.0
820.0
821.0
822.0
822.0
817.0
816.0
815.0
812.0
812.0
813.0
813.0
814.0
816.0
818.0
820.0
823.0
825.0
822.0
818.0
820.0
817.0
818.0
816.0
819.0
820.0
821.0
826.0
827.0
827.0
825.0
824.0
824.0
823.0
823.0
824.0
822.0
823.0
824.0
828.0
831.0
831.0
830.0
828.0
826.0
826.0
825.0
824.0
825.0
827.0
830.0
831.0
834.0
833.0
832.0
833.0
829.0
829.0
827.0
825.0
824.0
826.0
826.0
828.0
827.0
828.0
829.0
827.0
826.0
824.0
825.0
824.0
825.0
826.0
827.0
829.0
831.0
829.0
827.0
826.0
828.0
827.0
825.0
824.0
823.0
824.0
827.0
828.0
829.0
830.0
827.0
827.0
824.0
824.0
825.0
823.0
824.0
825.0
825.0
824.0
827.0
826.0
827.0
826.0
825.0
822.0
825.0
822.0
823.0
824.0
825.0
824.0
822.0
825.0
826.0
827.0
825.0
824.0
825.0
823.0
824.0
823.0
824.0
826.0
826.0
826.0
826.0
826.0
824.0
824.0
822.0
824.0
821.0
824.0
823.0
825.0
827.0
825.0
825.0
826.0
824.0
822.0
822.0
821.0
822.0
822.0
822.0
824.0
824.0
826.0
825.0
823.0
824.0
823.0
820.0
820.0
821.0
823.0
824.0
821.0
821.0
821.0
824.0
821.0
823.0
821.0
821.0
820.0
820.0
821.0
824.0
825.0
824.0
824.0
821.0
822.0
821.0
819.0
819.0
819.0
820.0
822.0
822.0
821.0
824.0
824.0
825.0
824.0
822.0
824.0
823.0
823.0
823.0
825.0
824.0
825.0
826.0
826.0
827.0
829.0
829.0
832.0
832.0
831.0
831.0
834.0
833.0
833.0
832.0
829.0
827.0
826.0
823.0
824.0
824.0
820.0
823.0
829.0
834.0
835.0
