# Simple Text Format
# Sampling Rate (Hz):= 360.00
# Resolution:= 12
# Labels:= ECG
888.0
887.0
888.0
888.0
888.0
885.0
888.0
888.0
887.0
885.0
882.0
881.0
877.0
876.0
877.0
874.0
876.0
875.0
877.0
875.0
875.0
873.0
870.0
868.0
867.0
866.0
865.0
867.0
868.0
871.0
873.0
875.0
876.0
874.0
875.0
876.0
876.0
880.0
877.0
881.0
885.0
891.0
892.0
896.0
895.0
897.0
901.0
903.0
906.0
906.0
911.0
915.0
920.0
923.0
926.0
929.0
931.0
933.0
933.0
935.0
933.0
934.0
934.0
937.0
938.0
938.0
936.0
938.0
934.0
931.0
929.0
925.0
924.0
919.0
918.0
916.0
916.0
915.0
914.0
910.0
908.0
906.0
903.0
901.0
897.0
894.0
892.0
896.0
895.0
896.0
896.0
896.0
895.0
893.0
892.0
894.0
890.0
892.0
894.0
894.0
896.0
897.0
899.0
900.0
899.0
898.0
898.0
899.0
898.0
896.0
897.0
899.0
900.0
902.0
904.0
903.0
904.0
904.0
904.0
904.0
902.0
901.0
902.0
903.0
904.0
906.0
907.0
907.0
907.0
905.0
906.0
908.0
904.0
903.0
902.0
906.0
906.0
908.0
907.0
908.0
908.0
909.0
908.0
906.0
905.0
902.0
901.0
902.0
903.0
905.0
907.0
908.0
908.0
905.0
904.0
904.0
902.0
905.0
904.0
904.0
905.0
907.0
908.0
909.0
908.0
908.0
904.0
906.0
904.0
903.0
905.0
905.0
903.0
904.0
904.0
907.0
906.0
903.0
904.0
902.0
901.0
900.0
901.0
901.0
901.0
902.0
904.0
903.0
899.0
899.0
900.0
900.0
898.0
899.0
900.0
899.0
900.0
900.0
899.0
899.0
902.0
902.0
902.0
900.0
897.0
894.0
896.0
895.0
900.0
902.0
900.0
903.0
899.0
900.0
897.0
896.0
898.0
896.0
895.0
897.0
899.0
900.0
900.0
901.0
900.0
898.0
895.0
893.0
894.0
893.0
894.0
895.0
896.0
897.0
898.0
898.0
899.0
898.0
897.0
895.0
894.0
893.0
895.0
893.0
894.0
897.0
897.0
900.0
899.0
898.0
896.0
893.0
892.0
892.0
892.0
895.0
896.0
898.0
900.0
902.0
899.0
898.0
895.0
895.0
890.0
890.0
893.0
895.0
901.0
904.0
905.0
904.0
906.0
905.0
905.0
902.0
899.0
897.0
897.0
896.0
894.0
895.0
896.0
897.0
896.0
896.0
896.0
897.0
897.0
898.0
898.0
901.0
902.0
900.0
899.0
900.0
897.0
895.0
890.0
886.0
881.0
878.0
877.0
877.0
875.0
876.0
877.0
883.0
881.0
881.0
876.0
875.0
870.0
867.0
873.0
885.0
899.0
920.0
936.0
953.0
961.0
960.0
945.0
919.0
887.0
863.0
857.0
873.0
911.0
960.0
1016.0
1068.0
1116.0
1158.0
1194.0
1223.0
1245.0
1259.0
1265.0
1264.0
1253.0
1233.0
1204.0
1168.0
1127.0
1085.0
1043.0
1005.0
963.0
923.0
887.0
858.0
837.0
825.0
822.0
823.0
828.0
833.0
837.0
840.0
842.0
843.0
844.0
842.0
846.0
847.0
850.0
847.0
849.0
849.0
848.0
846.0
844.0
841.0
842.0
842.0
840.0
843.0
844.0
843.0
844.0
844.0
842.0
840.0
838.0
839.0
837.0
835.0
837.0
839.0
837.0
840.0
840.0
836.0
834.0
830.0
829.0
828.0
827.0
825.0
828.0
829.0
831.0
831.0
828.0
829.0
826.0
825.0
822.0
820.0
818.0
818.0
819.0
819.0
819.0
818.0
818.0
815.0
814.0
810.0
805.0
803.0
801.0
803.0
802.0
803.0
804.0
803.0
803.0
800.0
799.0
796.0
794.0
793.0
791.0
792.0
795.0
796.0
798.0
793.0
797.0
795.0
797.0
797.0
798.0
799.0
799.0
801.0
806.0
809.0
813.0
817.0
821.0
822.0
823.0
827.0
828.0
829.0
832.0
838.0
840.0
846.0
849.0
856.0
856.0
857.0
860.0
860.0
857.0
860.0
861.0
861.0
864.0
867.0
866.0
864.0
866.0
866.0
864.0
859.0
855.0
854.0
851.0
852.0
850.0
851.0
851.0
850.0
846.0
843.0
841.0
839.0
836.0
833.0
832.0
830.0
831.0
832.0
831.0
832.0
832.0
831.0
828.0
828.0
826.0
826.0
826.0
827.0
829.0
829.0
832.0
834.0
834.0
832.0
834.0
831.0
831.0
829.0
828.0
830.0
829.0
831.0
834.0
834.0
835.0
836.0
834.0
832.0
833.0
830.0
829.0
831.0
834.0
835.0
838.0
839.0
840.0
839.0
838.0
837.0
836.0
836.0
835.0
836.0
836.0
837.0
839.0
841.0
841.0
843.0
837.0
838.0
835.0
833.0
834.0
836.0
835.0
838.0
840.0
840.0
842.0
840.0
837.0
836.0
836.0
834.0
837.0
837.0
840.0
840.0
842.0
843.0
843.0
844.0
841.0
840.0
837.0
837.0
837.0
838.0
839.0
838.0
840.0
841.0
841.0
840.0
836.0
836.0
837.0
836.0
835.0
836.0
835.0
838.0
839.0
840.0
839.0
839.0
837.0
835.0
831.0
832.0
830.0
830.0
831.0
835.0
838.0
838.0
838.0
838.0
838.0
833.0
833.0
830.0
830.0
832.0
832.0
833.0
835.0
837.0
839.0
835.0
832.0
834.0
831.0
829.0
829.0
828.0
833.0
834.0
835.0
839.0
838.0
836.0
836.0
835.0
834.0
832.0
832.0
832.0
832.0
834.0
838.0
837.0
838.0
836.0
836.0
835.0
832.0
832.0
830.0
831.0
831.0
831.0
833.0
836.0
836.0
834.0
832.0
830.0
830.0
829.0
830.0
829.0
830.0
831.0
832.0
836.0
836.0
835.0
834.0
834.0
832.0
830.0
829.0
831.0
830.0
830.0
833.0
836.0
835.0
834.0
833.0
832.0
831.0
829.0
827.0
828.0
829.0
831.0
834.0
836.0
837.0
837.0
837.0
834.0
834.0
834.0
831.0
831.0
833.0
834.0
837.0
841.0
846.0
847.0
845.0
847.0
846.0
842.0
844.0
842.0
841.0
838.0
839.0
839.0
838.0
839.0
839.0
838.0
836.0
837.0
837.0
839.0
843.0
846.0
848.0
850.0
846.0
846.0
844.0
839.0
835.0
830.0
828.0
826.0
822.0
824.0
824.0
826.0
827.0
824.0
824.0
824.0
825.0
825.0
821.0
817.0
818.0
815.0
821.0
831.0
844.0
864.0
878.0
893.0
899.0
900.0
889.0
865.0
839.0
818.0
812.0
829.0
867.0
914.0
969.0
1021.0
1072.0
1116.0
1157.0
1189.0
1217.0
1232.0
1241.0
1237.0
1227.0
1209.0
1181.0
1143.0
1100.0
1057.0
1014.0
973.0
930.0
887.0
848.0
816.0
792.0
775.0
768.0
767.0
771.0
773.0
776.0
781.0
787.0
790.0
796.0
798.0
797.0
798.0
797.0
794.0
793.0
792.0
791.0
791.0
792.0
792.0
794.0
795.0
795.0
793.0
793.0
791.0
789.0
789.0
790.0
789.0
791.0
790.0
791.0
790.0
788.0
788.0
789.0
787.0
788.0
787.0
785.0
785.0
787.0
785.0
785.0
786.0
785.0
784.0
782.0
782.0
777.0
778.0
778.0
776.0
778.0
778.0
779.0
778.0
777.0
774.0
773.0
770.0
769.0
768.0
767.0
768.0
768.0
766.0
767.0
769.0
767.0
765.0
762.0
759.0
759.0
758.0
754.0
758.0
756.0
756.0
757.0
758.0
754.0
752.0
749.0
748.0
748.0
746.0
747.0
748.0
749.0
753.0
755.0
758.0
757.0
757.0
758.0
758.0
759.0
760.0
763.0
767.0
772.0
773.0
781.0
783.0
786.0
788.0
788.0
790.0
792.0
794.0
795.0
800.0
806.0
810.0
814.0
817.0
819.0
819.0
821.0
820.0
817.0
818.0
819.0
820.0
822.0
822.0
827.0
829.0
828.0
824.0
820.0
818.0
815.0
813.0
809.0
809.0
810.0
809.0
807.0
806.0
807.0
804.0
802.0
798.0
795.0
794.0
791.0
790.0
789.0
790.0
789.0
787.0
787.0
785.0
788.0
787.0
784.0
782.0
781.0
782.0
783.0
786.0
787.0
788.0
790.0
787.0
787.0
787.0
787.0
787.0
786.0
786.0
788.0
790.0
792.0
794.0
794.0
795.0
794.0
795.0
795.0
795.0
794.0
794.0
794.0
796.0
799.0
800.0
799.0
802.0
798.0
799.0
799.0
799.0
798.0
797.0
798.0
799.0
800.0
804.0
801.0
802.0
802.0
801.0
802.0
800.0
802.0
801.0
802.0
803.0
806.0
806.0
806.0
805.0
803.0
803.0
805.0
805.0
803.0
801.0
802.0
804.0
805.0
804.0
804.0
805.0
805.0
805.0
804.0
804.0
804.0
803.0
803.0
807.0
804.0
805.0
805.0
807.0
807.0
806.0
806.0
805.0
806.0
804.0
805.0
807.0
806.0
806.0
807.0
809.0
808.0
806.0
805.0
804.0
806.0
806.0
807.0
808.0
807.0
808.0
809.0
807.0
806.0
807.0
805.0
805.0
804.0
803.0
806.0
805.0
809.0
809.0
810.0
809.0
808.0
806.0
806.0
806.0
804.0
803.0
808.0
808.0
809.0
811.0
809.0
809.0
808.0
808.0
808.0
807.0
807.0
806.0
806.0
809.0
810.0
810.0
810.0
808.0
808.0
809.0
807.0
809.0
805.0
806.0
808.0
810.0
810.0
812.0
809.0
810.0
808.0
807.0
806.0
805.0
806.0
808.0
811.0
810.0
810.0
811.0
810.0
809.0
810.0
809.0
808.0
809.0
809.0
811.0
809.0
812.0
812.0
815.0
814.0
815.0
815.0
813.0
811.0
810.0
808.0
807.0
809.0
810.0
813.0
813.0
815.0
814.0
815.0
815.0
815.0
814.0
813.0
816.0
815.0
815.0
817.0
818.0
818.0
816.0
818.0
819.0
823.0
822.0
826.0
826.0
827.0
828.0
828.0
829.0
826.0
822.0
822.0
820.0
818.0
816.0
816.0
817.0
820.0
822.0
825.0
829.0
829.0
830.0
830.0
830.0
825.0
821.0
818.0
816.0
814.0
813.0
812.0
813.0
813.0
812.0
810.0
810.0
809.0
810.0
808.0
807.0
809.0
807.0
802.0
806.0
805.0
808.0
818.0
830.0
848.0
867.0
882.0
889.0
889.0
880.0
859.0
829.0
804.0
794.0
805.0
839.0
884.0
939.0
993.0
1046.0
1096.0
1136.0
1177.0
1204.0
1221.0
1228.0
1225.0
1212.0
1193.0
1165.0
1130.0
1091.0
1048.0
1007.0
961.0
916.0
868.0
826.0
793.0
771.0
757.0
756.0
756.0
762.0
768.0
776.0
778.0
780.0
785.0
786.0
787.0
786.0
787.0
787.0
786.0
785.0
786.0
786.0
783.0
788.0
789.0
787.0
786.0
786.0
785.0
785.0
786.0
785.0
784.0
785.0
788.0
790.0
790.0
790.0
788.0
787.0
785.0
783.0
783.0
783.0
783.0
785.0
785.0
786.0
784.0
784.0
782.0
783.0
780.0
778.0
778.0
778.0
775.0
775.0
777.0
779.0
778.0
778.0
777.0
775.0
771.0
770.0
772.0
770.0
772.0
770.0
771.0
770.0
772.0
768.0
768.0
765.0
763.0
763.0
760.0
759.0
761.0
759.0
762.0
761.0
759.0
759.0
759.0
755.0
753.0
753.0
755.0
755.0
756.0
758.0
759.0
761.0
761.0
762.0
760.0
762.0
762.0
766.0
768.0
771.0
774.0
777.0
782.0
783.0
787.0
787.0
793.0
797.0
797.0
800.0
802.0
803.0
806.0
811.0
814.0
818.0
818.0
819.0
819.0
820.0
820.0
819.0
819.0
819.0
821.0
819.0
819.0
820.0
818.0
813.0
812.0
808.0
805.0
804.0
800.0
799.0
797.0
798.0
795.0
794.0
790.0
788.0
790.0
787.0
786.0
784.0
781.0
781.0
783.0
784.0
785.0
785.0
786.0
785.0
784.0
782.0
782.0
783.0
783.0
783.0
785.0
788.0
789.0
792.0
788.0
790.0
789.0
790.0
789.0
788.0
789.0
789.0
792.0
794.0
795.0
797.0
799.0
798.0
798.0
799.0
798.0
797.0
795.0
795.0
796.0
799.0
799.0
801.0
803.0
801.0
802.0
801.0
800.0
801.0
800.0
802.0
804.0
804.0
806.0
809.0
808.0
806.0
807.0
805.0
805.0
803.0
800.0
802.0
803.0
803.0
805.0
807.0
808.0
806.0
808.0
806.0
805.0
804.0
806.0
803.0
806.0
808.0
807.0
809.0
810.0
810.0
808.0
808.0
806.0
806.0
804.0
806.0
806.0
808.0
808.0
812.0
813.0
813.0
811.0
809.0
811.0
810.0
806.0
806.0
808.0
810.0
810.0
814.0
813.0
815.0
813.0
814.0
813.0
812.0
809.0
810.0
810.0
813.0
815.0
816.0
816.0
816.0
816.0
816.0
812.0
811.0
809.0
809.0
811.0
814.0
815.0
819.0
817.0
817.0
818.0
816.0
815.0
817.0
813.0
814.0
817.0
817.0
816.0
819.0
822.0
820.0
818.0
815.0
817.0
816.0
814.0
817.0
814.0
819.0
819.0
819.0
819.0
819.0
819.0
815.0
815.0
813.0
816.0
816.0
816.0
818.0
819.0
820.0
817.0
818.0
818.0
818.0
816.0
817.0
816.0
818.0
818.0
819.0
820.0
821.0
823.0
822.0
822.0
822.0
819.0
819.0
819.0
818.0
821.0
823.0
825.0
827.0
826.0
823.0
823.0
821.0
821.0
821.0
821.0
822.0
824.0
827.0
833.0
836.0
839.0
835.0
838.0
837.0
834.0
833.0
831.0
829.0
830.0
833.0
833.0
837.0
836.0
836.0
837.0
839.0
840.0
839.0
841.0
837.0
839.0
838.0
837.0
835.0
832.0
828.0
825.0
820.0
817.0
817.0
816.0
815.0
816.0
820.0
821.0
824.0
821.0
822.0
822.0
820.0
818.0
815.0
811.0
810.0
813.0
821.0
836.0
854.0
872.0
889.0
902.0
906.0
903.0
887.0
856.0
825.0
800.0
793.0
810.0
847.0
893.0
941.0
989.0
1033.0
1071.0
1114.0
1147.0
1178.0
1203.0
1214.0
1216.0
1210.0
1194.0
1172.0
1145.0
1109.0
1071.0
1035.0
998.0
962.0
926.0
885.0
851.0
822.0
800.0
787.0
779.0
778.0
780.0
783.0
787.0
790.0
793.0
799.0
800.0
805.0
808.0
805.0
806.0
802.0
800.0
800.0
799.0
798.0
800.0
800.0
802.0
804.0
804.0
803.0
803.0
798.0
799.0
798.0
798.0
795.0
796.0
796.0
801.0
801.0
801.0
799.0
801.0
801.0
798.0
795.0
795.0
795.0
794.0
794.0
794.0
797.0
796.0
796.0
793.0
790.0
787.0
786.0
784.0
784.0
785.0
786.0
788.0
787.0
787.0
787.0
786.0
785.0
781.0
779.0
778.0
779.0
776.0
777.0
777.0
776.0
774.0
773.0
775.0
771.0
770.0
764.0
765.0
761.0
762.0
765.0
766.0
766.0
764.0
764.0
762.0
762.0
761.0
760.0
758.0
755.0
758.0
761.0
761.0
762.0
764.0
767.0
771.0
769.0
771.0
773.0
774.0
778.0
780.0
786.0
789.0
794.0
797.0
799.0
801.0
804.0
806.0
808.0
810.0
813.0
817.0
820.0
824.0
828.0
827.0
830.0
830.0
828.0
828.0
829.0
830.0
827.0
828.0
831.0
831.0
831.0
831.0
829.0
825.0
824.0
819.0
816.0
814.0
813.0
811.0
811.0
812.0
813.0
812.0
811.0
811.0
807.0
805.0
800.0
802.0
800.0
801.0
801.0
804.0
805.0
807.0
806.0
806.0
803.0
804.0
803.0
802.0
804.0
804.0
805.0
808.0
809.0
810.0
809.0
810.0
809.0
808.0
805.0
807.0
809.0
807.0
809.0
812.0
814.0
815.0
817.0
815.0
812.0
810.0
810.0
810.0
813.0
811.0
814.0
815.0
816.0
819.0
818.0
815.0
813.0
815.0
812.0
811.0
812.0
813.0
817.0
816.0
820.0
822.0
820.0
818.0
818.0
818.0
815.0
816.0
816.0
815.0
817.0
818.0
820.0
820.0
821.0
822.0
819.0
817.0
816.0
815.0
816.0
818.0
818.0
822.0
824.0
823.0
824.0
823.0
822.0
816.0
818.0
816.0
817.0
818.0
820.0
822.0
824.0
823.0
823.0
819.0
820.0
818.0
817.0
818.0
816.0
818.0
821.0
820.0
820.0
821.0
822.0
823.0
821.0
819.0
819.0
817.0
817.0
818.0
821.0
820.0
824.0
827.0
827.0
824.0
823.0
823.0
820.0
820.0
820.0
821.0
823.0
823.0
825.0
825.0
825.0
824.0
824.0
824.0
822.0
821.0
820.0
821.0
822.0
823.0
825.0
825.0
826.0
823.0
824.0
823.0
821.0
821.0
823.0
821.0
825.0
824.0
826.0
825.0
823.0
821.0
822.0
820.0
822.0
821.0
822.0
823.0
824.0
825.0
826.0
826.0
826.0
826.0
825.0
824.0
823.0
824.0
821.0
820.0
824.0
824.0
825.0
827.0
825.0
828.0
824.0
824.0
825.0
824.0
823.0
823.0
825.0
824.0
824.0
826.0
827.0
825.0
825.0
827.0
822.0
823.0
826.0
826.0
828.0
828.0
832.0
832.0
830.0
832.0
830.0
831.0
829.0
827.0
828.0
829.0
831.0
835.0
838.0
841.0
841.0
842.0
839.0
839.0
837.0
835.0
832.0
833.0
831.0
832.0
834.0
835.0
835.0
835.0
835.0
835.0
838.0
840.0
840.0
839.0
840.0
839.0
836.0
835.0
828.0
825.0
822.0
818.0
817.0
816.0
820.0
822.0
821.0
823.0
822.0
824.0
824.0
822.0
821.0
818.0
816.0
822.0
834.0
852.0
872.0
889.0
903.0
905.0
898.0
876.0
844.0
823.0
820.0
844.0
890.0
949.0
1016.0
1080.0
1139.0
1190.0
1231.0
1259.0
1268.0
1264.0
1246.0
1218.0
1181.0
1134.0
1085.0
1036.0
991.0
945.0
895.0
851.0
811.0
782.0
768.0
763.0
766.0
770.0
780.0
786.0
795.0
797.0
800.0
799.0
802.0
799.0
798.0
796.0
793.0
793.0
795.0
796.0
798.0
800.0
800.0
799.0
797.0
796.0
795.0
793.0
793.0
795.0
796.0
798.0
800.0
801.0
801.0
798.0
797.0
794.0
792.0
792.0
793.0
793.0
797.0
796.0
799.0
796.0
797.0
795.0
792.0
789.0
789.0
788.0
787.0
786.0
790.0
790.0
789.0
789.0
788.0
784.0
785.0
782.0
779.0
776.0
778.0
779.0
779.0
777.0
777.0
777.0
776.0
774.0
772.0
768.0
767.0
768.0
768.0
764.0
766.0
769.0
770.0
771.0
769.0
770.0
766.0
765.0
765.0
766.0
763.0
767.0
768.0
770.0
774.0
776.0
779.0
780.0
779.0
781.0
781.0
782.0
784.0
788.0
794.0
795.0
800.0
802.0
807.0
811.0
812.0
813.0
815.0
817.0
819.0
821.0
827.0
834.0
833.0
836.0
837.0
836.0
838.0
837.0
835.0
836.0
836.0
835.0
839.0
837.0
839.0
837.0
834.0
830.0
828.0
826.0
823.0
820.0
819.0
818.0
817.0
818.0
818.0
817.0
813.0
810.0
807.0
809.0
805.0
804.0
803.0
802.0
803.0
804.0
804.0
804.0
804.0
804.0
803.0
804.0
802.0
802.0
802.0
801.0
804.0
804.0
806.0
810.0
810.0
810.0
808.0
810.0
810.0
810.0
810.0
811.0
811.0
812.0
813.0
817.0
816.0
816.0
815.0
817.0
816.0
816.0
816.0
816.0
817.0
820.0
819.0
820.0
823.0
823.0
823.0
821.0
820.0
819.0
821.0
821.0
821.0
823.0
825.0
827.0
826.0
827.0
825.0
825.0
825.0
824.0
821.0
822.0
824.0
824.0
827.0
829.0
828.0
828.0
828.0
827.0
827.0
827.0
828.0
826.0
829.0
829.0
832.0
831.0
833.0
829.0
828.0
828.0
828.0
828.0
827.0
829.0
831.0
831.0
834.0
834.0
832.0
830.0
829.0
830.0
827.0
828.0
826.0
826.0
831.0
832.0
831.0
835.0
834.0
832.0
830.0
830.0
831.0
831.0
831.0
833.0
835.0
834.0
835.0
836.0
835.0
835.0
834.0
834.0
834.0
831.0
832.0
831.0
830.0
831.0
832.0
835.0
835.0
834.0
835.0
835.0
833.0
834.0
834.0
836.0
837.0
838.0
839.0
838.0
838.0
838.0
834.0
834.0
834.0
834.0
833.0
835.0
834.0
837.0
840.0
839.0
839.0
839.0
837.0
835.0
836.0
835.0
837.0
839.0
840.0
841.0
840.0
841.0
842.0
841.0
840.0
838.0
837.0
837.0
838.0
837.0
840.0
841.0
842.0
840.0
841.0
840.0
838.0
839.0
839.0
838.0
839.0
841.0
841.0
843.0
843.0
843.0
844.0
844.0
843.0
842.0
842.0
840.0
841.0
844.0
845.0
847.0
847.0
848.0
847.0
847.0
847.0
850.0
852.0
852.0
853.0
855.0
857.0
859.0
860.0
859.0
858.0
855.0
855.0
851.0
849.0
848.0
848.0
846.0
847.0
850.0
855.0
858.0
861.0
860.0
858.0
859.0
854.0
851.0
849.0
847.0
845.0
841.0
842.0
840.0
842.0
841.0
841.0
839.0
838.0
841.0
841.0
842.0
841.0
843.0
844.0
843.0
839.0
838.0
839.0
845.0
861.0
879.0
899.0
918.0
927.0
921.0
900.0
866.0
833.0
814.0
819.0
846.0
891.0
944.0
998.0
1048.0
1102.0
1145.0
1182.0
1212.0
1230.0
1239.0
1236.0
1226.0
1209.0
1184.0
1153.0
1114.0
1078.0
1043.0
1006.0
968.0
925.0
883.0
849.0
821.0
806.0
800.0
800.0
801.0
805.0
810.0
813.0
818.0
820.0
820.0
820.0
818.0
821.0
823.0
819.0
822.0
823.0
824.0
825.0
825.0
822.0
819.0
818.0
820.0
820.0
819.0
821.0
821.0
823.0
824.0
824.0
822.0
821.0
820.0
818.0
820.0
819.0
819.0
818.0
819.0
822.0
822.0
822.0
821.0
821.0
818.0
817.0
814.0
813.0
813.0
814.0
813.0
812.0
815.0
816.0
816.0
814.0
810.0
813.0
810.0
807.0
805.0
804.0
803.0
805.0
804.0
805.0
804.0
803.0
802.0
800.0
799.0
797.0
794.0
794.0
793.0
795.0
794.0
796.0
796.0
795.0
792.0
790.0
789.0
788.0
786.0
786.0
788.0
787.0
791.0
789.0
792.0
791.0
790.0
788.0
790.0
789.0
792.0
795.0
798.0
800.0
803.0
806.0
808.0
810.0
812.0
812.0
813.0
815.0
816.0
823.0
828.0
831.0
836.0
841.0
842.0
843.0
845.0
847.0
848.0
849.0
850.0
852.0
853.0
855.0
858.0
859.0
861.0
859.0
857.0
855.0
853.0
849.0
846.0
846.0
843.0
843.0
844.0
841.0
841.0
838.0
836.0
832.0
830.0
828.0
825.0
826.0
827.0
826.0
825.0
826.0
826.0
826.0
824.0
821.0
818.0
817.0
819.0
820.0
820.0
824.0
824.0
825.0
827.0
825.0
825.0
825.0
824.0
820.0
824.0
825.0
826.0
828.0
829.0
831.0
833.0
829.0
831.0
831.0
831.0
830.0
831.0
832.0
832.0
835.0
837.0
838.0
841.0
839.0
837.0
837.0
836.0
831.0
834.0
836.0
839.0
839.0
842.0
844.0
844.0
841.0
843.0
841.0
839.0
838.0
839.0
838.0
837.0
840.0
842.0
843.0
845.0
846.0
846.0
845.0
842.0
840.0
841.0
842.0
842.0
845.0
846.0
847.0
848.0
848.0
847.0
844.0
843.0
840.0
839.0
841.0
840.0
844.0
845.0
849.0
848.0
848.0
846.0
844.0
842.0
842.0
842.0
842.0
844.0
845.0
847.0
848.0
848.0
849.0
849.0
848.0
844.0
844.0
843.0
841.0
845.0
846.0
847.0
850.0
850.0
852.0
852.0
849.0
847.0
846.0
842.0
844.0
845.0
847.0
850.0
851.0
853.0
852.0
851.0
850.0
848.0
846.0
846.0
844.0
845.0
848.0
851.0
851.0
851.0
850.0
853.0
853.0
849.0
848.0
848.0
846.0
848.0
848.0
846.0
849.0
853.0
851.0
852.0
850.0
850.0
847.0
843.0
847.0
846.0
847.0
850.0
852.0
854.0
854.0
855.0
853.0
846.0
844.0
844.0
846.0
848.0
850.0
851.0
850.0
849.0
853.0
854.0
854.0
852.0
850.0
850.0
848.0
850.0
853.0
853.0
855.0
855.0
855.0
855.0
855.0
854.0
852.0
851.0
854.0
855.0
857.0
859.0
861.0
861.0
860.0
859.0
859.0
858.0
861.0
861.0
862.0
863.0
866.0
867.0
869.0
870.0
869.0
867.0
865.0
859.0
860.0
859.0
858.0
859.0
856.0
858.0
862.0
862.0
868.0
870.0
874.0
873.0
870.0
868.0
868.0
867.0
864.0
862.0
861.0
859.0
856.0
853.0
848.0
847.0
847.0
846.0
848.0
847.0
850.0
851.0
851.0
852.0
851.0
852.0
849.0
844.0
845.0
846.0
852.0
865.0
883.0
901.0
917.0
930.0
936.0
931.0
908.0
877.0
852.0
844.0
860.0
897.0
947.0
1006.0
1063.0
1116.0
1164.0
1207.0
1242.0
1269.0
1282.0
1285.0
1276.0
1258.0
1233.0
1202.0
1160.0
1118.0
1075.0
1034.0
993.0
954.0
917.0
880.0
848.0
826.0
809.0
802.0
802.0
803.0
810.0
812.0
812.0
815.0
820.0
820.0
824.0
826.0
828.0
827.0
832.0
833.0
831.0
830.0
826.0
827.0
825.0
824.0
823.0
824.0
826.0
828.0
829.0
830.0
830.0
828.0
825.0
825.0
824.0
823.0
823.0
823.0
825.0
826.0
826.0
831.0
828.0
825.0
823.0
821.0
820.0
818.0
817.0
818.0
819.0
822.0
821.0
822.0
821.0
817.0
813.0
811.0
811.0
811.0
811.0
812.0
810.0
811.0
810.0
811.0
809.0
809.0
807.0
807.0
803.0
803.0
798.0
802.0
798.0
801.0
803.0
805.0
801.0
798.0
796.0
796.0
792.0
790.0
787.0
790.0
793.0
792.0
790.0
794.0
793.0
791.0
790.0
788.0
787.0
790.0
790.0
791.0
795.0
795.0
798.0
803.0
803.0
807.0
807.0
806.0
808.0
809.0
811.0
818.0
820.0
827.0
830.0
835.0
838.0
840.0
843.0
844.0
845.0
848.0
851.0
852.0
859.0
862.0
866.0
868.0
868.0
868.0
868.0
866.0
865.0
863.0
864.0
862.0
864.0
864.0
863.0
861.0
859.0
856.0
851.0
848.0
845.0
841.0
841.0
839.0
838.0
839.0
839.0
841.0
840.0
838.0
837.0
833.0
832.0
832.0
830.0
832.0
835.0
837.0
837.0
836.0
835.0
836.0
834.0
834.0
832.0
831.0
832.0
836.0
837.0
836.0
840.0
842.0
842.0
842.0
842.0
840.0
840.0
840.0
840.0
842.0
845.0
846.0
842.0
847.0
850.0
849.0
847.0
848.0
844.0
844.0
845.0
847.0
849.0
850.0
853.0
853.0
853.0
852.0
850.0
849.0
848.0
849.0
848.0
849.0
852.0
851.0
851.0
855.0
855.0
856.0
854.0
855.0
852.0
851.0
852.0
850.0
853.0
856.0
859.0
858.0
860.0
858.0
858.0
854.0
851.0
852.0
854.0
854.0
855.0
857.0
859.0
862.0
860.0
858.0
855.0
854.0
852.0
854.0
853.0
856.0
856.0
858.0
859.0
860.0
861.0
859.0
858.0
859.0
855.0
854.0
854.0
856.0
859.0
857.0
858.0
860.0
860.0
859.0
860.0
860.0
858.0
852.0
855.0
855.0
853.0
859.0
861.0
861.0
862.0
861.0
860.0
859.0
857.0
855.0
858.0
858.0
858.0
859.0
860.0
861.0
862.0
862.0
864.0
862.0
860.0
858.0
859.0
859.0
860.0
862.0
863.0
864.0
862.0
863.0
862.0
860.0
861.0
859.0
856.0
857.0
859.0
861.0
861.0
863.0
862.0
862.0
861.0
860.0
862.0
858.0
859.0
859.0
861.0
861.0
863.0
865.0
863.0
866.0
864.0
862.0
859.0
859.0
858.0
859.0
858.0
861.0
858.0
862.0
862.0
863.0
861.0
861.0
857.0
856.0
858.0
857.0
858.0
861.0
861.0
863.0
861.0
862.0
861.0
862.0
860.0
860.0
860.0
862.0
862.0
866.0
866.0
869.0
870.0
869.0
868.0
864.0
864.0
866.0
867.0
870.0
873.0
877.0
876.0
878.0
879.0
878.0
874.0
872.0
866.0
865.0
866.0
864.0
866.0
868.0
869.0
874.0
875.0
877.0
880.0
880.0
878.0
877.0
874.0
871.0
869.0
866.0
866.0
865.0
863.0
858.0
859.0
856.0
856.0
856.0
855.0
853.0
855.0
856.0
857.0
858.0
857.0
858.0
856.0
853.0
851.0
855.0
866.0
884.0
905.0
925.0
936.0
940.0
927.0
898.0
868.0
845.0
845.0
868.0
914.0
970.0
1030.0
1089.0
1147.0
1197.0
1237.0
1271.0
1289.0
1292.0
1280.0
1261.0
1230.0
1189.0
1143.0
1096.0
1051.0
1005.0
961.0
915.0
874.0
841.0
815.0
804.0
799.0
802.0
805.0
813.0
818.0
826.0
830.0
831.0
832.0
833.0
833.0
833.0
831.0
832.0
831.0
833.0
834.0
837.0
837.0
836.0
836.0
833.0
833.0
832.0
833.0
831.0
833.0
833.0
834.0
836.0
834.0
833.0
829.0
829.0
826.0
828.0
828.0
829.0
829.0
828.0
830.0
832.0
831.0
825.0
828.0
826.0
824.0
825.0
824.0
822.0
823.0
823.0
822.0
823.0
821.0
820.0
820.0
818.0
817.0
817.0
814.0
815.0
814.0
814.0
814.0
815.0
814.0
812.0
810.0
810.0
808.0
806.0
806.0
803.0
806.0
806.0
806.0
806.0
804.0
804.0
800.0
800.0
798.0
799.0
798.0
800.0
801.0
801.0
801.0
802.0
801.0
800.0
804.0
801.0
803.0
801.0
804.0
807.0
809.0
811.0
815.0
817.0
820.0
822.0
821.0
823.0
826.0
830.0
833.0
835.0
839.0
844.0
848.0
851.0
854.0
855.0
858.0
858.0
859.0
861.0
862.0
861.0
863.0
866.0
871.0
869.0
869.0
867.0
865.0
864.0
862.0
861.0
860.0
858.0
858.0
860.0
856.0
853.0
851.0
849.0
847.0
844.0
840.0
838.0
837.0
838.0
837.0
839.0
839.0
840.0
839.0
833.0
832.0
829.0
828.0
826.0
825.0
827.0
828.0
830.0
830.0
835.0
835.0
834.0
830.0
830.0
830.0
829.0
828.0
830.0
832.0
835.0
837.0
839.0
839.0
839.0
838.0
838.0
837.0
834.0
834.0
837.0
839.0
841.0
843.0
845.0
845.0
845.0
845.0
