# Simple Text Format
# Sampling Rate (Hz):= 360.00
# Resolution:= 12
# Labels:= ECG
832.0
832.0
835.0
837.0
835.0
836.0
835.0
833.0
834.0
834.0
833.0
833.0
834.0
835.0
836.0
837.0
837.0
839.0
837.0
837.0
836.0
834.0
834.0
835.0
835.0
838.0
840.0
840.0
840.0
841.0
839.0
838.0
838.0
835.0
836.0
835.0
835.0
838.0
839.0
840.0
839.0
838.0
836.0
834.0
835.0
836.0
837.0
837.0
837.0
841.0
841.0
842.0
842.0
841.0
840.0
836.0
836.0
837.0
837.0
837.0
836.0
840.0
841.0
840.0
839.0
839.0
836.0
838.0
838.0
838.0
838.0
840.0
840.0
841.0
843.0
843.0
844.0
845.0
842.0
841.0
839.0
840.0
839.0
841.0
843.0
842.0
841.0
845.0
845.0
846.0
845.0
844.0
843.0
842.0
842.0
840.0
843.0
847.0
844.0
847.0
845.0
846.0
843.0
839.0
841.0
840.0
840.0
839.0
841.0
844.0
845.0
845.0
844.0
845.0
844.0
842.0
838.0
839.0
842.0
841.0
844.0
846.0
847.0
846.0
845.0
846.0
843.0
844.0
842.0
840.0
842.0
843.0
843.0
846.0
844.0
845.0
846.0
845.0
844.0
843.0
842.0
840.0
840.0
837.0
840.0
843.0
844.0
843.0
842.0
841.0
842.0
843.0
839.0
838.0
839.0
840.0
840.0
844.0
845.0
846.0
846.0
844.0
842.0
841.0
842.0
841.0
842.0
843.0
843.0
845.0
847.0
848.0
845.0
845.0
845.0
845.0
846.0
847.0
848.0
850.0
851.0
852.0
854.0
855.0
853.0
853.0
848.0
847.0
844.0
844.0
846.0
846.0
846.0
848.0
851.0
857.0
861.0
861.0
860.0
859.0
857.0
853.0
850.0
848.0
845.0
839.0
839.0
839.0
840.0
838.0
839.0
837.0
836.0
836.0
837.0
838.0
839.0
839.0
839.0
839.0
836.0
838.0
842.0
854.0
869.0
884.0
896.0
907.0
910.0
906.0
888.0
866.0
844.0
836.0
851.0
886.0
934.0
990.0
1048.0
1106.0
1164.0
1215.0
1256.0
1291.0
1310.0
1315.0
1303.0
1280.0
1250.0
1206.0
1158.0
1110.0
1061.0
1015.0
969.0
922.0
875.0
841.0
810.0
792.0
783.0
783.0
787.0
788.0
797.0
800.0
803.0
809.0
811.0
814.0
813.0
814.0
812.0
812.0
810.0
809.0
810.0
809.0
811.0
814.0
814.0
811.0
810.0
807.0
804.0
804.0
805.0
803.0
805.0
805.0
807.0
809.0
808.0
805.0
806.0
803.0
801.0
802.0
798.0
800.0
802.0
804.0
803.0
805.0
804.0
806.0
802.0
800.0
797.0
796.0
793.0
795.0
798.0
798.0
801.0
799.0
801.0
799.0
798.0
792.0
791.0
790.0
790.0
792.0
792.0
788.0
792.0
791.0
788.0
787.0
787.0
784.0
781.0
779.0
780.0
780.0
781.0
781.0
780.0
780.0
781.0
778.0
778.0
777.0
774.0
772.0
772.0
772.0
773.0
776.0
778.0
780.0
780.0
781.0
781.0
782.0
780.0
781.0
784.0
787.0
788.0
790.0
796.0
800.0
802.0
802.0
804.0
804.0
802.0
804.0
810.0
813.0
816.0
819.0
823.0
827.0
828.0
832.0
832.0
833.0
831.0
834.0
833.0
832.0
838.0
840.0
839.0
841.0
842.0
841.0
840.0
837.0
832.0
830.0
828.0
827.0
825.0
824.0
825.0
824.0
824.0
822.0
818.0
815.0
813.0
811.0
808.0
808.0
810.0
808.0
807.0
806.0
808.0
805.0
804.0
804.0
800.0
799.0
799.0
801.0
800.0
801.0
801.0
804.0
806.0
803.0
803.0
800.0
802.0
802.0
804.0
803.0
805.0
807.0
808.0
809.0
811.0
811.0
809.0
809.0
808.0
808.0
807.0
809.0
813.0
813.0
812.0
814.0
815.0
814.0
815.0
813.0
815.0
814.0
814.0
816.0
818.0
818.0
818.0
820.0
821.0
821.0
819.0
818.0
817.0
816.0
816.0
817.0
817.0
818.0
817.0
821.0
820.0
821.0
819.0
818.0
816.0
817.0
815.0
813.0
816.0
818.0
821.0
822.0
821.0
822.0
818.0
817.0
814.0
815.0
814.0
815.0
816.0
816.0
816.0
817.0
820.0
818.0
819.0
817.0
816.0
817.0
816.0
818.0
817.0
820.0
821.0
821.0
822.0
820.0
819.0
818.0
818.0
818.0
816.0
814.0
820.0
820.0
824.0
825.0
819.0
820.0
820.0
819.0
817.0
818.0
817.0
816.0
817.0
818.0
819.0
820.0
821.0
822.0
822.0
821.0
820.0
819.0
819.0
820.0
818.0
820.0
822.0
823.0
821.0
819.0
819.0
818.0
819.0
819.0
819.0
818.0
823.0
821.0
822.0
822.0
823.0
824.0
823.0
822.0
819.0
819.0
816.0
819.0
821.0
824.0
825.0
826.0
826.0
825.0
825.0
823.0
820.0
822.0
820.0
821.0
818.0
822.0
823.0
825.0
825.0
824.0
825.0
824.0
823.0
820.0
821.0
822.0
823.0
824.0
826.0
830.0
828.0
830.0
831.0
828.0
827.0
827.0
824.0
824.0
824.0
827.0
828.0
830.0
834.0
837.0
836.0
834.0
832.0
832.0
833.0
831.0
830.0
831.0
831.0
832.0
833.0
831.0
831.0
831.0
831.0
833.0
836.0
838.0
839.0
838.0
838.0
837.0
836.0
832.0
829.0
827.0
824.0
821.0
819.0
820.0
822.0
820.0
825.0
825.0
825.0
825.0
823.0
821.0
823.0
823.0
819.0
814.0
817.0
818.0
826.0
839.0
855.0
875.0
890.0
900.0
903.0
894.0
872.0
840.0
811.0
798.0
804.0
835.0
876.0
926.0
977.0
1027.0
1072.0
1113.0
1153.0
1185.0
1209.0
1221.0
1225.0
1218.0
1206.0
1183.0
1149.0
1112.0
1068.0
1026.0
986.0
946.0
907.0
869.0
838.0
812.0
796.0
787.0
783.0
783.0
783.0
786.0
792.0
794.0
799.0
800.0
803.0
806.0
806.0
809.0
808.0
806.0
803.0
803.0
800.0
800.0
801.0
803.0
803.0
803.0
805.0
805.0
804.0
802.0
799.0
802.0
802.0
804.0
803.0
803.0
807.0
806.0
805.0
807.0
803.0
801.0
801.0
800.0
798.0
798.0
798.0
796.0
800.0
800.0
802.0
799.0
798.0
797.0
796.0
793.0
794.0
795.0
795.0
796.0
798.0
797.0
795.0
794.0
794.0
793.0
790.0
789.0
787.0
787.0
789.0
787.0
788.0
787.0
787.0
788.0
785.0
782.0
780.0
778.0
777.0
777.0
776.0
774.0
779.0
779.0
779.0
779.0
775.0
775.0
771.0
770.0
768.0
768.0
770.0
771.0
771.0
773.0
773.0
773.0
773.0
772.0
772.0
772.0
772.0
769.0
774.0
777.0
781.0
786.0
788.0
789.0
789.0
789.0
792.0
795.0
798.0
803.0
806.0
809.0
814.0
821.0
821.0
824.0
827.0
826.0
828.0
830.0
830.0
833.0
834.0
837.0
838.0
839.0
841.0
840.0
837.0
834.0
833.0
831.0
828.0
827.0
828.0
827.0
830.0
828.0
825.0
823.0
820.0
818.0
815.0
812.0
812.0
812.0
813.0
813.0
814.0
815.0
815.0
812.0
813.0
813.0
811.0
809.0
808.0
808.0
811.0
811.0
812.0
812.0
812.0
813.0
812.0
811.0
809.0
807.0
808.0
810.0
812.0
814.0
816.0
817.0
820.0
818.0
819.0
816.0
816.0
816.0
815.0
813.0
815.0
818.0
820.0
824.0
824.0
822.0
821.0
820.0
821.0
821.0
821.0
819.0
820.0
819.0
820.0
822.0
820.0
822.0
822.0
823.0
822.0
821.0
821.0
820.0
823.0
822.0
826.0
824.0
827.0
826.0
824.0
823.0
822.0
820.0
820.0
822.0
823.0
824.0
823.0
827.0
825.0
823.0
824.0
823.0
823.0
823.0
823.0
823.0
824.0
824.0
826.0
828.0
829.0
827.0
826.0
826.0
825.0
825.0
824.0
825.0
826.0
826.0
828.0
830.0
829.0
829.0
829.0
828.0
827.0
828.0
826.0
827.0
827.0
829.0
831.0
832.0
832.0
833.0
831.0
831.0
830.0
830.0
831.0
830.0
830.0
832.0
831.0
837.0
834.0
832.0
834.0
835.0
832.0
830.0
830.0
830.0
828.0
831.0
832.0
836.0
836.0
837.0
836.0
834.0
834.0
834.0
834.0
833.0
835.0
836.0
837.0
836.0
837.0
837.0
838.0
836.0
836.0
834.0
833.0
836.0
834.0
835.0
837.0
839.0
838.0
837.0
835.0
836.0
836.0
835.0
834.0
832.0
836.0
837.0
838.0
839.0
841.0
838.0
838.0
838.0
836.0
837.0
836.0
836.0
835.0
837.0
837.0
839.0
841.0
842.0
842.0
841.0
843.0
843.0
842.0
842.0
843.0
843.0
844.0
844.0
845.0
847.0
847.0
849.0
850.0
852.0
851.0
849.0
852.0
850.0
850.0
851.0
848.0
848.0
849.0
845.0
845.0
845.0
845.0
847.0
852.0
856.0
858.0
860.0
860.0
857.0
853.0
847.0
846.0
844.0
840.0
838.0
838.0
838.0
839.0
839.0
840.0
839.0
840.0
840.0
838.0
838.0
836.0
836.0
837.0
836.0
836.0
835.0
837.0
843.0
857.0
870.0
886.0
901.0
909.0
912.0
908.0
889.0
866.0
851.0
851.0
875.0
919.0
975.0
1037.0
1097.0
1155.0
1207.0
1252.0
1290.0
1309.0
1317.0
1304.0
1282.0
1245.0
1197.0
1143.0
1092.0
1042.0
992.0
948.0
905.0
866.0
838.0
814.0
800.0
791.0
793.0
793.0
795.0
800.0
805.0
808.0
812.0
815.0
818.0
817.0
817.0
815.0
815.0
812.0
810.0
811.0
813.0
814.0
815.0
815.0
818.0
818.0
816.0
815.0
812.0
812.0
809.0
808.0
809.0
810.0
810.0
813.0
813.0
815.0
812.0
809.0
809.0
806.0
807.0
805.0
804.0
806.0
806.0
808.0
809.0
806.0
808.0
807.0
805.0
802.0
802.0
801.0
804.0
802.0
802.0
803.0
803.0
804.0
801.0
799.0
797.0
796.0
795.0
795.0
795.0
793.0
795.0
796.0
797.0
795.0
793.0
792.0
789.0
788.0
785.0
784.0
783.0
784.0
787.0
787.0
788.0
787.0
785.0
784.0
784.0
780.0
780.0
781.0
782.0
782.0
784.0
782.0
785.0
788.0
790.0
790.0
789.0
794.0
797.0
797.0
800.0
803.0
808.0
811.0
817.0
816.0
818.0
821.0
822.0
822.0
826.0
826.0
827.0
829.0
835.0
841.0
844.0
846.0
848.0
849.0
849.0
849.0
848.0
846.0
848.0
847.0
851.0
851.0
850.0
849.0
847.0
845.0
841.0
839.0
837.0
833.0
833.0
833.0
833.0
832.0
834.0
830.0
829.0
826.0
825.0
823.0
821.0
820.0
822.0
823.0
819.0
824.0
825.0
824.0
823.0
823.0
821.0
820.0
818.0
818.0
821.0
818.0
822.0
823.0
827.0
828.0
828.0
828.0
826.0
826.0
826.0
824.0
827.0
826.0
829.0
830.0
833.0
831.0
831.0
831.0
831.0
833.0
832.0
833.0
832.0
830.0
835.0
836.0
837.0
838.0
836.0
839.0
835.0
834.0
833.0
832.0
834.0
831.0
833.0
834.0
837.0
836.0
838.0
838.0
837.0
838.0
834.0
837.0
834.0
836.0
837.0
840.0
839.0
839.0
838.0
836.0
836.0
835.0
834.0
832.0
836.0
834.0
838.0
841.0
841.0
843.0
843.0
840.0
840.0
838.0
838.0
837.0
834.0
835.0
839.0
840.0
843.0
844.0
841.0
841.0
843.0
840.0
841.0
839.0
838.0
839.0
842.0
844.0
846.0
846.0
845.0
846.0
843.0
841.0
843.0
842.0
843.0
844.0
845.0
846.0
849.0
850.0
850.0
848.0
846.0
844.0
848.0
847.0
845.0
846.0
846.0
848.0
853.0
853.0
854.0
851.0
851.0
850.0
851.0
852.0
854.0
854.0
856.0
858.0
858.0
857.0
854.0
860.0
856.0
855.0
852.0
852.0
852.0
854.0
859.0
858.0
861.0
862.0
859.0
857.0
856.0
855.0
854.0
855.0
857.0
858.0
861.0
860.0
859.0
860.0
857.0
858.0
858.0
859.0
858.0
856.0
858.0
859.0
862.0
862.0
862.0
862.0
861.0
860.0
857.0
857.0
858.0
857.0
858.0
860.0
862.0
861.0
865.0
863.0
863.0
863.0
860.0
860.0
859.0
860.0
860.0
862.0
864.0
865.0
865.0
866.0
867.0
863.0
863.0
862.0
860.0
859.0
859.0
862.0
864.0
865.0
868.0
869.0
869.0
869.0
867.0
866.0
862.0
861.0
861.0
864.0
865.0
869.0
874.0
876.0
876.0
874.0
874.0
870.0
869.0
865.0
867.0
868.0
872.0
870.0
873.0
875.0
877.0
874.0
875.0
873.0
871.0
869.0
865.0
867.0
865.0
866.0
869.0
868.0
868.0
866.0
866.0
865.0
863.0
863.0
862.0
859.0
857.0
860.0
864.0
875.0
887.0
907.0
922.0
934.0
940.0
938.0
923.0
897.0
867.0
847.0
845.0
867.0
908.0
959.0
1015.0
1075.0
1127.0
1179.0
1224.0
1258.0
1287.0
1298.0
1302.0
1295.0
1277.0
1248.0
1211.0
1168.0
1122.0
1071.0
1019.0
968.0
922.0
883.0
855.0
837.0
830.0
830.0
830.0
832.0
835.0
839.0
840.0
843.0
847.0
847.0
850.0
852.0
851.0
849.0
848.0
846.0
845.0
847.0
846.0
847.0
846.0
848.0
850.0
851.0
848.0
848.0
849.0
845.0
846.0
846.0
844.0
845.0
845.0
849.0
850.0
850.0
849.0
848.0
847.0
846.0
845.0
841.0
842.0
841.0
840.0
840.0
843.0
841.0
838.0
838.0
840.0
839.0
838.0
838.0
836.0
837.0
838.0
838.0
838.0
836.0
836.0
833.0
834.0
831.0
831.0
828.0
827.0
829.0
827.0
828.0
830.0
830.0
828.0
826.0
823.0
823.0
819.0
817.0
816.0
816.0
820.0
817.0
819.0
821.0
820.0
822.0
819.0
819.0
816.0
819.0
818.0
821.0
824.0
825.0
828.0
831.0
829.0
833.0
833.0
835.0
836.0
837.0
840.0
840.0
845.0
848.0
852.0
853.0
858.0
858.0
858.0
859.0
862.0
864.0
867.0
871.0
873.0
876.0
879.0
883.0
881.0
882.0
883.0
882.0
882.0
881.0
880.0
882.0
880.0
877.0
879.0
877.0
874.0
872.0
868.0
865.0
865.0
863.0
859.0
858.0
860.0
858.0
860.0
857.0
858.0
856.0
853.0
850.0
848.0
847.0
849.0
849.0
849.0
851.0
851.0
851.0
848.0
850.0
849.0
849.0
847.0
847.0
848.0
848.0
852.0
852.0
855.0
858.0
858.0
856.0
854.0
855.0
854.0
854.0
853.0
854.0
853.0
859.0
859.0
860.0
859.0
858.0
855.0
853.0
857.0
856.0
857.0
855.0
861.0
862.0
865.0
865.0
864.0
860.0
862.0
862.0
859.0
860.0
861.0
862.0
865.0
863.0
865.0
867.0
866.0
866.0
865.0
864.0
862.0
866.0
865.0
867.0
868.0
866.0
868.0
868.0
867.0
868.0
867.0
866.0
864.0
863.0
862.0
861.0
863.0
864.0
864.0
868.0
867.0
867.0
866.0
864.0
864.0
864.0
863.0
867.0
868.0
869.0
871.0
872.0
869.0
870.0
868.0
867.0
864.0
866.0
866.0
867.0
868.0
869.0
870.0
872.0
870.0
870.0
867.0
869.0
867.0
867.0
866.0
868.0
868.0
870.0
873.0
872.0
872.0
870.0
870.0
870.0
868.0
867.0
868.0
870.0
871.0
871.0
873.0
873.0
874.0
873.0
873.0
870.0
868.0
868.0
869.0
871.0
871.0
874.0
873.0
873.0
871.0
871.0
868.0
871.0
869.0
869.0
866.0
868.0
870.0
870.0
873.0
874.0
871.0
870.0
871.0
871.0
866.0
868.0
868.0
869.0
871.0
874.0
875.0
875.0
876.0
872.0
874.0
871.0
870.0
868.0
872.0
868.0
870.0
870.0
871.0
872.0
873.0
871.0
871.0
868.0
869.0
869.0
870.0
868.0
872.0
874.0
872.0
875.0
875.0
872.0
871.0
871.0
870.0
873.0
872.0
871.0
875.0
877.0
880.0
885.0
885.0
884.0
884.0
883.0
880.0
877.0
878.0
878.0
880.0
879.0
877.0
877.0
876.0
877.0
877.0
878.0
880.0
880.0
882.0
883.0
886.0
886.0
882.0
885.0
879.0
876.0
871.0
868.0
865.0
865.0
866.0
865.0
866.0
868.0
870.0
873.0
874.0
871.0
867.0
865.0
867.0
864.0
864.0
860.0
862.0
866.0
874.0
889.0
901.0
918.0
934.0
942.0
945.0
942.0
926.0
902.0
877.0
861.0
869.0
899.0
947.0
1007.0
1067.0
1128.0
1187.0
1233.0
1264.0
1290.0
1298.0
1292.0
1277.0
1257.0
1222.0
1181.0
1134.0
1087.0
1041.0
995.0
953.0
913.0
881.0
856.0
838.0
828.0
826.0
826.0
829.0
834.0
835.0
837.0
839.0
842.0
845.0
846.0
850.0
850.0
850.0
853.0
849.0
845.0
843.0
844.0
843.0
846.0
845.0
847.0
849.0
849.0
848.0
847.0
847.0
843.0
843.0
843.0
843.0
845.0
846.0
847.0
850.0
848.0
848.0
846.0
844.0
842.0
842.0
843.0
841.0
840.0
842.0
841.0
843.0
843.0
840.0
839.0
838.0
834.0
835.0
835.0
834.0
835.0
836.0
836.0
835.0
835.0
832.0
829.0
829.0
830.0
828.0
829.0
827.0
828.0
827.0
825.0
827.0
827.0
826.0
824.0
821.0
819.0
816.0
816.0
818.0
815.0
815.0
815.0
818.0
814.0
814.0
814.0
811.0
810.0
810.0
811.0
807.0
809.0
812.0
812.0
812.0
811.0
813.0
815.0
813.0
814.0
812.0
812.0
815.0
814.0
817.0
823.0
826.0
829.0
831.0
832.0
835.0
835.0
836.0
837.0
840.0
843.0
846.0
851.0
857.0
860.0
862.0
863.0
866.0
867.0
867.0
870.0
871.0
873.0
878.0
882.0
882.0
885.0
885.0
885.0
885.0
882.0
883.0
879.0
876.0
878.0
882.0
880.0
881.0
881.0
880.0
880.0
875.0
874.0
870.0
869.0
867.0
867.0
864.0
867.0
867.0
866.0
863.0
862.0
862.0
858.0
857.0
857.0
855.0
856.0
857.0
858.0
859.0
861.0
859.0
859.0
858.0
858.0
856.0
855.0
859.0
858.0
859.0
861.0
864.0
866.0
865.0
865.0
863.0
864.0
863.0
862.0
864.0
864.0
866.0
866.0
868.0
868.0
868.0
870.0
867.0
866.0
867.0
866.0
866.0
869.0
870.0
871.0
872.0
871.0
872.0
872.0
871.0
870.0
870.0
872.0
868.0
872.0
872.0
874.0
875.0
875.0
876.0
877.0
874.0
875.0
871.0
868.0
872.0
873.0
874.0
876.0
875.0
875.0
876.0
877.0
877.0
878.0
875.0
873.0
873.0
874.0
877.0
877.0
879.0
879.0
880.0
877.0
877.0
877.0
876.0
877.0
877.0
877.0
879.0
881.0
881.0
881.0
881.0
882.0
881.0
878.0
880.0
880.0
877.0
879.0
882.0
880.0
882.0
883.0
883.0
882.0
881.0
880.0
880.0
881.0
881.0
879.0
879.0
881.0
884.0
884.0
885.0
884.0
882.0
882.0
880.0
880.0
882.0
882.0
884.0
881.0
882.0
884.0
885.0
883.0
883.0
881.0
882.0
880.0
881.0
883.0
883.0
882.0
882.0
886.0
883.0
885.0
883.0
881.0
882.0
880.0
880.0
882.0
881.0
882.0
883.0
887.0
887.0
885.0
884.0
884.0
881.0
881.0
883.0
884.0
885.0
886.0
887.0
887.0
886.0
886.0
885.0
883.0
884.0
882.0
883.0
883.0
885.0
887.0
887.0
891.0
890.0
887.0
888.0
886.0
886.0
885.0
885.0
885.0
886.0
891.0
891.0
893.0
896.0
894.0
892.0
890.0
888.0
888.0
889.0
891.0
897.0
899.0
901.0
903.0
901.0
901.0
901.0
900.0
898.0
896.0
894.0
896.0
896.0
896.0
895.0
895.0
895.0
898.0
897.0
897.0
900.0
900.0
901.0
903.0
905.0
904.0
904.0
901.0
900.0
894.0
889.0
886.0
883.0
881.0
882.0
883.0
883.0
886.0
887.0
886.0
886.0
885.0
886.0
883.0
881.0
879.0
877.0
877.0
880.0
888.0
899.0
916.0
931.0
945.0
955.0
959.0
959.0
951.0
929.0
905.0
884.0
879.0
894.0
928.0
976.0
1028.0
1084.0
1138.0
1187.0
1234.0
1276.0
1308.0
1329.0
1337.0
1332.0
1316.0
1289.0
1255.0
1212.0
1163.0
1122.0
1078.0
1033.0
988.0
947.0
912.0
881.0
858.0
847.0
842.0
838.0
838.0
842.0
847.0
845.0
853.0
854.0
860.0
864.0
866.0
862.0
862.0
863.0
863.0
858.0
856.0
857.0
859.0
859.0
863.0
864.0
866.0
864.0
862.0
860.0
860.0
860.0
858.0
859.0
859.0
862.0
859.0
862.0
863.0
863.0
864.0
860.0
860.0
857.0
856.0
857.0
856.0
858.0
860.0
860.0
861.0
859.0
858.0
857.0
855.0
853.0
852.0
851.0
853.0
853.0
853.0
856.0
854.0
853.0
853.0
850.0
847.0
843.0
844.0
843.0
842.0
843.0
845.0
843.0
845.0
844.0
843.0
840.0
839.0
837.0
834.0
835.0
835.0
835.0
836.0
837.0
837.0
836.0
836.0
833.0
831.0
833.0
833.0
831.0
831.0
836.0
837.0
838.0
844.0
845.0
844.0
846.0
848.0
848.0
851.0
853.0
856.0
858.0
862.0
867.0
870.0
871.0
875.0
877.0
879.0
880.0
879.0
883.0
889.0
891.0
892.0
897.0
901.0
903.0
905.0
904.0
901.0
900.0
899.0
896.0
894.0
896.0
897.0
896.0
896.0
892.0
888.0
884.0
881.0
877.0
875.0
872.0
871.0
870.0
869.0
871.0
870.0
867.0
867.0
865.0
862.0
860.0
857.0
858.0
861.0
861.0
861.0
865.0
868.0
867.0
865.0
865.0
865.0
865.0
864.0
863.0
864.0
865.0
867.0
870.0
871.0
874.0
873.0
872.0
872.0
871.0
873.0
871.0
871.0
872.0
875.0
876.0
880.0
878.0
879.0
879.0
877.0
875.0
875.0
876.0
877.0
879.0
879.0
881.0
882.0
881.0
882.0
880.0
880.0
878.0
876.0
876.0
877.0
881.0
881.0
884.0
886.0
886.0
883.0
882.0
879.0
877.0
877.0
878.0
878.0
881.0
881.0
886.0
887.0
885.0
884.0
884.0
881.0
881.0
883.0
882.0
880.0
882.0
882.0
886.0
888.0
887.0
885.0
885.0
884.0
882.0
882.0
884.0
881.0
882.0
887.0
887.0
888.0
888.0
885.0
884.0
881.0
881.0
883.0
880.0
880.0
883.0
886.0
886.0
889.0
887.0
888.0
884.0
884.0
882.0
881.0
883.0
883.0
886.0
885.0
887.0
885.0
889.0
885.0
887.0
884.0
882.0
883.0
882.0
882.0
881.0
881.0
885.0
886.0
887.0
887.0
886.0
886.0
883.0
882.0
881.0
880.0
882.0
887.0
887.0
886.0
888.0
886.0
884.0
884.0
881.0
883.0
882.0
883.0
885.0
886.0
887.0
888.0
887.0
886.0
886.0
883.0
882.0
881.0
881.0
881.0
885.0
885.0
885.0
888.0
890.0
890.0
887.0
886.0
885.0
885.0
882.0
884.0
883.0
887.0
889.0
890.0
890.0
888.0
890.0
889.0
889.0
889.0
887.0
886.0
887.0
892.0
893.0
896.0
898.0
900.0
900.0
900.0
899.0
897.0
898.0
895.0
895.0
894.0
896.0
899.0
897.0
895.0
896.0
893.0
896.0
899.0
901.0
903.0
903.0
900.0
899.0
901.0
896.0
893.0
888.0
885.0
881.0
881.0
880.0
882.0
882.0
884.0
883.0
887.0
885.0
886.0
885.0
881.0
878.0
875.0
874.0
876.0
879.0
886.0
901.0
920.0
941.0
955.0
966.0
969.0
958.0
934.0
903.0
873.0
857.0
863.0
890.0
937.0
988.0
1043.0
1095.0
1143.0
1186.0
1222.0
1253.0
1274.0
1286.0
1284.0
1273.0
1251.0
1221.0
1178.0
1130.0
1081.0
1028.0
977.0
930.0
889.0
858.0
844.0
837.0
838.0
845.0
850.0
857.0
859.0
859.0
859.0
860.0
861.0
864.0
866.0
866.0
865.0
867.0
865.0
863.0
862.0
862.0
860.0
861.0
861.0
863.0
861.0
863.0
866.0
863.0
865.0
864.0
861.0
860.0
858.0
859.0
859.0
861.0
862.0
862.0
860.0
860.0
863.0
860.0
857.0
855.0
853.0
853.0
852.0
853.0
856.0
857.0
857.0
856.0
856.0
853.0
850.0
851.0
848.0
847.0
846.0
847.0
847.0
848.0
848.0
846.0
843.0
842.0
839.0
836.0
835.0
835.0
834.0
834.0
834.0
835.0
834.0
832.0
830.0
831.0
828.0
825.0
822.0
821.0
823.0
824.0
825.0
827.0
830.0
829.0
828.0
827.0
827.0
824.0
827.0
827.0
830.0
834.0
837.0
840.0
843.0
845.0
848.0
850.0
849.0
852.0
854.0
855.0
860.0
864.0
868.0
874.0
879.0
880.0
881.0
882.0
885.0
886.0
888.0
890.0
892.0
896.0
899.0
899.0
903.0
901.0
900.0
897.0
896.0
895.0
891.0
888.0
888.0
889.0
891.0
890.0
889.0
887.0
887.0
883.0
880.0
878.0
874.0
873.0
872.0
872.0
874.0
875.0
876.0
875.0
875.0
873.0
871.0
869.0
868.0
867.0
871.0
869.0
874.0
875.0
876.0
876.0
877.0
875.0
874.0
870.0
871.0
873.0
875.0
875.0
878.0
880.0
880.0
880.0
880.0
881.0
879.0
875.0
874.0
875.0
875.0
877.0
880.0
882.0
883.0
884.0
882.0
883.0
882.0
883.0
882.0
881.0
878.0
879.0
882.0
885.0
887.0
886.0
886.0
885.0
884.0
881.0
882.0
883.0
881.0
881.0
884.0
886.0
886.0
884.0
887.0
888.0
883.0
884.0
882.0
881.0
882.0
887.0
885.0
887.0
886.0
886.0
887.0
887.0
886.0
883.0
883.0
884.0
883.0
884.0
886.0
888.0
889.0
889.0
888.0
887.0
887.0
886.0
885.0
881.0
883.0
886.0
887.0
885.0
890.0
891.0
891.0
887.0
886.0
886.0
885.0
887.0
887.0
887.0
886.0
888.0
892.0
893.0
892.0
890.0
890.0
888.0
889.0
889.0
888.0
889.0
889.0
891.0
893.0
893.0
893.0
888.0
886.0
890.0
888.0
888.0
886.0
885.0
890.0
889.0
892.0
893.0
890.0
889.0
887.0
887.0
884.0
887.0
888.0
889.0
888.0
891.0
893.0
891.0
892.0
891.0
890.0
890.0
887.0
886.0
887.0
888.0
890.0
890.0
893.0
892.0
894.0
893.0
895.0
892.0
889.0
890.0
890.0
892.0
893.0
896.0
896.0
895.0
894.0
893.0
891.0
889.0
889.0
888.0
887.0
888.0
892.0
895.0
898.0
899.0
900.0
899.0
897.0
894.0
895.0
894.0
897.0
898.0
901.0
903.0
907.0
907.0
909.0
908.0
907.0
907.0
906.0
903.0
904.0
902.0
902.0
903.0
904.0
904.0
902.0
902.0
901.0
902.0
904.0
906.0
909.0
913.0
913.0
913.0
911.0
908.0
902.0
899.0
896.0
893.0
892.0
891.0
889.0
892.0
894.0
895.0
897.0
896.0
898.0
897.0
893.0
892.0
888.0
887.0
889.0
899.0
914.0
930.0
949.0
962.0
972.0
975.0
974.0
958.0
937.0
910.0
890.0
886.0
901.0
941.0
989.0
1040.0
1092.0
1139.0
1186.0
1221.0
1258.0
1295.0
1325.0
1345.0
1350.0
1346.0
1329.0
1297.0
1257.0
1209.0
1161.0
1115.0
1073.0
1031.0
990.0
948.0
908.0
879.0
860.0
849.0
846.0
843.0
848.0
850.0
851.0
855.0
863.0
865.0
868.0
871.0
872.0
872.0
870.0
869.0
865.0
866.0
865.0
864.0
863.0
865.0
866.0
869.0
871.0
869.0
869.0
869.0
864.0
862.0
861.0
862.0
865.0
865.0
865.0
868.0
868.0
869.0
868.0
866.0
864.0
864.0
863.0
863.0
862.0
864.0
864.0
864.0
865.0
865.0
864.0
861.0
859.0
857.0
856.0
854.0
855.0
854.0
852.0
853.0
860.0
858.0
857.0
855.0
853.0
851.0
851.0
848.0
850.0
850.0
852.0
850.0
850.0
850.0
849.0
845.0
843.0
841.0
843.0
842.0
841.0
839.0
841.0
844.0
845.0
845.0
844.0
842.0
839.0
841.0
840.0
840.0
843.0
844.0
845.0
850.0
852.0
852.0
855.0
856.0
857.0
858.0
859.0
863.0
865.0
868.0
872.0
878.0
881.0
886.0
887.0
886.0
888.0
889.0
892.0
893.0
895.0
898.0
902.0
905.0
909.0
910.0
909.0
910.0
910.0
908.0
907.0
909.0
909.0
908.0
907.0
910.0
908.0
908.0
905.0
904.0
899.0
896.0
895.0
891.0
891.0
889.0
887.0
889.0
888.0
884.0
884.0
882.0
879.0
877.0
875.0
872.0
871.0
872.0
871.0
873.0
874.0
871.0
870.0
870.0
872.0
870.0
868.0
868.0
870.0
871.0
872.0
875.0
878.0
877.0
877.0
877.0
877.0
874.0
877.0
877.0
877.0
879.0
879.0
881.0
885.0
884.0
885.0
884.0
883.0
883.0
882.0
884.0
884.0
886.0
885.0
887.0
891.0
890.0
885.0
887.0
886.0
884.0
886.0
888.0
889.0
890.0
893.0
890.0
893.0
893.0
894.0
894.0
893.0
891.0
891.0
892.0
890.0
893.0
895.0
895.0
899.0
900.0
899.0
897.0
897.0
895.0
897.0
895.0
894.0
897.0
899.0
897.0
901.0
900.0
902.0
900.0
898.0
894.0
894.0
893.0
894.0
895.0
899.0
901.0
903.0
903.0
903.0
902.0
900.0
898.0
899.0
899.0
898.0
899.0
901.0
900.0
902.0
904.0
903.0
903.0
901.0
901.0
899.0
899.0
900.0
902.0
905.0
906.0
906.0
905.0
904.0
904.0
904.0
902.0
901.0
903.0
903.0
905.0
903.0
906.0
909.0
909.0
907.0
906.0
905.0
905.0
904.0
902.0
901.0
901.0
906.0
904.0
907.0
905.0
907.0
907.0
905.0
905.0
904.0
904.0
903.0
902.0
905.0
905.0
909.0
910.0
908.0
910.0
907.0
905.0
904.0
903.0
903.0
906.0
906.0
909.0
910.0
911.0
910.0
910.0
909.0
910.0
909.0
909.0
