# Simple Text Format
# Sampling Rate (Hz):= 360.00
# Resolution:= 12
# Labels:= ECG
930.0
927.0
926.0
929.0
931.0
937.0
937.0
937.0
935.0
939.0
941.0
947.0
953.0
952.0
951.0
952.0
957.0
963.0
963.0
965.0
967.0
971.0
974.0
979.0
983.0
983.0
978.0
974.0
973.0
975.0
970.0
961.0
952.0
948.0
942.0
941.0
939.0
933.0
926.0
924.0
924.0
928.0
929.0
928.0
925.0
922.0
923.0
925.0
924.0
921.0
918.0
918.0
919.0
926.0
927.0
925.0
921.0
920.0
923.0
924.0
929.0
931.0
926.0
931.0
936.0
941.0
949.0
958.0
970.0
993.0
1031.0
1079.0
1133.0
1184.0
1226.0
1251.0
1245.0
1197.0
1111.0
1014.0
933.0
880.0
870.0
881.0
892.0
892.0
884.0
878.0
873.0
869.0
866.0
862.0
860.0
864.0
868.0
874.0
871.0
864.0
862.0
858.0
861.0
867.0
877.0
888.0
892.0
900.0
911.0
923.0
936.0
945.0
954.0
960.0
968.0
973.0
980.0
979.0
980.0
979.0
982.0
986.0
989.0
989.0
991.0
991.0
994.0
998.0
1003.0
1003.0
1002.0
1002.0
1004.0
1011.0
1014.0
1016.0
1013.0
1015.0
1017.0
1023.0
1026.0
1025.0
1027.0
1027.0
1033.0
1042.0
1048.0
1051.0
1049.0
1051.0
1055.0
1061.0
1067.0
1068.0
1071.0
1070.0
1077.0
1080.0
1087.0
1084.0
1082.0
1085.0
1088.0
1092.0
1095.0
1095.0
1096.0
1093.0
1093.0
1093.0
1089.0
1083.0
1078.0
1072.0
1067.0
1066.0
1064.0
1059.0
1050.0
1042.0
1038.0
1034.0
1030.0
1025.0
1020.0
1014.0
1011.0
1010.0
1009.0
1005.0
996.0
989.0
988.0
989.0
989.0
987.0
981.0
978.0
979.0
980.0
979.0
977.0
975.0
971.0
973.0
975.0
980.0
980.0
979.0
978.0
978.0
980.0
979.0
980.0
978.0
979.0
978.0
985.0
986.0
984.0
983.0
977.0
978.0
977.0
980.0
981.0
981.0
982.0
984.0
983.0
983.0
981.0
977.0
976.0
977.0
983.0
984.0
982.0
982.0
981.0
982.0
983.0
983.0
986.0
989.0
991.0
997.0
1006.0
1008.0
1009.0
1006.0
1007.0
1012.0
1018.0
1023.0
1024.0
1024.0
1026.0
1029.0
1031.0
1028.0
1026.0
1022.0
1020.0
1018.0
1016.0
1009.0
1002.0
991.0
986.0
983.0
982.0
975.0
974.0
969.0
968.0
970.0
969.0
972.0
970.0
962.0
959.0
961.0
962.0
960.0
961.0
961.0
960.0
966.0
967.0
965.0
963.0
959.0
958.0
963.0
966.0
967.0
972.0
969.0
972.0
976.0
983.0
992.0
1004.0
1020.0
1050.0
1088.0
1139.0
1189.0
1237.0
1277.0
1299.0
1280.0
1220.0
1127.0
1024.0
946.0
906.0
904.0
919.0
926.0
924.0
915.0
911.0
902.0
901.0
898.0
893.0
891.0
896.0
900.0
900.0
895.0
892.0
887.0
891.0
899.0
913.0
923.0
929.0
935.0
939.0
950.0
963.0
976.0
984.0
988.0
993.0
998.0
1005.0
1009.0
1009.0
1006.0
1001.0
1005.0
1010.0
1015.0
1016.0
1014.0
1014.0
1018.0
1023.0
1022.0
1022.0
1020.0
1021.0
1024.0
1029.0
1033.0
1034.0
1032.0
1033.0
1035.0
1036.0
1041.0
1042.0
1042.0
1041.0
1047.0
1055.0
1060.0
1060.0
1060.0
1057.0
1062.0
1068.0
1073.0
1076.0
1077.0
1080.0
1085.0
1090.0
1094.0
1092.0
1090.0
1090.0
1094.0
1101.0
1105.0
1102.0
1096.0
1095.0
1090.0
1093.0
1090.0
1086.0
1076.0
1072.0
1071.0
1067.0
1062.0
1056.0
1046.0
1041.0
1037.0
1033.0
1029.0
1026.0
1020.0
1013.0
1010.0
1011.0
1007.0
1002.0
996.0
992.0
989.0
989.0
990.0
989.0
983.0
983.0
982.0
982.0
979.0
977.0
973.0
971.0
972.0
977.0
981.0
979.0
977.0
974.0
970.0
971.0
973.0
974.0
974.0
975.0
979.0
980.0
979.0
978.0
973.0
974.0
973.0
975.0
977.0
977.0
977.0
975.0
977.0
979.0
979.0
979.0
972.0
973.0
976.0
979.0
981.0
979.0
974.0
976.0
973.0
975.0
976.0
975.0
973.0
973.0
974.0
979.0
980.0
980.0
975.0
974.0
980.0
983.0
988.0
992.0
991.0
997.0
1000.0
1003.0
1006.0
1007.0
1005.0
1010.0
1017.0
1022.0
1028.0
1030.0
1028.0
1028.0
1027.0
1028.0
1022.0
1018.0
1014.0
1007.0
1006.0
999.0
994.0
983.0
979.0
973.0
970.0
969.0
968.0
967.0
965.0
964.0
963.0
965.0
964.0
960.0
955.0
954.0
956.0
960.0
964.0
962.0
961.0
958.0
955.0
959.0
962.0
957.0
952.0
952.0
956.0
959.0
962.0
961.0
960.0
960.0
967.0
976.0
990.0
1008.0
1034.0
1074.0
1122.0
1179.0
1231.0
1269.0
1286.0
1260.0
1195.0
1105.0
1012.0
941.0
905.0
901.0
914.0
919.0
912.0
906.0
898.0
891.0
888.0
888.0
888.0
888.0
888.0
886.0
885.0
885.0
884.0
883.0
882.0
886.0
900.0
910.0
918.0
923.0
930.0
939.0
954.0
969.0
979.0
983.0
984.0
984.0
985.0
989.0
988.0
989.0
988.0
992.0
996.0
997.0
999.0
996.0
994.0
993.0
996.0
1000.0
1004.0
1006.0
1005.0
1003.0
1006.0
1009.0
1012.0
1009.0
1009.0
1008.0
1012.0
1018.0
1023.0
1021.0
1022.0
1022.0
1024.0
1032.0
1034.0
1034.0
1034.0
1039.0
1045.0
1049.0
1051.0
1051.0
1050.0
1051.0
1052.0
1059.0
1065.0
1067.0
1062.0
1061.0
1059.0
1056.0
1056.0
1055.0
1048.0
1044.0
1039.0
1038.0
1031.0
1027.0
1017.0
1009.0
1004.0
1002.0
1002.0
997.0
990.0
985.0
979.0
975.0
971.0
967.0
960.0
959.0
956.0
957.0
961.0
955.0
948.0
947.0
946.0
947.0
950.0
944.0
946.0
946.0
948.0
950.0
949.0
946.0
943.0
942.0
945.0
948.0
952.0
952.0
947.0
947.0
945.0
948.0
948.0
947.0
945.0
944.0
949.0
953.0
954.0
951.0
947.0
944.0
946.0
950.0
951.0
952.0
947.0
944.0
944.0
943.0
944.0
943.0
940.0
940.0
944.0
949.0
946.0
943.0
945.0
943.0
947.0
950.0
958.0
962.0
963.0
963.0
969.0
970.0
972.0
974.0
974.0
980.0
986.0
993.0
995.0
995.0
991.0
989.0
985.0
983.0
980.0
973.0
965.0
957.0
950.0
949.0
949.0
942.0
934.0
931.0
931.0
932.0
936.0
933.0
927.0
928.0
925.0
928.0
925.0
924.0
925.0
925.0
929.0
926.0
930.0
927.0
925.0
924.0
927.0
931.0
934.0
936.0
938.0
938.0
941.0
947.0
954.0
963.0
985.0
1018.0
1067.0
1122.0
1177.0
1227.0
1254.0
1244.0
1188.0
1101.0
1008.0
928.0
882.0
872.0
884.0
895.0
896.0
884.0
874.0
866.0
859.0
861.0
859.0
863.0
862.0
860.0
858.0
857.0
854.0
852.0
849.0
856.0
867.0
875.0
883.0
888.0
896.0
906.0
920.0
932.0
943.0
952.0
955.0
954.0
956.0
959.0
959.0
962.0
963.0
963.0
969.0
974.0
973.0
975.0
974.0
972.0
972.0
978.0
979.0
980.0
982.0
985.0
987.0
993.0
997.0
997.0
994.0
994.0
997.0
1001.0
1006.0
1009.0
1011.0
1011.0
1013.0
1020.0
1021.0
1017.0
1022.0
1025.0
1031.0
1036.0
1042.0
1041.0
1041.0
1042.0
1046.0
1052.0
1058.0
1060.0
1060.0
1059.0
1059.0
1059.0
1058.0
1051.0
1049.0
1044.0
1043.0
1042.0
1042.0
1032.0
1025.0
1018.0
1012.0
1007.0
1006.0
998.0
991.0
988.0
986.0
984.0
982.0
975.0
967.0
963.0
961.0
956.0
959.0
956.0
953.0
953.0
951.0
953.0
949.0
951.0
945.0
944.0
945.0
952.0
954.0
951.0
947.0
946.0
946.0
944.0
948.0
952.0
949.0
949.0
953.0
955.0
956.0
951.0
949.0
948.0
953.0
956.0
959.0
959.0
956.0
951.0
955.0
956.0
956.0
953.0
954.0
953.0
953.0
958.0
959.0
958.0
958.0
957.0
957.0
962.0
970.0
974.0
974.0
974.0
976.0
982.0
982.0
984.0
984.0
984.0
994.0
1002.0
1008.0
1008.0
1006.0
1002.0
1003.0
1004.0
1004.0
1003.0
998.0
988.0
985.0
981.0
974.0
967.0
958.0
954.0
958.0
961.0
962.0
957.0
955.0
953.0
952.0
952.0
953.0
953.0
951.0
951.0
954.0
955.0
956.0
954.0
952.0
951.0
956.0
961.0
966.0
965.0
963.0
963.0
967.0
974.0
981.0
992.0
1008.0
1043.0
1088.0
1144.0
1201.0
1250.0
1282.0
1282.0
1241.0
1165.0
1068.0
980.0
919.0
898.0
909.0
920.0
925.0
916.0
908.0
902.0
897.0
895.0
898.0
897.0
896.0
894.0
891.0
892.0
893.0
895.0
896.0
904.0
915.0
925.0
931.0
940.0
948.0
961.0
978.0
991.0
997.0
1000.0
1002.0
1001.0
1005.0
1009.0
1013.0
1017.0
1017.0
1016.0
1019.0
1026.0
1027.0
1025.0
1023.0
1024.0
1029.0
1034.0
1037.0
1040.0
1037.0
1035.0
1037.0
1045.0
1048.0
1050.0
1049.0
1053.0
1057.0
1063.0
1066.0
1064.0
1063.0
1065.0
1072.0
1079.0
1085.0
1087.0
1087.0
1089.0
1090.0
1095.0
1096.0
1093.0
1097.0
1099.0
1103.0
1109.0
1110.0
1109.0
1103.0
1102.0
1103.0
1101.0
1099.0
1095.0
1086.0
1083.0
1079.0
1075.0
1070.0
1060.0
1050.0
1043.0
1043.0
1042.0
1037.0
1030.0
1023.0
1019.0
1017.0
1018.0
1014.0
1010.0
1009.0
1005.0
1003.0
1002.0
1000.0
993.0
991.0
990.0
991.0
991.0
990.0
990.0
989.0
985.0
985.0
987.0
988.0
985.0
987.0
983.0
988.0
990.0
994.0
989.0
985.0
983.0
982.0
989.0
989.0
990.0
987.0
988.0
988.0
988.0
987.0
987.0
983.0
985.0
986.0
989.0
990.0
991.0
987.0
986.0
984.0
986.0
988.0
986.0
982.0
983.0
983.0
986.0
988.0
983.0
982.0
982.0
986.0
989.0
994.0
997.0
1001.0
1001.0
1002.0
1005.0
1008.0
1010.0
1011.0
1016.0
1021.0
1031.0
1030.0
1028.0
1028.0
1024.0
1023.0
1024.0
1026.0
1021.0
1016.0
1008.0
1003.0
997.0
991.0
984.0
979.0
974.0
976.0
974.0
977.0
976.0
973.0
971.0
970.0
969.0
970.0
970.0
966.0
966.0
967.0
967.0
968.0
969.0
965.0
966.0
964.0
966.0
969.0
974.0
971.0
972.0
972.0
975.0
980.0
982.0
984.0
993.0
1012.0
1040.0
1073.0
1117.0
1167.0
1219.0
1267.0
1301.0
1303.0
1260.0
1178.0
1079.0
992.0
935.0
918.0
918.0
927.0
928.0
924.0
921.0
917.0
908.0
901.0
899.0
898.0
902.0
907.0
903.0
897.0
899.0
900.0
905.0
913.0
919.0
923.0
927.0
936.0
946.0
959.0
976.0
984.0
991.0
998.0
1004.0
1003.0
1003.0
1003.0
1002.0
1006.0
1014.0
1017.0
1019.0
1016.0
1014.0
1017.0
1020.0
1023.0
1027.0
1025.0
1025.0
1028.0
1033.0
1037.0
1032.0
1031.0
1031.0
1037.0
1042.0
1048.0
1051.0
1048.0
1052.0
1054.0
1057.0
1062.0
1063.0
1065.0
1067.0
1072.0
1079.0
1084.0
1081.0
1083.0
1083.0
1086.0
1094.0
1100.0
1101.0
1100.0
1098.0
1100.0
1097.0
1098.0
1095.0
1090.0
1085.0
1084.0
1082.0
1073.0
1069.0
1058.0
1053.0
1048.0
1048.0
1043.0
1036.0
1031.0
1023.0
1019.0
1014.0
1012.0
1004.0
999.0
998.0
994.0
999.0
995.0
991.0
990.0
984.0
984.0
983.0
983.0
981.0
981.0
981.0
980.0
983.0
983.0
983.0
978.0
977.0
981.0
983.0
985.0
983.0
979.0
976.0
976.0
980.0
983.0
982.0
980.0
977.0
981.0
983.0
982.0
982.0
978.0
976.0
979.0
985.0
986.0
985.0
980.0
977.0
979.0
980.0
982.0
980.0
978.0
975.0
978.0
982.0
983.0
979.0
975.0
973.0
977.0
983.0
988.0
991.0
991.0
993.0
995.0
999.0
1003.0
1001.0
1004.0
1007.0
1015.0
1023.0
1026.0
1024.0
1022.0
1024.0
1023.0
1023.0
1023.0
1022.0
1016.0
1009.0
1003.0
995.0
989.0
979.0
976.0
973.0
973.0
976.0
973.0
970.0
964.0
962.0
960.0
961.0
963.0
957.0
960.0
958.0
957.0
960.0
958.0
954.0
953.0
954.0
957.0
961.0
963.0
961.0
960.0
956.0
959.0
963.0
967.0
971.0
977.0
992.0
1021.0
1060.0
1103.0
1156.0
1206.0
1254.0
1288.0
1286.0
1238.0
1143.0
1039.0
948.0
901.0
895.0
911.0
917.0
913.0
906.0
901.0
896.0
892.0
885.0
880.0
881.0
883.0
888.0
887.0
885.0
881.0
879.0
882.0
889.0
896.0
902.0
903.0
913.0
924.0
938.0
953.0
965.0
970.0
970.0
972.0
975.0
979.0
982.0
981.0
983.0
985.0
989.0
992.0
990.0
990.0
989.0
992.0
998.0
1002.0
1002.0
1000.0
999.0
1002.0
1004.0
1005.0
1006.0
1007.0
1007.0
1013.0
1017.0
1021.0
1021.0
1018.0
1019.0
1018.0
1027.0
1033.0
1035.0
1033.0
1036.0
1036.0
1040.0
1048.0
1047.0
1047.0
1050.0
1054.0
1061.0
1063.0
1063.0
1063.0
1060.0
1060.0
1060.0
1066.0
1061.0
1058.0
1054.0
1051.0
1050.0
1046.0
1037.0
1026.0
1018.0
1015.0
1014.0
1010.0
1005.0
999.0
992.0
988.0
987.0
982.0
977.0
969.0
967.0
966.0
965.0
964.0
957.0
951.0
944.0
942.0
945.0
946.0
945.0
941.0
940.0
941.0
944.0
943.0
940.0
935.0
935.0
940.0
944.0
944.0
940.0
937.0
936.0
937.0
940.0
942.0
941.0
938.0
938.0
941.0
943.0
946.0
940.0
936.0
935.0
939.0
941.0
942.0
942.0
941.0
937.0
937.0
936.0
937.0
938.0
932.0
934.0
934.0
938.0
937.0
937.0
933.0
932.0
934.0
937.0
942.0
945.0
946.0
948.0
953.0
954.0
957.0
956.0
954.0
956.0
963.0
970.0
974.0
978.0
974.0
973.0
975.0
977.0
976.0
972.0
970.0
966.0
963.0
959.0
948.0
940.0
932.0
927.0
930.0
932.0
933.0
927.0
927.0
923.0
922.0
924.0
923.0
921.0
917.0
917.0
920.0
923.0
923.0
922.0
917.0
916.0
921.0
923.0
926.0
925.0
930.0
927.0
929.0
933.0
933.0
935.0
936.0
942.0
958.0
977.0
1007.0
1046.0
1093.0
1146.0
1195.0
1233.0
1245.0
1217.0
1139.0
1044.0
959.0
900.0
877.0
881.0
888.0
884.0
882.0
878.0
875.0
870.0
860.0
856.0
858.0
862.0
863.0
859.0
858.0
855.0
854.0
857.0
861.0
868.0
874.0
876.0
888.0
900.0
914.0
925.0
938.0
942.0
950.0
952.0
955.0
959.0
959.0
961.0
966.0
969.0
971.0
973.0
971.0
967.0
973.0
977.0
979.0
982.0
982.0
983.0
983.0
992.0
995.0
991.0
989.0
991.0
993.0
1000.0
1003.0
1008.0
1007.0
1005.0
1010.0
1011.0
1016.0
1015.0
1013.0
1021.0
1027.0
1033.0
1035.0
1036.0
1035.0
1037.0
1040.0
1045.0
1051.0
1055.0
1056.0
1059.0
1060.0
1064.0
1066.0
1063.0
1058.0
1056.0
1055.0
1054.0
1053.0
1047.0
1042.0
1035.0
1030.0
1023.0
1022.0
1017.0
1008.0
1001.0
996.0
999.0
994.0
989.0
981.0
978.0
971.0
970.0
971.0
972.0
964.0
957.0
958.0
956.0
958.0
954.0
949.0
949.0
950.0
953.0
953.0
952.0
947.0
944.0
944.0
952.0
956.0
953.0
952.0
953.0
955.0
955.0
955.0
955.0
949.0
951.0
951.0
956.0
959.0
958.0
954.0
953.0
956.0
959.0
959.0
958.0
958.0
957.0
962.0
963.0
965.0
962.0
957.0
955.0
960.0
963.0
965.0
965.0
963.0
962.0
963.0
965.0
965.0
965.0
964.0
968.0
975.0
980.0
987.0
983.0
984.0
984.0
987.0
995.0
999.0
1002.0
1004.0
1011.0
1014.0
1018.0
1015.0
1014.0
1012.0
1010.0
1011.0
1010.0
1010.0
1000.0
993.0
983.0
979.0
975.0
972.0
970.0
966.0
962.0
965.0
968.0
968.0
964.0
962.0
959.0
960.0
962.0
965.0
962.0
960.0
962.0
963.0
966.0
965.0
963.0
961.0
962.0
965.0
969.0
972.0
972.0
971.0
970.0
973.0
977.0
979.0
986.0
994.0
1008.0
1033.0
1071.0
1115.0
1166.0
1215.0
1262.0
1298.0
1313.0
1288.0
1218.0
1126.0
1037.0
966.0
926.0
915.0
922.0
928.0
926.0
921.0
920.0
918.0
913.0
906.0
902.0
902.0
909.0
911.0
906.0
903.0
900.0
906.0
908.0
916.0
923.0
925.0
930.0
939.0
950.0
960.0
971.0
979.0
990.0
1001.0
1007.0
1014.0
1014.0
1012.0
1010.0
1013.0
1015.0
1024.0
1025.0
1024.0
1026.0
1030.0
1031.0
1032.0
1031.0
1028.0
1032.0
1031.0
1040.0
1041.0
1043.0
1039.0
1040.0
1041.0
1043.0
1047.0
1047.0
1047.0
1050.0
1055.0
1059.0
1063.0
1061.0
1062.0
1060.0
1065.0
1075.0
1078.0
1079.0
1081.0
1083.0
1091.0
1093.0
1097.0
1095.0
1092.0
1098.0
1103.0
1109.0
1115.0
1114.0
1114.0
1113.0
1111.0
1112.0
1112.0
1109.0
1106.0
1101.0
1099.0
1098.0
1096.0
1086.0
1078.0
1072.0
1063.0
1064.0
1061.0
1058.0
1052.0
1046.0
1040.0
1038.0
1038.0
1032.0
1027.0
1020.0
1019.0
1019.0
1019.0
1015.0
1009.0
1007.0
1006.0
1007.0
1005.0
1003.0
1000.0
998.0
1002.0
1005.0
1006.0
1003.0
1000.0
998.0
998.0
1006.0
1004.0
1001.0
1003.0
1002.0
1004.0
1005.0
1004.0
1001.0
999.0
1000.0
999.0
1005.0
1009.0
1005.0
1005.0
1005.0
1006.0
1007.0
1007.0
1005.0
1003.0
1000.0
1003.0
1010.0
1009.0
1009.0
1002.0
1002.0
1002.0
1005.0
1007.0
1005.0
1002.0
1001.0
1004.0
1009.0
1009.0
1005.0
1000.0
997.0
1001.0
1001.0
1008.0
1007.0
1005.0
1007.0
1013.0
1017.0
1022.0
1023.0
1019.0
1019.0
1025.0
1031.0
1036.0
1037.0
1039.0
1039.0
1041.0
1047.0
1050.0
1047.0
1045.0
1047.0
1049.0
1051.0
1051.0
1047.0
1039.0
1029.0
1024.0
1019.0
1016.0
1012.0
1006.0
1002.0
1003.0
1004.0
1002.0
995.0
995.0
993.0
992.0
995.0
997.0
996.0
992.0
991.0
992.0
992.0
993.0
989.0
985.0
985.0
988.0
992.0
994.0
994.0
994.0
993.0
994.0
995.0
996.0
997.0
1000.0
999.0
1012.0
1021.0
1034.0
1050.0
1075.0
1109.0
1156.0
1208.0
1258.0
1301.0
1326.0
1323.0
1283.0
1208.0
1115.0
1029.0
966.0
935.0
934.0
949.0
955.0
952.0
942.0
936.0
929.0
921.0
918.0
917.0
921.0
922.0
923.0
928.0
927.0
922.0
918.0
917.0
922.0
934.0
941.0
946.0
953.0
960.0
971.0
984.0
995.0
1004.0
1007.0
1011.0
1016.0
1021.0
1023.0
1024.0
1025.0
1027.0
1031.0
1031.0
1035.0
1032.0
1029.0
1029.0
1032.0
1037.0
1041.0
1042.0
1044.0
1043.0
1043.0
1049.0
1049.0
1050.0
1048.0
1050.0
1057.0
1061.0
1062.0
1066.0
1061.0
1062.0
1065.0
1067.0
1074.0
1077.0
1075.0
1077.0
1080.0
1087.0
1091.0
1090.0
1092.0
1093.0
1098.0
1102.0
1109.0
1109.0
1109.0
1112.0
1114.0
1116.0
1117.0
1116.0
1115.0
1115.0
1118.0
1121.0
1121.0
1117.0
1114.0
1108.0
1104.0
1102.0
1097.0
1093.0
1087.0
1083.0
1079.0
1077.0
1073.0
1066.0
1060.0
1054.0
1049.0
1046.0
1044.0
1037.0
1034.0
1032.0
1031.0
1030.0
1026.0
1021.0
1014.0
1012.0
1010.0
1009.0
1014.0
1011.0
1011.0
1010.0
1009.0
1011.0
1009.0
1006.0
1001.0
999.0
1005.0
1008.0
1012.0
1007.0
1006.0
1006.0
1004.0
1007.0
1009.0
1006.0
1005.0
1007.0
1006.0
1012.0
1013.0
1011.0
1009.0
1007.0
1007.0
1009.0
1010.0
1012.0
1010.0
1011.0
1012.0
1015.0
1014.0
1012.0
1007.0
1006.0
1007.0
1009.0
1011.0
1011.0
1009.0
1009.0
1010.0
1012.0
1011.0
1010.0
1009.0
1006.0
1011.0
1011.0
1013.0
1008.0
1006.0
1005.0
1007.0
1008.0
1009.0
1008.0
1009.0
1012.0
1016.0
1023.0
1030.0
1030.0
1028.0
1025.0
1027.0
1030.0
1037.0
1041.0
1041.0
1045.0
1050.0
1057.0
1059.0
1056.0
1056.0
1054.0
1056.0
1057.0
1055.0
1052.0
1046.0
1037.0
1029.0
1024.0
1020.0
1014.0
1009.0
1005.0
1007.0
1008.0
1008.0
1002.0
998.0
992.0
995.0
996.0
996.0
992.0
989.0
986.0
991.0
994.0
993.0
992.0
984.0
982.0
985.0
990.0
994.0
994.0
993.0
993.0
995.0
999.0
998.0
997.0
995.0
1001.0
1014.0
1030.0
1048.0
1077.0
1115.0
1161.0
1217.0
1273.0
1311.0
1322.0
1295.0
1220.0
1127.0
1037.0
972.0
938.0
934.0
944.0
951.0
950.0
947.0
939.0
932.0
918.0
914.0
914.0
916.0
921.0
919.0
917.0
915.0
916.0
915.0
914.0
915.0
922.0
932.0
942.0
948.0
957.0
965.0
976.0
992.0
1004.0
1010.0
1011.0
1011.0
1011.0
1014.0
1019.0
1023.0
1025.0
1025.0
1023.0
1027.0
1026.0
1029.0
1029.0
1029.0
1030.0
1033.0
1040.0
1042.0
1039.0
1037.0
1034.0
1038.0
1043.0
1047.0
1047.0
1046.0
1047.0
1052.0
1054.0
1057.0
1057.0
1057.0
1057.0
1061.0
1067.0
1075.0
1076.0
1072.0
1074.0
1075.0
1079.0
1082.0
1085.0
1083.0
1088.0
1091.0
1097.0
1098.0
1099.0
1098.0
1096.0
1097.0
1101.0
1104.0
1099.0
1094.0
1093.0
1087.0
1088.0
1081.0
1074.0
1064.0
1059.0
1057.0
1055.0
1052.0
1047.0
1036.0
1030.0
1026.0
1026.0
1021.0
1015.0
1009.0
1004.0
1006.0
1007.0
1002.0
995.0
991.0
984.0
982.0
984.0
985.0
986.0
982.0
981.0
979.0
978.0
978.0
977.0
973.0
973.0
974.0
978.0
981.0
983.0
979.0
976.0
976.0
978.0
980.0
980.0
979.0
978.0
984.0
986.0
987.0
982.0
978.0
972.0
977.0
982.0
985.0
982.0
979.0
979.0
981.0
983.0
982.0
982.0
979.0
978.0
979.0
983.0
985.0
979.0
973.0
972.0
974.0
976.0
977.0
976.0
974.0
974.0
975.0
979.0
978.0
981.0
982.0
984.0
988.0
992.0
998.0
995.0
998.0
1001.0
1005.0
1008.0
1012.0
1013.0
1013.0
1013.0
1018.0
1022.0
1024.0
1021.0
1013.0
1007.0
997.0
997.0
993.0
986.0
976.0
972.0
971.0
973.0
971.0
968.0
962.0
959.0
958.0
960.0
959.0
959.0
954.0
954.0
958.0
955.0
958.0
951.0
949.0
948.0
950.0
955.0
956.0
956.0
953.0
953.0
948.0
955.0
955.0
954.0
955.0
956.0
961.0
968.0
971.0
981.0
992.0
1011.0
1048.0
1094.0
1144.0
1199.0
1244.0
1275.0
1282.0
1243.0
1159.0
1061.0
974.0
915.0
900.0
910.0
923.0
924.0
915.0
907.0
899.0
896.0
891.0
885.0
882.0
882.0
885.0
891.0
892.0
888.0
883.0
881.0
883.0
888.0
899.0
906.0
910.0
917.0
926.0
938.0
950.0
959.0
967.0
972.0
976.0
985.0
990.0
990.0
989.0
990.0
991.0
991.0
993.0
997.0
1001.0
999.0
1003.0
1004.0
1012.0
1011.0
1009.0
1006.0
1011.0
1014.0
1018.0
1019.0
1019.0
1021.0
1023.0
1026.0
1029.0
1027.0
1028.0
1030.0
1033.0
1040.0
1043.0
1046.0
1047.0
1045.0
1050.0
1054.0
1060.0
1063.0
1061.0
1067.0
1071.0
1074.0
1079.0
1078.0
1077.0
1078.0
1082.0
1086.0
1085.0
1087.0
1084.0
1081.0
1078.0
1075.0
1072.0
1065.0
1056.0
1056.0
1051.0
1046.0
1046.0
1037.0
1029.0
1023.0
1018.0
1017.0
1015.0
1011.0
1006.0
1000.0
1000.0
998.0
992.0
987.0
984.0
981.0
979.0
983.0
985.0
986.0
981.0
973.0
977.0
977.0
977.0
978.0
979.0
978.0
979.0
981.0
983.0
981.0
977.0
975.0
978.0
981.0
986.0
986.0
984.0
982.0
980.0
980.0
984.0
986.0
981.0
983.0
981.0
987.0
990.0
989.0
985.0
982.0
986.0
988.0
990.0
988.0
986.0
984.0
988.0
990.0
991.0
991.0
984.0
982.0
986.0
988.0
991.0
991.0
986.0
983.0
984.0
990.0
989.0
990.0
992.0
992.0
997.0
1004.0
1009.0
1007.0
1005.0
1004.0
1009.0
1016.0
1020.0
1026.0
1026.0
1028.0
1030.0
1038.0
1039.0
1039.0
1038.0
1034.0
1037.0
1039.0
1037.0
1028.0
1017.0
1007.0
1004.0
1001.0
998.0
995.0
991.0
990.0
988.0
991.0
990.0
987.0
982.0
981.0
983.0
990.0
992.0
988.0
983.0
980.0
980.0
983.0
985.0
983.0
984.0
986.0
987.0
992.0
994.0
992.0
991.0
994.0
998.0
1009.0
1022.0
1040.0
1067.0
1104.0
1156.0
1214.0
1268.0
1314.0
1334.0
1317.0
1248.0
1154.0
1052.0
972.0
930.0
926.0
944.0
953.0
951.0
944.0
936.0
928.0
922.0
919.0
920.0
923.0
923.0
920.0
922.0
921.0
921.0
922.0
925.0
934.0
943.0
954.0
963.0
976.0
986.0
998.0
1013.0
1021.0
1026.0
1027.0
1026.0
1028.0
1033.0
1038.0
1042.0
1040.0
1038.0
1038.0
1042.0
1044.0
1050.0
1048.0
1047.0
1051.0
1051.0
1053.0
1058.0
1060.0
1059.0
1060.0
1065.0
1070.0
1075.0
1075.0
1076.0
1077.0
1077.0
1084.0
1087.0
1091.0
1092.0
1095.0
1097.0
1101.0
1106.0
1105.0
1104.0
1106.0
1113.0
1120.0
1124.0
1125.0
1121.0
1125.0
1124.0
1125.0
1129.0
1127.0
1123.0
1122.0
1123.0
1125.0
1120.0
1112.0
1102.0
1095.0
1091.0
1088.0
1086.0
1080.0
1071.0
1066.0
1061.0
1056.0
1049.0
1044.0
1040.0
1037.0
1038.0
1038.0
1038.0
1033.0
1026.0
1020.0
1019.0
1020.0
1021.0
1015.0
1016.0
1016.0
1015.0
1017.0
1015.0
1014.0
1006.0
1007.0
1011.0
1014.0
1017.0
1016.0
1012.0
1010.0
1008.0
1010.0
1015.0
1013.0
1011.0
1014.0
1015.0
1016.0
1016.0
1013.0
1012.0
1012.0
1015.0
1019.0
1019.0
1019.0
1016.0
1014.0
1014.0
1015.0
1016.0
1014.0
1009.0
1013.0
1015.0
1018.0
1017.0
1016.0
1011.0
1012.0
1010.0
1014.0
1012.0
1013.0
1011.0
1011.0
1013.0
1014.0
1015.0
1011.0
1010.0
1007.0
1010.0
1016.0
1023.0
1023.0
1023.0
1025.0
1028.0
1027.0
1032.0
1037.0
1038.0
1042.0
1045.0
1053.0
1059.0
1056.0
1057.0
1058.0
1056.0
1058.0
1061.0
1058.0
1053.0
1045.0
1042.0
1035.0
1026.0
1017.0
1010.0
1006.0
1005.0
1010.0
1007.0
1005.0
999.0
996.0
994.0
997.0
998.0
997.0
997.0
993.0
993.0
996.0
994.0
991.0
991.0
987.0
992.0
993.0
997.0
996.0
994.0
994.0
996.0
1002.0
1005.0
1012.0
1020.0
1032.0
1057.0
1091.0
1135.0
1184.0
1235.0
1293.0
1334.0
1342.0
1302.0
1210.0
1106.0
1012.0
952.0
938.0
945.0
957.0
955.0
948.0
942.0
939.0
933.0
923.0
920.0
920.0
926.0
931.0
930.0
926.0
923.0
924.0
928.0
938.0
945.0
951.0
955.0
969.0
981.0
1001.0
1012.0
1020.0
1018.0
1019.0
1024.0
1028.0
1029.0
1035.0
1033.0
1034.0
1038.0
1041.0
1041.0
1040.0
1038.0
1041.0
1047.0
1051.0
1053.0
1051.0
1048.0
1049.0
1049.0
1054.0
1059.0
1060.0
1064.0
1065.0
1070.0
1076.0
1076.0
1077.0
1077.0
1080.0
1084.0
1092.0
1098.0
1096.0
1095.0
1095.0
1102.0
1109.0
1115.0
1114.0
1116.0
1111.0
1117.0
1122.0
1122.0
1123.0
1121.0
1120.0
1121.0
1123.0
1121.0
1112.0
1103.0
1099.0
1093.0
1089.0
1086.0
1079.0
1071.0
1065.0
1061.0
1058.0
1056.0
1045.0
1036.0
1031.0
1027.0
1030.0
1030.0
1026.0
1018.0
1012.0
1009.0
1009.0
1007.0
1008.0
1002.0
1001.0
1002.0
1001.0
1001.0
999.0
994.0
993.0
999.0
999.0
1000.0
1001.0
996.0
996.0
993.0
999.0
1002.0
997.0
998.0
996.0
1000.0
1002.0
1002.0
999.0
995.0
997.0
998.0
1002.0
1004.0
1004.0
1002.0
997.0
999.0
998.0
999.0
996.0
993.0
993.0
996.0
999.0
1000.0
998.0
995.0
992.0
992.0
993.0
993.0
993.0
992.0
991.0
992.0
997.0
996.0
990.0
987.0
986.0
990.0
995.0
995.0
994.0
991.0
988.0
989.0
991.0
1001.0
1002.0
1003.0
1009.0
1010.0
1013.0
1017.0
1017.0
1015.0
1015.0
1023.0
1031.0
1036.0
1042.0
1038.0
1038.0
1036.0
1038.0
1037.0
1034.0
1029.0
1025.0
1020.0
1017.0
1011.0
1003.0
994.0
989.0
986.0
987.0
990.0
987.0
983.0
982.0
982.0
977.0
977.0
975.0
970.0
973.0
975.0
980.0
980.0
977.0
974.0
972.0
972.0
972.0
974.0
975.0
976.0
977.0
978.0
983.0
987.0
986.0
986.0
994.0
1011.0
1038.0
1074.0
1123.0
1175.0
1225.0
1275.0
1309.0
1305.0
1249.0
1165.0
1070.0
988.0
939.0
921.0
925.0
931.0
927.0
922.0
918.0
913.0
903.0
898.0
898.0
900.0
906.0
904.0
897.0
894.0
891.0
890.0
899.0
910.0
917.0
919.0
924.0
933.0
949.0
962.0
970.0
980.0
987.0
993.0
998.0
998.0
997.0
993.0
998.0
1001.0
1003.0
1009.0
1008.0
1006.0
1004.0
1007.0
1010.0
1013.0
1014.0
1014.0
1014.0
1018.0
1020.0
1024.0
1021.0
1017.0
1019.0
1024.0
1029.0
1033.0
1036.0
1037.0
1040.0
1042.0
1047.0
1048.0
1051.0
1052.0
1055.0
1063.0
1067.0
1067.0
1066.0
1066.0
1070.0
1072.0
1078.0
1083.0
1084.0
1081.0
1083.0
1084.0
1085.0
1083.0
1079.0
1077.0
1071.0
1067.0
1065.0
1062.0
1052.0
1043.0
1037.0
1029.0
1029.0
1031.0
1026.0
1016.0
1008.0
1004.0
999.0
996.0
990.0
986.0
981.0
982.0
982.0
981.0
975.0
969.0
965.0
965.0
964.0
968.0
968.0
962.0
963.0
961.0
964.0
964.0
961.0
959.0
961.0
965.0
969.0
966.0
964.0
957.0
959.0
962.0
965.0
967.0
971.0
966.0
965.0
962.0
963.0
967.0
963.0
964.0
963.0
964.0
968.0
970.0
966.0
963.0
962.0
960.0
965.0
968.0
969.0
966.0
961.0
962.0
962.0
960.0
963.0
962.0
961.0
960.0
966.0
970.0
970.0
967.0
968.0
976.0
981.0
986.0
985.0
987.0
987.0
992.0
996.0
1003.0
1004.0
1001.0
1003.0
1008.0
1012.0
1012.0
1007.0
1002.0
996.0
991.0
985.0
979.0
971.0
965.0
961.0
962.0
961.0
958.0
952.0
950.0
952.0
951.0
950.0
954.0
954.0
950.0
947.0
946.0
947.0
948.0
949.0
947.0
947.0
951.0
951.0
