# Simple Text Format
# Sampling Rate (Hz):= 360.00
# Resolution:= 12
# Labels:= ECG
1053.0
1053.0
1052.0
1055.0
1058.0
1058.0
1055.0
1048.0
1045.0
1045.0
1046.0
1044.0
1038.0
1029.0
1023.0
1017.0
1011.0
1010.0
1006.0
998.0
995.0
992.0
989.0
985.0
975.0
969.0
962.0
960.0
960.0
959.0
960.0
953.0
949.0
947.0
951.0
952.0
950.0
950.0
948.0
949.0
953.0
951.0
948.0
949.0
950.0
954.0
955.0
956.0
956.0
956.0
955.0
955.0
960.0
959.0
956.0
956.0
956.0
964.0
964.0
960.0
958.0
959.0
960.0
964.0
965.0
967.0
964.0
962.0
958.0
963.0
967.0
970.0
968.0
965.0
962.0
963.0
966.0
964.0
966.0
964.0
967.0
971.0
975.0
979.0
981.0
985.0
986.0
989.0
992.0
1000.0
999.0
1002.0
1004.0
1013.0
1020.0
1025.0
1030.0
1030.0
1026.0
1023.0
1018.0
1019.0
1014.0
1008.0
997.0
995.0
995.0
994.0
983.0
974.0
968.0
964.0
973.0
977.0
979.0
973.0
968.0
962.0
963.0
963.0
962.0
965.0
963.0
964.0
967.0
971.0
973.0
974.0
970.0
968.0
967.0
968.0
974.0
978.0
982.0
988.0
996.0
1013.0
1034.0
1070.0
1117.0
1173.0
1224.0
1269.0
1291.0
1283.0
1230.0
1141.0
1037.0
959.0
912.0
906.0
918.0
929.0
925.0
915.0
904.0
897.0
889.0
886.0
891.0
890.0
886.0
880.0
878.0
879.0
883.0
892.0
897.0
905.0
917.0
925.0
937.0
954.0
966.0
978.0
989.0
997.0
1003.0
1003.0
1004.0
1002.0
1004.0
1011.0
1017.0
1022.0
1019.0
1015.0
1010.0
1012.0
1019.0
1023.0
1026.0
1027.0
1028.0
1027.0
1026.0
1024.0
1029.0
1027.0
1031.0
1038.0
1041.0
1039.0
1043.0
1041.0
1037.0
1042.0
1048.0
1057.0
1059.0
1064.0
1064.0
1068.0
1075.0
1078.0
1081.0
1081.0
1082.0
1085.0
1088.0
1090.0
1091.0
1092.0
1089.0
1093.0
1099.0
1103.0
1102.0
1097.0
1093.0
1087.0
1086.0
1087.0
1080.0
1068.0
1063.0
1062.0
1064.0
1059.0
1050.0
1043.0
1036.0
1032.0
1031.0
1032.0
1028.0
1024.0
1021.0
1020.0
1020.0
1015.0
1003.0
995.0
989.0
991.0
998.0
1003.0
1003.0
998.0
989.0
989.0
990.0
991.0
994.0
991.0
985.0
985.0
990.0
992.0
991.0
990.0
991.0
997.0
1002.0
1002.0
996.0
992.0
990.0
993.0
997.0
999.0
1001.0
999.0
1000.0
1000.0
1004.0
1004.0
1001.0
1000.0
998.0
993.0
994.0
998.0
1002.0
1000.0
999.0
996.0
999.0
1000.0
1000.0
999.0
1000.0
1001.0
1007.0
1005.0
1000.0
992.0
993.0
999.0
1008.0
1016.0
1018.0
1014.0
1016.0
1021.0
1024.0
1030.0
1033.0
1038.0
1046.0
1050.0
1052.0
1050.0
1044.0
1045.0
1045.0
1047.0
1049.0
1050.0
1042.0
1029.0
1013.0
998.0
998.0
997.0
996.0
995.0
989.0
988.0
986.0
985.0
981.0
981.0
983.0
987.0
990.0
984.0
979.0
980.0
981.0
982.0
981.0
982.0
978.0
978.0
980.0
981.0
984.0
985.0
985.0
981.0
986.0
995.0
1012.0
1038.0
1069.0
1109.0
1158.0
1215.0
1264.0
1296.0
1285.0
1223.0
1122.0
1014.0
936.0
903.0
909.0
925.0
926.0
916.0
908.0
904.0
898.0
890.0
888.0
882.0
883.0
883.0
877.0
871.0
870.0
879.0
891.0
906.0
918.0
927.0
934.0
944.0
959.0
975.0
985.0
991.0
995.0
997.0
1001.0
1002.0
999.0
998.0
996.0
1001.0
1008.0
1011.0
1010.0
1006.0
1006.0
1008.0
1011.0
1016.0
1014.0
1014.0
1015.0
1019.0
1022.0
1024.0
1022.0
1024.0
1027.0
1030.0
1030.0
1039.0
1042.0
1044.0
1042.0
1045.0
1045.0
1053.0
1058.0
1058.0
1060.0
1064.0
1067.0
1072.0
1073.0
1073.0
1075.0
1082.0
1090.0
1095.0
1089.0
1082.0
1075.0
1074.0
1079.0
1080.0
1075.0
1067.0
1057.0
1054.0
1049.0
1039.0
1030.0
1024.0
1023.0
1021.0
1014.0
1010.0
1003.0
998.0
998.0
1000.0
1001.0
1000.0
997.0
990.0
978.0
978.0
977.0
977.0
976.0
974.0
972.0
971.0
971.0
969.0
969.0
968.0
971.0
976.0
979.0
981.0
975.0
974.0
971.0
967.0
969.0
973.0
976.0
976.0
975.0
974.0
978.0
978.0
974.0
967.0
964.0
967.0
973.0
978.0
977.0
971.0
971.0
976.0
980.0
978.0
972.0
968.0
973.0
975.0
975.0
973.0
966.0
965.0
967.0
970.0
973.0
973.0
975.0
969.0
969.0
970.0
970.0
970.0
967.0
970.0
965.0
969.0
971.0
974.0
980.0
985.0
987.0
993.0
995.0
999.0
1001.0
998.0
1001.0
1007.0
1015.0
1022.0
1028.0
1025.0
1024.0
1028.0
1029.0
1029.0
1018.0
1009.0
1000.0
995.0
992.0
987.0
979.0
970.0
966.0
965.0
964.0
968.0
965.0
958.0
956.0
956.0
956.0
958.0
958.0
954.0
952.0
953.0
957.0
959.0
956.0
952.0
949.0
956.0
957.0
961.0
961.0
962.0
963.0
963.0
969.0
975.0
982.0
995.0
1015.0
1048.0
1091.0
1141.0
1186.0
1229.0
1260.0
1273.0
1255.0
1194.0
1103.0
1012.0
946.0
910.0
907.0
916.0
915.0
906.0
895.0
887.0
885.0
881.0
873.0
875.0
874.0
874.0
878.0
878.0
875.0
876.0
878.0
888.0
898.0
904.0
909.0
921.0
937.0
955.0
969.0
975.0
977.0
979.0
983.0
986.0
994.0
1000.0
1002.0
1000.0
994.0
1000.0
1005.0
1007.0
1002.0
997.0
993.0
995.0
1004.0
1012.0
1015.0
1011.0
1008.0
1003.0
1007.0
1010.0
1009.0
1011.0
1015.0
1014.0
1017.0
1020.0
1020.0
1018.0
1024.0
1028.0
1034.0
1039.0
1043.0
1039.0
1039.0
1040.0
1044.0
1046.0
1049.0
1049.0
1051.0
1054.0
1060.0
1063.0
1062.0
1061.0
1063.0
1067.0
1068.0
1072.0
1065.0
1059.0
1053.0
1049.0
1045.0
1044.0
1041.0
1034.0
1027.0
1025.0
1019.0
1015.0
1011.0
1005.0
998.0
998.0
997.0
997.0
991.0
986.0
976.0
970.0
971.0
970.0
971.0
972.0
969.0
964.0
964.0
965.0
964.0
958.0
953.0
951.0
952.0
956.0
956.0
951.0
948.0
950.0
952.0
955.0
955.0
955.0
955.0
956.0
956.0
957.0
955.0
953.0
953.0
954.0
954.0
956.0
954.0
954.0
951.0
956.0
959.0
960.0
950.0
946.0
940.0
936.0
937.0
944.0
943.0
946.0
945.0
947.0
945.0
947.0
939.0
932.0
932.0
931.0
936.0
942.0
942.0
938.0
936.0
938.0
940.0
950.0
956.0
963.0
963.0
960.0
958.0
959.0
957.0
953.0
957.0
963.0
973.0
982.0
988.0
989.0
984.0
980.0
982.0
983.0
979.0
972.0
967.0
963.0
959.0
951.0
942.0
933.0
929.0
925.0
925.0
927.0
922.0
914.0
910.0
910.0
913.0
913.0
911.0
909.0
908.0
908.0
910.0
909.0
907.0
901.0
899.0
902.0
908.0
909.0
910.0
909.0
908.0
908.0
912.0
915.0
917.0
925.0
938.0
957.0
984.0
1018.0
1056.0
1102.0
1149.0
1191.0
1210.0
1191.0
1127.0
1042.0
955.0
892.0
854.0
849.0
861.0
869.0
866.0
853.0
849.0
839.0
829.0
816.0
814.0
817.0
823.0
827.0
823.0
814.0
814.0
807.0
813.0
819.0
829.0
837.0
847.0
859.0
873.0
886.0
895.0
900.0
902.0
910.0
918.0
927.0
928.0
930.0
928.0
924.0
928.0
928.0
929.0
928.0
928.0
928.0
931.0
938.0
936.0
935.0
932.0
934.0
939.0
942.0
944.0
940.0
948.0
946.0
950.0
952.0
955.0
953.0
956.0
959.0
962.0
968.0
972.0
969.0
969.0
967.0
969.0
975.0
978.0
980.0
981.0
985.0
990.0
993.0
993.0
991.0
995.0
998.0
1006.0
1011.0
1011.0
1006.0
1001.0
997.0
997.0
996.0
993.0
990.0
984.0
983.0
982.0
976.0
960.0
947.0
940.0
940.0
942.0
945.0
940.0
932.0
926.0
918.0
918.0
920.0
917.0
913.0
910.0
907.0
909.0
911.0
907.0
903.0
897.0
896.0
899.0
901.0
903.0
903.0
899.0
899.0
899.0
901.0
901.0
898.0
897.0
903.0
906.0
907.0
904.0
900.0
899.0
899.0
903.0
905.0
903.0
900.0
903.0
904.0
908.0
909.0
905.0
902.0
902.0
904.0
908.0
910.0
908.0
905.0
903.0
902.0
903.0
908.0
905.0
900.0
903.0
906.0
906.0
908.0
910.0
909.0
912.0
916.0
918.0
922.0
919.0
916.0
915.0
917.0
926.0
933.0
936.0
940.0
942.0
949.0
953.0
956.0
953.0
952.0
951.0
954.0
957.0
953.0
948.0
940.0
926.0
915.0
906.0
900.0
900.0
899.0
899.0
897.0
900.0
905.0
904.0
896.0
887.0
887.0
891.0
892.0
889.0
887.0
883.0
884.0
889.0
893.0
890.0
889.0
896.0
900.0
902.0
904.0
905.0
904.0
903.0
907.0
921.0
934.0
954.0
980.0
1015.0
1062.0
1114.0
1166.0
1201.0
1208.0
1178.0
1107.0
1019.0
931.0
870.0
844.0
844.0
857.0
863.0
860.0
848.0
838.0
826.0
823.0
821.0
827.0
830.0
828.0
827.0
825.0
823.0
823.0
820.0
829.0
833.0
843.0
856.0
865.0
875.0
881.0
895.0
909.0
922.0
930.0
932.0
932.0
935.0
940.0
943.0
948.0
946.0
945.0
947.0
951.0
956.0
960.0
961.0
958.0
958.0
959.0
962.0
966.0
966.0
966.0
964.0
971.0
974.0
980.0
978.0
978.0
977.0
983.0
989.0
1000.0
1004.0
1004.0
1000.0
999.0
1003.0
1012.0
1018.0
1022.0
1022.0
1025.0
1031.0
1038.0
1039.0
1033.0
1030.0
1033.0
1041.0
1044.0
1048.0
1048.0
1043.0
1043.0
1042.0
1038.0
1031.0
1021.0
1016.0
1018.0
1018.0
1013.0
1006.0
1000.0
994.0
989.0
988.0
987.0
982.0
978.0
971.0
969.0
966.0
963.0
960.0
957.0
954.0
947.0
948.0
949.0
947.0
942.0
941.0
943.0
947.0
952.0
953.0
947.0
941.0
939.0
941.0
946.0
945.0
942.0
942.0
948.0
950.0
951.0
946.0
946.0
942.0
944.0
948.0
947.0
951.0
952.0
954.0
953.0
948.0
946.0
944.0
947.0
947.0
946.0
953.0
957.0
954.0
953.0
951.0
948.0
954.0
957.0
958.0
956.0
953.0
953.0
957.0
964.0
962.0
959.0
962.0
966.0
973.0
975.0
976.0
974.0
975.0
982.0
990.0
995.0
998.0
999.0
997.0
996.0
1007.0
1008.0
1004.0
1000.0
998.0
996.0
989.0
984.0
976.0
973.0
964.0
958.0
956.0
956.0
949.0
941.0
940.0
941.0
947.0
947.0
943.0
936.0
937.0
935.0
937.0
936.0
938.0
938.0
937.0
936.0
937.0
935.0
934.0
930.0
934.0
936.0
940.0
945.0
943.0
945.0
946.0
948.0
954.0
965.0
977.0
997.0
1029.0
1071.0
1122.0
1171.0
1215.0
1243.0
1243.0
1203.0
1134.0
1051.0
968.0
907.0
879.0
882.0
893.0
896.0
887.0
878.0
867.0
867.0
865.0
867.0
864.0
861.0
863.0
862.0
861.0
860.0
859.0
858.0
860.0
866.0
870.0
880.0
887.0
893.0
907.0
919.0
936.0
953.0
957.0
962.0
961.0
965.0
972.0
976.0
979.0
981.0
978.0
976.0
978.0
978.0
979.0
974.0
977.0
980.0
986.0
993.0
993.0
990.0
986.0
986.0
988.0
991.0
993.0
993.0
993.0
999.0
1004.0
1005.0
1005.0
1000.0
1001.0
1007.0
1014.0
1018.0
1020.0
1018.0
1016.0
1027.0
1030.0
1033.0
1036.0
1036.0
1037.0
1042.0
1048.0
1056.0
1055.0
1051.0
1051.0
1053.0
1053.0
1057.0
1059.0
1059.0
1054.0
1051.0
1047.0
1047.0
1040.0
1034.0
1024.0
1023.0
1022.0
1022.0
1016.0
1007.0
998.0
995.0
991.0
992.0
986.0
978.0
975.0
972.0
974.0
971.0
965.0
954.0
950.0
950.0
954.0
959.0
957.0
951.0
943.0
942.0
939.0
945.0
946.0
945.0
941.0
945.0
945.0
949.0
945.0
943.0
941.0
938.0
944.0
947.0
951.0
951.0
951.0
953.0
955.0
953.0
948.0
945.0
941.0
942.0
945.0
951.0
953.0
950.0
952.0
951.0
956.0
953.0
952.0
950.0
943.0
948.0
952.0
955.0
952.0
950.0
946.0
946.0
951.0
956.0
955.0
951.0
945.0
948.0
953.0
957.0
963.0
964.0
965.0
971.0
974.0
977.0
976.0
976.0
979.0
989.0
999.0
1005.0
1003.0
995.0
994.0
995.0
998.0
1003.0
1000.0
994.0
988.0
983.0
979.0
972.0
959.0
950.0
943.0
944.0
944.0
948.0
946.0
941.0
936.0
934.0
933.0
935.0
934.0
931.0
929.0
932.0
935.0
938.0
935.0
932.0
929.0
932.0
933.0
935.0
938.0
938.0
938.0
939.0
941.0
946.0
944.0
942.0
944.0
955.0
972.0
996.0
1025.0
1057.0
1097.0
1146.0
1194.0
1233.0
1246.0
1228.0
1168.0
1075.0
986.0
918.0
883.0
874.0
885.0
890.0
891.0
887.0
879.0
869.0
860.0
858.0
860.0
866.0
865.0
862.0
859.0
855.0
854.0
855.0
858.0
861.0
866.0
876.0
886.0
898.0
907.0
915.0
925.0
935.0
943.0
953.0
954.0
956.0
961.0
963.0
968.0
972.0
969.0
969.0
964.0
964.0
970.0
974.0
973.0
973.0
972.0
973.0
976.0
980.0
977.0
977.0
979.0
982.0
984.0
986.0
984.0
983.0
982.0
985.0
991.0
996.0
997.0
998.0
999.0
1001.0
1004.0
1008.0
1008.0
1008.0
1010.0
1016.0
1020.0
1024.0
1026.0
1027.0
1027.0
1027.0
1029.0
1035.0
1039.0
1042.0
1043.0
1043.0
1040.0
1040.0
1035.0
1030.0
1024.0
1019.0
1021.0
1018.0
1013.0
1008.0
999.0
992.0
990.0
989.0
983.0
977.0
972.0
973.0
970.0
966.0
959.0
949.0
943.0
946.0
948.0
951.0
952.0
946.0
937.0
932.0
936.0
935.0
933.0
927.0
927.0
929.0
931.0
935.0
932.0
926.0
925.0
925.0
930.0
932.0
933.0
932.0
928.0
928.0
934.0
935.0
932.0
927.0
925.0
931.0
931.0
936.0
938.0
934.0
933.0
930.0
929.0
932.0
934.0
931.0
931.0
931.0
934.0
935.0
931.0
927.0
927.0
929.0
935.0
939.0
939.0
938.0
937.0
934.0
932.0
929.0
929.0
928.0
928.0
930.0
936.0
946.0
946.0
944.0
945.0
947.0
952.0
957.0
959.0
962.0
967.0
973.0
977.0
979.0
979.0
976.0
974.0
975.0
977.0
977.0
972.0
960.0
949.0
941.0
937.0
937.0
931.0
925.0
926.0
927.0
927.0
928.0
922.0
914.0
908.0
910.0
910.0
915.0
912.0
911.0
909.0
910.0
912.0
911.0
907.0
904.0
903.0
906.0
912.0
915.0
912.0
912.0
909.0
910.0
916.0
922.0
925.0
932.0
941.0
954.0
972.0
995.0
1030.0
1076.0
1125.0
1179.0
1216.0
1225.0
1191.0
1118.0
1027.0
941.0
884.0
858.0
858.0
865.0
866.0
864.0
858.0
854.0
845.0
836.0
828.0
824.0
835.0
840.0
840.0
835.0
830.0
826.0
826.0
824.0
827.0
835.0
839.0
848.0
860.0
871.0
878.0
886.0
895.0
912.0
920.0
927.0
931.0
932.0
936.0
939.0
943.0
944.0
946.0
945.0
944.0
943.0
947.0
950.0
948.0
945.0
943.0
946.0
947.0
952.0
954.0
954.0
953.0
957.0
962.0
966.0
962.0
963.0
962.0
966.0
972.0
978.0
978.0
975.0
978.0
981.0
986.0
990.0
991.0
995.0
994.0
1000.0
1004.0
1006.0
1009.0
1007.0
1008.0
1011.0
1017.0
1026.0
1029.0
1026.0
1021.0
1023.0
1024.0
1026.0
1021.0
1015.0
1010.0
1008.0
1010.0
1007.0
1001.0
991.0
984.0
979.0
978.0
976.0
973.0
966.0
963.0
959.0
957.0
955.0
951.0
946.0
942.0
939.0
942.0
942.0
936.0
930.0
927.0
928.0
930.0
932.0
930.0
931.0
931.0
931.0
932.0
934.0
932.0
928.0
923.0
929.0
931.0
934.0
935.0
931.0
930.0
931.0
934.0
935.0
936.0
933.0
934.0
938.0
940.0
941.0
936.0
934.0
933.0
933.0
937.0
940.0
940.0
939.0
938.0
940.0
940.0
943.0
941.0
940.0
939.0
940.0
946.0
949.0
946.0
946.0
943.0
945.0
951.0
954.0
958.0
961.0
964.0
965.0
968.0
974.0
973.0
972.0
977.0
984.0
993.0
1000.0
999.0
998.0
992.0
995.0
998.0
999.0
998.0
993.0
988.0
983.0
981.0
972.0
963.0
954.0
951.0
951.0
952.0
953.0
949.0
947.0
944.0
942.0
943.0
943.0
941.0
938.0
940.0
939.0
941.0
946.0
944.0
940.0
938.0
939.0
942.0
946.0
947.0
944.0
946.0
947.0
953.0
952.0
952.0
954.0
961.0
972.0
992.0
1018.0
1050.0
1091.0
1142.0
1196.0
1243.0
1268.0
1260.0
1204.0
1116.0
1027.0
954.0
912.0
899.0
904.0
906.0
905.0
902.0
898.0
889.0
878.0
874.0
872.0
875.0
881.0
879.0
878.0
874.0
872.0
873.0
875.0
877.0
884.0
892.0
901.0
917.0
928.0
941.0
952.0
961.0
970.0
975.0
979.0
982.0
980.0
985.0
988.0
994.0
997.0
996.0
996.0
994.0
998.0
1002.0
1007.0
1010.0
1008.0
1006.0
1007.0
1009.0
1011.0
1014.0
1013.0
1016.0
1018.0
1019.0
1023.0
1021.0
1021.0
1022.0
1025.0
1034.0
1037.0
1038.0
1038.0
1037.0
1039.0
1044.0
1049.0
1051.0
1050.0
1055.0
1059.0
1061.0
1069.0
1068.0
1069.0
1069.0
1072.0
1079.0
1081.0
1078.0
1078.0
1077.0
1077.0
1078.0
1076.0
1070.0
1063.0
1063.0
1059.0
1061.0
1059.0
1054.0
1048.0
1039.0
1034.0
1032.0
1033.0
1028.0
1022.0
1018.0
1013.0
1013.0
1013.0
1009.0
1000.0
998.0
993.0
997.0
996.0
992.0
991.0
982.0
985.0
986.0
987.0
984.0
982.0
979.0
981.0
986.0
983.0
981.0
980.0
977.0
979.0
979.0
987.0
982.0
980.0
980.0
981.0
984.0
985.0
984.0
982.0
981.0
985.0
986.0
989.0
988.0
983.0
983.0
985.0
982.0
987.0
990.0
987.0
986.0
986.0
985.0
986.0
984.0
984.0
984.0
983.0
984.0
987.0
986.0
980.0
979.0
978.0
984.0
989.0
985.0
986.0
985.0
986.0
991.0
995.0
997.0
998.0
1000.0
1009.0
1011.0
1012.0
1016.0
1016.0
1018.0
1023.0
1026.0
1035.0
1036.0
1031.0
1034.0
1032.0
1030.0
1031.0
1025.0
1018.0
1011.0
1004.0
996.0
993.0
988.0
979.0
975.0
975.0
976.0
977.0
975.0
971.0
967.0
965.0
963.0
963.0
964.0
964.0
963.0
966.0
966.0
969.0
968.0
964.0
961.0
964.0
964.0
969.0
971.0
971.0
972.0
973.0
982.0
990.0
1006.0
1035.0
1068.0
1118.0
1176.0
1232.0
1273.0
1289.0
1261.0
1186.0
1082.0
988.0
922.0
901.0
904.0
916.0
915.0
906.0
899.0
894.0
884.0
885.0
888.0
892.0
886.0
881.0
882.0
877.0
878.0
884.0
890.0
896.0
905.0
913.0
923.0
936.0
947.0
959.0
966.0
972.0
980.0
985.0
983.0
979.0
984.0
989.0
994.0
993.0
995.0
994.0
990.0
991.0
992.0
997.0
997.0
998.0
998.0
998.0
1001.0
1004.0
1005.0
1001.0
1002.0
1006.0
1013.0
1017.0
1019.0
1015.0
1016.0
1017.0
1021.0
1026.0
1032.0
1029.0
1036.0
1035.0
1041.0
1045.0
1046.0
1048.0
1049.0
1054.0
1060.0
1063.0
1064.0
1065.0
1062.0
1065.0
1069.0
1073.0
1071.0
1067.0
1063.0
1060.0
1058.0
1056.0
1049.0
1047.0
1040.0
1038.0
1036.0
1033.0
1026.0
1016.0
1011.0
1009.0
1007.0
1009.0
1006.0
1002.0
994.0
991.0
990.0
988.0
982.0
979.0
975.0
976.0
977.0
979.0
976.0
971.0
968.0
967.0
970.0
972.0
972.0
971.0
968.0
970.0
971.0
970.0
968.0
967.0
969.0
970.0
972.0
976.0
972.0
970.0
968.0
970.0
972.0
974.0
975.0
973.0
970.0
969.0
972.0
973.0
972.0
969.0
968.0
972.0
973.0
973.0
968.0
967.0
966.0
966.0
969.0
971.0
969.0
967.0
961.0
962.0
967.0
968.0
969.0
967.0
965.0
968.0
973.0
971.0
973.0
972.0
976.0
981.0
988.0
989.0
993.0
994.0
994.0
998.0
1004.0
1011.0
1015.0
1018.0
1019.0
1023.0
1025.0
1027.0
1021.0
1014.0
1004.0
1003.0
1001.0
994.0
985.0
977.0
972.0
969.0
967.0
960.0
958.0
957.0
955.0
954.0
957.0
953.0
950.0
946.0
940.0
940.0
948.0
954.0
954.0
952.0
949.0
949.0
948.0
950.0
948.0
950.0
949.0
952.0
958.0
963.0
960.0
964.0
970.0
985.0
1013.0
1044.0
1087.0
1134.0
1183.0
1233.0
1268.0
1260.0
1202.0
1111.0
1017.0
941.0
901.0
890.0
895.0
898.0
895.0
888.0
885.0
881.0
873.0
867.0
866.0
864.0
866.0
867.0
865.0
864.0
859.0
864.0
872.0
882.0
888.0
896.0
902.0
919.0
937.0
951.0
954.0
955.0
956.0
955.0
962.0
965.0
965.0
967.0
967.0
969.0
974.0
974.0
971.0
969.0
972.0
977.0
979.0
983.0
982.0
979.0
976.0
980.0
982.0
987.0
988.0
990.0
992.0
992.0
995.0
1000.0
1000.0
999.0
1002.0
1004.0
1009.0
1013.0
1015.0
1010.0
1013.0
1017.0
1021.0
1028.0
1030.0
1028.0
1032.0
1034.0
1040.0
1041.0
1040.0
1040.0
1039.0
1041.0
1043.0
1039.0
1036.0
1027.0
1023.0
1018.0
1018.0
1014.0
1011.0
1003.0
995.0
989.0
985.0
982.0
981.0
975.0
969.0
967.0
963.0
959.0
956.0
954.0
948.0
943.0
944.0
947.0
945.0
942.0
937.0
936.0
936.0
938.0
938.0
937.0
937.0
937.0
937.0
938.0
936.0
935.0
932.0
935.0
937.0
941.0
938.0
936.0
935.0
937.0
937.0
940.0
941.0
941.0
941.0
942.0
942.0
944.0
943.0
942.0
939.0
943.0
946.0
945.0
943.0
941.0
937.0
940.0
942.0
946.0
945.0
942.0
940.0
938.0
941.0
942.0
940.0
941.0
941.0
943.0
948.0
951.0
951.0
952.0
955.0
959.0
964.0
966.0
971.0
972.0
973.0
976.0
985.0
988.0
990.0
991.0
991.0
992.0
990.0
989.0
984.0
978.0
973.0
969.0
965.0
961.0
954.0
947.0
941.0
937.0
936.0
938.0
937.0
930.0
929.0
927.0
929.0
928.0
930.0
928.0
925.0
928.0
932.0
933.0
932.0
929.0
926.0
929.0
934.0
937.0
935.0
936.0
938.0
941.0
950.0
967.0
987.0
1018.0
1064.0
1123.0
1184.0
1230.0
1249.0
1226.0
1159.0
1067.0
977.0
915.0
880.0
875.0
881.0
885.0
880.0
873.0
865.0
856.0
850.0
848.0
851.0
856.0
852.0
847.0
842.0
844.0
847.0
855.0
864.0
870.0
876.0
885.0
898.0
915.0
930.0
939.0
945.0
951.0
953.0
956.0
957.0
958.0
962.0
965.0
971.0
972.0
972.0
968.0
970.0
971.0
978.0
980.0
983.0
980.0
980.0
982.0
985.0
986.0
989.0
991.0
992.0
1002.0
1003.0
1005.0
1007.0
1005.0
1005.0
1010.0
1015.0
1024.0
1028.0
1027.0
1029.0
1031.0
1036.0
1043.0
1045.0
1044.0
1045.0
1051.0
1056.0
1058.0
1059.0
1057.0
1054.0
1056.0
1062.0
1065.0
1062.0
1057.0
1048.0
1046.0
1042.0
1041.0
1036.0
1028.0
1024.0
1021.0
1017.0
1014.0
1008.0
1000.0
996.0
994.0
994.0
994.0
990.0
983.0
981.0
980.0
980.0
978.0
977.0
975.0
973.0
974.0
976.0
975.0
972.0
971.0
970.0
973.0
975.0
981.0
978.0
977.0
975.0
976.0
977.0
981.0
980.0
980.0
978.0
982.0
983.0
985.0
983.0
982.0
982.0
984.0
989.0
991.0
989.0
989.0
985.0
985.0
987.0
990.0
992.0
990.0
987.0
989.0
993.0
990.0
990.0
990.0
989.0
990.0
993.0
994.0
992.0
989.0
988.0
987.0
989.0
998.0
998.0
996.0
995.0
994.0
997.0
997.0
995.0
998.0
1000.0
1008.0
1016.0
1020.0
1020.0
1018.0
1017.0
1024.0
1032.0
1041.0
1045.0
1045.0
1044.0
1046.0
1049.0
1051.0
1047.0
1046.0
1043.0
1041.0
1039.0
1033.0
1025.0
1015.0
1007.0
1002.0
1002.0
1004.0
1000.0
996.0
994.0
989.0
990.0
992.0
990.0
987.0
985.0
983.0
986.0
987.0
987.0
985.0
981.0
983.0
986.0
992.0
992.0
992.0
989.0
990.0
996.0
1003.0
1003.0
1013.0
1028.0
1056.0
1092.0
1135.0
1182.0
1228.0
1272.0
1305.0
1305.0
1258.0
1163.0
1060.0
979.0
933.0
928.0
942.0
946.0
942.0
931.0
924.0
915.0
913.0
908.0
909.0
909.0
910.0
913.0
914.0
910.0
905.0
906.0
914.0
920.0
932.0
942.0
951.0
967.0
978.0
993.0
1002.0
1008.0
1008.0
1008.0
1013.0
1018.0
1020.0
1022.0
1021.0
1020.0
1021.0
1027.0
1031.0
1033.0
1031.0
1031.0
1035.0
1032.0
1034.0
1031.0
1033.0
1032.0
1035.0
1042.0
1046.0
1046.0
1044.0
1044.0
1046.0
1052.0
1056.0
1060.0
1058.0
1058.0
1060.0
1064.0
1070.0
1072.0
1075.0
1077.0
1080.0
1085.0
1088.0
1088.0
1090.0
1088.0
1089.0
1096.0
1100.0
1099.0
1097.0
1095.0
1091.0
1091.0
1093.0
1087.0
1083.0
1080.0
1076.0
1073.0
1072.0
1064.0
1058.0
1050.0
1047.0
1045.0
1044.0
1040.0
1038.0
1030.0
1023.0
1020.0
1022.0
1019.0
1013.0
1009.0
1010.0
1009.0
1009.0
1003.0
998.0
996.0
1000.0
1001.0
1000.0
1001.0
994.0
993.0
994.0
995.0
998.0
995.0
994.0
995.0
997.0
1000.0
1001.0
1000.0
996.0
995.0
997.0
1000.0
1003.0
1001.0
999.0
996.0
997.0
998.0
1001.0
1001.0
997.0
998.0
998.0
1000.0
1003.0
1002.0
999.0
995.0
999.0
1001.0
1003.0
1002.0
996.0
993.0
992.0
995.0
998.0
996.0
994.0
991.0
993.0
996.0
998.0
995.0
991.0
989.0
990.0
994.0
997.0
995.0
995.0
994.0
994.0
998.0
1001.0
1001.0
1006.0
1007.0
1011.0
1015.0
1021.0
1023.0
1025.0
1024.0
1031.0
1035.0
1043.0
1048.0
1043.0
1043.0
1044.0
1045.0
1045.0
1042.0
1038.0
1034.0
1030.0
1023.0
1014.0
1006.0
999.0
995.0
992.0
990.0
991.0
989.0
986.0
984.0
981.0
981.0
982.0
978.0
972.0
969.0
973.0
975.0
979.0
976.0
972.0
969.0
968.0
970.0
974.0
973.0
973.0
973.0
976.0
981.0
985.0
983.0
986.0
993.0
1009.0
1030.0
1063.0
1098.0
1140.0
1185.0
1234.0
1278.0
1296.0
1276.0
1216.0
1130.0
1039.0
969.0
931.0
924.0
927.0
932.0
928.0
921.0
916.0
910.0
899.0
890.0
890.0
893.0
895.0
894.0
890.0
888.0
886.0
889.0
893.0
900.0
905.0
913.0
920.0
931.0
943.0
957.0
968.0
978.0
985.0
989.0
993.0
994.0
990.0
995.0
997.0
1003.0
1007.0
1003.0
1001.0
996.0
999.0
1005.0
1012.0
1008.0
1008.0
1008.0
1009.0
1013.0
1014.0
1015.0
1016.0
1016.0
1018.0
1022.0
1027.0
1026.0
1024.0
1020.0
1024.0
1030.0
1034.0
1039.0
1038.0
1036.0
1037.0
1040.0
1047.0
1045.0
1047.0
1047.0
1051.0
1061.0
1065.0
1066.0
1063.0
1062.0
1063.0
1067.0
1070.0
1072.0
1070.0
1068.0
1066.0
1065.0
1064.0
1060.0
1051.0
1047.0
1043.0
1040.0
1039.0
1031.0
1025.0
1018.0
1013.0
1013.0
1011.0
1007.0
1002.0
993.0
990.0
990.0
991.0
989.0
983.0
979.0
978.0
978.0
978.0
973.0
968.0
967.0
968.0
973.0
974.0
973.0
971.0
969.0
968.0
972.0
973.0
971.0
968.0
966.0
969.0
973.0
974.0
972.0
967.0
966.0
965.0
966.0
968.0
970.0
970.0
966.0
967.0
968.0
971.0
967.0
965.0
964.0
965.0
970.0
970.0
971.0
967.0
965.0
963.0
964.0
967.0
967.0
965.0
961.0
961.0
965.0
964.0
964.0
957.0
957.0
962.0
963.0
967.0
964.0
961.0
957.0
956.0
960.0
957.0
959.0
957.0
957.0
960.0
962.0
967.0
969.0
971.0
973.0
974.0
978.0
985.0
983.0
988.0
988.0
996.0
998.0
1004.0
1005.0
1001.0
1002.0
1005.0
1006.0
1007.0
1006.0
1001.0
994.0
986.0
986.0
978.0
969.0
963.0
954.0
954.0
953.0
951.0
949.0
944.0
938.0
941.0
944.0
945.0
941.0
936.0
934.0
934.0
935.0
937.0
935.0
933.0
932.0
935.0
935.0
933.0
933.0
932.0
931.0
934.0
937.0
942.0
944.0
943.0
941.0
949.0
959.0
974.0
993.0
1021.0
1059.0
1108.0
1157.0
1201.0
1229.0
1238.0
1211.0
1149.0
1072.0
995.0
935.0
895.0
882.0
888.0
894.0
893.0
884.0
869.0
861.0
858.0
857.0
857.0
856.0
854.0
853.0
848.0
851.0
850.0
845.0
839.0
839.0
847.0
856.0
867.0
871.0
875.0
883.0
892.0
911.0
923.0
935.0
937.0
939.0
940.0
944.0
948.0
949.0
949.0
949.0
952.0
957.0
958.0
959.0
956.0
953.0
956.0
960.0
963.0
962.0
961.0
964.0
966.0
964.0
969.0
969.0
967.0
966.0
969.0
974.0
979.0
982.0
983.0
979.0
980.0
985.0
984.0
987.0
990.0
992.0
994.0
1000.0
1005.0
1001.0
999.0
1000.0
1006.0
1014.0
1019.0
1021.0
1020.0
1021.0
1023.0
1029.0
1032.0
1023.0
1026.0
1023.0
1023.0
1026.0
1027.0
1023.0
1010.0
1007.0
1002.0
1000.0
1002.0
996.0
988.0
981.0
978.0
977.0
977.0
970.0
962.0
959.0
955.0
956.0
956.0
953.0
949.0
939.0
938.0
938.0
939.0
936.0
934.0
932.0
931.0
935.0
935.0
930.0
924.0
923.0
927.0
929.0
934.0
935.0
933.0
929.0
926.0
929.0
933.0
932.0
929.0
928.0
930.0
934.0
933.0
934.0
928.0
923.0
930.0
933.0
937.0
935.0
933.0
930.0
929.0
929.0
931.0
930.0
927.0
925.0
929.0
933.0
935.0
932.0
926.0
925.0
924.0
929.0
929.0
928.0
926.0
925.0
926.0
925.0
926.0
924.0
921.0
921.0
927.0
927.0
934.0
