# Simple Text Format
# Sampling Rate (Hz):= 360.00
# Resolution:= 12
# Labels:= ECG
1007.0
1013.0
1015.0
1017.0
1025.0
1031.0
1035.0
1032.0
1029.0
1024.0
1029.0
1030.0
1029.0
1027.0
1018.0
1010.0
1002.0
998.0
993.0
990.0
987.0
983.0
981.0
980.0
982.0
976.0
970.0
965.0
969.0
970.0
968.0
968.0
965.0
966.0
963.0
966.0
965.0
963.0
961.0
962.0
962.0
967.0
974.0
973.0
969.0
968.0
970.0
973.0
978.0
986.0
994.0
1009.0
1038.0
1073.0
1120.0
1170.0
1220.0
1266.0
1298.0
1304.0
1268.0
1190.0
1091.0
1002.0
934.0
906.0
910.0
921.0
924.0
917.0
911.0
907.0
901.0
893.0
886.0
888.0
892.0
897.0
895.0
894.0
887.0
885.0
892.0
901.0
910.0
914.0
920.0
927.0
938.0
959.0
974.0
984.0
985.0
983.0
990.0
993.0
999.0
997.0
997.0
999.0
1002.0
1005.0
1008.0
1004.0
1001.0
1004.0
1006.0
1012.0
1015.0
1016.0
1015.0
1013.0
1016.0
1022.0
1024.0
1021.0
1020.0
1022.0
1029.0
1036.0
1039.0
1037.0
1037.0
1034.0
1039.0
1046.0
1052.0
1055.0
1053.0
1055.0
1060.0
1063.0
1065.0
1067.0
1067.0
1067.0
1070.0
1081.0
1085.0
1088.0
1083.0
1085.0
1086.0
1088.0
1088.0
1085.0
1083.0
1080.0
1078.0
1075.0
1065.0
1058.0
1051.0
1043.0
1042.0
1041.0
1036.0
1028.0
1021.0
1016.0
1009.0
1005.0
1005.0
999.0
994.0
993.0
990.0
988.0
987.0
981.0
973.0
971.0
972.0
973.0
971.0
969.0
968.0
965.0
968.0
966.0
965.0
962.0
958.0
960.0
960.0
966.0
969.0
964.0
963.0
960.0
960.0
960.0
965.0
966.0
963.0
965.0
967.0
965.0
966.0
964.0
962.0
960.0
965.0
966.0
971.0
968.0
968.0
963.0
964.0
967.0
967.0
963.0
962.0
964.0
969.0
967.0
970.0
967.0
960.0
961.0
963.0
961.0
966.0
966.0
965.0
962.0
960.0
962.0
963.0
963.0
963.0
967.0
974.0
979.0
985.0
985.0
983.0
984.0
986.0
993.0
999.0
998.0
1004.0
1009.0
1013.0
1015.0
1015.0
1012.0
1008.0
1003.0
1002.0
1001.0
1000.0
991.0
980.0
970.0
965.0
963.0
960.0
960.0
958.0
952.0
956.0
956.0
956.0
952.0
945.0
943.0
944.0
948.0
950.0
949.0
946.0
944.0
943.0
946.0
948.0
947.0
945.0
948.0
950.0
954.0
951.0
951.0
953.0
953.0
961.0
977.0
996.0
1023.0
1058.0
1106.0
1162.0
1219.0
1263.0
1281.0
1262.0
1204.0
1113.0
1021.0
944.0
899.0
887.0
897.0
906.0
902.0
897.0
887.0
880.0
875.0
869.0
873.0
874.0
871.0
871.0
862.0
863.0
867.0
868.0
870.0
874.0
880.0
889.0
897.0
907.0
915.0
923.0
937.0
947.0
961.0
967.0
964.0
961.0
963.0
967.0
975.0
978.0
979.0
978.0
978.0
979.0
982.0
982.0
984.0
982.0
984.0
989.0
994.0
996.0
995.0
993.0
992.0
996.0
999.0
1002.0
1002.0
1003.0
1006.0
1011.0
1015.0
1018.0
1016.0
1014.0
1017.0
1019.0
1026.0
1030.0
1030.0
1032.0
1033.0
1040.0
1042.0
1043.0
1043.0
1043.0
1045.0
1053.0
1056.0
1057.0
1057.0
1055.0
1054.0
1052.0
1056.0
1053.0
1048.0
1043.0
1039.0
1037.0
1033.0
1027.0
1018.0
1010.0
1002.0
1000.0
1001.0
996.0
991.0
981.0
977.0
974.0
971.0
965.0
963.0
957.0
956.0
951.0
953.0
953.0
947.0
939.0
936.0
936.0
941.0
941.0
940.0
937.0
933.0
936.0
939.0
937.0
935.0
929.0
930.0
933.0
938.0
939.0
937.0
933.0
931.0
935.0
936.0
936.0
934.0
931.0
932.0
937.0
940.0
941.0
940.0
935.0
935.0
933.0
939.0
942.0
941.0
939.0
937.0
937.0
941.0
940.0
938.0
937.0
935.0
936.0
941.0
943.0
942.0
934.0
936.0
937.0
938.0
938.0
939.0
937.0
937.0
944.0
949.0
954.0
956.0
952.0
953.0
954.0
960.0
965.0
963.0
967.0
973.0
979.0
984.0
990.0
986.0
982.0
981.0
981.0
987.0
984.0
980.0
976.0
971.0
966.0
958.0
954.0
942.0
939.0
935.0
935.0
936.0
935.0
933.0
928.0
925.0
924.0
925.0
925.0
922.0
922.0
919.0
920.0
923.0
923.0
920.0
916.0
916.0
918.0
924.0
927.0
926.0
926.0
926.0
927.0
929.0
932.0
932.0
932.0
940.0
953.0
975.0
1004.0
1039.0
1084.0
1132.0
1183.0
1229.0
1252.0
1242.0
1191.0
1104.0
1012.0
936.0
886.0
867.0
867.0
878.0
882.0
878.0
871.0
865.0
858.0
851.0
850.0
852.0
853.0
854.0
851.0
848.0
847.0
849.0
848.0
850.0
852.0
856.0
865.0
874.0
885.0
893.0
900.0
913.0
929.0
944.0
951.0
952.0
950.0
951.0
954.0
962.0
963.0
967.0
967.0
966.0
969.0
970.0
974.0
970.0
971.0
971.0
976.0
981.0
984.0
982.0
984.0
982.0
981.0
985.0
987.0
989.0
994.0
994.0
998.0
1005.0
1009.0
1007.0
1006.0
1004.0
1009.0
1014.0
1021.0
1021.0
1026.0
1028.0
1033.0
1038.0
1039.0
1041.0
1042.0
1043.0
1051.0
1054.0
1061.0
1062.0
1059.0
1061.0
1061.0
1063.0
1062.0
1061.0
1060.0
1058.0
1056.0
1054.0
1049.0
1046.0
1036.0
1028.0
1026.0
1020.0
1017.0
1012.0
1008.0
1002.0
995.0
997.0
992.0
988.0
980.0
975.0
977.0
979.0
979.0
973.0
969.0
965.0
964.0
961.0
961.0
959.0
955.0
955.0
956.0
960.0
960.0
958.0
954.0
952.0
954.0
956.0
959.0
956.0
954.0
957.0
959.0
962.0
961.0
956.0
954.0
954.0
955.0
958.0
962.0
961.0
960.0
961.0
961.0
963.0
964.0
961.0
958.0
957.0
959.0
963.0
964.0
963.0
959.0
958.0
960.0
960.0
961.0
956.0
959.0
958.0
957.0
961.0
966.0
965.0
963.0
960.0
961.0
964.0
964.0
962.0
964.0
965.0
968.0
971.0
973.0
972.0
969.0
967.0
971.0
973.0
976.0
980.0
984.0
986.0
992.0
994.0
996.0
996.0
991.0
993.0
1003.0
1011.0
1017.0
1017.0
1021.0
1020.0
1022.0
1023.0
1020.0
1016.0
1011.0
1009.0
1010.0
1009.0
1007.0
996.0
983.0
975.0
971.0
968.0
965.0
964.0
958.0
959.0
960.0
963.0
962.0
956.0
954.0
953.0
954.0
957.0
957.0
955.0
954.0
953.0
954.0
952.0
954.0
953.0
952.0
953.0
955.0
961.0
961.0
960.0
958.0
959.0
960.0
969.0
972.0
972.0
982.0
998.0
1023.0
1059.0
1103.0
1153.0
1202.0
1246.0
1285.0
1305.0
1291.0
1236.0
1147.0
1054.0
969.0
915.0
897.0
899.0
909.0
908.0
904.0
901.0
899.0
893.0
883.0
878.0
881.0
885.0
891.0
888.0
883.0
877.0
878.0
877.0
885.0
890.0
897.0
901.0
909.0
917.0
923.0
933.0
943.0
953.0
967.0
978.0
983.0
983.0
981.0
985.0
987.0
989.0
989.0
992.0
993.0
996.0
1000.0
1003.0
1006.0
1005.0
1004.0
1002.0
1006.0
1010.0
1013.0
1013.0
1013.0
1014.0
1019.0
1020.0
1022.0
1023.0
1018.0
1020.0
1025.0
1032.0
1035.0
1038.0
1036.0
1037.0
1042.0
1044.0
1047.0
1045.0
1049.0
1052.0
1058.0
1065.0
1069.0
1072.0
1070.0
1070.0
1073.0
1077.0
1080.0
1082.0
1085.0
1082.0
1086.0
1089.0
1092.0
1085.0
1084.0
1080.0
1083.0
1082.0
1079.0
1076.0
1067.0
1061.0
1056.0
1052.0
1050.0
1046.0
1037.0
1032.0
1028.0
1028.0
1026.0
1017.0
1010.0
1000.0
1001.0
1000.0
999.0
995.0
988.0
986.0
985.0
989.0
988.0
982.0
976.0
970.0
970.0
970.0
973.0
970.0
967.0
964.0
966.0
968.0
968.0
965.0
962.0
960.0
962.0
965.0
968.0
970.0
965.0
966.0
965.0
965.0
967.0
964.0
965.0
963.0
965.0
971.0
973.0
973.0
966.0
967.0
965.0
970.0
972.0
968.0
970.0
967.0
971.0
970.0
971.0
969.0
967.0
965.0
968.0
967.0
969.0
972.0
971.0
970.0
971.0
972.0
972.0
969.0
963.0
964.0
968.0
972.0
971.0
970.0
966.0
966.0
965.0
966.0
965.0
965.0
961.0
962.0
967.0
973.0
976.0
975.0
975.0
980.0
983.0
989.0
992.0
995.0
995.0
999.0
1002.0
1007.0
1011.0
1014.0
1011.0
1012.0
1014.0
1020.0
1019.0
1016.0
1009.0
1003.0
1002.0
998.0
992.0
982.0
975.0
969.0
966.0
967.0
966.0
961.0
954.0
950.0
952.0
954.0
953.0
951.0
948.0
950.0
952.0
952.0
953.0
948.0
946.0
947.0
952.0
954.0
956.0
951.0
953.0
951.0
955.0
958.0
959.0
959.0
957.0
964.0
968.0
984.0
1001.0
1020.0
1052.0
1092.0
1152.0
1210.0
1260.0
1292.0
1296.0
1260.0
1186.0
1092.0
1002.0
934.0
895.0
890.0
907.0
916.0
913.0
908.0
898.0
890.0
884.0
878.0
879.0
880.0
880.0
884.0
883.0
883.0
879.0
878.0
875.0
878.0
891.0
902.0
911.0
915.0
922.0
932.0
947.0
959.0
971.0
975.0
974.0
976.0
980.0
988.0
990.0
991.0
990.0
988.0
990.0
992.0
994.0
995.0
994.0
995.0
997.0
1003.0
1005.0
1004.0
1001.0
1000.0
1002.0
1007.0
1014.0
1013.0
1014.0
1013.0
1016.0
1021.0
1022.0
1022.0
1020.0
1022.0
1026.0
1034.0
1037.0
1040.0
1039.0
1038.0
1041.0
1047.0
1053.0
1053.0
1057.0
1058.0
1066.0
1068.0
1073.0
1070.0
1070.0
1069.0
1072.0
1076.0
1079.0
1078.0
1075.0
1071.0
1070.0
1070.0
1066.0
1060.0
1050.0
1043.0
1045.0
1039.0
1036.0
1029.0
1020.0
1012.0
1008.0
1006.0
1000.0
995.0
988.0
985.0
984.0
981.0
979.0
972.0
966.0
961.0
958.0
958.0
961.0
960.0
955.0
955.0
952.0
952.0
950.0
949.0
948.0
948.0
950.0
953.0
954.0
955.0
949.0
948.0
949.0
950.0
950.0
951.0
951.0
945.0
946.0
956.0
956.0
953.0
948.0
948.0
950.0
951.0
953.0
951.0
951.0
951.0
951.0
953.0
952.0
953.0
947.0
947.0
951.0
955.0
952.0
953.0
951.0
950.0
949.0
949.0
949.0
946.0
944.0
947.0
950.0
952.0
952.0
947.0
942.0
939.0
944.0
947.0
949.0
949.0
946.0
944.0
948.0
950.0
947.0
944.0
945.0
949.0
956.0
962.0
967.0
966.0
964.0
966.0
969.0
974.0
977.0
980.0
985.0
991.0
995.0
997.0
996.0
989.0
986.0
987.0
986.0
984.0
980.0
973.0
966.0
958.0
953.0
950.0
949.0
944.0
938.0
935.0
935.0
940.0
940.0
938.0
934.0
928.0
928.0
929.0
931.0
929.0
927.0
927.0
931.0
933.0
931.0
928.0
926.0
926.0
928.0
931.0
935.0
935.0
934.0
935.0
937.0
943.0
952.0
963.0
984.0
1017.0
1063.0
1116.0
1170.0
1215.0
1248.0
1258.0
1231.0
1163.0
1071.0
977.0
906.0
869.0
875.0
889.0
896.0
889.0
876.0
869.0
866.0
861.0
860.0
860.0
858.0
857.0
857.0
851.0
852.0
849.0
848.0
853.0
863.0
875.0
882.0
886.0
890.0
900.0
910.0
931.0
942.0
954.0
954.0
954.0
959.0
961.0
963.0
964.0
963.0
966.0
967.0
974.0
978.0
979.0
979.0
977.0
980.0
983.0
985.0
987.0
987.0
990.0
992.0
996.0
998.0
997.0
997.0
1000.0
1001.0
1007.0
1012.0
1015.0
1014.0
1018.0
1020.0
1025.0
1028.0
1031.0
1032.0
1031.0
1040.0
1047.0
1048.0
1051.0
1047.0
1050.0
1054.0
1059.0
1065.0
1067.0
1065.0
1065.0
1067.0
1068.0
1067.0
1063.0
1056.0
1050.0
1048.0
1047.0
1043.0
1034.0
1024.0
1016.0
1013.0
1006.0
1006.0
1004.0
997.0
990.0
986.0
983.0
979.0
972.0
966.0
963.0
966.0
966.0
965.0
959.0
955.0
952.0
953.0
954.0
954.0
953.0
952.0
951.0
951.0
952.0
954.0
954.0
949.0
952.0
953.0
956.0
960.0
960.0
958.0
955.0
957.0
959.0
958.0
960.0
962.0
959.0
964.0
967.0
967.0
965.0
961.0
958.0
963.0
967.0
968.0
968.0
967.0
964.0
965.0
963.0
965.0
966.0
965.0
961.0
967.0
971.0
972.0
964.0
959.0
958.0
967.0
970.0
974.0
970.0
970.0
969.0
975.0
980.0
986.0
986.0
985.0
986.0
992.0
997.0
1003.0
1003.0
1003.0
1008.0
1011.0
1016.0
1017.0
1017.0
1014.0
1015.0
1013.0
1010.0
1010.0
1000.0
989.0
980.0
977.0
977.0
979.0
973.0
970.0
964.0
961.0
963.0
964.0
964.0
960.0
962.0
960.0
963.0
963.0
961.0
954.0
957.0
960.0
961.0
965.0
967.0
963.0
964.0
966.0
969.0
970.0
972.0
973.0
977.0
980.0
993.0
1006.0
1026.0
1056.0
1100.0
1158.0
1218.0
1269.0
1299.0
1298.0
1257.0
1176.0
1083.0
996.0
933.0
906.0
911.0
927.0
930.0
922.0
912.0
905.0
897.0
891.0
890.0
894.0
897.0
897.0
896.0
895.0
898.0
893.0
890.0
895.0
902.0
913.0
922.0
935.0
944.0
952.0
964.0
978.0
989.0
996.0
998.0
998.0
999.0
1005.0
1012.0
1015.0
1013.0
1010.0
1008.0
1010.0
1015.0
1023.0
1023.0
1023.0
1019.0
1025.0
1030.0
1031.0
1025.0
1029.0
1028.0
1033.0
1041.0
1045.0
1042.0
1045.0
1044.0
1048.0
1051.0
1056.0
1057.0
1060.0
1064.0
1066.0
1073.0
1076.0
1075.0
1074.0
1077.0
1079.0
1086.0
1090.0
1097.0
1100.0
1101.0
1102.0
1106.0
1108.0
1107.0
1105.0
1106.0
1109.0
1106.0
1108.0
1103.0
1094.0
1086.0
1081.0
1078.0
1075.0
1070.0
1060.0
1053.0
1050.0
1045.0
1041.0
1031.0
1023.0
1021.0
1017.0
1018.0
1013.0
1007.0
1000.0
994.0
993.0
995.0
996.0
994.0
991.0
988.0
986.0
989.0
985.0
982.0
980.0
979.0
982.0
984.0
985.0
986.0
986.0
985.0
987.0
988.0
989.0
987.0
983.0
986.0
990.0
994.0
995.0
992.0
986.0
984.0
988.0
993.0
996.0
997.0
991.0
992.0
993.0
993.0
994.0
993.0
991.0
993.0
995.0
999.0
998.0
994.0
989.0
986.0
989.0
991.0
994.0
995.0
989.0
988.0
987.0
984.0
987.0
983.0
979.0
980.0
983.0
988.0
989.0
988.0
982.0
980.0
979.0
989.0
994.0
998.0
999.0
1000.0
1005.0
1008.0
1009.0
1012.0
1012.0
1019.0
1026.0
1034.0
1039.0
1035.0
1029.0
1027.0
1028.0
1030.0
1029.0
1023.0
1013.0
1007.0
1002.0
997.0
991.0
986.0
978.0
978.0
978.0
978.0
981.0
975.0
969.0
969.0
968.0
970.0
974.0
971.0
966.0
967.0
970.0
971.0
970.0
969.0
964.0
968.0
971.0
974.0
977.0
977.0
978.0
975.0
981.0
985.0
1001.0
1018.0
1047.0
1087.0
1140.0
1198.0
1253.0
1294.0
1308.0
1279.0
1205.0
1110.0
1017.0
944.0
905.0
905.0
920.0
929.0
924.0
914.0
905.0
899.0
896.0
894.0
896.0
897.0
895.0
893.0
890.0
889.0
890.0
892.0
896.0
904.0
914.0
924.0
936.0
942.0
950.0
963.0
977.0
990.0
997.0
999.0
996.0
996.0
999.0
1002.0
1007.0
1007.0
1006.0
1009.0
1012.0
1017.0
1018.0
1015.0
1014.0
1014.0
1017.0
1023.0
1025.0
1028.0
1026.0
1026.0
1031.0
1033.0
1033.0
1033.0
1035.0
1038.0
1043.0
1048.0
1050.0
1053.0
1052.0
1054.0
1054.0
1060.0
1063.0
1067.0
1069.0
1069.0
1073.0
1077.0
1082.0
1082.0
1082.0
1084.0
1089.0
1095.0
1095.0
1097.0
1092.0
1091.0
1091.0
1091.0
1092.0
1087.0
1077.0
1075.0
1073.0
1068.0
1066.0
1057.0
1045.0
1038.0
1035.0
1033.0
1030.0
1026.0
1018.0
1013.0
1009.0
1007.0
1005.0
999.0
993.0
993.0
991.0
988.0
988.0
986.0
979.0
974.0
976.0
977.0
975.0
975.0
973.0
971.0
971.0
977.0
975.0
971.0
971.0
968.0
972.0
975.0
978.0
975.0
974.0
972.0
972.0
972.0
974.0
973.0
974.0
974.0
978.0
981.0
981.0
978.0
975.0
974.0
975.0
981.0
982.0
978.0
977.0
975.0
973.0
974.0
971.0
973.0
971.0
970.0
974.0
977.0
977.0
971.0
969.0
968.0
971.0
973.0
974.0
977.0
975.0
974.0
974.0
975.0
977.0
974.0
972.0
972.0
976.0
982.0
982.0
986.0
986.0
984.0
989.0
990.0
997.0
999.0
1003.0
1005.0
1013.0
1015.0
1019.0
1017.0
1013.0
1012.0
1017.0
1019.0
1017.0
1008.0
1002.0
991.0
982.0
979.0
975.0
973.0
970.0
968.0
967.0
966.0
966.0
962.0
957.0
955.0
959.0
963.0
963.0
960.0
954.0
951.0
950.0
951.0
955.0
955.0
953.0
956.0
957.0
958.0
960.0
956.0
954.0
957.0
962.0
976.0
993.0
1018.0
1051.0
1099.0
1157.0
1212.0
1263.0
1282.0
1257.0
1183.0
1083.0
985.0
915.0
881.0
881.0
895.0
898.0
899.0
894.0
885.0
875.0
868.0
870.0
876.0
879.0
876.0
873.0
870.0
870.0
870.0
874.0
882.0
889.0
896.0
907.0
923.0
939.0
949.0
957.0
962.0
966.0
969.0
975.0
978.0
978.0
980.0
982.0
987.0
985.0
985.0
983.0
983.0
987.0
991.0
995.0
994.0
996.0
997.0
997.0
1001.0
1005.0
1002.0
1005.0
1006.0
1009.0
1014.0
1017.0
1015.0
1015.0
1018.0
1023.0
1028.0
1032.0
1035.0
1036.0
1037.0
1039.0
1045.0
1050.0
1051.0
1054.0
1057.0
1062.0
1068.0
1070.0
1070.0
1067.0
1066.0
1069.0
1072.0
1071.0
1067.0
1061.0
1057.0
1050.0
1047.0
1041.0
1035.0
1028.0
1021.0
1018.0
1018.0
1013.0
1002.0
995.0
989.0
987.0
987.0
985.0
982.0
972.0
968.0
965.0
965.0
961.0
959.0
956.0
956.0
956.0
957.0
957.0
953.0
947.0
946.0
948.0
949.0
952.0
952.0
952.0
950.0
950.0
952.0
951.0
950.0
947.0
947.0
949.0
951.0
954.0
953.0
949.0
949.0
949.0
949.0
951.0
954.0
951.0
950.0
956.0
957.0
955.0
954.0
949.0
948.0
951.0
955.0
957.0
956.0
953.0
952.0
953.0
956.0
955.0
956.0
948.0
952.0
954.0
955.0
960.0
956.0
952.0
953.0
955.0
957.0
962.0
965.0
971.0
970.0
972.0
975.0
977.0
975.0
975.0
977.0
980.0
992.0
997.0
999.0
994.0
990.0
992.0
988.0
986.0
986.0
981.0
974.0
969.0
963.0
954.0
949.0
941.0
939.0
940.0
942.0
941.0
941.0
936.0
935.0
934.0
935.0
938.0
932.0
929.0
930.0
935.0
937.0
937.0
937.0
931.0
930.0
934.0
938.0
941.0
941.0
941.0
941.0
945.0
946.0
951.0
951.0
953.0
965.0
985.0
1014.0
1053.0
1103.0
1153.0
1208.0
1250.0
1273.0
1253.0
1189.0
1098.0
1005.0
931.0
890.0
881.0
889.0
896.0
893.0
884.0
881.0
881.0
873.0
866.0
860.0
866.0
869.0
868.0
864.0
860.0
859.0
860.0
866.0
873.0
882.0
886.0
889.0
900.0
913.0
924.0
935.0
945.0
955.0
964.0
970.0
972.0
973.0
971.0
972.0
976.0
983.0
988.0
991.0
990.0
991.0
991.0
996.0
995.0
994.0
994.0
996.0
1003.0
1010.0
1012.0
1011.0
1008.0
1010.0
1015.0
1019.0
1026.0
1028.0
1026.0
1030.0
1033.0
1036.0
1040.0
1040.0
1042.0
1046.0
1053.0
1061.0
1065.0
1066.0
1065.0
1062.0
1066.0
1070.0
1079.0
1080.0
1080.0
1078.0
1085.0
1089.0
1091.0
1088.0
1083.0
1078.0
1078.0
1079.0
1078.0
1070.0
1062.0
1055.0
1050.0
1050.0
1042.0
1035.0
1030.0
1027.0
1022.0
1020.0
1018.0
1012.0
1005.0
999.0
992.0
993.0
991.0
990.0
985.0
982.0
981.0
980.0
981.0
979.0
976.0
976.0
978.0
981.0
982.0
981.0
976.0
974.0
976.0
980.0
979.0
978.0
979.0
978.0
980.0
979.0
982.0
978.0
977.0
975.0
978.0
983.0
985.0
984.0
979.0
978.0
978.0
981.0
983.0
982.0
981.0
980.0
983.0
988.0
987.0
982.0
980.0
977.0
980.0
983.0
983.0
983.0
982.0
983.0
983.0
984.0
984.0
981.0
980.0
979.0
981.0
988.0
990.0
989.0
987.0
988.0
994.0
997.0
1003.0
1006.0
1005.0
1007.0
1012.0
1017.0
1023.0
1022.0
1019.0
1024.0
1031.0
1037.0
1041.0
1039.0
1035.0
1033.0
1032.0
1032.0
1025.0
1017.0
1010.0
1002.0
999.0
997.0
996.0
991.0
986.0
983.0
982.0
981.0
981.0
980.0
977.0
973.0
973.0
976.0
975.0
972.0
967.0
963.0
964.0
969.0
971.0
971.0
967.0
966.0
970.0
973.0
972.0
971.0
971.0
969.0
974.0
981.0
986.0
992.0
1001.0
1011.0
1042.0
1082.0
1128.0
1182.0
1235.0
1280.0
1305.0
1292.0
1234.0
1138.0
1036.0
958.0
912.0
909.0
924.0
933.0
928.0
920.0
916.0
911.0
905.0
897.0
893.0
892.0
896.0
904.0
905.0
903.0
894.0
894.0
893.0
898.0
904.0
913.0
922.0
929.0
940.0
949.0
957.0
972.0
980.0
985.0
995.0
1004.0
1009.0
1009.0
1013.0
1009.0
1011.0
1017.0
1019.0
1017.0
1015.0
1016.0
1020.0
1024.0
1029.0
1026.0
1026.0
1026.0
1026.0
1031.0
1032.0
1031.0
1032.0
1032.0
1037.0
1040.0
1045.0
1045.0
1042.0
1043.0
1049.0
1052.0
1060.0
1060.0
1060.0
1062.0
1063.0
1068.0
1071.0
1070.0
1070.0
1074.0
1078.0
1085.0
1094.0
1095.0
1094.0
1095.0
1097.0
1102.0
1104.0
1106.0
1107.0
1104.0
1106.0
1109.0
1111.0
1103.0
1099.0
1094.0
1089.0
1087.0
1084.0
1080.0
1070.0
1069.0
1063.0
1061.0
1055.0
1047.0
1041.0
1036.0
1034.0
1032.0
1030.0
1027.0
1019.0
1016.0
1016.0
1011.0
1007.0
1001.0
997.0
993.0
996.0
999.0
998.0
997.0
993.0
991.0
990.0
989.0
990.0
989.0
987.0
987.0
993.0
994.0
996.0
991.0
987.0
987.0
988.0
992.0
994.0
995.0
990.0
989.0
992.0
995.0
995.0
991.0
987.0
989.0
990.0
996.0
997.0
995.0
995.0
991.0
991.0
994.0
994.0
992.0
989.0
989.0
989.0
992.0
996.0
995.0
993.0
988.0
987.0
990.0
992.0
989.0
988.0
987.0
988.0
992.0
989.0
990.0
986.0
984.0
985.0
989.0
992.0
993.0
991.0
988.0
992.0
994.0
992.0
994.0
994.0
997.0
1003.0
1012.0
1016.0
1017.0
1016.0
1014.0
1018.0
1022.0
1029.0
1032.0
1034.0
1035.0
1039.0
1043.0
1045.0
1039.0
1037.0
1035.0
1031.0
1029.0
1025.0
1020.0
1009.0
1001.0
996.0
994.0
988.0
985.0
979.0
975.0
978.0
978.0
979.0
976.0
973.0
969.0
965.0
968.0
970.0
966.0
962.0
961.0
961.0
967.0
966.0
965.0
962.0
959.0
963.0
965.0
968.0
971.0
973.0
973.0
978.0
984.0
994.0
1009.0
1030.0
1061.0
1104.0
1154.0
1204.0
1248.0
1283.0
1293.0
1269.0
1210.0
1122.0
1029.0
960.0
923.0
919.0
932.0
938.0
935.0
926.0
917.0
911.0
906.0
903.0
900.0
900.0
901.0
903.0
903.0
899.0
895.0
892.0
893.0
899.0
911.0
923.0
929.0
934.0
940.0
951.0
964.0
977.0
982.0
990.0
993.0
998.0
1002.0
1006.0
1003.0
997.0
1001.0
1003.0
1007.0
1010.0
1012.0
1011.0
1012.0
1010.0
1011.0
1015.0
1014.0
1011.0
1015.0
1020.0
1024.0
1027.0
1028.0
1028.0
1029.0
1030.0
1033.0
1037.0
1040.0
1041.0
1043.0
1045.0
1054.0
1055.0
1055.0
1053.0
1057.0
1062.0
1068.0
1075.0
1078.0
1078.0
1080.0
1081.0
1086.0
1090.0
1088.0
1088.0
1091.0
1096.0
1100.0
1100.0
1098.0
1091.0
1086.0
1085.0
1084.0
1081.0
1079.0
1069.0
1064.0
1061.0
1059.0
1054.0
1043.0
1034.0
1028.0
1022.0
1020.0
1022.0
1016.0
1008.0
1001.0
998.0
993.0
992.0
988.0
980.0
978.0
980.0
983.0
980.0
975.0
969.0
969.0
969.0
971.0
975.0
974.0
972.0
969.0
971.0
970.0
970.0
970.0
967.0
969.0
972.0
974.0
974.0
973.0
968.0
966.0
966.0
966.0
967.0
965.0
965.0
966.0
971.0
971.0
970.0
966.0
965.0
962.0
961.0
968.0
969.0
969.0
968.0
967.0
969.0
971.0
970.0
965.0
961.0
958.0
960.0
962.0
965.0
966.0
963.0
960.0
962.0
961.0
961.0
959.0
955.0
957.0
958.0
965.0
968.0
970.0
968.0
970.0
971.0
978.0
983.0
982.0
985.0
985.0
991.0
999.0
1002.0
1003.0
1006.0
1006.0
1010.0
1013.0
1012.0
1011.0
1007.0
1004.0
1000.0
999.0
990.0
980.0
971.0
965.0
964.0
964.0
961.0
957.0
950.0
946.0
948.0
946.0
947.0
944.0
940.0
941.0
940.0
944.0
943.0
938.0
930.0
933.0
935.0
937.0
938.0
938.0
937.0
937.0
940.0
941.0
942.0
940.0
936.0
939.0
944.0
952.0
962.0
970.0
984.0
1008.0
1044.0
1087.0
1136.0
1181.0
1222.0
1249.0
1250.0
1211.0
1136.0
1042.0
960.0
900.0
876.0
883.0
900.0
906.0
896.0
887.0
879.0
875.0
871.0
869.0
863.0
864.0
867.0
873.0
870.0
867.0
861.0
857.0
859.0
868.0
874.0
886.0
890.0
898.0
910.0
923.0
935.0
945.0
949.0
953.0
957.0
963.0
966.0
970.0
968.0
968.0
968.0
974.0
976.0
975.0
973.0
970.0
977.0
983.0
985.0
986.0
986.0
987.0
986.0
988.0
991.0
992.0
995.0
996.0
998.0
1004.0
1008.0
1006.0
1004.0
1006.0
1009.0
1010.0
1016.0
1016.0
1016.0
1020.0
1023.0
1030.0
1032.0
1034.0
1033.0
1032.0
1034.0
1044.0
1049.0
1051.0
1053.0
1053.0
1056.0
1059.0
1060.0
1061.0
1060.0
1058.0
1061.0
1063.0
1065.0
1060.0
1051.0
1045.0
1038.0
1035.0
1034.0
1027.0
1021.0
1017.0
1014.0
1011.0
1005.0
1000.0
991.0
984.0
983.0
982.0
981.0
979.0
972.0
968.0
964.0
963.0
959.0
958.0
953.0
953.0
955.0
957.0
956.0
954.0
951.0
947.0
947.0
950.0
953.0
954.0
950.0
946.0
949.0
952.0
953.0
951.0
946.0
948.0
950.0
952.0
954.0
951.0
950.0
950.0
951.0
952.0
953.0
949.0
948.0
949.0
949.0
956.0
954.0
954.0
946.0
944.0
948.0
949.0
953.0
954.0
950.0
950.0
950.0
949.0
950.0
946.0
947.0
947.0
949.0
950.0
954.0
954.0
949.0
947.0
946.0
952.0
954.0
959.0
958.0
963.0
966.0
970.0
972.0
973.0
972.0
975.0
980.0
987.0
996.0
999.0
998.0
998.0
997.0
999.0
996.0
993.0
987.0
983.0
983.0
978.0
972.0
964.0
957.0
952.0
950.0
948.0
945.0
941.0
943.0
942.0
945.0
947.0
944.0
942.0
938.0
937.0
938.0
940.0
942.0
942.0
941.0
938.0
940.0
942.0
943.0
942.0
940.0
940.0
944.0
949.0
953.0
951.0
951.0
957.0
967.0
991.0
1022.0
1058.0
1102.0
1148.0
1198.0
1242.0
1271.0
1268.0
1226.0
1150.0
1057.0
974.0
913.0
888.0
888.0
898.0
904.0
899.0
891.0
886.0
878.0
871.0
870.0
874.0
876.0
878.0
874.0
867.0
869.0
869.0
874.0
880.0
886.0
892.0
901.0
911.0
919.0
926.0
935.0
945.0
959.0
971.0
976.0
981.0
976.0
977.0
982.0
985.0
986.0
989.0
989.0
990.0
995.0
999.0
1001.0
1000.0
999.0
999.0
1001.0
1006.0
1009.0
1012.0
1013.0
1013.0
1016.0
1018.0
1021.0
1022.0
1023.0
1026.0
1028.0
1037.0
1044.0
1043.0
1042.0
1043.0
1044.0
1051.0
1053.0
1052.0
1056.0
1061.0
1067.0
1072.0
1078.0
1076.0
1075.0
1078.0
1082.0
1086.0
1089.0
1090.0
1092.0
1093.0
1096.0
1098.0
1098.0
1092.0
1084.0
1083.0
1081.0
1079.0
1075.0
1071.0
1065.0
1054.0
1055.0
1050.0
1046.0
1038.0
1030.0
1030.0
1028.0
1027.0
1022.0
1018.0
1011.0
1003.0
1003.0
1002.0
1001.0
1000.0
996.0
995.0
993.0
993.0
993.0
987.0
982.0
982.0
985.0
988.0
992.0
988.0
985.0
983.0
985.0
986.0
987.0
987.0
985.0
986.0
985.0
991.0
991.0
985.0
979.0
979.0
980.0
986.0
988.0
988.0
985.0
986.0
988.0
991.0
993.0
988.0
986.0
983.0
987.0
989.0
992.0
993.0
988.0
986.0
986.0
988.0
990.0
986.0
985.0
983.0
989.0
991.0
989.0
987.0
984.0
979.0
984.0
985.0
989.0
991.0
985.0
985.0
985.0
990.0
989.0
988.0
986.0
984.0
990.0
1001.0
1004.0
1008.0
1008.0
1005.0
1010.0
1013.0
1017.0
1021.0
1021.0
1025.0
1032.0
1040.0
1043.0
1039.0
1036.0
1033.0
1034.0
1038.0
1037.0
1034.0
1024.0
1018.0
1010.0
1005.0
998.0
994.0
989.0
988.0
988.0
989.0
987.0
984.0
980.0
977.0
978.0
979.0
978.0
973.0
971.0
972.0
974.0
974.0
973.0
971.0
965.0
962.0
964.0
971.0
972.0
969.0
970.0
968.0
970.0
972.0
977.0
979.0
986.0
1003.0
1028.0
1068.0
1112.0
1160.0
1212.0
1255.0
1290.0
1299.0
1264.0
1185.0
1086.0
997.0
935.0
911.0
915.0
925.0
927.0
920.0
913.0
914.0
911.0
904.0
897.0
896.0
902.0
905.0
903.0
899.0
893.0
890.0
896.0
904.0
916.0
921.0
925.0
929.0
941.0
952.0
967.0
980.0
986.0
990.0
994.0
997.0
994.0
995.0
990.0
991.0
996.0
1002.0
1005.0
1007.0
1004.0
1006.0
1006.0
1010.0
1013.0
1013.0
1012.0
1014.0
1018.0
1025.0
1028.0
1026.0
1025.0
1023.0
1025.0
1032.0
1033.0
1038.0
1037.0
1037.0
1041.0
1047.0
1050.0
1052.0
1050.0
1051.0
1055.0
1064.0
1070.0
1069.0
1070.0
1071.0
1073.0
1080.0
1083.0
1083.0
1084.0
1086.0
1091.0
1095.0
1101.0
1099.0
1096.0
1087.0
1091.0
1092.0
1091.0
1087.0
1076.0
1072.0
1068.0
1063.0
1058.0
1049.0
1042.0
1035.0
1034.0
1030.0
1027.0
1022.0
1015.0
1008.0
1003.0
1003.0
1001.0
1000.0
995.0
991.0
991.0
994.0
