# Simple Text Format
# Sampling Rate (Hz):= 360.00
# Resolution:= 12
# Labels:= ECG
1022.0
1018.0
1016.0
1018.0
1024.0
1025.0
1028.0
1027.0
1029.0
1030.0
1033.0
1035.0
1035.0
1039.0
1041.0
1047.0
1053.0
1053.0
1051.0
1052.0
1052.0
1058.0
1065.0
1066.0
1069.0
1069.0
1069.0
1072.0
1078.0
1080.0
1080.0
1082.0
1083.0
1083.0
1088.0
1090.0
1093.0
1089.0
1086.0
1086.0
1085.0
1083.0
1075.0
1070.0
1059.0
1061.0
1054.0
1048.0
1042.0
1031.0
1029.0
1028.0
1025.0
1020.0
1010.0
1005.0
999.0
1003.0
1004.0
1001.0
997.0
993.0
992.0
989.0
989.0
990.0
988.0
986.0
985.0
988.0
987.0
987.0
984.0
979.0
977.0
979.0
982.0
982.0
984.0
980.0
984.0
986.0
986.0
985.0
984.0
983.0
985.0
985.0
992.0
994.0
988.0
983.0
980.0
984.0
989.0
991.0
991.0
987.0
984.0
985.0
987.0
989.0
986.0
984.0
984.0
986.0
988.0
986.0
982.0
977.0
975.0
978.0
979.0
982.0
980.0
977.0
976.0
975.0
976.0
975.0
974.0
975.0
975.0
977.0
986.0
992.0
992.0
992.0
994.0
996.0
998.0
1004.0
1005.0
1008.0
1013.0
1020.0
1024.0
1029.0
1029.0
1026.0
1028.0
1029.0
1030.0
1025.0
1022.0
1014.0
1006.0
996.0
986.0
984.0
979.0
972.0
968.0
968.0
965.0
964.0
960.0
956.0
955.0
956.0
958.0
955.0
952.0
949.0
947.0
947.0
949.0
951.0
951.0
947.0
947.0
949.0
951.0
948.0
946.0
945.0
946.0
947.0
956.0
961.0
959.0
964.0
975.0
995.0
1028.0
1071.0
1120.0
1174.0
1224.0
1265.0
1279.0
1245.0
1165.0
1056.0
962.0
899.0
882.0
892.0
903.0
901.0
892.0
884.0
876.0
873.0
864.0
859.0
858.0
861.0
868.0
864.0
861.0
852.0
850.0
851.0
855.0
866.0
873.0
878.0
886.0
897.0
910.0
920.0
933.0
944.0
951.0
958.0
964.0
965.0
966.0
967.0
966.0
970.0
974.0
976.0
972.0
975.0
974.0
974.0
979.0
979.0
978.0
973.0
974.0
981.0
988.0
992.0
990.0
989.0
988.0
991.0
995.0
998.0
997.0
993.0
999.0
1002.0
1007.0
1009.0
1004.0
1005.0
1007.0
1014.0
1017.0
1022.0
1025.0
1023.0
1026.0
1031.0
1036.0
1042.0
1042.0
1041.0
1046.0
1051.0
1056.0
1057.0
1056.0
1052.0
1051.0
1051.0
1054.0
1053.0
1049.0
1042.0
1038.0
1034.0
1033.0
1027.0
1021.0
1013.0
1010.0
1008.0
1006.0
1002.0
998.0
987.0
981.0
975.0
977.0
977.0
974.0
969.0
964.0
961.0
961.0
959.0
957.0
951.0
950.0
951.0
952.0
950.0
948.0
942.0
939.0
940.0
942.0
943.0
942.0
942.0
941.0
940.0
947.0
946.0
945.0
942.0
942.0
944.0
948.0
946.0
947.0
942.0
941.0
944.0
947.0
950.0
954.0
951.0
950.0
953.0
951.0
955.0
950.0
946.0
945.0
948.0
953.0
955.0
955.0
952.0
948.0
949.0
948.0
948.0
947.0
947.0
948.0
946.0
951.0
952.0
949.0
948.0
947.0
949.0
949.0
953.0
957.0
962.0
966.0
968.0
970.0
973.0
975.0
975.0
980.0
988.0
996.0
1000.0
1001.0
998.0
997.0
995.0
995.0
990.0
991.0
989.0
985.0
975.0
966.0
959.0
951.0
945.0
941.0
946.0
946.0
945.0
944.0
940.0
936.0
934.0
930.0
931.0
930.0
928.0
928.0
932.0
934.0
931.0
927.0
925.0
924.0
929.0
934.0
936.0
935.0
932.0
934.0
934.0
939.0
943.0
945.0
950.0
959.0
977.0
1001.0
1037.0
1076.0
1121.0
1170.0
1217.0
1248.0
1254.0
1214.0
1142.0
1048.0
963.0
903.0
880.0
881.0
892.0
892.0
887.0
880.0
872.0
865.0
859.0
850.0
854.0
858.0
861.0
858.0
855.0
853.0
853.0
857.0
854.0
855.0
857.0
865.0
877.0
892.0
902.0
910.0
921.0
933.0
945.0
957.0
962.0
965.0
967.0
969.0
975.0
981.0
984.0
986.0
981.0
983.0
986.0
989.0
994.0
993.0
993.0
989.0
996.0
1000.0
1000.0
1000.0
1001.0
1003.0
1006.0
1011.0
1016.0
1015.0
1012.0
1012.0
1017.0
1023.0
1026.0
1028.0
1029.0
1032.0
1035.0
1040.0
1043.0
1043.0
1042.0
1047.0
1051.0
1060.0
1064.0
1068.0
1068.0
1066.0
1069.0
1074.0
1075.0
1074.0
1075.0
1081.0
1084.0
1088.0
1088.0
1085.0
1080.0
1076.0
1071.0
1070.0
1071.0
1067.0
1060.0
1055.0
1053.0
1051.0
1044.0
1038.0
1031.0
1026.0
1026.0
1026.0
1022.0
1021.0
1011.0
1007.0
1005.0
1005.0
1004.0
1002.0
998.0
995.0
994.0
996.0
996.0
994.0
991.0
990.0
992.0
996.0
997.0
994.0
995.0
989.0
992.0
992.0
994.0
990.0
990.0
993.0
996.0
1000.0
1001.0
995.0
992.0
994.0
998.0
1001.0
1005.0
1002.0
1001.0
1002.0
1000.0
1004.0
1005.0
1005.0
1007.0
1007.0
1010.0
1013.0
1014.0
1010.0
1007.0
1003.0
1007.0
1010.0
1009.0
1012.0
1011.0
1011.0
1009.0
1013.0
1013.0
1009.0
1007.0
1005.0
1010.0
1012.0
1015.0
1014.0
1008.0
1009.0
1012.0
1016.0
1017.0
1018.0
1021.0
1027.0
1030.0
1036.0
1040.0
1039.0
1038.0
1039.0
1045.0
1057.0
1061.0
1063.0
1063.0
1064.0
1066.0
1067.0
1066.0
1064.0
1058.0
1055.0
1054.0
1049.0
1041.0
1030.0
1024.0
1017.0
1016.0
1015.0
1017.0
1012.0
1008.0
1005.0
1008.0
1004.0
1003.0
999.0
992.0
992.0
994.0
999.0
999.0
1000.0
994.0
992.0
992.0
1000.0
999.0
1000.0
998.0
998.0
1002.0
1006.0
1008.0
1004.0
1003.0
1004.0
1015.0
1028.0
1043.0
1064.0
1090.0
1127.0
1174.0
1223.0
1268.0
1303.0
1320.0
1308.0
1270.0
1201.0
1112.0
1028.0
964.0
930.0
928.0
938.0
943.0
943.0
933.0
925.0
920.0
917.0
908.0
905.0
907.0
907.0
907.0
911.0
911.0
910.0
905.0
909.0
918.0
928.0
939.0
946.0
957.0
965.0
979.0
994.0
1003.0
1007.0
1010.0
1011.0
1018.0
1023.0
1028.0
1029.0
1029.0
1028.0
1029.0
1031.0
1034.0
1035.0
1035.0
1035.0
1040.0
1042.0
1043.0
1043.0
1039.0
1035.0
1042.0
1045.0
1050.0
1053.0
1052.0
1053.0
1055.0
1058.0
1059.0
1060.0
1061.0
1063.0
1069.0
1072.0
1077.0
1075.0
1075.0
1075.0
1081.0
1086.0
1091.0
1095.0
1095.0
1097.0
1101.0
1107.0
1109.0
1108.0
1108.0
1110.0
1112.0
1115.0
1116.0
1112.0
1106.0
1100.0
1098.0
1098.0
1096.0
1092.0
1085.0
1079.0
1071.0
1067.0
1060.0
1053.0
1046.0
1042.0
1038.0
1039.0
1032.0
1026.0
1020.0
1016.0
1016.0
1018.0
1018.0
1013.0
1009.0
1006.0
1005.0
1002.0
1004.0
1003.0
1001.0
1002.0
1001.0
1004.0
1005.0
1001.0
995.0
993.0
999.0
1001.0
1004.0
1005.0
1002.0
1000.0
1002.0
1001.0
1003.0
1004.0
999.0
1000.0
1004.0
1005.0
1005.0
1001.0
1000.0
1003.0
1006.0
1009.0
1008.0
1008.0
1002.0
1001.0
1004.0
1005.0
1006.0
1007.0
1005.0
1004.0
1006.0
1007.0
1005.0
1000.0
1000.0
1001.0
1002.0
1005.0
1004.0
1003.0
998.0
996.0
999.0
1002.0
1008.0
1006.0
1007.0
1008.0
1011.0
1018.0
1022.0
1024.0
1022.0
1027.0
1031.0
1037.0
1042.0
1042.0
1044.0
1048.0
1049.0
1056.0
1059.0
1056.0
1051.0
1047.0
1045.0
1041.0
1036.0
1024.0
1015.0
1008.0
1006.0
1006.0
1004.0
995.0
989.0
986.0
987.0
988.0
989.0
986.0
984.0
980.0
980.0
980.0
981.0
976.0
978.0
976.0
979.0
981.0
984.0
978.0
979.0
978.0
982.0
988.0
990.0
991.0
991.0
996.0
1010.0
1033.0
1064.0
1107.0
1155.0
1205.0
1259.0
1299.0
1302.0
1253.0
1155.0
1046.0
960.0
917.0
916.0
927.0
927.0
920.0
910.0
903.0
900.0
888.0
889.0
892.0
894.0
897.0
891.0
882.0
880.0
882.0
890.0
902.0
914.0
920.0
927.0
937.0
952.0
968.0
982.0
990.0
992.0
992.0
995.0
1001.0
1001.0
1001.0
998.0
1002.0
1009.0
1012.0
1013.0
1011.0
1010.0
1010.0
1013.0
1015.0
1020.0
1021.0
1018.0
1022.0
1024.0
1026.0
1027.0
1027.0
1026.0
1028.0
1032.0
1036.0
1040.0
1042.0
1041.0
1040.0
1041.0
1049.0
1050.0
1050.0
1053.0
1056.0
1062.0
1069.0
1069.0
1068.0
1067.0
1070.0
1075.0
1082.0
1086.0
1088.0
1087.0
1085.0
1083.0
1087.0
1086.0
1084.0
1081.0
1075.0
1069.0
1067.0
1062.0
1056.0
1049.0
1044.0
1041.0
1038.0
1036.0
1028.0
1023.0
1012.0
1016.0
1015.0
1012.0
1008.0
1004.0
998.0
996.0
996.0
992.0
988.0
986.0
985.0
986.0
988.0
989.0
983.0
980.0
978.0
977.0
982.0
980.0
983.0
981.0
979.0
979.0
979.0
983.0
980.0
979.0
980.0
986.0
987.0
987.0
984.0
977.0
977.0
981.0
986.0
988.0
988.0
984.0
982.0
981.0
984.0
984.0
984.0
982.0
979.0
982.0
984.0
984.0
980.0
975.0
976.0
977.0
981.0
983.0
979.0
977.0
973.0
973.0
973.0
977.0
974.0
971.0
975.0
977.0
975.0
976.0
971.0
971.0
969.0
973.0
980.0
986.0
987.0
988.0
989.0
992.0
996.0
1000.0
1000.0
1003.0
1008.0
1014.0
1020.0
1022.0
1024.0
1019.0
1020.0
1017.0
1022.0
1023.0
1017.0
1011.0
1002.0
995.0
987.0
979.0
976.0
969.0
969.0
969.0
968.0
965.0
956.0
953.0
952.0
952.0
958.0
958.0
956.0
951.0
947.0
947.0
949.0
951.0
950.0
947.0
946.0
949.0
953.0
953.0
947.0
947.0
946.0
952.0
958.0
963.0
970.0
985.0
1004.0
1038.0
1082.0
1135.0
1188.0
1232.0
1264.0
1262.0
1216.0
1125.0
1020.0
934.0
887.0
882.0
895.0
908.0
903.0
892.0
882.0
873.0
864.0
862.0
862.0
860.0
864.0
865.0
862.0
857.0
850.0
847.0
850.0
863.0
877.0
889.0
901.0
908.0
918.0
930.0
940.0
951.0
956.0
958.0
960.0
965.0
965.0
967.0
967.0
962.0
966.0
969.0
976.0
974.0
975.0
973.0
974.0
975.0
980.0
983.0
985.0
984.0
984.0
987.0
990.0
990.0
987.0
985.0
986.0
987.0
994.0
1001.0
1003.0
1001.0
1001.0
1003.0
1008.0
1014.0
1013.0
1017.0
1019.0
1021.0
1029.0
1028.0
1031.0
1031.0
1033.0
1039.0
1046.0
1047.0
1044.0
1039.0
1037.0
1039.0
1040.0
1037.0
1029.0
1024.0
1019.0
1016.0
1013.0
1009.0
1002.0
995.0
989.0
987.0
984.0
982.0
973.0
967.0
961.0
960.0
964.0
964.0
961.0
953.0
949.0
947.0
944.0
948.0
947.0
945.0
947.0
947.0
949.0
948.0
944.0
941.0
939.0
943.0
947.0
948.0
947.0
944.0
945.0
941.0
943.0
947.0
949.0
946.0
945.0
942.0
947.0
951.0
950.0
952.0
950.0
954.0
955.0
954.0
952.0
948.0
947.0
950.0
952.0
954.0
951.0
947.0
943.0
943.0
948.0
947.0
947.0
944.0
945.0
948.0
952.0
957.0
953.0
953.0
953.0
961.0
967.0
971.0
972.0
974.0
976.0
980.0
989.0
998.0
999.0
999.0
998.0
1001.0
1003.0
1002.0
995.0
988.0
982.0
975.0
972.0
964.0
957.0
948.0
949.0
948.0
947.0
944.0
940.0
937.0
936.0
937.0
937.0
936.0
933.0
929.0
929.0
934.0
937.0
936.0
933.0
933.0
931.0
934.0
935.0
936.0
936.0
935.0
938.0
942.0
946.0
949.0
952.0
960.0
980.0
1014.0
1057.0
1109.0
1162.0
1209.0
1245.0
1257.0
1231.0
1162.0
1064.0
971.0
907.0
881.0
890.0
899.0
899.0
888.0
877.0
875.0
869.0
865.0
863.0
863.0
863.0
865.0
867.0
863.0
859.0
855.0
856.0
863.0
874.0
882.0
889.0
897.0
907.0
923.0
936.0
952.0
961.0
969.0
973.0
975.0
979.0
982.0
984.0
983.0
986.0
990.0
992.0
995.0
994.0
993.0
992.0
995.0
999.0
1004.0
1005.0
1005.0
1004.0
1007.0
1008.0
1012.0
1014.0
1017.0
1020.0
1024.0
1025.0
1031.0
1029.0
1028.0
1029.0
1040.0
1048.0
1054.0
1053.0
1054.0
1055.0
1060.0
1066.0
1072.0
1075.0
1076.0
1076.0
1080.0
1085.0
1087.0
1084.0
1082.0
1081.0
1085.0
1084.0
1079.0
1067.0
1060.0
1057.0
1054.0
1054.0
1052.0
1043.0
1038.0
1031.0
1028.0
1026.0
1024.0
1020.0
1016.0
1013.0
1010.0
1008.0
1004.0
1002.0
997.0
995.0
1000.0
1000.0
998.0
995.0
991.0
989.0
990.0
991.0
996.0
995.0
994.0
993.0
990.0
996.0
996.0
999.0
994.0
994.0
1001.0
1002.0
1004.0
1000.0
1001.0
997.0
1000.0
1008.0
1009.0
1006.0
1005.0
1003.0
1004.0
1009.0
1007.0
1002.0
1004.0
1005.0
1008.0
1009.0
1010.0
1007.0
1000.0
1005.0
1007.0
1008.0
1010.0
1010.0
1003.0
1004.0
1005.0
1006.0
1007.0
1008.0
1009.0
1014.0
1016.0
1023.0
1028.0
1028.0
1028.0
1028.0
1036.0
1043.0
1045.0
1052.0
1051.0
1055.0
1055.0
1059.0
1061.0
1057.0
1056.0
1052.0
1048.0
1045.0
1038.0
1028.0
1016.0
1012.0
1009.0
1009.0
1006.0
1001.0
994.0
993.0
993.0
996.0
997.0
995.0
994.0
988.0
990.0
989.0
988.0
985.0
987.0
987.0
988.0
991.0
992.0
990.0
988.0
988.0
991.0
995.0
999.0
1004.0
1004.0
1014.0
1031.0
1056.0
1096.0
1144.0
1194.0
1246.0
1287.0
1313.0
1298.0
1239.0
1148.0
1054.0
982.0
941.0
930.0
932.0
938.0
933.0
926.0
922.0
917.0
911.0
902.0
899.0
902.0
908.0
908.0
905.0
899.0
893.0
891.0
894.0
900.0
903.0
910.0
921.0
931.0
939.0
947.0
963.0
975.0
987.0
998.0
1005.0
1007.0
1009.0
1008.0
1010.0
1013.0
1016.0
1021.0
1021.0
1021.0
1022.0
1023.0
1027.0
1029.0
1025.0
1025.0
1025.0
1028.0
1034.0
1037.0
1035.0
1033.0
1033.0
1032.0
1038.0
1045.0
1046.0
1045.0
1043.0
1048.0
1052.0
1054.0
1056.0
1057.0
1060.0
1066.0
1071.0
1076.0
1075.0
1075.0
1075.0
1080.0
1087.0
1095.0
1096.0
1096.0
1094.0
1097.0
1099.0
1101.0
1099.0
1094.0
1094.0
1094.0
1093.0
1095.0
1088.0
1080.0
1071.0
1068.0
1067.0
1064.0
1057.0
1049.0
1045.0
1041.0
1036.0
1037.0
1028.0
1022.0
1020.0
1019.0
1016.0
1017.0
1012.0
1004.0
1000.0
1002.0
1002.0
1002.0
997.0
996.0
994.0
995.0
998.0
994.0
993.0
989.0
986.0
989.0
992.0
996.0
994.0
988.0
985.0
988.0
992.0
992.0
992.0
991.0
990.0
989.0
991.0
994.0
990.0
989.0
989.0
992.0
996.0
997.0
993.0
990.0
987.0
990.0
993.0
994.0
994.0
992.0
989.0
989.0
993.0
994.0
989.0
987.0
991.0
993.0
997.0
997.0
994.0
989.0
985.0
986.0
989.0
989.0
990.0
989.0
991.0
991.0
995.0
996.0
995.0
999.0
1002.0
1010.0
1017.0
1019.0
1017.0
1017.0
1019.0
1026.0
1033.0
1039.0
1044.0
1041.0
1041.0
1041.0
1043.0
1042.0
1039.0
1032.0
1032.0
1026.0
1022.0
1012.0
1003.0
995.0
992.0
990.0
987.0
988.0
984.0
981.0
980.0
978.0
976.0
977.0
973.0
969.0
969.0
973.0
974.0
973.0
970.0
965.0
969.0
969.0
971.0
970.0
971.0
968.0
969.0
973.0
979.0
979.0
984.0
988.0
1006.0
1033.0
1070.0
1116.0
1170.0
1222.0
1263.0
1289.0
1276.0
1217.0
1128.0
1029.0
955.0
917.0
906.0
915.0
920.0
917.0
910.0
906.0
900.0
896.0
889.0
884.0
883.0
885.0
887.0
888.0
883.0
879.0
878.0
881.0
889.0
892.0
900.0
908.0
917.0
933.0
949.0
965.0
974.0
982.0
983.0
984.0
988.0
992.0
994.0
996.0
998.0
1004.0
1006.0
1008.0
1004.0
1002.0
998.0
1004.0
1007.0
1012.0
1011.0
1010.0
1008.0
1006.0
1009.0
1014.0
1014.0
1013.0
1015.0
1017.0
1022.0
1025.0
1026.0
1020.0
1022.0
1028.0
1032.0
1035.0
1039.0
1039.0
1040.0
1043.0
1047.0
1048.0
1047.0
1047.0
1050.0
1055.0
1062.0
1063.0
1065.0
1061.0
1061.0
1064.0
1069.0
1070.0
1070.0
1069.0
1068.0
1068.0
1067.0
1065.0
1057.0
1050.0
1046.0
1043.0
1041.0
1041.0
1035.0
1028.0
1022.0
1017.0
1015.0
1011.0
1004.0
999.0
995.0
991.0
992.0
987.0
979.0
972.0
969.0
968.0
970.0
967.0
966.0
961.0
959.0
955.0
957.0
956.0
956.0
953.0
954.0
956.0
956.0
955.0
954.0
947.0
947.0
952.0
955.0
960.0
958.0
953.0
951.0
953.0
955.0
955.0
952.0
949.0
950.0
953.0
957.0
954.0
955.0
953.0
951.0
952.0
956.0
958.0
957.0
955.0
955.0
955.0
954.0
956.0
949.0
948.0
945.0
947.0
954.0
956.0
952.0
945.0
942.0
944.0
947.0
951.0
949.0
948.0
950.0
958.0
962.0
965.0
962.0
964.0
964.0
967.0
975.0
981.0
984.0
987.0
992.0
996.0
998.0
997.0
998.0
994.0
992.0
989.0
989.0
989.0
985.0
975.0
961.0
955.0
950.0
951.0
946.0
942.0
939.0
937.0
935.0
934.0
928.0
924.0
921.0
922.0
923.0
924.0
923.0
919.0
914.0
918.0
921.0
924.0
920.0
915.0
915.0
919.0
923.0
918.0
920.0
916.0
917.0
918.0
925.0
928.0
931.0
932.0
941.0
954.0
972.0
1004.0
1039.0
1084.0
1138.0
1188.0
1222.0
1236.0
1213.0
1151.0
1067.0
981.0
915.0
875.0
862.0
867.0
874.0
875.0
870.0
862.0
852.0
841.0
834.0
837.0
839.0
846.0
844.0
840.0
836.0
835.0
833.0
830.0
830.0
831.0
838.0
850.0
861.0
869.0
877.0
882.0
893.0
906.0
921.0
931.0
937.0
937.0
933.0
938.0
944.0
946.0
947.0
946.0
947.0
951.0
953.0
958.0
959.0
956.0
955.0
957.0
962.0
962.0
963.0
960.0
965.0
967.0
971.0
973.0
971.0
967.0
969.0
970.0
975.0
979.0
980.0
978.0
980.0
984.0
988.0
990.0
990.0
993.0
994.0
1000.0
1007.0
1012.0
1013.0
1013.0
1014.0
1015.0
1020.0
1026.0
1030.0
1030.0
1031.0
1032.0
1033.0
1033.0
1027.0
1027.0
1024.0
1023.0
1027.0
1024.0
1020.0
1011.0
1004.0
1001.0
996.0
994.0
989.0
985.0
980.0
978.0
976.0
972.0
963.0
958.0
956.0
954.0
954.0
949.0
946.0
942.0
939.0
937.0
936.0
938.0
933.0
935.0
933.0
933.0
934.0
934.0
932.0
931.0
927.0
931.0
933.0
936.0
935.0
933.0
930.0
931.0
935.0
936.0
934.0
932.0
931.0
934.0
938.0
941.0
938.0
933.0
932.0
936.0
936.0
938.0
938.0
936.0
937.0
939.0
941.0
939.0
937.0
935.0
935.0
937.0
940.0
942.0
939.0
932.0
932.0
936.0
937.0
940.0
944.0
942.0
947.0
955.0
958.0
958.0
959.0
956.0
962.0
968.0
975.0
981.0
984.0
984.0
987.0
990.0
992.0
995.0
991.0
991.0
990.0
989.0
989.0
984.0
976.0
963.0
954.0
951.0
951.0
951.0
948.0
945.0
941.0
941.0
940.0
940.0
936.0
932.0
930.0
935.0
939.0
939.0
934.0
930.0
927.0
930.0
933.0
936.0
934.0
933.0
934.0
937.0
940.0
941.0
940.0
937.0
941.0
947.0
955.0
964.0
972.0
988.0
1016.0
1060.0
1113.0
1165.0
1213.0
1250.0
1261.0
1248.0
1198.0
1117.0
1027.0
949.0
902.0
882.0
888.0
898.0
897.0
887.0
877.0
871.0
867.0
864.0
858.0
853.0
856.0
859.0
864.0
863.0
854.0
851.0
847.0
848.0
858.0
870.0
878.0
884.0
890.0
901.0
918.0
931.0
940.0
948.0
956.0
965.0
971.0
975.0
974.0
973.0
972.0
978.0
981.0
983.0
987.0
985.0
987.0
989.0
989.0
990.0
992.0
990.0
989.0
994.0
1001.0
1003.0
1004.0
1000.0
1002.0
1003.0
1008.0
1009.0
1013.0
1011.0
1015.0
1019.0
1024.0
1024.0
1023.0
1024.0
1022.0
1030.0
1036.0
1040.0
1043.0
1044.0
1044.0
1048.0
1053.0
1056.0
1056.0
1057.0
1057.0
1059.0
1062.0
1065.0
1067.0
1066.0
1064.0
1062.0
1064.0
1063.0
1060.0
1056.0
1057.0
1054.0
1051.0
1048.0
1041.0
1034.0
1027.0
1027.0
1026.0
1026.0
1019.0
1016.0
1012.0
1006.0
1003.0
1000.0
995.0
993.0
989.0
994.0
993.0
993.0
987.0
981.0
980.0
979.0
980.0
982.0
980.0
973.0
973.0
977.0
977.0
976.0
973.0
969.0
972.0
975.0
980.0
983.0
980.0
975.0
973.0
976.0
980.0
982.0
981.0
978.0
979.0
981.0
981.0
983.0
980.0
976.0
977.0
979.0
982.0
985.0
984.0
982.0
978.0
981.0
981.0
982.0
981.0
979.0
978.0
981.0
984.0
983.0
981.0
977.0
976.0
977.0
983.0
983.0
985.0
982.0
979.0
982.0
982.0
987.0
987.0
988.0
993.0
998.0
1005.0
1010.0
1011.0
1010.0
1011.0
1015.0
1022.0
1029.0
1031.0
1033.0
1035.0
1033.0
1039.0
1041.0
1038.0
1032.0
1026.0
1026.0
1025.0
1022.0
1009.0
999.0
990.0
988.0
986.0
985.0
981.0
978.0
974.0
974.0
971.0
971.0
967.0
963.0
963.0
962.0
965.0
967.0
967.0
963.0
960.0
958.0
962.0
964.0
964.0
962.0
960.0
966.0
968.0
970.0
970.0
968.0
973.0
988.0
1010.0
1038.0
1071.0
1114.0
1162.0
1216.0
1261.0
1289.0
1285.0
1236.0
1149.0
1050.0
971.0
916.0
896.0
897.0
906.0
910.0
909.0
905.0
895.0
884.0
876.0
876.0
878.0
884.0
886.0
883.0
879.0
879.0
880.0
882.0
891.0
894.0
902.0
910.0
925.0
940.0
950.0
958.0
970.0
979.0
988.0
988.0
992.0
992.0
993.0
999.0
1000.0
1002.0
1003.0
1000.0
1001.0
1005.0
1009.0
1012.0
1012.0
1010.0
1007.0
1010.0
1015.0
1013.0
1013.0
1013.0
1013.0
1020.0
1024.0
1025.0
1026.0
1022.0
1023.0
1026.0
1034.0
1037.0
1039.0
1038.0
1040.0
1045.0
1051.0
1054.0
1055.0
1057.0
1060.0
1066.0
1068.0
1073.0
1075.0
1073.0
1074.0
1075.0
1083.0
1084.0
1084.0
1083.0
1082.0
1083.0
1083.0
1081.0
1074.0
1068.0
1062.0
1063.0
1063.0
1061.0
1052.0
1044.0
1033.0
1032.0
1030.0
1027.0
1023.0
1016.0
1013.0
1010.0
1010.0
1006.0
999.0
991.0
990.0
990.0
990.0
989.0
986.0
980.0
979.0
976.0
977.0
977.0
975.0
972.0
973.0
973.0
978.0
975.0
974.0
971.0
971.0
974.0
980.0
980.0
976.0
973.0
974.0
972.0
977.0
979.0
980.0
979.0
978.0
982.0
983.0
984.0
977.0
978.0
980.0
981.0
988.0
990.0
989.0
983.0
980.0
983.0
983.0
988.0
986.0
983.0
984.0
983.0
985.0
986.0
982.0
978.0
977.0
982.0
983.0
985.0
985.0
984.0
983.0
984.0
990.0
997.0
998.0
1001.0
1002.0
1007.0
1013.0
1018.0
1016.0
1014.0
1020.0
1027.0
1038.0
1042.0
1040.0
1035.0
1034.0
1033.0
1032.0
1031.0
1024.0
1016.0
1010.0
1003.0
1000.0
996.0
988.0
980.0
978.0
977.0
978.0
978.0
972.0
972.0
970.0
971.0
970.0
968.0
964.0
959.0
959.0
961.0
965.0
966.0
966.0
962.0
960.0
959.0
962.0
965.0
968.0
967.0
965.0
972.0
978.0
980.0
983.0
992.0
1007.0
1038.0
1079.0
1126.0
1173.0
1222.0
1262.0
1284.0
1272.0
1215.0
1120.0
1021.0
945.0
907.0
903.0
916.0
918.0
915.0
904.0
902.0
898.0
892.0
883.0
881.0
883.0
886.0
886.0
884.0
881.0
876.0
877.0
880.0
888.0
897.0
904.0
911.0
921.0
935.0
955.0
966.0
976.0
981.0
982.0
984.0
990.0
991.0
995.0
993.0
997.0
1000.0
1003.0
1005.0
1002.0
998.0
1000.0
1002.0
1010.0
1012.0
1011.0
1009.0
1008.0
1009.0
1012.0
1015.0
1014.0
1015.0
1018.0
1023.0
1027.0
1028.0
1027.0
1024.0
1024.0
1027.0
1033.0
1037.0
1038.0
1036.0
1037.0
1042.0
1047.0
1050.0
1050.0
1055.0
1056.0
1060.0
1066.0
1068.0
1066.0
1064.0
1064.0
1067.0
1070.0
1072.0
1071.0
1067.0
1061.0
1060.0
1057.0
1053.0
1047.0
1040.0
1037.0
1031.0
1031.0
1026.0
1015.0
1009.0
1004.0
1004.0
1004.0
1001.0
996.0
986.0
983.0
980.0
980.0
976.0
973.0
969.0
968.0
968.0
969.0
966.0
960.0
956.0
956.0
957.0
962.0
961.0
960.0
955.0
953.0
955.0
960.0
959.0
961.0
958.0
957.0
960.0
962.0
960.0
958.0
956.0
957.0
962.0
964.0
959.0
960.0
960.0
960.0
958.0
963.0
962.0
961.0
960.0
960.0
963.0
963.0
961.0
957.0
957.0
958.0
957.0
963.0
962.0
958.0
957.0
954.0
953.0
952.0
953.0
951.0
955.0
955.0
959.0
961.0
964.0
967.0
965.0
971.0
977.0
982.0
987.0
985.0
986.0
987.0
995.0
1003.0
1007.0
1009.0
1006.0
1004.0
1006.0
1006.0
1002.0
995.0
985.0
976.0
971.0
966.0
962.0
957.0
949.0
943.0
939.0
944.0
946.0
944.0
939.0
930.0
931.0
933.0
931.0
930.0
929.0
928.0
933.0
934.0
939.0
933.0
929.0
927.0
930.0
933.0
935.0
935.0
935.0
937.0
943.0
951.0
964.0
981.0
1009.0
1053.0
1112.0
1169.0
1217.0
1245.0
1235.0
1179.0
1081.0
975.0
894.0
866.0
870.0
882.0
885.0
878.0
869.0
859.0
855.0
845.0
847.0
852.0
853.0
848.0
843.0
841.0
838.0
839.0
847.0
856.0
865.0
868.0
881.0
891.0
906.0
919.0
929.0
938.0
943.0
947.0
948.0
949.0
947.0
951.0
957.0
958.0
962.0
961.0
960.0
957.0
958.0
958.0
964.0
963.0
963.0
964.0
966.0
968.0
972.0
973.0
971.0
973.0
974.0
979.0
984.0
983.0
979.0
978.0
980.0
989.0
993.0
992.0
995.0
991.0
997.0
1000.0
1000.0
1000.0
999.0
1001.0
1009.0
1011.0
1018.0
1015.0
1012.0
1013.0
1017.0
1022.0
1022.0
1018.0
1013.0
1007.0
1002.0
1000.0
997.0
990.0
986.0
980.0
978.0
979.0
971.0
963.0
954.0
949.0
949.0
948.0
946.0
941.0
933.0
931.0
930.0
930.0
928.0
925.0
921.0
919.0
919.0
923.0
922.0
919.0
912.0
914.0
917.0
920.0
923.0
922.0
917.0
916.0
920.0
921.0
924.0
922.0
922.0
923.0
924.0
923.0
924.0
923.0
922.0
923.0
924.0
930.0
932.0
930.0
925.0
922.0
927.0
927.0
929.0
932.0
932.0
930.0
934.0
935.0
934.0
934.0
933.0
932.0
936.0
939.0
939.0
939.0
933.0
931.0
932.0
938.0
940.0
944.0
945.0
945.0
949.0
956.0
961.0
959.0
961.0
964.0
970.0
979.0
985.0
987.0
986.0
989.0
988.0
993.0
994.0
994.0
989.0
984.0
976.0
971.0
964.0
958.0
950.0
946.0
946.0
947.0
944.0
938.0
932.0
931.0
931.0
934.0
935.0
934.0
926.0
926.0
927.0
927.0
928.0
928.0
926.0
928.0
928.0
933.0
930.0
931.0
928.0
931.0
937.0
941.0
946.0
950.0
957.0
968.0
995.0
1033.0
1081.0
1137.0
1193.0
1243.0
1270.0
1257.0
1192.0
1088.0
979.0
900.0
864.0
867.0
885.0
886.0
871.0
864.0
857.0
855.0
852.0
850.0
852.0
854.0
859.0
859.0
855.0
851.0
845.0
849.0
863.0
875.0
886.0
895.0
903.0
911.0
927.0
946.0
961.0
966.0
969.0
976.0
978.0
983.0
985.0
985.0
984.0
987.0
991.0
996.0
997.0
997.0
995.0
993.0
994.0
1000.0
1002.0
1004.0
1004.0
1007.0
1008.0
1009.0
1013.0
1011.0
1011.0
1014.0
1022.0
1027.0
1030.0
1030.0
1029.0
1031.0
1032.0
1039.0
1045.0
1048.0
1051.0
1053.0
1058.0
1064.0
1067.0
1069.0
1067.0
1072.0
1076.0
1083.0
1086.0
1087.0
1088.0
1083.0
1083.0
1085.0
1085.0
1083.0
1077.0
1075.0
1071.0
1068.0
1063.0
1056.0
1048.0
1039.0
1036.0
1034.0
1032.0
1026.0
1019.0
1005.0
1001.0
995.0
993.0
993.0
993.0
995.0
994.0
998.0
996.0
993.0
991.0
988.0
988.0
992.0
992.0
990.0
984.0
985.0
986.0
990.0
993.0
996.0
994.0
995.0
994.0
997.0
999.0
996.0
996.0
996.0
998.0
1003.0
1007.0
1006.0
1003.0
1003.0
1004.0
1006.0
1010.0
1010.0
1009.0
1008.0
1011.0
1010.0
1012.0
1012.0
1008.0
1008.0
1009.0
1013.0
1014.0
1011.0
1006.0
1002.0
1001.0
1006.0
1007.0
1008.0
1003.0
998.0
1000.0
1000.0
1002.0
997.0
992.0
992.0
997.0
998.0
999.0
997.0
995.0
998.0
1003.0
1009.0
1013.0
1013.0
1013.0
1016.0
1019.0
1024.0
1028.0
1030.0
1029.0
1036.0
1037.0
1042.0
1043.0
1039.0
1032.0
1030.0
1030.0
1028.0
1020.0
1015.0
1005.0
998.0
995.0
993.0
990.0
987.0
983.0
980.0
984.0
985.0
983.0
980.0
971.0
970.0
972.0
974.0
977.0
975.0
975.0
972.0
972.0
975.0
972.0
969.0
970.0
970.0
974.0
980.0
981.0
982.0
981.0
986.0
998.0
1018.0
1045.0
1080.0
1123.0
1174.0
1227.0
1275.0
1300.0
1297.0
1252.0
1170.0
1075.0
994.0
941.0
918.0
920.0
927.0
928.0
926.0
922.0
913.0
903.0
895.0
894.0
898.0
902.0
899.0
893.0
891.0
894.0
895.0
903.0
908.0
913.0
921.0
933.0
946.0
959.0
972.0
983.0
989.0
1000.0
1002.0
1006.0
1007.0
1009.0
1009.0
1014.0
1020.0
1022.0
1020.0
1020.0
1021.0
1023.0
1026.0
1027.0
1029.0
1028.0
1026.0
1026.0
1032.0
1031.0
1031.0
1029.0
1031.0
1030.0
1038.0
1041.0
1040.0
1042.0
1042.0
1043.0
1047.0
1053.0
1053.0
1054.0
1059.0
1062.0
1066.0
1070.0
1070.0
1069.0
1075.0
1080.0
1086.0
1090.0
1091.0
1089.0
1089.0
1092.0
1094.0
1097.0
1098.0
1096.0
1092.0
1091.0
1090.0
1088.0
1082.0
1076.0
1071.0
1066.0
1062.0
1063.0
1058.0
1050.0
1043.0
1038.0
1036.0
1034.0
1031.0
1026.0
1022.0
1019.0
1017.0
1014.0
