# Simple Text Format
# Sampling Rate (Hz):= 360.00
# Resolution:= 12
# Labels:= ECG
1011.0
1006.0
1004.0
1002.0
1001.0
1003.0
1001.0
997.0
991.0
990.0
991.0
994.0
995.0
994.0
993.0
996.0
994.0
998.0
994.0
990.0
991.0
991.0
996.0
997.0
997.0
994.0
992.0
991.0
995.0
998.0
998.0
996.0
996.0
999.0
1001.0
1000.0
1002.0
998.0
998.0
999.0
1003.0
1005.0
1006.0
1002.0
998.0
995.0
1000.0
1002.0
1001.0
1000.0
997.0
998.0
1000.0
1002.0
997.0
997.0
996.0
998.0
1004.0
1002.0
999.0
995.0
991.0
992.0
996.0
998.0
999.0
998.0
1000.0
1001.0
1005.0
1008.0
1009.0
1013.0
1017.0
1020.0
1025.0
1030.0
1035.0
1029.0
1031.0
1037.0
1043.0
1049.0
1049.0
1047.0
1048.0
1048.0
1051.0
1049.0
1043.0
1035.0
1029.0
1022.0
1018.0
1013.0
1005.0
994.0
992.0
988.0
989.0
988.0
985.0
980.0
979.0
982.0
981.0
981.0
978.0
975.0
972.0
977.0
981.0
978.0
974.0
974.0
973.0
974.0
977.0
981.0
982.0
984.0
983.0
984.0
992.0
998.0
1009.0
1028.0
1061.0
1109.0
1165.0
1217.0
1264.0
1291.0
1289.0
1235.0
1151.0
1051.0
968.0
919.0
911.0
920.0
929.0
925.0
916.0
905.0
899.0
895.0
888.0
892.0
891.0
891.0
885.0
883.0
879.0
882.0
884.0
889.0
893.0
901.0
915.0
927.0
940.0
953.0
964.0
975.0
984.0
988.0
988.0
987.0
986.0
991.0
998.0
1002.0
1003.0
999.0
998.0
996.0
1000.0
1003.0
1003.0
1005.0
1003.0
1002.0
1008.0
1008.0
1007.0
1007.0
1008.0
1011.0
1016.0
1021.0
1020.0
1020.0
1017.0
1019.0
1022.0
1024.0
1028.0
1029.0
1029.0
1032.0
1035.0
1041.0
1042.0
1041.0
1041.0
1045.0
1050.0
1058.0
1056.0
1057.0
1055.0
1057.0
1064.0
1068.0
1067.0
1065.0
1062.0
1061.0
1069.0
1064.0
1056.0
1050.0
1038.0
1036.0
1039.0
1038.0
1031.0
1023.0
1015.0
1012.0
1013.0
1010.0
1006.0
1000.0
995.0
993.0
992.0
993.0
987.0
979.0
974.0
972.0
975.0
973.0
974.0
971.0
966.0
968.0
965.0
964.0
963.0
963.0
960.0
961.0
966.0
968.0
969.0
964.0
960.0
957.0
964.0
966.0
967.0
966.0
966.0
965.0
967.0
968.0
968.0
964.0
966.0
966.0
970.0
971.0
972.0
970.0
964.0
967.0
967.0
969.0
966.0
966.0
966.0
966.0
968.0
966.0
965.0
961.0
961.0
960.0
962.0
967.0
968.0
964.0
962.0
960.0
960.0
964.0
967.0
964.0
964.0
966.0
968.0
970.0
972.0
973.0
975.0
980.0
982.0
985.0
985.0
987.0
990.0
994.0
998.0
1004.0
1009.0
1012.0
1009.0
1012.0
1014.0
1012.0
1010.0
1004.0
997.0
993.0
987.0
983.0
976.0
968.0
962.0
959.0
956.0
953.0
951.0
948.0
946.0
944.0
947.0
946.0
944.0
941.0
938.0
938.0
938.0
940.0
942.0
941.0
941.0
941.0
944.0
945.0
943.0
942.0
941.0
942.0
948.0
952.0
952.0
952.0
957.0
971.0
992.0
1025.0
1067.0
1118.0
1171.0
1219.0
1252.0
1262.0
1223.0
1147.0
1048.0
961.0
906.0
886.0
888.0
895.0
895.0
891.0
885.0
879.0
870.0
863.0
856.0
862.0
865.0
866.0
862.0
855.0
851.0
852.0
857.0
862.0
870.0
876.0
881.0
890.0
905.0
918.0
930.0
942.0
949.0
956.0
960.0
963.0
964.0
967.0
965.0
968.0
977.0
979.0
979.0
976.0
977.0
976.0
980.0
981.0
981.0
982.0
982.0
985.0
989.0
991.0
991.0
989.0
988.0
993.0
999.0
1002.0
1008.0
1006.0
1006.0
1005.0
1006.0
1008.0
1011.0
1013.0
1016.0
1019.0
1025.0
1029.0
1030.0
1031.0
1031.0
1037.0
1043.0
1046.0
1050.0
1052.0
1053.0
1055.0
1058.0
1060.0
1058.0
1057.0
1057.0
1060.0
1060.0
1058.0
1054.0
1044.0
1038.0
1033.0
1031.0
1031.0
1025.0
1017.0
1010.0
1005.0
996.0
993.0
989.0
986.0
981.0
981.0
976.0
981.0
977.0
972.0
968.0
965.0
965.0
968.0
967.0
963.0
959.0
961.0
961.0
962.0
961.0
962.0
962.0
961.0
964.0
968.0
966.0
964.0
958.0
963.0
968.0
970.0
974.0
974.0
973.0
973.0
975.0
977.0
978.0
974.0
969.0
973.0
977.0
980.0
977.0
976.0
971.0
973.0
975.0
976.0
980.0
977.0
976.0
977.0
979.0
979.0
977.0
974.0
971.0
976.0
979.0
982.0
982.0
978.0
975.0
977.0
981.0
984.0
986.0
985.0
985.0
987.0
987.0
990.0
992.0
994.0
999.0
1003.0
1007.0
1012.0
1011.0
1014.0
1011.0
1015.0
1021.0
1027.0
1035.0
1034.0
1036.0
1038.0
1042.0
1042.0
1038.0
1034.0
1030.0
1024.0
1025.0
1023.0
1014.0
1000.0
994.0
992.0
988.0
988.0
984.0
980.0
976.0
978.0
980.0
980.0
977.0
974.0
968.0
974.0
980.0
982.0
980.0
979.0
974.0
974.0
977.0
981.0
979.0
976.0
978.0
979.0
981.0
983.0
984.0
982.0
982.0
987.0
997.0
1010.0
1029.0
1052.0
1086.0
1131.0
1182.0
1234.0
1276.0
1305.0
1304.0
1262.0
1188.0
1101.0
1012.0
948.0
919.0
922.0
933.0
939.0
933.0
926.0
918.0
914.0
909.0
904.0
905.0
905.0
905.0
908.0
908.0
905.0
899.0
898.0
900.0
910.0
919.0
927.0
935.0
940.0
951.0
970.0
987.0
998.0
1003.0
1003.0
1005.0
1009.0
1012.0
1014.0
1014.0
1017.0
1021.0
1024.0
1028.0
1028.0
1026.0
1024.0
1026.0
1029.0
1032.0
1037.0
1033.0
1032.0
1035.0
1033.0
1037.0
1039.0
1039.0
1038.0
1034.0
1040.0
1046.0
1052.0
1051.0
1046.0
1043.0
1043.0
1050.0
1057.0
1058.0
1060.0
1061.0
1065.0
1070.0
1073.0
1074.0
1075.0
1077.0
1082.0
1091.0
1093.0
1094.0
1096.0
1093.0
1095.0
1101.0
1104.0
1103.0
1104.0
1099.0
1103.0
1102.0
1100.0
1094.0
1088.0
1080.0
1079.0
1078.0
1077.0
1072.0
1066.0
1061.0
1056.0
1050.0
1047.0
1044.0
1038.0
1035.0
1033.0
1032.0
1032.0
1026.0
1017.0
1013.0
1010.0
1011.0
1008.0
1006.0
1004.0
1002.0
1003.0
1005.0
1003.0
1000.0
995.0
994.0
992.0
998.0
999.0
998.0
994.0
989.0
993.0
992.0
997.0
995.0
995.0
995.0
998.0
1001.0
1001.0
1000.0
998.0
995.0
993.0
998.0
1001.0
1003.0
1003.0
1000.0
1000.0
1001.0
1003.0
1002.0
997.0
999.0
1003.0
1006.0
1009.0
1007.0
1002.0
997.0
998.0
1002.0
1003.0
999.0
997.0
1000.0
999.0
999.0
998.0
994.0
992.0
991.0
996.0
998.0
999.0
998.0
995.0
993.0
992.0
992.0
992.0
993.0
992.0
993.0
993.0
997.0
998.0
999.0
998.0
1003.0
1008.0
1015.0
1020.0
1022.0
1021.0
1023.0
1025.0
1034.0
1038.0
1042.0
1040.0
1042.0
1046.0
1049.0
1048.0
1043.0
1035.0
1037.0
1032.0
1031.0
1024.0
1014.0
1004.0
998.0
995.0
994.0
989.0
985.0
982.0
981.0
981.0
982.0
980.0
975.0
975.0
972.0
972.0
974.0
977.0
978.0
976.0
974.0
974.0
974.0
973.0
976.0
974.0
975.0
978.0
983.0
984.0
985.0
985.0
987.0
999.0
1018.0
1046.0
1083.0
1127.0
1177.0
1231.0
1278.0
1301.0
1291.0
1233.0
1141.0
1039.0
958.0
919.0
912.0
925.0
930.0
924.0
916.0
911.0
905.0
896.0
890.0
891.0
894.0
896.0
896.0
892.0
891.0
887.0
890.0
893.0
896.0
899.0
908.0
918.0
932.0
943.0
958.0
968.0
977.0
987.0
993.0
997.0
997.0
997.0
1003.0
1009.0
1010.0
1013.0
1011.0
1009.0
1008.0
1010.0
1012.0
1014.0
1015.0
1012.0
1015.0
1017.0
1021.0
1022.0
1019.0
1019.0
1018.0
1021.0
1029.0
1033.0
1029.0
1028.0
1031.0
1035.0
1038.0
1038.0
1044.0
1042.0
1044.0
1049.0
1055.0
1058.0
1060.0
1058.0
1057.0
1062.0
1068.0
1072.0
1073.0
1073.0
1075.0
1076.0
1080.0
1082.0
1079.0
1076.0
1081.0
1082.0
1086.0
1087.0
1080.0
1073.0
1071.0
1069.0
1066.0
1065.0
1061.0
1060.0
1058.0
1053.0
1051.0
1045.0
1038.0
1030.0
1023.0
1021.0
1021.0
1020.0
1016.0
1009.0
1003.0
997.0
997.0
996.0
994.0
989.0
987.0
987.0
988.0
986.0
981.0
974.0
972.0
972.0
975.0
976.0
977.0
974.0
973.0
972.0
972.0
972.0
973.0
972.0
971.0
972.0
976.0
977.0
976.0
978.0
974.0
974.0
976.0
976.0
978.0
979.0
979.0
978.0
982.0
982.0
978.0
975.0
972.0
974.0
975.0
981.0
980.0
977.0
973.0
977.0
978.0
975.0
971.0
968.0
964.0
964.0
969.0
971.0
972.0
966.0
962.0
964.0
964.0
965.0
967.0
963.0
962.0
963.0
966.0
966.0
963.0
956.0
955.0
956.0
960.0
964.0
961.0
963.0
963.0
963.0
964.0
964.0
964.0
963.0
965.0
970.0
978.0
984.0
987.0
986.0
983.0
984.0
987.0
992.0
1000.0
1002.0
1010.0
1011.0
1019.0
1020.0
1018.0
1015.0
1010.0
1009.0
1009.0
1006.0
1003.0
996.0
985.0
978.0
974.0
969.0
962.0
957.0
954.0
956.0
957.0
956.0
954.0
950.0
949.0
945.0
947.0
946.0
943.0
940.0
942.0
943.0
945.0
944.0
942.0
932.0
935.0
939.0
943.0
944.0
943.0
945.0
943.0
946.0
947.0
955.0
955.0
962.0
974.0
998.0
1029.0
1072.0
1113.0
1164.0
1211.0
1252.0
1269.0
1251.0
1191.0
1103.0
1010.0
940.0
895.0
884.0
895.0
896.0
896.0
889.0
888.0
881.0
873.0
862.0
856.0
859.0
866.0
869.0
864.0
858.0
853.0
850.0
853.0
858.0
863.0
872.0
879.0
889.0
902.0
914.0
925.0
937.0
942.0
952.0
958.0
961.0
962.0
965.0
965.0
967.0
969.0
972.0
972.0
968.0
969.0
972.0
977.0
980.0
981.0
976.0
973.0
975.0
981.0
982.0
981.0
977.0
981.0
986.0
989.0
991.0
987.0
989.0
989.0
995.0
1001.0
1004.0
1005.0
1003.0
1004.0
1004.0
1010.0
1015.0
1013.0
1015.0
1018.0
1022.0
1028.0
1030.0
1025.0
1028.0
1026.0
1032.0
1034.0
1040.0
1040.0
1041.0
1037.0
1035.0
1038.0
1039.0
1033.0
1028.0
1023.0
1023.0
1021.0
1018.0
1014.0
1004.0
997.0
993.0
992.0
989.0
986.0
980.0
974.0
973.0
970.0
969.0
963.0
959.0
952.0
952.0
953.0
954.0
949.0
945.0
941.0
943.0
944.0
946.0
940.0
942.0
941.0
943.0
945.0
945.0
943.0
939.0
938.0
942.0
940.0
947.0
947.0
944.0
943.0
945.0
947.0
949.0
950.0
949.0
949.0
951.0
955.0
955.0
952.0
946.0
943.0
947.0
951.0
953.0
953.0
953.0
951.0
951.0
952.0
953.0
954.0
953.0
953.0
955.0
956.0
957.0
952.0
948.0
948.0
950.0
956.0
958.0
957.0
956.0
954.0
953.0
957.0
962.0
965.0
967.0
969.0
976.0
983.0
985.0
983.0
981.0
987.0
994.0
1001.0
1014.0
1014.0
1013.0
1012.0
1012.0
1013.0
1012.0
1011.0
1007.0
1005.0
998.0
997.0
989.0
977.0
965.0
963.0
959.0
962.0
970.0
967.0
964.0
957.0
955.0
954.0
956.0
955.0
952.0
950.0
954.0
954.0
956.0
953.0
950.0
949.0
952.0
958.0
962.0
963.0
960.0
958.0
961.0
964.0
966.0
969.0
975.0
985.0
1008.0
1043.0
1082.0
1132.0
1185.0
1235.0
1277.0
1298.0
1273.0
1201.0
1094.0
996.0
928.0
903.0
911.0
924.0
926.0
917.0
910.0
904.0
896.0
887.0
887.0
887.0
892.0
896.0
892.0
887.0
883.0
881.0
888.0
900.0
913.0
921.0
931.0
941.0
953.0
969.0
981.0
986.0
991.0
990.0
997.0
1006.0
1009.0
1014.0
1010.0
1011.0
1015.0
1017.0
1019.0
1017.0
1018.0
1019.0
1020.0
1022.0
1024.0
1023.0
1024.0
1026.0
1031.0
1033.0
1039.0
1035.0
1034.0
1034.0
1032.0
1039.0
1046.0
1046.0
1048.0
1049.0
1054.0
1055.0
1060.0
1061.0
1063.0
1065.0
1070.0
1078.0
1080.0
1084.0
1084.0
1083.0
1087.0
1093.0
1095.0
1099.0
1097.0
1099.0
1099.0
1098.0
1101.0
1096.0
1094.0
1089.0
1088.0
1089.0
1088.0
1081.0
1071.0
1062.0
1058.0
1058.0
1055.0
1049.0
1042.0
1039.0
1035.0
1034.0
1033.0
1026.0
1021.0
1017.0
1015.0
1018.0
1018.0
1013.0
1006.0
1006.0
1007.0
1010.0
1011.0
1011.0
1007.0
1006.0
1004.0
1006.0
1006.0
1003.0
1002.0
1005.0
1006.0
1011.0
1011.0
1008.0
1005.0
1003.0
1005.0
1010.0
1015.0
1014.0
1011.0
1009.0
1012.0
1014.0
1015.0
1015.0
1011.0
1011.0
1014.0
1016.0
1017.0
1015.0
1011.0
1007.0
1011.0
1018.0
1020.0
1019.0
1013.0
1014.0
1015.0
1016.0
1019.0
1017.0
1013.0
1012.0
1016.0
1018.0
1017.0
1014.0
1009.0
1010.0
1011.0
1016.0
1018.0
1017.0
1016.0
1018.0
1023.0
1030.0
1033.0
1034.0
1034.0
1037.0
1044.0
1050.0
1054.0
1054.0
1058.0
1057.0
1062.0
1066.0
1069.0
1067.0
1060.0
1059.0
1052.0
1049.0
1044.0
1035.0
1029.0
1022.0
1020.0
1017.0
1011.0
1006.0
1003.0
1000.0
1001.0
1003.0
1004.0
1001.0
997.0
992.0
989.0
994.0
996.0
994.0
990.0
990.0
992.0
994.0
995.0
991.0
990.0
989.0
992.0
998.0
1003.0
1005.0
1004.0
1006.0
1021.0
1043.0
1073.0
1113.0
1159.0
1205.0
1257.0
1300.0
1316.0
1292.0
1222.0
1128.0
1030.0
963.0
934.0
934.0
940.0
942.0
936.0
932.0
925.0
917.0
910.0
907.0
907.0
913.0
912.0
908.0
902.0
898.0
901.0
903.0
914.0
922.0
927.0
932.0
944.0
960.0
974.0
988.0
997.0
1005.0
1011.0
1016.0
1022.0
1021.0
1017.0
1020.0
1025.0
1030.0
1035.0
1031.0
1031.0
1030.0
1032.0
1032.0
1037.0
1037.0
1035.0
1036.0
1039.0
1043.0
1044.0
1042.0
1040.0
1037.0
1045.0
1048.0
1051.0
1049.0
1045.0
1050.0
1050.0
1056.0
1058.0
1060.0
1064.0
1064.0
1069.0
1077.0
1078.0
1077.0
1075.0
1076.0
1083.0
1089.0
1093.0
1096.0
1094.0
1094.0
1095.0
1098.0
1102.0
1100.0
1097.0
1094.0
1091.0
1095.0
1094.0
1087.0
1075.0
1072.0
1068.0
1067.0
1069.0
1061.0
1052.0
1043.0
1040.0
1039.0
1035.0
1032.0
1026.0
1023.0
1020.0
1020.0
1018.0
1011.0
1004.0
1000.0
1002.0
1002.0
1006.0
1005.0
1001.0
996.0
997.0
996.0
998.0
995.0
995.0
995.0
997.0
999.0
998.0
995.0
993.0
990.0
992.0
996.0
1000.0
998.0
997.0
993.0
995.0
997.0
999.0
994.0
994.0
995.0
997.0
1000.0
1002.0
996.0
992.0
991.0
996.0
999.0
1002.0
997.0
994.0
993.0
993.0
994.0
995.0
990.0
989.0
992.0
993.0
997.0
996.0
993.0
990.0
985.0
984.0
987.0
990.0
990.0
990.0
985.0
987.0
986.0
989.0
987.0
985.0
988.0
991.0
993.0
995.0
996.0
997.0
999.0
1010.0
1016.0
1019.0
1020.0
1017.0
1019.0
1025.0
1029.0
1037.0
1045.0
1045.0
1046.0
1047.0
1049.0
1046.0
1036.0
1033.0
1028.0
1024.0
1020.0
1010.0
1002.0
991.0
984.0
983.0
983.0
982.0
981.0
973.0
971.0
970.0
968.0
969.0
965.0
962.0
962.0
964.0
968.0
969.0
965.0
959.0
959.0
959.0
966.0
968.0
970.0
971.0
969.0
972.0
977.0
981.0
993.0
1005.0
1026.0
1062.0
1117.0
1176.0
1230.0
1269.0
1284.0
1254.0
1176.0
1071.0
976.0
908.0
891.0
906.0
920.0
920.0
910.0
899.0
890.0
885.0
883.0
882.0
881.0
879.0
878.0
877.0
877.0
877.0
873.0
877.0
882.0
893.0
903.0
914.0
928.0
941.0
955.0
966.0
970.0
973.0
973.0
972.0
976.0
982.0
986.0
988.0
988.0
983.0
987.0
989.0
989.0
995.0
996.0
994.0
994.0
995.0
996.0
999.0
998.0
999.0
1000.0
1002.0
1006.0
1008.0
1009.0
1008.0
1008.0
1009.0
1016.0
1022.0
1023.0
1023.0
1025.0
1024.0
1029.0
1032.0
1034.0
1034.0
1036.0
1043.0
1048.0
1050.0
1051.0
1050.0
1051.0
1054.0
1058.0
1061.0
1059.0
1055.0
1054.0
1050.0
1050.0
1046.0
1045.0
1039.0
1033.0
1030.0
1026.0
1018.0
1011.0
1004.0
998.0
997.0
995.0
995.0
992.0
984.0
979.0
975.0
971.0
973.0
971.0
961.0
958.0
960.0
961.0
958.0
955.0
952.0
948.0
952.0
958.0
959.0
957.0
954.0
948.0
948.0
953.0
955.0
954.0
954.0
950.0
953.0
953.0
957.0
955.0
951.0
949.0
956.0
960.0
960.0
956.0
954.0
952.0
952.0
955.0
956.0
956.0
955.0
957.0
956.0
958.0
955.0
950.0
952.0
953.0
956.0
959.0
956.0
953.0
950.0
947.0
949.0
953.0
953.0
955.0
952.0
950.0
950.0
950.0
953.0
951.0
949.0
951.0
956.0
961.0
966.0
967.0
966.0
966.0
970.0
974.0
981.0
984.0
987.0
991.0
995.0
996.0
998.0
997.0
998.0
995.0
994.0
996.0
993.0
985.0
971.0
962.0
951.0
951.0
954.0
951.0
949.0
942.0
942.0
940.0
937.0
939.0
936.0
933.0
936.0
940.0
940.0
934.0
931.0
927.0
930.0
931.0
940.0
938.0
934.0
932.0
935.0
936.0
942.0
942.0
941.0
946.0
958.0
976.0
1007.0
1049.0
1100.0
1159.0
1220.0
1260.0
1262.0
1210.0
1119.0
1011.0
925.0
879.0
874.0
885.0
892.0
889.0
881.0
873.0
864.0
857.0
849.0
848.0
853.0
857.0
859.0
851.0
845.0
840.0
841.0
848.0
858.0
868.0
877.0
885.0
894.0
906.0
921.0
936.0
945.0
951.0
956.0
961.0
964.0
963.0
963.0
964.0
965.0
969.0
975.0
978.0
973.0
975.0
977.0
977.0
982.0
984.0
983.0
985.0
989.0
992.0
995.0
993.0
991.0
991.0
996.0
1002.0
1007.0
1010.0
1010.0
1009.0
1011.0
1017.0
1020.0
1022.0
1023.0
1024.0
1032.0
1039.0
1043.0
1043.0
1041.0
1043.0
1048.0
1056.0
1061.0
1064.0
1059.0
1062.0
1061.0
1060.0
1066.0
1063.0
1059.0
1055.0
1052.0
1048.0
1044.0
1036.0
1027.0
1022.0
1018.0
1019.0
1017.0
1008.0
1001.0
993.0
993.0
994.0
993.0
990.0
986.0
982.0
981.0
980.0
979.0
975.0
969.0
970.0
976.0
977.0
978.0
973.0
972.0
972.0
970.0
971.0
975.0
977.0
977.0
978.0
977.0
980.0
984.0
979.0
980.0
978.0
982.0
986.0
987.0
984.0
983.0
983.0
985.0
989.0
991.0
990.0
987.0
987.0
987.0
988.0
989.0
988.0
989.0
989.0
993.0
994.0
994.0
991.0
989.0
988.0
989.0
992.0
995.0
996.0
993.0
992.0
991.0
991.0
997.0
1001.0
1003.0
1005.0
1012.0
1016.0
1018.0
1019.0
1019.0
1022.0
1025.0
1037.0
1045.0
1048.0
1048.0
1044.0
1039.0
1046.0
1049.0
1046.0
1042.0
1036.0
1028.0
1023.0
1017.0
1007.0
1000.0
996.0
995.0
997.0
1000.0
994.0
991.0
986.0
985.0
987.0
989.0
989.0
989.0
986.0
987.0
987.0
991.0
986.0
984.0
981.0
986.0
990.0
994.0
990.0
987.0
985.0
990.0
995.0
1003.0
1012.0
1022.0
1041.0
1072.0
1117.0
1168.0
1215.0
1259.0
1296.0
1312.0
1293.0
1233.0
1142.0
1048.0
972.0
929.0
920.0
930.0
943.0
941.0
932.0
926.0
923.0
917.0
911.0
905.0
906.0
910.0
915.0
916.0
912.0
904.0
899.0
903.0
915.0
925.0
936.0
946.0
957.0
974.0
991.0
1001.0
1008.0
1009.0
1011.0
1019.0
1023.0
1029.0
1028.0
1029.0
1026.0
1031.0
1034.0
1038.0
1039.0
1038.0
1036.0
1037.0
1042.0
1042.0
1040.0
1040.0
1042.0
1044.0
1050.0
1049.0
1049.0
1047.0
1046.0
1052.0
1056.0
1059.0
1061.0
1064.0
1064.0
1069.0
1074.0
1075.0
1079.0
1079.0
1083.0
1087.0
1093.0
1094.0
1098.0
1096.0
1098.0
1101.0
1107.0
1109.0
1112.0
1106.0
1106.0
1104.0
1103.0
1105.0
1099.0
1096.0
1091.0
1088.0
1082.0
1079.0
1072.0
1063.0
1058.0
1055.0
1056.0
1052.0
1044.0
1039.0
1035.0
1033.0
1031.0
1029.0
1024.0
1021.0
1019.0
1016.0
1018.0
1014.0
1009.0
1005.0
1004.0
1009.0
1010.0
1012.0
1011.0
1007.0
1005.0
1001.0
1003.0
1003.0
1007.0
1004.0
1005.0
1007.0
1010.0
1011.0
1010.0
1007.0
1005.0
1000.0
1006.0
1012.0
1013.0
1009.0
1005.0
1007.0
1009.0
1007.0
1008.0
1006.0
1006.0
1006.0
1009.0
1011.0
1008.0
1007.0
1002.0
1003.0
1006.0
1009.0
1010.0
1009.0
1005.0
1006.0
1006.0
1003.0
1002.0
999.0
1000.0
1004.0
1007.0
1010.0
1004.0
1001.0
1002.0
1003.0
1005.0
1015.0
1017.0
1021.0
1022.0
1023.0
1029.0
1030.0
1032.0
1034.0
1037.0
1046.0
1055.0
1058.0
1058.0
1053.0
1053.0
1050.0
1053.0
1052.0
1049.0
1042.0
1035.0
1026.0
1023.0
1017.0
1011.0
1002.0
998.0
998.0
1001.0
1003.0
998.0
992.0
986.0
987.0
988.0
989.0
990.0
988.0
985.0
980.0
982.0
985.0
983.0
980.0
977.0
976.0
980.0
988.0
988.0
984.0
983.0
984.0
987.0
990.0
994.0
998.0
1009.0
1032.0
1066.0
1107.0
1153.0
1203.0
1248.0
1287.0
1303.0
1283.0
1217.0
1124.0
1029.0
955.0
917.0
914.0
925.0
934.0
933.0
927.0
924.0
920.0
909.0
902.0
895.0
896.0
903.0
909.0
904.0
900.0
897.0
891.0
897.0
901.0
912.0
919.0
925.0
934.0
947.0
961.0
972.0
980.0
988.0
995.0
1000.0
1003.0
1008.0
1008.0
1009.0
1014.0
1017.0
1021.0
1021.0
1017.0
1017.0
1021.0
1023.0
1027.0
1027.0
1027.0
1026.0
1025.0
1028.0
1028.0
1030.0
1032.0
1033.0
1036.0
1041.0
1041.0
1038.0
1037.0
1035.0
1041.0
1046.0
1051.0
1052.0
1050.0
1053.0
1058.0
1059.0
1063.0
1065.0
1065.0
1067.0
1071.0
1078.0
1084.0
1084.0
1084.0
1083.0
1086.0
1089.0
1093.0
1093.0
1095.0
1095.0
1101.0
1102.0
1102.0
1098.0
1091.0
1083.0
1085.0
1086.0
1086.0
1081.0
1073.0
1063.0
1061.0
1059.0
1055.0
1050.0
1045.0
1041.0
1038.0
1037.0
1032.0
1027.0
1022.0
1018.0
1014.0
1013.0
1014.0
1013.0
1006.0
1001.0
1004.0
1006.0
1003.0
998.0
994.0
993.0
997.0
997.0
1000.0
999.0
995.0
991.0
992.0
995.0
1000.0
998.0
994.0
994.0
993.0
996.0
997.0
992.0
993.0
993.0
995.0
999.0
1004.0
1001.0
997.0
996.0
995.0
998.0
1000.0
998.0
997.0
996.0
996.0
997.0
999.0
998.0
993.0
992.0
991.0
996.0
999.0
998.0
997.0
993.0
990.0
989.0
993.0
991.0
988.0
988.0
990.0
993.0
993.0
986.0
986.0
980.0
981.0
986.0
989.0
993.0
995.0
995.0
998.0
1003.0
1004.0
1006.0
1001.0
1001.0
1009.0
1017.0
1025.0
1031.0
1028.0
1025.0
1029.0
1026.0
1027.0
1026.0
1024.0
1016.0
1020.0
1018.0
1011.0
998.0
983.0
975.0
973.0
975.0
978.0
974.0
967.0
966.0
967.0
965.0
962.0
959.0
952.0
954.0
955.0
957.0
962.0
955.0
953.0
950.0
950.0
952.0
954.0
953.0
952.0
950.0
952.0
955.0
958.0
952.0
953.0
953.0
958.0
964.0
976.0
984.0
1003.0
1026.0
1061.0
1103.0
1153.0
1194.0
1230.0
1249.0
1258.0
1236.0
1183.0
1102.0
1020.0
950.0
902.0
884.0
888.0
900.0
899.0
897.0
890.0
887.0
883.0
877.0
867.0
864.0
867.0
871.0
873.0
870.0
865.0
860.0
859.0
861.0
866.0
873.0
876.0
883.0
894.0
905.0
921.0
929.0
935.0
945.0
956.0
962.0
968.0
967.0
968.0
969.0
975.0
977.0
975.0
976.0
976.0
976.0
978.0
982.0
986.0
985.0
986.0
979.0
981.0
986.0
991.0
989.0
990.0
990.0
993.0
999.0
1002.0
1000.0
997.0
993.0
998.0
1002.0
1008.0
1010.0
1009.0
1009.0
1014.0
1016.0
1020.0
1019.0
1018.0
1019.0
1024.0
1034.0
1037.0
1041.0
1041.0
1039.0
1038.0
1046.0
1053.0
1050.0
1049.0
1051.0
1051.0
1053.0
1053.0
1051.0
1043.0
1038.0
1040.0
1037.0
1036.0
1032.0
1024.0
1018.0
1010.0
1006.0
1005.0
1001.0
992.0
990.0
986.0
985.0
978.0
972.0
966.0
962.0
960.0
962.0
963.0
962.0
953.0
947.0
947.0
946.0
948.0
945.0
944.0
941.0
944.0
947.0
949.0
945.0
944.0
941.0
942.0
944.0
949.0
949.0
950.0
948.0
944.0
945.0
950.0
947.0
945.0
943.0
946.0
949.0
954.0
953.0
949.0
944.0
950.0
952.0
954.0
955.0
954.0
953.0
955.0
955.0
953.0
954.0
950.0
948.0
950.0
951.0
956.0
953.0
954.0
949.0
950.0
950.0
955.0
951.0
952.0
954.0
959.0
967.0
968.0
970.0
967.0
968.0
973.0
978.0
986.0
988.0
990.0
993.0
996.0
996.0
1003.0
1001.0
1001.0
1000.0
1002.0
1004.0
1000.0
998.0
990.0
980.0
970.0
968.0
966.0
964.0
960.0
955.0
951.0
952.0
951.0
948.0
945.0
945.0
948.0
949.0
950.0
948.0
944.0
938.0
940.0
945.0
949.0
945.0
944.0
945.0
947.0
953.0
953.0
950.0
949.0
950.0
954.0
962.0
966.0
972.0
978.0
988.0
1017.0
1053.0
1102.0
1153.0
1200.0
1240.0
1260.0
1254.0
1204.0
1119.0
1026.0
949.0
905.0
892.0
905.0
914.0
912.0
904.0
895.0
890.0
888.0
883.0
877.0
877.0
881.0
885.0
885.0
878.0
877.0
873.0
877.0
881.0
894.0
903.0
909.0
916.0
929.0
935.0
951.0
966.0
974.0
980.0
987.0
996.0
998.0
1000.0
997.0
1000.0
1002.0
1009.0
1009.0
1011.0
1010.0
1014.0
1015.0
1016.0
1020.0
1020.0
1020.0
1018.0
1023.0
1030.0
1034.0
1031.0
1031.0
1027.0
1030.0
1035.0
1039.0
1040.0
1041.0
1042.0
1045.0
1052.0
1055.0
1054.0
1053.0
1057.0
1060.0
1069.0
1076.0
1078.0
1076.0
1077.0
1083.0
1086.0
1095.0
1097.0
1096.0
1100.0
1102.0
1106.0
1110.0
1107.0
1106.0
1102.0
1103.0
1103.0
1103.0
1102.0
1091.0
1088.0
1084.0
1082.0
1078.0
1072.0
1068.0
1062.0
1059.0
1057.0
1055.0
1049.0
1044.0
1037.0
1032.0
1032.0
1030.0
1026.0
1023.0
1018.0
1013.0
1013.0
1011.0
1012.0
1003.0
1003.0
1003.0
1008.0
1011.0
1006.0
1005.0
1002.0
1003.0
1007.0
1007.0
1005.0
1002.0
1003.0
1006.0
1009.0
1011.0
1008.0
1006.0
1004.0
1007.0
1011.0
1012.0
1013.0
1009.0
1011.0
1011.0
1012.0
1013.0
1011.0
1010.0
1013.0
1015.0
1017.0
1016.0
1012.0
1009.0
1009.0
1011.0
1011.0
1011.0
1015.0
1014.0
1016.0
1013.0
1015.0
1014.0
1014.0
1008.0
1010.0
1013.0
1018.0
1018.0
1015.0
1016.0
1012.0
1015.0
1016.0
1015.0
1020.0
1018.0
1021.0
1028.0
1036.0
1039.0
1041.0
1039.0
1042.0
1042.0
1049.0
1055.0
1058.0
1057.0
1060.0
1063.0
1066.0
1069.0
1070.0
1065.0
1065.0
1066.0
1065.0
1062.0
1056.0
1045.0
1035.0
1027.0
1023.0
1018.0
1016.0
1014.0
1011.0
1008.0
1009.0
1008.0
1004.0
1002.0
999.0
1003.0
1007.0
1006.0
1004.0
1002.0
998.0
999.0
1005.0
1006.0
1006.0
1000.0
1003.0
1009.0
1012.0
1012.0
1010.0
1007.0
1007.0
1015.0
1024.0
1031.0
1040.0
1054.0
1073.0
1107.0
1152.0
1199.0
1242.0
1283.0
1312.0
1331.0
1305.0
1240.0
1144.0
1050.0
983.0
945.0
945.0
957.0
966.0
966.0
955.0
944.0
938.0
938.0
936.0
930.0
928.0
929.0
931.0
927.0
923.0
917.0
914.0
923.0
934.0
947.0
956.0
961.0
971.0
984.0
998.0
1014.0
1023.0
1029.0
1033.0
1037.0
1043.0
1046.0
1045.0
1043.0
1044.0
1046.0
1052.0
1065.0
1064.0
1054.0
1047.0
1046.0
1051.0
1057.0
1057.0
1054.0
1055.0
1059.0
1063.0
1066.0
1064.0
1062.0
1061.0
1064.0
1067.0
1070.0
1071.0
1070.0
1074.0
1076.0
1079.0
1081.0
1080.0
1081.0
1082.0
1089.0
1095.0
1100.0
1103.0
1101.0
1101.0
1103.0
1105.0
1114.0
1113.0
1109.0
1105.0
1109.0
1110.0
1112.0
1110.0
1105.0
1101.0
1100.0
1101.0
1102.0
1094.0
1085.0
1077.0
1070.0
1066.0
1065.0
1061.0
1051.0
1045.0
1042.0
1041.0
1041.0
1031.0
1025.0
1016.0
1012.0
1015.0
1013.0
1008.0
1000.0
994.0
995.0
995.0
995.0
992.0
991.0
989.0
985.0
983.0
980.0
976.0
979.0
978.0
982.0
984.0
988.0
982.0
980.0
974.0
974.0
979.0
983.0
983.0
984.0
984.0
985.0
987.0
986.0
985.0
980.0
980.0
980.0
981.0
988.0
986.0
982.0
975.0
973.0
972.0
974.0
976.0
972.0
973.0
977.0
981.0
980.0
978.0
973.0
970.0
973.0
977.0
981.0
979.0
975.0
974.0
977.0
982.0
983.0
978.0
978.0
979.0
984.0
992.0
996.0
997.0
996.0
996.0
997.0
1000.0
1007.0
1014.0
1019.0
1017.0
1018.0
1023.0
1022.0
1019.0
1016.0
1013.0
1011.0
1011.0
1003.0
993.0
980.0
975.0
973.0
977.0
974.0
967.0
962.0
956.0
957.0
961.0
963.0
962.0
955.0
952.0
952.0
953.0
947.0
944.0
938.0
936.0
942.0
946.0
952.0
955.0
953.0
950.0
950.0
948.0
950.0
952.0
951.0
953.0
960.0
974.0
988.0
1004.0
1030.0
1070.0
1121.0
1172.0
1224.0
1255.0
1264.0
1237.0
1167.0
1076.0
994.0
923.0
881.0
874.0
892.0
906.0
908.0
895.0
883.0
874.0
867.0
864.0
863.0
863.0
858.0
856.0
857.0
855.0
857.0
854.0
848.0
848.0
859.0
869.0
880.0
888.0
895.0
902.0
911.0
925.0
935.0
944.0
948.0
951.0
957.0
959.0
964.0
964.0
964.0
963.0
965.0
969.0
974.0
972.0
974.0
972.0
977.0
979.0
982.0
978.0
979.0
979.0
983.0
991.0
995.0
994.0
987.0
990.0
995.0
999.0
1001.0
1005.0
1002.0
1000.0
1001.0
1002.0
1011.0
1015.0
1016.0
1016.0
1024.0
1028.0
1038.0
1038.0
1038.0
1038.0
1040.0
1045.0
1051.0
