# Simple Text Format
# Sampling Rate (Hz):= 360.00
# Resolution:= 12
# Labels:= ECG
1129.0
1176.0
1227.0
1269.0
1301.0
1302.0
1254.0
1166.0
1063.0
974.0
930.0
923.0
935.0
943.0
943.0
936.0
932.0
929.0
919.0
907.0
905.0
913.0
921.0
919.0
920.0
916.0
911.0
911.0
920.0
926.0
935.0
941.0
947.0
958.0
975.0
991.0
1002.0
1008.0
1013.0
1015.0
1020.0
1025.0
1026.0
1027.0
1027.0
1030.0
1034.0
1034.0
1034.0
1035.0
1034.0
1038.0
1041.0
1047.0
1046.0
1043.0
1041.0
1043.0
1045.0
1051.0
1048.0
1052.0
1052.0
1053.0
1056.0
1062.0
1062.0
1060.0
1061.0
1065.0
1071.0
1076.0
1079.0
1078.0
1078.0
1081.0
1087.0
1088.0
1091.0
1091.0
1092.0
1096.0
1099.0
1107.0
1107.0
1105.0
1102.0
1104.0
1106.0
1108.0
1108.0
1106.0
1101.0
1098.0
1095.0
1091.0
1084.0
1077.0
1071.0
1070.0
1067.0
1065.0
1058.0
1054.0
1046.0
1039.0
1036.0
1036.0
1030.0
1025.0
1021.0
1022.0
1020.0
1018.0
1014.0
1009.0
1003.0
1001.0
1004.0
1004.0
1005.0
1000.0
997.0
998.0
998.0
995.0
994.0
992.0
992.0
993.0
996.0
999.0
996.0
994.0
991.0
988.0
995.0
994.0
995.0
995.0
989.0
994.0
997.0
997.0
997.0
993.0
990.0
990.0
993.0
998.0
996.0
995.0
995.0
995.0
997.0
994.0
993.0
990.0
992.0
994.0
994.0
1000.0
996.0
991.0
988.0
987.0
990.0
994.0
992.0
993.0
990.0
991.0
994.0
991.0
987.0
988.0
989.0
990.0
993.0
995.0
999.0
999.0
1000.0
998.0
1006.0
1011.0
1014.0
1011.0
1014.0
1020.0
1024.0
1033.0
1036.0
1036.0
1038.0
1037.0
1037.0
1039.0
1040.0
1037.0
1037.0
1034.0
1031.0
1027.0
1019.0
1011.0
999.0
997.0
995.0
997.0
995.0
990.0
985.0
984.0
983.0
984.0
981.0
979.0
976.0
977.0
979.0
979.0
977.0
974.0
969.0
969.0
972.0
976.0
978.0
976.0
975.0
975.0
975.0
979.0
978.0
976.0
974.0
979.0
987.0
996.0
1012.0
1031.0
1055.0
1096.0
1141.0
1188.0
1230.0
1265.0
1282.0
1270.0
1218.0
1138.0
1045.0
965.0
916.0
907.0
919.0
932.0
935.0
927.0
916.0
909.0
903.0
901.0
899.0
900.0
901.0
903.0
909.0
905.0
900.0
899.0
898.0
908.0
918.0
927.0
937.0
942.0
952.0
964.0
979.0
992.0
998.0
1000.0
997.0
1000.0
1007.0
1013.0
1015.0
1014.0
1014.0
1013.0
1017.0
1019.0
1018.0
1018.0
1017.0
1020.0
1023.0
1026.0
1027.0
1025.0
1023.0
1025.0
1029.0
1032.0
1036.0
1031.0
1033.0
1038.0
1038.0
1045.0
1044.0
1044.0
1044.0
1050.0
1055.0
1062.0
1065.0
1063.0
1065.0
1065.0
1072.0
1073.0
1074.0
1081.0
1078.0
1085.0
1091.0
1093.0
1094.0
1089.0
1089.0
1093.0
1095.0
1096.0
1096.0
1093.0
1086.0
1082.0
1077.0
1075.0
1068.0
1061.0
1056.0
1054.0
1050.0
1044.0
1041.0
1033.0
1024.0
1020.0
1019.0
1017.0
1011.0
1008.0
1002.0
1000.0
995.0
994.0
989.0
979.0
975.0
979.0
981.0
982.0
977.0
974.0
970.0
970.0
971.0
969.0
970.0
969.0
969.0
969.0
971.0
974.0
970.0
965.0
963.0
966.0
966.0
973.0
974.0
972.0
969.0
967.0
970.0
971.0
970.0
967.0
967.0
968.0
973.0
973.0
973.0
971.0
968.0
969.0
973.0
974.0
973.0
972.0
970.0
968.0
973.0
973.0
970.0
968.0
964.0
968.0
971.0
970.0
970.0
967.0
963.0
960.0
963.0
964.0
965.0
963.0
961.0
960.0
963.0
966.0
963.0
960.0
961.0
964.0
969.0
975.0
978.0
980.0
981.0
985.0
984.0
989.0
990.0
995.0
997.0
1000.0
1005.0
1009.0
1009.0
1008.0
1002.0
1002.0
998.0
998.0
993.0
987.0
983.0
976.0
970.0
968.0
962.0
957.0
952.0
953.0
955.0
956.0
956.0
950.0
948.0
945.0
946.0
948.0
946.0
940.0
941.0
942.0
945.0
947.0
945.0
944.0
940.0
941.0
943.0
945.0
946.0
945.0
947.0
949.0
954.0
961.0
962.0
963.0
975.0
996.0
1028.0
1064.0
1110.0
1153.0
1197.0
1235.0
1257.0
1251.0
1204.0
1128.0
1039.0
960.0
908.0
890.0
894.0
905.0
904.0
900.0
894.0
892.0
884.0
877.0
868.0
866.0
874.0
874.0
873.0
871.0
861.0
864.0
862.0
867.0
869.0
874.0
882.0
888.0
898.0
906.0
909.0
918.0
930.0
945.0
957.0
967.0
970.0
971.0
969.0
972.0
976.0
975.0
976.0
977.0
977.0
979.0
987.0
989.0
991.0
988.0
987.0
990.0
990.0
995.0
995.0
996.0
997.0
999.0
1004.0
1008.0
1004.0
1002.0
1002.0
1004.0
1008.0
1013.0
1017.0
1018.0
1016.0
1019.0
1023.0
1028.0
1032.0
1031.0
1031.0
1035.0
1042.0
1047.0
1048.0
1045.0
1045.0
1048.0
1050.0
1057.0
1058.0
1057.0
1058.0
1059.0
1064.0
1066.0
1061.0
1056.0
1050.0
1052.0
1051.0
1051.0
1047.0
1038.0
1031.0
1026.0
1025.0
1020.0
1016.0
1008.0
1000.0
997.0
997.0
996.0
988.0
981.0
975.0
970.0
966.0
969.0
964.0
962.0
957.0
956.0
956.0
956.0
952.0
947.0
942.0
946.0
947.0
952.0
952.0
949.0
945.0
942.0
946.0
948.0
946.0
948.0
944.0
943.0
949.0
951.0
950.0
946.0
944.0
947.0
949.0
952.0
951.0
951.0
949.0
949.0
951.0
954.0
952.0
948.0
949.0
950.0
955.0
957.0
957.0
954.0
952.0
949.0
950.0
953.0
954.0
948.0
948.0
952.0
954.0
958.0
954.0
949.0
947.0
947.0
945.0
950.0
953.0
952.0
950.0
953.0
956.0
961.0
961.0
963.0
961.0
965.0
972.0
977.0
978.0
981.0
982.0
983.0
987.0
996.0
999.0
1002.0
1001.0
1002.0
1007.0
1007.0
1007.0
1003.0
997.0
990.0
990.0
988.0
977.0
971.0
966.0
964.0
966.0
965.0
962.0
958.0
955.0
951.0
953.0
955.0
954.0
952.0
949.0
950.0
950.0
952.0
948.0
945.0
947.0
947.0
951.0
956.0
955.0
952.0
945.0
949.0
950.0
958.0
961.0
959.0
961.0
965.0
973.0
982.0
996.0
1010.0
1039.0
1078.0
1128.0
1178.0
1222.0
1255.0
1269.0
1258.0
1213.0
1134.0
1040.0
956.0
905.0
898.0
912.0
924.0
922.0
910.0
903.0
898.0
894.0
889.0
884.0
884.0
884.0
893.0
893.0
892.0
886.0
886.0
882.0
884.0
897.0
908.0
913.0
918.0
925.0
937.0
949.0
961.0
973.0
981.0
981.0
987.0
993.0
1000.0
1003.0
1001.0
1004.0
1003.0
1006.0
1010.0
1011.0
1013.0
1012.0
1017.0
1022.0
1024.0
1025.0
1024.0
1024.0
1024.0
1029.0
1033.0
1035.0
1035.0
1033.0
1039.0
1044.0
1047.0
1047.0
1046.0
1045.0
1049.0
1052.0
1060.0
1065.0
1060.0
1060.0
1068.0
1072.0
1075.0
1076.0
1078.0
1080.0
1085.0
1091.0
1094.0
1093.0
1095.0
1094.0
1096.0
1101.0
1102.0
1101.0
1098.0
1100.0
1102.0
1106.0
1105.0
1101.0
1095.0
1088.0
1083.0
1080.0
1083.0
1078.0
1069.0
1064.0
1058.0
1056.0
1054.0
1047.0
1038.0
1034.0
1032.0
1031.0
1032.0
1026.0
1023.0
1017.0
1014.0
1010.0
1011.0
1008.0
1004.0
1003.0
1003.0
1005.0
1005.0
1004.0
998.0
996.0
995.0
995.0
999.0
1000.0
1000.0
993.0
996.0
1000.0
1001.0
1000.0
997.0
997.0
998.0
1001.0
1004.0
1003.0
999.0
1000.0
997.0
1001.0
1003.0
1003.0
1000.0
997.0
1000.0
1003.0
1008.0
1007.0
1003.0
1004.0
1003.0
1002.0
1006.0
1005.0
1005.0
1001.0
1002.0
1006.0
1008.0
1008.0
1003.0
998.0
1000.0
1000.0
1002.0
1003.0
1003.0
1002.0
1002.0
1003.0
1003.0
1001.0
999.0
999.0
998.0
1003.0
1005.0
1006.0
1005.0
1006.0
1008.0
1015.0
1018.0
1020.0
1021.0
1021.0
1024.0
1030.0
1035.0
1036.0
1038.0
1041.0
1043.0
1047.0
1050.0
1048.0
1047.0
1046.0
1049.0
1050.0
1048.0
1042.0
1036.0
1028.0
1022.0
1017.0
1012.0
1008.0
1004.0
998.0
995.0
997.0
997.0
993.0
987.0
985.0
984.0
989.0
992.0
991.0
983.0
979.0
979.0
983.0
981.0
979.0
978.0
977.0
983.0
985.0
989.0
988.0
983.0
980.0
983.0
985.0
992.0
994.0
996.0
1001.0
1015.0
1038.0
1070.0
1106.0
1149.0
1195.0
1243.0
1283.0
1298.0
1275.0
1207.0
1116.0
1024.0
954.0
920.0
919.0
929.0
937.0
936.0
933.0
930.0
919.0
909.0
901.0
903.0
908.0
915.0
916.0
910.0
909.0
905.0
906.0
908.0
913.0
917.0
927.0
935.0
948.0
956.0
968.0
976.0
987.0
996.0
1004.0
1007.0
1009.0
1010.0
1013.0
1016.0
1020.0
1025.0
1024.0
1022.0
1020.0
1022.0
1026.0
1032.0
1035.0
1031.0
1033.0
1035.0
1038.0
1040.0
1040.0
1039.0
1041.0
1046.0
1049.0
1053.0
1055.0
1051.0
1050.0
1053.0
1058.0
1062.0
1065.0
1066.0
1068.0
1073.0
1080.0
1081.0
1082.0
1080.0
1081.0
1086.0
1087.0
1095.0
1099.0
1099.0
1102.0
1107.0
1109.0
1111.0
1109.0
1108.0
1108.0
1108.0
1112.0
1116.0
1114.0
1107.0
1100.0
1098.0
1093.0
1093.0
1089.0
1081.0
1074.0
1063.0
1057.0
1054.0
1041.0
1038.0
1033.0
1026.0
1022.0
1024.0
1019.0
1012.0
1009.0
1005.0
1003.0
1004.0
998.0
993.0
989.0
990.0
992.0
992.0
990.0
987.0
979.0
983.0
984.0
983.0
980.0
976.0
976.0
977.0
982.0
982.0
979.0
975.0
969.0
970.0
977.0
981.0
981.0
979.0
976.0
979.0
977.0
979.0
978.0
976.0
974.0
974.0
977.0
980.0
977.0
975.0
973.0
972.0
975.0
977.0
974.0
973.0
971.0
972.0
976.0
978.0
977.0
976.0
973.0
971.0
975.0
980.0
980.0
977.0
971.0
963.0
965.0
968.0
969.0
970.0
966.0
963.0
962.0
963.0
965.0
966.0
971.0
976.0
978.0
980.0
978.0
980.0
984.0
989.0
997.0
1001.0
1005.0
1006.0
1005.0
1007.0
1010.0
1010.0
1013.0
1011.0
1008.0
1009.0
1013.0
1016.0
1014.0
1004.0
999.0
1001.0
999.0
981.0
950.0
928.0
935.0
948.0
964.0
962.0
955.0
947.0
946.0
942.0
946.0
951.0
953.0
951.0
935.0
923.0
920.0
924.0
929.0
927.0
925.0
926.0
935.0
950.0
951.0
935.0
911.0
901.0
908.0
922.0
929.0
937.0
950.0
974.0
989.0
999.0
1015.0
1053.0
1112.0
1169.0
1207.0
1216.0
1188.0
1131.0
1056.0
978.0
916.0
872.0
847.0
852.0
875.0
895.0
903.0
905.0
899.0
886.0
856.0
826.0
811.0
821.0
831.0
831.0
816.0
807.0
813.0
835.0
851.0
860.0
864.0
867.0
852.0
833.0
831.0
843.0
864.0
869.0
863.0
866.0
880.0
896.0
910.0
926.0
947.0
956.0
948.0
938.0
940.0
958.0
966.0
947.0
920.0
912.0
920.0
932.0
938.0
937.0
933.0
923.0
912.0
898.0
892.0
908.0
929.0
940.0
938.0
936.0
943.0
954.0
970.0
980.0
984.0
982.0
985.0
998.0
996.0
978.0
964.0
969.0
996.0
1024.0
1053.0
1061.0
1054.0
1040.0
1020.0
990.0
967.0
980.0
1018.0
1039.0
1028.0
995.0
965.0
950.0
961.0
979.0
995.0
997.0
990.0
978.0
967.0
964.0
963.0
965.0
966.0
960.0
951.0
950.0
954.0
951.0
937.0
927.0
927.0
922.0
902.0
884.0
877.0
882.0
883.0
889.0
889.0
899.0
906.0
915.0
917.0
912.0
903.0
896.0
893.0
895.0
909.0
930.0
955.0
957.0
918.0
874.0
862.0
883.0
906.0
912.0
897.0
889.0
890.0
894.0
891.0
885.0
899.0
920.0
939.0
934.0
906.0
874.0
868.0
890.0
913.0
912.0
901.0
891.0
890.0
899.0
906.0
928.0
942.0
938.0
911.0
897.0
904.0
898.0
877.0
859.0
854.0
885.0
931.0
961.0
951.0
901.0
869.0
867.0
883.0
888.0
878.0
881.0
894.0
903.0
907.0
916.0
934.0
960.0
970.0
959.0
950.0
952.0
958.0
948.0
943.0
953.0
962.0
961.0
963.0
968.0
959.0
929.0
896.0
879.0
865.0
858.0
856.0
861.0
872.0
880.0
884.0
883.0
881.0
886.0
896.0
897.0
885.0
876.0
882.0
891.0
901.0
900.0
892.0
890.0
897.0
902.0
902.0
903.0
907.0
905.0
898.0
891.0
890.0
893.0
904.0
928.0
955.0
982.0
1010.0
1047.0
1088.0
1131.0
1179.0
1224.0
1249.0
1223.0
1137.0
1017.0
908.0
852.0
859.0
901.0
930.0
915.0
851.0
789.0
777.0
805.0
841.0
860.0
863.0
844.0
820.0
815.0
829.0
846.0
851.0
847.0
852.0
869.0
879.0
881.0
880.0
877.0
878.0
893.0
922.0
946.0
943.0
933.0
929.0
945.0
967.0
968.0
958.0
950.0
952.0
954.0
964.0
977.0
981.0
977.0
973.0
968.0
965.0
960.0
968.0
981.0
989.0
991.0
993.0
994.0
979.0
959.0
965.0
987.0
1002.0
1000.0
997.0
1010.0
1021.0
1017.0
1000.0
998.0
1009.0
1028.0
1046.0
1059.0
1071.0
1081.0
1078.0
1060.0
1045.0
1044.0
1051.0
1053.0
1061.0
1074.0
1081.0
1058.0
1040.0
1044.0
1048.0
1037.0
1023.0
1025.0
1039.0
1043.0
1037.0
1026.0
1017.0
1018.0
1017.0
1017.0
1017.0
1018.0
1007.0
976.0
955.0
964.0
978.0
971.0
947.0
938.0
945.0
948.0
943.0
941.0
956.0
971.0
973.0
967.0
959.0
943.0
924.0
922.0
930.0
935.0
927.0
934.0
950.0
958.0
949.0
942.0
942.0
939.0
926.0
919.0
919.0
928.0
940.0
953.0
948.0
937.0
935.0
938.0
944.0
946.0
942.0
944.0
971.0
991.0
977.0
937.0
917.0
923.0
934.0
933.0
929.0
936.0
942.0
944.0
942.0
940.0
944.0
950.0
950.0
945.0
938.0
936.0
940.0
946.0
965.0
983.0
984.0
958.0
923.0
910.0
918.0
938.0
965.0
980.0
968.0
946.0
933.0
936.0
957.0
972.0
974.0
970.0
968.0
975.0
991.0
1005.0
1007.0
1001.0
998.0
1002.0
994.0
976.0
957.0
954.0
962.0
976.0
980.0
973.0
957.0
941.0
923.0
912.0
920.0
935.0
938.0
930.0
925.0
927.0
939.0
953.0
963.0
958.0
932.0
909.0
904.0
913.0
924.0
935.0
935.0
931.0
922.0
907.0
901.0
909.0
923.0
933.0
943.0
947.0
951.0
956.0
978.0
1017.0
1073.0
1135.0
1183.0
1225.0
1251.0
1259.0
1235.0
1165.0
1059.0
954.0
883.0
859.0
873.0
891.0
888.0
873.0
861.0
853.0
851.0
855.0
856.0
859.0
859.0
865.0
871.0
877.0
874.0
861.0
857.0
864.0
874.0
890.0
903.0
917.0
927.0
929.0
926.0
931.0
940.0
948.0
957.0
962.0
964.0
964.0
967.0
977.0
972.0
948.0
931.0
945.0
962.0
976.0
973.0
969.0
969.0
967.0
972.0
980.0
986.0
995.0
997.0
992.0
991.0
988.0
987.0
997.0
1013.0
1026.0
1014.0
986.0
972.0
992.0
1015.0
1023.0
1012.0
1003.0
1006.0
1019.0
1035.0
1040.0
1033.0
1027.0
1028.0
1044.0
1061.0
1068.0
1058.0
1046.0
1038.0
1043.0
1048.0
1050.0
1048.0
1046.0
1031.0
1007.0
992.0
993.0
1001.0
1006.0
1006.0
994.0
980.0
966.0
952.0
949.0
955.0
963.0
960.0
959.0
956.0
952.0
943.0
938.0
935.0
936.0
929.0
929.0
938.0
941.0
942.0
939.0
938.0
933.0
929.0
923.0
918.0
918.0
921.0
922.0
927.0
931.0
936.0
933.0
929.0
929.0
924.0
916.0
905.0
910.0
922.0
937.0
945.0
943.0
938.0
926.0
916.0
909.0
909.0
918.0
929.0
938.0
936.0
925.0
911.0
907.0
915.0
930.0
938.0
938.0
924.0
905.0
898.0
903.0
915.0
922.0
922.0
915.0
915.0
920.0
922.0
919.0
914.0
916.0
926.0
927.0
920.0
926.0
939.0
951.0
953.0
934.0
916.0
916.0
937.0
955.0
951.0
935.0
924.0
920.0
928.0
939.0
954.0
961.0
962.0
958.0
963.0
971.0
977.0
978.0
971.0
956.0
943.0
933.0
932.0
933.0
936.0
942.0
939.0
931.0
914.0
903.0
895.0
888.0
888.0
897.0
908.0
910.0
898.0
891.0
885.0
891.0
890.0
890.0
881.0
878.0
886.0
893.0
903.0
906.0
902.0
899.0
900.0
909.0
914.0
910.0
905.0
903.0
908.0
927.0
962.0
1005.0
1051.0
1098.0
1152.0
1200.0
1228.0
1216.0
1154.0
1058.0
958.0
877.0
834.0
834.0
850.0
861.0
864.0
851.0
837.0
825.0
813.0
807.0
807.0
815.0
820.0
826.0
825.0
818.0
810.0
808.0
811.0
818.0
829.0
841.0
856.0
858.0
853.0
854.0
873.0
890.0
894.0
893.0
903.0
917.0
924.0
914.0
898.0
894.0
897.0
903.0
909.0
910.0
913.0
923.0
929.0
925.0
919.0
911.0
908.0
910.0
915.0
922.0
927.0
934.0
937.0
939.0
939.0
929.0
918.0
916.0
920.0
932.0
945.0
953.0
953.0
945.0
938.0
944.0
951.0
965.0
964.0
963.0
956.0
953.0
961.0
974.0
977.0
973.0
973.0
978.0
987.0
992.0
993.0
990.0
982.0
966.0
951.0
948.0
948.0
948.0
949.0
944.0
943.0
935.0
918.0
903.0
895.0
898.0
905.0
912.0
903.0
887.0
874.0
868.0
876.0
883.0
880.0
872.0
866.0
865.0
867.0
874.0
878.0
869.0
859.0
854.0
857.0
861.0
861.0
863.0
864.0
867.0
872.0
869.0
864.0
855.0
858.0
869.0
878.0
882.0
873.0
863.0
857.0
853.0
852.0
856.0
861.0
863.0
863.0
870.0
882.0
882.0
868.0
853.0
847.0
852.0
860.0
865.0
869.0
871.0
866.0
860.0
857.0
858.0
863.0
864.0
860.0
855.0
860.0
867.0
863.0
857.0
853.0
852.0
855.0
861.0
869.0
877.0
878.0
876.0
872.0
875.0
879.0
876.0
872.0
880.0
894.0
908.0
913.0
909.0
903.0
911.0
916.0
911.0
903.0
899.0
899.0
896.0
888.0
875.0
868.0
863.0
861.0
861.0
863.0
867.0
869.0
864.0
861.0
858.0
858.0
857.0
856.0
860.0
868.0
874.0
869.0
861.0
854.0
853.0
854.0
852.0
852.0
856.0
863.0
868.0
874.0
879.0
875.0
872.0
869.0
875.0
890.0
917.0
953.0
996.0
1054.0
1110.0
1162.0
1197.0
1203.0
1158.0
1066.0
958.0
873.0
832.0
838.0
856.0
853.0
832.0
816.0
817.0
823.0
821.0
812.0
808.0
809.0
810.0
813.0
820.0
819.0
818.0
814.0
813.0
824.0
838.0
848.0
855.0
858.0
866.0
877.0
892.0
909.0
920.0
925.0
923.0
918.0
918.0
921.0
927.0
932.0
938.0
943.0
941.0
939.0
931.0
928.0
932.0
938.0
948.0
949.0
954.0
954.0
954.0
952.0
952.0
957.0
960.0
964.0
969.0
978.0
985.0
990.0
989.0
993.0
996.0
989.0
981.0
978.0
982.0
996.0
1007.0
1011.0
1011.0
1008.0
1007.0
1013.0
1017.0
1023.0
1031.0
1035.0
1041.0
1041.0
1042.0
1044.0
1037.0
1020.0
1011.0
1015.0
1025.0
1027.0
1011.0
990.0
975.0
967.0
964.0
967.0
969.0
967.0
959.0
952.0
950.0
949.0
944.0
944.0
943.0
941.0
944.0
948.0
949.0
939.0
926.0
920.0
916.0
919.0
923.0
925.0
924.0
929.0
935.0
943.0
943.0
937.0
928.0
927.0
934.0
937.0
936.0
930.0
928.0
927.0
925.0
928.0
930.0
934.0
940.0
942.0
945.0
941.0
936.0
934.0
937.0
939.0
940.0
937.0
932.0
932.0
937.0
939.0
939.0
943.0
951.0
950.0
945.0
937.0
934.0
937.0
943.0
952.0
953.0
939.0
932.0
936.0
947.0
954.0
957.0
952.0
944.0
943.0
947.0
947.0
942.0
939.0
941.0
950.0
958.0
961.0
965.0
966.0
967.0
971.0
974.0
979.0
981.0
984.0
991.0
1000.0
1001.0
994.0
985.0
983.0
989.0
989.0
990.0
986.0
972.0
954.0
943.0
944.0
952.0
952.0
942.0
933.0
929.0
931.0
932.0
935.0
934.0
935.0
933.0
939.0
941.0
938.0
937.0
939.0
941.0
944.0
939.0
932.0
931.0
926.0
927.0
932.0
942.0
950.0
949.0
947.0
946.0
951.0
960.0
968.0
980.0
1013.0
1063.0
1124.0
1187.0
1236.0
1264.0
1266.0
1234.0
1158.0
1062.0
964.0
900.0
876.0
883.0
899.0
901.0
893.0
884.0
876.0
871.0
871.0
875.0
877.0
882.0
887.0
881.0
877.0
872.0
867.0
860.0
865.0
877.0
891.0
901.0
902.0
901.0
905.0
914.0
933.0
952.0
964.0
966.0
969.0
972.0
979.0
984.0
982.0
980.0
986.0
990.0
989.0
985.0
988.0
992.0
995.0
995.0
997.0
1000.0
1003.0
1002.0
997.0
995.0
997.0
1008.0
1009.0
1013.0
1015.0
1016.0
1016.0
1020.0
1019.0
1018.0
1019.0
1021.0
1027.0
1033.0
1036.0
1038.0
1041.0
1046.0
1055.0
1062.0
1065.0
1070.0
1073.0
1072.0
1069.0
1063.0
1065.0
1072.0
1078.0
1088.0
1087.0
1088.0
1087.0
1089.0
1084.0
1087.0
1089.0
1086.0
1079.0
1073.0
1066.0
1059.0
1051.0
1049.0
1045.0
1041.0
1041.0
1042.0
1040.0
1035.0
1017.0
1004.0
1001.0
1004.0
1006.0
1006.0
1007.0
1009.0
997.0
981.0
976.0
980.0
987.0
990.0
985.0
981.0
982.0
988.0
988.0
983.0
974.0
974.0
982.0
990.0
993.0
987.0
975.0
968.0
968.0
979.0
985.0
991.0
990.0
986.0
984.0
980.0
973.0
968.0
970.0
978.0
987.0
993.0
989.0
978.0
974.0
978.0
989.0
994.0
990.0
981.0
971.0
973.0
984.0
990.0
987.0
979.0
971.0
970.0
973.0
978.0
983.0
983.0
986.0
991.0
987.0
976.0
967.0
963.0
968.0
973.0
975.0
980.0
980.0
979.0
976.0
973.0
976.0
984.0
987.0
990.0
995.0
996.0
995.0
996.0
999.0
1005.0
1011.0
1011.0
1014.0
1023.0
1022.0
1019.0
1010.0
1010.0
1017.0
1023.0
1022.0
1022.0
1019.0
1016.0
1013.0
1014.0
1008.0
998.0
990.0
990.0
990.0
992.0
983.0
973.0
970.0
969.0
971.0
973.0
974.0
977.0
976.0
974.0
971.0
970.0
966.0
962.0
956.0
961.0
971.0
975.0
975.0
973.0
967.0
967.0
972.0
972.0
971.0
964.0
963.0
970.0
976.0
978.0
978.0
980.0
989.0
1005.0
1031.0
1055.0
1080.0
1112.0
1160.0
1218.0
1268.0
1304.0
1315.0
1296.0
1238.0
1150.0
1061.0
989.0
939.0
920.0
925.0
935.0
941.0
938.0
930.0
922.0
905.0
897.0
893.0
902.0
905.0
904.0
908.0
912.0
914.0
911.0
904.0
903.0
902.0
911.0
922.0
932.0
938.0
941.0
945.0
957.0
972.0
985.0
991.0
998.0
1002.0
1006.0
1011.0
1012.0
1013.0
1015.0
1021.0
1027.0
1033.0
1031.0
1022.0
1011.0
1008.0
1012.0
1015.0
1018.0
1020.0
1021.0
1021.0
1026.0
1035.0
1041.0
1038.0
1032.0
1030.0
1035.0
1037.0
1043.0
1045.0
1050.0
1049.0
1052.0
1055.0
1064.0
1067.0
1064.0
1062.0
1065.0
1073.0
1079.0
1079.0
1080.0
1080.0
1080.0
1087.0
1091.0
1090.0
1088.0
1088.0
1092.0
1097.0
1103.0
1105.0
1104.0
1101.0
1101.0
1100.0
1101.0
1096.0
1091.0
1082.0
1081.0
1078.0
1079.0
1071.0
1063.0
1053.0
1053.0
1050.0
1049.0
1046.0
1037.0
1032.0
1030.0
1026.0
1024.0
1021.0
1015.0
1010.0
1010.0
1009.0
1008.0
1007.0
1007.0
1003.0
1004.0
1004.0
1005.0
1000.0
997.0
993.0
994.0
997.0
1003.0
1001.0
997.0
992.0
994.0
997.0
1003.0
1001.0
1001.0
1000.0
1000.0
1003.0
1003.0
1001.0
998.0
995.0
996.0
1002.0
1003.0
1004.0
1004.0
1004.0
1006.0
1005.0
1009.0
1008.0
1006.0
1004.0
1007.0
1013.0
1017.0
1015.0
1011.0
1002.0
1000.0
999.0
1001.0
1002.0
1003.0
1002.0
1004.0
1006.0
1006.0
1000.0
1000.0
998.0
999.0
1002.0
1004.0
1004.0
1002.0
1003.0
1008.0
1016.0
1018.0
1019.0
1023.0
1024.0
1026.0
1030.0
1038.0
1038.0
1025.0
1009.0
1012.0
1027.0
1043.0
1048.0
1039.0
1035.0
1034.0
1039.0
1045.0
1042.0
1037.0
1031.0
1023.0
1016.0
1010.0
1004.0
1002.0
998.0
998.0
994.0
989.0
981.0
977.0
970.0
973.0
974.0
979.0
982.0
979.0
975.0
974.0
972.0
966.0
964.0
962.0
964.0
968.0
973.0
973.0
974.0
971.0
967.0
969.0
975.0
977.0
979.0
980.0
979.0
984.0
991.0
1000.0
1009.0
1025.0
1048.0
1086.0
1132.0
1189.0
1243.0
1281.0
1303.0
1286.0
1224.0
1133.0
1033.0
960.0
925.0
929.0
944.0
951.0
944.0
930.0
923.0
918.0
915.0
913.0
913.0
916.0
914.0
914.0
913.0
910.0
908.0
904.0
905.0
914.0
924.0
933.0
937.0
940.0
943.0
953.0
965.0
977.0
983.0
990.0
996.0
1001.0
1006.0
1015.0
1018.0
1020.0
1016.0
1016.0
1021.0
1027.0
1026.0
1021.0
1017.0
1022.0
1023.0
1023.0
1017.0
1018.0
1016.0
1021.0
1026.0
1034.0
1033.0
1032.0
1034.0
1039.0
1046.0
1049.0
1052.0
1052.0
1053.0
1053.0
1056.0
1056.0
1058.0
1062.0
1067.0
1073.0
1075.0
1079.0
1075.0
1067.0
1065.0
1069.0
1078.0
1085.0
1085.0
1087.0
1088.0
1091.0
1096.0
1104.0
1103.0
1101.0
1098.0
1094.0
1095.0
1091.0
1091.0
1083.0
1075.0
1075.0
1071.0
1072.0
1065.0
1061.0
1053.0
1045.0
1041.0
1039.0
1034.0
1029.0
1025.0
1022.0
1024.0
1025.0
1021.0
1008.0
1000.0
995.0
997.0
998.0
999.0
1002.0
1004.0
999.0
998.0
997.0
988.0
986.0
981.0
986.0
994.0
1002.0
1002.0
994.0
989.0
989.0
990.0
992.0
988.0
983.0
977.0
976.0
978.0
983.0
980.0
985.0
983.0
981.0
981.0
986.0
988.0
991.0
994.0
1002.0
999.0
994.0
987.0
984.0
990.0
992.0
992.0
994.0
992.0
995.0
998.0
1000.0
998.0
997.0
993.0
986.0
983.0
986.0
989.0
994.0
994.0
994.0
993.0
995.0
1000.0
1006.0
1007.0
1009.0
1004.0
1008.0
1016.0
1022.0
1023.0
1027.0
1034.0
1042.0
1044.0
1040.0
1037.0
1034.0
1032.0
1033.0
1034.0
1036.0
1030.0
1024.0
1019.0
1012.0
1010.0
1010.0
1006.0
1002.0
996.0
991.0
992.0
992.0
993.0
994.0
996.0
1002.0
1007.0
1004.0
993.0
979.0
974.0
976.0
986.0
994.0
997.0
991.0
989.0
993.0
995.0
991.0
989.0
990.0
988.0
997.0
1005.0
1008.0
1007.0
1006.0
1011.0
1021.0
1044.0
1075.0
1109.0
1152.0
1204.0
1254.0
1303.0
1333.0
1321.0
1261.0
1167.0
1064.0
984.0
950.0
947.0
966.0
972.0
966.0
954.0
946.0
938.0
931.0
929.0
930.0
937.0
949.0
950.0
942.0
933.0
930.0
931.0
934.0
944.0
949.0
957.0
964.0
969.0
974.0
977.0
988.0
998.0
1013.0
1025.0
1032.0
1036.0
1043.0
1047.0
1053.0
1055.0
1053.0
1047.0
1041.0
1042.0
1047.0
1057.0
1061.0
1060.0
1059.0
1056.0
1056.0
1062.0
1067.0
1066.0
1068.0
1070.0
1074.0
1081.0
1089.0
1087.0
1087.0
1093.0
1096.0
1098.0
1099.0
1092.0
1091.0
1096.0
1102.0
1107.0
1105.0
1107.0
1106.0
1110.0
1117.0
1125.0
1130.0
1130.0
1130.0
1126.0
1134.0
1140.0
1146.0
1149.0
1145.0
1147.0
1145.0
1145.0
1145.0
1139.0
1138.0
1132.0
1124.0
1122.0
1118.0
1113.0
1106.0
1101.0
1095.0
1094.0
1090.0
1083.0
1071.0
1068.0
1067.0
1068.0
1067.0
1064.0
1057.0
1050.0
1049.0
1047.0
1047.0
1048.0
1045.0
1043.0
1041.0
1042.0
1042.0
1042.0
1039.0
1034.0
1037.0
1041.0
1047.0
1044.0
1041.0
1039.0
1039.0
1041.0
1043.0
1043.0
1041.0
1044.0
1044.0
1044.0
1047.0
1046.0
1037.0
1034.0
1037.0
1043.0
1048.0
1051.0
1052.0
1049.0
1050.0
1050.0
1052.0
1054.0
1050.0
1051.0
1055.0
1062.0
1062.0
1058.0
1052.0
1046.0
1039.0
1039.0
1040.0
1044.0
1048.0
1050.0
1048.0
1050.0
1053.0
1057.0
1056.0
1059.0
1066.0
1075.0
1082.0
1085.0
1083.0
1078.0
1079.0
1086.0
1093.0
1097.0
1095.0
1093.0
1094.0
1097.0
1097.0
1094.0
1093.0
1090.0
1089.0
1088.0
1085.0
1074.0
1064.0
1056.0
1058.0
1055.0
1052.0
1050.0
1047.0
1039.0
1040.0
1041.0
1048.0
1044.0
1043.0
1039.0
1035.0
1033.0
1033.0
1030.0
1029.0
1029.0
1031.0
1029.0
1036.0
1033.0
1033.0
1030.0
1031.0
1033.0
1035.0
1039.0
1038.0
1039.0
1039.0
1047.0
1057.0
1066.0
1079.0
1105.0
1142.0
1194.0
1246.0
1294.0
1336.0
1367.0
1370.0
1331.0
1252.0
1152.0
1060.0
997.0
972.0
973.0
986.0
994.0
990.0
980.0
972.0
969.0
964.0
961.0
956.0
957.0
960.0
964.0
966.0
962.0
956.0
952.0
955.0
969.0
979.0
988.0
995.0
1001.0
1012.0
1024.0
1039.0
1049.0
1060.0
1061.0
1069.0
1064.0
1059.0
1054.0
1054.0
1055.0
1065.0
1072.0
1077.0
1073.0
1072.0
1070.0
1074.0
1077.0
1079.0
1080.0
1077.0
1079.0
1083.0
1086.0
1090.0
1094.0
1096.0
1095.0
1096.0
1101.0
1100.0
1101.0
1105.0
1107.0
1110.0
1114.0
1124.0
1125.0
1124.0
1123.0
1126.0
1132.0
1138.0
1138.0
1140.0
1143.0
1145.0
1153.0
1153.0
1155.0
1155.0
1159.0
1162.0
1167.0
1171.0
1170.0
1163.0
1155.0
1152.0
1149.0
1147.0
1145.0
1141.0
1136.0
1130.0
1133.0
1127.0
1124.0
1112.0
1101.0
1099.0
1093.0
1097.0
1093.0
1088.0
1081.0
1073.0
1068.0
1066.0
1061.0
1060.0
1052.0
1047.0
1045.0
1049.0
1048.0
1043.0
1032.0
1030.0
1036.0
1043.0
1046.0
1045.0
1045.0
1049.0
1052.0
1046.0
1033.0
1021.0
1016.0
1028.0
1036.0
1043.0
1042.0
1040.0
1034.0
1031.0
1035.0
1039.0
1039.0
1039.0
1040.0
1042.0
1044.0
1046.0
1048.0
1049.0
1046.0
1040.0
1036.0
1038.0
1042.0
1041.0
1036.0
1034.0
1033.0
1036.0
