# Simple Text Format
# Sampling Rate (Hz):= 360.00
# Resolution:= 12
# Labels:= ECG
1184.0
1087.0
990.0
930.0
912.0
921.0
940.0
942.0
931.0
920.0
914.0
911.0
907.0
905.0
906.0
906.0
910.0
913.0
912.0
906.0
899.0
902.0
909.0
922.0
934.0
942.0
946.0
954.0
965.0
980.0
992.0
1001.0
1005.0
1013.0
1016.0
1019.0
1020.0
1025.0
1024.0
1023.0
1026.0
1030.0
1033.0
1035.0
1035.0
1034.0
1040.0
1040.0
1043.0
1044.0
1043.0
1042.0
1045.0
1048.0
1053.0
1057.0
1056.0
1055.0
1058.0
1062.0
1064.0
1066.0
1068.0
1070.0
1075.0
1081.0
1084.0
1086.0
1084.0
1087.0
1091.0
1096.0
1100.0
1106.0
1106.0
1106.0
1108.0
1111.0
1113.0
1114.0
1117.0
1116.0
1118.0
1123.0
1123.0
1117.0
1109.0
1103.0
1097.0
1097.0
1095.0
1090.0
1083.0
1076.0
1071.0
1066.0
1061.0
1055.0
1049.0
1045.0
1039.0
1039.0
1039.0
1031.0
1026.0
1020.0
1016.0
1010.0
1013.0
1010.0
1010.0
1006.0
1003.0
1006.0
1007.0
1006.0
1002.0
1000.0
1000.0
1000.0
1007.0
1005.0
1003.0
1001.0
1001.0
1001.0
1005.0
1003.0
1001.0
1002.0
1004.0
1008.0
1010.0
1009.0
1006.0
1001.0
1003.0
1005.0
1009.0
1009.0
1010.0
1009.0
1007.0
1005.0
1012.0
1007.0
1007.0
1007.0
1008.0
1012.0
1015.0
1012.0
1008.0
1004.0
1002.0
1002.0
1010.0
1008.0
1003.0
1003.0
1008.0
1011.0
1013.0
1014.0
1014.0
1014.0
1019.0
1027.0
1029.0
1032.0
1033.0
1031.0
1036.0
1041.0
1046.0
1047.0
1048.0
1048.0
1049.0
1056.0
1057.0
1051.0
1045.0
1040.0
1035.0
1031.0
1027.0
1019.0
1008.0
1004.0
1000.0
999.0
997.0
995.0
991.0
986.0
989.0
995.0
995.0
991.0
986.0
982.0
983.0
986.0
990.0
989.0
987.0
988.0
990.0
991.0
992.0
993.0
988.0
991.0
994.0
999.0
1005.0
1009.0
1009.0
1017.0
1035.0
1060.0
1097.0
1144.0
1198.0
1251.0
1303.0
1329.0
1313.0
1244.0
1140.0
1038.0
965.0
936.0
943.0
958.0
957.0
949.0
937.0
933.0
927.0
924.0
923.0
924.0
927.0
931.0
930.0
927.0
920.0
919.0
923.0
931.0
946.0
956.0
963.0
966.0
980.0
993.0
1010.0
1018.0
1022.0
1024.0
1028.0
1031.0
1038.0
1038.0
1034.0
1033.0
1035.0
1040.0
1048.0
1049.0
1047.0
1046.0
1047.0
1053.0
1053.0
1053.0
1051.0
1047.0
1054.0
1063.0
1065.0
1065.0
1064.0
1064.0
1066.0
1074.0
1077.0
1080.0
1081.0
1084.0
1086.0
1090.0
1095.0
1095.0
1097.0
1096.0
1103.0
1108.0
1113.0
1112.0
1111.0
1116.0
1117.0
1122.0
1124.0
1126.0
1126.0
1124.0
1122.0
1119.0
1118.0
1111.0
1108.0
1102.0
1099.0
1094.0
1094.0
1084.0
1075.0
1067.0
1061.0
1057.0
1057.0
1053.0
1045.0
1038.0
1034.0
1034.0
1031.0
1026.0
1018.0
1015.0
1016.0
1016.0
1017.0
1016.0
1010.0
1001.0
1005.0
1005.0
1011.0
1010.0
1008.0
1005.0
1005.0
1005.0
1006.0
1004.0
1001.0
1001.0
1004.0
1008.0
1012.0
1009.0
1006.0
1005.0
1004.0
1008.0
1012.0
1010.0
1006.0
1006.0
1007.0
1008.0
1010.0
1008.0
1003.0
1001.0
1004.0
1009.0
1008.0
1007.0
999.0
1001.0
999.0
1000.0
1001.0
1000.0
999.0
1000.0
999.0
1001.0
998.0
999.0
998.0
997.0
1002.0
1007.0
1014.0
1017.0
1017.0
1020.0
1021.0
1022.0
1027.0
1032.0
1034.0
1038.0
1045.0
1047.0
1046.0
1047.0
1042.0
1037.0
1038.0
1038.0
1036.0
1031.0
1024.0
1014.0
1005.0
999.0
995.0
992.0
990.0
987.0
986.0
987.0
988.0
985.0
979.0
973.0
972.0
971.0
979.0
976.0
973.0
970.0
970.0
972.0
976.0
972.0
970.0
966.0
969.0
975.0
979.0
978.0
977.0
976.0
979.0
987.0
998.0
1017.0
1046.0
1085.0
1139.0
1198.0
1253.0
1291.0
1298.0
1260.0
1176.0
1079.0
990.0
927.0
909.0
917.0
929.0
930.0
924.0
918.0
911.0
903.0
899.0
896.0
900.0
901.0
900.0
894.0
892.0
893.0
894.0
895.0
899.0
907.0
913.0
922.0
933.0
941.0
951.0
963.0
977.0
984.0
988.0
985.0
987.0
990.0
993.0
997.0
999.0
1001.0
999.0
1002.0
1004.0
1007.0
1008.0
1004.0
1008.0
1011.0
1016.0
1018.0
1023.0
1025.0
1022.0
1019.0
1020.0
1022.0
1027.0
1030.0
1031.0
1034.0
1038.0
1042.0
1046.0
1046.0
1050.0
1048.0
1053.0
1061.0
1065.0
1070.0
1068.0
1068.0
1070.0
1073.0
1077.0
1081.0
1084.0
1085.0
1086.0
1087.0
1093.0
1093.0
1088.0
1086.0
1082.0
1084.0
1085.0
1082.0
1072.0
1061.0
1054.0
1052.0
1050.0
1040.0
1031.0
1024.0
1022.0
1022.0
1019.0
1013.0
1005.0
998.0
992.0
990.0
992.0
990.0
985.0
981.0
975.0
972.0
977.0
972.0
968.0
966.0
967.0
968.0
971.0
969.0
966.0
960.0
960.0
965.0
969.0
971.0
969.0
967.0
970.0
971.0
973.0
970.0
968.0
968.0
970.0
973.0
977.0
976.0
971.0
970.0
971.0
971.0
978.0
977.0
974.0
975.0
974.0
975.0
976.0
972.0
970.0
969.0
972.0
975.0
978.0
978.0
975.0
972.0
972.0
973.0
973.0
972.0
972.0
971.0
973.0
979.0
989.0
987.0
985.0
985.0
985.0
993.0
995.0
1001.0
1001.0
1006.0
1010.0
1017.0
1020.0
1017.0
1018.0
1015.0
1017.0
1019.0
1017.0
1011.0
1002.0
989.0
982.0
975.0
975.0
972.0
971.0
967.0
964.0
962.0
960.0
958.0
957.0
952.0
951.0
955.0
956.0
958.0
954.0
949.0
949.0
950.0
950.0
952.0
951.0
953.0
954.0
957.0
959.0
957.0
952.0
952.0
957.0
959.0
964.0
972.0
979.0
998.0
1023.0
1062.0
1110.0
1158.0
1208.0
1251.0
1278.0
1274.0
1225.0
1139.0
1039.0
952.0
896.0
883.0
895.0
909.0
907.0
896.0
890.0
887.0
882.0
874.0
868.0
868.0
871.0
879.0
878.0
876.0
871.0
866.0
869.0
874.0
884.0
892.0
901.0
908.0
917.0
930.0
944.0
953.0
963.0
969.0
974.0
976.0
982.0
986.0
985.0
986.0
989.0
992.0
996.0
997.0
994.0
996.0
997.0
1000.0
1005.0
1010.0
1009.0
1009.0
1008.0
1012.0
1015.0
1017.0
1019.0
1020.0
1022.0
1025.0
1032.0
1034.0
1032.0
1029.0
1031.0
1040.0
1046.0
1048.0
1050.0
1053.0
1054.0
1061.0
1064.0
1065.0
1063.0
1067.0
1073.0
1077.0
1082.0
1086.0
1086.0
1082.0
1086.0
1087.0
1092.0
1091.0
1090.0
1086.0
1082.0
1081.0
1084.0
1076.0
1069.0
1061.0
1058.0
1055.0
1054.0
1048.0
1041.0
1036.0
1027.0
1026.0
1020.0
1015.0
1008.0
1003.0
1005.0
1008.0
1007.0
1002.0
998.0
992.0
989.0
990.0
988.0
988.0
988.0
986.0
985.0
983.0
988.0
988.0
984.0
981.0
982.0
985.0
988.0
991.0
990.0
987.0
988.0
988.0
989.0
986.0
988.0
987.0
988.0
991.0
994.0
997.0
993.0
989.0
991.0
992.0
994.0
998.0
998.0
996.0
997.0
1000.0
1000.0
1000.0
998.0
993.0
995.0
998.0
1003.0
1003.0
1000.0
997.0
996.0
998.0
998.0
998.0
999.0
996.0
998.0
1000.0
1004.0
1003.0
1003.0
1002.0
1005.0
1009.0
1018.0
1019.0
1023.0
1023.0
1026.0
1026.0
1032.0
1034.0
1037.0
1039.0
1042.0
1046.0
1049.0
1050.0
1047.0
1042.0
1036.0
1036.0
1032.0
1027.0
1019.0
1009.0
1004.0
1002.0
1001.0
998.0
994.0
988.0
988.0
987.0
988.0
992.0
990.0
986.0
985.0
984.0
985.0
981.0
979.0
980.0
980.0
985.0
987.0
986.0
980.0
982.0
981.0
987.0
989.0
992.0
994.0
993.0
999.0
1002.0
1013.0
1025.0
1039.0
1063.0
1101.0
1151.0
1207.0
1255.0
1298.0
1321.0
1318.0
1277.0
1194.0
1094.0
1003.0
940.0
920.0
927.0
945.0
946.0
938.0
931.0
922.0
916.0
911.0
910.0
913.0
915.0
918.0
920.0
918.0
911.0
910.0
907.0
914.0
924.0
937.0
944.0
951.0
958.0
970.0
984.0
1000.0
1010.0
1012.0
1015.0
1019.0
1023.0
1031.0
1031.0
1029.0
1027.0
1028.0
1030.0
1035.0
1039.0
1040.0
1040.0
1039.0
1044.0
1044.0
1046.0
1044.0
1044.0
1043.0
1050.0
1056.0
1061.0
1062.0
1060.0
1059.0
1062.0
1066.0
1071.0
1073.0
1074.0
1078.0
1084.0
1087.0
1088.0
1089.0
1089.0
1092.0
1097.0
1105.0
1109.0
1109.0
1109.0
1110.0
1115.0
1119.0
1119.0
1120.0
1120.0
1121.0
1125.0
1129.0
1129.0
1121.0
1117.0
1113.0
1111.0
1112.0
1103.0
1096.0
1089.0
1086.0
1085.0
1079.0
1076.0
1063.0
1057.0
1050.0
1050.0
1051.0
1048.0
1042.0
1034.0
1029.0
1027.0
1027.0
1024.0
1017.0
1014.0
1015.0
1019.0
1019.0
1013.0
1008.0
1001.0
1003.0
1005.0
1010.0
1009.0
1006.0
1002.0
1001.0
1005.0
1007.0
1004.0
1002.0
1000.0
1001.0
1004.0
1011.0
1011.0
1006.0
1001.0
1002.0
1009.0
1010.0
1011.0
1008.0
1006.0
1007.0
1011.0
1013.0
1013.0
1008.0
1006.0
1006.0
1008.0
1014.0
1014.0
1012.0
1009.0
1008.0
1009.0
1011.0
1011.0
1009.0
1004.0
1006.0
1006.0
1010.0
1010.0
1008.0
1000.0
1001.0
1005.0
1008.0
1007.0
1002.0
1002.0
1006.0
1009.0
1015.0
1016.0
1015.0
1014.0
1018.0
1025.0
1033.0
1035.0
1033.0
1033.0
1037.0
1043.0
1052.0
1052.0
1050.0
1050.0
1052.0
1054.0
1058.0
1054.0
1047.0
1038.0
1032.0
1028.0
1025.0
1021.0
1012.0
1007.0
1003.0
1004.0
1004.0
1002.0
994.0
988.0
987.0
993.0
998.0
996.0
993.0
989.0
988.0
990.0
991.0
990.0
986.0
982.0
984.0
989.0
994.0
991.0
989.0
985.0
984.0
988.0
992.0
995.0
994.0
996.0
1000.0
1014.0
1033.0
1058.0
1090.0
1130.0
1185.0
1238.0
1283.0
1315.0
1319.0
1284.0
1214.0
1119.0
1029.0
955.0
920.0
919.0
936.0
945.0
942.0
935.0
924.0
914.0
903.0
902.0
910.0
913.0
918.0
912.0
909.0
910.0
907.0
908.0
909.0
913.0
922.0
930.0
941.0
949.0
957.0
966.0
979.0
989.0
1000.0
1005.0
1007.0
1006.0
1012.0
1018.0
1023.0
1024.0
1023.0
1023.0
1024.0
1024.0
1028.0
1028.0
1028.0
1031.0
1034.0
1035.0
1038.0
1036.0
1034.0
1032.0
1034.0
1041.0
1047.0
1046.0
1049.0
1051.0
1051.0
1053.0
1052.0
1053.0
1056.0
1056.0
1058.0
1065.0
1072.0
1076.0
1074.0
1072.0
1074.0
1079.0
1082.0
1084.0
1083.0
1084.0
1091.0
1096.0
1101.0
1101.0
1099.0
1096.0
1097.0
1102.0
1107.0
1108.0
1101.0
1100.0
1099.0
1094.0
1095.0
1087.0
1077.0
1073.0
1068.0
1067.0
1066.0
1062.0
1054.0
1048.0
1041.0
1036.0
1035.0
1028.0
1022.0
1016.0
1014.0
1013.0
1015.0
1009.0
1000.0
993.0
992.0
994.0
994.0
991.0
991.0
989.0
985.0
988.0
989.0
985.0
983.0
980.0
981.0
979.0
988.0
988.0
986.0
982.0
979.0
982.0
985.0
987.0
986.0
986.0
985.0
988.0
991.0
988.0
988.0
983.0
982.0
982.0
987.0
991.0
989.0
987.0
988.0
986.0
989.0
988.0
985.0
980.0
982.0
985.0
990.0
987.0
985.0
980.0
982.0
980.0
981.0
978.0
979.0
980.0
980.0
982.0
984.0
982.0
979.0
978.0
980.0
985.0
992.0
995.0
997.0
994.0
996.0
1002.0
1005.0
1009.0
1012.0
1013.0
1018.0
1024.0
1028.0
1024.0
1023.0
1021.0
1017.0
1019.0
1018.0
1015.0
1007.0
997.0
993.0
985.0
985.0
976.0
971.0
966.0
961.0
963.0
968.0
963.0
960.0
958.0
954.0
955.0
954.0
953.0
952.0
946.0
952.0
954.0
955.0
955.0
951.0
949.0
946.0
949.0
954.0
954.0
953.0
951.0
954.0
956.0
959.0
961.0
963.0
973.0
992.0
1023.0
1065.0
1107.0
1158.0
1205.0
1248.0
1273.0
1262.0
1207.0
1117.0
1024.0
948.0
899.0
888.0
895.0
901.0
896.0
891.0
885.0
882.0
878.0
869.0
866.0
867.0
870.0
872.0
867.0
864.0
860.0
858.0
864.0
873.0
883.0
888.0
892.0
901.0
908.0
920.0
934.0
945.0
953.0
962.0
964.0
966.0
969.0
966.0
967.0
971.0
976.0
982.0
981.0
982.0
981.0
982.0
985.0
987.0
989.0
988.0
985.0
992.0
994.0
999.0
998.0
998.0
998.0
1000.0
1004.0
1008.0
1011.0
1016.0
1016.0
1021.0
1023.0
1023.0
1023.0
1022.0
1025.0
1027.0
1034.0
1044.0
1044.0
1043.0
1038.0
1043.0
1049.0
1054.0
1056.0
1055.0
1054.0
1058.0
1063.0
1068.0
1071.0
1065.0
1063.0
1061.0
1061.0
1058.0
1053.0
1049.0
1041.0
1040.0
1036.0
1035.0
1029.0
1018.0
1011.0
1006.0
1006.0
1004.0
1000.0
991.0
983.0
978.0
975.0
975.0
969.0
963.0
961.0
963.0
966.0
964.0
961.0
955.0
950.0
950.0
950.0
954.0
953.0
948.0
947.0
949.0
948.0
949.0
950.0
946.0
946.0
947.0
950.0
954.0
955.0
953.0
954.0
952.0
953.0
953.0
954.0
952.0
947.0
951.0
958.0
960.0
960.0
956.0
955.0
954.0
956.0
959.0
958.0
953.0
954.0
957.0
961.0
964.0
963.0
957.0
955.0
955.0
959.0
960.0
960.0
959.0
956.0
959.0
960.0
961.0
960.0
957.0
957.0
959.0
966.0
972.0
973.0
973.0
972.0
973.0
975.0
980.0
985.0
986.0
988.0
993.0
999.0
1005.0
1008.0
1005.0
999.0
1004.0
1007.0
1009.0
1008.0
999.0
997.0
996.0
992.0
985.0
976.0
966.0
959.0
960.0
962.0
963.0
962.0
957.0
956.0
955.0
954.0
951.0
950.0
951.0
948.0
949.0
952.0
957.0
956.0
952.0
952.0
949.0
954.0
957.0
956.0
956.0
957.0
959.0
966.0
968.0
964.0
962.0
961.0
968.0
977.0
991.0
1007.0
1030.0
1063.0
1107.0
1162.0
1215.0
1262.0
1289.0
1294.0
1260.0
1190.0
1098.0
1005.0
933.0
895.0
893.0
911.0
917.0
913.0
904.0
899.0
896.0
892.0
888.0
887.0
887.0
884.0
884.0
889.0
889.0
886.0
883.0
883.0
890.0
895.0
905.0
909.0
912.0
917.0
930.0
946.0
962.0
976.0
984.0
985.0
988.0
992.0
997.0
1000.0
999.0
1003.0
1005.0
1011.0
1016.0
1015.0
1011.0
1007.0
1011.0
1017.0
1023.0
1022.0
1025.0
1026.0
1031.0
1029.0
1036.0
1035.0
1033.0
1035.0
1039.0
1044.0
1050.0
1051.0
1052.0
1051.0
1052.0
1056.0
1061.0
1063.0
1065.0
1065.0
1069.0
1075.0
1081.0
1083.0
1080.0
1081.0
1084.0
1089.0
1093.0
1096.0
1101.0
1096.0
1099.0
1100.0
1104.0
1102.0
1099.0
1096.0
1095.0
1096.0
1096.0
1092.0
1086.0
1080.0
1072.0
1069.0
1064.0
1058.0
1050.0
1045.0
1044.0
1042.0
1038.0
1032.0
1027.0
1019.0
1016.0
1015.0
1016.0
1012.0
1006.0
1003.0
1003.0
1002.0
1000.0
994.0
989.0
990.0
990.0
993.0
996.0
995.0
992.0
987.0
987.0
987.0
990.0
988.0
989.0
988.0
990.0
993.0
996.0
993.0
989.0
988.0
987.0
990.0
992.0
995.0
993.0
990.0
992.0
995.0
999.0
998.0
995.0
993.0
995.0
999.0
1001.0
1001.0
1001.0
999.0
999.0
1001.0
1001.0
1000.0
997.0
996.0
999.0
1001.0
1003.0
1001.0
999.0
996.0
997.0
999.0
1003.0
1003.0
1003.0
1001.0
1005.0
1006.0
1009.0
1007.0
1006.0
1009.0
1014.0
1020.0
1027.0
1026.0
1028.0
1029.0
1032.0
1036.0
1039.0
1042.0
1042.0
1041.0
1043.0
1050.0
1054.0
1049.0
1045.0
1043.0
1043.0
1036.0
1033.0
1028.0
1017.0
1008.0
1006.0
1002.0
1001.0
995.0
990.0
985.0
982.0
981.0
986.0
988.0
987.0
985.0
985.0
985.0
983.0
981.0
977.0
973.0
976.0
981.0
983.0
985.0
982.0
978.0
980.0
982.0
983.0
983.0
981.0
984.0
987.0
992.0
999.0
1003.0
1008.0
1019.0
1040.0
1068.0
1110.0
1153.0
1198.0
1244.0
1287.0
1312.0
1310.0
1258.0
1175.0
1082.0
1000.0
945.0
925.0
931.0
940.0
941.0
935.0
928.0
923.0
917.0
904.0
898.0
901.0
907.0
918.0
917.0
913.0
909.0
905.0
904.0
908.0
912.0
917.0
928.0
938.0
949.0
959.0
967.0
977.0
985.0
994.0
1003.0
1009.0
1013.0
1014.0
1013.0
1015.0
1018.0
1021.0
1019.0
1018.0
1015.0
1021.0
1025.0
1029.0
1031.0
1030.0
1029.0
1028.0
1031.0
1032.0
1036.0
1033.0
1033.0
1039.0
1043.0
1049.0
1046.0
1047.0
1044.0
1048.0
1054.0
1059.0
1060.0
1063.0
1065.0
1068.0
1072.0
1076.0
1076.0
1074.0
1076.0
1081.0
1087.0
1093.0
1094.0
1094.0
1095.0
1096.0
1101.0
1102.0
1103.0
1102.0
1105.0
1105.0
1107.0
1109.0
1102.0
1097.0
1089.0
1085.0
1082.0
1082.0
1075.0
1068.0
1062.0
1055.0
1051.0
1046.0
1040.0
1035.0
1027.0
1023.0
1021.0
1023.0
1017.0
1012.0
1005.0
1000.0
999.0
1000.0
998.0
996.0
990.0
990.0
991.0
991.0
988.0
982.0
979.0
982.0
985.0
988.0
984.0
986.0
979.0
976.0
980.0
982.0
981.0
980.0
982.0
985.0
989.0
991.0
989.0
984.0
981.0
983.0
986.0
992.0
993.0
995.0
990.0
987.0
991.0
993.0
991.0
990.0
987.0
989.0
994.0
994.0
994.0
988.0
985.0
985.0
989.0
992.0
992.0
989.0
986.0
987.0
988.0
991.0
990.0
985.0
983.0
987.0
992.0
995.0
995.0
993.0
992.0
997.0
1001.0
1006.0
1008.0
1005.0
1008.0
1012.0
1019.0
1023.0
1023.0
1025.0
1025.0
1027.0
1032.0
1033.0
1032.0
1030.0
1022.0
1016.0
1013.0
1008.0
998.0
985.0
982.0
981.0
979.0
978.0
975.0
968.0
967.0
965.0
970.0
970.0
970.0
963.0
960.0
962.0
961.0
965.0
963.0
961.0
962.0
960.0
964.0
969.0
965.0
962.0
962.0
965.0
971.0
973.0
975.0
975.0
980.0
992.0
1007.0
1030.0
1064.0
1105.0
1155.0
1208.0
1256.0
1285.0
1287.0
1252.0
1181.0
1087.0
999.0
936.0
908.0
905.0
918.0
921.0
919.0
915.0
904.0
893.0
884.0
881.0
882.0
890.0
893.0
890.0
887.0
882.0
880.0
880.0
883.0
890.0
895.0
906.0
918.0
926.0
938.0
946.0
955.0
963.0
971.0
976.0
980.0
982.0
982.0
985.0
989.0
991.0
990.0
992.0
992.0
991.0
995.0
999.0
1000.0
1000.0
999.0
1000.0
1002.0
1002.0
1001.0
1004.0
1003.0
1008.0
1012.0
1017.0
1015.0
1017.0
1015.0
1017.0
1020.0
1023.0
1027.0
1031.0
1033.0
1036.0
1043.0
1043.0
1045.0
1042.0
1043.0
1046.0
1054.0
1059.0
1063.0
1062.0
1059.0
1065.0
1065.0
1070.0
1071.0
1065.0
1067.0
1070.0
1070.0
1069.0
1067.0
1060.0
1051.0
1050.0
1045.0
1042.0
1037.0
1032.0
1025.0
1022.0
1016.0
1014.0
1006.0
1002.0
998.0
993.0
990.0
990.0
984.0
978.0
974.0
971.0
967.0
964.0
963.0
960.0
956.0
958.0
958.0
958.0
958.0
952.0
946.0
947.0
949.0
952.0
954.0
954.0
952.0
954.0
954.0
952.0
950.0
947.0
945.0
947.0
952.0
956.0
955.0
953.0
945.0
945.0
948.0
951.0
952.0
951.0
952.0
953.0
953.0
957.0
954.0
948.0
946.0
951.0
953.0
956.0
957.0
951.0
948.0
946.0
949.0
950.0
951.0
946.0
947.0
946.0
950.0
955.0
952.0
949.0
944.0
947.0
955.0
963.0
966.0
964.0
966.0
967.0
973.0
975.0
978.0
982.0
983.0
988.0
996.0
1002.0
997.0
991.0
988.0
987.0
983.0
987.0
985.0
979.0
970.0
959.0
955.0
952.0
948.0
940.0
936.0
936.0
938.0
941.0
940.0
932.0
927.0
928.0
930.0
932.0
930.0
927.0
925.0
928.0
928.0
929.0
926.0
924.0
923.0
924.0
930.0
934.0
937.0
932.0
934.0
937.0
941.0
952.0
966.0
988.0
1021.0
1069.0
1126.0
1182.0
1229.0
1254.0
1244.0
1195.0
1117.0
1023.0
944.0
886.0
867.0
875.0
890.0
893.0
883.0
875.0
867.0
862.0
860.0
860.0
860.0
860.0
856.0
855.0
854.0
857.0
854.0
855.0
861.0
871.0
879.0
889.0
895.0
900.0
913.0
926.0
944.0
956.0
959.0
961.0
960.0
961.0
966.0
971.0
971.0
972.0
971.0
975.0
975.0
983.0
982.0
980.0
978.0
982.0
986.0
992.0
990.0
991.0
989.0
994.0
996.0
996.0
998.0
996.0
1001.0
1005.0
1009.0
1015.0
1018.0
1018.0
1016.0
1018.0
1024.0
1030.0
1033.0
1038.0
1037.0
1043.0
1045.0
1051.0
1051.0
1050.0
1052.0
1058.0
1063.0
1068.0
1067.0
1062.0
1061.0
1057.0
1058.0
1063.0
1057.0
1051.0
1045.0
1038.0
1039.0
1034.0
1024.0
1019.0
1011.0
1005.0
1004.0
1004.0
1001.0
993.0
988.0
985.0
982.0
978.0
975.0
972.0
967.0
968.0
970.0
970.0
963.0
958.0
953.0
953.0
954.0
963.0
960.0
958.0
959.0
956.0
961.0
963.0
960.0
958.0
958.0
959.0
962.0
966.0
965.0
962.0
959.0
954.0
961.0
965.0
964.0
963.0
962.0
965.0
967.0
968.0
966.0
963.0
961.0
965.0
968.0
969.0
966.0
967.0
963.0
965.0
968.0
969.0
966.0
962.0
961.0
965.0
968.0
973.0
968.0
966.0
958.0
963.0
968.0
975.0
979.0
979.0
983.0
985.0
989.0
990.0
989.0
991.0
991.0
999.0
1010.0
1018.0
1017.0
1016.0
1009.0
1014.0
1015.0
1019.0
1013.0
1010.0
1008.0
1004.0
998.0
989.0
981.0
974.0
971.0
969.0
972.0
972.0
969.0
966.0
961.0
963.0
962.0
963.0
961.0
955.0
955.0
958.0
960.0
962.0
962.0
961.0
957.0
959.0
959.0
962.0
959.0
962.0
961.0
964.0
968.0
970.0
965.0
970.0
976.0
989.0
1013.0
1041.0
1081.0
1123.0
1177.0
1230.0
1277.0
1300.0
1280.0
1221.0
1133.0
1040.0
962.0
917.0
902.0
911.0
919.0
917.0
914.0
911.0
905.0
897.0
891.0
890.0
895.0
898.0
894.0
890.0
889.0
888.0
891.0
895.0
903.0
909.0
917.0
925.0
933.0
948.0
962.0
975.0
985.0
995.0
998.0
1002.0
1003.0
1002.0
1001.0
1004.0
1010.0
1017.0
1016.0
1015.0
1012.0
1016.0
1016.0
1019.0
1023.0
1020.0
1022.0
1023.0
1029.0
1031.0
1031.0
1029.0
1026.0
1029.0
1032.0
1040.0
1044.0
1043.0
1044.0
1046.0
1049.0
1055.0
1056.0
1058.0
1060.0
1067.0
1072.0
1077.0
1080.0
1079.0
1075.0
1078.0
1086.0
1090.0
1091.0
1093.0
1094.0
1094.0
1098.0
1099.0
1096.0
1091.0
1089.0
1085.0
1081.0
1083.0
1079.0
1071.0
1063.0
1057.0
1056.0
1052.0
1047.0
1039.0
1032.0
1028.0
1024.0
1024.0
1016.0
1008.0
1000.0
1001.0
1002.0
1006.0
995.0
992.0
987.0
986.0
982.0
989.0
982.0
983.0
980.0
982.0
988.0
988.0
984.0
979.0
978.0
981.0
983.0
986.0
985.0
984.0
983.0
983.0
986.0
987.0
989.0
989.0
986.0
990.0
988.0
991.0
988.0
988.0
986.0
986.0
986.0
991.0
991.0
990.0
986.0
986.0
987.0
987.0
985.0
985.0
982.0
984.0
986.0
987.0
985.0
981.0
979.0
977.0
980.0
986.0
986.0
986.0
984.0
987.0
995.0
1003.0
1003.0
1003.0
1006.0
1012.0
1016.0
1022.0
1025.0
1025.0
1022.0
1025.0
1026.0
1033.0
1031.0
1028.0
1021.0
1014.0
1011.0
1004.0
996.0
986.0
979.0
978.0
982.0
982.0
977.0
973.0
971.0
969.0
970.0
971.0
967.0
965.0
964.0
966.0
969.0
968.0
964.0
962.0
962.0
964.0
968.0
970.0
972.0
968.0
966.0
967.0
970.0
974.0
976.0
981.0
989.0
1003.0
1024.0
1056.0
1096.0
1142.0
1191.0
1244.0
1286.0
1298.0
1266.0
1185.0
1083.0
985.0
924.0
902.0
909.0
922.0
925.0
917.0
912.0
907.0
898.0
887.0
884.0
885.0
891.0
895.0
894.0
892.0
883.0
883.0
889.0
900.0
911.0
917.0
924.0
932.0
951.0
965.0
976.0
979.0
984.0
988.0
991.0
997.0
1001.0
1002.0
1000.0
1003.0
1005.0
1008.0
1009.0
1006.0
1007.0
1009.0
1016.0
1020.0
1021.0
1020.0
1019.0
1018.0
1021.0
1026.0
1027.0
1030.0
1029.0
1035.0
1039.0
1042.0
1041.0
1039.0
1041.0
1044.0
1050.0
1056.0
1058.0
1059.0
1058.0
1059.0
1063.0
1067.0
1069.0
1068.0
1071.0
1073.0
1081.0
1085.0
1083.0
1081.0
1078.0
1083.0
1084.0
1088.0
1087.0
1082.0
1080.0
1074.0
1075.0
1073.0
1065.0
1055.0
1048.0
1045.0
1043.0
1040.0
1034.0
1027.0
1020.0
1015.0
1012.0
1008.0
1003.0
998.0
996.0
992.0
993.0
989.0
984.0
978.0
976.0
976.0
976.0
981.0
980.0
973.0
966.0
964.0
969.0
969.0
967.0
968.0
964.0
968.0
971.0
975.0
972.0
965.0
961.0
966.0
967.0
973.0
971.0
970.0
969.0
971.0
969.0
971.0
968.0
969.0
968.0
968.0
970.0
971.0
968.0
969.0
966.0
965.0
963.0
967.0
967.0
967.0
964.0
968.0
969.0
967.0
965.0
961.0
959.0
962.0
962.0
967.0
966.0
964.0
964.0
960.0
961.0
963.0
965.0
965.0
969.0
974.0
981.0
982.0
981.0
979.0
982.0
986.0
993.0
1003.0
1006.0
1010.0
1009.0
1008.0
1008.0
1012.0
1011.0
1007.0
1003.0
1001.0
998.0
992.0
982.0
973.0
962.0
956.0
958.0
961.0
960.0
958.0
954.0
948.0
953.0
954.0
951.0
947.0
944.0
945.0
944.0
948.0
946.0
942.0
940.0
938.0
944.0
947.0
949.0
950.0
944.0
946.0
948.0
954.0
951.0
954.0
958.0
972.0
993.0
1020.0
1052.0
1094.0
1143.0
1192.0
1241.0
1270.0
1261.0
1211.0
1125.0
1029.0
951.0
902.0
888.0
895.0
898.0
899.0
895.0
891.0
884.0
874.0
868.0
865.0
869.0
875.0
871.0
868.0
862.0
863.0
865.0
871.0
874.0
876.0
885.0
893.0
905.0
919.0
924.0
936.0
944.0
957.0
968.0
971.0
971.0
967.0
968.0
971.0
978.0
983.0
982.0
981.0
980.0
984.0
986.0
988.0
988.0
989.0
994.0
993.0
997.0
999.0
996.0
997.0
996.0
1000.0
1008.0
1013.0
1013.0
1015.0
1013.0
1015.0
1020.0
1021.0
1025.0
1025.0
1026.0
1029.0
1035.0
1044.0
1041.0
1044.0
1042.0
1043.0
1048.0
1053.0
1058.0
1059.0
1060.0
1059.0
1064.0
1067.0
1064.0
1060.0
1060.0
1059.0
1057.0
1055.0
1052.0
1042.0
1036.0
1030.0
1025.0
1026.0
1018.0
1013.0
1005.0
1004.0
998.0
995.0
991.0
984.0
977.0
976.0
975.0
976.0
971.0
968.0
961.0
958.0
951.0
957.0
955.0
952.0
950.0
953.0
957.0
957.0
953.0
950.0
947.0
948.0
949.0
951.0
952.0
953.0
952.0
951.0
951.0
954.0
953.0
948.0
945.0
948.0
951.0
953.0
954.0
954.0
951.0
949.0
951.0
956.0
956.0
954.0
953.0
952.0
956.0
958.0
956.0
952.0
950.0
949.0
948.0
955.0
955.0
954.0
952.0
954.0
951.0
954.0
956.0
956.0
957.0
961.0
968.0
972.0
975.0
974.0
972.0
975.0
979.0
988.0
991.0
992.0
996.0
1000.0
1004.0
1003.0
1002.0
1000.0
992.0
991.0
990.0
988.0
983.0
971.0
965.0
957.0
955.0
955.0
953.0
949.0
947.0
948.0
949.0
949.0
946.0
944.0
939.0
937.0
940.0
942.0
941.0
942.0
937.0
937.0
939.0
945.0
943.0
941.0
939.0
941.0
943.0
950.0
953.0
950.0
948.0
950.0
951.0
961.0
973.0
984.0
1008.0
1048.0
1097.0
1147.0
1195.0
1239.0
1266.0
1268.0
1235.0
1164.0
1073.0
988.0
922.0
890.0
892.0
905.0
909.0
903.0
897.0
894.0
891.0
888.0
883.0
880.0
879.0
885.0
885.0
884.0
883.0
876.0
874.0
878.0
885.0
893.0
900.0
906.0
911.0
920.0
929.0
943.0
956.0
968.0
975.0
980.0
987.0
991.0
991.0
990.0
991.0
993.0
998.0
1001.0
1005.0
1006.0
1005.0
1008.0
1010.0
1012.0
1011.0
1008.0
1011.0
1014.0
1018.0
1020.0
1023.0
1022.0
1023.0
1024.0
1026.0
1031.0
1031.0
1031.0
1031.0
1039.0
1045.0
1050.0
1048.0
1048.0
1047.0
1051.0
1057.0
1063.0
1066.0
1067.0
1068.0
1072.0
1078.0
1081.0
1080.0
1078.0
1081.0
1087.0
1090.0
1095.0
1096.0
1099.0
1095.0
1093.0
1091.0
1096.0
1088.0
1084.0
1079.0
1075.0
1073.0
1072.0
1065.0
1056.0
1049.0
1042.0
1040.0
1039.0
1033.0
1029.0
1023.0
1022.0
1021.0
1019.0
1014.0
1006.0
1000.0
997.0
998.0
1000.0
996.0
992.0
988.0
985.0
988.0
988.0
985.0
984.0
978.0
980.0
981.0
985.0
984.0
980.0
977.0
976.0
979.0
980.0
983.0
980.0
981.0
982.0
984.0
985.0
984.0
980.0
977.0
981.0
981.0
982.0
986.0
985.0
983.0
984.0
985.0
989.0
985.0
984.0
983.0
985.0
989.0
992.0
992.0
988.0
984.0
983.0
983.0
984.0
986.0
986.0
983.0
984.0
987.0
989.0
987.0
983.0
978.0
979.0
981.0
984.0
989.0
994.0
996.0
999.0
1003.0
1007.0
1006.0
1004.0
1004.0
1009.0
1016.0
1025.0
1029.0
1031.0
1031.0
1031.0
1032.0
1035.0
1032.0
1027.0
1024.0
1022.0
1022.0
1022.0
1013.0
1005.0
995.0
990.0
985.0
984.0
982.0
975.0
974.0
976.0
980.0
978.0
972.0
972.0
968.0
969.0
970.0
970.0
967.0
966.0
963.0
965.0
969.0
969.0
967.0
963.0
960.0
966.0
971.0
975.0
976.0
973.0
971.0
973.0
979.0
982.0
985.0
991.0
1002.0
1025.0
1056.0
1098.0
1144.0
1186.0
1232.0
1272.0
1300.0
1301.0
1260.0
1185.0
1097.0
1013.0
951.0
921.0
912.0
919.0
921.0
921.0
916.0
916.0
910.0
902.0
893.0
891.0
896.0
898.0
900.0
896.0
892.0
889.0
890.0
898.0
899.0
906.0
912.0
917.0
926.0
936.0
946.0
954.0
963.0
976.0
991.0
998.0
1000.0
1000.0
1000.0
997.0
1000.0
1008.0
1008.0
1011.0
1012.0
1014.0
1017.0
