# Simple Text Format
# Sampling Rate (Hz):= 360.00
# Resolution:= 12
# Labels:= ECG
988.0
988.0
991.0
995.0
996.0
997.0
1001.0
1000.0
996.0
991.0
991.0
995.0
999.0
1004.0
1006.0
1000.0
995.0
990.0
987.0
986.0
982.0
973.0
962.0
956.0
951.0
958.0
959.0
956.0
944.0
935.0
935.0
946.0
952.0
954.0
951.0
950.0
954.0
962.0
965.0
962.0
962.0
952.0
947.0
944.0
943.0
940.0
940.0
942.0
951.0
959.0
965.0
960.0
946.0
932.0
924.0
920.0
923.0
929.0
931.0
935.0
944.0
955.0
958.0
965.0
969.0
969.0
974.0
982.0
994.0
1002.0
1007.0
1013.0
1014.0
1018.0
1023.0
1021.0
1018.0
1017.0
1016.0
1017.0
1019.0
1024.0
1031.0
1030.0
1031.0
1042.0
1050.0
1055.0
1058.0
1060.0
1062.0
1069.0
1075.0
1073.0
1076.0
1078.0
1085.0
1087.0
1089.0
1080.0
1072.0
1063.0
1050.0
1038.0
1031.0
1020.0
1012.0
1006.0
997.0
994.0
991.0
988.0
984.0
983.0
990.0
995.0
995.0
988.0
981.0
977.0
978.0
980.0
985.0
984.0
984.0
981.0
985.0
989.0
991.0
987.0
979.0
976.0
971.0
970.0
966.0
965.0
961.0
958.0
955.0
957.0
957.0
957.0
961.0
963.0
970.0
977.0
986.0
993.0
995.0
990.0
993.0
988.0
987.0
980.0
975.0
972.0
973.0
973.0
967.0
968.0
970.0
971.0
977.0
989.0
992.0
993.0
988.0
983.0
979.0
975.0
970.0
968.0
970.0
972.0
978.0
980.0
984.0
989.0
992.0
993.0
996.0
1001.0
1003.0
1007.0
1008.0
1008.0
1006.0
1004.0
1003.0
1003.0
1005.0
1005.0
1009.0
1015.0
1020.0
1022.0
1021.0
1019.0
1022.0
1026.0
1032.0
1035.0
1032.0
1032.0
1035.0
1039.0
1039.0
1038.0
1031.0
1028.0
1021.0
1016.0
1011.0
1004.0
997.0
994.0
990.0
988.0
981.0
973.0
969.0
973.0
976.0
979.0
976.0
971.0
965.0
963.0
962.0
966.0
968.0
969.0
964.0
965.0
966.0
965.0
964.0
967.0
966.0
967.0
967.0
968.0
972.0
975.0
973.0
968.0
969.0
972.0
974.0
974.0
972.0
971.0
971.0
974.0
978.0
980.0
980.0
981.0
980.0
978.0
978.0
977.0
972.0
969.0
965.0
964.0
967.0
970.0
971.0
973.0
974.0
979.0
983.0
989.0
987.0
984.0
984.0
990.0
994.0
995.0
995.0
990.0
987.0
988.0
992.0
995.0
997.0
996.0
1000.0
1006.0
1009.0
1013.0
1018.0
1017.0
1020.0
1023.0
1024.0
1023.0
1021.0
1020.0
1022.0
1021.0
1023.0
1022.0
1024.0
1024.0
1025.0
1023.0
1022.0
1020.0
1015.0
1011.0
1009.0
1010.0
1009.0
1005.0
1002.0
995.0
992.0
991.0
994.0
994.0
987.0
983.0
980.0
980.0
980.0
979.0
972.0
967.0
968.0
969.0
970.0
966.0
962.0
960.0
960.0
968.0
967.0
967.0
963.0
960.0
959.0
958.0
963.0
963.0
960.0
959.0
959.0
961.0
960.0
953.0
951.0
950.0
952.0
960.0
965.0
968.0
967.0
963.0
962.0
962.0
966.0
969.0
967.0
963.0
964.0
963.0
964.0
960.0
954.0
956.0
957.0
963.0
970.0
973.0
974.0
973.0
973.0
975.0
976.0
975.0
974.0
971.0
971.0
975.0
981.0
990.0
992.0
992.0
993.0
996.0
1004.0
1009.0
1011.0
1016.0
1023.0
1030.0
1036.0
1039.0
1037.0
1035.0
1031.0
1032.0
1031.0
1034.0
1033.0
1035.0
1037.0
1038.0
1037.0
1034.0
1027.0
1022.0
1019.0
1020.0
1026.0
1025.0
1025.0
1023.0
1024.0
1027.0
1024.0
1019.0
1014.0
1009.0
1004.0
1000.0
998.0
993.0
987.0
987.0
985.0
982.0
980.0
976.0
969.0
968.0
969.0
974.0
980.0
978.0
972.0
967.0
965.0
962.0
965.0
960.0
956.0
956.0
960.0
960.0
962.0
959.0
958.0
957.0
957.0
961.0
958.0
957.0
953.0
952.0
956.0
953.0
957.0
954.0
959.0
958.0
960.0
962.0
965.0
966.0
958.0
956.0
953.0
952.0
950.0
942.0
937.0
937.0
945.0
953.0
957.0
957.0
959.0
960.0
961.0
963.0
965.0
963.0
957.0
955.0
953.0
954.0
958.0
962.0
966.0
973.0
979.0
987.0
992.0
995.0
999.0
1000.0
1006.0
1011.0
1017.0
1020.0
1015.0
1011.0
1010.0
1009.0
1012.0
1010.0
1010.0
1014.0
1018.0
1017.0
1018.0
1013.0
1001.0
995.0
992.0
996.0
992.0
989.0
987.0
988.0
987.0
988.0
983.0
979.0
971.0
966.0
965.0
964.0
963.0
958.0
948.0
945.0
942.0
942.0
942.0
943.0
940.0
938.0
940.0
943.0
945.0
944.0
942.0
940.0
942.0
944.0
942.0
947.0
944.0
941.0
942.0
942.0
943.0
943.0
939.0
938.0
942.0
942.0
939.0
940.0
939.0
942.0
944.0
951.0
954.0
952.0
953.0
962.0
963.0
963.0
964.0
966.0
962.0
959.0
956.0
953.0
955.0
949.0
943.0
941.0
940.0
939.0
944.0
943.0
947.0
954.0
964.0
972.0
970.0
964.0
963.0
959.0
957.0
954.0
954.0
956.0
958.0
964.0
970.0
981.0
986.0
988.0
990.0
998.0
1000.0
1005.0
1006.0
1006.0
1009.0
1007.0
1009.0
1010.0
1012.0
1010.0
1006.0
1002.0
999.0
998.0
993.0
987.0
980.0
972.0
970.0
968.0
968.0
964.0
960.0
956.0
956.0
956.0
954.0
949.0
945.0
938.0
936.0
933.0
936.0
934.0
934.0
934.0
935.0
930.0
920.0
914.0
914.0
918.0
922.0
923.0
922.0
919.0
918.0
916.0
920.0
922.0
923.0
920.0
917.0
920.0
924.0
929.0
926.0
921.0
921.0
920.0
924.0
931.0
942.0
945.0
947.0
953.0
969.0
981.0
988.0
992.0
998.0
1001.0
1005.0
1011.0
1014.0
1014.0
1011.0
1006.0
1004.0
1009.0
1010.0
1007.0
1000.0
1000.0
1002.0
1005.0
1007.0
1009.0
1014.0
1020.0
1026.0
1029.0
1027.0
1020.0
1010.0
999.0
996.0
1000.0
1001.0
1002.0
1003.0
1006.0
1007.0
1014.0
1022.0
1026.0
1026.0
1029.0
1031.0
1035.0
1037.0
1037.0
1032.0
1033.0
1030.0
1027.0
1031.0
1030.0
1025.0
1023.0
1018.0
1023.0
1027.0
1028.0
1023.0
1014.0
1002.0
998.0
997.0
1001.0
999.0
991.0
990.0
991.0
989.0
982.0
972.0
967.0
963.0
960.0
954.0
953.0
950.0
947.0
942.0
940.0
931.0
926.0
927.0
934.0
939.0
940.0
932.0
928.0
933.0
937.0
940.0
938.0
936.0
933.0
930.0
925.0
920.0
923.0
929.0
933.0
936.0
944.0
948.0
958.0
959.0
957.0
955.0
964.0
967.0
977.0
984.0
987.0
984.0
981.0
980.0
982.0
987.0
989.0
989.0
988.0
990.0
990.0
992.0
992.0
994.0
997.0
1004.0
1011.0
1017.0
1021.0
1024.0
1029.0
1034.0
1036.0
1033.0
1028.0
1023.0
1023.0
1022.0
1021.0
1022.0
1030.0
1030.0
1029.0
1031.0
1038.0
1042.0
1043.0
1047.0
1044.0
1045.0
1048.0
1047.0
1042.0
1032.0
1026.0
1023.0
1023.0
1025.0
1026.0
1027.0
1028.0
1026.0
1019.0
1014.0
1008.0
999.0
997.0
998.0
997.0
993.0
988.0
984.0
983.0
980.0
973.0
971.0
967.0
961.0
960.0
957.0
954.0
952.0
946.0
946.0
942.0
938.0
930.0
929.0
930.0
933.0
936.0
937.0
940.0
940.0
943.0
942.0
940.0
941.0
944.0
945.0
940.0
936.0
934.0
936.0
937.0
938.0
938.0
934.0
930.0
927.0
929.0
933.0
934.0
930.0
927.0
932.0
942.0
955.0
960.0
956.0
955.0
952.0
953.0
956.0
955.0
957.0
957.0
962.0
963.0
962.0
959.0
960.0
961.0
966.0
970.0
974.0
980.0
983.0
985.0
994.0
998.0
1003.0
1004.0
997.0
990.0
986.0
985.0
987.0
986.0
987.0
987.0
994.0
996.0
1000.0
1002.0
1003.0
1005.0
1010.0
1019.0
1027.0
1029.0
1026.0
1022.0
1016.0
1009.0
1002.0
997.0
993.0
992.0
999.0
1005.0
1011.0
1013.0
1011.0
1006.0
1002.0
1000.0
1001.0
1000.0
996.0
995.0
997.0
998.0
997.0
994.0
990.0
992.0
990.0
992.0
992.0
988.0
985.0
988.0
986.0
987.0
982.0
973.0
967.0
964.0
965.0
967.0
968.0
966.0
962.0
960.0
959.0
960.0
960.0
957.0
954.0
953.0
956.0
954.0
954.0
949.0
947.0
944.0
941.0
941.0
940.0
937.0
937.0
936.0
938.0
941.0
943.0
940.0
938.0
934.0
937.0
944.0
950.0
952.0
957.0
956.0
956.0
951.0
951.0
948.0
943.0
943.0
948.0
952.0
953.0
955.0
956.0
958.0
959.0
961.0
965.0
970.0
973.0
970.0
969.0
972.0
970.0
968.0
962.0
959.0
966.0
973.0
981.0
984.0
988.0
989.0
993.0
994.0
999.0
1001.0
1000.0
996.0
992.0
988.0
983.0
980.0
974.0
971.0
975.0
982.0
991.0
992.0
988.0
988.0
993.0
997.0
1000.0
996.0
987.0
985.0
987.0
992.0
992.0
995.0
993.0
996.0
995.0
996.0
995.0
992.0
993.0
994.0
994.0
993.0
992.0
990.0
985.0
990.0
994.0
997.0
998.0
998.0
1001.0
1001.0
1001.0
1004.0
1003.0
1002.0
996.0
995.0
998.0
996.0
996.0
991.0
987.0
986.0
982.0
982.0
982.0
979.0
978.0
975.0
973.0
974.0
976.0
978.0
977.0
981.0
978.0
981.0
984.0
986.0
989.0
993.0
1000.0
1004.0
1004.0
996.0
988.0
981.0
981.0
980.0
984.0
987.0
992.0
994.0
993.0
993.0
994.0
989.0
982.0
980.0
980.0
983.0
984.0
987.0
992.0
999.0
1003.0
1006.0
1006.0
1006.0
1007.0
1010.0
1017.0
1024.0
1028.0
1030.0
1027.0
1025.0
1021.0
1018.0
1011.0
1004.0
1001.0
1001.0
1000.0
1006.0
1013.0
1013.0
1013.0
1011.0
1008.0
1006.0
1004.0
1000.0
997.0
992.0
988.0
991.0
988.0
991.0
990.0
991.0
991.0
992.0
987.0
981.0
975.0
969.0
972.0
970.0
970.0
964.0
959.0
956.0
954.0
952.0
950.0
946.0
943.0
940.0
946.0
953.0
953.0
954.0
950.0
948.0
945.0
943.0
942.0
941.0
939.0
940.0
941.0
950.0
954.0
956.0
953.0
948.0
948.0
950.0
951.0
954.0
955.0
959.0
968.0
971.0
973.0
969.0
964.0
961.0
967.0
972.0
980.0
984.0
985.0
982.0
978.0
982.0
984.0
979.0
971.0
967.0
964.0
963.0
959.0
960.0
959.0
962.0
968.0
976.0
977.0
974.0
970.0
965.0
965.0
964.0
960.0
956.0
952.0
952.0
955.0
961.0
968.0
970.0
973.0
980.0
987.0
994.0
997.0
998.0
997.0
999.0
1003.0
1004.0
1004.0
1002.0
997.0
994.0
996.0
1003.0
1005.0
1005.0
999.0
993.0
990.0
986.0
981.0
974.0
968.0
966.0
967.0
966.0
963.0
959.0
955.0
953.0
949.0
947.0
944.0
935.0
927.0
918.0
917.0
918.0
919.0
920.0
915.0
914.0
917.0
914.0
910.0
905.0
901.0
900.0
903.0
911.0
914.0
912.0
906.0
904.0
903.0
899.0
892.0
886.0
884.0
885.0
895.0
896.0
900.0
900.0
897.0
894.0
899.0
902.0
898.0
897.0
903.0
913.0
913.0
909.0
907.0
908.0
912.0
916.0
924.0
931.0
937.0
935.0
936.0
933.0
937.0
940.0
944.0
946.0
940.0
938.0
943.0
951.0
953.0
954.0
948.0
947.0
952.0
953.0
958.0
960.0
960.0
963.0
969.0
974.0
980.0
978.0
971.0
965.0
958.0
954.0
956.0
961.0
968.0
975.0
978.0
982.0
986.0
987.0
990.0
995.0
1005.0
1009.0
1010.0
1006.0
995.0
988.0
982.0
975.0
975.0
983.0
989.0
992.0
986.0
978.0
970.0
961.0
952.0
951.0
948.0
949.0
947.0
946.0
941.0
936.0
926.0
918.0
910.0
916.0
914.0
914.0
915.0
919.0
915.0
906.0
897.0
897.0
895.0
891.0
888.0
880.0
880.0
882.0
890.0
894.0
894.0
887.0
883.0
883.0
885.0
884.0
883.0
877.0
874.0
879.0
880.0
882.0
880.0
880.0
882.0
888.0
890.0
895.0
897.0
902.0
905.0
914.0
930.0
945.0
955.0
961.0
963.0
963.0
970.0
979.0
991.0
997.0
1001.0
1001.0
994.0
991.0
985.0
975.0
964.0
957.0
964.0
981.0
998.0
1007.0
1004.0
998.0
992.0
977.0
960.0
946.0
938.0
937.0
936.0
943.0
956.0
967.0
972.0
975.0
977.0
980.0
981.0
987.0
986.0
984.0
986.0
996.0
999.0
993.0
985.0
978.0
972.0
970.0
967.0
959.0
952.0
954.0
958.0
954.0
956.0
959.0
959.0
951.0
945.0
949.0
962.0
973.0
972.0
961.0
951.0
942.0
931.0
915.0
906.0
897.0
892.0
888.0
884.0
882.0
894.0
911.0
922.0
923.0
909.0
895.0
891.0
889.0
889.0
889.0
890.0
894.0
900.0
905.0
906.0
905.0
902.0
899.0
896.0
897.0
904.0
904.0
901.0
893.0
889.0
888.0
886.0
885.0
885.0
885.0
889.0
898.0
913.0
927.0
940.0
946.0
940.0
936.0
937.0
942.0
942.0
940.0
936.0
939.0
953.0
960.0
965.0
963.0
957.0
947.0
946.0
953.0
962.0
968.0
971.0
974.0
980.0
987.0
992.0
993.0
991.0
983.0
970.0
966.0
970.0
980.0
988.0
1000.0
1013.0
1017.0
1015.0
1010.0
1006.0
1007.0
1006.0
1012.0
1013.0
1012.0
1010.0
1005.0
1005.0
1008.0
1009.0
1004.0
1004.0
998.0
989.0
981.0
971.0
967.0
968.0
976.0
990.0
996.0
994.0
984.0
969.0
960.0
961.0
971.0
975.0
975.0
974.0
979.0
994.0
1004.0
1003.0
988.0
973.0
963.0
960.0
966.0
976.0
991.0
1009.0
1030.0
1040.0
1025.0
986.0
952.0
933.0
930.0
939.0
950.0
962.0
970.0
974.0
977.0
979.0
984.0
985.0
979.0
974.0
967.0
964.0
962.0
957.0
948.0
946.0
943.0
944.0
937.0
927.0
920.0
918.0
923.0
930.0
941.0
953.0
962.0
973.0
990.0
1009.0
1016.0
1011.0
995.0
985.0
979.0
992.0
1013.0
1030.0
1030.0
1011.0
977.0
960.0
955.0
957.0
964.0
974.0
982.0
991.0
995.0
997.0
1008.0
1031.0
1070.0
1093.0
1075.0
1049.0
1050.0
1072.0
1073.0
1045.0
1002.0
986.0
991.0
989.0
979.0
968.0
963.0
968.0
969.0
957.0
935.0
920.0
916.0
926.0
929.0
927.0
923.0
923.0
923.0
926.0
931.0
934.0
936.0
940.0
947.0
954.0
953.0
944.0
938.0
939.0
946.0
957.0
959.0
964.0
975.0
991.0
1005.0
1013.0
1027.0
1054.0
1090.0
1099.0
1075.0
1027.0
996.0
1005.0
1048.0
1095.0
1110.0
1083.0
1035.0
980.0
955.0
961.0
958.0
947.0
940.0
943.0
947.0
955.0
964.0
974.0
992.0
1004.0
1002.0
990.0
988.0
1001.0
997.0
984.0
962.0
952.0
947.0
946.0
961.0
983.0
1018.0
1063.0
1093.0
1082.0
1041.0
998.0
981.0
987.0
996.0
997.0
994.0
988.0
985.0
985.0
991.0
993.0
988.0
987.0
980.0
982.0
988.0
990.0
994.0
1001.0
1011.0
1026.0
1040.0
1053.0
1070.0
1099.0
1139.0
1158.0
1106.0
1031.0
1004.0
1016.0
1039.0
1064.0
1058.0
1036.0
991.0
958.0
956.0
957.0
929.0
898.0
879.0
875.0
890.0
914.0
946.0
968.0
978.0
982.0
976.0
978.0
1008.0
1051.0
1063.0
1030.0
986.0
968.0
974.0
976.0
967.0
971.0
998.0
1033.0
1029.0
998.0
991.0
1014.0
1027.0
1004.0
950.0
909.0
892.0
892.0
891.0
897.0
909.0
921.0
935.0
946.0
950.0
949.0
952.0
955.0
957.0
955.0
951.0
955.0
958.0
962.0
958.0
953.0
954.0
961.0
965.0
968.0
969.0
973.0
976.0
987.0
1001.0
1021.0
1056.0
1097.0
1144.0
1194.0
1210.0
1172.0
1124.0
1089.0
1068.0
1062.0
1064.0
1090.0
1142.0
1183.0
1164.0
1075.0
994.0
959.0
942.0
927.0
923.0
944.0
981.0
996.0
984.0
961.0
954.0
969.0
980.0
978.0
973.0
976.0
981.0
987.0
991.0
999.0
1008.0
1016.0
1010.0
1020.0
1050.0
1058.0
1025.0
1006.0
1003.0
988.0
954.0
933.0
943.0
959.0
952.0
938.0
928.0
924.0
922.0
932.0
944.0
953.0
961.0
971.0
990.0
1009.0
1022.0
1035.0
1057.0
1075.0
1044.0
969.0
902.0
877.0
888.0
908.0
926.0
936.0
944.0
955.0
968.0
972.0
970.0
963.0
956.0
958.0
964.0
961.0
951.0
936.0
926.0
933.0
945.0
943.0
930.0
921.0
922.0
936.0
948.0
949.0
940.0
937.0
949.0
967.0
973.0
984.0
1005.0
1045.0
1100.0
1145.0
1159.0
1121.0
1075.0
1067.0
1097.0
1131.0
1133.0
1089.0
1034.0
1003.0
1017.0
1034.0
1031.0
982.0
896.0
827.0
801.0
816.0
846.0
869.0
888.0
904.0
922.0
936.0
951.0
955.0
951.0
951.0
956.0
968.0
984.0
996.0
1008.0
1022.0
1059.0
1112.0
1145.0
1139.0
1116.0
1101.0
1099.0
1081.0
1056.0
1067.0
1076.0
1041.0
993.0
984.0
974.0
935.0
887.0
847.0
829.0
833.0
851.0
880.0
904.0
910.0
897.0
888.0
891.0
898.0
904.0
905.0
899.0
894.0
895.0
900.0
902.0
905.0
908.0
922.0
930.0
929.0
929.0
929.0
933.0
937.0
933.0
931.0
938.0
958.0
997.0
1042.0
1060.0
1038.0
1030.0
1076.0
1126.0
1148.0
1142.0
1102.0
1030.0
969.0
946.0
978.0
1043.0
1068.0
1029.0
967.0
935.0
919.0
881.0
832.0
837.0
885.0
924.0
937.0
952.0
952.0
949.0
942.0
930.0
930.0
946.0
962.0
960.0
945.0
937.0
933.0
931.0
933.0
945.0
951.0
952.0
950.0
941.0
938.0
935.0
934.0
933.0
938.0
945.0
956.0
963.0
964.0
965.0
968.0
976.0
984.0
995.0
1003.0
1003.0
1001.0
1005.0
1010.0
1003.0
996.0
993.0
996.0
997.0
999.0
1005.0
1022.0
1048.0
1038.0
989.0
931.0
905.0
916.0
948.0
994.0
1032.0
1048.0
1044.0
1037.0
1028.0
1014.0
985.0
958.0
957.0
978.0
975.0
954.0
931.0
938.0
989.0
1016.0
962.0
882.0
831.0
814.0
823.0
857.0
918.0
984.0
1012.0
1009.0
1002.0
992.0
970.0
946.0
921.0
914.0
936.0
978.0
1004.0
980.0
931.0
891.0
862.0
852.0
868.0
917.0
967.0
980.0
950.0
917.0
906.0
914.0
925.0
929.0
931.0
932.0
923.0
921.0
930.0
941.0
940.0
934.0
940.0
942.0
951.0
957.0
955.0
946.0
941.0
944.0
952.0
962.0
951.0
933.0
918.0
912.0
917.0
921.0
916.0
911.0
920.0
933.0
942.0
943.0
940.0
943.0
955.0
963.0
969.0
975.0
982.0
995.0
1013.0
1032.0
1045.0
1048.0
1067.0
1119.0
1157.0
1144.0
1127.0
1109.0
1068.0
1029.0
1019.0
998.0
954.0
937.0
941.0
921.0
878.0
859.0
879.0
892.0
871.0
824.0
799.0
799.0
821.0
854.0
887.0
908.0
930.0
941.0
939.0
930.0
945.0
971.0
995.0
999.0
972.0
938.0
916.0
894.0
868.0
851.0
854.0
883.0
920.0
954.0
965.0
938.0
892.0
852.0
835.0
832.0
844.0
867.0
893.0
910.0
920.0
924.0
929.0
940.0
949.0
950.0
949.0
954.0
963.0
971.0
978.0
985.0
986.0
986.0
984.0
982.0
987.0
989.0
991.0
985.0
983.0
982.0
979.0
974.0
971.0
971.0
969.0
968.0
962.0
945.0
935.0
931.0
938.0
949.0
954.0
954.0
956.0
961.0
966.0
984.0
1018.0
1071.0
1128.0
1135.0
1079.0
1020.0
988.0
956.0
935.0
937.0
934.0
908.0
869.0
846.0
853.0
898.0
954.0
975.0
954.0
927.0
920.0
949.0
1012.0
1066.0
1058.0
994.0
919.0
863.0
860.0
907.0
978.0
1014.0
998.0
963.0
931.0
914.0
915.0
927.0
931.0
906.0
877.0
862.0
860.0
865.0
872.0
887.0
900.0
909.0
916.0
928.0
939.0
943.0
933.0
927.0
926.0
937.0
961.0
994.0
1024.0
1016.0
960.0
889.0
837.0
820.0
835.0
868.0
902.0
924.0
930.0
919.0
909.0
909.0
919.0
931.0
942.0
950.0
956.0
973.0
989.0
1009.0
1032.0
1035.0
1011.0
971.0
946.0
945.0
962.0
977.0
990.0
994.0
997.0
995.0
990.0
983.0
978.0
971.0
971.0
974.0
975.0
983.0
986.0
994.0
998.0
1003.0
1012.0
1017.0
1025.0
1036.0
1037.0
1027.0
1016.0
1015.0
1027.0
1044.0
1053.0
1051.0
1033.0
1002.0
966.0
945.0
950.0
988.0
1040.0
1064.0
1046.0
1003.0
958.0
916.0
884.0
881.0
921.0
1000.0
1065.0
1052.0
986.0
919.0
878.0
871.0
880.0
894.0
901.0
912.0
929.0
938.0
928.0
910.0
898.0
894.0
902.0
920.0
938.0
937.0
921.0
904.0
899.0
901.0
898.0
881.0
870.0
866.0
878.0
911.0
952.0
974.0
952.0
909.0
874.0
865.0
881.0
894.0
907.0
920.0
932.0
932.0
919.0
911.0
912.0
918.0
925.0
935.0
944.0
945.0
945.0
944.0
943.0
943.0
941.0
942.0
946.0
951.0
956.0
970.0
990.0
1006.0
1000.0
973.0
943.0
907.0
868.0
841.0
837.0
850.0
869.0
885.0
898.0
909.0
916.0
923.0
936.0
946.0
954.0
960.0
960.0
963.0
970.0
981.0
983.0
983.0
978.0
971.0
966.0
965.0
968.0
972.0
975.0
975.0
977.0
974.0
971.0
966.0
965.0
966.0
973.0
984.0
994.0
992.0
992.0
992.0
990.0
992.0
983.0
948.0
912.0
896.0
900.0
929.0
973.0
992.0
954.0
891.0
851.0
844.0
859.0
885.0
914.0
925.0
921.0
907.0
901.0
893.0
891.0
900.0
921.0
931.0
927.0
920.0
913.0
909.0
900.0
874.0
834.0
808.0
811.0
838.0
872.0
897.0
895.0
874.0
854.0
846.0
853.0
873.0
887.0
898.0
900.0
905.0
916.0
930.0
941.0
941.0
937.0
935.0
938.0
940.0
939.0
933.0
930.0
935.0
939.0
943.0
943.0
942.0
938.0
938.0
937.0
938.0
939.0
939.0
937.0
939.0
942.0
949.0
953.0
957.0
959.0
963.0
967.0
972.0
975.0
973.0
975.0
979.0
981.0
978.0
974.0
963.0
950.0
940.0
936.0
935.0
939.0
941.0
939.0
938.0
936.0
939.0
939.0
935.0
927.0
926.0
933.0
934.0
928.0
916.0
907.0
903.0
905.0
903.0
901.0
899.0
896.0
888.0
885.0
883.0
882.0
887.0
881.0
874.0
871.0
871.0
873.0
875.0
884.0
886.0
883.0
870.0
862.0
863.0
865.0
869.0
866.0
860.0
860.0
862.0
860.0
860.0
856.0
855.0
857.0
862.0
861.0
860.0
864.0
871.0
882.0
890.0
890.0
898.0
906.0
917.0
924.0
929.0
933.0
931.0
931.0
933.0
934.0
930.0
923.0
920.0
919.0
924.0
934.0
945.0
949.0
944.0
940.0
937.0
937.0
933.0
919.0
912.0
911.0
917.0
917.0
923.0
927.0
935.0
942.0
951.0
958.0
974.0
987.0
979.0
960.0
951.0
950.0
935.0
903.0
875.0
860.0
860.0
868.0
874.0
877.0
880.0
883.0
886.0
886.0
887.0
885.0
880.0
878.0
874.0
873.0
880.0
887.0
887.0
888.0
885.0
887.0
889.0
886.0
889.0
893.0
900.0
901.0
896.0
884.0
869.0
855.0
856.0
866.0
880.0
883.0
880.0
874.0
870.0
864.0
857.0
852.0
848.0
851.0
852.0
858.0
861.0
863.0
865.0
870.0
881.0
890.0
897.0
897.0
902.0
911.0
920.0
931.0
943.0
953.0
963.0
969.0
978.0
978.0
974.0
973.0
971.0
968.0
969.0
969.0
966.0
967.0
969.0
976.0
979.0
976.0
967.0
956.0
952.0
948.0
943.0
942.0
946.0
951.0
955.0
961.0
967.0
969.0
974.0
975.0
973.0
971.0
967.0
968.0
966.0
961.0
948.0
935.0
926.0
923.0
927.0
928.0
927.0
928.0
927.0
924.0
915.0
909.0
905.0
908.0
917.0
917.0
917.0
913.0
916.0
920.0
929.0
937.0
937.0
936.0
937.0
937.0
942.0
941.0
934.0
928.0
921.0
917.0
915.0
910.0
906.0
901.0
904.0
910.0
917.0
917.0
912.0
907.0
906.0
902.0
902.0
905.0
905.0
908.0
911.0
915.0
921.0
926.0
929.0
928.0
928.0
927.0
933.0
942.0
955.0
968.0
976.0
983.0
992.0
998.0
998.0
998.0
997.0
997.0
999.0
997.0
993.0
986.0
980.0
978.0
985.0
989.0
986.0
982.0
979.0
979.0
977.0
973.0
967.0
962.0
959.0
961.0
965.0
971.0
977.0
983.0
982.0
988.0
988.0
991.0
990.0
984.0
980.0
972.0
964.0
956.0
948.0
941.0
942.0
942.0
950.0
952.0
952.0
947.0
942.0
941.0
946.0
949.0
952.0
950.0
944.0
939.0
936.0
936.0
932.0
929.0
930.0
938.0
945.0
944.0
940.0
938.0
933.0
927.0
927.0
926.0
921.0
917.0
916.0
914.0
920.0
922.0
923.0
921.0
918.0
917.0
920.0
917.0
910.0
905.0
903.0
909.0
912.0
913.0
911.0
914.0
918.0
917.0
917.0
922.0
919.0
919.0
923.0
930.0
940.0
946.0
947.0
951.0
957.0
960.0
963.0
962.0
962.0
959.0
957.0
961.0
961.0
961.0
958.0
956.0
952.0
950.0
952.0
954.0
953.0
947.0
941.0
937.0
937.0
936.0
932.0
929.0
922.0
924.0
931.0
933.0
934.0
942.0
945.0
951.0
958.0
962.0
967.0
967.0
975.0
983.0
982.0
980.0
970.0
958.0
951.0
945.0
945.0
945.0
943.0
944.0
944.0
945.0
943.0
943.0
940.0
940.0
940.0
941.0
945.0
944.0
936.0
930.0
929.0
929.0
930.0
930.0
932.0
930.0
929.0
932.0
931.0
930.0
925.0
921.0
918.0
914.0
918.0
918.0
921.0
922.0
923.0
927.0
928.0
927.0
922.0
917.0
918.0
925.0
929.0
930.0
925.0
921.0
927.0
928.0
932.0
932.0
933.0
933.0
931.0
937.0
943.0
947.0
949.0
951.0
954.0
960.0
960.0
959.0
959.0
962.0
967.0
971.0
972.0
969.0
965.0
960.0
956.0
954.0
953.0
952.0
951.0
947.0
948.0
947.0
946.0
947.0
945.0
938.0
931.0
928.0
927.0
931.0
934.0
935.0
939.0
943.0
950.0
953.0
957.0
958.0
959.0
968.0
973.0
980.0
983.0
982.0
974.0
966.0
965.0
964.0
958.0
952.0
952.0
953.0
951.0
949.0
940.0
935.0
929.0
927.0
928.0
932.0
929.0
924.0
919.0
914.0
909.0
905.0
897.0
895.0
895.0
897.0
896.0
898.0
896.0
889.0
883.0
880.0
886.0
890.0
891.0
892.0
893.0
899.0
911.0
915.0
915.0
913.0
911.0
919.0
925.0
931.0
933.0
934.0
935.0
943.0
952.0
955.0
955.0
950.0
956.0
964.0
971.0
983.0
986.0
989.0
991.0
994.0
1006.0
1016.0
1023.0
1024.0
1031.0
1038.0
1044.0
1041.0
1032.0
1031.0
1030.0
1031.0
1031.0
1026.0
1024.0
1018.0
1014.0
1012.0
1010.0
1012.0
1013.0
1009.0
1010.0
1013.0
1011.0
1005.0
994.0
984.0
977.0
981.0
987.0
988.0
983.0
985.0
995.0
1004.0
1002.0
995.0
994.0
993.0
998.0
996.0
992.0
979.0
966.0
956.0
950.0
950.0
949.0
944.0
937.0
926.0
915.0
911.0
920.0
925.0
930.0
925.0
918.0
917.0
917.0
912.0
902.0
896.0
900.0
910.0
911.0
910.0
904.0
902.0
906.0
908.0
908.0
906.0
903.0
897.0
894.0
892.0
895.0
899.0
903.0
905.0
903.0
909.0
910.0
906.0
903.0
902.0
907.0
911.0
918.0
924.0
928.0
935.0
938.0
939.0
939.0
943.0
948.0
948.0
954.0
965.0
981.0
997.0
1005.0
1010.0
1021.0
1036.0
1057.0
1068.0
1075.0
1078.0
1080.0
1081.0
1083.0
1087.0
1087.0
1080.0
1078.0
1082.0
1090.0
1084.0
1073.0
1066.0
1068.0
1075.0
1074.0
1068.0
1059.0
1059.0
1065.0
1069.0
1066.0
1064.0
1067.0
1072.0
1076.0
1080.0
1076.0
1075.0
1076.0
1079.0
1075.0
1073.0
1083.0
1097.0
1099.0
1091.0
1079.0
1068.0
1058.0
1053.0
1046.0
1045.0
1042.0
1036.0
1026.0
1015.0
1005.0
993.0
981.0
967.0
960.0
950.0
940.0
930.0
923.0
926.0
930.0
925.0
912.0
903.0
897.0
893.0
890.0
886.0
885.0
882.0
877.0
875.0
882.0
885.0
888.0
886.0
883.0
881.0
884.0
880.0
874.0
868.0
864.0
864.0
864.0
864.0
862.0
863.0
863.0
870.0
876.0
879.0
879.0
876.0
877.0
880.0
885.0
887.0
888.0
893.0
896.0
903.0
905.0
906.0
908.0
908.0
913.0
922.0
933.0
948.0
955.0
966.0
977.0
992.0
1003.0
1012.0
1021.0
1023.0
1030.0
1032.0
1034.0
1032.0
1034.0
1032.0
1033.0
1035.0
1036.0
1034.0
1035.0
1032.0
1028.0
1031.0
1035.0
1037.0
1038.0
1035.0
1038.0
1042.0
1045.0
1050.0
1049.0
1052.0
1051.0
1060.0
1064.0
1065.0
1067.0
1067.0
1070.0
1070.0
1074.0
1079.0
1081.0
1082.0
1085.0
1090.0
1094.0
1097.0
1101.0
1103.0
1102.0
1100.0
1094.0
1085.0
1076.0
1068.0
1058.0
1052.0
1046.0
1042.0
1037.0
1026.0
1022.0
1020.0
1014.0
1008.0
999.0
989.0
979.0
973.0
966.0
959.0
949.0
943.0
938.0
937.0
930.0
918.0
907.0
896.0
890.0
886.0
884.0
881.0
877.0
867.0
860.0
855.0
849.0
846.0
842.0
840.0
838.0
843.0
848.0
849.0
852.0
851.0
850.0
848.0
851.0
853.0
855.0
856.0
858.0
862.0
871.0
876.0
880.0
884.0
888.0
892.0
900.0
904.0
911.0
918.0
927.0
939.0
950.0
958.0
965.0
969.0
976.0
985.0
993.0
999.0
1003.0
1004.0
1006.0
1010.0
1013.0
1013.0
1012.0
1014.0
1011.0
1012.0
1014.0
1017.0
1016.0
1014.0
1017.0
1023.0
