# Simple Text Format
# Sampling Rate (Hz):= 360.00
# Resolution:= 12
# Labels:= ECG
1030.0
1032.0
1033.0
1034.0
1036.0
1036.0
1036.0
1038.0
1042.0
1044.0
1048.0
1051.0
1056.0
1059.0
1061.0
1063.0
1064.0
1066.0
1066.0
1068.0
1068.0
1071.0
1074.0
1076.0
1079.0
1078.0
1082.0
1083.0
1084.0
1083.0
1083.0
1082.0
1083.0
1082.0
1084.0
1084.0
1082.0
1081.0
1079.0
1079.0
1077.0
1074.0
1071.0
1066.0
1064.0
1060.0
1060.0
1060.0
1057.0
1057.0
1056.0
1051.0
1048.0
1048.0
1042.0
1037.0
1036.0
1035.0
1034.0
1031.0
1033.0
1032.0
1029.0
1027.0
1024.0
1020.0
1017.0
1015.0
1016.0
1015.0
1017.0
1016.0
1015.0
1017.0
1016.0
1016.0
1013.0
1011.0
1010.0
1011.0
1010.0
1010.0
1012.0
1013.0
1012.0
1014.0
1011.0
1008.0
1011.0
1009.0
1006.0
1005.0
1007.0
1006.0
1007.0
1008.0
1009.0
1007.0
1010.0
1010.0
1010.0
1010.0
1010.0
1011.0
1010.0
1010.0
1012.0
1014.0
1017.0
1018.0
1020.0
1023.0
1025.0
1028.0
1029.0
1028.0
1029.0
1027.0
1023.0
1024.0
1024.0
1020.0
1019.0
1016.0
1012.0
1009.0
1000.0
995.0
993.0
989.0
987.0
981.0
984.0
982.0
981.0
980.0
980.0
977.0
976.0
973.0
971.0
972.0
973.0
972.0
975.0
975.0
974.0
971.0
972.0
970.0
970.0
964.0
967.0
968.0
968.0
970.0
970.0
970.0
969.0
968.0
968.0
967.0
967.0
965.0
964.0
967.0
967.0
966.0
971.0
969.0
969.0
972.0
969.0
967.0
967.0
967.0
965.0
967.0
966.0
963.0
968.0
969.0
969.0
970.0
967.0
963.0
965.0
963.0
962.0
966.0
966.0
967.0
966.0
969.0
965.0
968.0
966.0
966.0
966.0
963.0
963.0
961.0
964.0
966.0
966.0
968.0
966.0
965.0
963.0
962.0
961.0
961.0
962.0
965.0
965.0
965.0
967.0
968.0
968.0
969.0
967.0
966.0
963.0
965.0
965.0
966.0
967.0
968.0
970.0
972.0
972.0
972.0
971.0
970.0
967.0
968.0
967.0
966.0
968.0
970.0
971.0
973.0
973.0
973.0
971.0
970.0
969.0
968.0
968.0
971.0
968.0
972.0
972.0
972.0
974.0
973.0
971.0
970.0
972.0
971.0
970.0
970.0
973.0
973.0
974.0
973.0
975.0
975.0
974.0
974.0
971.0
970.0
971.0
975.0
973.0
973.0
973.0
974.0
974.0
975.0
976.0
974.0
975.0
974.0
974.0
973.0
975.0
977.0
979.0
979.0
980.0
981.0
978.0
978.0
978.0
975.0
974.0
975.0
978.0
979.0
982.0
981.0
981.0
983.0
981.0
979.0
978.0
978.0
977.0
978.0
979.0
980.0
982.0
982.0
981.0
980.0
981.0
980.0
978.0
977.0
978.0
978.0
981.0
982.0
982.0
983.0
981.0
980.0
979.0
979.0
979.0
977.0
977.0
978.0
978.0
980.0
982.0
983.0
983.0
982.0
981.0
981.0
977.0
977.0
977.0
979.0
981.0
981.0
984.0
984.0
984.0
983.0
982.0
981.0
980.0
982.0
981.0
981.0
982.0
985.0
985.0
986.0
984.0
987.0
984.0
981.0
983.0
983.0
983.0
983.0
984.0
986.0
986.0
985.0
986.0
987.0
985.0
985.0
983.0
982.0
984.0
983.0
985.0
986.0
989.0
992.0
988.0
987.0
986.0
982.0
980.0
981.0
982.0
986.0
988.0
989.0
991.0
993.0
993.0
995.0
994.0
998.0
999.0
998.0
999.0
1000.0
1004.0
1006.0
1010.0
1014.0
1019.0
1023.0
1024.0
1025.0
1024.0
1023.0
1024.0
1020.0
1017.0
1017.0
1017.0
1015.0
1014.0
1013.0
1008.0
1003.0
999.0
996.0
994.0
987.0
989.0
988.0
987.0
989.0
990.0
991.0
989.0
987.0
985.0
982.0
983.0
983.0
984.0
984.0
985.0
986.0
985.0
985.0
983.0
982.0
978.0
981.0
982.0
982.0
982.0
980.0
979.0
975.0
962.0
949.0
935.0
931.0
941.0
976.0
1033.0
1108.0
1195.0
1279.0
1346.0
1378.0
1362.0
1302.0
1210.0
1119.0
1051.0
1014.0
1000.0
1005.0
1014.0
1018.0
1022.0
1014.0
1002.0
991.0
980.0
975.0
971.0
970.0
970.0
971.0
966.0
968.0
968.0
967.0
966.0
965.0
961.0
963.0
961.0
959.0
960.0
959.0
961.0
961.0
962.0
964.0
964.0
961.0
959.0
962.0
961.0
960.0
961.0
959.0
963.0
962.0
963.0
964.0
963.0
966.0
964.0
965.0
963.0
961.0
960.0
963.0
966.0
966.0
968.0
967.0
969.0
967.0
968.0
966.0
967.0
965.0
965.0
965.0
967.0
970.0
971.0
974.0
970.0
973.0
973.0
973.0
972.0
970.0
971.0
972.0
974.0
976.0
979.0
980.0
982.0
980.0
979.0
980.0
981.0
980.0
980.0
982.0
983.0
985.0
989.0
991.0
990.0
993.0
993.0
994.0
993.0
992.0
994.0
996.0
997.0
1001.0
1001.0
1002.0
1004.0
1006.0
1008.0
1008.0
1008.0
1006.0
1009.0
1009.0
1014.0
1014.0
1019.0
1019.0
1023.0
1024.0
1026.0
1027.0
1025.0
1025.0
1029.0
1028.0
1030.0
1032.0
1034.0
1039.0
1042.0
1043.0
1044.0
1044.0
1043.0
1041.0
1043.0
1050.0
1052.0
1054.0
1055.0
1059.0
1056.0
1060.0
1059.0
1062.0
1061.0
1061.0
1063.0
1063.0
1063.0
1065.0
1065.0
1065.0
1062.0
1063.0
1060.0
1059.0
1055.0
1053.0
1053.0
1053.0
1050.0
1050.0
1049.0
1046.0
1043.0
1042.0
1039.0
1036.0
1032.0
1029.0
1028.0
1027.0
1026.0
1022.0
1021.0
1021.0
1019.0
1018.0
1016.0
1013.0
1010.0
1008.0
1008.0
1006.0
1005.0
1008.0
1005.0
1004.0
1006.0
1005.0
1002.0
1003.0
1001.0
1000.0
999.0
1001.0
1001.0
1001.0
1003.0
1005.0
1002.0
1002.0
1002.0
998.0
997.0
996.0
995.0
996.0
998.0
1000.0
1000.0
999.0
998.0
997.0
996.0
996.0
995.0
994.0
995.0
994.0
995.0
997.0
997.0
997.0
997.0
995.0
994.0
991.0
989.0
986.0
984.0
986.0
988.0
991.0
993.0
996.0
997.0
998.0
997.0
997.0
996.0
995.0
999.0
999.0
1003.0
1007.0
1010.0
1013.0
1016.0
1019.0
1017.0
1016.0
1018.0
1018.0
1017.0
1015.0
1013.0
1010.0
1009.0
1005.0
1003.0
999.0
996.0
992.0
989.0
982.0
979.0
977.0
976.0
974.0
974.0
973.0
974.0
975.0
971.0
973.0
969.0
966.0
966.0
966.0
970.0
972.0
975.0
976.0
976.0
975.0
970.0
972.0
970.0
969.0
968.0
968.0
966.0
966.0
966.0
968.0
970.0
972.0
974.0
974.0
973.0
971.0
969.0
970.0
974.0
971.0
977.0
977.0
973.0
972.0
967.0
966.0
966.0
966.0
970.0
970.0
977.0
978.0
980.0
977.0
977.0
976.0
973.0
968.0
967.0
966.0
968.0
971.0
975.0
977.0
979.0
979.0
977.0
973.0
973.0
969.0
969.0
969.0
971.0
972.0
973.0
973.0
973.0
975.0
975.0
975.0
974.0
973.0
973.0
971.0
971.0
974.0
976.0
977.0
980.0
982.0
979.0
978.0
976.0
974.0
974.0
973.0
976.0
975.0
978.0
979.0
980.0
982.0
981.0
980.0
979.0
978.0
976.0
974.0
976.0
973.0
975.0
976.0
980.0
983.0
979.0
980.0
979.0
978.0
977.0
979.0
976.0
975.0
977.0
979.0
983.0
984.0
984.0
983.0
981.0
979.0
976.0
973.0
975.0
977.0
980.0
984.0
988.0
987.0
987.0
988.0
985.0
982.0
980.0
980.0
979.0
977.0
979.0
981.0
984.0
986.0
988.0
988.0
986.0
985.0
983.0
983.0
979.0
980.0
979.0
982.0
983.0
986.0
986.0
983.0
986.0
986.0
985.0
986.0
987.0
985.0
984.0
988.0
989.0
989.0
987.0
985.0
984.0
987.0
984.0
982.0
984.0
985.0
984.0
981.0
980.0
983.0
985.0
989.0
989.0
986.0
989.0
986.0
986.0
985.0
983.0
986.0
987.0
990.0
990.0
992.0
987.0
987.0
986.0
984.0
985.0
985.0
985.0
986.0
987.0
991.0
989.0
990.0
986.0
986.0
984.0
984.0
988.0
987.0
988.0
990.0
991.0
990.0
990.0
992.0
990.0
988.0
984.0
984.0
983.0
984.0
986.0
987.0
989.0
991.0
991.0
991.0
992.0
991.0
990.0
988.0
988.0
988.0
990.0
987.0
991.0
994.0
993.0
993.0
993.0
990.0
989.0
986.0
986.0
986.0
987.0
989.0
990.0
991.0
992.0
992.0
990.0
990.0
991.0
991.0
989.0
990.0
990.0
991.0
990.0
995.0
995.0
997.0
995.0
993.0
994.0
990.0
988.0
988.0
994.0
995.0
1000.0
1004.0
1005.0
1004.0
1006.0
1007.0
1008.0
1009.0
1015.0
1022.0
1025.0
1028.0
1026.0
1028.0
1025.0
1026.0
1023.0
1020.0
1016.0
1011.0
1010.0
1002.0
1001.0
999.0
997.0
997.0
993.0
992.0
988.0
987.0
986.0
984.0
984.0
984.0
985.0
982.0
982.0
984.0
985.0
984.0
979.0
975.0
975.0
976.0
979.0
976.0
981.0
982.0
984.0
987.0
986.0
983.0
981.0
978.0
973.0
964.0
951.0
940.0
939.0
952.0
987.0
1043.0
1112.0
1192.0
1265.0
1325.0
1358.0
1354.0
1304.0
1216.0
1119.0
1038.0
989.0
966.0
965.0
974.0
980.0
986.0
985.0
983.0
978.0
973.0
972.0
972.0
975.0
979.0
979.0
978.0
975.0
972.0
969.0
964.0
967.0
967.0
968.0
969.0
972.0
971.0
972.0
971.0
969.0
969.0
967.0
964.0
968.0
965.0
964.0
967.0
970.0
970.0
969.0
969.0
968.0
970.0
967.0
964.0
965.0
966.0
966.0
967.0
968.0
971.0
970.0
969.0
968.0
967.0
968.0
967.0
967.0
967.0
968.0
968.0
970.0
970.0
970.0
971.0
970.0
970.0
968.0
968.0
968.0
969.0
972.0
974.0
976.0
976.0
975.0
977.0
977.0
978.0
977.0
976.0
975.0
975.0
977.0
979.0
980.0
983.0
981.0
984.0
982.0
981.0
979.0
979.0
983.0
983.0
985.0
988.0
989.0
990.0
990.0
990.0
993.0
992.0
992.0
990.0
989.0
993.0
994.0
997.0
999.0
1004.0
1000.0
1003.0
1004.0
1005.0
1007.0
1005.0
1008.0
1008.0
1010.0
1012.0
1013.0
1018.0
1018.0
1018.0
1021.0
1023.0
1022.0
1026.0
1027.0
1030.0
1034.0
1036.0
1041.0
1045.0
1045.0
1048.0
1053.0
1052.0
1051.0
1053.0
1056.0
1057.0
1060.0
1061.0
1064.0
1065.0
1067.0
1068.0
1070.0
1072.0
1070.0
1070.0
1071.0
1071.0
1071.0
1070.0
1072.0
1073.0
1073.0
1066.0
1066.0
1062.0
1062.0
1058.0
1056.0
1055.0
1053.0
1053.0
1052.0
1051.0
1045.0
1046.0
1041.0
1037.0
1035.0
1031.0
1029.0
1025.0
1022.0
1023.0
1022.0
1021.0
1019.0
1017.0
1012.0
1010.0
1010.0
1007.0
1007.0
1005.0
1004.0
1005.0
1005.0
1007.0
1006.0
1004.0
1003.0
1003.0
1001.0
1001.0
999.0
999.0
999.0
1000.0
1001.0
1002.0
1002.0
1001.0
997.0
996.0
996.0
995.0
994.0
992.0
994.0
995.0
994.0
996.0
994.0
996.0
991.0
988.0
989.0
986.0
984.0
983.0
986.0
984.0
987.0
989.0
987.0
989.0
989.0
990.0
988.0
990.0
990.0
990.0
992.0
994.0
998.0
1000.0
1000.0
1004.0
1009.0
1012.0
1013.0
1014.0
1012.0
1008.0
1007.0
1004.0
1005.0
1003.0
999.0
996.0
994.0
991.0
986.0
984.0
976.0
972.0
971.0
968.0
969.0
968.0
966.0
967.0
967.0
965.0
963.0
961.0
960.0
961.0
962.0
962.0
961.0
962.0
962.0
962.0
960.0
958.0
957.0
956.0
957.0
956.0
956.0
958.0
960.0
960.0
962.0
962.0
962.0
960.0
959.0
957.0
956.0
957.0
957.0
960.0
961.0
962.0
964.0
962.0
962.0
961.0
960.0
958.0
959.0
957.0
958.0
959.0
961.0
962.0
960.0
962.0
958.0
958.0
959.0
956.0
956.0
954.0
959.0
958.0
959.0
961.0
960.0
959.0
959.0
957.0
956.0
955.0
955.0
956.0
957.0
957.0
958.0
960.0
961.0
962.0
961.0
959.0
960.0
957.0
957.0
955.0
958.0
960.0
959.0
960.0
961.0
960.0
960.0
960.0
959.0
958.0
959.0
959.0
959.0
961.0
958.0
960.0
960.0
962.0
961.0
960.0
960.0
961.0
962.0
962.0
963.0
964.0
964.0
966.0
966.0
966.0
964.0
962.0
961.0
960.0
961.0
961.0
962.0
965.0
967.0
969.0
968.0
967.0
968.0
968.0
968.0
969.0
966.0
966.0
968.0
969.0
973.0
971.0
973.0
971.0
973.0
971.0
970.0
969.0
968.0
968.0
971.0
972.0
973.0
975.0
973.0
974.0
973.0
972.0
971.0
971.0
970.0
971.0
971.0
973.0
975.0
974.0
976.0
977.0
976.0
975.0
974.0
972.0
970.0
971.0
971.0
972.0
974.0
974.0
971.0
974.0
974.0
973.0
972.0
971.0
972.0
972.0
972.0
975.0
974.0
977.0
976.0
976.0
975.0
974.0
972.0
972.0
973.0
972.0
973.0
973.0
974.0
977.0
975.0
974.0
974.0
975.0
975.0
974.0
974.0
974.0
976.0
976.0
976.0
978.0
978.0
972.0
976.0
976.0
973.0
972.0
971.0
973.0
975.0
975.0
977.0
978.0
979.0
978.0
978.0
977.0
975.0
976.0
974.0
975.0
974.0
976.0
977.0
977.0
974.0
979.0
976.0
976.0
975.0
973.0
974.0
973.0
975.0
976.0
976.0
976.0
979.0
980.0
979.0
978.0
975.0
974.0
976.0
975.0
977.0
978.0
981.0
980.0
982.0
981.0
982.0
979.0
978.0
977.0
976.0
977.0
976.0
976.0
979.0
980.0
980.0
981.0
981.0
978.0
977.0
974.0
974.0
978.0
979.0
983.0
983.0
987.0
989.0
991.0
989.0
990.0
991.0
992.0
991.0
992.0
999.0
1002.0
1008.0
1015.0
1016.0
1018.0
1019.0
1017.0
1015.0
1009.0
1007.0
1004.0
1004.0
1004.0
1000.0
1000.0
997.0
992.0
988.0
984.0
980.0
976.0
975.0
973.0
972.0
972.0
973.0
974.0
974.0
974.0
974.0
974.0
973.0
970.0
971.0
969.0
969.0
972.0
973.0
976.0
975.0
976.0
972.0
972.0
969.0
969.0
967.0
963.0
955.0
944.0
932.0
921.0
924.0
945.0
988.0
1049.0
1124.0
1209.0
1287.0
1350.0
1382.0
1375.0
1318.0
1232.0
1135.0
1059.0
1016.0
999.0
998.0
1006.0
1011.0
1014.0
1010.0
1001.0
989.0
981.0
974.0
972.0
969.0
965.0
964.0
958.0
955.0
953.0
952.0
953.0
955.0
954.0
956.0
956.0
956.0
954.0
954.0
953.0
953.0
952.0
953.0
954.0
952.0
954.0
956.0
955.0
954.0
954.0
953.0
952.0
951.0
951.0
954.0
954.0
954.0
955.0
958.0
959.0
958.0
958.0
955.0
953.0
951.0
954.0
953.0
956.0
956.0
959.0
957.0
958.0
957.0
958.0
958.0
957.0
956.0
956.0
957.0
958.0
960.0
961.0
963.0
963.0
963.0
962.0
961.0
960.0
959.0
960.0
962.0
964.0
966.0
967.0
970.0
970.0
971.0
971.0
969.0
969.0
970.0
972.0
973.0
978.0
977.0
982.0
982.0
983.0
982.0
982.0
984.0
980.0
981.0
983.0
985.0
987.0
986.0
991.0
991.0
994.0
995.0
997.0
999.0
999.0
1001.0
1003.0
1006.0
1005.0
1006.0
1009.0
1013.0
1012.0
1014.0
1013.0
1014.0
1015.0
1018.0
1020.0
1022.0
1025.0
1027.0
1032.0
1034.0
1037.0
1038.0
1038.0
1041.0
1039.0
1041.0
1041.0
1046.0
1049.0
1052.0
1052.0
1053.0
1055.0
1057.0
1057.0
1058.0
1056.0
1058.0
1060.0
1061.0
1060.0
1064.0
1066.0
1064.0
1060.0
1061.0
1060.0
1058.0
1056.0
1057.0
1056.0
1054.0
1052.0
1051.0
1048.0
1046.0
1044.0
1043.0
1040.0
1037.0
1036.0
1030.0
1026.0
1024.0
1027.0
1026.0
1024.0
1020.0
1019.0
1016.0
1013.0
1011.0
1007.0
1005.0
1002.0
1002.0
1005.0
1007.0
1008.0
1006.0
1006.0
1004.0
1000.0
998.0
995.0
994.0
994.0
994.0
995.0
994.0
996.0
995.0
993.0
991.0
989.0
991.0
991.0
991.0
992.0
992.0
989.0
992.0
994.0
993.0
993.0
994.0
992.0
989.0
987.0
984.0
983.0
983.0
986.0
983.0
989.0
990.0
992.0
992.0
989.0
989.0
988.0
985.0
987.0
989.0
992.0
992.0
994.0
993.0
995.0
997.0
997.0
998.0
999.0
1001.0
1004.0
1006.0
1011.0
1013.0
1016.0
1016.0
1019.0
1018.0
1014.0
1009.0
1005.0
1002.0
998.0
994.0
993.0
990.0
989.0
986.0
982.0
977.0
973.0
972.0
967.0
966.0
967.0
969.0
964.0
965.0
966.0
965.0
963.0
961.0
958.0
958.0
962.0
963.0
961.0
962.0
962.0
962.0
962.0
959.0
960.0
959.0
957.0
960.0
960.0
960.0
958.0
958.0
960.0
961.0
965.0
965.0
962.0
960.0
962.0
961.0
959.0
958.0
958.0
957.0
959.0
959.0
961.0
963.0
969.0
966.0
965.0
961.0
960.0
959.0
961.0
961.0
963.0
966.0
969.0
968.0
968.0
966.0
965.0
963.0
962.0
962.0
962.0
963.0
963.0
961.0
963.0
963.0
964.0
966.0
966.0
963.0
962.0
960.0
960.0
963.0
963.0
967.0
967.0
967.0
967.0
965.0
967.0
963.0
961.0
962.0
962.0
966.0
968.0
968.0
969.0
969.0
970.0
968.0
966.0
964.0
964.0
966.0
966.0
966.0
968.0
968.0
969.0
966.0
966.0
967.0
970.0
971.0
972.0
971.0
971.0
970.0
968.0
967.0
965.0
963.0
965.0
967.0
967.0
965.0
964.0
967.0
964.0
967.0
970.0
971.0
972.0
975.0
975.0
973.0
973.0
969.0
969.0
967.0
967.0
965.0
969.0
970.0
973.0
976.0
975.0
973.0
971.0
973.0
970.0
971.0
971.0
973.0
974.0
975.0
977.0
975.0
977.0
979.0
979.0
978.0
978.0
976.0
976.0
977.0
975.0
977.0
975.0
977.0
977.0
978.0
979.0
979.0
975.0
974.0
976.0
976.0
981.0
981.0
984.0
981.0
980.0
979.0
982.0
984.0
983.0
981.0
979.0
978.0
978.0
979.0
981.0
981.0
983.0
983.0
981.0
986.0
983.0
983.0
982.0
983.0
982.0
982.0
986.0
984.0
984.0
987.0
986.0
985.0
984.0
984.0
984.0
985.0
985.0
988.0
988.0
985.0
987.0
983.0
983.0
982.0
980.0
983.0
981.0
979.0
983.0
984.0
988.0
986.0
986.0
985.0
987.0
985.0
984.0
984.0
981.0
984.0
985.0
986.0
988.0
988.0
988.0
987.0
984.0
982.0
983.0
983.0
984.0
983.0
986.0
987.0
987.0
986.0
989.0
988.0
983.0
981.0
984.0
984.0
982.0
987.0
987.0
987.0
989.0
989.0
988.0
988.0
988.0
987.0
985.0
986.0
986.0
986.0
988.0
989.0
990.0
990.0
989.0
988.0
988.0
988.0
985.0
986.0
988.0
991.0
995.0
995.0
999.0
1001.0
1001.0
1004.0
1003.0
1004.0
1004.0
1008.0
1011.0
1017.0
1022.0
1028.0
1030.0
1032.0
1030.0
1029.0
1024.0
1022.0
1022.0
1018.0
1015.0
1012.0
1009.0
1008.0
1006.0
1001.0
997.0
991.0
989.0
984.0
983.0
982.0
981.0
982.0
983.0
983.0
986.0
984.0
984.0
984.0
982.0
982.0
981.0
981.0
981.0
981.0
982.0
984.0
984.0
985.0
983.0
982.0
978.0
973.0
962.0
946.0
934.0
935.0
963.0
1009.0
1082.0
1168.0
1256.0
1331.0
1370.0
1359.0
1293.0
1196.0
1097.0
1028.0
993.0
981.0
984.0
996.0
1001.0
1003.0
998.0
989.0
982.0
977.0
976.0
974.0
974.0
974.0
973.0
971.0
969.0
968.0
967.0
966.0
964.0
965.0
964.0
963.0
965.0
965.0
966.0
967.0
969.0
968.0
967.0
964.0
964.0
962.0
963.0
963.0
965.0
968.0
970.0
969.0
970.0
969.0
969.0
965.0
965.0
963.0
963.0
966.0
969.0
970.0
970.0
970.0
968.0
971.0
969.0
969.0
969.0
966.0
967.0
969.0
971.0
969.0
970.0
972.0
973.0
973.0
973.0
972.0
972.0
972.0
971.0
973.0
975.0
977.0
980.0
981.0
983.0
981.0
981.0
982.0
980.0
983.0
982.0
983.0
987.0
988.0
991.0
989.0
992.0
990.0
992.0
989.0
989.0
991.0
991.0
993.0
995.0
997.0
1000.0
1001.0
1002.0
1002.0
1003.0
1004.0
1004.0
1004.0
1005.0
1006.0
1010.0
1011.0
1016.0
1016.0
1018.0
1021.0
1020.0
1019.0
1021.0
1023.0
1026.0
1030.0
1033.0
1036.0
1040.0
1040.0
1040.0
1043.0
1044.0
1047.0
1048.0
1052.0
1051.0
1054.0
1058.0
1061.0
1065.0
1066.0
1067.0
1068.0
1069.0
1067.0
1067.0
1067.0
1066.0
1069.0
1069.0
1072.0
1076.0
1075.0
1074.0
1072.0
1071.0
1069.0
1064.0
1064.0
1060.0
1060.0
1058.0
1057.0
1058.0
1058.0
1057.0
1054.0
1049.0
1046.0
1042.0
1041.0
1038.0
1036.0
1035.0
1034.0
1034.0
1030.0
1030.0
1026.0
1024.0
1021.0
1019.0
1016.0
1019.0
1016.0
1016.0
1016.0
1016.0
1015.0
1015.0
1014.0
1012.0
1010.0
1011.0
1008.0
1008.0
1008.0
1009.0
1009.0
1010.0
1010.0
1010.0
1008.0
1007.0
1003.0
1001.0
1001.0
1004.0
1004.0
1003.0
1003.0
1005.0
1003.0
1003.0
1001.0
1000.0
999.0
995.0
994.0
995.0
992.0
994.0
995.0
995.0
994.0
997.0
996.0
993.0
992.0
989.0
988.0
990.0
988.0
991.0
992.0
994.0
993.0
992.0
993.0
992.0
992.0
995.0
997.0
997.0
997.0
1000.0
998.0
1002.0
1005.0
1007.0
1011.0
1013.0
1018.0
1018.0
1019.0
1015.0
1017.0
1013.0
1011.0
1013.0
1011.0
1011.0
1004.0
1005.0
1000.0
996.0
992.0
988.0
986.0
983.0
982.0
980.0
979.0
979.0
976.0
975.0
975.0
971.0
970.0
971.0
971.0
972.0
973.0
974.0
975.0
973.0
973.0
971.0
972.0
969.0
969.0
969.0
968.0
969.0
971.0
973.0
973.0
973.0
974.0
973.0
971.0
969.0
969.0
968.0
971.0
971.0
971.0
973.0
973.0
974.0
974.0
971.0
971.0
970.0
968.0
967.0
967.0
970.0
970.0
973.0
974.0
973.0
974.0
972.0
971.0
970.0
968.0
968.0
969.0
970.0
971.0
971.0
972.0
970.0
970.0
968.0
967.0
967.0
968.0
968.0
969.0
970.0
971.0
971.0
971.0
970.0
970.0
969.0
969.0
970.0
969.0
969.0
966.0
970.0
969.0
976.0
975.0
977.0
977.0
974.0
973.0
973.0
973.0
973.0
973.0
976.0
974.0
975.0
976.0
974.0
975.0
976.0
975.0
973.0
971.0
971.0
975.0
973.0
977.0
977.0
979.0
977.0
981.0
981.0
979.0
978.0
979.0
978.0
978.0
979.0
981.0
982.0
982.0
982.0
981.0
979.0
979.0
981.0
977.0
980.0
978.0
981.0
982.0
983.0
984.0
986.0
985.0
984.0
984.0
982.0
982.0
983.0
983.0
985.0
985.0
987.0
984.0
986.0
986.0
985.0
985.0
983.0
981.0
981.0
981.0
984.0
986.0
984.0
985.0
983.0
986.0
984.0
984.0
982.0
982.0
984.0
984.0
985.0
984.0
985.0
985.0
985.0
983.0
985.0
987.0
983.0
985.0
983.0
982.0
985.0
987.0
989.0
987.0
989.0
991.0
988.0
987.0
986.0
982.0
982.0
986.0
985.0
987.0
989.0
990.0
989.0
991.0
987.0
984.0
986.0
986.0
986.0
986.0
988.0
989.0
990.0
991.0
990.0
989.0
988.0
987.0
986.0
987.0
988.0
988.0
988.0
989.0
992.0
992.0
991.0
991.0
989.0
989.0
987.0
988.0
987.0
989.0
989.0
991.0
992.0
992.0
991.0
992.0
993.0
992.0
990.0
989.0
989.0
990.0
991.0
991.0
991.0
994.0
993.0
994.0
991.0
988.0
988.0
985.0
985.0
989.0
990.0
994.0
996.0
996.0
996.0
996.0
992.0
991.0
989.0
987.0
987.0
989.0
991.0
992.0
995.0
993.0
996.0
994.0
993.0
993.0
992.0
990.0
992.0
993.0
994.0
997.0
996.0
999.0
996.0
995.0
994.0
993.0
994.0
994.0
997.0
995.0
997.0
999.0
1000.0
1003.0
1006.0
1007.0
1011.0
1012.0
1012.0
1011.0
1011.0
1012.0
1017.0
1017.0
1023.0
1028.0
1030.0
1038.0
1038.0
1039.0
1035.0
1032.0
1030.0
1025.0
1023.0
1023.0
1024.0
1023.0
1019.0
1015.0
1010.0
1007.0
999.0
995.0
993.0
992.0
993.0
995.0
998.0
997.0
997.0
995.0
991.0
989.0
987.0
989.0
989.0
992.0
992.0
991.0
993.0
995.0
995.0
995.0
993.0
990.0
990.0
990.0
990.0
987.0
986.0
982.0
977.0
971.0
962.0
951.0
948.0
958.0
987.0
1038.0
1106.0
1186.0
1263.0
1330.0
1375.0
1383.0
1338.0
1255.0
1157.0
1069.0
1016.0
990.0
988.0
995.0
1003.0
1011.0
1016.0
1010.0
1002.0
994.0
986.0
982.0
983.0
981.0
979.0
980.0
979.0
981.0
980.0
979.0
976.0
975.0
975.0
974.0
973.0
972.0
970.0
971.0
973.0
973.0
976.0
975.0
975.0
974.0
971.0
971.0
969.0
969.0
970.0
973.0
975.0
978.0
979.0
978.0
976.0
975.0
974.0
973.0
972.0
974.0
974.0
974.0
976.0
978.0
980.0
980.0
980.0
981.0
980.0
981.0
978.0
974.0
975.0
976.0
978.0
976.0
979.0
982.0
985.0
987.0
987.0
989.0
989.0
988.0
986.0
986.0
986.0
986.0
988.0
991.0
994.0
992.0
995.0
996.0
995.0
997.0
994.0
994.0
995.0
995.0
997.0
999.0
1003.0
1005.0
1005.0
1007.0
1007.0
1007.0
1009.0
1009.0
1011.0
1010.0
1013.0
1019.0
1020.0
1020.0
1019.0
1017.0
1011.0
1012.0
1013.0
1018.0
1021.0
1025.0
1030.0
1032.0
1032.0
1032.0
1034.0
1036.0
1039.0
1044.0
1045.0
1045.0
1048.0
1048.0
1047.0
1049.0
1049.0
1051.0
1053.0
1056.0
1059.0
1059.0
1063.0
1065.0
1068.0
1077.0
1078.0
1079.0
1080.0
1081.0
1082.0
1082.0
1081.0
1080.0
1081.0
1084.0
1086.0
1091.0
1096.0
1097.0
1098.0
1096.0
1093.0
1090.0
1088.0
1088.0
1089.0
1087.0
1088.0
1087.0
1087.0
1085.0
1083.0
1082.0
1080.0
1074.0
1068.0
1065.0
1060.0
1060.0
1061.0
1057.0
1060.0
1062.0
1058.0
1056.0
1051.0
1047.0
1038.0
1033.0
1030.0
1030.0
1031.0
1030.0
1031.0
1033.0
1028.0
1028.0
1024.0
1022.0
1021.0
1019.0
1020.0
1019.0
1019.0
1017.0
1017.0
1015.0
1012.0
1014.0
1014.0
1015.0
1014.0
1010.0
1012.0
1010.0
1013.0
1013.0
1014.0
1016.0
1015.0
1016.0
1011.0
1010.0
1006.0
1005.0
1007.0
1008.0
1008.0
1008.0
1011.0
1010.0
1011.0
1013.0
1011.0
1010.0
1009.0
1004.0
1004.0
1004.0
1000.0
1004.0
1009.0
1011.0
1013.0
1015.0
1015.0
1016.0
1015.0
1017.0
1015.0
1018.0
1022.0
1025.0
1028.0
1034.0
1034.0
1035.0
1032.0
1028.0
1024.0
1023.0
1023.0
1022.0
1022.0
1021.0
1017.0
1015.0
1011.0
1006.0
999.0
994.0
991.0
987.0
986.0
986.0
986.0
986.0
988.0
990.0
988.0
988.0
985.0
983.0
984.0
983.0
984.0
983.0
983.0
986.0
986.0
985.0
985.0
983.0
982.0
980.0
981.0
980.0
980.0
979.0
980.0
981.0
981.0
980.0
980.0
980.0
981.0
981.0
978.0
979.0
980.0
980.0
981.0
981.0
980.0
983.0
981.0
983.0
982.0
979.0
979.0
978.0
980.0
980.0
980.0
982.0
981.0
982.0
979.0
979.0
979.0
977.0
976.0
972.0
975.0
975.0
976.0
977.0
981.0
979.0
980.0
980.0
980.0
978.0
978.0
976.0
975.0
978.0
976.0
980.0
981.0
981.0
981.0
981.0
979.0
979.0
976.0
974.0
976.0
978.0
978.0
979.0
980.0
982.0
981.0
979.0
979.0
977.0
976.0
978.0
977.0
977.0
978.0
980.0
978.0
980.0
979.0
979.0
978.0
978.0
976.0
978.0
977.0
978.0
978.0
979.0
981.0
979.0
980.0
981.0
979.0
980.0
980.0
976.0
976.0
979.0
979.0
981.0
980.0
981.0
981.0
982.0
981.0
978.0
979.0
977.0
977.0
977.0
978.0
979.0
980.0
981.0
983.0
982.0
982.0
983.0
981.0
981.0
981.0
981.0
983.0
983.0
984.0
985.0
986.0
984.0
984.0
982.0
978.0
980.0
979.0
979.0
982.0
983.0
984.0
984.0
984.0
986.0
985.0
981.0
980.0
980.0
983.0
983.0
983.0
984.0
986.0
988.0
986.0
986.0
984.0
981.0
981.0
983.0
983.0
982.0
983.0
980.0
984.0
985.0
985.0
984.0
984.0
980.0
980.0
982.0
982.0
982.0
984.0
987.0
986.0
988.0
987.0
987.0
986.0
986.0
983.0
984.0
983.0
983.0
985.0
986.0
985.0
988.0
987.0
988.0
985.0
984.0
984.0
984.0
985.0
983.0
987.0
986.0
991.0
991.0
991.0
989.0
989.0
989.0
988.0
986.0
986.0
988.0
990.0
990.0
993.0
993.0
991.0
991.0
989.0
990.0
989.0
986.0
987.0
988.0
989.0
990.0
990.0
991.0
990.0
992.0
989.0
988.0
987.0
986.0
985.0
985.0
986.0
987.0
990.0
992.0
991.0
992.0
989.0
988.0
986.0
986.0
988.0
985.0
987.0
989.0
990.0
990.0
991.0
992.0
990.0
989.0
988.0
986.0
987.0
988.0
988.0
990.0
993.0
993.0
996.0
993.0
993.0
996.0
997.0
996.0
999.0
1000.0
1002.0
1005.0
1010.0
1012.0
1014.0
1020.0
1023.0
1027.0
1028.0
1026.0
1024.0
1023.0
1021.0
1020.0
1020.0
1017.0
1014.0
1009.0
1007.0
1004.0
999.0
995.0
991.0
990.0
988.0
986.0
986.0
985.0
985.0
985.0
985.0
984.0
981.0
980.0
981.0
979.0
983.0
981.0
986.0
986.0
984.0
984.0
983.0
983.0
981.0
980.0
979.0
981.0
983.0
981.0
975.0
965.0
949.0
937.0
938.0
957.0
1000.0
1066.0
1150.0
1240.0
1321.0
1370.0
1373.0
1321.0
1229.0
1131.0
1054.0
1007.0
989.0
990.0
996.0
1007.0
1011.0
1008.0
998.0
990.0
983.0
979.0
976.0
975.0
974.0
972.0
970.0
966.0
967.0
