# Simple Text Format
# Sampling Rate (Hz):= 360.00
# Resolution:= 12
# Labels:= ECG
870.0
910.0
962.0
1030.0
1098.0
1168.0
1222.0
1256.0
1267.0
1256.0
1224.0
1161.0
1073.0
971.0
882.0
823.0
809.0
820.0
847.0
868.0
877.0
871.0
865.0
855.0
843.0
837.0
832.0
833.0
833.0
835.0
837.0
836.0
833.0
830.0
830.0
831.0
831.0
830.0
831.0
831.0
829.0
830.0
822.0
824.0
823.0
822.0
822.0
824.0
826.0
826.0
831.0
831.0
832.0
829.0
825.0
822.0
819.0
822.0
819.0
820.0
824.0
826.0
830.0
830.0
832.0
829.0
828.0
827.0
828.0
826.0
828.0
829.0
833.0
834.0
832.0
834.0
833.0
834.0
835.0
832.0
836.0
836.0
839.0
839.0
843.0
847.0
850.0
853.0
852.0
853.0
855.0
855.0
857.0
862.0
866.0
870.0
873.0
876.0
880.0
884.0
884.0
883.0
890.0
891.0
889.0
893.0
894.0
899.0
903.0
905.0
910.0
915.0
916.0
919.0
915.0
921.0
922.0
922.0
924.0
927.0
928.0
933.0
935.0
930.0
931.0
929.0
924.0
919.0
914.0
912.0
910.0
906.0
903.0
899.0
896.0
892.0
888.0
885.0
878.0
872.0
864.0
863.0
858.0
859.0
858.0
857.0
856.0
855.0
855.0
853.0
850.0
847.0
844.0
844.0
844.0
846.0
848.0
849.0
853.0
850.0
853.0
851.0
848.0
846.0
844.0
843.0
843.0
847.0
849.0
849.0
848.0
851.0
854.0
854.0
851.0
852.0
851.0
849.0
852.0
851.0
854.0
858.0
855.0
858.0
859.0
858.0
855.0
853.0
853.0
853.0
851.0
852.0
852.0
850.0
850.0
855.0
851.0
854.0
851.0
848.0
848.0
846.0
846.0
846.0
846.0
846.0
845.0
843.0
847.0
843.0
841.0
842.0
839.0
837.0
838.0
841.0
840.0
840.0
841.0
843.0
842.0
842.0
840.0
837.0
836.0
835.0
835.0
833.0
836.0
839.0
838.0
838.0
838.0
831.0
834.0
831.0
830.0
831.0
830.0
832.0
835.0
836.0
835.0
835.0
837.0
835.0
834.0
836.0
839.0
845.0
851.0
851.0
859.0
861.0
863.0
866.0
870.0
873.0
879.0
887.0
892.0
896.0
898.0
897.0
898.0
898.0
895.0
899.0
895.0
891.0
887.0
880.0
867.0
857.0
848.0
838.0
832.0
828.0
827.0
828.0
827.0
825.0
823.0
824.0
822.0
819.0
821.0
822.0
824.0
824.0
827.0
828.0
827.0
824.0
822.0
820.0
819.0
818.0
819.0
820.0
822.0
826.0
827.0
825.0
821.0
816.0
810.0
808.0
822.0
840.0
874.0
922.0
988.0
1063.0
1139.0
1201.0
1241.0
1262.0
1257.0
1224.0
1158.0
1061.0
951.0
856.0
801.0
787.0
807.0
837.0
865.0
873.0
872.0
861.0
845.0
834.0
827.0
825.0
826.0
827.0
828.0
831.0
830.0
827.0
824.0
823.0
819.0
817.0
818.0
819.0
821.0
823.0
825.0
827.0
825.0
822.0
823.0
818.0
819.0
817.0
818.0
820.0
823.0
825.0
827.0
824.0
826.0
824.0
823.0
822.0
821.0
821.0
820.0
819.0
820.0
823.0
829.0
827.0
829.0
828.0
827.0
829.0
828.0
824.0
826.0
826.0
831.0
835.0
839.0
842.0
842.0
845.0
841.0
842.0
843.0
842.0
845.0
851.0
855.0
860.0
861.0
864.0
870.0
871.0
870.0
873.0
875.0
881.0
883.0
885.0
892.0
898.0
903.0
906.0
911.0
910.0
912.0
913.0
916.0
915.0
916.0
920.0
922.0
929.0
933.0
937.0
936.0
936.0
936.0
933.0
932.0
930.0
925.0
924.0
920.0
918.0
917.0
911.0
906.0
897.0
891.0
884.0
878.0
873.0
859.0
857.0
857.0
855.0
849.0
849.0
843.0
838.0
837.0
832.0
831.0
827.0
823.0
823.0
827.0
829.0
828.0
829.0
829.0
825.0
823.0
824.0
821.0
819.0
818.0
820.0
820.0
824.0
826.0
830.0
828.0
826.0
823.0
826.0
824.0
823.0
827.0
827.0
828.0
832.0
834.0
834.0
833.0
837.0
834.0
834.0
832.0
835.0
834.0
836.0
836.0
841.0
842.0
843.0
844.0
841.0
841.0
838.0
838.0
837.0
836.0
834.0
840.0
839.0
841.0
840.0
839.0
836.0
833.0
832.0
826.0
828.0
830.0
832.0
832.0
830.0
832.0
835.0
831.0
831.0
827.0
828.0
825.0
827.0
824.0
823.0
827.0
829.0
830.0
831.0
827.0
829.0
826.0
820.0
822.0
822.0
821.0
823.0
822.0
819.0
823.0
826.0
827.0
824.0
822.0
819.0
818.0
818.0
818.0
818.0
821.0
820.0
823.0
826.0
826.0
827.0
825.0
824.0
820.0
821.0
822.0
825.0
828.0
829.0
828.0
829.0
831.0
831.0
831.0
831.0
832.0
839.0
838.0
842.0
847.0
852.0
856.0
855.0
862.0
864.0
867.0
873.0
878.0
889.0
892.0
891.0
893.0
891.0
892.0
893.0
893.0
890.0
888.0
882.0
876.0
864.0
856.0
842.0
835.0
828.0
826.0
827.0
822.0
820.0
820.0
819.0
818.0
819.0
818.0
817.0
817.0
820.0
820.0
820.0
817.0
819.0
817.0
813.0
812.0
809.0
810.0
810.0
815.0
818.0
822.0
823.0
823.0
823.0
822.0
815.0
809.0
804.0
805.0
808.0
832.0
863.0
906.0
959.0
1025.0
1100.0
1163.0
1214.0
1241.0
1254.0
1242.0
1212.0
1161.0
1081.0
981.0
891.0
823.0
796.0
803.0
826.0
847.0
864.0
866.0
858.0
846.0
839.0
832.0
827.0
826.0
826.0
825.0
821.0
819.0
819.0
814.0
818.0
817.0
821.0
822.0
823.0
821.0
819.0
820.0
817.0
814.0
814.0
814.0
816.0
819.0
822.0
821.0
823.0
821.0
824.0
819.0
819.0
816.0
818.0
815.0
817.0
816.0
822.0
822.0
824.0
823.0
821.0
820.0
820.0
819.0
820.0
820.0
823.0
825.0
826.0
830.0
832.0
834.0
834.0
832.0
832.0
833.0
834.0
834.0
837.0
839.0
843.0
844.0
848.0
851.0
851.0
852.0
853.0
853.0
857.0
858.0
861.0
863.0
867.0
877.0
883.0
885.0
887.0
890.0
888.0
894.0
898.0
905.0
908.0
913.0
917.0
922.0
926.0
927.0
933.0
935.0
936.0
939.0
942.0
940.0
943.0
947.0
952.0
950.0
951.0
948.0
944.0
939.0
932.0
926.0
922.0
916.0
910.0
901.0
900.0
892.0
891.0
885.0
878.0
873.0
865.0
860.0
856.0
849.0
849.0
848.0
847.0
847.0
846.0
843.0
842.0
838.0
836.0
835.0
834.0
832.0
832.0
836.0
834.0
834.0
838.0
839.0
835.0
834.0
833.0
834.0
835.0
834.0
835.0
838.0
840.0
844.0
847.0
845.0
845.0
844.0
844.0
839.0
842.0
839.0
843.0
845.0
846.0
849.0
850.0
850.0
848.0
849.0
848.0
843.0
847.0
845.0
844.0
848.0
847.0
850.0
853.0
850.0
846.0
847.0
845.0
846.0
844.0
843.0
843.0
845.0
848.0
847.0
846.0
845.0
843.0
840.0
840.0
837.0
839.0
838.0
839.0
839.0
843.0
842.0
846.0
843.0
840.0
838.0
839.0
837.0
838.0
835.0
833.0
838.0
838.0
840.0
842.0
839.0
837.0
836.0
831.0
834.0
834.0
833.0
833.0
835.0
836.0
837.0
838.0
838.0
838.0
837.0
834.0
834.0
834.0
834.0
833.0
833.0
836.0
837.0
840.0
837.0
835.0
837.0
837.0
834.0
837.0
838.0
839.0
842.0
844.0
846.0
856.0
855.0
853.0
859.0
862.0
862.0
863.0
869.0
878.0
883.0
893.0
902.0
907.0
903.0
905.0
902.0
900.0
894.0
896.0
893.0
891.0
884.0
875.0
864.0
856.0
845.0
838.0
831.0
829.0
825.0
828.0
828.0
827.0
829.0
831.0
829.0
832.0
831.0
832.0
830.0
827.0
825.0
823.0
821.0
819.0
820.0
823.0
826.0
826.0
827.0
832.0
828.0
827.0
825.0
822.0
820.0
821.0
819.0
817.0
811.0
817.0
821.0
840.0
869.0
908.0
968.0
1042.0
1118.0
1188.0
1236.0
1262.0
1263.0
1238.0
1180.0
1091.0
985.0
877.0
811.0
784.0
794.0
823.0
854.0
868.0
873.0
867.0
854.0
844.0
834.0
828.0
824.0
821.0
821.0
823.0
824.0
826.0
822.0
824.0
821.0
822.0
822.0
820.0
819.0
820.0
817.0
818.0
819.0
822.0
821.0
819.0
823.0
822.0
821.0
818.0
819.0
817.0
817.0
817.0
817.0
820.0
823.0
822.0
821.0
821.0
821.0
818.0
820.0
820.0
818.0
820.0
822.0
826.0
827.0
828.0
831.0
827.0
830.0
829.0
830.0
831.0
831.0
834.0
834.0
838.0
840.0
839.0
845.0
849.0
849.0
846.0
850.0
853.0
851.0
856.0
862.0
868.0
869.0
874.0
880.0
884.0
885.0
889.0
892.0
895.0
896.0
899.0
905.0
910.0
914.0
920.0
926.0
926.0
930.0
926.0
930.0
929.0
933.0
936.0
936.0
940.0
940.0
940.0
938.0
933.0
929.0
922.0
916.0
912.0
909.0
902.0
894.0
895.0
887.0
885.0
881.0
875.0
867.0
862.0
857.0
852.0
847.0
845.0
841.0
839.0
837.0
839.0
836.0
832.0
827.0
827.0
821.0
818.0
816.0
817.0
816.0
815.0
811.0
813.0
819.0
819.0
817.0
815.0
814.0
812.0
813.0
816.0
816.0
817.0
822.0
823.0
822.0
824.0
821.0
817.0
818.0
818.0
819.0
821.0
823.0
826.0
828.0
832.0
830.0
831.0
828.0
830.0
828.0
826.0
827.0
824.0
825.0
829.0
831.0
833.0
835.0
832.0
831.0
829.0
829.0
827.0
824.0
825.0
826.0
825.0
823.0
827.0
829.0
827.0
826.0
823.0
820.0
821.0
818.0
819.0
821.0
823.0
821.0
824.0
824.0
826.0
821.0
818.0
817.0
816.0
816.0
815.0
815.0
817.0
818.0
818.0
821.0
818.0
818.0
816.0
813.0
813.0
810.0
811.0
811.0
812.0
815.0
817.0
815.0
815.0
817.0
814.0
813.0
810.0
811.0
813.0
815.0
817.0
819.0
819.0
824.0
821.0
824.0
827.0
829.0
833.0
832.0
836.0
841.0
846.0
851.0
855.0
861.0
866.0
873.0
877.0
880.0
876.0
874.0
874.0
873.0
877.0
878.0
880.0
875.0
868.0
858.0
846.0
834.0
823.0
816.0
810.0
807.0
808.0
807.0
809.0
811.0
811.0
809.0
809.0
806.0
804.0
799.0
801.0
803.0
804.0
803.0
805.0
805.0
805.0
805.0
802.0
803.0
799.0
799.0
804.0
805.0
806.0
807.0
811.0
808.0
803.0
803.0
797.0
788.0
786.0
793.0
811.0
836.0
876.0
929.0
990.0
1059.0
1131.0
1187.0
1225.0
1245.0
1241.0
1215.0
1165.0
1088.0
984.0
883.0
806.0
776.0
780.0
807.0
832.0
849.0
852.0
844.0
833.0
821.0
814.0
810.0
811.0
811.0
809.0
811.0
810.0
810.0
804.0
800.0
802.0
801.0
802.0
804.0
808.0
808.0
808.0
809.0
806.0
805.0
805.0
803.0
804.0
805.0
807.0
811.0
809.0
807.0
807.0
808.0
804.0
807.0
807.0
804.0
808.0
807.0
811.0
811.0
815.0
813.0
815.0
819.0
814.0
814.0
815.0
816.0
816.0
816.0
821.0
824.0
828.0
828.0
831.0
829.0
829.0
827.0
831.0
833.0
836.0
839.0
843.0
845.0
851.0
854.0
858.0
861.0
861.0
863.0
865.0
867.0
872.0
874.0
882.0
888.0
894.0
898.0
900.0
901.0
905.0
907.0
911.0
910.0
913.0
918.0
925.0
929.0
933.0
935.0
932.0
933.0
934.0
935.0
931.0
928.0
928.0
924.0
924.0
921.0
921.0
912.0
905.0
901.0
896.0
886.0
880.0
872.0
868.0
864.0
863.0
858.0
856.0
850.0
849.0
842.0
837.0
830.0
828.0
826.0
824.0
825.0
822.0
820.0
822.0
819.0
818.0
817.0
816.0
816.0
810.0
811.0
811.0
813.0
816.0
814.0
817.0
819.0
816.0
818.0
815.0
811.0
813.0
810.0
815.0
817.0
823.0
824.0
825.0
827.0
826.0
825.0
825.0
824.0
824.0
822.0
822.0
820.0
827.0
828.0
831.0
831.0
832.0
842.0
848.0
867.0
887.0
911.0
941.0
969.0
999.0
1033.0
1071.0
1112.0
1153.0
1198.0
1241.0
1281.0
1315.0
1342.0
1370.0
1385.0
1399.0
1403.0
1400.0
1395.0
1381.0
1367.0
1348.0
1330.0
1318.0
1313.0
1319.0
1324.0
1331.0
1330.0
1322.0
1304.0
1274.0
1241.0
1202.0
1155.0
1103.0
1036.0
963.0
889.0
834.0
803.0
793.0
795.0
798.0
798.0
796.0
787.0
776.0
768.0
757.0
752.0
750.0
748.0
746.0
742.0
740.0
738.0
734.0
730.0
726.0
725.0
721.0
718.0
717.0
719.0
718.0
713.0
711.0
707.0
706.0
703.0
699.0
697.0
697.0
695.0
693.0
690.0
689.0
685.0
682.0
676.0
674.0
670.0
667.0
660.0
656.0
656.0
658.0
657.0
658.0
655.0
650.0
651.0
648.0
645.0
641.0
635.0
636.0
634.0
632.0
631.0
633.0
631.0
635.0
634.0
634.0
635.0
628.0
624.0
623.0
618.0
617.0
610.0
613.0
610.0
609.0
600.0
596.0
587.0
581.0
575.0
569.0
567.0
562.0
564.0
572.0
578.0
585.0
591.0
597.0
605.0
608.0
617.0
626.0
638.0
649.0
661.0
675.0
685.0
698.0
706.0
715.0
721.0
726.0
732.0
738.0
749.0
756.0
758.0
763.0
768.0
767.0
771.0
765.0
764.0
765.0
765.0
766.0
768.0
769.0
773.0
771.0
772.0
771.0
770.0
771.0
770.0
768.0
765.0
768.0
769.0
772.0
775.0
780.0
780.0
780.0
778.0
778.0
780.0
778.0
775.0
775.0
778.0
780.0
778.0
785.0
787.0
782.0
785.0
782.0
782.0
781.0
782.0
783.0
785.0
787.0
789.0
791.0
790.0
789.0
791.0
789.0
789.0
786.0
786.0
783.0
786.0
790.0
789.0
794.0
795.0
794.0
795.0
789.0
787.0
790.0
787.0
787.0
787.0
791.0
791.0
794.0
794.0
795.0
795.0
793.0
791.0
790.0
790.0
792.0
789.0
790.0
788.0
793.0
794.0
796.0
797.0
797.0
794.0
792.0
793.0
793.0
794.0
797.0
795.0
797.0
798.0
798.0
794.0
796.0
794.0
795.0
794.0
795.0
795.0
797.0
800.0
803.0
803.0
802.0
802.0
801.0
800.0
795.0
797.0
798.0
798.0
801.0
801.0
804.0
804.0
806.0
806.0
803.0
803.0
801.0
800.0
800.0
801.0
804.0
802.0
804.0
806.0
810.0
807.0
806.0
806.0
805.0
802.0
804.0
805.0
806.0
807.0
808.0
812.0
810.0
810.0
809.0
807.0
807.0
805.0
805.0
807.0
805.0
810.0
809.0
810.0
810.0
810.0
810.0
810.0
808.0
807.0
807.0
810.0
810.0
811.0
815.0
813.0
814.0
814.0
809.0
810.0
809.0
810.0
811.0
810.0
814.0
816.0
817.0
817.0
814.0
812.0
811.0
809.0
810.0
807.0
811.0
811.0
813.0
816.0
818.0
818.0
819.0
819.0
814.0
815.0
815.0
811.0
813.0
813.0
815.0
816.0
818.0
819.0
819.0
818.0
816.0
812.0
810.0
808.0
813.0
816.0
818.0
821.0
823.0
822.0
822.0
821.0
821.0
818.0
818.0
819.0
814.0
817.0
815.0
820.0
821.0
820.0
817.0
821.0
817.0
814.0
813.0
814.0
816.0
819.0
821.0
820.0
820.0
820.0
819.0
818.0
819.0
818.0
816.0
815.0
816.0
821.0
821.0
822.0
823.0
825.0
823.0
821.0
817.0
818.0
817.0
816.0
817.0
817.0
821.0
820.0
824.0
827.0
826.0
826.0
823.0
823.0
821.0
819.0
818.0
821.0
820.0
825.0
824.0
826.0
826.0
826.0
824.0
824.0
820.0
820.0
820.0
823.0
825.0
827.0
828.0
828.0
828.0
826.0
827.0
825.0
824.0
825.0
823.0
823.0
824.0
828.0
830.0
830.0
830.0
835.0
834.0
836.0
838.0
840.0
843.0
846.0
850.0
852.0
860.0
864.0
866.0
872.0
876.0
882.0
888.0
894.0
896.0
896.0
894.0
890.0
890.0
895.0
892.0
889.0
885.0
875.0
863.0
856.0
843.0
836.0
834.0
827.0
824.0
830.0
827.0
828.0
828.0
826.0
820.0
820.0
822.0
821.0
819.0
825.0
826.0
827.0
828.0
823.0
827.0
822.0
823.0
822.0
820.0
821.0
820.0
819.0
808.0
814.0
819.0
836.0
864.0
903.0
957.0
1024.0
1098.0
1168.0
1219.0
1246.0
1258.0
1248.0
1211.0
1147.0
1057.0
953.0
861.0
806.0
787.0
810.0
837.0
863.0
878.0
880.0
869.0
851.0
839.0
829.0
820.0
820.0
823.0
823.0
823.0
825.0
826.0
827.0
823.0
822.0
822.0
820.0
816.0
816.0
815.0
815.0
820.0
822.0
819.0
824.0
822.0
819.0
816.0
812.0
816.0
815.0
816.0
816.0
819.0
817.0
814.0
816.0
816.0
816.0
814.0
813.0
811.0
810.0
814.0
816.0
817.0
820.0
821.0
823.0
821.0
824.0
822.0
821.0
821.0
821.0
822.0
824.0
824.0
823.0
832.0
833.0
837.0
838.0
836.0
837.0
834.0
837.0
837.0
841.0
845.0
849.0
851.0
857.0
855.0
863.0
864.0
865.0
864.0
868.0
870.0
876.0
876.0
885.0
891.0
893.0
897.0
901.0
903.0
904.0
908.0
908.0
910.0
913.0
916.0
922.0
929.0
932.0
930.0
935.0
933.0
930.0
929.0
930.0
929.0
930.0
928.0
927.0
921.0
914.0
910.0
909.0
904.0
895.0
888.0
883.0
879.0
871.0
870.0
868.0
868.0
864.0
859.0
858.0
853.0
851.0
848.0
846.0
840.0
840.0
844.0
847.0
849.0
849.0
844.0
847.0
840.0
840.0
838.0
839.0
840.0
843.0
844.0
847.0
849.0
850.0
849.0
846.0
843.0
841.0
841.0
839.0
842.0
843.0
846.0
847.0
848.0
853.0
853.0
852.0
851.0
850.0
850.0
848.0
849.0
850.0
846.0
848.0
848.0
853.0
854.0
852.0
851.0
848.0
846.0
843.0
841.0
844.0
850.0
852.0
850.0
850.0
849.0
846.0
844.0
840.0
842.0
841.0
838.0
841.0
843.0
842.0
839.0
842.0
840.0
839.0
839.0
836.0
834.0
832.0
833.0
834.0
831.0
836.0
838.0
839.0
840.0
837.0
837.0
837.0
833.0
835.0
832.0
832.0
830.0
828.0
831.0
837.0
836.0
836.0
833.0
833.0
828.0
826.0
827.0
832.0
832.0
834.0
836.0
836.0
836.0
835.0
834.0
835.0
833.0
828.0
831.0
833.0
838.0
845.0
850.0
854.0
856.0
859.0
859.0
860.0
862.0
865.0
872.0
878.0
889.0
896.0
902.0
901.0
898.0
896.0
892.0
890.0
890.0
889.0
888.0
883.0
880.0
873.0
866.0
855.0
845.0
837.0
830.0
828.0
829.0
825.0
826.0
825.0
827.0
828.0
826.0
827.0
823.0
822.0
822.0
820.0
819.0
819.0
815.0
816.0
819.0
821.0
825.0
828.0
828.0
829.0
824.0
825.0
825.0
826.0
822.0
819.0
822.0
821.0
818.0
815.0
813.0
820.0
843.0
871.0
915.0
970.0
1034.0
1106.0
1176.0
1223.0
1255.0
1264.0
1250.0
1211.0
1148.0
1063.0
961.0
870.0
807.0
787.0
803.0
832.0
862.0
880.0
880.0
870.0
859.0
845.0
834.0
828.0
827.0
829.0
830.0
834.0
833.0
835.0
832.0
830.0
823.0
829.0
826.0
824.0
825.0
825.0
828.0
825.0
829.0
828.0
826.0
825.0
826.0
825.0
824.0
823.0
822.0
823.0
825.0
826.0
829.0
834.0
832.0
830.0
829.0
829.0
827.0
828.0
828.0
825.0
831.0
833.0
834.0
835.0
839.0
835.0
835.0
834.0
835.0
833.0
833.0
836.0
840.0
843.0
846.0
845.0
845.0
845.0
848.0
847.0
850.0
852.0
850.0
853.0
857.0
859.0
864.0
864.0
868.0
870.0
873.0
872.0
872.0
878.0
879.0
883.0
887.0
894.0
899.0
903.0
905.0
907.0
911.0
913.0
913.0
915.0
916.0
923.0
925.0
930.0
938.0
939.0
938.0
941.0
944.0
944.0
943.0
944.0
944.0
939.0
941.0
939.0
936.0
935.0
929.0
920.0
915.0
909.0
903.0
898.0
893.0
888.0
884.0
881.0
878.0
874.0
867.0
860.0
859.0
852.0
850.0
847.0
845.0
841.0
843.0
843.0
845.0
845.0
841.0
836.0
836.0
835.0
833.0
833.0
830.0
833.0
833.0
833.0
838.0
837.0
835.0
837.0
835.0
832.0
832.0
832.0
830.0
830.0
839.0
843.0
844.0
848.0
849.0
850.0
849.0
845.0
843.0
843.0
843.0
841.0
845.0
850.0
854.0
868.0
884.0
910.0
938.0
968.0
998.0
1033.0
1072.0
1116.0
1161.0
1209.0
1261.0
1307.0
1345.0
1375.0
1396.0
1409.0
1413.0
1408.0
1404.0
1394.0
1382.0
1365.0
1351.0
1344.0
1343.0
1343.0
1348.0
1347.0
1344.0
1333.0
1309.0
1278.0
1249.0
1216.0
1173.0
1123.0
1055.0
979.0
905.0
848.0
814.0
803.0
806.0
806.0
814.0
809.0
804.0
799.0
791.0
782.0
771.0
764.0
762.0
755.0
753.0
750.0
753.0
752.0
752.0
752.0
750.0
747.0
743.0
736.0
736.0
733.0
731.0
729.0
727.0
727.0
724.0
727.0
719.0
719.0
713.0
709.0
705.0
701.0
696.0
694.0
691.0
689.0
683.0
682.0
680.0
677.0
671.0
664.0
655.0
651.0
650.0
646.0
645.0
649.0
647.0
649.0
645.0
641.0
637.0
631.0
630.0
629.0
624.0
627.0
633.0
637.0
639.0
641.0
640.0
632.0
628.0
625.0
624.0
623.0
621.0
619.0
616.0
616.0
612.0
614.0
611.0
608.0
611.0
613.0
617.0
624.0
630.0
641.0
653.0
666.0
676.0
690.0
697.0
706.0
718.0
723.0
733.0
743.0
752.0
761.0
768.0
774.0
776.0
785.0
789.0
793.0
796.0
794.0
791.0
792.0
790.0
792.0
799.0
800.0
801.0
801.0
805.0
803.0
803.0
803.0
798.0
800.0
800.0
803.0
805.0
806.0
804.0
807.0
807.0
807.0
806.0
805.0
805.0
802.0
802.0
808.0
811.0
811.0
813.0
817.0
817.0
818.0
816.0
815.0
814.0
813.0
815.0
815.0
819.0
818.0
820.0
824.0
823.0
826.0
824.0
824.0
822.0
822.0
819.0
823.0
821.0
821.0
826.0
827.0
830.0
830.0
826.0
825.0
827.0
822.0
821.0
819.0
823.0
828.0
826.0
829.0
828.0
830.0
831.0
831.0
829.0
829.0
825.0
827.0
826.0
831.0
832.0
836.0
836.0
835.0
838.0
835.0
834.0
832.0
831.0
831.0
834.0
835.0
834.0
839.0
839.0
837.0
837.0
836.0
836.0
835.0
832.0
838.0
838.0
839.0
842.0
836.0
840.0
840.0
841.0
840.0
842.0
838.0
839.0
838.0
841.0
840.0
845.0
843.0
843.0
843.0
842.0
842.0
841.0
844.0
843.0
840.0
843.0
845.0
847.0
848.0
848.0
847.0
847.0
844.0
844.0
844.0
839.0
838.0
840.0
847.0
849.0
850.0
851.0
850.0
850.0
846.0
846.0
847.0
843.0
847.0
846.0
849.0
853.0
853.0
853.0
854.0
852.0
851.0
850.0
851.0
850.0
850.0
852.0
854.0
853.0
854.0
854.0
857.0
851.0
850.0
847.0
849.0
845.0
848.0
848.0
853.0
854.0
853.0
854.0
855.0
853.0
851.0
848.0
848.0
848.0
847.0
850.0
853.0
855.0
856.0
855.0
856.0
851.0
853.0
849.0
848.0
849.0
846.0
854.0
854.0
854.0
856.0
858.0
856.0
854.0
855.0
852.0
851.0
847.0
849.0
851.0
853.0
855.0
853.0
856.0
856.0
852.0
854.0
853.0
853.0
851.0
853.0
854.0
856.0
856.0
860.0
858.0
860.0
856.0
854.0
854.0
854.0
853.0
852.0
850.0
855.0
853.0
856.0
858.0
858.0
857.0
855.0
854.0
855.0
857.0
853.0
853.0
859.0
860.0
859.0
860.0
861.0
861.0
858.0
857.0
855.0
854.0
855.0
854.0
854.0
857.0
860.0
863.0
864.0
858.0
859.0
855.0
851.0
854.0
858.0
857.0
861.0
860.0
857.0
857.0
856.0
857.0
856.0
854.0
854.0
854.0
856.0
859.0
858.0
858.0
863.0
864.0
864.0
864.0
860.0
859.0
855.0
855.0
855.0
859.0
861.0
863.0
867.0
870.0
870.0
874.0
875.0
877.0
879.0
884.0
885.0
887.0
891.0
898.0
906.0
914.0
918.0
923.0
929.0
927.0
925.0
921.0
916.0
923.0
921.0
922.0
921.0
916.0
906.0
895.0
883.0
869.0
861.0
854.0
853.0
856.0
857.0
858.0
859.0
856.0
854.0
853.0
851.0
852.0
851.0
851.0
852.0
852.0
855.0
858.0
857.0
857.0
855.0
853.0
853.0
853.0
846.0
839.0
835.0
832.0
835.0
845.0
864.0
892.0
933.0
985.0
1048.0
1119.0
1185.0
1237.0
1270.0
1279.0
1273.0
1244.0
1190.0
1109.0
1005.0
907.0
841.0
817.0
827.0
852.0
879.0
896.0
896.0
891.0
874.0
866.0
855.0
845.0
846.0
846.0
845.0
847.0
851.0
850.0
849.0
848.0
850.0
850.0
843.0
848.0
845.0
842.0
844.0
842.0
835.0
837.0
843.0
844.0
843.0
842.0
843.0
842.0
837.0
836.0
836.0
837.0
834.0
836.0
836.0
836.0
839.0
837.0
839.0
839.0
837.0
835.0
835.0
837.0
839.0
841.0
840.0
843.0
845.0
846.0
845.0
848.0
847.0
848.0
845.0
846.0
849.0
849.0
855.0
858.0
861.0
859.0
860.0
865.0
864.0
866.0
868.0
868.0
872.0
874.0
877.0
877.0
883.0
886.0
886.0
889.0
892.0
894.0
894.0
895.0
900.0
900.0
906.0
907.0
912.0
916.0
921.0
920.0
919.0
920.0
921.0
924.0
926.0
929.0
935.0
937.0
939.0
939.0
942.0
941.0
941.0
942.0
940.0
939.0
940.0
939.0
939.0
939.0
937.0
934.0
926.0
925.0
918.0
912.0
910.0
906.0
902.0
898.0
896.0
893.0
892.0
887.0
882.0
879.0
874.0
870.0
869.0
862.0
864.0
863.0
866.0
865.0
868.0
867.0
867.0
864.0
864.0
862.0
862.0
862.0
865.0
864.0
868.0
868.0
866.0
868.0
868.0
866.0
865.0
866.0
865.0
864.0
862.0
863.0
868.0
867.0
870.0
872.0
872.0
869.0
868.0
868.0
866.0
864.0
866.0
864.0
868.0
868.0
869.0
872.0
869.0
868.0
866.0
864.0
863.0
863.0
861.0
862.0
863.0
863.0
865.0
865.0
867.0
861.0
861.0
858.0
858.0
857.0
857.0
860.0
860.0
860.0
858.0
859.0
858.0
857.0
854.0
854.0
854.0
850.0
852.0
853.0
852.0
853.0
858.0
856.0
855.0
853.0
849.0
851.0
849.0
845.0
842.0
848.0
848.0
852.0
849.0
850.0
845.0
844.0
843.0
843.0
845.0
844.0
842.0
843.0
845.0
846.0
846.0
846.0
847.0
847.0
846.0
845.0
843.0
843.0
843.0
842.0
844.0
849.0
848.0
848.0
848.0
848.0
845.0
845.0
847.0
844.0
843.0
842.0
843.0
846.0
849.0
850.0
847.0
847.0
842.0
842.0
837.0
839.0
842.0
844.0
849.0
849.0
850.0
852.0
855.0
856.0
856.0
856.0
859.0
860.0
866.0
871.0
874.0
880.0
885.0
892.0
896.0
902.0
908.0
913.0
915.0
910.0
907.0
907.0
906.0
909.0
904.0
905.0
901.0
896.0
886.0
872.0
862.0
855.0
846.0
842.0
843.0
843.0
843.0
845.0
842.0
841.0
836.0
836.0
834.0
835.0
834.0
833.0
836.0
839.0
838.0
839.0
837.0
837.0
835.0
834.0
833.0
832.0
833.0
837.0
838.0
839.0
841.0
845.0
839.0
836.0
823.0
822.0
824.0
828.0
847.0
880.0
922.0
981.0
1050.0
1124.0
1189.0
1239.0
1265.0
1267.0
1250.0
1209.0
1140.0
1046.0
945.0
862.0
822.0
817.0
835.0
862.0
883.0
890.0
887.0
875.0
862.0
850.0
845.0
844.0
846.0
846.0
844.0
843.0
843.0
843.0
841.0
839.0
837.0
838.0
840.0
842.0
843.0
843.0
842.0
841.0
840.0
839.0
838.0
837.0
838.0
837.0
840.0
837.0
844.0
844.0
844.0
842.0
842.0
839.0
839.0
837.0
839.0
841.0
843.0
843.0
848.0
844.0
845.0
846.0
848.0
842.0
841.0
846.0
847.0
850.0
852.0
854.0
858.0
859.0
858.0
861.0
859.0
861.0
863.0
863.0
865.0
867.0
871.0
872.0
876.0
877.0
880.0
882.0
882.0
884.0
887.0
887.0
891.0
895.0
903.0
905.0
910.0
914.0
917.0
921.0
922.0
928.0
928.0
930.0
926.0
932.0
940.0
942.0
948.0
952.0
953.0
956.0
952.0
955.0
956.0
954.0
954.0
956.0
958.0
958.0
959.0
956.0
951.0
947.0
942.0
935.0
928.0
921.0
916.0
913.0
909.0
903.0
902.0
897.0
892.0
886.0
881.0
878.0
871.0
866.0
861.0
863.0
864.0
862.0
862.0
862.0
860.0
860.0
859.0
855.0
855.0
853.0
852.0
851.0
851.0
856.0
857.0
859.0
857.0
857.0
855.0
853.0
856.0
854.0
855.0
856.0
859.0
858.0
864.0
865.0
865.0
867.0
868.0
866.0
867.0
863.0
864.0
864.0
863.0
868.0
873.0
886.0
906.0
928.0
957.0
989.0
1029.0
1069.0
1106.0
1155.0
1200.0
1249.0
1292.0
1337.0
1365.0
1389.0
1403.0
1418.0
1420.0
1418.0
1418.0
1408.0
1396.0
1386.0
1374.0
1364.0
1360.0
1358.0
1358.0
1365.0
1364.0
1358.0
1344.0
1318.0
1292.0
1262.0
1234.0
1198.0
1147.0
1086.0
1013.0
938.0
880.0
842.0
826.0
827.0
831.0
837.0
835.0
832.0
819.0
812.0
799.0
788.0
786.0
785.0
