# Simple Text Format
# Sampling Rate (Hz):= 360.00
# Resolution:= 12
# Labels:= ECG
784.0
782.0
779.0
774.0
772.0
769.0
768.0
765.0
759.0
756.0
753.0
751.0
750.0
747.0
747.0
745.0
742.0
739.0
738.0
734.0
731.0
729.0
721.0
721.0
718.0
713.0
712.0
711.0
709.0
709.0
701.0
703.0
698.0
697.0
694.0
691.0
689.0
690.0
687.0
686.0
684.0
686.0
685.0
680.0
681.0
680.0
680.0
680.0
675.0
668.0
662.0
657.0
655.0
650.0
642.0
639.0
630.0
620.0
612.0
600.0
593.0
586.0
583.0
583.0
583.0
586.0
589.0
590.0
597.0
602.0
607.0
616.0
626.0
635.0
646.0
657.0
669.0
683.0
692.0
701.0
710.0
723.0
733.0
742.0
751.0
759.0
769.0
780.0
784.0
790.0
796.0
799.0
799.0
799.0
798.0
800.0
800.0
802.0
805.0
807.0
804.0
806.0
806.0
803.0
806.0
803.0
802.0
805.0
802.0
805.0
808.0
810.0
812.0
813.0
809.0
810.0
805.0
807.0
809.0
808.0
809.0
808.0
811.0
810.0
815.0
817.0
818.0
815.0
816.0
812.0
811.0
809.0
811.0
812.0
814.0
813.0
817.0
821.0
815.0
818.0
815.0
816.0
816.0
815.0
814.0
815.0
818.0
820.0
819.0
823.0
821.0
821.0
817.0
820.0
819.0
815.0
819.0
817.0
819.0
823.0
823.0
825.0
823.0
823.0
821.0
820.0
820.0
819.0
819.0
821.0
824.0
822.0
823.0
827.0
825.0
826.0
822.0
823.0
823.0
819.0
819.0
822.0
823.0
825.0
830.0
834.0
830.0
829.0
825.0
826.0
823.0
825.0
824.0
828.0
829.0
831.0
829.0
833.0
831.0
833.0
830.0
827.0
829.0
826.0
826.0
827.0
832.0
835.0
835.0
838.0
835.0
835.0
835.0
831.0
830.0
830.0
831.0
829.0
833.0
835.0
836.0
837.0
838.0
837.0
834.0
833.0
832.0
833.0
830.0
833.0
837.0
837.0
840.0
842.0
842.0
841.0
838.0
837.0
837.0
833.0
836.0
837.0
836.0
840.0
839.0
840.0
842.0
842.0
840.0
838.0
838.0
839.0
835.0
833.0
837.0
836.0
841.0
842.0
841.0
838.0
838.0
833.0
838.0
837.0
837.0
840.0
840.0
843.0
842.0
844.0
846.0
847.0
845.0
841.0
840.0
839.0
838.0
837.0
835.0
841.0
842.0
843.0
845.0
843.0
843.0
842.0
843.0
840.0
839.0
839.0
841.0
846.0
845.0
848.0
847.0
845.0
844.0
841.0
842.0
840.0
841.0
841.0
843.0
843.0
847.0
848.0
845.0
842.0
845.0
845.0
843.0
841.0
840.0
841.0
844.0
846.0
847.0
851.0
846.0
847.0
850.0
844.0
843.0
840.0
841.0
842.0
842.0
842.0
845.0
847.0
846.0
845.0
845.0
844.0
844.0
843.0
844.0
845.0
844.0
847.0
847.0
850.0
848.0
847.0
847.0
842.0
844.0
844.0
841.0
844.0
842.0
843.0
846.0
848.0
849.0
845.0
847.0
845.0
843.0
840.0
839.0
840.0
846.0
843.0
848.0
851.0
849.0
849.0
847.0
850.0
846.0
850.0
848.0
846.0
844.0
845.0
846.0
854.0
852.0
851.0
849.0
849.0
849.0
851.0
853.0
856.0
860.0
867.0
871.0
878.0
880.0
880.0
882.0
883.0
890.0
894.0
902.0
910.0
915.0
914.0
914.0
917.0
914.0
915.0
910.0
911.0
905.0
900.0
893.0
883.0
873.0
868.0
864.0
857.0
851.0
848.0
847.0
841.0
842.0
847.0
845.0
847.0
848.0
847.0
846.0
847.0
847.0
846.0
846.0
844.0
842.0
843.0
840.0
842.0
844.0
842.0
841.0
837.0
832.0
832.0
839.0
857.0
887.0
936.0
998.0
1070.0
1150.0
1215.0
1262.0
1280.0
1271.0
1249.0
1200.0
1121.0
1022.0
922.0
845.0
808.0
819.0
844.0
875.0
897.0
904.0
896.0
885.0
866.0
853.0
842.0
842.0
843.0
848.0
849.0
850.0
849.0
848.0
845.0
842.0
839.0
836.0
838.0
837.0
839.0
840.0
840.0
841.0
843.0
842.0
839.0
838.0
837.0
833.0
834.0
834.0
831.0
835.0
835.0
835.0
839.0
840.0
837.0
838.0
833.0
837.0
837.0
836.0
834.0
836.0
836.0
840.0
839.0
839.0
838.0
843.0
839.0
838.0
840.0
836.0
839.0
840.0
842.0
845.0
846.0
845.0
847.0
848.0
850.0
850.0
851.0
851.0
850.0
858.0
860.0
863.0
866.0
865.0
868.0
870.0
872.0
872.0
873.0
876.0
881.0
885.0
892.0
892.0
897.0
900.0
901.0
904.0
904.0
906.0
907.0
909.0
914.0
916.0
917.0
922.0
925.0
922.0
925.0
927.0
930.0
931.0
933.0
929.0
938.0
942.0
939.0
943.0
945.0
946.0
946.0
945.0
936.0
933.0
929.0
924.0
923.0
922.0
919.0
918.0
916.0
910.0
907.0
904.0
895.0
887.0
882.0
877.0
879.0
878.0
878.0
877.0
876.0
874.0
872.0
866.0
868.0
863.0
863.0
861.0
860.0
861.0
865.0
866.0
867.0
863.0
861.0
860.0
862.0
859.0
856.0
856.0
863.0
862.0
869.0
868.0
869.0
868.0
867.0
867.0
866.0
866.0
865.0
867.0
866.0
867.0
868.0
869.0
873.0
873.0
871.0
871.0
869.0
867.0
867.0
866.0
866.0
868.0
870.0
870.0
873.0
870.0
871.0
867.0
866.0
859.0
864.0
861.0
861.0
864.0
865.0
865.0
865.0
863.0
864.0
862.0
859.0
854.0
855.0
854.0
852.0
853.0
854.0
856.0
858.0
857.0
854.0
854.0
854.0
853.0
849.0
851.0
851.0
852.0
852.0
854.0
856.0
855.0
854.0
850.0
848.0
848.0
845.0
845.0
845.0
849.0
853.0
854.0
853.0
854.0
854.0
852.0
848.0
846.0
847.0
847.0
846.0
846.0
849.0
850.0
849.0
849.0
850.0
848.0
845.0
843.0
840.0
841.0
843.0
845.0
849.0
854.0
853.0
858.0
855.0
852.0
854.0
857.0
859.0
862.0
863.0
869.0
873.0
880.0
883.0
879.0
884.0
891.0
900.0
907.0
912.0
912.0
911.0
910.0
910.0
908.0
911.0
907.0
902.0
899.0
893.0
879.0
865.0
856.0
849.0
844.0
842.0
843.0
846.0
843.0
841.0
839.0
839.0
837.0
837.0
834.0
835.0
835.0
837.0
834.0
838.0
838.0
839.0
837.0
835.0
837.0
833.0
835.0
838.0
837.0
835.0
840.0
838.0
834.0
827.0
826.0
831.0
845.0
871.0
914.0
974.0
1047.0
1122.0
1190.0
1238.0
1260.0
1259.0
1237.0
1188.0
1112.0
1010.0
915.0
841.0
809.0
812.0
840.0
869.0
886.0
891.0
885.0
871.0
854.0
842.0
839.0
838.0
837.0
842.0
844.0
843.0
847.0
844.0
841.0
838.0
835.0
830.0
829.0
830.0
833.0
837.0
839.0
835.0
838.0
839.0
839.0
836.0
836.0
832.0
830.0
833.0
834.0
836.0
834.0
838.0
834.0
835.0
838.0
836.0
837.0
837.0
836.0
837.0
838.0
840.0
840.0
843.0
843.0
846.0
845.0
843.0
842.0
845.0
846.0
846.0
848.0
849.0
853.0
854.0
856.0
857.0
856.0
858.0
859.0
863.0
861.0
864.0
867.0
875.0
875.0
880.0
882.0
886.0
887.0
890.0
891.0
891.0
893.0
901.0
904.0
911.0
914.0
921.0
926.0
928.0
929.0
931.0
933.0
935.0
935.0
941.0
944.0
945.0
951.0
951.0
951.0
953.0
953.0
952.0
947.0
948.0
942.0
941.0
940.0
937.0
932.0
928.0
923.0
917.0
914.0
905.0
898.0
891.0
885.0
879.0
877.0
875.0
873.0
876.0
872.0
868.0
866.0
862.0
859.0
854.0
853.0
852.0
856.0
854.0
857.0
856.0
856.0
856.0
854.0
854.0
851.0
847.0
848.0
849.0
847.0
852.0
852.0
854.0
854.0
858.0
856.0
854.0
853.0
854.0
854.0
854.0
858.0
860.0
863.0
862.0
862.0
863.0
860.0
861.0
868.0
876.0
890.0
916.0
944.0
977.0
1010.0
1043.0
1081.0
1119.0
1160.0
1205.0
1246.0
1286.0
1326.0
1359.0
1387.0
1407.0
1418.0
1421.0
1420.0
1415.0
1402.0
1386.0
1370.0
1355.0
1346.0
1343.0
1350.0
1357.0
1359.0
1356.0
1341.0
1316.0
1289.0
1254.0
1221.0
1184.0
1136.0
1075.0
1006.0
938.0
879.0
842.0
829.0
822.0
825.0
828.0
826.0
818.0
806.0
799.0
791.0
786.0
783.0
784.0
779.0
777.0
773.0
768.0
763.0
762.0
757.0
755.0
754.0
755.0
755.0
753.0
750.0
751.0
746.0
740.0
735.0
730.0
729.0
725.0
725.0
725.0
724.0
723.0
717.0
714.0
709.0
707.0
701.0
699.0
698.0
697.0
699.0
701.0
700.0
700.0
696.0
693.0
692.0
688.0
685.0
685.0
684.0
687.0
687.0
686.0
680.0
674.0
667.0
661.0
655.0
648.0
641.0
631.0
625.0
613.0
605.0
595.0
589.0
582.0
578.0
574.0
572.0
572.0
572.0
574.0
577.0
581.0
588.0
595.0
601.0
611.0
618.0
629.0
640.0
649.0
655.0
665.0
674.0
688.0
699.0
714.0
726.0
736.0
751.0
759.0
765.0
768.0
773.0
778.0
782.0
786.0
793.0
797.0
799.0
802.0
803.0
801.0
803.0
803.0
801.0
798.0
801.0
800.0
803.0
804.0
807.0
811.0
808.0
808.0
807.0
806.0
806.0
805.0
803.0
805.0
806.0
806.0
808.0
811.0
812.0
813.0
811.0
808.0
803.0
805.0
808.0
809.0
812.0
810.0
813.0
816.0
818.0
816.0
815.0
814.0
814.0
813.0
814.0
816.0
815.0
817.0
819.0
820.0
820.0
820.0
818.0
816.0
813.0
813.0
814.0
815.0
818.0
817.0
820.0
823.0
823.0
819.0
820.0
816.0
816.0
815.0
816.0
814.0
817.0
820.0
820.0
823.0
822.0
819.0
818.0
816.0
816.0
819.0
818.0
816.0
819.0
819.0
822.0
825.0
825.0
825.0
825.0
824.0
821.0
824.0
822.0
820.0
823.0
825.0
825.0
829.0
828.0
829.0
827.0
824.0
825.0
822.0
824.0
822.0
824.0
823.0
827.0
832.0
828.0
830.0
829.0
827.0
827.0
826.0
824.0
825.0
828.0
830.0
830.0
830.0
830.0
830.0
828.0
827.0
828.0
832.0
830.0
827.0
827.0
831.0
833.0
836.0
835.0
835.0
831.0
833.0
833.0
827.0
832.0
831.0
831.0
831.0
835.0
838.0
835.0
838.0
837.0
834.0
836.0
832.0
832.0
831.0
832.0
836.0
835.0
838.0
836.0
836.0
834.0
831.0
830.0
835.0
831.0
831.0
834.0
838.0
839.0
837.0
839.0
837.0
839.0
836.0
836.0
831.0
832.0
835.0
833.0
837.0
836.0
840.0
839.0
836.0
837.0
836.0
836.0
833.0
834.0
836.0
837.0
839.0
844.0
843.0
843.0
845.0
842.0
840.0
837.0
834.0
830.0
833.0
831.0
836.0
835.0
836.0
841.0
843.0
838.0
839.0
837.0
836.0
834.0
833.0
835.0
835.0
836.0
841.0
841.0
840.0
840.0
836.0
835.0
833.0
832.0
834.0
834.0
838.0
841.0
842.0
845.0
845.0
842.0
840.0
839.0
834.0
839.0
834.0
834.0
837.0
839.0
845.0
846.0
843.0
846.0
841.0
841.0
838.0
841.0
841.0
842.0
843.0
845.0
845.0
845.0
845.0
844.0
841.0
841.0
840.0
838.0
838.0
841.0
842.0
845.0
845.0
849.0
847.0
847.0
843.0
842.0
839.0
838.0
842.0
844.0
847.0
850.0
856.0
857.0
860.0
863.0
864.0
861.0
864.0
867.0
870.0
876.0
879.0
885.0
894.0
900.0
904.0
908.0
909.0
904.0
900.0
899.0
901.0
906.0
906.0
905.0
902.0
895.0
885.0
872.0
858.0
848.0
837.0
836.0
834.0
835.0
837.0
837.0
837.0
839.0
839.0
838.0
836.0
829.0
830.0
830.0
831.0
831.0
833.0
833.0
839.0
843.0
839.0
840.0
834.0
830.0
825.0
819.0
814.0
816.0
830.0
849.0
880.0
923.0
977.0
1046.0
1113.0
1178.0
1223.0
1248.0
1257.0
1245.0
1212.0
1148.0
1060.0
955.0
868.0
816.0
803.0
822.0
849.0
869.0
880.0
879.0
873.0
860.0
848.0
840.0
833.0
831.0
829.0
833.0
830.0
828.0
828.0
830.0
827.0
829.0
829.0
831.0
832.0
833.0
828.0
827.0
829.0
825.0
824.0
824.0
825.0
827.0
828.0
828.0
827.0
827.0
827.0
825.0
823.0
824.0
821.0
824.0
825.0
827.0
827.0
829.0
827.0
826.0
825.0
824.0
824.0
822.0
823.0
828.0
830.0
832.0
832.0
833.0
831.0
830.0
831.0
830.0
831.0
831.0
834.0
835.0
839.0
843.0
845.0
848.0
845.0
845.0
845.0
845.0
847.0
848.0
850.0
856.0
857.0
862.0
865.0
868.0
870.0
870.0
873.0
872.0
877.0
876.0
880.0
882.0
885.0
892.0
896.0
898.0
898.0
901.0
900.0
901.0
903.0
907.0
906.0
911.0
913.0
919.0
919.0
923.0
924.0
923.0
919.0
922.0
922.0
921.0
920.0
920.0
920.0
918.0
917.0
918.0
911.0
909.0
903.0
899.0
893.0
889.0
881.0
883.0
877.0
875.0
873.0
872.0
868.0
865.0
861.0
858.0
853.0
856.0
851.0
855.0
855.0
854.0
854.0
852.0
853.0
852.0
849.0
846.0
843.0
846.0
848.0
848.0
852.0
854.0
856.0
858.0
859.0
857.0
857.0
857.0
853.0
854.0
855.0
858.0
859.0
861.0
859.0
864.0
865.0
860.0
860.0
858.0
855.0
855.0
855.0
854.0
857.0
861.0
860.0
862.0
860.0
860.0
858.0
855.0
853.0
851.0
848.0
851.0
850.0
853.0
852.0
855.0
850.0
851.0
845.0
846.0
842.0
845.0
841.0
843.0
844.0
846.0
848.0
849.0
848.0
844.0
846.0
842.0
836.0
839.0
835.0
837.0
840.0
840.0
843.0
845.0
843.0
845.0
840.0
839.0
836.0
837.0
836.0
837.0
836.0
837.0
839.0
842.0
840.0
840.0
839.0
836.0
834.0
837.0
836.0
834.0
836.0
836.0
840.0
842.0
845.0
841.0
841.0
838.0
833.0
832.0
830.0
832.0
835.0
838.0
839.0
841.0
840.0
835.0
839.0
842.0
840.0
841.0
842.0
843.0
848.0
853.0
860.0
865.0
865.0
867.0
869.0
871.0
875.0
881.0
886.0
894.0
902.0
905.0
907.0
910.0
905.0
903.0
900.0
898.0
897.0
892.0
884.0
878.0
866.0
859.0
849.0
843.0
837.0
832.0
831.0
831.0
830.0
833.0
831.0
832.0
832.0
833.0
831.0
832.0
829.0
829.0
826.0
822.0
824.0
825.0
828.0
829.0
831.0
832.0
834.0
836.0
834.0
832.0
829.0
822.0
818.0
816.0
825.0
847.0
879.0
923.0
982.0
1051.0
1123.0
1184.0
1229.0
1253.0
1254.0
1241.0
1204.0
1141.0
1058.0
959.0
873.0
821.0
807.0
820.0
847.0
869.0
879.0
879.0
871.0
858.0
848.0
842.0
839.0
837.0
837.0
836.0
836.0
832.0
831.0
833.0
828.0
827.0
828.0
833.0
834.0
837.0
836.0
835.0
832.0
829.0
827.0
827.0
825.0
826.0
828.0
829.0
831.0
832.0
833.0
833.0
830.0
830.0
830.0
827.0
829.0
831.0
833.0
834.0
836.0
838.0
840.0
836.0
835.0
837.0
836.0
836.0
837.0
839.0
839.0
839.0
843.0
849.0
849.0
849.0
850.0
847.0
849.0
849.0
852.0
856.0
858.0
864.0
864.0
869.0
866.0
870.0
873.0
876.0
875.0
879.0
882.0
888.0
890.0
895.0
896.0
906.0
906.0
910.0
910.0
914.0
914.0
914.0
920.0
922.0
926.0
927.0
935.0
939.0
938.0
939.0
941.0
940.0
936.0
938.0
940.0
941.0
944.0
941.0
940.0
940.0
934.0
930.0
921.0
916.0
909.0
903.0
896.0
890.0
887.0
884.0
880.0
878.0
874.0
866.0
865.0
859.0
855.0
852.0
850.0
849.0
848.0
850.0
849.0
849.0
848.0
847.0
848.0
845.0
843.0
842.0
843.0
840.0
842.0
843.0
841.0
843.0
845.0
846.0
846.0
845.0
843.0
839.0
843.0
845.0
849.0
852.0
852.0
852.0
852.0
851.0
854.0
855.0
853.0
854.0
853.0
852.0
851.0
852.0
854.0
855.0
857.0
860.0
869.0
887.0
905.0
933.0
962.0
994.0
1032.0
1068.0
1108.0
1151.0
1185.0
1227.0
1266.0
1303.0
1332.0
1358.0
1376.0
1392.0
1400.0
1404.0
1400.0
1395.0
1385.0
1365.0
1349.0
1340.0
1335.0
1337.0
1343.0
1345.0
1342.0
1331.0
1310.0
1281.0
1246.0
1201.0
1154.0
1083.0
1010.0
935.0
873.0
832.0
811.0
809.0
814.0
818.0
817.0
807.0
803.0
790.0
780.0
772.0
765.0
767.0
766.0
766.0
768.0
766.0
761.0
755.0
750.0
745.0
746.0
741.0
741.0
740.0
740.0
740.0
740.0
736.0
735.0
733.0
730.0
726.0
724.0
723.0
721.0
723.0
726.0
724.0
725.0
728.0
724.0
722.0
720.0
720.0
718.0
723.0
724.0
723.0
719.0
714.0
708.0
702.0
696.0
690.0
679.0
671.0
659.0
646.0
631.0
619.0
602.0
594.0
588.0
581.0
574.0
567.0
563.0
560.0
556.0
553.0
550.0
545.0
550.0
548.0
549.0
553.0
556.0
554.0
558.0
559.0
562.0
566.0
574.0
581.0
592.0
601.0
612.0
624.0
635.0
644.0
653.0
664.0
672.0
682.0
689.0
702.0
714.0
724.0
738.0
748.0
754.0
758.0
762.0
763.0
765.0
771.0
772.0
773.0
777.0
782.0
783.0
783.0
786.0
787.0
787.0
785.0
779.0
782.0
782.0
782.0
784.0
781.0
783.0
788.0
785.0
785.0
785.0
784.0
780.0
780.0
778.0
780.0
781.0
787.0
787.0
790.0
791.0
788.0
783.0
786.0
788.0
787.0
786.0
786.0
789.0
791.0
792.0
793.0
796.0
795.0
793.0
795.0
791.0
792.0
787.0
792.0
795.0
799.0
799.0
801.0
800.0
799.0
798.0
793.0
793.0
792.0
790.0
790.0
793.0
797.0
797.0
799.0
799.0
798.0
797.0
796.0
795.0
795.0
794.0
797.0
799.0
799.0
802.0
804.0
807.0
801.0
805.0
800.0
803.0
800.0
801.0
802.0
801.0
806.0
805.0
807.0
806.0
805.0
806.0
805.0
802.0
804.0
806.0
806.0
808.0
811.0
811.0
813.0
810.0
811.0
810.0
805.0
808.0
807.0
806.0
808.0
811.0
811.0
814.0
819.0
819.0
820.0
817.0
815.0
814.0
813.0
810.0
808.0
814.0
818.0
818.0
819.0
820.0
820.0
815.0
815.0
813.0
816.0
815.0
817.0
815.0
817.0
818.0
822.0
818.0
820.0
817.0
816.0
814.0
812.0
810.0
811.0
817.0
814.0
818.0
821.0
820.0
817.0
819.0
821.0
817.0
817.0
815.0
810.0
815.0
818.0
817.0
813.0
816.0
818.0
819.0
815.0
817.0
814.0
814.0
813.0
815.0
819.0
822.0
822.0
822.0
820.0
820.0
818.0
821.0
817.0
817.0
819.0
821.0
821.0
822.0
825.0
823.0
824.0
826.0
823.0
821.0
821.0
819.0
816.0
821.0
824.0
825.0
824.0
826.0
824.0
822.0
822.0
819.0
821.0
820.0
818.0
820.0
820.0
821.0
824.0
827.0
827.0
825.0
822.0
819.0
820.0
817.0
819.0
823.0
820.0
824.0
823.0
820.0
818.0
819.0
819.0
819.0
819.0
821.0
817.0
818.0
822.0
822.0
825.0
824.0
822.0
823.0
823.0
821.0
818.0
817.0
816.0
820.0
823.0
823.0
824.0
824.0
822.0
821.0
819.0
817.0
819.0
816.0
820.0
820.0
823.0
824.0
825.0
826.0
825.0
826.0
825.0
824.0
821.0
822.0
823.0
823.0
824.0
825.0
826.0
829.0
824.0
828.0
824.0
825.0
820.0
819.0
823.0
821.0
827.0
831.0
834.0
835.0
838.0
840.0
841.0
843.0
844.0
844.0
850.0
853.0
860.0
862.0
868.0
874.0
882.0
887.0
886.0
889.0
887.0
886.0
884.0
883.0
884.0
888.0
889.0
888.0
887.0
873.0
867.0
853.0
840.0
832.0
823.0
823.0
821.0
825.0
823.0
825.0
827.0
827.0
825.0
824.0
821.0
819.0
818.0
819.0
819.0
824.0
827.0
827.0
826.0
824.0
822.0
818.0
815.0
811.0
806.0
807.0
816.0
831.0
858.0
899.0
944.0
1001.0
1073.0
1139.0
1191.0
1226.0
1244.0
1245.0
1229.0
1189.0
1126.0
1039.0
938.0
853.0
803.0
794.0
810.0
838.0
862.0
872.0
871.0
860.0
851.0
840.0
832.0
827.0
823.0
823.0
824.0
823.0
824.0
825.0
822.0
825.0
826.0
826.0
825.0
822.0
821.0
819.0
817.0
816.0
818.0
817.0
820.0
824.0
823.0
821.0
821.0
820.0
819.0
817.0
815.0
815.0
816.0
814.0
815.0
818.0
815.0
818.0
819.0
818.0
817.0
817.0
818.0
818.0
819.0
818.0
820.0
822.0
825.0
824.0
825.0
824.0
824.0
821.0
824.0
824.0
827.0
829.0
833.0
833.0
836.0
839.0
838.0
838.0
839.0
839.0
840.0
841.0
844.0
847.0
849.0
853.0
857.0
859.0
863.0
864.0
868.0
869.0
869.0
869.0
872.0
879.0
883.0
885.0
889.0
893.0
894.0
896.0
896.0
892.0
898.0
895.0
901.0
903.0
908.0
914.0
919.0
923.0
922.0
927.0
925.0
923.0
924.0
920.0
920.0
918.0
918.0
918.0
917.0
914.0
906.0
902.0
895.0
893.0
889.0
882.0
879.0
876.0
870.0
870.0
870.0
866.0
863.0
860.0
853.0
851.0
853.0
852.0
851.0
851.0
852.0
856.0
853.0
855.0
854.0
854.0
851.0
851.0
847.0
846.0
845.0
850.0
852.0
854.0
858.0
859.0
857.0
857.0
855.0
857.0
855.0
854.0
855.0
855.0
853.0
858.0
861.0
864.0
861.0
859.0
857.0
857.0
855.0
858.0
871.0
895.0
919.0
955.0
985.0
1020.0
1055.0
1093.0
1134.0
1179.0
1222.0
1268.0
1310.0
1351.0
1381.0
1404.0
1422.0
1429.0
1432.0
1427.0
1420.0
1403.0
1385.0
1369.0
1354.0
1344.0
1350.0
1350.0
1356.0
1360.0
1353.0
1341.0
1321.0
1291.0
1258.0
1222.0
1180.0
1131.0
1070.0
999.0
928.0
869.0
832.0
814.0
809.0
812.0
815.0
812.0
805.0
797.0
786.0
780.0
776.0
772.0
768.0
764.0
756.0
754.0
752.0
748.0
746.0
746.0
746.0
743.0
743.0
740.0
736.0
732.0
733.0
728.0
727.0
723.0
719.0
720.0
719.0
716.0
718.0
713.0
708.0
703.0
696.0
693.0
688.0
687.0
683.0
680.0
680.0
680.0
679.0
679.0
675.0
670.0
668.0
662.0
658.0
658.0
655.0
657.0
657.0
657.0
663.0
662.0
655.0
648.0
641.0
636.0
630.0
629.0
626.0
622.0
620.0
611.0
607.0
598.0
589.0
584.0
577.0
568.0
565.0
564.0
563.0
567.0
574.0
584.0
586.0
591.0
598.0
605.0
612.0
618.0
623.0
640.0
650.0
662.0
675.0
687.0
699.0
714.0
722.0
734.0
740.0
751.0
755.0
762.0
764.0
773.0
777.0
782.0
786.0
783.0
783.0
787.0
786.0
784.0
783.0
784.0
785.0
787.0
787.0
788.0
791.0
793.0
790.0
787.0
787.0
790.0
789.0
789.0
788.0
790.0
790.0
796.0
797.0
797.0
794.0
794.0
791.0
791.0
792.0
791.0
792.0
792.0
796.0
797.0
799.0
800.0
797.0
798.0
799.0
795.0
798.0
797.0
798.0
801.0
798.0
805.0
805.0
805.0
804.0
805.0
805.0
801.0
799.0
798.0
799.0
801.0
804.0
805.0
805.0
809.0
806.0
806.0
805.0
801.0
801.0
801.0
800.0
804.0
806.0
807.0
806.0
806.0
807.0
806.0
806.0
805.0
805.0
801.0
803.0
805.0
808.0
810.0
811.0
809.0
808.0
809.0
809.0
806.0
807.0
807.0
806.0
809.0
810.0
810.0
813.0
812.0
813.0
812.0
812.0
813.0
809.0
810.0
809.0
813.0
815.0
816.0
816.0
818.0
820.0
818.0
817.0
815.0
815.0
815.0
812.0
816.0
818.0
816.0
821.0
822.0
820.0
819.0
818.0
813.0
815.0
816.0
811.0
815.0
815.0
818.0
820.0
820.0
819.0
816.0
820.0
819.0
818.0
816.0
815.0
818.0
822.0
822.0
824.0
826.0
823.0
825.0
822.0
822.0
821.0
818.0
818.0
819.0
819.0
822.0
824.0
824.0
822.0
819.0
821.0
821.0
818.0
821.0
821.0
823.0
826.0
824.0
827.0
828.0
825.0
824.0
824.0
823.0
819.0
822.0
822.0
823.0
826.0
827.0
830.0
828.0
827.0
825.0
826.0
825.0
824.0
825.0
819.0
818.0
824.0
825.0
827.0
829.0
828.0
827.0
823.0
823.0
822.0
823.0
824.0
821.0
824.0
823.0
827.0
831.0
830.0
829.0
829.0
828.0
824.0
823.0
822.0
825.0
828.0
827.0
832.0
832.0
833.0
834.0
831.0
830.0
830.0
825.0
825.0
826.0
828.0
830.0
833.0
830.0
833.0
831.0
830.0
825.0
823.0
824.0
825.0
825.0
828.0
825.0
830.0
833.0
829.0
833.0
831.0
830.0
828.0
828.0
828.0
831.0
832.0
835.0
835.0
832.0
834.0
833.0
836.0
834.0
832.0
832.0
832.0
832.0
833.0
837.0
839.0
837.0
837.0
837.0
834.0
834.0
833.0
834.0
833.0
834.0
838.0
839.0
839.0
842.0
839.0
840.0
845.0
845.0
848.0
851.0
854.0
859.0
861.0
862.0
869.0
873.0
877.0
884.0
889.0
900.0
902.0
902.0
901.0
897.0
897.0
897.0
899.0
900.0
896.0
889.0
879.0
869.0
857.0
847.0
838.0
834.0
830.0
832.0
831.0
835.0
837.0
834.0
834.0
830.0
830.0
825.0
826.0
825.0
828.0
828.0
831.0
831.0
828.0
830.0
829.0
828.0
824.0
819.0
818.0
809.0
808.0
813.0
825.0
843.0
872.0
912.0
965.0
1030.0
1101.0
1165.0
1215.0
1246.0
1252.0
1245.0
1213.0
1157.0
1070.0
969.0
873.0
816.0
796.0
809.0
838.0
866.0
877.0
877.0
872.0
861.0
847.0
835.0
828.0
822.0
820.0
820.0
824.0
828.0
825.0
827.0
825.0
827.0
825.0
826.0
822.0
819.0
819.0
822.0
819.0
820.0
820.0
823.0
824.0
825.0
825.0
821.0
822.0
820.0
818.0
817.0
817.0
815.0
816.0
819.0
821.0
821.0
822.0
824.0
821.0
822.0
819.0
817.0
816.0
820.0
821.0
819.0
825.0
827.0
827.0
823.0
823.0
822.0
822.0
820.0
824.0
826.0
832.0
834.0
835.0
836.0
835.0
833.0
832.0
833.0
835.0
839.0
840.0
841.0
846.0
848.0
851.0
855.0
857.0
858.0
858.0
860.0
863.0
865.0
868.0
870.0
873.0
876.0
881.0
884.0
886.0
890.0
889.0
892.0
892.0
892.0
896.0
899.0
903.0
904.0
907.0
913.0
913.0
913.0
915.0
916.0
915.0
918.0
917.0
920.0
922.0
925.0
928.0
932.0
927.0
926.0
923.0
920.0
916.0
912.0
907.0
906.0
902.0
899.0
896.0
891.0
887.0
887.0
878.0
875.0
871.0
871.0
865.0
862.0
863.0
862.0
858.0
859.0
855.0
853.0
849.0
849.0
847.0
846.0
846.0
850.0
849.0
852.0
855.0
857.0
856.0
853.0
849.0
849.0
846.0
851.0
850.0
851.0
854.0
855.0
857.0
860.0
858.0
856.0
852.0
855.0
855.0
853.0
853.0
854.0
854.0
855.0
858.0
859.0
860.0
859.0
856.0
853.0
853.0
854.0
850.0
849.0
854.0
852.0
855.0
858.0
855.0
853.0
852.0
851.0
848.0
848.0
845.0
845.0
844.0
846.0
846.0
851.0
849.0
846.0
847.0
848.0
845.0
846.0
847.0
844.0
844.0
846.0
844.0
844.0
844.0
842.0
841.0
840.0
839.0
839.0
838.0
837.0
840.0
839.0
838.0
841.0
840.0
837.0
840.0
836.0
836.0
834.0
833.0
835.0
837.0
840.0
841.0
843.0
840.0
835.0
841.0
840.0
837.0
839.0
834.0
836.0
838.0
840.0
842.0
845.0
846.0
842.0
845.0
847.0
845.0
850.0
853.0
860.0
862.0
866.0
868.0
874.0
875.0
882.0
888.0
893.0
901.0
899.0
899.0
898.0
896.0
896.0
898.0
900.0
898.0
891.0
885.0
878.0
868.0
859.0
845.0
839.0
836.0
830.0
832.0
835.0
832.0
832.0
832.0
830.0
830.0
829.0
827.0
827.0
828.0
831.0
831.0
832.0
832.0
831.0
829.0
828.0
823.0
821.0
822.0
822.0
825.0
832.0
833.0
834.0
830.0
822.0
819.0
817.0
820.0
833.0
858.0
894.0
955.0
1021.0
1096.0
1166.0
1219.0
1248.0
1257.0
1242.0
1204.0
1135.0
1039.0
937.0
850.0
807.0
802.0
823.0
849.0
867.0
880.0
874.0
861.0
847.0
836.0
826.0
827.0
827.0
831.0
836.0
833.0
832.0
830.0
826.0
825.0
822.0
820.0
819.0
822.0
825.0
828.0
830.0
829.0
827.0
822.0
822.0
825.0
825.0
820.0
820.0
826.0
828.0
828.0
832.0
831.0
829.0
828.0
823.0
825.0
825.0
824.0
826.0
829.0
831.0
832.0
836.0
833.0
835.0
834.0
832.0
833.0
834.0
834.0
835.0
835.0
840.0
846.0
849.0
848.0
850.0
849.0
848.0
848.0
853.0
852.0
857.0
856.0
863.0
866.0
874.0
873.0
877.0
878.0
879.0
880.0
888.0
887.0
889.0
900.0
902.0
907.0
913.0
916.0
916.0
920.0
919.0
922.0
921.0
923.0
926.0
929.0
932.0
937.0
935.0
938.0
938.0
937.0
933.0
931.0
928.0
924.0
922.0
919.0
918.0
915.0
909.0
905.0
901.0
893.0
884.0
876.0
872.0
864.0
862.0
859.0
858.0
853.0
852.0
849.0
849.0
846.0
841.0
