# Simple Text Format
# Sampling Rate (Hz):= 360.00
# Resolution:= 12
# Labels:= ECG
1006.0
1007.0
1006.0
1005.0
1001.0
998.0
1001.0
1002.0
1003.0
1001.0
998.0
995.0
997.0
999.0
999.0
997.0
995.0
994.0
997.0
998.0
998.0
998.0
995.0
994.0
997.0
998.0
997.0
997.0
996.0
994.0
996.0
994.0
998.0
996.0
994.0
994.0
996.0
998.0
996.0
996.0
995.0
992.0
994.0
996.0
996.0
994.0
993.0
993.0
994.0
996.0
994.0
992.0
991.0
991.0
993.0
994.0
995.0
995.0
994.0
993.0
992.0
995.0
994.0
995.0
994.0
992.0
993.0
994.0
996.0
993.0
992.0
991.0
993.0
992.0
992.0
993.0
993.0
992.0
992.0
992.0
992.0
991.0
991.0
990.0
992.0
992.0
992.0
990.0
989.0
988.0
990.0
990.0
991.0
990.0
990.0
989.0
990.0
989.0
990.0
992.0
990.0
988.0
989.0
989.0
990.0
990.0
989.0
986.0
987.0
990.0
990.0
989.0
987.0
987.0
986.0
988.0
989.0
987.0
988.0
985.0
986.0
987.0
989.0
988.0
987.0
984.0
985.0
987.0
987.0
988.0
988.0
985.0
986.0
987.0
989.0
987.0
986.0
984.0
986.0
988.0
989.0
986.0
986.0
984.0
987.0
988.0
987.0
988.0
985.0
983.0
984.0
988.0
988.0
988.0
987.0
985.0
986.0
985.0
987.0
989.0
986.0
985.0
986.0
986.0
988.0
988.0
985.0
982.0
985.0
985.0
991.0
986.0
986.0
984.0
986.0
988.0
988.0
988.0
986.0
984.0
982.0
985.0
989.0
987.0
986.0
984.0
985.0
989.0
990.0
988.0
986.0
983.0
986.0
989.0
989.0
987.0
985.0
985.0
987.0
990.0
991.0
988.0
987.0
986.0
989.0
991.0
992.0
991.0
990.0
990.0
993.0
996.0
998.0
999.0
1000.0
999.0
1001.0
1005.0
1008.0
1008.0
1008.0
1006.0
1007.0
1013.0
1017.0
1017.0
1013.0
1010.0
1009.0
1012.0
1016.0
1018.0
1019.0
1023.0
1034.0
1043.0
1052.0
1059.0
1063.0
1062.0
1058.0
1047.0
1028.0
1008.0
978.0
943.0
909.0
881.0
877.0
890.0
908.0
919.0
928.0
931.0
931.0
925.0
920.0
914.0
915.0
914.0
919.0
919.0
915.0
907.0
904.0
906.0
907.0
909.0
912.0
918.0
929.0
946.0
967.0
981.0
986.0
985.0
987.0
990.0
994.0
992.0
995.0
995.0
996.0
999.0
1001.0
1001.0
1001.0
1001.0
1004.0
1008.0
1008.0
1008.0
1007.0
1006.0
1010.0
1013.0
1014.0
1017.0
1016.0
1017.0
1017.0
1021.0
1023.0
1025.0
1024.0
1025.0
1027.0
1032.0
1036.0
1037.0
1038.0
1038.0
1042.0
1045.0
1050.0
1050.0
1051.0
1054.0
1060.0
1066.0
1071.0
1072.0
1076.0
1078.0
1083.0
1090.0
1095.0
1095.0
1095.0
1102.0
1109.0
1116.0
1121.0
1123.0
1125.0
1128.0
1133.0
1138.0
1142.0
1143.0
1140.0
1142.0
1142.0
1143.0
1138.0
1135.0
1129.0
1123.0
1116.0
1116.0
1108.0
1101.0
1093.0
1085.0
1080.0
1075.0
1067.0
1057.0
1048.0
1042.0
1038.0
1036.0
1030.0
1023.0
1016.0
1014.0
1012.0
1010.0
1005.0
1001.0
996.0
995.0
994.0
993.0
993.0
989.0
988.0
987.0
988.0
989.0
987.0
986.0
984.0
983.0
984.0
986.0
987.0
985.0
985.0
985.0
985.0
986.0
986.0
983.0
985.0
983.0
987.0
988.0
987.0
986.0
986.0
985.0
988.0
989.0
988.0
989.0
986.0
985.0
987.0
988.0
988.0
987.0
986.0
986.0
988.0
989.0
988.0
986.0
985.0
984.0
987.0
984.0
984.0
983.0
982.0
981.0
982.0
982.0
983.0
982.0
983.0
979.0
982.0
984.0
984.0
983.0
981.0
982.0
982.0
983.0
984.0
981.0
976.0
977.0
979.0
981.0
980.0
978.0
977.0
977.0
978.0
980.0
981.0
977.0
977.0
978.0
978.0
979.0
978.0
978.0
977.0
977.0
979.0
979.0
979.0
978.0
977.0
977.0
978.0
982.0
980.0
976.0
974.0
975.0
977.0
981.0
980.0
979.0
976.0
978.0
978.0
980.0
981.0
979.0
979.0
978.0
979.0
979.0
978.0
978.0
978.0
978.0
981.0
979.0
981.0
979.0
979.0
979.0
979.0
980.0
981.0
981.0
980.0
978.0
981.0
982.0
981.0
981.0
980.0
981.0
980.0
982.0
985.0
981.0
980.0
980.0
982.0
981.0
981.0
980.0
979.0
980.0
982.0
983.0
982.0
981.0
980.0
981.0
982.0
983.0
983.0
983.0
982.0
982.0
982.0
984.0
983.0
982.0
980.0
980.0
981.0
984.0
983.0
983.0
983.0
982.0
982.0
984.0
984.0
984.0
982.0
981.0
983.0
984.0
985.0
983.0
984.0
982.0
982.0
983.0
985.0
982.0
982.0
982.0
984.0
986.0
986.0
984.0
984.0
983.0
984.0
985.0
986.0
985.0
983.0
982.0
984.0
985.0
986.0
984.0
983.0
982.0
984.0
984.0
986.0
985.0
983.0
981.0
981.0
985.0
984.0
984.0
982.0
981.0
984.0
985.0
986.0
986.0
982.0
981.0
985.0
986.0
987.0
988.0
987.0
988.0
990.0
993.0
996.0
998.0
998.0
999.0
1000.0
1003.0
1005.0
1005.0
1005.0
1004.0
1005.0
1006.0
1009.0
1009.0
1008.0
1005.0
1006.0
1005.0
1005.0
1003.0
1002.0
998.0
1000.0
1000.0
999.0
997.0
994.0
991.0
989.0
988.0
988.0
985.0
982.0
980.0
983.0
982.0
984.0
983.0
982.0
978.0
980.0
980.0
981.0
979.0
980.0
980.0
981.0
983.0
981.0
982.0
981.0
979.0
980.0
979.0
982.0
981.0
980.0
979.0
983.0
984.0
986.0
984.0
982.0
985.0
986.0
988.0
993.0
996.0
1001.0
1004.0
1010.0
1022.0
1038.0
1055.0
1074.0
1094.0
1116.0
1138.0
1156.0
1170.0
1185.0
1201.0
1212.0
1203.0
1182.0
1152.0
1117.0
1080.0
1049.0
1025.0
1008.0
996.0
989.0
991.0
995.0
1000.0
999.0
995.0
991.0
987.0
989.0
988.0
986.0
984.0
982.0
981.0
982.0
984.0
982.0
980.0
980.0
979.0
982.0
983.0
981.0
980.0
979.0
978.0
980.0
983.0
984.0
982.0
981.0
981.0
984.0
985.0
986.0
985.0
984.0
981.0
987.0
989.0
989.0
988.0
988.0
988.0
990.0
992.0
992.0
991.0
991.0
991.0
993.0
995.0
994.0
994.0
994.0
994.0
998.0
1000.0
1001.0
1001.0
999.0
1001.0
1001.0
1006.0
1007.0
1006.0
1005.0
1007.0
1010.0
1012.0
1013.0
1014.0
1013.0
1014.0
1019.0
1020.0
1023.0
1024.0
1023.0
1023.0
1026.0
1030.0
1033.0
1032.0
1032.0
1034.0
1036.0
1038.0
1039.0
1040.0
1039.0
1041.0
1042.0
1046.0
1047.0
1046.0
1045.0
1042.0
1045.0
1044.0
1042.0
1038.0
1035.0
1031.0
1030.0
1030.0
1028.0
1024.0
1019.0
1017.0
1016.0
1014.0
1015.0
1010.0
1007.0
1005.0
1003.0
1001.0
999.0
999.0
996.0
994.0
994.0
994.0
993.0
996.0
993.0
991.0
993.0
995.0
994.0
992.0
992.0
992.0
991.0
993.0
993.0
992.0
990.0
989.0
992.0
993.0
991.0
992.0
990.0
991.0
990.0
989.0
989.0
988.0
989.0
989.0
988.0
990.0
989.0
988.0
986.0
987.0
988.0
989.0
989.0
988.0
987.0
991.0
991.0
991.0
990.0
990.0
987.0
985.0
989.0
989.0
987.0
988.0
985.0
986.0
986.0
989.0
986.0
988.0
986.0
986.0
986.0
986.0
986.0
984.0
985.0
985.0
985.0
987.0
985.0
985.0
984.0
983.0
984.0
984.0
985.0
983.0
984.0
982.0
985.0
986.0
984.0
982.0
981.0
982.0
982.0
983.0
982.0
983.0
980.0
980.0
984.0
983.0
983.0
980.0
979.0
980.0
981.0
981.0
983.0
982.0
981.0
980.0
979.0
981.0
981.0
980.0
979.0
979.0
978.0
981.0
981.0
979.0
979.0
980.0
981.0
981.0
981.0
980.0
979.0
979.0
981.0
981.0
981.0
979.0
978.0
979.0
980.0
980.0
980.0
982.0
978.0
980.0
981.0
979.0
980.0
980.0
981.0
979.0
982.0
981.0
980.0
982.0
979.0
978.0
980.0
981.0
980.0
979.0
979.0
978.0
981.0
982.0
979.0
979.0
977.0
977.0
978.0
980.0
980.0
980.0
980.0
976.0
979.0
980.0
981.0
980.0
980.0
979.0
979.0
982.0
980.0
979.0
979.0
978.0
980.0
980.0
981.0
980.0
980.0
979.0
980.0
978.0
978.0
979.0
979.0
977.0
979.0
980.0
981.0
980.0
979.0
979.0
979.0
979.0
982.0
979.0
980.0
978.0
981.0
983.0
984.0
984.0
982.0
981.0
981.0
981.0
983.0
983.0
982.0
984.0
987.0
988.0
991.0
993.0
991.0
992.0
995.0
995.0
997.0
998.0
997.0
997.0
999.0
1003.0
1002.0
1002.0
1006.0
1006.0
1006.0
1006.0
1003.0
999.0
996.0
998.0
998.0
999.0
997.0
993.0
990.0
989.0
989.0
988.0
986.0
982.0
979.0
975.0
978.0
979.0
977.0
977.0
974.0
974.0
976.0
977.0
980.0
978.0
977.0
976.0
978.0
980.0
978.0
978.0
975.0
975.0
976.0
980.0
980.0
977.0
977.0
974.0
978.0
979.0
980.0
977.0
976.0
976.0
978.0
982.0
980.0
981.0
984.0
987.0
992.0
997.0
1001.0
1007.0
1018.0
1034.0
1057.0
1082.0
1104.0
1128.0
1145.0
1163.0
1185.0
1208.0
1225.0
1228.0
1213.0
1185.0
1145.0
1103.0
1062.0
1027.0
999.0
980.0
970.0
964.0
970.0
976.0
983.0
986.0
987.0
986.0
984.0
981.0
979.0
978.0
979.0
979.0
977.0
975.0
973.0
974.0
975.0
977.0
976.0
975.0
974.0
974.0
977.0
976.0
976.0
975.0
975.0
976.0
977.0
978.0
978.0
976.0
974.0
974.0
977.0
980.0
979.0
978.0
978.0
977.0
982.0
982.0
983.0
980.0
980.0
980.0
984.0
987.0
986.0
985.0
985.0
985.0
988.0
991.0
991.0
990.0
988.0
992.0
992.0
995.0
997.0
997.0
997.0
993.0
997.0
1000.0
1002.0
1004.0
1004.0
1005.0
1008.0
1011.0
1012.0
1012.0
1012.0
1011.0
1016.0
1020.0
1021.0
1024.0
1022.0
1023.0
1027.0
1031.0
1030.0
1030.0
1031.0
1033.0
1034.0
1038.0
1039.0
1039.0
1040.0
1039.0
1042.0
1043.0
1042.0
1041.0
1040.0
1034.0
1036.0
1036.0
1034.0
1030.0
1026.0
1023.0
1021.0
1020.0
1017.0
1013.0
1008.0
1005.0
1001.0
1005.0
1000.0
999.0
997.0
993.0
993.0
992.0
992.0
990.0
990.0
988.0
990.0
990.0
990.0
989.0
988.0
987.0
987.0
990.0
989.0
986.0
985.0
985.0
986.0
986.0
988.0
986.0
984.0
983.0
986.0
988.0
986.0
988.0
984.0
982.0
985.0
986.0
986.0
988.0
985.0
985.0
988.0
989.0
989.0
988.0
983.0
986.0
985.0
988.0
986.0
985.0
985.0
985.0
985.0
987.0
986.0
986.0
986.0
985.0
986.0
986.0
988.0
989.0
985.0
984.0
985.0
988.0
986.0
986.0
985.0
983.0
984.0
986.0
985.0
986.0
984.0
983.0
985.0
985.0
985.0
983.0
981.0
981.0
981.0
983.0
983.0
982.0
980.0
978.0
981.0
984.0
983.0
979.0
980.0
980.0
981.0
981.0
980.0
980.0
979.0
978.0
979.0
981.0
982.0
983.0
979.0
978.0
979.0
981.0
982.0
980.0
980.0
979.0
981.0
982.0
982.0
980.0
981.0
979.0
980.0
980.0
980.0
980.0
979.0
978.0
980.0
980.0
981.0
980.0
979.0
977.0
979.0
980.0
980.0
979.0
978.0
979.0
980.0
980.0
980.0
981.0
977.0
980.0
980.0
982.0
980.0
979.0
978.0
977.0
979.0
980.0
979.0
980.0
978.0
979.0
980.0
983.0
983.0
981.0
978.0
977.0
980.0
982.0
982.0
982.0
981.0
980.0
982.0
981.0
982.0
982.0
982.0
980.0
980.0
982.0
980.0
980.0
978.0
979.0
982.0
981.0
981.0
980.0
981.0
980.0
980.0
982.0
981.0
981.0
981.0
980.0
983.0
984.0
984.0
983.0
983.0
983.0
985.0
984.0
988.0
989.0
989.0
992.0
996.0
998.0
999.0
999.0
999.0
1001.0
1005.0
1006.0
1005.0
1004.0
1004.0
1004.0
1007.0
1012.0
1011.0
1008.0
1006.0
1003.0
1003.0
1003.0
1002.0
999.0
997.0
996.0
997.0
996.0
993.0
990.0
988.0
987.0
987.0
987.0
983.0
982.0
981.0
981.0
982.0
986.0
987.0
991.0
995.0
1000.0
1010.0
1019.0
1027.0
1033.0
1040.0
1046.0
1054.0
1057.0
1048.0
1035.0
1019.0
1005.0
980.0
947.0
911.0
880.0
868.0
872.0
882.0
889.0
892.0
895.0
897.0
899.0
898.0
897.0
893.0
890.0
891.0
892.0
895.0
895.0
893.0
889.0
889.0
893.0
899.0
907.0
914.0
924.0
940.0
957.0
973.0
987.0
990.0
989.0
988.0
988.0
993.0
997.0
998.0
996.0
995.0
996.0
1001.0
1005.0
1001.0
1004.0
1004.0
1006.0
1011.0
1013.0
1012.0
1012.0
1012.0
1012.0
1016.0
1019.0
1019.0
1020.0
1020.0
1020.0
1022.0
1027.0
1027.0
1026.0
1028.0
1028.0
1031.0
1035.0
1033.0
1037.0
1037.0
1039.0
1043.0
1047.0
1049.0
1051.0
1052.0
1055.0
1059.0
1064.0
1067.0
1069.0
1070.0
1071.0
1080.0
1086.0
1091.0
1092.0
1097.0
1099.0
1103.0
1110.0
1115.0
1118.0
1119.0
1122.0
1128.0
1134.0
1136.0
1139.0
1139.0
1141.0
1144.0
1149.0
1148.0
1147.0
1144.0
1144.0
1143.0
1141.0
1138.0
1131.0
1124.0
1118.0
1114.0
1110.0
1103.0
1095.0
1089.0
1081.0
1075.0
1070.0
1065.0
1058.0
1049.0
1042.0
1038.0
1037.0
1034.0
1027.0
1022.0
1019.0
1016.0
1014.0
1012.0
1007.0
1003.0
1001.0
1001.0
999.0
999.0
997.0
994.0
993.0
991.0
993.0
991.0
991.0
990.0
990.0
991.0
991.0
991.0
991.0
987.0
987.0
989.0
990.0
991.0
991.0
988.0
987.0
990.0
990.0
988.0
989.0
986.0
987.0
989.0
990.0
989.0
988.0
988.0
987.0
989.0
989.0
989.0
988.0
986.0
988.0
988.0
989.0
988.0
987.0
987.0
986.0
988.0
989.0
987.0
987.0
985.0
985.0
983.0
986.0
987.0
985.0
984.0
984.0
986.0
985.0
984.0
985.0
984.0
983.0
986.0
986.0
985.0
983.0
980.0
979.0
980.0
984.0
982.0
981.0
980.0
981.0
981.0
984.0
982.0
982.0
980.0
977.0
980.0
982.0
981.0
980.0
979.0
978.0
980.0
981.0
980.0
979.0
978.0
978.0
982.0
982.0
978.0
978.0
977.0
976.0
980.0
981.0
979.0
978.0
975.0
977.0
979.0
979.0
978.0
975.0
974.0
975.0
978.0
980.0
978.0
977.0
975.0
975.0
977.0
979.0
979.0
976.0
976.0
976.0
976.0
979.0
978.0
976.0
975.0
974.0
978.0
978.0
977.0
977.0
974.0
975.0
977.0
979.0
977.0
976.0
974.0
973.0
974.0
977.0
974.0
974.0
973.0
973.0
974.0
976.0
977.0
975.0
972.0
972.0
975.0
978.0
976.0
975.0
973.0
974.0
975.0
977.0
976.0
973.0
973.0
972.0
972.0
977.0
976.0
974.0
972.0
974.0
976.0
977.0
977.0
974.0
973.0
974.0
975.0
978.0
976.0
977.0
975.0
975.0
975.0
976.0
976.0
976.0
973.0
972.0
975.0
975.0
976.0
975.0
974.0
974.0
974.0
977.0
975.0
974.0
975.0
974.0
974.0
976.0
973.0
976.0
974.0
973.0
974.0
976.0
974.0
974.0
972.0
973.0
975.0
977.0
976.0
975.0
974.0
974.0
976.0
976.0
975.0
976.0
974.0
975.0
976.0
979.0
974.0
976.0
975.0
975.0
976.0
977.0
978.0
977.0
974.0
976.0
977.0
979.0
978.0
977.0
976.0
978.0
980.0
984.0
983.0
983.0
985.0
985.0
988.0
989.0
991.0
990.0
992.0
995.0
996.0
997.0
997.0
996.0
997.0
1001.0
1002.0
1003.0
1002.0
998.0
995.0
993.0
994.0
996.0
991.0
992.0
989.0
987.0
986.0
987.0
981.0
978.0
974.0
975.0
975.0
977.0
975.0
974.0
973.0
971.0
972.0
976.0
972.0
971.0
972.0
972.0
974.0
976.0
976.0
976.0
973.0
972.0
972.0
975.0
974.0
975.0
973.0
971.0
975.0
977.0
977.0
978.0
978.0
978.0
981.0
984.0
988.0
992.0
996.0
999.0
1011.0
1030.0
1051.0
1077.0
1101.0
1128.0
1152.0
1174.0
1200.0
1221.0
1226.0
1211.0
1176.0
1130.0
1077.0
1031.0
1000.0
977.0
967.0
964.0
971.0
982.0
983.0
982.0
980.0
982.0
979.0
977.0
971.0
969.0
972.0
975.0
972.0
971.0
969.0
971.0
972.0
974.0
973.0
973.0
971.0
971.0
971.0
975.0
975.0
972.0
972.0
972.0
974.0
977.0
976.0
974.0
975.0
973.0
977.0
978.0
978.0
978.0
977.0
978.0
978.0
982.0
981.0
981.0
980.0
981.0
984.0
986.0
986.0
986.0
985.0
986.0
990.0
992.0
990.0
991.0
991.0
993.0
997.0
999.0
1000.0
1001.0
1002.0
1003.0
1005.0
1006.0
1008.0
1010.0
1011.0
1013.0
1015.0
1018.0
1020.0
1020.0
1023.0
1025.0
1027.0
1031.0
1030.0
1032.0
1032.0
1034.0
1036.0
1040.0
1038.0
1037.0
1036.0
1037.0
1036.0
1037.0
1035.0
1031.0
1026.0
1025.0
1024.0
1023.0
1019.0
1015.0
1010.0
1009.0
1006.0
1005.0
1002.0
1000.0
996.0
994.0
993.0
995.0
993.0
990.0
988.0
987.0
987.0
988.0
988.0
986.0
985.0
984.0
986.0
988.0
988.0
983.0
980.0
981.0
985.0
985.0
985.0
987.0
981.0
981.0
982.0
983.0
985.0
985.0
983.0
983.0
985.0
989.0
985.0
984.0
982.0
983.0
985.0
988.0
986.0
985.0
981.0
982.0
983.0
988.0
986.0
984.0
982.0
983.0
985.0
986.0
984.0
982.0
981.0
982.0
986.0
987.0
984.0
982.0
981.0
978.0
983.0
985.0
983.0
982.0
980.0
980.0
981.0
982.0
980.0
978.0
979.0
977.0
980.0
982.0
981.0
978.0
975.0
978.0
978.0
980.0
979.0
979.0
977.0
979.0
981.0
981.0
979.0
977.0
977.0
975.0
977.0
980.0
977.0
976.0
974.0
975.0
977.0
977.0
978.0
977.0
973.0
974.0
975.0
976.0
977.0
974.0
974.0
973.0
974.0
977.0
976.0
974.0
974.0
975.0
976.0
978.0
975.0
975.0
973.0
975.0
976.0
979.0
976.0
975.0
975.0
975.0
977.0
977.0
976.0
975.0
975.0
974.0
975.0
979.0
977.0
975.0
974.0
974.0
978.0
979.0
978.0
976.0
975.0
976.0
978.0
978.0
977.0
976.0
975.0
975.0
975.0
977.0
976.0
977.0
976.0
976.0
978.0
977.0
977.0
976.0
975.0
975.0
976.0
978.0
977.0
977.0
974.0
975.0
978.0
980.0
978.0
977.0
977.0
976.0
978.0
980.0
978.0
978.0
976.0
976.0
979.0
980.0
980.0
979.0
976.0
976.0
978.0
980.0
981.0
979.0
977.0
976.0
978.0
981.0
981.0
980.0
978.0
977.0
979.0
983.0
984.0
981.0
979.0
982.0
984.0
986.0
987.0
988.0
989.0
994.0
996.0
996.0
996.0
997.0
998.0
999.0
1003.0
1003.0
1002.0
999.0
1000.0
1003.0
1005.0
1006.0
1004.0
999.0
996.0
996.0
997.0
997.0
995.0
992.0
988.0
989.0
989.0
989.0
987.0
982.0
980.0
979.0
978.0
979.0
978.0
977.0
974.0
974.0
975.0
976.0
977.0
977.0
975.0
976.0
977.0
977.0
978.0
978.0
975.0
975.0
976.0
979.0
978.0
978.0
976.0
977.0
978.0
979.0
980.0
981.0
979.0
983.0
989.0
993.0
998.0
999.0
1007.0
1025.0
1049.0
1070.0
1097.0
1120.0
1141.0
1161.0
1182.0
1201.0
1207.0
1191.0
1160.0
1120.0
1078.0
1044.0
1017.0
998.0
985.0
986.0
992.0
997.0
995.0
990.0
985.0
984.0
983.0
982.0
980.0
979.0
976.0
978.0
977.0
978.0
978.0
977.0
975.0
975.0
977.0
978.0
978.0
976.0
975.0
977.0
979.0
979.0
979.0
979.0
978.0
979.0
980.0
984.0
984.0
981.0
979.0
980.0
984.0
986.0
986.0
985.0
984.0
985.0
989.0
991.0
990.0
990.0
988.0
991.0
995.0
997.0
995.0
994.0
994.0
997.0
1000.0
1003.0
1003.0
1005.0
1004.0
1006.0
1010.0
1012.0
1013.0
1013.0
1014.0
1018.0
1019.0
1025.0
1024.0
1026.0
1026.0
1028.0
1031.0
1031.0
1034.0
1035.0
1036.0
1037.0
1042.0
1042.0
1042.0
1041.0
1042.0
1042.0
1043.0
1044.0
1041.0
1039.0
1034.0
1033.0
1031.0
1029.0
1024.0
1020.0
1017.0
1015.0
1010.0
1009.0
1007.0
1003.0
999.0
997.0
996.0
995.0
995.0
992.0
989.0
989.0
989.0
990.0
989.0
989.0
986.0
987.0
985.0
986.0
988.0
989.0
985.0
986.0
987.0
987.0
987.0
986.0
984.0
984.0
983.0
983.0
983.0
981.0
980.0
981.0
985.0
985.0
984.0
983.0
982.0
980.0
983.0
985.0
984.0
985.0
983.0
982.0
985.0
985.0
986.0
985.0
982.0
982.0
984.0
983.0
983.0
983.0
979.0
981.0
982.0
984.0
984.0
984.0
980.0
982.0
984.0
985.0
984.0
984.0
982.0
983.0
983.0
984.0
986.0
984.0
980.0
981.0
983.0
984.0
983.0
982.0
980.0
981.0
982.0
984.0
985.0
983.0
980.0
980.0
982.0
984.0
982.0
982.0
980.0
982.0
982.0
983.0
983.0
981.0
979.0
979.0
982.0
984.0
982.0
981.0
978.0
980.0
981.0
985.0
983.0
981.0
978.0
981.0
980.0
982.0
982.0
979.0
978.0
979.0
981.0
980.0
980.0
979.0
976.0
979.0
980.0
981.0
979.0
979.0
980.0
979.0
980.0
981.0
981.0
982.0
980.0
978.0
979.0
981.0
981.0
980.0
977.0
980.0
978.0
980.0
977.0
980.0
978.0
979.0
980.0
982.0
981.0
980.0
979.0
978.0
980.0
983.0
982.0
981.0
979.0
979.0
977.0
981.0
982.0
981.0
976.0
977.0
979.0
978.0
980.0
978.0
977.0
977.0
980.0
980.0
981.0
978.0
977.0
978.0
979.0
978.0
981.0
979.0
977.0
979.0
980.0
982.0
981.0
980.0
979.0
979.0
980.0
982.0
983.0
980.0
978.0
978.0
981.0
983.0
983.0
982.0
979.0
980.0
981.0
985.0
984.0
981.0
979.0
980.0
983.0
985.0
983.0
982.0
979.0
978.0
983.0
984.0
983.0
982.0
982.0
983.0
986.0
987.0
990.0
990.0
991.0
995.0
999.0
1006.0
1012.0
1019.0
1028.0
1040.0
1051.0
1059.0
1068.0
1075.0
1078.0
1075.0
1065.0
1050.0
1029.0
1000.0
967.0
933.0
898.0
879.0
877.0
890.0
901.0
913.0
920.0
925.0
924.0
922.0
916.0
913.0
911.0
912.0
914.0
913.0
911.0
908.0
904.0
902.0
899.0
901.0
902.0
906.0
913.0
926.0
940.0
956.0
969.0
979.0
982.0
983.0
983.0
982.0
982.0
985.0
988.0
991.0
993.0
992.0
990.0
993.0
995.0
997.0
997.0
996.0
995.0
998.0
1001.0
1002.0
1002.0
1002.0
1002.0
1004.0
1006.0
1009.0
1009.0
1010.0
1008.0
1012.0
1016.0
1020.0
1019.0
1019.0
1021.0
1024.0
1026.0
1029.0
1030.0
1031.0
1032.0
1037.0
1041.0
1045.0
1048.0
1051.0
1050.0
1055.0
1060.0
1064.0
1068.0
1070.0
1072.0
1076.0
1081.0
1085.0
1089.0
1094.0
1094.0
1100.0
1106.0
1111.0
1115.0
1118.0
1119.0
1124.0
1130.0
1133.0
1135.0
1135.0
1134.0
1137.0
1138.0
1137.0
1134.0
1126.0
1124.0
1121.0
1117.0
1115.0
1107.0
1101.0
1093.0
1087.0
1082.0
1079.0
1073.0
1064.0
1052.0
1047.0
1043.0
1039.0
1032.0
1026.0
1020.0
1015.0
1012.0
1011.0
1007.0
1003.0
999.0
996.0
996.0
995.0
994.0
990.0
988.0
988.0
988.0
990.0
988.0
986.0
983.0
983.0
984.0
986.0
985.0
984.0
981.0
983.0
986.0
986.0
988.0
984.0
981.0
983.0
983.0
986.0
985.0
985.0
983.0
986.0
987.0
987.0
988.0
984.0
983.0
983.0
985.0
985.0
987.0
985.0
981.0
982.0
984.0
985.0
985.0
983.0
981.0
981.0
982.0
984.0
983.0
981.0
979.0
983.0
982.0
983.0
981.0
981.0
979.0
980.0
979.0
980.0
982.0
980.0
979.0
977.0
977.0
976.0
979.0
976.0
975.0
973.0
976.0
976.0
979.0
976.0
972.0
975.0
977.0
978.0
976.0
976.0
973.0
973.0
974.0
977.0
975.0
973.0
972.0
973.0
972.0
974.0
973.0
970.0
972.0
974.0
976.0
976.0
976.0
975.0
974.0
975.0
976.0
976.0
976.0
973.0
972.0
976.0
974.0
976.0
975.0
972.0
971.0
974.0
975.0
976.0
975.0
974.0
974.0
975.0
976.0
974.0
976.0
975.0
974.0
975.0
977.0
978.0
977.0
974.0
972.0
975.0
978.0
979.0
977.0
977.0
976.0
976.0
978.0
978.0
977.0
976.0
973.0
975.0
977.0
976.0
976.0
978.0
975.0
978.0
977.0
979.0
979.0
979.0
976.0
978.0
980.0
981.0
979.0
979.0
976.0
979.0
977.0
982.0
978.0
977.0
976.0
978.0
978.0
981.0
978.0
978.0
976.0
979.0
980.0
981.0
980.0
978.0
979.0
980.0
981.0
980.0
979.0
978.0
977.0
978.0
981.0
982.0
979.0
979.0
979.0
980.0
980.0
980.0
980.0
979.0
978.0
980.0
982.0
982.0
982.0
981.0
979.0
981.0
983.0
984.0
980.0
980.0
979.0
979.0
981.0
981.0
980.0
979.0
979.0
981.0
982.0
982.0
980.0
980.0
979.0
983.0
981.0
983.0
982.0
980.0
979.0
980.0
981.0
983.0
983.0
981.0
980.0
981.0
984.0
987.0
985.0
983.0
982.0
984.0
983.0
985.0
987.0
985.0
982.0
984.0
985.0
987.0
986.0
985.0
983.0
982.0
986.0
988.0
989.0
988.0
982.0
985.0
988.0
991.0
989.0
989.0
987.0
990.0
990.0
997.0
998.0
998.0
998.0
999.0
1000.0
1005.0
1006.0
1007.0
1007.0
1010.0
1011.0
1011.0
1009.0
1009.0
1010.0
1012.0
1013.0
1014.0
1011.0
1007.0
1005.0
1004.0
1004.0
1004.0
1001.0
1001.0
1001.0
999.0
1000.0
997.0
997.0
994.0
991.0
990.0
987.0
987.0
986.0
984.0
986.0
986.0
985.0
985.0
983.0
982.0
983.0
984.0
984.0
986.0
982.0
984.0
983.0
987.0
989.0
989.0
986.0
985.0
983.0
986.0
987.0
987.0
987.0
986.0
983.0
985.0
985.0
989.0
989.0
989.0
987.0
990.0
997.0
1002.0
1007.0
1008.0
1009.0
1015.0
1025.0
1040.0
1056.0
1068.0
1086.0
1107.0
1131.0
1154.0
1170.0
1186.0
1201.0
1217.0
1213.0
1194.0
1164.0
1123.0
1087.0
1054.0
1029.0
1011.0
1000.0
994.0
993.0
997.0
1000.0
1003.0
1001.0
997.0
991.0
991.0
990.0
991.0
990.0
987.0
983.0
984.0
985.0
985.0
983.0
983.0
983.0
983.0
984.0
986.0
982.0
982.0
980.0
982.0
984.0
986.0
984.0
984.0
982.0
985.0
985.0
988.0
987.0
985.0
984.0
988.0
988.0
990.0
989.0
988.0
988.0
989.0
991.0
992.0
993.0
992.0
990.0
991.0
993.0
996.0
995.0
993.0
992.0
996.0
997.0
999.0
997.0
998.0
997.0
1000.0
1002.0
1002.0
1006.0
1005.0
1004.0
1008.0
1009.0
1011.0
1013.0
1014.0
1013.0
1017.0
1019.0
1021.0
1022.0
1021.0
1022.0
1026.0
1029.0
1031.0
1033.0
1032.0
1032.0
1036.0
1039.0
1042.0
1039.0
1041.0
1042.0
1043.0
1044.0
1047.0
1048.0
1048.0
1046.0
1046.0
1049.0
1048.0
1047.0
1044.0
1040.0
1039.0
1039.0
1036.0
1033.0
1027.0
1023.0
1020.0
1023.0
1020.0
1017.0
1014.0
1010.0
1011.0
1009.0
1009.0
1007.0
1003.0
1000.0
1001.0
1001.0
1003.0
1001.0
997.0
996.0
997.0
998.0
998.0
998.0
995.0
995.0
996.0
997.0
998.0
997.0
998.0
995.0
995.0
994.0
997.0
995.0
996.0
995.0
996.0
996.0
996.0
996.0
995.0
992.0
995.0
996.0
995.0
996.0
994.0
994.0
994.0
994.0
997.0
998.0
996.0
994.0
995.0
995.0
997.0
997.0
995.0
993.0
994.0
995.0
995.0
996.0
994.0
992.0
993.0
991.0
994.0
993.0
991.0
993.0
991.0
995.0
994.0
995.0
991.0
990.0
992.0
995.0
994.0
992.0
990.0
990.0
993.0
993.0
996.0
992.0
990.0
988.0
992.0
992.0
993.0
991.0
990.0
989.0
991.0
993.0
993.0
992.0
990.0
987.0
988.0
992.0
992.0
990.0
988.0
986.0
988.0
989.0
992.0
991.0
991.0
988.0
987.0
991.0
992.0
990.0
987.0
987.0
988.0
991.0
991.0
992.0
989.0
989.0
986.0
989.0
991.0
991.0
989.0
988.0
987.0
988.0
989.0
987.0
988.0
985.0
989.0
988.0
989.0
990.0
990.0
989.0
989.0
989.0
990.0
989.0
988.0
987.0
989.0
990.0
991.0
986.0
987.0
988.0
989.0
990.0
990.0
989.0
987.0
986.0
989.0
987.0
988.0
986.0
984.0
981.0
985.0
987.0
989.0
989.0
986.0
986.0
985.0
989.0
988.0
989.0
987.0
985.0
986.0
988.0
989.0
989.0
986.0
984.0
987.0
990.0
990.0
989.0
987.0
986.0
989.0
990.0
992.0
989.0
986.0
985.0
986.0
986.0
988.0
987.0
987.0
984.0
985.0
987.0
988.0
986.0
987.0
985.0
988.0
987.0
988.0
988.0
986.0
986.0
989.0
988.0
988.0
987.0
985.0
986.0
986.0
987.0
989.0
988.0
988.0
988.0
987.0
989.0
987.0
989.0
987.0
986.0
988.0
990.0
988.0
989.0
987.0
986.0
987.0
991.0
989.0
987.0
988.0
987.0
988.0
992.0
993.0
993.0
991.0
992.0
997.0
1000.0
1002.0
1003.0
1000.0
1001.0
1004.0
1007.0
1010.0
1009.0
1009.0
1007.0
1010.0
1014.0
1016.0
1013.0
1011.0
1007.0
1006.0
1008.0
1007.0
1006.0
1002.0
1000.0
1001.0
