# Simple Text Format
# Sampling Rate (Hz):= 360.00
# Resolution:= 12
# Labels:= ECG
973.0
973.0
970.0
971.0
971.0
971.0
974.0
974.0
972.0
971.0
971.0
971.0
974.0
972.0
972.0
969.0
968.0
970.0
972.0
970.0
969.0
967.0
966.0
968.0
969.0
968.0
969.0
968.0
967.0
968.0
970.0
970.0
968.0
967.0
965.0
966.0
968.0
968.0
967.0
967.0
966.0
966.0
971.0
970.0
970.0
969.0
968.0
970.0
971.0
970.0
970.0
967.0
969.0
969.0
970.0
971.0
971.0
969.0
968.0
970.0
971.0
971.0
972.0
970.0
971.0
972.0
973.0
972.0
971.0
969.0
971.0
972.0
974.0
973.0
973.0
971.0
973.0
974.0
976.0
972.0
973.0
973.0
973.0
975.0
974.0
974.0
973.0
974.0
972.0
974.0
975.0
973.0
973.0
973.0
973.0
974.0
978.0
975.0
975.0
975.0
974.0
977.0
977.0
975.0
975.0
975.0
975.0
975.0
978.0
976.0
976.0
977.0
975.0
978.0
978.0
978.0
978.0
975.0
975.0
976.0
979.0
977.0
976.0
975.0
976.0
977.0
978.0
978.0
977.0
977.0
974.0
975.0
980.0
981.0
979.0
975.0
978.0
979.0
980.0
980.0
978.0
977.0
978.0
978.0
982.0
981.0
979.0
979.0
977.0
979.0
983.0
981.0
980.0
978.0
977.0
978.0
980.0
980.0
979.0
978.0
979.0
980.0
981.0
979.0
980.0
978.0
978.0
980.0
980.0
981.0
981.0
980.0
980.0
980.0
983.0
980.0
981.0
979.0
979.0
981.0
982.0
982.0
981.0
979.0
980.0
981.0
985.0
983.0
983.0
979.0
980.0
982.0
984.0
982.0
982.0
981.0
981.0
982.0
984.0
983.0
983.0
981.0
981.0
983.0
985.0
984.0
985.0
982.0
983.0
984.0
984.0
985.0
984.0
982.0
983.0
985.0
986.0
984.0
984.0
983.0
984.0
984.0
986.0
986.0
986.0
985.0
983.0
986.0
988.0
987.0
986.0
987.0
985.0
987.0
991.0
989.0
988.0
985.0
986.0
986.0
989.0
988.0
987.0
986.0
987.0
988.0
988.0
989.0
985.0
985.0
984.0
987.0
991.0
989.0
989.0
986.0
987.0
987.0
990.0
989.0
988.0
986.0
988.0
989.0
992.0
990.0
989.0
988.0
988.0
989.0
991.0
992.0
991.0
989.0
989.0
992.0
995.0
995.0
996.0
997.0
1000.0
1002.0
1005.0
1006.0
1006.0
1007.0
1008.0
1008.0
1012.0
1009.0
1007.0
1004.0
1007.0
1013.0
1015.0
1013.0
1010.0
1008.0
1006.0
1007.0
1008.0
1006.0
1004.0
1002.0
1000.0
1000.0
1000.0
995.0
992.0
990.0
987.0
991.0
992.0
991.0
988.0
986.0
986.0
986.0
989.0
987.0
987.0
983.0
985.0
986.0
989.0
987.0
986.0
983.0
983.0
986.0
988.0
986.0
987.0
985.0
986.0
986.0
990.0
989.0
990.0
991.0
994.0
1001.0
1007.0
1011.0
1012.0
1013.0
1028.0
1048.0
1068.0
1087.0
1109.0
1130.0
1149.0
1163.0
1181.0
1198.0
1201.0
1186.0
1162.0
1132.0
1103.0
1066.0
1037.0
1015.0
998.0
989.0
990.0
994.0
995.0
994.0
991.0
989.0
988.0
986.0
983.0
980.0
980.0
981.0
984.0
981.0
979.0
977.0
978.0
979.0
981.0
979.0
979.0
979.0
979.0
980.0
982.0
980.0
979.0
976.0
979.0
981.0
982.0
983.0
981.0
980.0
980.0
980.0
982.0
981.0
983.0
982.0
983.0
985.0
988.0
986.0
986.0
987.0
986.0
988.0
992.0
993.0
992.0
991.0
993.0
997.0
999.0
1000.0
1002.0
1004.0
1007.0
1010.0
1015.0
1016.0
1016.0
1015.0
1016.0
1014.0
1015.0
1012.0
1009.0
1010.0
1008.0
1012.0
1018.0
1017.0
1022.0
1022.0
1024.0
1026.0
1028.0
1027.0
1028.0
1025.0
1023.0
1024.0
1027.0
1028.0
1029.0
1026.0
1024.0
1023.0
1025.0
1024.0
1020.0
1018.0
1016.0
1015.0
1018.0
1013.0
1010.0
1005.0
1005.0
1002.0
1003.0
1000.0
996.0
993.0
992.0
991.0
991.0
990.0
987.0
983.0
982.0
982.0
984.0
981.0
980.0
977.0
977.0
980.0
981.0
981.0
980.0
976.0
978.0
978.0
982.0
980.0
982.0
975.0
977.0
977.0
979.0
978.0
980.0
978.0
976.0
979.0
981.0
979.0
979.0
978.0
979.0
980.0
982.0
984.0
979.0
980.0
980.0
981.0
984.0
984.0
987.0
982.0
979.0
984.0
983.0
983.0
983.0
979.0
981.0
982.0
986.0
986.0
982.0
980.0
981.0
983.0
987.0
987.0
985.0
983.0
983.0
984.0
987.0
986.0
985.0
982.0
984.0
985.0
986.0
986.0
985.0
983.0
983.0
984.0
987.0
986.0
984.0
981.0
984.0
987.0
985.0
984.0
984.0
982.0
982.0
984.0
987.0
985.0
984.0
981.0
981.0
982.0
983.0
982.0
981.0
980.0
980.0
981.0
983.0
982.0
982.0
980.0
981.0
981.0
982.0
981.0
981.0
979.0
979.0
982.0
984.0
983.0
981.0
978.0
977.0
979.0
980.0
980.0
979.0
978.0
978.0
980.0
982.0
980.0
978.0
979.0
978.0
980.0
980.0
981.0
980.0
976.0
976.0
979.0
981.0
979.0
978.0
978.0
979.0
978.0
980.0
979.0
978.0
975.0
977.0
979.0
980.0
979.0
976.0
978.0
977.0
979.0
980.0
979.0
979.0
977.0
978.0
979.0
981.0
981.0
978.0
977.0
978.0
977.0
979.0
977.0
978.0
976.0
977.0
977.0
980.0
979.0
978.0
977.0
979.0
979.0
981.0
981.0
979.0
975.0
975.0
977.0
981.0
982.0
980.0
979.0
978.0
978.0
982.0
981.0
981.0
980.0
979.0
980.0
982.0
982.0
978.0
979.0
979.0
981.0
982.0
983.0
980.0
978.0
980.0
982.0
983.0
981.0
981.0
979.0
979.0
980.0
983.0
981.0
979.0
981.0
978.0
980.0
983.0
982.0
981.0
980.0
979.0
981.0
983.0
982.0
981.0
980.0
979.0
981.0
983.0
982.0
981.0
980.0
982.0
982.0
984.0
983.0
982.0
980.0
980.0
982.0
984.0
983.0
981.0
981.0
982.0
982.0
983.0
984.0
982.0
980.0
982.0
981.0
984.0
984.0
983.0
980.0
980.0
982.0
983.0
984.0
985.0
980.0
980.0
984.0
988.0
985.0
983.0
982.0
982.0
982.0
984.0
983.0
983.0
983.0
985.0
986.0
987.0
986.0
984.0
985.0
984.0
984.0
988.0
986.0
986.0
984.0
984.0
986.0
987.0
988.0
988.0
986.0
987.0
988.0
988.0
988.0
988.0
987.0
985.0
989.0
990.0
987.0
988.0
987.0
987.0
988.0
990.0
991.0
988.0
988.0
987.0
989.0
989.0
988.0
989.0
988.0
987.0
988.0
989.0
991.0
990.0
989.0
988.0
991.0
991.0
993.0
990.0
987.0
988.0
990.0
991.0
992.0
991.0
987.0
988.0
988.0
992.0
993.0
991.0
989.0
990.0
992.0
991.0
992.0
992.0
990.0
987.0
990.0
990.0
990.0
992.0
989.0
990.0
991.0
992.0
993.0
990.0
992.0
991.0
993.0
995.0
993.0
994.0
993.0
993.0
994.0
996.0
994.0
994.0
993.0
992.0
995.0
996.0
994.0
993.0
991.0
992.0
994.0
997.0
995.0
992.0
993.0
994.0
993.0
995.0
994.0
993.0
993.0
994.0
994.0
997.0
995.0
994.0
991.0
995.0
995.0
995.0
995.0
993.0
992.0
995.0
994.0
995.0
994.0
992.0
993.0
993.0
995.0
996.0
995.0
994.0
993.0
993.0
995.0
997.0
996.0
994.0
992.0
993.0
993.0
995.0
995.0
994.0
995.0
994.0
996.0
997.0
995.0
997.0
995.0
996.0
996.0
997.0
997.0
996.0
995.0
997.0
997.0
998.0
999.0
997.0
995.0
994.0
996.0
999.0
998.0
997.0
997.0
996.0
997.0
998.0
997.0
996.0
996.0
997.0
997.0
998.0
999.0
999.0
998.0
999.0
997.0
999.0
999.0
998.0
997.0
997.0
997.0
1001.0
1000.0
998.0
997.0
998.0
1000.0
1001.0
1003.0
999.0
999.0
1001.0
1002.0
1008.0
1010.0
1010.0
1010.0
1012.0
1014.0
1019.0
1019.0
1019.0
1015.0
1016.0
1020.0
1020.0
1023.0
1022.0
1020.0
1017.0
1019.0
1019.0
1016.0
1014.0
1011.0
1010.0
1011.0
1012.0
1010.0
1007.0
1003.0
1002.0
999.0
1000.0
998.0
996.0
995.0
995.0
995.0
995.0
996.0
994.0
993.0
991.0
994.0
995.0
995.0
994.0
990.0
990.0
994.0
995.0
993.0
992.0
992.0
988.0
991.0
994.0
993.0
993.0
993.0
994.0
997.0
1005.0
1008.0
1013.0
1014.0
1019.0
1029.0
1047.0
1065.0
1084.0
1103.0
1127.0
1150.0
1166.0
1178.0
1192.0
1197.0
1188.0
1162.0
1130.0
1087.0
1053.0
1029.0
1010.0
998.0
991.0
990.0
992.0
996.0
997.0
996.0
995.0
991.0
986.0
984.0
983.0
983.0
983.0
984.0
982.0
978.0
979.0
980.0
982.0
982.0
980.0
979.0
980.0
982.0
982.0
984.0
980.0
980.0
981.0
982.0
983.0
983.0
984.0
982.0
981.0
983.0
985.0
984.0
984.0
982.0
985.0
987.0
988.0
989.0
987.0
985.0
988.0
990.0
992.0
992.0
990.0
989.0
991.0
994.0
995.0
996.0
995.0
993.0
996.0
998.0
1000.0
1001.0
1001.0
1000.0
1002.0
1004.0
1008.0
1007.0
1009.0
1009.0
1011.0
1012.0
1015.0
1017.0
1017.0
1017.0
1019.0
1021.0
1024.0
1023.0
1024.0
1024.0
1025.0
1028.0
1030.0
1030.0
1031.0
1031.0
1031.0
1034.0
1036.0
1033.0
1033.0
1030.0
1031.0
1031.0
1031.0
1031.0
1026.0
1025.0
1023.0
1022.0
1023.0
1021.0
1018.0
1014.0
1013.0
1011.0
1009.0
1006.0
1003.0
1002.0
1000.0
1000.0
1000.0
1000.0
998.0
998.0
996.0
997.0
998.0
996.0
994.0
994.0
993.0
995.0
995.0
995.0
993.0
991.0
993.0
994.0
996.0
994.0
994.0
992.0
992.0
993.0
996.0
995.0
992.0
992.0
992.0
994.0
995.0
993.0
990.0
988.0
990.0
991.0
993.0
991.0
991.0
990.0
992.0
992.0
994.0
994.0
992.0
987.0
988.0
991.0
992.0
990.0
990.0
987.0
989.0
991.0
989.0
991.0
988.0
987.0
989.0
989.0
991.0
989.0
988.0
988.0
989.0
989.0
990.0
989.0
988.0
987.0
986.0
988.0
987.0
990.0
988.0
986.0
986.0
986.0
989.0
988.0
987.0
986.0
986.0
987.0
990.0
988.0
987.0
984.0
985.0
986.0
987.0
986.0
986.0
981.0
983.0
982.0
986.0
984.0
983.0
982.0
981.0
982.0
985.0
983.0
983.0
981.0
980.0
983.0
986.0
984.0
983.0
981.0
982.0
981.0
985.0
984.0
984.0
981.0
982.0
981.0
984.0
984.0
982.0
980.0
977.0
981.0
983.0
981.0
982.0
979.0
982.0
983.0
985.0
984.0
981.0
981.0
979.0
982.0
983.0
983.0
982.0
981.0
981.0
981.0
983.0
982.0
981.0
981.0
981.0
982.0
984.0
984.0
982.0
979.0
979.0
981.0
982.0
980.0
978.0
979.0
979.0
978.0
980.0
981.0
980.0
979.0
980.0
976.0
980.0
981.0
979.0
981.0
980.0
980.0
984.0
983.0
980.0
980.0
979.0
980.0
983.0
982.0
981.0
979.0
979.0
980.0
983.0
982.0
980.0
979.0
977.0
979.0
981.0
980.0
979.0
979.0
977.0
981.0
984.0
982.0
980.0
978.0
978.0
980.0
981.0
980.0
980.0
978.0
979.0
980.0
983.0
983.0
980.0
979.0
981.0
981.0
983.0
984.0
982.0
981.0
985.0
987.0
989.0
993.0
993.0
993.0
993.0
994.0
999.0
1001.0
1000.0
998.0
999.0
1001.0
1005.0
1006.0
1006.0
1004.0
1003.0
1003.0
1000.0
999.0
996.0
996.0
993.0
993.0
994.0
991.0
989.0
986.0
986.0
983.0
984.0
981.0
981.0
979.0
979.0
978.0
979.0
977.0
978.0
976.0
977.0
976.0
978.0
978.0
976.0
976.0
976.0
977.0
979.0
979.0
977.0
976.0
977.0
975.0
977.0
977.0
977.0
976.0
976.0
977.0
980.0
981.0
981.0
980.0
987.0
990.0
994.0
998.0
1004.0
1015.0
1036.0
1060.0
1087.0
1111.0
1134.0
1148.0
1169.0
1191.0
1213.0
1225.0
1222.0
1203.0
1171.0
1126.0
1082.0
1039.0
1010.0
983.0
962.0
955.0
960.0
971.0
978.0
979.0
977.0
976.0
975.0
974.0
973.0
970.0
969.0
969.0
967.0
970.0
967.0
968.0
968.0
968.0
970.0
968.0
969.0
968.0
968.0
968.0
971.0
972.0
971.0
968.0
970.0
971.0
973.0
971.0
972.0
971.0
972.0
972.0
974.0
974.0
973.0
972.0
974.0
975.0
976.0
978.0
978.0
976.0
976.0
977.0
978.0
982.0
981.0
979.0
980.0
983.0
984.0
984.0
986.0
984.0
986.0
989.0
991.0
991.0
991.0
992.0
994.0
996.0
998.0
1000.0
1000.0
1001.0
1004.0
1005.0
1008.0
1010.0
1011.0
1011.0
1013.0
1016.0
1020.0
1021.0
1021.0
1019.0
1020.0
1023.0
1024.0
1025.0
1024.0
1025.0
1025.0
1025.0
1027.0
1027.0
1024.0
1022.0
1020.0
1020.0
1020.0
1017.0
1016.0
1014.0
1011.0
1010.0
1012.0
1008.0
1008.0
1004.0
1001.0
1003.0
1001.0
997.0
996.0
993.0
993.0
994.0
993.0
993.0
993.0
989.0
989.0
990.0
993.0
992.0
990.0
989.0
987.0
989.0
990.0
992.0
990.0
988.0
988.0
989.0
992.0
991.0
988.0
987.0
989.0
989.0
992.0
993.0
989.0
985.0
987.0
989.0
990.0
991.0
990.0
988.0
987.0
989.0
992.0
991.0
991.0
988.0
988.0
988.0
992.0
989.0
990.0
989.0
987.0
990.0
991.0
990.0
988.0
985.0
987.0
988.0
989.0
991.0
987.0
986.0
985.0
987.0
990.0
990.0
989.0
986.0
984.0
987.0
988.0
988.0
987.0
987.0
986.0
987.0
989.0
988.0
987.0
984.0
984.0
985.0
987.0
989.0
987.0
983.0
984.0
984.0
986.0
986.0
983.0
983.0
983.0
982.0
986.0
985.0
986.0
982.0
983.0
984.0
985.0
987.0
984.0
984.0
983.0
982.0
984.0
983.0
983.0
982.0
982.0
984.0
986.0
986.0
983.0
981.0
982.0
984.0
985.0
982.0
985.0
982.0
981.0
982.0
985.0
985.0
983.0
983.0
982.0
984.0
985.0
986.0
986.0
981.0
984.0
986.0
987.0
986.0
986.0
984.0
985.0
987.0
986.0
988.0
985.0
983.0
983.0
984.0
984.0
987.0
985.0
984.0
985.0
986.0
988.0
988.0
986.0
986.0
984.0
985.0
986.0
988.0
985.0
986.0
985.0
987.0
988.0
988.0
988.0
986.0
988.0
989.0
993.0
997.0
999.0
1004.0
1011.0
1020.0
1029.0
1034.0
1041.0
1046.0
1052.0
1054.0
1050.0
1040.0
1025.0
1008.0
988.0
965.0
939.0
906.0
879.0
868.0
873.0
886.0
896.0
898.0
900.0
902.0
903.0
904.0
905.0
904.0
905.0
906.0
907.0
913.0
914.0
912.0
909.0
901.0
902.0
903.0
908.0
912.0
916.0
923.0
935.0
951.0
967.0
980.0
987.0
991.0
992.0
996.0
999.0
1001.0
1003.0
1003.0
1004.0
1009.0
1013.0
1017.0
1016.0
1018.0
1023.0
1025.0
1028.0
1029.0
1028.0
1029.0
1033.0
1038.0
1040.0
1040.0
1041.0
1041.0
1045.0
1049.0
1050.0
1052.0
1050.0
1046.0
1047.0
1049.0
1053.0
1052.0
1052.0
1054.0
1055.0
1057.0
1058.0
1059.0
1056.0
1057.0
1058.0
1060.0
1061.0
1062.0
1064.0
1066.0
1068.0
1070.0
1074.0
1077.0
1079.0
1078.0
1085.0
1089.0
1093.0
1096.0
1099.0
1099.0
1103.0
1105.0
1112.0
1114.0
1115.0
1118.0
1120.0
1123.0
1126.0
1127.0
1124.0
1123.0
1123.0
1123.0
1122.0
1118.0
1114.0
1110.0
1104.0
1102.0
1099.0
1091.0
1085.0
1078.0
1070.0
1065.0
1062.0
1058.0
1048.0
1042.0
1037.0
1033.0
1029.0
1024.0
1018.0
1012.0
1009.0
1005.0
1004.0
1002.0
996.0
992.0
991.0
989.0
989.0
988.0
986.0
984.0
984.0
984.0
985.0
983.0
981.0
979.0
981.0
985.0
986.0
985.0
982.0
981.0
982.0
982.0
983.0
982.0
982.0
980.0
981.0
984.0
982.0
984.0
980.0
977.0
982.0
983.0
984.0
982.0
984.0
981.0
981.0
984.0
982.0
980.0
982.0
982.0
982.0
982.0
984.0
983.0
981.0
979.0
981.0
978.0
981.0
979.0
979.0
978.0
980.0
980.0
981.0
980.0
979.0
978.0
978.0
980.0
980.0
979.0
978.0
977.0
978.0
978.0
978.0
977.0
978.0
974.0
977.0
978.0
978.0
979.0
978.0
975.0
975.0
977.0
978.0
975.0
976.0
974.0
975.0
978.0
978.0
977.0
977.0
974.0
975.0
976.0
977.0
978.0
976.0
973.0
974.0
974.0
975.0
976.0
975.0
974.0
975.0
976.0
978.0
979.0
978.0
973.0
974.0
976.0
978.0
977.0
976.0
974.0
976.0
977.0
979.0
976.0
975.0
973.0
975.0
976.0
978.0
977.0
976.0
974.0
976.0
977.0
977.0
977.0
977.0
974.0
976.0
976.0
978.0
979.0
976.0
975.0
975.0
976.0
979.0
979.0
976.0
973.0
972.0
977.0
977.0
976.0
975.0
974.0
971.0
977.0
977.0
978.0
976.0
973.0
973.0
975.0
977.0
977.0
974.0
973.0
974.0
976.0
978.0
976.0
975.0
971.0
972.0
974.0
978.0
976.0
977.0
973.0
975.0
974.0
975.0
976.0
975.0
972.0
973.0
975.0
976.0
976.0
974.0
974.0
975.0
975.0
979.0
979.0
976.0
973.0
975.0
976.0
976.0
979.0
977.0
976.0
975.0
976.0
977.0
977.0
977.0
975.0
977.0
977.0
979.0
978.0
977.0
976.0
974.0
977.0
979.0
978.0
978.0
977.0
978.0
979.0
980.0
978.0
978.0
975.0
976.0
979.0
979.0
980.0
977.0
978.0
977.0
978.0
980.0
981.0
977.0
975.0
980.0
981.0
982.0
980.0
979.0
976.0
977.0
979.0
982.0
981.0
978.0
977.0
975.0
977.0
979.0
981.0
981.0
980.0
979.0
979.0
982.0
981.0
981.0
978.0
979.0
980.0
982.0
982.0
983.0
977.0
978.0
979.0
981.0
980.0
980.0
977.0
979.0
980.0
982.0
982.0
982.0
979.0
980.0
982.0
983.0
983.0
981.0
980.0
981.0
980.0
980.0
981.0
981.0
979.0
981.0
982.0
984.0
983.0
982.0
981.0
982.0
981.0
984.0
983.0
981.0
978.0
982.0
981.0
984.0
984.0
984.0
980.0
982.0
984.0
985.0
982.0
982.0
981.0
981.0
981.0
984.0
983.0
982.0
980.0
983.0
985.0
984.0
985.0
980.0
980.0
983.0
982.0
984.0
982.0
984.0
981.0
983.0
986.0
984.0
986.0
982.0
981.0
984.0
985.0
987.0
987.0
987.0
985.0
986.0
987.0
990.0
994.0
993.0
993.0
994.0
996.0
999.0
1000.0
1000.0
1000.0
1004.0
1004.0
1006.0
1008.0
1008.0
1008.0
1009.0
1010.0
1006.0
1007.0
1004.0
1002.0
1002.0
1001.0
1002.0
1001.0
997.0
993.0
993.0
993.0
991.0
992.0
987.0
984.0
984.0
984.0
983.0
983.0
982.0
979.0
980.0
981.0
983.0
982.0
982.0
980.0
982.0
981.0
983.0
984.0
981.0
980.0
979.0
982.0
983.0
984.0
981.0
979.0
980.0
982.0
985.0
985.0
986.0
986.0
985.0
993.0
998.0
1002.0
1001.0
1002.0
1014.0
1029.0
1048.0
1072.0
1097.0
1118.0
1141.0
1162.0
1182.0
1203.0
1222.0
1226.0
1219.0
1198.0
1160.0
1112.0
1072.0
1038.0
1014.0
992.0
976.0
971.0
974.0
981.0
988.0
990.0
989.0
989.0
987.0
981.0
980.0
982.0
980.0
982.0
980.0
977.0
977.0
977.0
979.0
979.0
979.0
974.0
976.0
980.0
983.0
981.0
980.0
977.0
978.0
979.0
983.0
981.0
982.0
979.0
981.0
982.0
985.0
986.0
985.0
982.0
984.0
984.0
986.0
987.0
987.0
985.0
985.0
988.0
991.0
991.0
989.0
989.0
991.0
991.0
994.0
995.0
993.0
994.0
994.0
995.0
998.0
998.0
998.0
997.0
999.0
1001.0
1003.0
1004.0
1005.0
1003.0
1006.0
1009.0
1011.0
1011.0
1011.0
1012.0
1013.0
1016.0
1017.0
1019.0
1020.0
1017.0
1020.0
1023.0
1026.0
1025.0
1024.0
1025.0
1026.0
1028.0
1030.0
1028.0
1031.0
1028.0
1031.0
1033.0
1033.0
1035.0
1034.0
1032.0
1033.0
1033.0
1033.0
1034.0
1031.0
1029.0
1028.0
1029.0
1028.0
1025.0
1024.0
1022.0
1019.0
1017.0
1016.0
1017.0
1015.0
1011.0
1010.0
1010.0
1009.0
1009.0
1006.0
1003.0
1006.0
1005.0
1005.0
1004.0
1003.0
1004.0
1004.0
1005.0
1005.0
1004.0
1002.0
1001.0
1002.0
1003.0
1007.0
1004.0
1002.0
1001.0
1001.0
1003.0
1002.0
1001.0
1002.0
999.0
1003.0
1005.0
1005.0
1006.0
1004.0
1000.0
1001.0
1004.0
1004.0
1003.0
1003.0
1002.0
1001.0
1002.0
1005.0
1004.0
1002.0
1000.0
1004.0
1002.0
1003.0
1004.0
1000.0
998.0
1001.0
1001.0
1004.0
1003.0
1002.0
1000.0
1000.0
1002.0
1003.0
1003.0
999.0
997.0
1000.0
1000.0
1002.0
1002.0
999.0
998.0
998.0
999.0
1000.0
1000.0
998.0
996.0
995.0
999.0
1000.0
999.0
998.0
996.0
995.0
998.0
998.0
999.0
997.0
995.0
996.0
997.0
999.0
1000.0
997.0
994.0
995.0
996.0
999.0
999.0
996.0
995.0
995.0
996.0
998.0
999.0
994.0
993.0
995.0
997.0
998.0
996.0
994.0
992.0
992.0
995.0
996.0
997.0
994.0
992.0
995.0
996.0
996.0
996.0
994.0
993.0
995.0
997.0
998.0
997.0
996.0
995.0
995.0
997.0
998.0
999.0
995.0
995.0
995.0
997.0
997.0
997.0
995.0
995.0
995.0
997.0
997.0
997.0
995.0
994.0
995.0
997.0
996.0
996.0
994.0
994.0
995.0
997.0
998.0
998.0
997.0
995.0
994.0
995.0
996.0
995.0
995.0
993.0
994.0
997.0
997.0
998.0
1000.0
996.0
997.0
998.0
997.0
1000.0
998.0
995.0
998.0
996.0
997.0
999.0
999.0
996.0
995.0
995.0
997.0
998.0
998.0
995.0
996.0
997.0
999.0
999.0
997.0
996.0
995.0
996.0
997.0
997.0
997.0
995.0
996.0
995.0
998.0
999.0
997.0
995.0
996.0
998.0
999.0
998.0
997.0
995.0
997.0
998.0
1001.0
1002.0
1000.0
1000.0
1000.0
1005.0
1010.0
1011.0
1010.0
1009.0
1010.0
1013.0
1018.0
1019.0
1018.0
1015.0
1015.0
1018.0
1021.0
1022.0
1019.0
1018.0
1017.0
1017.0
1017.0
1016.0
1013.0
1008.0
1008.0
1011.0
1012.0
1011.0
1005.0
1000.0
1001.0
998.0
998.0
997.0
994.0
992.0
991.0
992.0
992.0
994.0
989.0
988.0
989.0
991.0
992.0
991.0
990.0
986.0
987.0
991.0
991.0
990.0
989.0
986.0
988.0
990.0
991.0
988.0
987.0
987.0
990.0
993.0
996.0
998.0
999.0
1004.0
1005.0
1009.0
1016.0
1031.0
1047.0
1066.0
1088.0
1113.0
1136.0
1155.0
1174.0
1193.0
1209.0
1205.0
1186.0
1155.0
1119.0
1080.0
1047.0
1021.0
1003.0
989.0
984.0
987.0
996.0
998.0
998.0
996.0
991.0
988.0
987.0
988.0
987.0
983.0
983.0
980.0
980.0
982.0
982.0
984.0
983.0
982.0
981.0
981.0
981.0
983.0
983.0
982.0
982.0
983.0
986.0
986.0
984.0
982.0
983.0
982.0
984.0
986.0
985.0
984.0
986.0
986.0
991.0
989.0
986.0
986.0
986.0
988.0
989.0
989.0
988.0
989.0
988.0
992.0
993.0
995.0
994.0
993.0
995.0
996.0
997.0
999.0
1000.0
998.0
998.0
1002.0
1004.0
1005.0
1005.0
1003.0
1005.0
1008.0
1011.0
1012.0
1013.0
1014.0
1016.0
1017.0
1021.0
1021.0
1022.0
1022.0
1020.0
1025.0
1024.0
1026.0
1028.0
1026.0
1027.0
1030.0
1031.0
1032.0
1030.0
1031.0
1030.0
1030.0
1030.0
1030.0
1027.0
1024.0
1023.0
1023.0
1022.0
1021.0
1017.0
1012.0
1011.0
1011.0
1011.0
1008.0
1006.0
1003.0
1002.0
1000.0
1001.0
1000.0
998.0
996.0
996.0
996.0
997.0
995.0
994.0
991.0
991.0
994.0
995.0
994.0
993.0
990.0
992.0
992.0
994.0
995.0
992.0
990.0
991.0
992.0
994.0
991.0
991.0
988.0
988.0
990.0
994.0
992.0
990.0
988.0
991.0
992.0
992.0
993.0
991.0
989.0
992.0
993.0
992.0
992.0
989.0
986.0
990.0
992.0
993.0
991.0
989.0
987.0
989.0
990.0
991.0
991.0
990.0
989.0
990.0
991.0
990.0
991.0
990.0
987.0
988.0
989.0
989.0
990.0
990.0
987.0
985.0
986.0
987.0
987.0
988.0
985.0
988.0
987.0
989.0
989.0
987.0
985.0
985.0
986.0
988.0
988.0
986.0
985.0
984.0
987.0
985.0
984.0
985.0
983.0
983.0
982.0
987.0
985.0
983.0
984.0
984.0
987.0
988.0
983.0
983.0
981.0
983.0
984.0
984.0
984.0
982.0
981.0
984.0
984.0
986.0
984.0
984.0
981.0
982.0
983.0
983.0
984.0
984.0
979.0
981.0
982.0
983.0
981.0
982.0
983.0
983.0
985.0
986.0
985.0
984.0
982.0
983.0
982.0
984.0
985.0
985.0
981.0
983.0
982.0
984.0
984.0
983.0
982.0
983.0
984.0
985.0
985.0
984.0
981.0
983.0
982.0
984.0
983.0
984.0
982.0
982.0
984.0
987.0
986.0
984.0
981.0
982.0
984.0
985.0
986.0
986.0
987.0
990.0
997.0
1003.0
1010.0
1015.0
1023.0
1032.0
1039.0
1049.0
1056.0
1054.0
1044.0
1031.0
1017.0
993.0
962.0
927.0
894.0
878.0
880.0
892.0
900.0
903.0
907.0
909.0
913.0
914.0
914.0
913.0
917.0
920.0
924.0
926.0
924.0
918.0
913.0
912.0
917.0
920.0
927.0
936.0
948.0
967.0
985.0
1000.0
1006.0
1009.0
1008.0
1008.0
1015.0
1019.0
1020.0
1023.0
1021.0
1021.0
1022.0
1024.0
1022.0
1023.0
1020.0
1022.0
1021.0
1022.0
1019.0
1020.0
1018.0
1018.0
1019.0
1018.0
1019.0
1019.0
1017.0
1018.0
1021.0
1023.0
1025.0
1025.0
1024.0
1030.0
1032.0
1032.0
1036.0
1038.0
1038.0
1042.0
1046.0
1052.0
1057.0
1057.0
1061.0
1066.0
1070.0
1075.0
1079.0
1083.0
1084.0
1089.0
1095.0
1101.0
1103.0
1107.0
1109.0
1113.0
1116.0
1122.0
1125.0
1124.0
1123.0
1123.0
1125.0
1124.0
1122.0
1118.0
1115.0
1111.0
1108.0
1104.0
1098.0
1092.0
1083.0
1079.0
1073.0
1068.0
1059.0
1052.0
1046.0
1041.0
1036.0
1032.0
1027.0
1021.0
1014.0
1010.0
1009.0
1006.0
1003.0
997.0
995.0
993.0
994.0
993.0
991.0
990.0
987.0
985.0
986.0
987.0
988.0
986.0
985.0
988.0
987.0
986.0
987.0
985.0
982.0
982.0
986.0
985.0
986.0
983.0
983.0
984.0
984.0
986.0
987.0
986.0
982.0
983.0
986.0
987.0
986.0
986.0
983.0
984.0
983.0
986.0
988.0
984.0
982.0
983.0
984.0
986.0
984.0
985.0
982.0
982.0
984.0
984.0
984.0
982.0
981.0
981.0
984.0
984.0
982.0
981.0
980.0
981.0
982.0
983.0
980.0
981.0
978.0
978.0
980.0
981.0
980.0
979.0
978.0
977.0
978.0
981.0
980.0
978.0
978.0
976.0
977.0
980.0
981.0
979.0
978.0
976.0
977.0
980.0
979.0
977.0
976.0
978.0
979.0
979.0
980.0
978.0
977.0
977.0
978.0
979.0
978.0
977.0
975.0
976.0
977.0
979.0
979.0
977.0
973.0
975.0
977.0
979.0
978.0
977.0
974.0
976.0
978.0
978.0
978.0
976.0
973.0
975.0
976.0
979.0
978.0
976.0
973.0
975.0
976.0
978.0
977.0
975.0
974.0
974.0
976.0
978.0
979.0
976.0
975.0
975.0
977.0
979.0
978.0
977.0
976.0
976.0
976.0
978.0
978.0
977.0
973.0
976.0
978.0
978.0
977.0
974.0
974.0
975.0
976.0
978.0
977.0
976.0
974.0
977.0
978.0
978.0
978.0
976.0
974.0
974.0
978.0
977.0
977.0
976.0
974.0
976.0
977.0
979.0
978.0
976.0
974.0
976.0
978.0
979.0
979.0
977.0
972.0
976.0
978.0
978.0
977.0
977.0
975.0
976.0
977.0
978.0
977.0
974.0
972.0
973.0
977.0
979.0
977.0
976.0
975.0
977.0
980.0
978.0
978.0
976.0
975.0
976.0
976.0
977.0
978.0
975.0
976.0
977.0
979.0
980.0
979.0
978.0
977.0
977.0
978.0
979.0
980.0
979.0
977.0
980.0
980.0
981.0
979.0
979.0
978.0
979.0
978.0
980.0
979.0
978.0
977.0
977.0
979.0
981.0
981.0
978.0
979.0
978.0
980.0
982.0
978.0
979.0
977.0
978.0
980.0
980.0
981.0
978.0
978.0
980.0
981.0
981.0
982.0
981.0
978.0
978.0
980.0
980.0
982.0
980.0
978.0
980.0
981.0
983.0
981.0
980.0
978.0
981.0
981.0
980.0
982.0
981.0
982.0
980.0
981.0
984.0
983.0
981.0
981.0
982.0
984.0
984.0
983.0
982.0
981.0
984.0
983.0
985.0
985.0
983.0
982.0
983.0
985.0
987.0
985.0
984.0
983.0
986.0
987.0
990.0
989.0
989.0
989.0
993.0
996.0
999.0
1000.0
999.0
998.0
1000.0
1003.0
1006.0
1009.0
1004.0
1002.0
1005.0
1008.0
1010.0
1009.0
1008.0
1005.0
1002.0
1003.0
1004.0
1004.0
1001.0
998.0
999.0
1000.0
1001.0
998.0
995.0
989.0
991.0
991.0
988.0
987.0
983.0
982.0
982.0
983.0
983.0
984.0
980.0
977.0
979.0
978.0
981.0
981.0
978.0
976.0
977.0
979.0
980.0
981.0
980.0
977.0
979.0
979.0
982.0
983.0
980.0
977.0
978.0
981.0
980.0
983.0
983.0
984.0
988.0
992.0
995.0
999.0
997.0
1002.0
1018.0
1034.0
1054.0
1073.0
1094.0
1112.0
1129.0
1145.0
1163.0
1184.0
1197.0
1195.0
1176.0
1145.0
1108.0
1068.0
1038.0
1013.0
996.0
981.0
975.0
976.0
983.0
986.0
988.0
988.0
