# Simple Text Format
# Sampling Rate (Hz):= 360.00
# Resolution:= 12
# Labels:= ECG
979.0
983.0
981.0
978.0
976.0
978.0
982.0
980.0
982.0
984.0
979.0
981.0
983.0
982.0
982.0
979.0
976.0
978.0
982.0
982.0
982.0
979.0
978.0
981.0
986.0
988.0
988.0
988.0
989.0
994.0
996.0
999.0
996.0
998.0
1000.0
1004.0
1009.0
1013.0
1011.0
1008.0
1007.0
1010.0
1009.0
1008.0
1002.0
996.0
996.0
996.0
995.0
991.0
985.0
980.0
979.0
979.0
979.0
978.0
976.0
971.0
970.0
970.0
977.0
975.0
973.0
967.0
969.0
970.0
971.0
971.0
970.0
966.0
966.0
967.0
968.0
971.0
966.0
967.0
966.0
970.0
972.0
970.0
968.0
964.0
963.0
964.0
969.0
967.0
965.0
969.0
981.0
1001.0
1027.0
1061.0
1100.0
1150.0
1201.0
1256.0
1301.0
1320.0
1300.0
1240.0
1174.0
1104.0
1046.0
1008.0
987.0
974.0
967.0
965.0
967.0
972.0
975.0
970.0
967.0
965.0
969.0
970.0
969.0
966.0
964.0
963.0
963.0
967.0
967.0
964.0
963.0
965.0
967.0
966.0
965.0
963.0
965.0
963.0
970.0
976.0
973.0
969.0
967.0
971.0
973.0
975.0
972.0
967.0
967.0
968.0
970.0
972.0
971.0
971.0
971.0
975.0
977.0
981.0
981.0
977.0
981.0
984.0
991.0
991.0
987.0
987.0
985.0
993.0
998.0
1004.0
1006.0
1005.0
1008.0
1011.0
1017.0
1020.0
1022.0
1023.0
1026.0
1032.0
1036.0
1036.0
1036.0
1035.0
1038.0
1046.0
1053.0
1053.0
1054.0
1054.0
1050.0
1054.0
1057.0
1057.0
1053.0
1049.0
1044.0
1042.0
1042.0
1036.0
1027.0
1022.0
1015.0
1007.0
1006.0
1002.0
996.0
985.0
981.0
980.0
978.0
974.0
971.0
963.0
961.0
960.0
961.0
963.0
961.0
957.0
956.0
955.0
959.0
959.0
954.0
951.0
949.0
950.0
952.0
952.0
949.0
946.0
946.0
947.0
950.0
950.0
951.0
946.0
949.0
952.0
957.0
956.0
951.0
946.0
944.0
948.0
952.0
952.0
951.0
951.0
951.0
951.0
953.0
954.0
952.0
949.0
949.0
950.0
950.0
952.0
951.0
950.0
950.0
950.0
956.0
956.0
953.0
951.0
951.0
952.0
962.0
965.0
964.0
962.0
962.0
966.0
969.0
973.0
975.0
975.0
977.0
977.0
980.0
981.0
978.0
976.0
971.0
970.0
970.0
967.0
969.0
967.0
968.0
974.0
987.0
992.0
1002.0
1012.0
1021.0
1032.0
1045.0
1058.0
1071.0
1083.0
1094.0
1110.0
1123.0
1141.0
1158.0
1171.0
1187.0
1207.0
1231.0
1254.0
1267.0
1268.0
1265.0
1257.0
1247.0
1243.0
1235.0
1224.0
1217.0
1219.0
1223.0
1219.0
1213.0
1210.0
1209.0
1214.0
1222.0
1220.0
1211.0
1191.0
1160.0
1124.0
1077.0
1030.0
988.0
956.0
932.0
918.0
910.0
902.0
895.0
890.0
885.0
880.0
879.0
876.0
870.0
866.0
862.0
865.0
869.0
871.0
865.0
862.0
861.0
862.0
860.0
860.0
857.0
851.0
848.0
850.0
851.0
851.0
852.0
847.0
842.0
844.0
843.0
844.0
842.0
838.0
833.0
834.0
834.0
835.0
831.0
827.0
825.0
826.0
828.0
829.0
824.0
821.0
822.0
823.0
828.0
830.0
830.0
827.0
823.0
825.0
828.0
831.0
831.0
830.0
834.0
843.0
848.0
854.0
856.0
858.0
861.0
870.0
874.0
879.0
881.0
886.0
889.0
893.0
902.0
910.0
913.0
913.0
916.0
921.0
929.0
931.0
930.0
928.0
927.0
927.0
931.0
931.0
931.0
927.0
925.0
927.0
927.0
926.0
924.0
925.0
923.0
920.0
925.0
925.0
921.0
920.0
917.0
917.0
920.0
922.0
919.0
915.0
914.0
919.0
921.0
924.0
920.0
919.0
916.0
918.0
919.0
919.0
914.0
915.0
912.0
914.0
919.0
922.0
921.0
918.0
918.0
919.0
922.0
923.0
923.0
918.0
915.0
914.0
920.0
922.0
922.0
920.0
921.0
925.0
928.0
931.0
928.0
928.0
924.0
927.0
932.0
932.0
931.0
928.0
926.0
924.0
930.0
932.0
931.0
930.0
929.0
931.0
937.0
939.0
939.0
938.0
940.0
943.0
946.0
948.0
946.0
942.0
950.0
956.0
966.0
968.0
966.0
962.0
961.0
962.0
963.0
965.0
959.0
954.0
947.0
947.0
949.0
949.0
945.0
941.0
937.0
937.0
938.0
939.0
936.0
933.0
930.0
929.0
935.0
933.0
933.0
931.0
933.0
934.0
935.0
935.0
937.0
932.0
932.0
933.0
937.0
938.0
935.0
933.0
933.0
934.0
936.0
935.0
936.0
932.0
939.0
953.0
974.0
1007.0
1044.0
1089.0
1144.0
1199.0
1256.0
1295.0
1291.0
1235.0
1161.0
1091.0
1024.0
975.0
952.0
943.0
938.0
933.0
937.0
940.0
942.0
941.0
937.0
937.0
942.0
941.0
938.0
935.0
935.0
937.0
939.0
939.0
940.0
936.0
935.0
936.0
939.0
942.0
943.0
942.0
941.0
942.0
944.0
947.0
946.0
941.0
940.0
944.0
947.0
949.0
947.0
946.0
946.0
946.0
955.0
955.0
956.0
953.0
955.0
958.0
965.0
966.0
965.0
961.0
961.0
969.0
971.0
978.0
980.0
981.0
985.0
990.0
994.0
1000.0
999.0
1002.0
1004.0
1008.0
1016.0
1019.0
1024.0
1024.0
1025.0
1033.0
1039.0
1043.0
1047.0
1046.0
1046.0
1049.0
1050.0
1053.0
1050.0
1045.0
1040.0
1039.0
1039.0
1035.0
1031.0
1023.0
1014.0
1016.0
1010.0
1005.0
999.0
989.0
984.0
978.0
975.0
973.0
965.0
958.0
952.0
952.0
954.0
954.0
952.0
947.0
946.0
947.0
948.0
945.0
946.0
943.0
942.0
941.0
943.0
943.0
941.0
937.0
935.0
939.0
944.0
946.0
942.0
939.0
942.0
943.0
945.0
945.0
942.0
939.0
939.0
940.0
945.0
947.0
946.0
943.0
944.0
946.0
947.0
949.0
946.0
945.0
944.0
942.0
946.0
948.0
946.0
944.0
943.0
945.0
945.0
946.0
949.0
946.0
942.0
945.0
948.0
950.0
951.0
948.0
951.0
952.0
959.0
959.0
960.0
958.0
961.0
965.0
971.0
975.0
975.0
972.0
972.0
974.0
974.0
972.0
971.0
963.0
955.0
957.0
960.0
960.0
953.0
948.0
947.0
949.0
948.0
949.0
945.0
939.0
935.0
938.0
940.0
941.0
939.0
936.0
936.0
937.0
940.0
937.0
942.0
937.0
936.0
937.0
939.0
940.0
940.0
937.0
936.0
936.0
941.0
943.0
942.0
940.0
943.0
941.0
942.0
943.0
949.0
967.0
989.0
1020.0
1063.0
1106.0
1150.0
1193.0
1237.0
1271.0
1283.0
1243.0
1177.0
1095.0
1027.0
987.0
967.0
957.0
951.0
938.0
935.0
938.0
948.0
951.0
949.0
942.0
939.0
936.0
939.0
935.0
937.0
931.0
935.0
937.0
940.0
941.0
941.0
937.0
937.0
937.0
938.0
939.0
942.0
941.0
939.0
943.0
947.0
948.0
947.0
944.0
944.0
946.0
950.0
953.0
952.0
949.0
945.0
948.0
956.0
955.0
956.0
958.0
958.0
961.0
963.0
967.0
968.0
968.0
968.0
971.0
978.0
982.0
983.0
986.0
989.0
994.0
999.0
1006.0
1007.0
1008.0
1011.0
1016.0
1018.0
1024.0
1025.0
1027.0
1029.0
1032.0
1035.0
1039.0
1041.0
1040.0
1036.0
1038.0
1038.0
1039.0
1037.0
1026.0
1023.0
1018.0
1013.0
1010.0
1003.0
997.0
989.0
985.0
978.0
976.0
968.0
963.0
954.0
954.0
953.0
950.0
947.0
945.0
942.0
943.0
946.0
947.0
945.0
942.0
941.0
943.0
943.0
945.0
941.0
936.0
935.0
938.0
939.0
942.0
941.0
939.0
939.0
941.0
941.0
943.0
940.0
934.0
938.0
939.0
942.0
942.0
942.0
939.0
938.0
942.0
945.0
946.0
945.0
942.0
941.0
942.0
943.0
945.0
944.0
942.0
941.0
941.0
944.0
946.0
949.0
944.0
942.0
943.0
946.0
947.0
945.0
944.0
942.0
943.0
946.0
950.0
951.0
948.0
949.0
956.0
958.0
960.0
961.0
958.0
963.0
968.0
973.0
974.0
976.0
982.0
992.0
1001.0
1011.0
1022.0
1028.0
1036.0
1044.0
1055.0
1067.0
1080.0
1091.0
1100.0
1108.0
1121.0
1139.0
1155.0
1167.0
1177.0
1191.0
1206.0
1225.0
1240.0
1243.0
1235.0
1226.0
1218.0
1215.0
1211.0
1205.0
1197.0
1195.0
1198.0
1201.0
1196.0
1190.0
1187.0
1185.0
1191.0
1195.0
1196.0
1187.0
1168.0
1139.0
1104.0
1061.0
1022.0
984.0
956.0
933.0
916.0
909.0
902.0
895.0
885.0
882.0
877.0
876.0
877.0
874.0
868.0
865.0
862.0
864.0
865.0
864.0
861.0
858.0
859.0
857.0
859.0
856.0
852.0
845.0
851.0
852.0
850.0
849.0
850.0
845.0
845.0
847.0
847.0
842.0
840.0
836.0
838.0
841.0
837.0
840.0
834.0
827.0
831.0
836.0
836.0
836.0
833.0
832.0
834.0
838.0
839.0
837.0
837.0
834.0
839.0
841.0
844.0
843.0
843.0
845.0
849.0
853.0
859.0
861.0
863.0
866.0
872.0
879.0
886.0
890.0
893.0
895.0
903.0
909.0
916.0
917.0
919.0
920.0
925.0
930.0
933.0
930.0
930.0
927.0
928.0
931.0
933.0
929.0
926.0
925.0
926.0
926.0
928.0
928.0
923.0
919.0
921.0
925.0
927.0
923.0
919.0
917.0
919.0
921.0
924.0
919.0
918.0
919.0
920.0
923.0
923.0
925.0
922.0
919.0
921.0
924.0
926.0
924.0
921.0
916.0
918.0
921.0
926.0
927.0
924.0
925.0
926.0
930.0
931.0
930.0
926.0
927.0
928.0
930.0
931.0
933.0
930.0
928.0
930.0
933.0
936.0
937.0
932.0
935.0
935.0
938.0
940.0
939.0
938.0
934.0
934.0
938.0
939.0
941.0
939.0
937.0
940.0
944.0
945.0
941.0
938.0
934.0
936.0
941.0
940.0
941.0
937.0
939.0
940.0
942.0
942.0
942.0
941.0
937.0
939.0
943.0
943.0
944.0
941.0
938.0
939.0
944.0
948.0
946.0
948.0
948.0
952.0
956.0
959.0
959.0
957.0
954.0
957.0
961.0
967.0
969.0
971.0
969.0
972.0
976.0
976.0
974.0
967.0
964.0
962.0
964.0
963.0
958.0
952.0
951.0
951.0
953.0
955.0
954.0
948.0
947.0
944.0
949.0
950.0
948.0
945.0
943.0
944.0
948.0
946.0
949.0
945.0
946.0
949.0
952.0
954.0
954.0
950.0
948.0
951.0
953.0
955.0
957.0
951.0
946.0
945.0
950.0
966.0
987.0
1013.0
1046.0
1095.0
1152.0
1210.0
1257.0
1290.0
1291.0
1247.0
1173.0
1090.0
1018.0
970.0
949.0
949.0
949.0
952.0
957.0
957.0
959.0
958.0
959.0
957.0
954.0
954.0
952.0
955.0
956.0
957.0
958.0
954.0
952.0
955.0
959.0
960.0
959.0
959.0
957.0
956.0
957.0
960.0
962.0
959.0
960.0
963.0
966.0
968.0
969.0
967.0
963.0
966.0
968.0
973.0
971.0
968.0
966.0
969.0
973.0
976.0
979.0
980.0
981.0
983.0
986.0
991.0
990.0
989.0
991.0
993.0
998.0
1002.0
1002.0
1005.0
1007.0
1012.0
1019.0
1024.0
1027.0
1024.0
1026.0
1032.0
1039.0
1044.0
1046.0
1046.0
1048.0
1053.0
1057.0
1065.0
1067.0
1065.0
1065.0
1066.0
1072.0
1074.0
1071.0
1063.0
1059.0
1057.0
1056.0
1049.0
1044.0
1037.0
1029.0
1029.0
1027.0
1022.0
1016.0
1007.0
1000.0
996.0
993.0
992.0
986.0
978.0
973.0
972.0
975.0
973.0
973.0
970.0
967.0
969.0
971.0
971.0
970.0
965.0
963.0
963.0
968.0
968.0
967.0
963.0
960.0
959.0
966.0
970.0
969.0
968.0
964.0
965.0
968.0
970.0
970.0
965.0
962.0
965.0
968.0
968.0
969.0
970.0
967.0
969.0
969.0
972.0
973.0
969.0
967.0
970.0
973.0
974.0
971.0
968.0
966.0
967.0
974.0
975.0
974.0
972.0
971.0
971.0
973.0
978.0
976.0
976.0
976.0
980.0
984.0
987.0
988.0
988.0
988.0
992.0
998.0
1000.0
1001.0
998.0
996.0
996.0
998.0
1002.0
999.0
992.0
987.0
988.0
987.0
988.0
984.0
978.0
974.0
975.0
974.0
977.0
974.0
971.0
967.0
966.0
967.0
969.0
970.0
968.0
969.0
970.0
971.0
973.0
970.0
967.0
964.0
965.0
971.0
972.0
968.0
968.0
966.0
967.0
972.0
976.0
972.0
968.0
967.0
970.0
987.0
1011.0
1039.0
1078.0
1123.0
1174.0
1232.0
1285.0
1315.0
1306.0
1254.0
1180.0
1110.0
1049.0
1005.0
986.0
976.0
968.0
969.0
973.0
977.0
976.0
973.0
972.0
975.0
978.0
974.0
969.0
969.0
970.0
969.0
971.0
975.0
973.0
971.0
972.0
975.0
981.0
982.0
976.0
976.0
978.0
982.0
982.0
985.0
983.0
979.0
979.0
981.0
987.0
988.0
987.0
985.0
986.0
993.0
996.0
997.0
997.0
995.0
997.0
1001.0
1003.0
1007.0
1008.0
1010.0
1013.0
1019.0
1024.0
1026.0
1026.0
1027.0
1031.0
1038.0
1040.0
1043.0
1045.0
1046.0
1048.0
1058.0
1064.0
1067.0
1067.0
1071.0
1070.0
1075.0
1080.0
1082.0
1081.0
1078.0
1079.0
1077.0
1074.0
1071.0
1062.0
1055.0
1049.0
1043.0
1038.0
1025.0
1017.0
1009.0
1005.0
1002.0
996.0
996.0
992.0
986.0
986.0
986.0
985.0
985.0
982.0
981.0
979.0
982.0
985.0
986.0
985.0
983.0
980.0
983.0
987.0
981.0
982.0
980.0
981.0
983.0
984.0
987.0
984.0
981.0
984.0
988.0
990.0
989.0
986.0
985.0
986.0
989.0
988.0
989.0
984.0
982.0
983.0
988.0
988.0
990.0
985.0
988.0
986.0
989.0
991.0
990.0
989.0
987.0
988.0
989.0
992.0
993.0
990.0
993.0
997.0
1001.0
1006.0
1006.0
1004.0
1002.0
1006.0
1007.0
1017.0
1020.0
1021.0
1023.0
1026.0
1037.0
1047.0
1055.0
1063.0
1065.0
1077.0
1086.0
1101.0
1109.0
1115.0
1125.0
1135.0
1147.0
1156.0
1164.0
1171.0
1179.0
1194.0
1210.0
1224.0
1238.0
1255.0
1271.0
1278.0
1276.0
1269.0
1256.0
1244.0
1235.0
1233.0
1230.0
1237.0
1238.0
1235.0
1231.0
1231.0
1232.0
1231.0
1232.0
1233.0
1231.0
1222.0
1210.0
1189.0
1158.0
1110.0
1063.0
1024.0
999.0
981.0
965.0
953.0
943.0
940.0
939.0
936.0
931.0
927.0
924.0
920.0
919.0
918.0
919.0
920.0
915.0
913.0
913.0
914.0
911.0
911.0
905.0
908.0
906.0
908.0
907.0
904.0
900.0
900.0
899.0
901.0
900.0
897.0
895.0
894.0
897.0
893.0
893.0
891.0
888.0
887.0
888.0
891.0
892.0
890.0
888.0
888.0
887.0
893.0
892.0
890.0
889.0
890.0
891.0
894.0
897.0
894.0
897.0
901.0
907.0
912.0
916.0
916.0
917.0
923.0
929.0
936.0
941.0
945.0
945.0
952.0
960.0
966.0
972.0
973.0
976.0
979.0
983.0
989.0
989.0
986.0
988.0
987.0
987.0
986.0
986.0
983.0
980.0
978.0
980.0
983.0
984.0
977.0
978.0
977.0
978.0
981.0
979.0
974.0
976.0
973.0
972.0
976.0
976.0
974.0
972.0
972.0
975.0
979.0
975.0
974.0
971.0
970.0
972.0
971.0
976.0
972.0
969.0
970.0
974.0
976.0
977.0
975.0
974.0
971.0
973.0
978.0
980.0
978.0
974.0
974.0
975.0
979.0
979.0
978.0
977.0
977.0
978.0
981.0
982.0
981.0
978.0
979.0
981.0
983.0
983.0
977.0
974.0
977.0
979.0
984.0
984.0
984.0
982.0
980.0
980.0
984.0
984.0
984.0
976.0
980.0
982.0
984.0
983.0
982.0
980.0
980.0
982.0
982.0
985.0
981.0
981.0
980.0
982.0
984.0
981.0
975.0
975.0
977.0
980.0
983.0
983.0
979.0
976.0
981.0
986.0
991.0
995.0
991.0
990.0
991.0
995.0
999.0
1002.0
1002.0
1001.0
1005.0
1009.0
1013.0
1013.0
1009.0
1005.0
1003.0
1000.0
999.0
995.0
990.0
984.0
984.0
986.0
988.0
985.0
981.0
976.0
977.0
978.0
977.0
974.0
970.0
966.0
968.0
971.0
975.0
977.0
970.0
970.0
971.0
979.0
978.0
976.0
971.0
970.0
972.0
972.0
975.0
978.0
972.0
968.0
971.0
974.0
976.0
974.0
973.0
981.0
997.0
1021.0
1054.0
1096.0
1144.0
1194.0
1241.0
1285.0
1317.0
1314.0
1272.0
1201.0
1128.0
1061.0
1016.0
995.0
981.0
973.0
970.0
972.0
977.0
982.0
981.0
973.0
970.0
969.0
975.0
977.0
974.0
972.0
971.0
973.0
974.0
975.0
972.0
970.0
972.0
973.0
978.0
974.0
972.0
972.0
970.0
977.0
979.0
981.0
979.0
977.0
979.0
982.0
982.0
985.0
983.0
982.0
982.0
985.0
987.0
983.0
987.0
984.0
987.0
994.0
998.0
1000.0
1000.0
996.0
998.0
1001.0
1006.0
1005.0
1005.0
1005.0
1007.0
1013.0
1021.0
1023.0
1022.0
1022.0
1027.0
1031.0
1036.0
1040.0
1038.0
1038.0
1043.0
1047.0
1052.0
1054.0
1053.0
1054.0
1059.0
1065.0
1074.0
1075.0
1074.0
1075.0
1078.0
1079.0
1081.0
1081.0
1076.0
1071.0
1064.0
1062.0
1062.0
1061.0
1050.0
1046.0
1040.0
1037.0
1031.0
1027.0
1020.0
1015.0
1010.0
1008.0
1003.0
999.0
994.0
990.0
988.0
988.0
987.0
984.0
981.0
981.0
983.0
981.0
981.0
979.0
975.0
971.0
969.0
969.0
974.0
972.0
970.0
970.0
971.0
974.0
974.0
972.0
972.0
970.0
974.0
975.0
979.0
975.0
974.0
970.0
972.0
972.0
972.0
974.0
971.0
968.0
971.0
973.0
976.0
975.0
973.0
970.0
972.0
973.0
975.0
973.0
972.0
970.0
968.0
970.0
976.0
975.0
974.0
970.0
972.0
974.0
978.0
979.0
981.0
982.0
985.0
983.0
984.0
988.0
986.0
987.0
990.0
993.0
998.0
1000.0
997.0
996.0
996.0
997.0
996.0
996.0
990.0
983.0
982.0
983.0
985.0
983.0
978.0
972.0
970.0
971.0
970.0
967.0
963.0
961.0
960.0
961.0
966.0
966.0
963.0
959.0
959.0
961.0
964.0
966.0
961.0
960.0
960.0
964.0
963.0
965.0
963.0
957.0
959.0
959.0
962.0
964.0
960.0
960.0
961.0
960.0
960.0
961.0
967.0
981.0
998.0
1027.0
1064.0
1108.0
1157.0
1209.0
1261.0
1301.0
1305.0
1261.0
1189.0
1120.0
1054.0
1003.0
975.0
964.0
958.0
956.0
957.0
959.0
965.0
969.0
967.0
962.0
960.0
961.0
964.0
963.0
960.0
960.0
959.0
963.0
967.0
966.0
964.0
960.0
958.0
961.0
965.0
967.0
964.0
961.0
965.0
968.0
971.0
969.0
968.0
967.0
969.0
970.0
970.0
971.0
971.0
971.0
970.0
973.0
975.0
976.0
977.0
976.0
981.0
983.0
987.0
987.0
986.0
984.0
984.0
989.0
993.0
995.0
990.0
992.0
997.0
1000.0
1005.0
1010.0
1011.0
1010.0
1013.0
1018.0
1025.0
1027.0
1026.0
1028.0
1030.0
1035.0
1038.0
1040.0
1043.0
1043.0
1048.0
1049.0
1056.0
1058.0
1056.0
1054.0
1057.0
1058.0
1059.0
1058.0
1051.0
1046.0
1041.0
1038.0
1036.0
1032.0
1027.0
1018.0
1016.0
1014.0
1009.0
1005.0
996.0
989.0
984.0
983.0
981.0
977.0
970.0
966.0
967.0
968.0
967.0
967.0
964.0
961.0
958.0
961.0
963.0
963.0
959.0
955.0
956.0
956.0
957.0
957.0
955.0
953.0
954.0
955.0
957.0
960.0
957.0
954.0
957.0
957.0
959.0
960.0
959.0
953.0
955.0
956.0
959.0
958.0
955.0
955.0
954.0
958.0
961.0
960.0
958.0
956.0
954.0
958.0
961.0
960.0
956.0
952.0
954.0
961.0
962.0
964.0
962.0
961.0
962.0
968.0
972.0
974.0
971.0
969.0
971.0
973.0
979.0
982.0
981.0
979.0
985.0
987.0
991.0
991.0
986.0
984.0
982.0
988.0
987.0
986.0
984.0
979.0
975.0
974.0
976.0
977.0
977.0
983.0
992.0
999.0
1011.0
1025.0
1031.0
1038.0
1053.0
1067.0
1081.0
1093.0
1102.0
1107.0
1113.0
1123.0
1139.0
1156.0
1167.0
1179.0
1194.0
1211.0
1232.0
1252.0
1267.0
1267.0
1264.0
1256.0
1248.0
1242.0
1235.0
1223.0
1220.0
1220.0
1221.0
1223.0
1215.0
1215.0
1215.0
1214.0
1218.0
1220.0
1221.0
1215.0
1204.0
1186.0
1163.0
1128.0
1086.0
1041.0
1001.0
974.0
952.0
934.0
921.0
913.0
912.0
910.0
907.0
903.0
896.0
889.0
890.0
888.0
888.0
888.0
884.0
883.0
882.0
881.0
882.0
880.0
875.0
874.0
872.0
875.0
875.0
875.0
869.0
864.0
865.0
866.0
866.0
868.0
864.0
860.0
859.0
859.0
860.0
857.0
853.0
848.0
846.0
849.0
850.0
851.0
846.0
842.0
842.0
845.0
849.0
848.0
844.0
840.0
840.0
847.0
848.0
848.0
845.0
844.0
849.0
853.0
858.0
861.0
862.0
861.0
870.0
876.0
883.0
888.0
889.0
891.0
899.0
904.0
913.0
916.0
920.0
921.0
929.0
935.0
941.0
948.0
949.0
950.0
952.0
952.0
959.0
958.0
956.0
952.0
950.0
952.0
953.0
953.0
952.0
948.0
949.0
952.0
952.0
952.0
947.0
946.0
946.0
949.0
950.0
949.0
945.0
942.0
942.0
945.0
949.0
951.0
947.0
945.0
944.0
947.0
947.0
945.0
946.0
940.0
943.0
942.0
946.0
947.0
942.0
940.0
942.0
948.0
950.0
952.0
949.0
944.0
947.0
948.0
950.0
951.0
947.0
944.0
946.0
950.0
953.0
954.0
951.0
951.0
954.0
956.0
958.0
957.0
957.0
951.0
952.0
955.0
958.0
959.0
956.0
953.0
956.0
955.0
962.0
963.0
963.0
964.0
967.0
973.0
977.0
976.0
973.0
972.0
977.0
981.0
987.0
989.0
986.0
984.0
985.0
993.0
994.0
989.0
983.0
979.0
980.0
982.0
980.0
972.0
969.0
964.0
963.0
964.0
967.0
966.0
960.0
959.0
957.0
960.0
962.0
962.0
959.0
953.0
953.0
957.0
962.0
962.0
958.0
956.0
957.0
960.0
965.0
964.0
963.0
959.0
960.0
963.0
965.0
966.0
961.0
960.0
968.0
989.0
1014.0
1039.0
1071.0
1111.0
1159.0
1216.0
1269.0
1310.0
1322.0
1297.0
1240.0
1173.0
1107.0
1045.0
1002.0
982.0
973.0
969.0
966.0
965.0
968.0
970.0
967.0
967.0
966.0
965.0
960.0
959.0
961.0
965.0
968.0
966.0
962.0
962.0
959.0
963.0
964.0
966.0
966.0
963.0
961.0
967.0
969.0
971.0
968.0
969.0
969.0
969.0
973.0
975.0
973.0
973.0
973.0
974.0
978.0
977.0
979.0
979.0
978.0
984.0
988.0
990.0
989.0
990.0
991.0
994.0
996.0
998.0
1000.0
1000.0
1002.0
1008.0
1013.0
1014.0
1020.0
1021.0
1024.0
1028.0
1035.0
1039.0
1040.0
1040.0
1045.0
1050.0
1056.0
1061.0
1059.0
1061.0
1064.0
1070.0
1074.0
1075.0
1074.0
1072.0
1072.0
1073.0
1073.0
1071.0
1065.0
1056.0
1050.0
1048.0
1045.0
1038.0
1032.0
1024.0
1019.0
1017.0
1012.0
1010.0
1003.0
995.0
988.0
989.0
988.0
985.0
975.0
972.0
973.0
974.0
976.0
974.0
970.0
967.0
967.0
966.0
967.0
970.0
967.0
959.0
959.0
961.0
966.0
965.0
963.0
963.0
962.0
966.0
968.0
967.0
965.0
964.0
964.0
965.0
969.0
968.0
966.0
961.0
963.0
966.0
968.0
971.0
966.0
965.0
965.0
968.0
970.0
967.0
964.0
963.0
961.0
965.0
968.0
965.0
966.0
962.0
961.0
967.0
969.0
971.0
966.0
968.0
970.0
975.0
980.0
980.0
978.0
976.0
978.0
982.0
988.0
993.0
994.0
990.0
989.0
993.0
996.0
997.0
994.0
992.0
986.0
986.0
985.0
983.0
978.0
972.0
967.0
966.0
967.0
969.0
965.0
961.0
960.0
958.0
961.0
962.0
960.0
956.0
955.0
956.0
956.0
956.0
957.0
956.0
954.0
954.0
959.0
959.0
958.0
957.0
955.0
958.0
960.0
961.0
954.0
954.0
953.0
956.0
963.0
968.0
986.0
1006.0
1034.0
1080.0
1132.0
1185.0
1232.0
1274.0
1302.0
1293.0
1238.0
1162.0
1085.0
1026.0
994.0
981.0
977.0
966.0
954.0
952.0
957.0
967.0
967.0
964.0
958.0
955.0
952.0
956.0
960.0
958.0
956.0
955.0
955.0
956.0
958.0
960.0
957.0
952.0
954.0
958.0
962.0
963.0
963.0
959.0
959.0
963.0
968.0
969.0
967.0
964.0
963.0
967.0
970.0
971.0
968.0
967.0
971.0
975.0
979.0
980.0
978.0
977.0
980.0
985.0
987.0
988.0
988.0
989.0
990.0
998.0
1004.0
1005.0
1007.0
1008.0
1013.0
1018.0
1023.0
1026.0
1026.0
1026.0
1031.0
1035.0
1042.0
1045.0
1042.0
1044.0
1047.0
1052.0
1057.0
1056.0
1053.0
1049.0
1048.0
1047.0
1046.0
1044.0
1036.0
1027.0
1024.0
1018.0
1015.0
1009.0
1002.0
994.0
990.0
986.0
986.0
980.0
973.0
967.0
961.0
961.0
964.0
965.0
961.0
958.0
957.0
958.0
959.0
956.0
952.0
951.0
951.0
954.0
954.0
954.0
952.0
951.0
948.0
949.0
954.0
953.0
950.0
948.0
952.0
951.0
955.0
957.0
954.0
952.0
950.0
954.0
955.0
958.0
954.0
953.0
954.0
954.0
956.0
955.0
955.0
952.0
951.0
954.0
957.0
955.0
953.0
951.0
950.0
954.0
958.0
955.0
952.0
951.0
951.0
954.0
957.0
957.0
953.0
950.0
951.0
956.0
960.0
960.0
963.0
967.0
968.0
972.0
974.0
971.0
972.0
973.0
979.0
981.0
984.0
989.0
991.0
994.0
999.0
1011.0
1025.0
1037.0
1044.0
1045.0
1056.0
1067.0
1079.0
1090.0
1101.0
1109.0
1117.0
1128.0
1145.0
1160.0
1170.0
1180.0
1195.0
1213.0
1236.0
1252.0
1256.0
1250.0
1243.0
1234.0
1226.0
1223.0
1218.0
1214.0
1209.0
1214.0
1217.0
1212.0
1207.0
1202.0
1201.0
1205.0
1209.0
1207.0
1197.0
1175.0
1147.0
1114.0
1071.0
1023.0
981.0
954.0
934.0
923.0
911.0
902.0
900.0
895.0
892.0
890.0
887.0
887.0
881.0
874.0
873.0
877.0
880.0
879.0
873.0
868.0
866.0
865.0
866.0
865.0
861.0
858.0
857.0
856.0
854.0
854.0
853.0
851.0
847.0
848.0
850.0
851.0
849.0
844.0
841.0
844.0
847.0
846.0
841.0
838.0
836.0
840.0
844.0
843.0
842.0
841.0
841.0
843.0
844.0
844.0
844.0
841.0
843.0
848.0
856.0
860.0
858.0
862.0
866.0
875.0
879.0
885.0
888.0
891.0
895.0
899.0
907.0
914.0
917.0
917.0
924.0
931.0
935.0
935.0
933.0
931.0
929.0
936.0
937.0
936.0
934.0
928.0
928.0
930.0
931.0
931.0
929.0
922.0
921.0
923.0
926.0
930.0
927.0
922.0
920.0
921.0
925.0
925.0
922.0
923.0
916.0
922.0
924.0
924.0
921.0
922.0
920.0
920.0
923.0
924.0
919.0
916.0
916.0
923.0
928.0
929.0
928.0
923.0
922.0
925.0
927.0
929.0
924.0
925.0
925.0
925.0
931.0
933.0
929.0
926.0
927.0
929.0
936.0
934.0
931.0
928.0
927.0
931.0
931.0
933.0
932.0
930.0
930.0
930.0
934.0
935.0
932.0
932.0
929.0
929.0
931.0
932.0
930.0
931.0
930.0
933.0
937.0
936.0
935.0
932.0
929.0
934.0
935.0
937.0
931.0
930.0
928.0
932.0
937.0
938.0
934.0
936.0
934.0
935.0
940.0
941.0
941.0
941.0
944.0
946.0
951.0
954.0
952.0
953.0
958.0
963.0
966.0
966.0
961.0
959.0
958.0
958.0
959.0
956.0
953.0
944.0
939.0
939.0
940.0
943.0
941.0
937.0
933.0
936.0
935.0
934.0
933.0
929.0
930.0
934.0
937.0
938.0
932.0
931.0
928.0
933.0
937.0
939.0
938.0
935.0
932.0
935.0
935.0
936.0
935.0
931.0
930.0
929.0
935.0
950.0
968.0
991.0
1033.0
1082.0
1142.0
1197.0
1245.0
1280.0
1283.0
1237.0
1162.0
1076.0
1003.0
953.0
935.0
932.0
937.0
933.0
935.0
937.0
943.0
945.0
944.0
939.0
936.0
932.0
931.0
933.0
935.0
939.0
937.0
935.0
933.0
937.0
937.0
938.0
937.0
937.0
935.0
935.0
940.0
941.0
939.0
935.0
936.0
941.0
946.0
946.0
947.0
943.0
943.0
947.0
950.0
951.0
947.0
944.0
948.0
950.0
955.0
956.0
954.0
954.0
956.0
959.0
966.0
968.0
966.0
962.0
967.0
972.0
973.0
980.0
979.0
976.0
982.0
988.0
997.0
1002.0
1004.0
1001.0
1005.0
1011.0
1018.0
1021.0
1023.0
1024.0
1024.0
1029.0
1036.0
1035.0
1037.0
1037.0
1037.0
1039.0
1040.0
1038.0
1036.0
1026.0
1025.0
1022.0
1016.0
1011.0
1001.0
992.0
988.0
986.0
983.0
978.0
971.0
961.0
960.0
957.0
957.0
953.0
946.0
941.0
940.0
939.0
941.0
940.0
939.0
936.0
937.0
935.0
934.0
936.0
934.0
931.0
929.0
930.0
933.0
928.0
928.0
924.0
930.0
933.0
937.0
937.0
935.0
930.0
930.0
931.0
934.0
937.0
934.0
932.0
928.0
933.0
936.0
935.0
932.0
933.0
928.0
934.0
936.0
936.0
934.0
933.0
930.0
931.0
936.0
933.0
935.0
932.0
928.0
933.0
936.0
937.0
934.0
931.0
934.0
937.0
943.0
949.0
949.0
947.0
949.0
951.0
955.0
960.0
960.0
956.0
955.0
958.0
958.0
955.0
949.0
943.0
941.0
942.0
941.0
940.0
938.0
932.0
927.0
929.0
933.0
930.0
928.0
926.0
923.0
924.0
926.0
927.0
925.0
923.0
923.0
928.0
926.0
929.0
926.0
926.0
927.0
928.0
930.0
930.0
928.0
926.0
923.0
926.0
925.0
928.0
934.0
949.0
971.0
1007.0
1053.0
1115.0
1174.0
1227.0
1269.0
