# Simple Text Format
# Sampling Rate (Hz):= 360.00
# Resolution:= 12
# Labels:= ECG
881.0
882.0
881.0
882.0
886.0
886.0
885.0
888.0
891.0
890.0
889.0
888.0
889.0
888.0
890.0
893.0
894.0
893.0
899.0
900.0
903.0
902.0
903.0
905.0
904.0
905.0
905.0
909.0
911.0
914.0
917.0
916.0
918.0
918.0
920.0
921.0
921.0
922.0
926.0
928.0
929.0
935.0
934.0
930.0
930.0
929.0
927.0
924.0
918.0
917.0
916.0
911.0
909.0
908.0
908.0
907.0
904.0
901.0
896.0
894.0
893.0
894.0
894.0
897.0
898.0
899.0
900.0
900.0
902.0
900.0
900.0
901.0
899.0
901.0
902.0
904.0
909.0
914.0
921.0
926.0
935.0
943.0
957.0
975.0
996.0
1019.0
1052.0
1088.0
1127.0
1166.0
1200.0
1225.0
1245.0
1263.0
1281.0
1305.0
1330.0
1345.0
1340.0
1303.0
1240.0
1158.0
1069.0
983.0
914.0
869.0
844.0
837.0
844.0
855.0
862.0
869.0
873.0
876.0
878.0
878.0
877.0
874.0
873.0
872.0
871.0
867.0
866.0
866.0
864.0
868.0
870.0
866.0
867.0
866.0
866.0
866.0
862.0
863.0
862.0
862.0
865.0
865.0
864.0
863.0
863.0
862.0
861.0
858.0
855.0
856.0
856.0
854.0
855.0
857.0
857.0
854.0
853.0
853.0
851.0
850.0
847.0
847.0
847.0
847.0
847.0
848.0
848.0
847.0
845.0
843.0
845.0
840.0
839.0
841.0
841.0
842.0
844.0
843.0
844.0
845.0
846.0
846.0
844.0
846.0
848.0
853.0
854.0
857.0
863.0
868.0
873.0
876.0
879.0
881.0
884.0
888.0
890.0
897.0
900.0
904.0
908.0
909.0
912.0
911.0
914.0
911.0
908.0
905.0
905.0
907.0
905.0
906.0
908.0
909.0
909.0
906.0
905.0
902.0
902.0
901.0
900.0
901.0
900.0
902.0
900.0
901.0
901.0
901.0
900.0
898.0
897.0
897.0
896.0
894.0
895.0
893.0
895.0
895.0
895.0
894.0
896.0
892.0
890.0
888.0
889.0
890.0
889.0
890.0
891.0
894.0
893.0
895.0
894.0
893.0
891.0
890.0
890.0
888.0
891.0
894.0
898.0
898.0
901.0
900.0
902.0
901.0
900.0
902.0
904.0
906.0
918.0
926.0
935.0
945.0
956.0
972.0
987.0
1006.0
1028.0
1057.0
1091.0
1134.0
1182.0
1233.0
1281.0
1330.0
1371.0
1404.0
1426.0
1438.0
1439.0
1438.0
1430.0
1419.0
1406.0
1383.0
1347.0
1297.0
1240.0
1172.0
1107.0
1046.0
998.0
963.0
938.0
925.0
919.0
917.0
913.0
910.0
904.0
896.0
890.0
881.0
872.0
867.0
862.0
861.0
856.0
850.0
848.0
848.0
843.0
840.0
842.0
840.0
836.0
834.0
832.0
828.0
824.0
826.0
824.0
823.0
825.0
823.0
820.0
820.0
814.0
813.0
809.0
806.0
803.0
802.0
801.0
801.0
800.0
797.0
796.0
791.0
785.0
781.0
775.0
773.0
768.0
765.0
764.0
761.0
761.0
757.0
753.0
749.0
743.0
741.0
739.0
736.0
734.0
734.0
731.0
732.0
733.0
731.0
730.0
733.0
732.0
732.0
733.0
736.0
739.0
744.0
748.0
754.0
758.0
763.0
768.0
773.0
777.0
781.0
786.0
789.0
797.0
806.0
814.0
821.0
827.0
833.0
838.0
841.0
845.0
851.0
854.0
857.0
861.0
865.0
869.0
874.0
879.0
881.0
882.0
884.0
885.0
883.0
884.0
885.0
886.0
887.0
890.0
891.0
894.0
894.0
895.0
892.0
890.0
889.0
888.0
888.0
888.0
889.0
892.0
893.0
894.0
891.0
893.0
888.0
884.0
885.0
883.0
884.0
884.0
887.0
886.0
887.0
889.0
887.0
887.0
888.0
885.0
886.0
888.0
887.0
887.0
890.0
891.0
892.0
894.0
895.0
896.0
896.0
895.0
894.0
895.0
894.0
897.0
899.0
901.0
904.0
902.0
904.0
903.0
902.0
898.0
899.0
897.0
900.0
899.0
900.0
903.0
906.0
904.0
907.0
906.0
904.0
903.0
904.0
901.0
901.0
903.0
904.0
906.0
905.0
905.0
906.0
905.0
904.0
903.0
904.0
901.0
899.0
899.0
902.0
903.0
906.0
906.0
907.0
906.0
904.0
903.0
903.0
902.0
901.0
903.0
899.0
902.0
906.0
907.0
906.0
906.0
904.0
906.0
905.0
902.0
900.0
903.0
904.0
907.0
905.0
909.0
909.0
908.0
907.0
906.0
904.0
904.0
902.0
904.0
904.0
908.0
909.0
910.0
911.0
912.0
911.0
912.0
912.0
911.0
911.0
912.0
913.0
917.0
918.0
921.0
922.0
923.0
922.0
922.0
924.0
923.0
927.0
930.0
932.0
935.0
937.0
941.0
940.0
942.0
938.0
935.0
931.0
928.0
926.0
925.0
920.0
919.0
918.0
916.0
913.0
911.0
908.0
904.0
902.0
899.0
897.0
897.0
898.0
897.0
900.0
903.0
903.0
907.0
907.0
907.0
906.0
905.0
905.0
907.0
908.0
913.0
917.0
922.0
931.0
941.0
955.0
971.0
993.0
1014.0
1040.0
1069.0
1106.0
1143.0
1182.0
1218.0
1252.0
1280.0
1306.0
1335.0
1362.0
1376.0
1370.0
1331.0
1260.0
1168.0
1070.0
980.0
917.0
876.0
861.0
859.0
866.0
872.0
878.0
879.0
879.0
877.0
876.0
878.0
873.0
871.0
871.0
870.0
868.0
868.0
866.0
863.0
865.0
865.0
865.0
865.0
864.0
867.0
866.0
864.0
862.0
860.0
859.0
858.0
860.0
860.0
862.0
862.0
861.0
861.0
858.0
858.0
856.0
853.0
852.0
854.0
853.0
853.0
853.0
853.0
854.0
851.0
847.0
845.0
844.0
842.0
841.0
841.0
840.0
841.0
843.0
844.0
843.0
839.0
840.0
837.0
835.0
833.0
832.0
831.0
832.0
833.0
834.0
835.0
832.0
833.0
832.0
830.0
829.0
830.0
827.0
828.0
829.0
832.0
835.0
838.0
839.0
840.0
842.0
845.0
844.0
847.0
848.0
852.0
855.0
861.0
864.0
872.0
874.0
879.0
880.0
881.0
884.0
888.0
886.0
888.0
891.0
892.0
893.0
896.0
897.0
899.0
898.0
897.0
895.0
894.0
895.0
895.0
897.0
896.0
900.0
903.0
900.0
898.0
897.0
896.0
892.0
894.0
894.0
890.0
892.0
895.0
894.0
896.0
895.0
895.0
893.0
893.0
891.0
888.0
888.0
888.0
886.0
888.0
890.0
892.0
890.0
888.0
887.0
886.0
885.0
880.0
879.0
878.0
880.0
881.0
882.0
882.0
878.0
878.0
881.0
879.0
879.0
877.0
876.0
876.0
876.0
879.0
880.0
880.0
879.0
882.0
883.0
884.0
886.0
889.0
887.0
887.0
889.0
894.0
895.0
898.0
899.0
905.0
904.0
905.0
906.0
906.0
908.0
911.0
914.0
918.0
918.0
925.0
927.0
929.0
930.0
927.0
927.0
926.0
924.0
922.0
921.0
920.0
919.0
918.0
917.0
914.0
909.0
907.0
903.0
899.0
899.0
895.0
896.0
896.0
895.0
894.0
896.0
891.0
889.0
889.0
888.0
887.0
889.0
890.0
892.0
894.0
895.0
899.0
899.0
900.0
902.0
904.0
902.0
907.0
910.0
913.0
919.0
931.0
943.0
958.0
977.0
1003.0
1031.0
1066.0
1104.0
1143.0
1182.0
1216.0
1246.0
1280.0
1313.0
1343.0
1356.0
1338.0
1291.0
1215.0
1127.0
1036.0
960.0
907.0
875.0
867.0
868.0
873.0
879.0
882.0
884.0
883.0
880.0
877.0
875.0
875.0
875.0
876.0
875.0
875.0
877.0
877.0
874.0
873.0
869.0
869.0
868.0
869.0
868.0
871.0
874.0
873.0
875.0
874.0
871.0
868.0
867.0
866.0
864.0
863.0
862.0
863.0
864.0
867.0
867.0
867.0
866.0
866.0
862.0
859.0
858.0
858.0
857.0
857.0
858.0
857.0
857.0
856.0
855.0
853.0
853.0
849.0
850.0
847.0
847.0
848.0
848.0
847.0
845.0
847.0
844.0
843.0
842.0
840.0
841.0
842.0
843.0
843.0
846.0
850.0
849.0
851.0
853.0
852.0
852.0
856.0
857.0
860.0
860.0
867.0
869.0
877.0
879.0
882.0
883.0
884.0
888.0
891.0
894.0
897.0
902.0
908.0
910.0
914.0
913.0
914.0
913.0
913.0
913.0
911.0
910.0
911.0
911.0
913.0
914.0
914.0
913.0
911.0
911.0
909.0
910.0
907.0
905.0
908.0
908.0
908.0
906.0
909.0
907.0
906.0
906.0
906.0
904.0
903.0
904.0
902.0
901.0
903.0
902.0
905.0
903.0
903.0
902.0
900.0
897.0
894.0
893.0
894.0
895.0
897.0
898.0
897.0
898.0
899.0
895.0
894.0
894.0
893.0
891.0
890.0
895.0
895.0
900.0
900.0
903.0
902.0
902.0
898.0
901.0
900.0
902.0
906.0
909.0
915.0
922.0
930.0
940.0
949.0
962.0
976.0
990.0
1010.0
1032.0
1060.0
1090.0
1127.0
1166.0
1212.0
1253.0
1293.0
1334.0
1368.0
1393.0
1413.0
1421.0
1420.0
1413.0
1406.0
1392.0
1372.0
1334.0
1280.0
1206.0
1124.0
1041.0
975.0
926.0
897.0
882.0
879.0
877.0
877.0
871.0
865.0
854.0
846.0
841.0
837.0
836.0
832.0
832.0
832.0
830.0
832.0
829.0
827.0
825.0
822.0
819.0
817.0
814.0
812.0
811.0
810.0
808.0
810.0
806.0
802.0
798.0
796.0
793.0
789.0
785.0
785.0
781.0
779.0
779.0
775.0
772.0
769.0
765.0
761.0
757.0
755.0
749.0
749.0
747.0
744.0
738.0
741.0
737.0
736.0
735.0
731.0
728.0
727.0
723.0
723.0
723.0
726.0
727.0
731.0
733.0
735.0
738.0
740.0
743.0
747.0
752.0
759.0
766.0
774.0
782.0
793.0
799.0
806.0
809.0
816.0
823.0
827.0
833.0
840.0
845.0
851.0
856.0
862.0
864.0
867.0
869.0
870.0
870.0
873.0
870.0
874.0
874.0
878.0
878.0
880.0
882.0
881.0
883.0
880.0
880.0
877.0
877.0
880.0
879.0
883.0
884.0
882.0
882.0
882.0
878.0
879.0
876.0
874.0
874.0
870.0
871.0
873.0
874.0
876.0
876.0
872.0
872.0
871.0
869.0
866.0
868.0
868.0
866.0
868.0
869.0
873.0
874.0
873.0
875.0
875.0
873.0
874.0
873.0
874.0
877.0
879.0
882.0
884.0
886.0
887.0
885.0
884.0
883.0
882.0
881.0
883.0
881.0
884.0
885.0
888.0
889.0
888.0
889.0
889.0
888.0
886.0
886.0
888.0
888.0
888.0
890.0
893.0
892.0
890.0
889.0
889.0
888.0
887.0
886.0
887.0
886.0
887.0
888.0
891.0
891.0
892.0
892.0
891.0
887.0
885.0
885.0
886.0
888.0
891.0
889.0
890.0
891.0
889.0
891.0
892.0
891.0
889.0
887.0
890.0
887.0
889.0
892.0
895.0
894.0
895.0
895.0
894.0
893.0
893.0
894.0
896.0
896.0
900.0
900.0
900.0
903.0
904.0
906.0
904.0
905.0
905.0
905.0
907.0
909.0
913.0
913.0
917.0
919.0
920.0
920.0
919.0
921.0
921.0
922.0
921.0
919.0
916.0
916.0
913.0
907.0
905.0
902.0
900.0
896.0
893.0
891.0
891.0
889.0
887.0
884.0
886.0
886.0
888.0
888.0
889.0
887.0
889.0
887.0
891.0
890.0
893.0
893.0
894.0
895.0
898.0
902.0
903.0
906.0
910.0
918.0
932.0
948.0
969.0
994.0
1029.0
1069.0
1118.0
1167.0
1210.0
1245.0
1277.0
1307.0
1341.0
1363.0
1359.0
1310.0
1224.0
1113.0
999.0
910.0
851.0
826.0
825.0
837.0
855.0
867.0
878.0
882.0
882.0
878.0
875.0
871.0
869.0
867.0
865.0
865.0
864.0
864.0
865.0
865.0
865.0
863.0
862.0
860.0
862.0
865.0
862.0
860.0
860.0
862.0
862.0
863.0
866.0
861.0
863.0
863.0
862.0
860.0
860.0
858.0
855.0
856.0
856.0
858.0
861.0
858.0
858.0
859.0
856.0
853.0
853.0
851.0
850.0
851.0
852.0
851.0
851.0
852.0
851.0
847.0
845.0
843.0
842.0
842.0
842.0
841.0
842.0
844.0
844.0
848.0
846.0
846.0
844.0
844.0
846.0
849.0
851.0
853.0
857.0
860.0
863.0
867.0
868.0
870.0
870.0
871.0
875.0
875.0
883.0
888.0
893.0
900.0
903.0
908.0
913.0
913.0
913.0
916.0
914.0
915.0
915.0
916.0
918.0
920.0
922.0
921.0
920.0
921.0
921.0
918.0
916.0
915.0
919.0
917.0
919.0
920.0
917.0
920.0
917.0
917.0
915.0
914.0
914.0
913.0
912.0
913.0
912.0
913.0
912.0
917.0
914.0
913.0
912.0
910.0
906.0
906.0
905.0
905.0
905.0
906.0
905.0
903.0
901.0
901.0
898.0
893.0
890.0
891.0
890.0
891.0
891.0
892.0
894.0
895.0
892.0
894.0
893.0
894.0
892.0
892.0
893.0
895.0
900.0
900.0
904.0
909.0
909.0
910.0
910.0
911.0
909.0
910.0
912.0
914.0
918.0
923.0
927.0
930.0
931.0
934.0
933.0
933.0
931.0
933.0
933.0
932.0
932.0
932.0
933.0
932.0
929.0
926.0
924.0
917.0
912.0
911.0
909.0
908.0
906.0
903.0
903.0
903.0
903.0
903.0
902.0
904.0
896.0
895.0
896.0
898.0
900.0
903.0
906.0
907.0
909.0
909.0
910.0
912.0
914.0
915.0
923.0
929.0
944.0
959.0
978.0
1001.0
1024.0
1056.0
1093.0
1132.0
1173.0
1210.0
1243.0
1275.0
1306.0
1338.0
1375.0
1396.0
1398.0
1364.0
1296.0
1207.0
1105.0
1010.0
935.0
886.0
863.0
862.0
868.0
877.0
882.0
885.0
886.0
886.0
883.0
881.0
881.0
880.0
880.0
879.0
879.0
878.0
878.0
876.0
875.0
873.0
871.0
872.0
870.0
869.0
870.0
871.0
872.0
873.0
871.0
872.0
867.0
866.0
866.0
865.0
864.0
861.0
864.0
862.0
862.0
862.0
859.0
858.0
856.0
854.0
855.0
854.0
855.0
853.0
853.0
854.0
854.0
853.0
852.0
849.0
847.0
843.0
840.0
841.0
841.0
839.0
839.0
840.0
841.0
842.0
839.0
839.0
838.0
839.0
840.0
840.0
841.0
842.0
844.0
847.0
851.0
855.0
855.0
856.0
860.0
859.0
861.0
864.0
866.0
871.0
876.0
878.0
883.0
888.0
890.0
893.0
895.0
897.0
898.0
899.0
902.0
902.0
904.0
906.0
906.0
907.0
903.0
903.0
904.0
903.0
902.0
902.0
902.0
903.0
904.0
905.0
906.0
907.0
904.0
904.0
902.0
901.0
899.0
896.0
898.0
897.0
899.0
897.0
900.0
898.0
898.0
898.0
897.0
896.0
893.0
893.0
894.0
892.0
892.0
894.0
896.0
895.0
893.0
894.0
890.0
890.0
890.0
885.0
886.0
887.0
885.0
888.0
889.0
889.0
891.0
890.0
887.0
887.0
887.0
885.0
885.0
886.0
888.0
890.0
892.0
895.0
896.0
897.0
896.0
897.0
897.0
897.0
900.0
902.0
908.0
913.0
920.0
930.0
935.0
942.0
957.0
975.0
993.0
1014.0
1041.0
1069.0
1107.0
1144.0
1187.0
1229.0
1270.0
1310.0
1345.0
1374.0
1393.0
1402.0
1399.0
1391.0
1374.0
1352.0
1324.0
1286.0
1232.0
1168.0
1097.0
1030.0
971.0
930.0
899.0
883.0
874.0
872.0
870.0
870.0
864.0
860.0
854.0
849.0
844.0
839.0
837.0
836.0
835.0
835.0
834.0
835.0
833.0
831.0
826.0
825.0
822.0
820.0
821.0
819.0
818.0
814.0
816.0
817.0
815.0
813.0
810.0
808.0
806.0
803.0
802.0
801.0
801.0
797.0
797.0
797.0
797.0
794.0
790.0
787.0
784.0
780.0
779.0
778.0
775.0
775.0
772.0
770.0
766.0
761.0
759.0
753.0
751.0
747.0
743.0
742.0
742.0
739.0
740.0
740.0
737.0
735.0
735.0
734.0
732.0
732.0
733.0
735.0
736.0
739.0
744.0
750.0
751.0
752.0
754.0
758.0
760.0
767.0
769.0
775.0
782.0
788.0
796.0
801.0
809.0
815.0
819.0
823.0
828.0
833.0
838.0
840.0
849.0
853.0
855.0
860.0
862.0
864.0
866.0
863.0
866.0
867.0
868.0
868.0
871.0
875.0
877.0
879.0
878.0
877.0
875.0
874.0
873.0
870.0
873.0
874.0
876.0
876.0
879.0
881.0
879.0
880.0
878.0
877.0
872.0
872.0
872.0
872.0
871.0
874.0
877.0
877.0
874.0
873.0
872.0
869.0
869.0
868.0
868.0
869.0
869.0
869.0
872.0
875.0
875.0
877.0
875.0
874.0
875.0
875.0
875.0
875.0
879.0
879.0
880.0
883.0
884.0
884.0
883.0
883.0
883.0
882.0
883.0
882.0
884.0
886.0
888.0
891.0
890.0
887.0
888.0
887.0
887.0
886.0
885.0
886.0
889.0
891.0
891.0
893.0
893.0
892.0
891.0
890.0
890.0
887.0
889.0
889.0
888.0
893.0
890.0
895.0
896.0
894.0
893.0
893.0
894.0
888.0
892.0
893.0
895.0
898.0
897.0
900.0
900.0
901.0
900.0
900.0
901.0
902.0
904.0
903.0
904.0
905.0
908.0
908.0
913.0
912.0
913.0
915.0
916.0
919.0
921.0
927.0
927.0
928.0
933.0
932.0
934.0
934.0
933.0
930.0
929.0
926.0
925.0
922.0
921.0
918.0
915.0
914.0
910.0
908.0
902.0
900.0
897.0
895.0
893.0
891.0
895.0
895.0
895.0
897.0
897.0
898.0
896.0
899.0
898.0
898.0
896.0
898.0
901.0
903.0
904.0
908.0
912.0
915.0
920.0
929.0
942.0
962.0
985.0
1016.0
1055.0
1101.0
1151.0
1200.0
1243.0
1283.0
1320.0
1353.0
1376.0
1375.0
1331.0
1253.0
1153.0
1050.0
958.0
892.0
859.0
850.0
854.0
864.0
875.0
877.0
879.0
880.0
879.0
880.0
880.0
878.0
876.0
876.0
875.0
873.0
871.0
870.0
868.0
868.0
869.0
871.0
871.0
871.0
870.0
868.0
869.0
866.0
863.0
863.0
862.0
864.0
867.0
865.0
867.0
866.0
865.0
863.0
860.0
861.0
860.0
859.0
857.0
854.0
854.0
855.0
857.0
857.0
855.0
855.0
851.0
849.0
848.0
846.0
847.0
847.0
847.0
847.0
847.0
846.0
845.0
845.0
842.0
839.0
837.0
838.0
836.0
836.0
833.0
839.0
839.0
839.0
838.0
840.0
839.0
837.0
837.0
836.0
836.0
837.0
841.0
845.0
845.0
850.0
851.0
856.0
854.0
857.0
860.0
862.0
862.0
866.0
871.0
878.0
882.0
885.0
888.0
891.0
893.0
895.0
896.0
898.0
900.0
902.0
906.0
907.0
908.0
912.0
913.0
912.0
913.0
911.0
909.0
906.0
906.0
905.0
906.0
907.0
908.0
912.0
912.0
911.0
910.0
908.0
905.0
902.0
902.0
903.0
905.0
902.0
903.0
905.0
906.0
906.0
905.0
902.0
900.0
898.0
899.0
897.0
897.0
898.0
895.0
900.0
898.0
898.0
897.0
893.0
891.0
890.0
887.0
887.0
888.0
889.0
887.0
887.0
885.0
886.0
885.0
884.0
883.0
880.0
881.0
881.0
883.0
884.0
888.0
887.0
888.0
886.0
888.0
889.0
888.0
891.0
891.0
894.0
897.0
901.0
900.0
907.0
908.0
910.0
910.0
907.0
911.0
915.0
916.0
919.0
923.0
926.0
930.0
930.0
930.0
929.0
925.0
923.0
922.0
916.0
915.0
913.0
912.0
911.0
911.0
910.0
903.0
900.0
896.0
896.0
891.0
891.0
891.0
892.0
893.0
895.0
897.0
898.0
897.0
898.0
898.0
900.0
899.0
899.0
901.0
902.0
905.0
911.0
915.0
926.0
936.0
951.0
968.0
993.0
1017.0
1054.0
1096.0
1143.0
1190.0
1226.0
1258.0
1289.0
1319.0
1350.0
1367.0
1355.0
1301.0
1216.0
1110.0
1001.0
915.0
857.0
832.0
832.0
843.0
854.0
866.0
874.0
875.0
875.0
876.0
875.0
873.0
874.0
873.0
875.0
872.0
869.0
871.0
867.0
867.0
865.0
866.0
863.0
865.0
865.0
865.0
866.0
867.0
864.0
865.0
864.0
862.0
859.0
859.0
857.0
858.0
858.0
858.0
859.0
858.0
857.0
854.0
852.0
850.0
850.0
851.0
850.0
851.0
851.0
851.0
850.0
848.0
847.0
845.0
845.0
842.0
839.0
840.0
840.0
839.0
840.0
842.0
843.0
843.0
842.0
841.0
841.0
841.0
840.0
843.0
845.0
847.0
853.0
853.0
856.0
857.0
858.0
858.0
861.0
865.0
868.0
870.0
874.0
879.0
883.0
889.0
891.0
898.0
902.0
905.0
907.0
906.0
910.0
909.0
910.0
912.0
912.0
913.0
914.0
914.0
914.0
913.0
911.0
910.0
909.0
908.0
906.0
905.0
903.0
905.0
906.0
909.0
909.0
906.0
905.0
903.0
902.0
902.0
902.0
904.0
906.0
905.0
905.0
904.0
904.0
901.0
898.0
899.0
895.0
896.0
897.0
896.0
900.0
899.0
899.0
899.0
900.0
898.0
896.0
892.0
890.0
892.0
892.0
892.0
892.0
895.0
897.0
895.0
895.0
894.0
894.0
892.0
891.0
891.0
890.0
891.0
896.0
898.0
905.0
904.0
906.0
905.0
908.0
909.0
909.0
913.0
918.0
924.0
931.0
941.0
953.0
965.0
978.0
992.0
1015.0
1041.0
1072.0
1109.0
1157.0
1214.0
1268.0
1324.0
1374.0
1412.0
1440.0
1454.0
1456.0
1452.0
1440.0
1427.0
1404.0
1374.0
1327.0
1270.0
1201.0
1129.0
1053.0
989.0
941.0
911.0
893.0
886.0
882.0
882.0
882.0
879.0
877.0
871.0
868.0
862.0
856.0
852.0
851.0
845.0
846.0
845.0
845.0
845.0
845.0
842.0
841.0
838.0
836.0
833.0
827.0
827.0
823.0
823.0
821.0
822.0
823.0
819.0
818.0
813.0
809.0
808.0
803.0
803.0
800.0
799.0
795.0
794.0
795.0
791.0
786.0
782.0
777.0
773.0
769.0
764.0
758.0
757.0
753.0
749.0
749.0
746.0
744.0
740.0
737.0
736.0
733.0
730.0
730.0
730.0
734.0
735.0
737.0
739.0
741.0
743.0
744.0
746.0
749.0
754.0
759.0
764.0
769.0
779.0
788.0
794.0
799.0
806.0
811.0
817.0
824.0
826.0
834.0
841.0
845.0
852.0
858.0
863.0
866.0
869.0
872.0
873.0
875.0
874.0
876.0
879.0
884.0
886.0
890.0
891.0
893.0
892.0
893.0
891.0
892.0
889.0
891.0
893.0
896.0
894.0
895.0
892.0
895.0
892.0
892.0
891.0
891.0
888.0
888.0
885.0
890.0
889.0
890.0
890.0
886.0
886.0
886.0
883.0
880.0
883.0
882.0
882.0
881.0
882.0
885.0
887.0
886.0
888.0
886.0
884.0
885.0
887.0
882.0
888.0
892.0
893.0
895.0
896.0
894.0
892.0
892.0
896.0
894.0
895.0
898.0
898.0
900.0
902.0
903.0
904.0
903.0
902.0
899.0
897.0
899.0
899.0
899.0
901.0
902.0
906.0
907.0
907.0
907.0
904.0
903.0
905.0
903.0
900.0
902.0
903.0
904.0
906.0
907.0
908.0
909.0
908.0
907.0
904.0
903.0
903.0
905.0
904.0
907.0
909.0
910.0
909.0
908.0
909.0
907.0
906.0
906.0
908.0
910.0
909.0
915.0
916.0
919.0
919.0
918.0
919.0
918.0
917.0
916.0
918.0
920.0
924.0
926.0
931.0
933.0
937.0
937.0
938.0
937.0
937.0
938.0
937.0
935.0
937.0
933.0
934.0
934.0
934.0
929.0
924.0
921.0
920.0
917.0
914.0
912.0
911.0
910.0
908.0
907.0
904.0
906.0
904.0
902.0
902.0
900.0
901.0
903.0
903.0
906.0
909.0
910.0
912.0
912.0
912.0
912.0
914.0
915.0
921.0
928.0
937.0
956.0
972.0
998.0
1028.0
1065.0
1104.0
1150.0
1192.0
1234.0
1271.0
1308.0
1345.0
1374.0
1386.0
1371.0
1315.0
1232.0
1130.0
1028.0
944.0
889.0
864.0
858.0
864.0
875.0
883.0
887.0
891.0
890.0
888.0
885.0
880.0
877.0
875.0
875.0
873.0
875.0
874.0
875.0
875.0
872.0
869.0
870.0
870.0
870.0
867.0
866.0
867.0
869.0
867.0
868.0
869.0
867.0
864.0
865.0
863.0
861.0
860.0
859.0
859.0
858.0
859.0
858.0
857.0
857.0
856.0
854.0
851.0
849.0
847.0
848.0
846.0
848.0
847.0
847.0
846.0
846.0
843.0
839.0
836.0
838.0
836.0
830.0
831.0
834.0
833.0
835.0
835.0
837.0
837.0
838.0
838.0
837.0
835.0
836.0
837.0
843.0
843.0
848.0
850.0
851.0
851.0
852.0
857.0
857.0
860.0
862.0
866.0
869.0
872.0
877.0
879.0
882.0
885.0
886.0
890.0
890.0
893.0
894.0
895.0
897.0
899.0
900.0
903.0
903.0
904.0
904.0
900.0
899.0
899.0
898.0
901.0
902.0
905.0
904.0
906.0
905.0
905.0
903.0
900.0
898.0
897.0
897.0
899.0
902.0
904.0
902.0
903.0
901.0
897.0
897.0
897.0
895.0
895.0
894.0
897.0
898.0
898.0
899.0
898.0
897.0
893.0
893.0
890.0
887.0
885.0
886.0
889.0
890.0
889.0
889.0
890.0
888.0
885.0
883.0
881.0
879.0
877.0
878.0
880.0
881.0
883.0
882.0
882.0
880.0
884.0
883.0
884.0
884.0
884.0
885.0
887.0
891.0
893.0
896.0
898.0
899.0
898.0
899.0
900.0
901.0
903.0
904.0
907.0
912.0
916.0
921.0
922.0
926.0
928.0
931.0
929.0
928.0
925.0
924.0
924.0
925.0
922.0
925.0
921.0
915.0
912.0
910.0
907.0
904.0
898.0
897.0
895.0
892.0
894.0
894.0
894.0
895.0
891.0
892.0
890.0
895.0
893.0
894.0
895.0
897.0
898.0
901.0
902.0
903.0
902.0
903.0
907.0
909.0
914.0
921.0
929.0
941.0
960.0
978.0
1000.0
1025.0
1056.0
1091.0
1128.0
1163.0
1197.0
1228.0
1258.0
1288.0
1322.0
1349.0
1358.0
1337.0
1284.0
1203.0
1107.0
1011.0
935.0
886.0
864.0
859.0
865.0
877.0
887.0
890.0
888.0
886.0
886.0
883.0
878.0
875.0
877.0
875.0
871.0
879.0
877.0
876.0
875.0
874.0
871.0
871.0
871.0
868.0
869.0
869.0
871.0
869.0
871.0
871.0
866.0
866.0
864.0
865.0
862.0
862.0
860.0
860.0
861.0
860.0
862.0
862.0
862.0
860.0
857.0
855.0
852.0
851.0
854.0
853.0
852.0
854.0
853.0
851.0
849.0
848.0
845.0
842.0
841.0
840.0
841.0
842.0
844.0
845.0
845.0
844.0
845.0
843.0
843.0
843.0
840.0
844.0
846.0
850.0
852.0
854.0
858.0
859.0
864.0
863.0
867.0
869.0
872.0
875.0
878.0
885.0
888.0
892.0
895.0
898.0
901.0
900.0
902.0
904.0
903.0
906.0
907.0
908.0
909.0
912.0
912.0
912.0
909.0
911.0
910.0
908.0
909.0
910.0
910.0
910.0
912.0
914.0
913.0
911.0
912.0
911.0
909.0
907.0
906.0
907.0
908.0
909.0
909.0
911.0
911.0
911.0
908.0
908.0
906.0
905.0
904.0
904.0
904.0
907.0
906.0
906.0
906.0
905.0
905.0
904.0
903.0
899.0
900.0
899.0
900.0
902.0
903.0
905.0
907.0
906.0
906.0
904.0
903.0
901.0
899.0
902.0
907.0
913.0
918.0
925.0
932.0
942.0
953.0
961.0
979.0
999.0
1019.0
1048.0
1082.0
1121.0
1162.0
1205.0
1243.0
1284.0
1320.0
1351.0
1374.0
1390.0
1398.0
1402.0
1397.0
1392.0
1380.0
1366.0
1342.0
1306.0
1254.0
1186.0
1118.0
1054.0
1003.0
965.0
943.0
926.0
920.0
914.0
912.0
906.0
897.0
888.0
883.0
875.0
871.0
867.0
861.0
858.0
854.0
851.0
850.0
843.0
842.0
840.0
836.0
836.0
834.0
834.0
832.0
833.0
830.0
831.0
830.0
827.0
825.0
822.0
819.0
817.0
813.0
812.0
811.0
810.0
810.0
810.0
809.0
806.0
802.0
798.0
792.0
787.0
784.0
784.0
782.0
779.0
778.0
776.0
772.0
768.0
765.0
760.0
756.0
752.0
750.0
746.0
743.0
743.0
746.0
744.0
743.0
741.0
738.0
734.0
732.0
732.0
737.0
739.0
742.0
746.0
752.0
757.0
759.0
763.0
764.0
768.0
771.0
776.0
780.0
788.0
793.0
803.0
810.0
820.0
828.0
833.0
839.0
845.0
849.0
851.0
853.0
858.0
863.0
869.0
874.0
878.0
883.0
883.0
886.0
888.0
888.0
886.0
887.0
890.0
893.0
893.0
896.0
897.0
899.0
899.0
900.0
899.0
899.0
897.0
894.0
894.0
894.0
896.0
898.0
899.0
899.0
898.0
897.0
895.0
894.0
891.0
891.0
889.0
889.0
892.0
891.0
891.0
891.0
892.0
891.0
888.0
891.0
890.0
888.0
890.0
892.0
896.0
899.0
901.0
904.0
904.0
905.0
907.0
909.0
908.0
907.0
906.0
908.0
910.0
912.0
918.0
922.0
923.0
926.0
930.0
930.0
929.0
928.0
927.0
926.0
923.0
922.0
923.0
922.0
918.0
917.0
913.0
909.0
906.0
903.0
900.0
898.0
900.0
899.0
899.0
902.0
902.0
901.0
899.0
897.0
898.0
898.0
898.0
899.0
903.0
902.0
903.0
908.0
909.0
909.0
906.0
909.0
907.0
908.0
914.0
920.0
927.0
937.0
950.0
965.0
983.0
1005.0
1034.0
1067.0
1107.0
1149.0
1190.0
1227.0
1258.0
1289.0
1316.0
1347.0
1367.0
1367.0
1330.0
1260.0
1168.0
1067.0
978.0
914.0
874.0
855.0
857.0
865.0
874.0
883.0
882.0
885.0
885.0
883.0
883.0
888.0
887.0
887.0
888.0
887.0
887.0
885.0
883.0
881.0
879.0
878.0
880.0
880.0
881.0
881.0
881.0
880.0
878.0
877.0
876.0
874.0
873.0
872.0
872.0
870.0
874.0
875.0
872.0
873.0
872.0
870.0
870.0
868.0
865.0
865.0
866.0
864.0
865.0
862.0
860.0
863.0
862.0
860.0
861.0
858.0
857.0
855.0
853.0
853.0
852.0
850.0
853.0
855.0
853.0
853.0
853.0
