# Simple Text Format
# Sampling Rate (Hz):= 360.00
# Resolution:= 12
# Labels:= ECG
982.0
982.0
984.0
983.0
983.0
979.0
976.0
975.0
980.0
986.0
983.0
980.0
978.0
981.0
985.0
987.0
986.0
982.0
977.0
980.0
980.0
981.0
983.0
980.0
977.0
976.0
979.0
981.0
980.0
975.0
971.0
973.0
977.0
980.0
978.0
975.0
973.0
973.0
976.0
977.0
977.0
977.0
977.0
979.0
982.0
984.0
985.0
982.0
981.0
984.0
988.0
991.0
989.0
986.0
987.0
987.0
991.0
995.0
995.0
993.0
993.0
994.0
1000.0
1004.0
1004.0
1000.0
1001.0
1002.0
1009.0
1012.0
1009.0
1003.0
1000.0
999.0
997.0
995.0
994.0
989.0
985.0
987.0
987.0
987.0
985.0
979.0
977.0
975.0
977.0
977.0
975.0
966.0
968.0
965.0
969.0
968.0
968.0
962.0
965.0
967.0
972.0
972.0
972.0
968.0
968.0
970.0
973.0
976.0
973.0
973.0
969.0
972.0
975.0
978.0
980.0
976.0
981.0
981.0
983.0
986.0
987.0
986.0
984.0
985.0
988.0
990.0
990.0
985.0
987.0
988.0
986.0
994.0
991.0
992.0
988.0
989.0
992.0
992.0
991.0
988.0
986.0
985.0
988.0
992.0
989.0
989.0
990.0
994.0
1001.0
1010.0
1015.0
1031.0
1047.0
1075.0
1103.0
1133.0
1163.0
1196.0
1225.0
1253.0
1277.0
1298.0
1305.0
1295.0
1272.0
1238.0
1194.0
1147.0
1107.0
1074.0
1050.0
1030.0
1021.0
1010.0
1004.0
1000.0
996.0
991.0
992.0
989.0
986.0
980.0
976.0
975.0
975.0
976.0
974.0
967.0
966.0
968.0
971.0
973.0
969.0
967.0
965.0
965.0
968.0
969.0
966.0
961.0
959.0
958.0
962.0
963.0
959.0
952.0
951.0
952.0
955.0
959.0
955.0
955.0
953.0
956.0
960.0
963.0
962.0
960.0
959.0
961.0
963.0
968.0
968.0
966.0
967.0
970.0
975.0
982.0
982.0
980.0
978.0
983.0
986.0
991.0
992.0
992.0
990.0
993.0
995.0
998.0
997.0
997.0
996.0
995.0
1001.0
1001.0
999.0
997.0
995.0
994.0
997.0
996.0
996.0
990.0
989.0
986.0
986.0
986.0
984.0
980.0
976.0
974.0
976.0
976.0
974.0
973.0
969.0
965.0
971.0
972.0
969.0
967.0
964.0
964.0
968.0
968.0
966.0
965.0
965.0
968.0
971.0
973.0
975.0
972.0
973.0
975.0
976.0
977.0
976.0
973.0
970.0
971.0
972.0
975.0
974.0
968.0
966.0
969.0
972.0
972.0
970.0
969.0
965.0
967.0
968.0
971.0
970.0
967.0
963.0
965.0
971.0
971.0
971.0
967.0
964.0
965.0
968.0
971.0
970.0
966.0
966.0
968.0
968.0
971.0
971.0
967.0
967.0
968.0
972.0
975.0
969.0
971.0
968.0
970.0
973.0
974.0
973.0
971.0
971.0
968.0
973.0
975.0
972.0
970.0
967.0
966.0
972.0
975.0
975.0
971.0
972.0
975.0
978.0
982.0
980.0
976.0
975.0
977.0
979.0
981.0
981.0
974.0
980.0
982.0
983.0
985.0
985.0
983.0
981.0
985.0
992.0
993.0
1000.0
1008.0
1026.0
1051.0
1078.0
1108.0
1138.0
1169.0
1199.0
1230.0
1260.0
1291.0
1314.0
1324.0
1314.0
1294.0
1261.0
1218.0
1163.0
1112.0
1072.0
1044.0
1023.0
1008.0
997.0
995.0
991.0
990.0
988.0
984.0
981.0
976.0
969.0
967.0
966.0
962.0
960.0
953.0
950.0
950.0
951.0
951.0
949.0
947.0
945.0
942.0
942.0
944.0
945.0
942.0
941.0
946.0
951.0
957.0
958.0
954.0
953.0
954.0
961.0
961.0
963.0
962.0
961.0
963.0
963.0
966.0
969.0
965.0
965.0
967.0
969.0
972.0
972.0
970.0
971.0
975.0
979.0
979.0
979.0
979.0
975.0
979.0
985.0
989.0
987.0
988.0
989.0
991.0
995.0
998.0
997.0
998.0
993.0
998.0
1001.0
1003.0
1000.0
997.0
997.0
998.0
1002.0
1005.0
1002.0
998.0
994.0
993.0
996.0
999.0
993.0
987.0
986.0
983.0
986.0
987.0
984.0
979.0
974.0
973.0
974.0
976.0
972.0
968.0
968.0
967.0
971.0
975.0
974.0
974.0
967.0
966.0
968.0
968.0
967.0
963.0
961.0
963.0
964.0
966.0
965.0
964.0
963.0
965.0
965.0
967.0
967.0
969.0
967.0
967.0
970.0
976.0
975.0
972.0
971.0
972.0
973.0
970.0
968.0
967.0
964.0
967.0
969.0
972.0
965.0
964.0
962.0
969.0
971.0
973.0
971.0
971.0
968.0
969.0
973.0
975.0
972.0
970.0
971.0
971.0
976.0
977.0
975.0
970.0
969.0
969.0
973.0
974.0
972.0
968.0
966.0
969.0
973.0
974.0
975.0
974.0
976.0
980.0
983.0
986.0
986.0
981.0
980.0
982.0
985.0
989.0
986.0
983.0
982.0
984.0
985.0
987.0
987.0
985.0
981.0
981.0
984.0
986.0
984.0
982.0
977.0
979.0
981.0
982.0
978.0
977.0
976.0
975.0
974.0
977.0
975.0
977.0
973.0
977.0
977.0
980.0
974.0
973.0
974.0
974.0
976.0
977.0
974.0
975.0
973.0
975.0
976.0
976.0
974.0
975.0
972.0
971.0
974.0
975.0
973.0
971.0
967.0
970.0
976.0
978.0
974.0
977.0
976.0
980.0
984.0
983.0
982.0
984.0
985.0
987.0
991.0
993.0
991.0
986.0
985.0
986.0
989.0
991.0
990.0
987.0
983.0
981.0
986.0
985.0
986.0
983.0
981.0
981.0
984.0
984.0
981.0
978.0
978.0
980.0
982.0
984.0
981.0
982.0
979.0
982.0
984.0
988.0
987.0
985.0
983.0
985.0
990.0
997.0
1002.0
1002.0
1013.0
1022.0
1043.0
1073.0
1101.0
1129.0
1162.0
1198.0
1237.0
1269.0
1299.0
1326.0
1347.0
1353.0
1340.0
1305.0
1256.0
1195.0
1140.0
1093.0
1060.0
1029.0
1002.0
988.0
987.0
991.0
1000.0
1000.0
998.0
990.0
986.0
984.0
981.0
979.0
974.0
972.0
967.0
966.0
971.0
970.0
969.0
966.0
963.0
963.0
966.0
965.0
965.0
963.0
958.0
959.0
963.0
963.0
960.0
960.0
958.0
956.0
959.0
964.0
963.0
958.0
958.0
957.0
960.0
963.0
963.0
964.0
965.0
969.0
975.0
979.0
979.0
975.0
975.0
979.0
983.0
985.0
979.0
979.0
980.0
983.0
985.0
987.0
985.0
985.0
984.0
985.0
989.0
993.0
990.0
984.0
987.0
989.0
988.0
991.0
991.0
991.0
991.0
991.0
993.0
1000.0
1000.0
996.0
994.0
998.0
1003.0
1005.0
1002.0
999.0
993.0
994.0
995.0
996.0
993.0
988.0
985.0
983.0
985.0
986.0
982.0
982.0
980.0
980.0
981.0
982.0
981.0
979.0
975.0
978.0
981.0
981.0
982.0
980.0
978.0
979.0
980.0
981.0
982.0
978.0
977.0
978.0
982.0
983.0
982.0
980.0
978.0
980.0
982.0
986.0
981.0
978.0
976.0
976.0
979.0
982.0
979.0
979.0
974.0
975.0
981.0
986.0
983.0
982.0
979.0
981.0
983.0
986.0
982.0
979.0
981.0
980.0
983.0
985.0
986.0
980.0
984.0
986.0
987.0
990.0
986.0
985.0
983.0
984.0
986.0
986.0
985.0
982.0
981.0
982.0
983.0
986.0
982.0
979.0
976.0
975.0
980.0
981.0
981.0
976.0
973.0
975.0
978.0
980.0
978.0
974.0
971.0
973.0
975.0
976.0
975.0
970.0
969.0
970.0
972.0
975.0
973.0
970.0
969.0
972.0
973.0
975.0
973.0
970.0
967.0
968.0
970.0
973.0
972.0
972.0
972.0
973.0
974.0
980.0
978.0
976.0
974.0
974.0
980.0
980.0
981.0
976.0
975.0
979.0
981.0
982.0
979.0
980.0
977.0
977.0
981.0
984.0
980.0
979.0
974.0
975.0
979.0
980.0
979.0
974.0
973.0
976.0
977.0
980.0
977.0
973.0
972.0
975.0
981.0
981.0
978.0
977.0
974.0
976.0
979.0
980.0
978.0
977.0
974.0
975.0
979.0
983.0
981.0
979.0
977.0
975.0
983.0
982.0
981.0
981.0
978.0
978.0
984.0
986.0
985.0
984.0
983.0
985.0
988.0
992.0
996.0
998.0
1003.0
1010.0
1021.0
1037.0
1054.0
1082.0
1109.0
1145.0
1185.0
1222.0
1251.0
1281.0
1307.0
1336.0
1355.0
1356.0
1333.0
1289.0
1232.0
1170.0
1117.0
1072.0
1031.0
998.0
976.0
972.0
977.0
984.0
987.0
982.0
976.0
975.0
975.0
975.0
972.0
969.0
965.0
966.0
967.0
968.0
967.0
962.0
959.0
960.0
963.0
965.0
961.0
957.0
953.0
957.0
958.0
961.0
959.0
955.0
953.0
953.0
957.0
960.0
960.0
958.0
953.0
957.0
958.0
963.0
964.0
962.0
959.0
962.0
965.0
970.0
970.0
967.0
968.0
968.0
969.0
973.0
974.0
972.0
969.0
970.0
977.0
978.0
977.0
979.0
977.0
978.0
984.0
988.0
988.0
987.0
984.0
983.0
985.0
989.0
989.0
986.0
983.0
985.0
987.0
988.0
990.0
987.0
985.0
986.0
986.0
988.0
987.0
985.0
984.0
984.0
984.0
982.0
980.0
977.0
972.0
971.0
972.0
973.0
970.0
967.0
964.0
964.0
965.0
965.0
965.0
960.0
958.0
960.0
960.0
964.0
964.0
959.0
962.0
960.0
967.0
967.0
969.0
967.0
964.0
968.0
971.0
973.0
973.0
969.0
965.0
970.0
973.0
978.0
979.0
976.0
974.0
977.0
978.0
982.0
979.0
977.0
974.0
976.0
977.0
980.0
978.0
975.0
974.0
973.0
976.0
979.0
981.0
977.0
973.0
974.0
976.0
978.0
979.0
976.0
973.0
974.0
975.0
979.0
980.0
975.0
975.0
977.0
982.0
984.0
984.0
983.0
984.0
986.0
992.0
1001.0
1007.0
1011.0
1018.0
1039.0
1064.0
1091.0
1119.0
1144.0
1174.0
1213.0
1241.0
1269.0
1288.0
1297.0
1290.0
1269.0
1238.0
1192.0
1140.0
1093.0
1066.0
1041.0
1022.0
1006.0
993.0
986.0
982.0
979.0
975.0
970.0
966.0
961.0
956.0
955.0
958.0
958.0
956.0
952.0
949.0
951.0
951.0
954.0
954.0
948.0
947.0
948.0
952.0
955.0
953.0
950.0
947.0
949.0
952.0
957.0
953.0
950.0
948.0
951.0
954.0
957.0
958.0
957.0
956.0
960.0
962.0
961.0
962.0
959.0
959.0
962.0
968.0
971.0
971.0
970.0
970.0
976.0
980.0
982.0
982.0
982.0
982.0
987.0
992.0
995.0
994.0
994.0
995.0
996.0
1002.0
1003.0
1002.0
1002.0
999.0
1001.0
1000.0
1000.0
997.0
991.0
991.0
987.0
989.0
986.0
983.0
976.0
973.0
973.0
971.0
971.0
966.0
965.0
960.0
959.0
961.0
963.0
961.0
958.0
956.0
956.0
959.0
963.0
962.0
958.0
958.0
958.0
962.0
963.0
965.0
962.0
959.0
958.0
959.0
964.0
962.0
959.0
958.0
960.0
965.0
966.0
965.0
963.0
962.0
962.0
965.0
970.0
969.0
964.0
961.0
961.0
961.0
963.0
961.0
957.0
959.0
958.0
959.0
967.0
967.0
964.0
960.0
957.0
965.0
967.0
964.0
960.0
957.0
961.0
959.0
964.0
960.0
957.0
956.0
956.0
961.0
959.0
960.0
959.0
958.0
960.0
962.0
967.0
965.0
962.0
961.0
964.0
966.0
968.0
965.0
964.0
961.0
966.0
969.0
972.0
972.0
969.0
968.0
968.0
972.0
972.0
972.0
966.0
967.0
969.0
971.0
970.0
971.0
967.0
965.0
964.0
967.0
971.0
974.0
973.0
970.0
971.0
978.0
978.0
979.0
980.0
982.0
987.0
992.0
999.0
1010.0
1028.0
1054.0
1092.0
1127.0
1163.0
1205.0
1233.0
1261.0
1289.0
1310.0
1312.0
1292.0
1250.0
1196.0
1133.0
1079.0
1039.0
1008.0
987.0
976.0
975.0
978.0
979.0
976.0
972.0
964.0
960.0
963.0
960.0
958.0
954.0
951.0
954.0
958.0
960.0
957.0
958.0
955.0
955.0
957.0
955.0
955.0
950.0
949.0
950.0
953.0
955.0
956.0
953.0
951.0
953.0
954.0
956.0
954.0
952.0
947.0
952.0
952.0
955.0
956.0
952.0
952.0
954.0
956.0
961.0
960.0
960.0
958.0
960.0
967.0
969.0
969.0
967.0
967.0
971.0
974.0
980.0
980.0
979.0
975.0
979.0
986.0
988.0
990.0
991.0
988.0
989.0
992.0
995.0
995.0
994.0
992.0
993.0
994.0
996.0
993.0
987.0
985.0
983.0
987.0
986.0
984.0
980.0
975.0
975.0
975.0
975.0
972.0
970.0
969.0
968.0
970.0
969.0
967.0
965.0
965.0
967.0
968.0
971.0
969.0
964.0
966.0
965.0
968.0
971.0
970.0
965.0
963.0
966.0
971.0
974.0
974.0
970.0
970.0
972.0
974.0
974.0
974.0
970.0
967.0
972.0
971.0
968.0
967.0
964.0
960.0
959.0
964.0
965.0
963.0
961.0
962.0
963.0
961.0
965.0
963.0
960.0
959.0
960.0
962.0
969.0
965.0
960.0
958.0
962.0
966.0
968.0
971.0
971.0
972.0
974.0
980.0
986.0
989.0
992.0
998.0
1010.0
1025.0
1052.0
1078.0
1106.0
1136.0
1176.0
1215.0
1250.0
1277.0
1301.0
1309.0
1302.0
1271.0
1224.0
1158.0
1094.0
1040.0
1001.0
979.0
968.0
966.0
969.0
968.0
970.0
970.0
966.0
963.0
955.0
954.0
951.0
952.0
955.0
950.0
948.0
944.0
944.0
947.0
947.0
945.0
942.0
941.0
944.0
945.0
947.0
945.0
944.0
945.0
945.0
951.0
956.0
957.0
954.0
954.0
956.0
957.0
962.0
964.0
963.0
961.0
962.0
965.0
969.0
968.0
967.0
964.0
970.0
972.0
975.0
976.0
973.0
973.0
973.0
973.0
977.0
978.0
975.0
974.0
976.0
980.0
985.0
984.0
982.0
980.0
983.0
985.0
991.0
990.0
987.0
985.0
986.0
986.0
988.0
987.0
977.0
975.0
977.0
977.0
977.0
975.0
972.0
969.0
970.0
973.0
976.0
973.0
970.0
967.0
967.0
970.0
974.0
974.0
969.0
966.0
968.0
966.0
971.0
973.0
969.0
964.0
966.0
967.0
974.0
971.0
970.0
966.0
965.0
969.0
970.0
966.0
966.0
964.0
967.0
969.0
967.0
968.0
962.0
963.0
962.0
966.0
966.0
962.0
963.0
959.0
962.0
963.0
965.0
962.0
956.0
955.0
955.0
961.0
965.0
963.0
960.0
958.0
961.0
962.0
967.0
967.0
963.0
961.0
964.0
967.0
966.0
969.0
966.0
964.0
966.0
969.0
969.0
969.0
968.0
969.0
970.0
974.0
973.0
972.0
971.0
968.0
973.0
976.0
977.0
976.0
971.0
968.0
970.0
972.0
972.0
971.0
970.0
966.0
968.0
972.0
973.0
970.0
968.0
968.0
971.0
972.0
974.0
969.0
968.0
965.0
966.0
967.0
968.0
967.0
967.0
966.0
968.0
969.0
971.0
969.0
968.0
970.0
973.0
974.0
979.0
985.0
986.0
987.0
998.0
1010.0
1026.0
1052.0
1079.0
1110.0
1148.0
1187.0
1224.0
1257.0
1285.0
1316.0
1342.0
1354.0
1343.0
1308.0
1254.0
1189.0
1127.0
1076.0
1038.0
1007.0
984.0
972.0
974.0
978.0
981.0
976.0
968.0
961.0
960.0
957.0
959.0
953.0
950.0
944.0
941.0
943.0
944.0
944.0
940.0
937.0
937.0
938.0
940.0
938.0
937.0
933.0
935.0
937.0
940.0
942.0
942.0
939.0
943.0
943.0
950.0
949.0
944.0
941.0
947.0
950.0
954.0
953.0
951.0
948.0
950.0
952.0
958.0
959.0
958.0
955.0
957.0
959.0
961.0
960.0
956.0
953.0
954.0
956.0
959.0
957.0
955.0
953.0
954.0
957.0
960.0
960.0
955.0
956.0
961.0
964.0
967.0
969.0
967.0
966.0
968.0
969.0
972.0
969.0
971.0
966.0
969.0
971.0
974.0
975.0
968.0
964.0
967.0
969.0
972.0
971.0
966.0
962.0
961.0
964.0
967.0
965.0
964.0
961.0
963.0
965.0
968.0
968.0
964.0
962.0
962.0
965.0
967.0
965.0
962.0
960.0
962.0
962.0
962.0
961.0
959.0
957.0
959.0
961.0
960.0
961.0
959.0
956.0
958.0
960.0
964.0
963.0
959.0
958.0
961.0
964.0
963.0
962.0
963.0
962.0
965.0
968.0
967.0
966.0
964.0
963.0
964.0
968.0
970.0
970.0
969.0
966.0
968.0
966.0
968.0
968.0
963.0
965.0
967.0
970.0
972.0
968.0
966.0
965.0
965.0
965.0
967.0
967.0
965.0
964.0
964.0
966.0
966.0
963.0
962.0
962.0
962.0
964.0
962.0
961.0
960.0
958.0
961.0
964.0
965.0
965.0
961.0
960.0
962.0
963.0
965.0
964.0
961.0
957.0
957.0
960.0
964.0
964.0
964.0
963.0
965.0
969.0
974.0
971.0
964.0
966.0
966.0
969.0
973.0
970.0
969.0
969.0
970.0
974.0
977.0
977.0
975.0
983.0
984.0
994.0
1005.0
1021.0
1038.0
1063.0
1090.0
1123.0
1160.0
1191.0
1223.0
1245.0
1275.0
1300.0
1310.0
1297.0
1267.0
1220.0
1165.0
1113.0
1072.0
1038.0
1010.0
991.0
980.0
979.0
982.0
978.0
969.0
962.0
958.0
956.0
954.0
951.0
948.0
943.0
944.0
946.0
947.0
942.0
941.0
938.0
940.0
944.0
947.0
944.0
942.0
940.0
944.0
947.0
947.0
945.0
939.0
942.0
940.0
943.0
945.0
943.0
940.0
939.0
942.0
943.0
946.0
942.0
940.0
940.0
943.0
944.0
945.0
945.0
946.0
947.0
945.0
949.0
954.0
954.0
955.0
955.0
955.0
956.0
962.0
959.0
961.0
958.0
961.0
964.0
967.0
967.0
964.0
966.0
967.0
970.0
970.0
973.0
971.0
969.0
969.0
972.0
974.0
974.0
970.0
970.0
968.0
967.0
967.0
965.0
958.0
954.0
955.0
955.0
955.0
951.0
951.0
947.0
946.0
945.0
946.0
944.0
939.0
937.0
934.0
936.0
938.0
939.0
938.0
936.0
937.0
939.0
942.0
942.0
940.0
941.0
943.0
946.0
950.0
952.0
947.0
946.0
947.0
948.0
951.0
950.0
949.0
944.0
945.0
948.0
950.0
947.0
947.0
945.0
945.0
950.0
950.0
950.0
949.0
948.0
950.0
951.0
953.0
953.0
955.0
957.0
960.0
961.0
965.0
967.0
963.0
962.0
963.0
966.0
969.0
972.0
972.0
978.0
986.0
999.0
1017.0
1039.0
1060.0
1082.0
1107.0
1132.0
1159.0
1191.0
1218.0
1239.0
1259.0
1275.0
1280.0
1265.0
1235.0
1196.0
1146.0
1097.0
1057.0
1027.0
1005.0
988.0
974.0
973.0
973.0
970.0
962.0
957.0
953.0
951.0
951.0
949.0
944.0
942.0
940.0
940.0
943.0
938.0
933.0
933.0
933.0
934.0
937.0
933.0
932.0
929.0
930.0
930.0
935.0
931.0
927.0
927.0
926.0
930.0
932.0
934.0
931.0
927.0
930.0
934.0
936.0
933.0
933.0
928.0
931.0
932.0
934.0
936.0
934.0
931.0
932.0
937.0
938.0
940.0
939.0
939.0
942.0
945.0
952.0
953.0
949.0
950.0
951.0
956.0
960.0
959.0
959.0
961.0
964.0
967.0
972.0
971.0
968.0
968.0
972.0
973.0
977.0
977.0
977.0
974.0
976.0
975.0
977.0
972.0
970.0
962.0
961.0
961.0
960.0
956.0
954.0
948.0
946.0
948.0
947.0
946.0
942.0
940.0
937.0
939.0
937.0
941.0
940.0
938.0
940.0
942.0
940.0
941.0
940.0
941.0
937.0
939.0
943.0
944.0
941.0
941.0
942.0
945.0
948.0
947.0
940.0
941.0
944.0
947.0
952.0
950.0
943.0
948.0
950.0
952.0
953.0
954.0
953.0
951.0
954.0
954.0
958.0
951.0
953.0
953.0
949.0
952.0
957.0
954.0
950.0
950.0
951.0
954.0
957.0
955.0
951.0
947.0
951.0
953.0
953.0
951.0
948.0
948.0
947.0
949.0
953.0
950.0
947.0
947.0
946.0
951.0
955.0
952.0
951.0
950.0
951.0
955.0
956.0
955.0
954.0
952.0
955.0
956.0
958.0
954.0
952.0
949.0
954.0
958.0
958.0
957.0
955.0
954.0
952.0
955.0
957.0
955.0
954.0
950.0
953.0
955.0
958.0
958.0
958.0
952.0
953.0
957.0
961.0
957.0
953.0
953.0
953.0
954.0
958.0
955.0
953.0
949.0
948.0
950.0
952.0
954.0
951.0
951.0
950.0
952.0
956.0
959.0
953.0
950.0
949.0
953.0
956.0
957.0
952.0
953.0
956.0
958.0
962.0
958.0
957.0
953.0
956.0
956.0
958.0
956.0
953.0
953.0
955.0
955.0
957.0
956.0
955.0
949.0
949.0
957.0
957.0
956.0
954.0
948.0
952.0
955.0
956.0
956.0
953.0
952.0
953.0
956.0
959.0
960.0
958.0
958.0
959.0
960.0
965.0
966.0
965.0
965.0
967.0
974.0
977.0
980.0
985.0
987.0
994.0
1005.0
1022.0
1044.0
1068.0
1097.0
1129.0
1167.0
1202.0
1229.0
1257.0
1282.0
1311.0
1331.0
1324.0
1293.0
1243.0
1185.0
1122.0
1076.0
1039.0
1007.0
977.0
959.0
957.0
969.0
972.0
971.0
969.0
961.0
962.0
958.0
959.0
956.0
950.0
946.0
947.0
945.0
947.0
944.0
943.0
939.0
936.0
938.0
941.0
941.0
939.0
938.0
940.0
942.0
945.0
945.0
942.0
940.0
941.0
944.0
946.0
942.0
936.0
938.0
941.0
946.0
945.0
943.0
941.0
942.0
942.0
944.0
948.0
945.0
943.0
941.0
943.0
950.0
953.0
951.0
952.0
956.0
959.0
961.0
966.0
967.0
964.0
968.0
970.0
974.0
977.0
979.0
975.0
972.0
975.0
976.0
978.0
976.0
974.0
973.0
972.0
977.0
980.0
977.0
978.0
978.0
977.0
978.0
979.0
979.0
977.0
976.0
980.0
981.0
983.0
982.0
980.0
976.0
976.0
975.0
977.0
972.0
970.0
964.0
965.0
965.0
965.0
963.0
958.0
954.0
958.0
955.0
957.0
957.0
954.0
951.0
956.0
957.0
958.0
953.0
952.0
953.0
954.0
958.0
960.0
954.0
956.0
954.0
956.0
960.0
963.0
961.0
962.0
961.0
965.0
970.0
978.0
976.0
973.0
972.0
975.0
974.0
977.0
979.0
975.0
972.0
972.0
974.0
978.0
977.0
975.0
974.0
974.0
977.0
979.0
978.0
975.0
972.0
974.0
976.0
977.0
975.0
973.0
972.0
973.0
973.0
974.0
974.0
971.0
970.0
968.0
971.0
971.0
968.0
964.0
963.0
966.0
966.0
966.0
966.0
963.0
961.0
960.0
966.0
968.0
965.0
965.0
962.0
965.0
966.0
969.0
968.0
965.0
964.0
966.0
971.0
970.0
971.0
966.0
967.0
967.0
970.0
970.0
966.0
965.0
964.0
962.0
966.0
967.0
966.0
960.0
958.0
957.0
962.0
966.0
964.0
962.0
963.0
965.0
970.0
973.0
971.0
969.0
968.0
969.0
968.0
970.0
970.0
968.0
963.0
964.0
963.0
965.0
961.0
959.0
957.0
956.0
958.0
963.0
962.0
960.0
956.0
960.0
961.0
963.0
962.0
959.0
958.0
959.0
964.0
965.0
963.0
960.0
957.0
959.0
960.0
966.0
964.0
965.0
964.0
964.0
969.0
972.0
971.0
970.0
967.0
968.0
970.0
969.0
970.0
966.0
964.0
968.0
970.0
974.0
972.0
971.0
971.0
971.0
972.0
975.0
975.0
970.0
972.0
974.0
976.0
978.0
977.0
972.0
971.0
970.0
971.0
973.0
970.0
965.0
968.0
969.0
974.0
981.0
987.0
991.0
991.0
1000.0
1013.0
1027.0
1052.0
1076.0
1104.0
1142.0
1179.0
1215.0
1245.0
1276.0
1306.0
1331.0
1339.0
1329.0
1291.0
1234.0
1171.0
1113.0
1069.0
1033.0
1003.0
981.0
970.0
972.0
975.0
977.0
974.0
970.0
963.0
960.0
964.0
964.0
961.0
957.0
954.0
955.0
956.0
957.0
954.0
951.0
950.0
950.0
952.0
954.0
949.0
947.0
945.0
944.0
946.0
948.0
946.0
942.0
940.0
941.0
942.0
941.0
941.0
936.0
937.0
940.0
946.0
946.0
947.0
950.0
951.0
954.0
957.0
960.0
961.0
959.0
958.0
959.0
962.0
966.0
965.0
965.0
964.0
964.0
966.0
968.0
967.0
964.0
961.0
963.0
965.0
965.0
963.0
961.0
959.0
961.0
965.0
966.0
963.0
962.0
961.0
967.0
970.0
971.0
967.0
966.0
964.0
965.0
966.0
966.0
961.0
957.0
953.0
953.0
954.0
953.0
951.0
945.0
942.0
943.0
947.0
947.0
943.0
942.0
937.0
938.0
940.0
944.0
941.0
939.0
937.0
938.0
946.0
945.0
946.0
941.0
941.0
942.0
945.0
944.0
947.0
940.0
940.0
944.0
949.0
953.0
953.0
951.0
948.0
951.0
955.0
957.0
957.0
958.0
958.0
961.0
964.0
967.0
965.0
962.0
960.0
959.0
961.0
965.0
960.0
954.0
954.0
954.0
957.0
957.0
956.0
952.0
948.0
950.0
951.0
953.0
951.0
951.0
950.0
950.0
952.0
959.0
957.0
955.0
954.0
955.0
957.0
960.0
958.0
955.0
954.0
950.0
955.0
957.0
957.0
955.0
952.0
950.0
953.0
955.0
953.0
952.0
949.0
948.0
950.0
955.0
953.0
951.0
948.0
947.0
952.0
953.0
955.0
952.0
953.0
954.0
959.0
960.0
958.0
954.0
950.0
952.0
951.0
954.0
954.0
949.0
947.0
948.0
949.0
951.0
951.0
947.0
948.0
947.0
952.0
958.0
957.0
956.0
955.0
958.0
962.0
963.0
962.0
962.0
962.0
963.0
965.0
966.0
965.0
960.0
959.0
957.0
959.0
961.0
960.0
957.0
955.0
954.0
955.0
957.0
955.0
953.0
952.0
950.0
952.0
955.0
956.0
951.0
952.0
950.0
952.0
956.0
951.0
950.0
948.0
951.0
953.0
955.0
954.0
955.0
955.0
958.0
961.0
963.0
962.0
963.0
965.0
969.0
975.0
983.0
984.0
988.0
998.0
1015.0
1038.0
1066.0
1092.0
1117.0
1143.0
1175.0
1210.0
1237.0
1262.0
1285.0
1299.0
1302.0
1288.0
1263.0
1220.0
1170.0
1116.0
1076.0
1046.0
1028.0
1011.0
994.0
987.0
987.0
988.0
984.0
980.0
973.0
967.0
966.0
963.0
964.0
961.0
952.0
952.0
954.0
954.0
952.0
950.0
947.0
944.0
944.0
945.0
947.0
946.0
944.0
940.0
943.0
946.0
948.0
947.0
943.0
941.0
941.0
946.0
947.0
948.0
945.0
944.0
943.0
946.0
949.0
948.0
946.0
944.0
944.0
948.0
953.0
951.0
947.0
945.0
948.0
952.0
956.0
955.0
959.0
957.0
963.0
965.0
969.0
970.0
968.0
968.0
972.0
974.0
976.0
975.0
973.0
975.0
977.0
981.0
983.0
984.0
983.0
981.0
980.0
985.0
985.0
983.0
978.0
974.0
979.0
980.0
984.0
979.0
977.0
973.0
971.0
971.0
970.0
966.0
963.0
957.0
960.0
961.0
963.0
960.0
954.0
951.0
948.0
950.0
951.0
949.0
943.0
944.0
944.0
945.0
947.0
945.0
940.0
937.0
935.0
940.0
940.0
940.0
939.0
940.0
941.0
947.0
948.0
951.0
948.0
947.0
948.0
951.0
956.0
956.0
953.0
954.0
952.0
956.0
959.0
959.0
956.0
955.0
955.0
958.0
960.0
959.0
956.0
952.0
954.0
956.0
959.0
959.0
957.0
960.0
961.0
961.0
962.0
962.0
959.0
956.0
955.0
957.0
957.0
957.0
954.0
948.0
947.0
950.0
951.0
949.0
946.0
940.0
941.0
943.0
943.0
944.0
941.0
939.0
940.0
941.0
944.0
942.0
939.0
935.0
935.0
938.0
942.0
940.0
937.0
936.0
943.0
948.0
954.0
954.0
954.0
949.0
948.0
953.0
959.0
959.0
955.0
954.0
954.0
954.0
956.0
956.0
953.0
952.0
950.0
959.0
962.0
961.0
961.0
963.0
961.0
965.0
965.0
960.0
959.0
955.0
958.0
958.0
961.0
958.0
952.0
953.0
952.0
954.0
957.0
952.0
951.0
945.0
947.0
947.0
950.0
950.0
944.0
944.0
946.0
951.0
949.0
948.0
948.0
944.0
946.0
949.0
950.0
949.0
947.0
943.0
947.0
948.0
950.0
950.0
950.0
947.0
946.0
952.0
954.0
956.0
956.0
953.0
957.0
962.0
965.0
963.0
962.0
963.0
967.0
970.0
978.0
979.0
980.0
981.0
988.0
996.0
1001.0
1008.0
1024.0
1045.0
1072.0
1102.0
1134.0
1167.0
1194.0
1221.0
1248.0
1274.0
1289.0
1284.0
1253.0
1212.0
1157.0
1100.0
1056.0
1020.0
993.0
974.0
966.0
964.0
970.0
971.0
964.0
957.0
953.0
952.0
950.0
949.0
944.0
944.0
946.0
943.0
945.0
945.0
941.0
937.0
939.0
943.0
946.0
945.0
942.0
941.0
946.0
948.0
954.0
954.0
953.0
952.0
956.0
960.0
963.0
960.0
958.0
957.0
957.0
960.0
962.0
959.0
958.0
957.0
957.0
958.0
962.0
961.0
960.0
957.0
956.0
958.0
962.0
963.0
962.0
961.0
961.0
965.0
968.0
966.0
965.0
964.0
966.0
972.0
974.0
974.0
974.0
973.0
977.0
980.0
984.0
981.0
979.0
980.0
982.0
983.0
985.0
984.0
979.0
977.0
978.0
979.0
981.0
979.0
973.0
969.0
969.0
971.0
972.0
971.0
963.0
958.0
956.0
959.0
958.0
956.0
954.0
952.0
952.0
953.0
955.0
953.0
950.0
949.0
950.0
954.0
957.0
956.0
956.0
956.0
958.0
960.0
960.0
958.0
955.0
954.0
956.0
959.0
962.0
960.0
958.0
956.0
957.0
960.0
962.0
959.0
957.0
958.0
959.0
963.0
962.0
963.0
962.0
962.0
962.0
964.0
967.0
967.0
964.0
964.0
965.0
969.0
973.0
967.0
967.0
965.0
963.0
966.0
967.0
965.0
962.0
959.0
960.0
964.0
964.0
963.0
958.0
955.0
955.0
957.0
958.0
956.0
956.0
953.0
953.0
953.0
955.0
954.0
953.0
954.0
955.0
959.0
964.0
960.0
959.0
958.0
958.0
964.0
968.0
966.0
963.0
957.0
960.0
963.0
970.0
968.0
966.0
