# Simple Text Format
# Sampling Rate (Hz):= 360.00
# Resolution:= 12
# Labels:= ECG
970.0
968.0
969.0
974.0
974.0
972.0
970.0
971.0
975.0
980.0
981.0
977.0
975.0
976.0
977.0
979.0
979.0
978.0
976.0
976.0
977.0
977.0
980.0
976.0
973.0
973.0
975.0
976.0
973.0
975.0
972.0
972.0
977.0
975.0
978.0
975.0
973.0
972.0
972.0
976.0
976.0
974.0
972.0
975.0
975.0
979.0
978.0
974.0
973.0
969.0
968.0
973.0
971.0
971.0
970.0
967.0
970.0
977.0
977.0
980.0
977.0
976.0
974.0
979.0
980.0
980.0
975.0
977.0
983.0
986.0
986.0
983.0
978.0
980.0
982.0
984.0
984.0
980.0
977.0
975.0
977.0
979.0
980.0
978.0
974.0
972.0
975.0
978.0
978.0
977.0
973.0
975.0
974.0
975.0
978.0
977.0
972.0
975.0
978.0
979.0
977.0
974.0
972.0
972.0
975.0
975.0
976.0
976.0
975.0
975.0
977.0
985.0
993.0
993.0
999.0
1005.0
1014.0
1038.0
1064.0
1091.0
1116.0
1150.0
1187.0
1223.0
1257.0
1286.0
1309.0
1319.0
1313.0
1286.0
1245.0
1189.0
1135.0
1088.0
1056.0
1033.0
1018.0
1007.0
1003.0
1001.0
1000.0
1001.0
996.0
991.0
986.0
982.0
979.0
978.0
979.0
975.0
973.0
972.0
973.0
975.0
976.0
973.0
972.0
969.0
971.0
973.0
972.0
970.0
966.0
963.0
963.0
968.0
966.0
964.0
960.0
960.0
963.0
966.0
965.0
965.0
958.0
961.0
965.0
967.0
970.0
969.0
968.0
970.0
975.0
979.0
983.0
983.0
978.0
979.0
980.0
988.0
988.0
987.0
988.0
988.0
990.0
993.0
996.0
998.0
1000.0
1003.0
1010.0
1015.0
1018.0
1017.0
1015.0
1018.0
1022.0
1023.0
1021.0
1017.0
1013.0
1013.0
1013.0
1010.0
1008.0
1003.0
998.0
994.0
994.0
992.0
988.0
984.0
980.0
975.0
975.0
974.0
976.0
973.0
968.0
967.0
966.0
967.0
968.0
966.0
965.0
963.0
964.0
968.0
968.0
967.0
963.0
965.0
968.0
966.0
968.0
968.0
967.0
964.0
967.0
968.0
969.0
970.0
964.0
967.0
966.0
970.0
969.0
970.0
966.0
969.0
971.0
972.0
978.0
979.0
978.0
979.0
982.0
984.0
986.0
984.0
983.0
983.0
983.0
985.0
983.0
983.0
979.0
981.0
982.0
983.0
981.0
981.0
978.0
980.0
979.0
986.0
985.0
984.0
979.0
982.0
984.0
984.0
984.0
981.0
976.0
976.0
977.0
979.0
980.0
975.0
973.0
970.0
971.0
978.0
977.0
976.0
975.0
973.0
972.0
975.0
975.0
973.0
970.0
967.0
968.0
970.0
969.0
967.0
964.0
963.0
965.0
966.0
967.0
967.0
966.0
967.0
970.0
975.0
975.0
969.0
968.0
968.0
968.0
967.0
970.0
966.0
961.0
965.0
970.0
972.0
972.0
971.0
968.0
970.0
970.0
971.0
973.0
975.0
971.0
971.0
973.0
976.0
977.0
977.0
973.0
974.0
974.0
979.0
978.0
977.0
975.0
973.0
975.0
977.0
981.0
978.0
975.0
973.0
972.0
974.0
974.0
974.0
970.0
968.0
973.0
974.0
974.0
974.0
971.0
969.0
974.0
975.0
975.0
975.0
974.0
972.0
976.0
984.0
993.0
996.0
1001.0
1009.0
1027.0
1049.0
1072.0
1101.0
1128.0
1160.0
1196.0
1230.0
1256.0
1283.0
1301.0
1306.0
1297.0
1267.0
1220.0
1165.0
1107.0
1065.0
1037.0
1017.0
1004.0
994.0
992.0
993.0
991.0
989.0
981.0
978.0
972.0
970.0
968.0
972.0
972.0
968.0
963.0
960.0
960.0
962.0
966.0
960.0
957.0
955.0
958.0
960.0
959.0
956.0
955.0
955.0
955.0
957.0
958.0
954.0
950.0
950.0
956.0
960.0
958.0
959.0
957.0
955.0
966.0
973.0
975.0
975.0
976.0
979.0
982.0
987.0
989.0
988.0
990.0
988.0
990.0
997.0
999.0
997.0
995.0
996.0
999.0
1003.0
1005.0
1005.0
1004.0
1003.0
1004.0
1009.0
1010.0
1012.0
1012.0
1013.0
1016.0
1019.0
1019.0
1014.0
1007.0
1006.0
1006.0
1005.0
1003.0
998.0
990.0
987.0
984.0
984.0
983.0
977.0
973.0
970.0
969.0
971.0
969.0
964.0
961.0
961.0
964.0
965.0
966.0
964.0
965.0
965.0
966.0
967.0
968.0
966.0
962.0
964.0
967.0
971.0
968.0
969.0
964.0
963.0
963.0
970.0
972.0
968.0
968.0
968.0
971.0
972.0
974.0
973.0
971.0
973.0
975.0
976.0
977.0
974.0
968.0
971.0
971.0
971.0
970.0
967.0
963.0
962.0
964.0
968.0
971.0
968.0
966.0
965.0
967.0
968.0
968.0
966.0
966.0
964.0
967.0
970.0
971.0
971.0
969.0
971.0
974.0
974.0
974.0
975.0
971.0
972.0
973.0
976.0
977.0
974.0
971.0
970.0
972.0
973.0
975.0
973.0
969.0
968.0
968.0
972.0
976.0
976.0
974.0
977.0
984.0
988.0
993.0
991.0
991.0
994.0
999.0
1003.0
1007.0
1007.0
1010.0
1016.0
1028.0
1054.0
1081.0
1105.0
1132.0
1164.0
1198.0
1233.0
1264.0
1290.0
1313.0
1319.0
1308.0
1272.0
1214.0
1151.0
1095.0
1052.0
1020.0
996.0
977.0
977.0
979.0
985.0
988.0
987.0
984.0
977.0
971.0
970.0
968.0
970.0
966.0
964.0
962.0
962.0
962.0
963.0
961.0
960.0
956.0
952.0
955.0
956.0
958.0
958.0
954.0
954.0
955.0
961.0
963.0
965.0
965.0
961.0
965.0
968.0
968.0
967.0
963.0
963.0
964.0
969.0
969.0
969.0
965.0
964.0
966.0
971.0
970.0
969.0
969.0
967.0
969.0
974.0
976.0
979.0
979.0
980.0
984.0
989.0
992.0
990.0
992.0
995.0
997.0
1000.0
1006.0
1004.0
1000.0
1000.0
1003.0
1008.0
1007.0
1004.0
1001.0
1001.0
997.0
999.0
996.0
992.0
989.0
985.0
982.0
984.0
979.0
978.0
972.0
973.0
972.0
974.0
975.0
970.0
966.0
966.0
970.0
971.0
970.0
969.0
966.0
963.0
963.0
963.0
961.0
963.0
959.0
956.0
954.0
960.0
956.0
957.0
955.0
956.0
959.0
961.0
962.0
960.0
957.0
958.0
958.0
964.0
964.0
964.0
963.0
965.0
970.0
970.0
969.0
972.0
967.0
963.0
967.0
970.0
970.0
968.0
964.0
965.0
965.0
969.0
968.0
962.0
956.0
960.0
965.0
968.0
970.0
968.0
964.0
963.0
965.0
965.0
965.0
961.0
956.0
956.0
959.0
959.0
958.0
959.0
958.0
960.0
963.0
965.0
963.0
960.0
954.0
953.0
957.0
956.0
955.0
957.0
954.0
953.0
954.0
957.0
959.0
958.0
955.0
956.0
958.0
962.0
960.0
961.0
960.0
962.0
966.0
969.0
967.0
964.0
958.0
958.0
959.0
963.0
965.0
961.0
960.0
957.0
960.0
961.0
965.0
962.0
959.0
959.0
963.0
969.0
969.0
970.0
966.0
965.0
966.0
970.0
968.0
963.0
962.0
960.0
963.0
963.0
961.0
959.0
956.0
958.0
960.0
959.0
958.0
957.0
956.0
953.0
956.0
956.0
959.0
955.0
955.0
951.0
957.0
962.0
964.0
966.0
962.0
961.0
964.0
969.0
969.0
965.0
967.0
969.0
972.0
979.0
978.0
978.0
970.0
969.0
970.0
971.0
971.0
970.0
966.0
966.0
968.0
967.0
966.0
968.0
968.0
966.0
965.0
968.0
967.0
969.0
964.0
964.0
965.0
966.0
967.0
967.0
965.0
960.0
962.0
963.0
961.0
964.0
959.0
957.0
961.0
961.0
959.0
961.0
957.0
957.0
962.0
959.0
964.0
959.0
958.0
957.0
956.0
962.0
966.0
964.0
964.0
964.0
970.0
975.0
980.0
988.0
990.0
999.0
1014.0
1040.0
1069.0
1098.0
1128.0
1164.0
1199.0
1234.0
1269.0
1301.0
1320.0
1325.0
1306.0
1273.0
1226.0
1174.0
1122.0
1081.0
1047.0
1026.0
1006.0
996.0
990.0
988.0
992.0
992.0
988.0
979.0
971.0
968.0
965.0
967.0
966.0
961.0
957.0
956.0
956.0
956.0
957.0
954.0
951.0
948.0
949.0
951.0
954.0
951.0
945.0
945.0
946.0
949.0
947.0
947.0
945.0
941.0
945.0
947.0
949.0
947.0
946.0
948.0
951.0
952.0
956.0
957.0
956.0
960.0
964.0
969.0
972.0
973.0
970.0
967.0
973.0
974.0
978.0
973.0
977.0
976.0
980.0
989.0
991.0
992.0
995.0
995.0
997.0
1002.0
1001.0
1002.0
1003.0
1001.0
1004.0
1009.0
1009.0
1007.0
1004.0
1002.0
1005.0
1006.0
1007.0
1003.0
997.0
994.0
992.0
996.0
992.0
988.0
982.0
978.0
977.0
979.0
977.0
973.0
969.0
963.0
964.0
967.0
968.0
966.0
964.0
960.0
961.0
965.0
966.0
964.0
962.0
961.0
963.0
967.0
969.0
966.0
961.0
963.0
963.0
968.0
968.0
967.0
964.0
962.0
962.0
966.0
968.0
965.0
963.0
961.0
965.0
970.0
970.0
970.0
968.0
968.0
974.0
975.0
975.0
974.0
971.0
969.0
970.0
973.0
975.0
971.0
968.0
966.0
966.0
969.0
967.0
969.0
963.0
963.0
963.0
966.0
966.0
963.0
959.0
956.0
962.0
959.0
959.0
960.0
960.0
958.0
962.0
965.0
968.0
965.0
965.0
965.0
968.0
972.0
973.0
967.0
969.0
967.0
970.0
973.0
975.0
974.0
971.0
977.0
986.0
992.0
996.0
999.0
1008.0
1024.0
1049.0
1072.0
1095.0
1116.0
1143.0
1170.0
1204.0
1232.0
1256.0
1273.0
1274.0
1265.0
1244.0
1212.0
1161.0
1108.0
1068.0
1039.0
1020.0
1006.0
996.0
988.0
982.0
981.0
980.0
978.0
972.0
963.0
958.0
955.0
956.0
955.0
951.0
947.0
945.0
943.0
945.0
946.0
944.0
943.0
939.0
939.0
939.0
943.0
942.0
939.0
940.0
938.0
940.0
942.0
945.0
944.0
941.0
939.0
941.0
945.0
946.0
944.0
940.0
939.0
944.0
948.0
947.0
945.0
943.0
946.0
952.0
957.0
958.0
956.0
957.0
958.0
962.0
966.0
965.0
966.0
965.0
964.0
969.0
971.0
973.0
973.0
973.0
974.0
975.0
978.0
979.0
979.0
978.0
979.0
982.0
987.0
986.0
989.0
986.0
983.0
986.0
983.0
985.0
982.0
979.0
974.0
974.0
972.0
972.0
968.0
963.0
962.0
963.0
963.0
962.0
960.0
959.0
956.0
956.0
959.0
957.0
953.0
951.0
949.0
949.0
951.0
947.0
947.0
946.0
945.0
945.0
948.0
948.0
947.0
946.0
947.0
953.0
956.0
957.0
955.0
952.0
951.0
953.0
958.0
959.0
951.0
950.0
947.0
951.0
955.0
955.0
952.0
950.0
949.0
950.0
954.0
956.0
956.0
951.0
950.0
949.0
952.0
952.0
950.0
947.0
947.0
950.0
953.0
953.0
951.0
949.0
950.0
954.0
955.0
954.0
952.0
950.0
955.0
960.0
961.0
960.0
958.0
953.0
955.0
956.0
958.0
957.0
955.0
952.0
950.0
952.0
958.0
960.0
957.0
955.0
956.0
960.0
962.0
963.0
961.0
957.0
956.0
958.0
959.0
959.0
956.0
954.0
953.0
955.0
960.0
960.0
958.0
954.0
953.0
957.0
960.0
959.0
956.0
955.0
953.0
955.0
959.0
960.0
957.0
955.0
958.0
961.0
964.0
965.0
962.0
963.0
966.0
966.0
975.0
978.0
980.0
984.0
1000.0
1025.0
1054.0
1083.0
1111.0
1142.0
1172.0
1205.0
1240.0
1270.0
1293.0
1302.0
1292.0
1267.0
1234.0
1179.0
1117.0
1066.0
1026.0
997.0
980.0
967.0
968.0
968.0
968.0
967.0
967.0
962.0
956.0
950.0
949.0
949.0
951.0
948.0
946.0
943.0
942.0
942.0
947.0
946.0
943.0
940.0
941.0
943.0
947.0
949.0
946.0
942.0
941.0
944.0
946.0
948.0
949.0
946.0
947.0
950.0
953.0
952.0
951.0
950.0
950.0
952.0
953.0
956.0
957.0
955.0
957.0
960.0
958.0
960.0
958.0
955.0
954.0
958.0
960.0
960.0
960.0
954.0
958.0
961.0
966.0
969.0
965.0
963.0
964.0
967.0
973.0
977.0
976.0
973.0
975.0
980.0
985.0
984.0
989.0
989.0
994.0
995.0
996.0
996.0
993.0
987.0
988.0
989.0
990.0
988.0
986.0
982.0
981.0
980.0
978.0
976.0
974.0
970.0
971.0
970.0
969.0
966.0
965.0
961.0
961.0
964.0
966.0
966.0
964.0
963.0
962.0
964.0
963.0
962.0
957.0
957.0
957.0
956.0
958.0
955.0
955.0
953.0
952.0
954.0
956.0
957.0
954.0
951.0
951.0
956.0
956.0
958.0
955.0
951.0
952.0
954.0
959.0
959.0
959.0
957.0
960.0
964.0
974.0
976.0
977.0
982.0
989.0
1002.0
1014.0
1029.0
1047.0
1070.0
1098.0
1130.0
1159.0
1190.0
1217.0
1244.0
1271.0
1291.0
1306.0
1304.0
1285.0
1250.0
1210.0
1163.0
1117.0
1075.0
1041.0
1019.0
1003.0
990.0
986.0
982.0
979.0
974.0
967.0
963.0
961.0
956.0
954.0
948.0
943.0
943.0
942.0
942.0
938.0
931.0
932.0
931.0
934.0
935.0
930.0
926.0
925.0
926.0
931.0
932.0
929.0
925.0
924.0
927.0
934.0
934.0
934.0
933.0
935.0
936.0
940.0
938.0
937.0
936.0
936.0
939.0
944.0
945.0
944.0
945.0
947.0
951.0
953.0
957.0
957.0
954.0
956.0
957.0
962.0
959.0
960.0
962.0
963.0
966.0
969.0
967.0
964.0
966.0
967.0
970.0
974.0
971.0
971.0
969.0
971.0
972.0
973.0
975.0
972.0
971.0
970.0
970.0
970.0
970.0
965.0
963.0
960.0
961.0
961.0
959.0
956.0
952.0
950.0
952.0
954.0
952.0
949.0
947.0
948.0
948.0
950.0
951.0
949.0
947.0
951.0
953.0
957.0
960.0
958.0
958.0
957.0
959.0
962.0
962.0
959.0
959.0
957.0
961.0
964.0
966.0
960.0
961.0
957.0
960.0
964.0
962.0
963.0
959.0
955.0
959.0
960.0
961.0
959.0
954.0
957.0
955.0
960.0
960.0
953.0
951.0
952.0
955.0
958.0
958.0
955.0
950.0
951.0
951.0
952.0
955.0
953.0
950.0
951.0
950.0
953.0
954.0
951.0
947.0
944.0
946.0
950.0
955.0
951.0
953.0
951.0
953.0
956.0
957.0
955.0
951.0
951.0
953.0
956.0
954.0
952.0
952.0
955.0
960.0
963.0
963.0
960.0
957.0
956.0
955.0
957.0
958.0
956.0
952.0
952.0
954.0
954.0
955.0
952.0
947.0
949.0
948.0
954.0
955.0
951.0
949.0
950.0
952.0
954.0
955.0
952.0
952.0
951.0
954.0
957.0
957.0
955.0
951.0
951.0
953.0
957.0
957.0
957.0
953.0
950.0
956.0
957.0
962.0
961.0
962.0
964.0
968.0
973.0
977.0
979.0
982.0
990.0
1009.0
1034.0
1058.0
1083.0
1107.0
1140.0
1174.0
1205.0
1235.0
1260.0
1278.0
1284.0
1275.0
1254.0
1223.0
1172.0
1116.0
1067.0
1036.0
1012.0
992.0
981.0
974.0
975.0
976.0
974.0
970.0
964.0
955.0
948.0
949.0
949.0
947.0
941.0
939.0
937.0
939.0
941.0
942.0
942.0
939.0
941.0
941.0
944.0
944.0
940.0
938.0
937.0
940.0
942.0
942.0
942.0
943.0
943.0
946.0
951.0
950.0
950.0
945.0
946.0
948.0
949.0
948.0
948.0
945.0
945.0
947.0
950.0
948.0
945.0
945.0
946.0
946.0
949.0
953.0
948.0
949.0
947.0
948.0
955.0
956.0
954.0
953.0
954.0
959.0
964.0
965.0
963.0
960.0
962.0
969.0
972.0
973.0
972.0
973.0
973.0
977.0
979.0
981.0
976.0
972.0
972.0
976.0
975.0
974.0
968.0
964.0
963.0
964.0
966.0
962.0
959.0
957.0
956.0
956.0
960.0
959.0
957.0
955.0
957.0
955.0
957.0
956.0
953.0
950.0
949.0
950.0
950.0
953.0
948.0
943.0
944.0
948.0
951.0
950.0
947.0
945.0
943.0
946.0
948.0
950.0
947.0
941.0
943.0
948.0
954.0
955.0
954.0
952.0
956.0
958.0
962.0
962.0
959.0
956.0
961.0
963.0
966.0
964.0
963.0
961.0
959.0
968.0
970.0
968.0
966.0
964.0
959.0
964.0
966.0
967.0
965.0
963.0
963.0
965.0
969.0
971.0
969.0
969.0
974.0
978.0
985.0
991.0
995.0
1004.0
1020.0
1039.0
1063.0
1084.0
1103.0
1121.0
1149.0
1182.0
1210.0
1232.0
1245.0
1249.0
1239.0
1217.0
1181.0
1134.0
1083.0
1043.0
1017.0
1003.0
993.0
983.0
972.0
969.0
965.0
964.0
962.0
956.0
948.0
942.0
940.0
942.0
940.0
938.0
931.0
931.0
930.0
930.0
935.0
933.0
929.0
927.0
929.0
929.0
929.0
928.0
930.0
928.0
928.0
933.0
936.0
939.0
938.0
934.0
935.0
936.0
936.0
937.0
933.0
934.0
936.0
939.0
943.0
943.0
943.0
938.0
940.0
941.0
947.0
945.0
945.0
940.0
942.0
947.0
951.0
953.0
949.0
949.0
949.0
953.0
958.0
958.0
957.0
954.0
959.0
963.0
968.0
975.0
976.0
977.0
975.0
975.0
976.0
976.0
974.0
970.0
964.0
964.0
968.0
967.0
961.0
959.0
957.0
959.0
958.0
956.0
952.0
949.0
948.0
949.0
953.0
952.0
948.0
946.0
946.0
945.0
950.0
949.0
948.0
945.0
942.0
944.0
948.0
948.0
944.0
942.0
942.0
942.0
946.0
945.0
945.0
943.0
942.0
943.0
943.0
944.0
944.0
941.0
940.0
938.0
940.0
941.0
939.0
936.0
938.0
940.0
950.0
952.0
950.0
947.0
945.0
948.0
950.0
950.0
947.0
947.0
943.0
947.0
948.0
950.0
946.0
946.0
944.0
948.0
951.0
948.0
948.0
946.0
946.0
950.0
951.0
950.0
950.0
945.0
942.0
946.0
948.0
948.0
944.0
942.0
942.0
943.0
946.0
947.0
946.0
942.0
942.0
943.0
947.0
945.0
943.0
937.0
943.0
941.0
948.0
946.0
945.0
941.0
940.0
941.0
948.0
952.0
953.0
956.0
963.0
966.0
972.0
972.0
970.0
973.0
975.0
984.0
990.0
996.0
1002.0
1019.0
1043.0
1071.0
1102.0
1134.0
1165.0
1193.0
1222.0
1254.0
1277.0
1286.0
1270.0
1237.0
1191.0
1140.0
1087.0
1045.0
1013.0
986.0
973.0
969.0
974.0
973.0
964.0
960.0
950.0
946.0
947.0
943.0
937.0
933.0
931.0
932.0
930.0
928.0
925.0
920.0
921.0
924.0
927.0
926.0
927.0
927.0
927.0
934.0
941.0
942.0
943.0
940.0
939.0
942.0
948.0
948.0
948.0
944.0
945.0
948.0
950.0
952.0
950.0
949.0
951.0
952.0
954.0
954.0
954.0
953.0
953.0
957.0
962.0
964.0
961.0
961.0
959.0
963.0
968.0
966.0
967.0
965.0
965.0
969.0
970.0
970.0
969.0
968.0
967.0
969.0
972.0
974.0
973.0
969.0
970.0
972.0
972.0
973.0
973.0
969.0
967.0
972.0
970.0
973.0
967.0
965.0
962.0
966.0
969.0
967.0
963.0
962.0
962.0
961.0
964.0
964.0
961.0
956.0
958.0
957.0
959.0
958.0
958.0
956.0
954.0
953.0
956.0
956.0
951.0
949.0
948.0
948.0
950.0
950.0
945.0
939.0
939.0
942.0
943.0
944.0
941.0
938.0
937.0
940.0
940.0
941.0
938.0
936.0
938.0
939.0
943.0
943.0
940.0
940.0
940.0
939.0
943.0
947.0
949.0
945.0
953.0
954.0
958.0
960.0
956.0
956.0
957.0
961.0
965.0
968.0
964.0
957.0
958.0
961.0
961.0
963.0
961.0
958.0
958.0
959.0
961.0
960.0
959.0
956.0
954.0
957.0
960.0
959.0
954.0
952.0
953.0
956.0
960.0
959.0
956.0
952.0
952.0
955.0
962.0
958.0
955.0
953.0
953.0
954.0
958.0
958.0
953.0
953.0
955.0
961.0
967.0
973.0
973.0
976.0
983.0
995.0
1017.0
1044.0
1072.0
1105.0
1139.0
1178.0
1215.0
1250.0
1281.0
1302.0
1303.0
1290.0
1252.0
1203.0
1140.0
1081.0
1032.0
1001.0
979.0
967.0
964.0
964.0
969.0
969.0
969.0
961.0
955.0
954.0
945.0
949.0
949.0
948.0
942.0
944.0
940.0
943.0
946.0
947.0
943.0
939.0
940.0
942.0
947.0
945.0
944.0
943.0
939.0
943.0
946.0
945.0
942.0
940.0
943.0
942.0
945.0
945.0
942.0
941.0
943.0
944.0
950.0
947.0
947.0
947.0
948.0
950.0
954.0
951.0
952.0
950.0
952.0
956.0
960.0
960.0
960.0
959.0
962.0
964.0
967.0
967.0
969.0
968.0
970.0
972.0
975.0
976.0
975.0
974.0
975.0
973.0
978.0
977.0
973.0
972.0
972.0
972.0
972.0
971.0
968.0
962.0
957.0
960.0
963.0
958.0
959.0
954.0
952.0
953.0
953.0
953.0
951.0
948.0
948.0
950.0
955.0
953.0
951.0
948.0
943.0
946.0
949.0
951.0
949.0
945.0
948.0
950.0
952.0
951.0
950.0
950.0
950.0
954.0
953.0
956.0
955.0
953.0
952.0
958.0
961.0
961.0
958.0
953.0
954.0
957.0
961.0
960.0
957.0
955.0
957.0
957.0
958.0
961.0
960.0
958.0
960.0
961.0
959.0
959.0
959.0
955.0
955.0
955.0
958.0
958.0
957.0
954.0
952.0
952.0
954.0
955.0
952.0
949.0
949.0
954.0
956.0
954.0
953.0
955.0
953.0
956.0
958.0
954.0
953.0
951.0
950.0
951.0
954.0
951.0
949.0
946.0
946.0
948.0
950.0
952.0
949.0
946.0
946.0
946.0
950.0
950.0
946.0
944.0
945.0
946.0
952.0
953.0
953.0
952.0
951.0
951.0
957.0
958.0
951.0
951.0
949.0
952.0
956.0
953.0
952.0
947.0
947.0
946.0
951.0
949.0
946.0
943.0
945.0
946.0
951.0
949.0
949.0
946.0
949.0
951.0
955.0
953.0
951.0
947.0
950.0
950.0
955.0
954.0
953.0
950.0
951.0
953.0
955.0
955.0
952.0
951.0
952.0
954.0
958.0
959.0
959.0
956.0
958.0
965.0
970.0
970.0
975.0
980.0
989.0
1001.0
1021.0
1045.0
1070.0
1097.0
1131.0
1169.0
1205.0
1233.0
1262.0
1284.0
1300.0
1295.0
1278.0
1240.0
1185.0
1131.0
1084.0
1047.0
1018.0
991.0
975.0
972.0
973.0
977.0
975.0
969.0
962.0
957.0
953.0
952.0
952.0
948.0
945.0
943.0
941.0
942.0
943.0
941.0
938.0
937.0
935.0
937.0
939.0
939.0
940.0
936.0
935.0
939.0
940.0
937.0
938.0
937.0
937.0
941.0
946.0
945.0
946.0
943.0
943.0
945.0
950.0
951.0
951.0
951.0
952.0
956.0
958.0
961.0
958.0
958.0
955.0
960.0
964.0
965.0
964.0
961.0
961.0
964.0
969.0
968.0
969.0
968.0
967.0
973.0
976.0
977.0
979.0
975.0
974.0
982.0
983.0
983.0
981.0
981.0
980.0
981.0
986.0
982.0
979.0
976.0
973.0
974.0
978.0
975.0
971.0
966.0
961.0
961.0
966.0
965.0
961.0
957.0
954.0
959.0
960.0
962.0
958.0
956.0
957.0
960.0
962.0
962.0
958.0
955.0
953.0
956.0
957.0
958.0
955.0
954.0
956.0
955.0
959.0
958.0
955.0
952.0
952.0
956.0
960.0
958.0
956.0
955.0
954.0
957.0
962.0
961.0
961.0
956.0
956.0
956.0
962.0
962.0
959.0
956.0
958.0
962.0
969.0
967.0
963.0
962.0
960.0
959.0
965.0
964.0
963.0
961.0
964.0
968.0
971.0
969.0
968.0
965.0
964.0
966.0
971.0
972.0
968.0
963.0
963.0
967.0
966.0
967.0
964.0
961.0
957.0
963.0
963.0
963.0
958.0
958.0
958.0
960.0
962.0
962.0
962.0
958.0
957.0
959.0
964.0
962.0
958.0
952.0
954.0
956.0
960.0
958.0
957.0
955.0
955.0
958.0
961.0
962.0
962.0
963.0
965.0
969.0
976.0
981.0
981.0
987.0
1000.0
1022.0
1053.0
1084.0
1112.0
1139.0
1173.0
1207.0
1239.0
1266.0
1285.0
1299.0
1295.0
1275.0
1246.0
1200.0
1145.0
1091.0
1052.0
1022.0
1006.0
992.0
983.0
979.0
979.0
976.0
975.0
967.0
961.0
952.0
953.0
955.0
957.0
953.0
950.0
947.0
943.0
946.0
949.0
946.0
942.0
941.0
938.0
940.0
942.0
941.0
936.0
935.0
933.0
937.0
941.0
940.0
939.0
935.0
936.0
938.0
944.0
943.0
943.0
944.0
947.0
949.0
958.0
956.0
956.0
956.0
955.0
956.0
960.0
960.0
961.0
960.0
962.0
967.0
969.0
968.0
966.0
963.0
964.0
967.0
972.0
969.0
970.0
973.0
972.0
977.0
978.0
978.0
979.0
977.0
978.0
983.0
984.0
980.0
980.0
976.0
974.0
975.0
976.0
974.0
968.0
965.0
962.0
963.0
965.0
960.0
954.0
953.0
951.0
952.0
954.0
949.0
947.0
943.0
945.0
946.0
953.0
951.0
951.0
946.0
951.0
953.0
956.0
957.0
952.0
951.0
952.0
954.0
956.0
954.0
953.0
947.0
951.0
954.0
956.0
956.0
951.0
949.0
952.0
954.0
955.0
952.0
948.0
946.0
944.0
947.0
950.0
949.0
944.0
949.0
946.0
950.0
950.0
947.0
950.0
949.0
947.0
951.0
955.0
954.0
949.0
947.0
945.0
945.0
952.0
947.0
944.0
941.0
942.0
946.0
948.0
947.0
945.0
944.0
946.0
949.0
954.0
953.0
952.0
952.0
955.0
960.0
966.0
964.0
960.0
959.0
958.0
965.0
966.0
963.0
962.0
959.0
958.0
959.0
962.0
962.0
955.0
953.0
954.0
955.0
958.0
956.0
953.0
952.0
954.0
955.0
955.0
954.0
953.0
951.0
948.0
952.0
952.0
951.0
948.0
946.0
947.0
950.0
954.0
950.0
947.0
944.0
942.0
945.0
945.0
943.0
940.0
940.0
939.0
945.0
948.0
945.0
943.0
940.0
943.0
947.0
954.0
957.0
954.0
953.0
957.0
960.0
963.0
963.0
962.0
960.0
962.0
963.0
963.0
961.0
959.0
958.0
959.0
962.0
966.0
963.0
959.0
955.0
956.0
963.0
963.0
962.0
960.0
958.0
959.0
960.0
963.0
960.0
960.0
956.0
955.0
956.0
957.0
958.0
956.0
952.0
955.0
956.0
958.0
957.0
954.0
949.0
953.0
950.0
954.0
954.0
950.0
950.0
950.0
955.0
960.0
961.0
959.0
957.0
958.0
963.0
964.0
965.0
962.0
960.0
962.0
966.0
967.0
966.0
964.0
960.0
960.0
961.0
966.0
965.0
960.0
963.0
963.0
966.0
969.0
968.0
965.0
964.0
963.0
968.0
973.0
974.0
970.0
969.0
972.0
978.0
985.0
990.0
990.0
993.0
1002.0
1020.0
1045.0
1068.0
1095.0
1123.0
1153.0
1188.0
1221.0
1246.0
1274.0
1290.0
1302.0
1299.0
1279.0
1240.0
1188.0
1134.0
1089.0
1054.0
1024.0
998.0
981.0
971.0
971.0
979.0
983.0
981.0
974.0
967.0
964.0
967.0
967.0
963.0
961.0
957.0
957.0
958.0
957.0
956.0
956.0
950.0
953.0
954.0
955.0
954.0
951.0
949.0
947.0
948.0
953.0
953.0
950.0
947.0
945.0
950.0
950.0
949.0
949.0
948.0
945.0
951.0
955.0
954.0
952.0
956.0
955.0
959.0
967.0
970.0
967.0
969.0
970.0
974.0
978.0
976.0
976.0
973.0
973.0
977.0
982.0
981.0
981.0
980.0
978.0
981.0
985.0
984.0
985.0
983.0
986.0
988.0
992.0
991.0
990.0
992.0
993.0
998.0
1003.0
1002.0
998.0
997.0
997.0
997.0
999.0
998.0
994.0
989.0
989.0
986.0
988.0
986.0
978.0
974.0
973.0
975.0
974.0
969.0
969.0
966.0
964.0
966.0
966.0
962.0
958.0
957.0
958.0
960.0
964.0
965.0
965.0
964.0
963.0
965.0
968.0
966.0
966.0
962.0
962.0
964.0
972.0
970.0
970.0
964.0
966.0
967.0
971.0
969.0
966.0
962.0
965.0
967.0
969.0
969.0
965.0
963.0
963.0
967.0
969.0
968.0
965.0
963.0
964.0
967.0
969.0
968.0
968.0
964.0
963.0
965.0
969.0
971.0
967.0
965.0
965.0
971.0
974.0
972.0
971.0
969.0
968.0
970.0
972.0
974.0
973.0
971.0
972.0
974.0
978.0
977.0
978.0
978.0
979.0
982.0
983.0
984.0
981.0
975.0
977.0
977.0
978.0
976.0
973.0
972.0
973.0
976.0
976.0
977.0
975.0
972.0
971.0
972.0
974.0
975.0
974.0
970.0
970.0
971.0
972.0
971.0
968.0
965.0
962.0
964.0
965.0
962.0
961.0
957.0
956.0
958.0
959.0
960.0
955.0
951.0
952.0
954.0
958.0
957.0
954.0
954.0
953.0
957.0
957.0
958.0
955.0
955.0
957.0
961.0
963.0
964.0
964.0
962.0
968.0
971.0
974.0
974.0
969.0
970.0
967.0
971.0
974.0
975.0
975.0
971.0
973.0
976.0
973.0
975.0
975.0
968.0
969.0
970.0
974.0
972.0
969.0
966.0
969.0
969.0
972.0
967.0
967.0
965.0
964.0
966.0
967.0
964.0
963.0
960.0
959.0
963.0
967.0
965.0
959.0
960.0
961.0
962.0
966.0
964.0
957.0
954.0
953.0
956.0
960.0
958.0
955.0
956.0
958.0
961.0
965.0
966.0
967.0
963.0
967.0
970.0
973.0
974.0
972.0
971.0
971.0
976.0
981.0
981.0
978.0
973.0
973.0
975.0
978.0
978.0
976.0
972.0
969.0
972.0
977.0
979.0
973.0
969.0
969.0
971.0
971.0
971.0
967.0
966.0
967.0
968.0
971.0
969.0
966.0
962.0
965.0
966.0
969.0
964.0
967.0
964.0
968.0
968.0
973.0
969.0
968.0
963.0
962.0
964.0
963.0
965.0
963.0
961.0
960.0
964.0
966.0
967.0
965.0
964.0
967.0
971.0
974.0
978.0
974.0
973.0
974.0
977.0
976.0
974.0
976.0
973.0
974.0
979.0
978.0
981.0
977.0
973.0
975.0
978.0
978.0
975.0
974.0
