# Simple Text Format
# Sampling Rate (Hz):= 360.00
# Resolution:= 12
# Labels:= ECG
1007.0
1010.0
1014.0
1011.0
1009.0
1012.0
1017.0
1019.0
1015.0
1009.0
1007.0
1009.0
1009.0
1011.0
1011.0
1010.0
1012.0
1009.0
1008.0
1009.0
1010.0
1008.0
1003.0
1002.0
1004.0
1010.0
1006.0
1003.0
997.0
998.0
998.0
996.0
1000.0
1008.0
1015.0
1024.0
1028.0
1031.0
1032.0
1023.0
1013.0
1006.0
1007.0
1010.0
1022.0
1044.0
1064.0
1085.0
1100.0
1112.0
1130.0
1143.0
1153.0
1158.0
1158.0
1149.0
1135.0
1117.0
1099.0
1073.0
1041.0
1020.0
1004.0
986.0
977.0
974.0
973.0
972.0
965.0
960.0
954.0
953.0
956.0
957.0
951.0
950.0
949.0
952.0
954.0
956.0
953.0
953.0
950.0
950.0
954.0
958.0
956.0
957.0
955.0
953.0
958.0
964.0
965.0
965.0
963.0
963.0
968.0
972.0
978.0
977.0
980.0
984.0
989.0
992.0
992.0
997.0
999.0
1001.0
1007.0
1008.0
1007.0
1006.0
1005.0
1010.0
1017.0
1021.0
1021.0
1024.0
1025.0
1022.0
1028.0
1033.0
1037.0
1038.0
1037.0
1035.0
1038.0
1041.0
1038.0
1037.0
1029.0
1032.0
1037.0
1039.0
1032.0
1024.0
1019.0
1022.0
1029.0
1029.0
1024.0
1023.0
1018.0
1020.0
1021.0
1021.0
1021.0
1023.0
1021.0
1017.0
1016.0
1023.0
1022.0
1024.0
1022.0
1021.0
1023.0
1028.0
1027.0
1023.0
1020.0
1023.0
1027.0
1030.0
1027.0
1022.0
1017.0
1018.0
1018.0
1019.0
1019.0
1017.0
1015.0
1014.0
1015.0
1016.0
1016.0
1015.0
1011.0
1010.0
1008.0
1007.0
1004.0
997.0
993.0
997.0
1002.0
1005.0
1003.0
1004.0
1004.0
1006.0
1008.0
1010.0
1011.0
1012.0
1007.0
1007.0
1008.0
1014.0
1011.0
1010.0
1005.0
1005.0
1012.0
1018.0
1016.0
1009.0
1009.0
1009.0
1009.0
1012.0
1012.0
1013.0
1008.0
1006.0
1006.0
1014.0
1014.0
1010.0
1006.0
1011.0
1016.0
1019.0
1019.0
1016.0
1017.0
1017.0
1019.0
1022.0
1022.0
1020.0
1015.0
1017.0
1022.0
1028.0
1026.0
1024.0
1024.0
1023.0
1027.0
1027.0
1025.0
1023.0
1020.0
1023.0
1029.0
1041.0
1044.0
1043.0
1042.0
1050.0
1065.0
1070.0
1077.0
1084.0
1097.0
1121.0
1151.0
1177.0
1195.0
1205.0
1218.0
1233.0
1249.0
1257.0
1258.0
1238.0
1220.0
1197.0
1176.0
1150.0
1112.0
1069.0
1037.0
1015.0
995.0
995.0
990.0
984.0
978.0
974.0
975.0
973.0
972.0
968.0
966.0
962.0
962.0
967.0
970.0
969.0
962.0
962.0
968.0
972.0
968.0
964.0
964.0
966.0
967.0
971.0
971.0
968.0
966.0
964.0
970.0
981.0
980.0
974.0
970.0
973.0
978.0
980.0
975.0
973.0
976.0
975.0
979.0
985.0
989.0
992.0
993.0
995.0
999.0
1003.0
1010.0
1011.0
1009.0
1012.0
1020.0
1026.0
1026.0
1023.0
1024.0
1030.0
1036.0
1043.0
1041.0
1041.0
1044.0
1048.0
1049.0
1052.0
1052.0
1047.0
1048.0
1047.0
1047.0
1051.0
1050.0
1049.0
1048.0
1043.0
1039.0
1044.0
1044.0
1041.0
1035.0
1033.0
1034.0
1039.0
1036.0
1032.0
1027.0
1025.0
1032.0
1034.0
1028.0
1022.0
1022.0
1021.0
1019.0
1021.0
1021.0
1021.0
1015.0
1013.0
1010.0
1012.0
1014.0
1008.0
1002.0
993.0
997.0
999.0
996.0
994.0
994.0
998.0
996.0
999.0
997.0
998.0
999.0
1001.0
1004.0
1011.0
1015.0
1015.0
1012.0
1011.0
1017.0
1014.0
1012.0
1010.0
1010.0
1012.0
1014.0
1018.0
1018.0
1016.0
1014.0
1011.0
1014.0
1016.0
1019.0
1016.0
1009.0
1011.0
1017.0
1018.0
1017.0
1010.0
1009.0
1011.0
1011.0
1013.0
1012.0
1013.0
1009.0
1006.0
1010.0
1013.0
1012.0
1009.0
1005.0
1006.0
1007.0
1009.0
1005.0
1004.0
1000.0
1001.0
999.0
999.0
1001.0
997.0
992.0
989.0
993.0
1000.0
1004.0
1003.0
1002.0
1005.0
1009.0
1015.0
1017.0
1020.0
1019.0
1017.0
1019.0
1023.0
1025.0
1019.0
1017.0
1017.0
1022.0
1024.0
1023.0
1016.0
1015.0
1016.0
1014.0
1021.0
1016.0
1016.0
1011.0
1010.0
1013.0
1016.0
1014.0
1011.0
1008.0
1009.0
1009.0
1011.0
1014.0
1008.0
1007.0
1007.0
1009.0
1010.0
1014.0
1009.0
1002.0
1007.0
1008.0
1007.0
1009.0
1010.0
1009.0
1007.0
1009.0
1008.0
1006.0
1004.0
998.0
999.0
1006.0
1010.0
1010.0
1003.0
1001.0
1003.0
1005.0
1008.0
1013.0
1019.0
1025.0
1031.0
1034.0
1042.0
1050.0
1059.0
1067.0
1075.0
1088.0
1101.0
1110.0
1115.0
1129.0
1158.0
1192.0
1214.0
1225.0
1235.0
1249.0
1264.0
1274.0
1275.0
1278.0
1275.0
1257.0
1227.0
1203.0
1185.0
1158.0
1118.0
1074.0
1036.0
1015.0
997.0
979.0
969.0
966.0
970.0
971.0
968.0
960.0
956.0
956.0
952.0
950.0
952.0
946.0
944.0
943.0
937.0
938.0
940.0
937.0
933.0
926.0
927.0
930.0
932.0
929.0
930.0
933.0
935.0
933.0
936.0
937.0
938.0
934.0
935.0
940.0
947.0
944.0
942.0
936.0
943.0
948.0
953.0
954.0
953.0
952.0
953.0
955.0
961.0
960.0
959.0
960.0
961.0
966.0
970.0
974.0
974.0
973.0
974.0
977.0
984.0
991.0
991.0
991.0
995.0
1002.0
1011.0
1012.0
1011.0
1011.0
1012.0
1011.0
1011.0
1008.0
1005.0
1000.0
995.0
996.0
998.0
996.0
991.0
988.0
991.0
992.0
995.0
992.0
988.0
987.0
988.0
990.0
995.0
995.0
994.0
990.0
993.0
996.0
1001.0
997.0
995.0
996.0
997.0
997.0
1000.0
999.0
997.0
993.0
992.0
995.0
995.0
992.0
988.0
989.0
987.0
991.0
990.0
989.0
987.0
984.0
986.0
990.0
995.0
994.0
991.0
991.0
989.0
992.0
991.0
988.0
985.0
984.0
984.0
984.0
987.0
985.0
980.0
977.0
976.0
976.0
979.0
976.0
975.0
975.0
974.0
977.0
979.0
981.0
976.0
974.0
976.0
978.0
981.0
978.0
975.0
976.0
976.0
976.0
978.0
978.0
976.0
977.0
974.0
977.0
982.0
981.0
977.0
972.0
970.0
974.0
979.0
976.0
971.0
967.0
960.0
962.0
971.0
970.0
967.0
965.0
967.0
967.0
963.0
970.0
965.0
963.0
964.0
963.0
968.0
971.0
966.0
963.0
962.0
965.0
970.0
968.0
964.0
959.0
958.0
964.0
967.0
962.0
961.0
959.0
961.0
964.0
964.0
963.0
962.0
962.0
959.0
959.0
965.0
964.0
965.0
962.0
967.0
969.0
973.0
967.0
964.0
965.0
965.0
964.0
968.0
970.0
969.0
966.0
963.0
962.0
968.0
966.0
963.0
958.0
959.0
962.0
962.0
961.0
957.0
962.0
968.0
975.0
979.0
978.0
978.0
982.0
983.0
984.0
986.0
989.0
998.0
1019.0
1048.0
1070.0
1085.0
1099.0
1118.0
1129.0
1142.0
1151.0
1146.0
1125.0
1101.0
1077.0
1052.0
1018.0
990.0
969.0
952.0
941.0
935.0
937.0
938.0
933.0
926.0
923.0
921.0
921.0
922.0
920.0
919.0
914.0
913.0
914.0
917.0
915.0
910.0
909.0
911.0
913.0
916.0
916.0
914.0
913.0
913.0
916.0
923.0
919.0
915.0
915.0
917.0
919.0
920.0
923.0
924.0
925.0
926.0
935.0
943.0
943.0
943.0
944.0
950.0
955.0
957.0
961.0
958.0
959.0
957.0
966.0
972.0
975.0
975.0
975.0
976.0
978.0
982.0
986.0
986.0
985.0
983.0
986.0
988.0
984.0
978.0
979.0
976.0
974.0
978.0
976.0
970.0
965.0
962.0
966.0
970.0
967.0
962.0
960.0
961.0
962.0
963.0
957.0
953.0
950.0
957.0
959.0
960.0
962.0
963.0
962.0
963.0
963.0
967.0
968.0
960.0
957.0
959.0
962.0
962.0
963.0
958.0
957.0
954.0
953.0
956.0
956.0
953.0
947.0
949.0
951.0
953.0
951.0
945.0
939.0
943.0
943.0
944.0
943.0
939.0
935.0
935.0
939.0
942.0
939.0
934.0
935.0
933.0
939.0
939.0
939.0
938.0
934.0
936.0
937.0
945.0
944.0
943.0
939.0
941.0
949.0
953.0
949.0
946.0
943.0
943.0
942.0
943.0
946.0
945.0
944.0
944.0
951.0
954.0
951.0
950.0
948.0
951.0
952.0
951.0
950.0
949.0
944.0
943.0
947.0
949.0
947.0
943.0
942.0
940.0
941.0
945.0
942.0
942.0
936.0
936.0
938.0
943.0
940.0
937.0
937.0
938.0
941.0
939.0
943.0
943.0
938.0
939.0
942.0
947.0
948.0
946.0
946.0
949.0
952.0
955.0
955.0
952.0
953.0
951.0
952.0
956.0
956.0
955.0
952.0
950.0
955.0
954.0
951.0
945.0
952.0
953.0
951.0
953.0
952.0
951.0
950.0
947.0
953.0
955.0
951.0
951.0
949.0
950.0
950.0
945.0
950.0
950.0
946.0
945.0
950.0
948.0
946.0
944.0
943.0
948.0
951.0
960.0
968.0
970.0
969.0
974.0
988.0
1005.0
1014.0
1022.0
1027.0
1049.0
1079.0
1116.0
1141.0
1161.0
1176.0
1190.0
1208.0
1227.0
1241.0
1240.0
1239.0
1223.0
1204.0
1184.0
1159.0
1129.0
1088.0
1044.0
1010.0
989.0
964.0
938.0
923.0
922.0
927.0
926.0
922.0
918.0
914.0
910.0
912.0
914.0
911.0
906.0
901.0
902.0
902.0
907.0
900.0
898.0
896.0
895.0
894.0
894.0
893.0
893.0
890.0
890.0
891.0
894.0
894.0
888.0
888.0
893.0
896.0
898.0
897.0
894.0
894.0
899.0
902.0
905.0
909.0
908.0
907.0
909.0
916.0
922.0
921.0
917.0
918.0
922.0
929.0
935.0
934.0
937.0
935.0
939.0
944.0
949.0
952.0
951.0
950.0
948.0
950.0
955.0
955.0
957.0
961.0
968.0
975.0
978.0
977.0
975.0
976.0
974.0
975.0
980.0
977.0
974.0
970.0
974.0
977.0
976.0
971.0
970.0
969.0
969.0
970.0
971.0
973.0
970.0
965.0
967.0
970.0
972.0
970.0
968.0
967.0
966.0
964.0
968.0
969.0
966.0
961.0
961.0
964.0
967.0
964.0
961.0
957.0
959.0
958.0
960.0
958.0
957.0
953.0
954.0
956.0
955.0
954.0
949.0
951.0
954.0
955.0
958.0
958.0
958.0
957.0
959.0
959.0
967.0
969.0
968.0
967.0
972.0
975.0
981.0
985.0
995.0
991.0
987.0
992.0
1008.0
1015.0
1023.0
1042.0
1070.0
1109.0
1159.0
1216.0
1252.0
1271.0
1286.0
1311.0
1326.0
1326.0
1314.0
1287.0
1256.0
1226.0
1194.0
1152.0
1100.0
1046.0
1007.0
974.0
953.0
942.0
939.0
937.0
931.0
926.0
923.0
924.0
917.0
915.0
915.0
916.0
920.0
913.0
912.0
910.0
913.0
917.0
921.0
920.0
919.0
919.0
919.0
920.0
920.0
921.0
920.0
919.0
920.0
925.0
929.0
931.0
927.0
925.0
929.0
933.0
933.0
935.0
935.0
934.0
934.0
937.0
942.0
946.0
939.0
943.0
947.0
951.0
958.0
961.0
964.0
961.0
966.0
969.0
974.0
976.0
975.0
977.0
982.0
989.0
993.0
991.0
992.0
995.0
992.0
994.0
996.0
999.0
994.0
990.0
989.0
993.0
993.0
989.0
986.0
982.0
978.0
983.0
985.0
983.0
982.0
979.0
978.0
980.0
983.0
979.0
975.0
974.0
974.0
977.0
977.0
978.0
977.0
975.0
972.0
975.0
979.0
972.0
970.0
971.0
971.0
975.0
977.0
977.0
973.0
968.0
969.0
975.0
976.0
973.0
972.0
972.0
973.0
976.0
981.0
981.0
981.0
980.0
982.0
987.0
993.0
985.0
984.0
981.0
976.0
983.0
985.0
984.0
982.0
978.0
978.0
983.0
986.0
984.0
982.0
977.0
976.0
976.0
982.0
989.0
996.0
997.0
1006.0
1027.0
1053.0
1072.0
1090.0
1114.0
1147.0
1195.0
1242.0
1279.0
1297.0
1301.0
1304.0
1317.0
1323.0
1316.0
1308.0
1285.0
1249.0
1210.0
1175.0
1132.0
1079.0
1027.0
992.0
969.0
958.0
952.0
947.0
945.0
943.0
943.0
940.0
937.0
931.0
928.0
927.0
928.0
929.0
926.0
922.0
920.0
921.0
923.0
925.0
922.0
920.0
917.0
915.0
918.0
922.0
924.0
921.0
918.0
918.0
924.0
928.0
928.0
927.0
926.0
930.0
932.0
933.0
935.0
934.0
935.0
937.0
940.0
948.0
951.0
947.0
943.0
945.0
949.0
956.0
955.0
959.0
956.0
963.0
969.0
975.0
976.0
977.0
978.0
981.0
984.0
989.0
991.0
992.0
990.0
992.0
1000.0
1002.0
997.0
991.0
988.0
988.0
990.0
989.0
987.0
982.0
977.0
972.0
972.0
974.0
973.0
967.0
962.0
964.0
968.0
968.0
966.0
963.0
966.0
965.0
967.0
966.0
964.0
959.0
955.0
957.0
957.0
963.0
960.0
954.0
952.0
955.0
960.0
961.0
958.0
956.0
958.0
959.0
960.0
964.0
963.0
955.0
949.0
954.0
959.0
955.0
954.0
953.0
953.0
950.0
952.0
955.0
948.0
945.0
942.0
943.0
942.0
944.0
941.0
936.0
934.0
935.0
936.0
941.0
940.0
938.0
933.0
933.0
938.0
942.0
939.0
934.0
934.0
936.0
935.0
935.0
934.0
933.0
933.0
931.0
935.0
943.0
940.0
939.0
934.0
936.0
941.0
943.0
944.0
940.0
939.0
936.0
941.0
942.0
939.0
935.0
935.0
936.0
937.0
936.0
935.0
930.0
926.0
922.0
928.0
926.0
926.0
921.0
919.0
918.0
922.0
922.0
919.0
921.0
916.0
914.0
915.0
919.0
914.0
914.0
911.0
910.0
915.0
916.0
912.0
909.0
909.0
906.0
907.0
906.0
902.0
899.0
898.0
901.0
900.0
900.0
904.0
907.0
906.0
908.0
910.0
916.0
915.0
912.0
909.0
913.0
920.0
929.0
934.0
934.0
932.0
933.0
941.0
948.0
950.0
946.0
942.0
943.0
948.0
966.0
986.0
1002.0
1018.0
1033.0
1050.0
1069.0
1084.0
1093.0
1100.0
1089.0
1070.0
1054.0
1034.0
1008.0
973.0
939.0
919.0
910.0
896.0
889.0
885.0
886.0
881.0
878.0
877.0
875.0
869.0
869.0
872.0
874.0
874.0
867.0
865.0
866.0
869.0
873.0
867.0
866.0
865.0
867.0
871.0
873.0
875.0
870.0
869.0
872.0
879.0
883.0
881.0
880.0
879.0
882.0
884.0
888.0
891.0
890.0
890.0
891.0
894.0
900.0
900.0
899.0
897.0
901.0
906.0
911.0
911.0
909.0
912.0
913.0
917.0
923.0
921.0
915.0
912.0
914.0
920.0
920.0
919.0
920.0
921.0
925.0
930.0
934.0
934.0
932.0
931.0
934.0
940.0
943.0
939.0
939.0
939.0
938.0
937.0
942.0
942.0
940.0
937.0
940.0
942.0
943.0
943.0
945.0
944.0
945.0
946.0
949.0
949.0
949.0
946.0
950.0
956.0
959.0
957.0
952.0
952.0
952.0
955.0
958.0
956.0
953.0
950.0
947.0
948.0
950.0
946.0
940.0
935.0
940.0
939.0
944.0
944.0
945.0
945.0
947.0
948.0
953.0
955.0
954.0
954.0
956.0
961.0
963.0
961.0
960.0
962.0
966.0
967.0
968.0
968.0
968.0
964.0
965.0
963.0
966.0
967.0
965.0
961.0
960.0
964.0
966.0
965.0
959.0
958.0
959.0
963.0
963.0
963.0
962.0
964.0
965.0
966.0
966.0
967.0
965.0
960.0
956.0
956.0
958.0
959.0
953.0
952.0
950.0
955.0
962.0
959.0
955.0
957.0
957.0
960.0
959.0
956.0
957.0
958.0
957.0
960.0
960.0
960.0
961.0
959.0
959.0
962.0
967.0
968.0
967.0
963.0
965.0
972.0
971.0
972.0
968.0
971.0
973.0
976.0
980.0
978.0
975.0
970.0
976.0
987.0
995.0
995.0
998.0
1000.0
1009.0
1022.0
1030.0
1037.0
1048.0
1065.0
1091.0
1123.0
1147.0
1166.0
1176.0
1195.0
1214.0
1233.0
1245.0
1241.0
1219.0
1193.0
1168.0
1145.0
1117.0
1070.0
1030.0
999.0
977.0
960.0
957.0
958.0
954.0
948.0
947.0
949.0
948.0
942.0
940.0
939.0
938.0
942.0
948.0
948.0
948.0
948.0
947.0
950.0
954.0
954.0
952.0
950.0
951.0
954.0
959.0
954.0
956.0
958.0
958.0
960.0
963.0
966.0
963.0
959.0
956.0
963.0
965.0
960.0
961.0
960.0
964.0
970.0
972.0
975.0
976.0
975.0
978.0
983.0
991.0
990.0
990.0
992.0
997.0
1003.0
1007.0
1010.0
1012.0
1014.0
1016.0
1021.0
1027.0
1028.0
1026.0
1027.0
1029.0
1027.0
1029.0
1028.0
1029.0
1029.0
1027.0
1029.0
1028.0
1030.0
1027.0
1022.0
1022.0
1026.0
1029.0
1028.0
1026.0
1027.0
1028.0
1028.0
1029.0
1026.0
1024.0
1022.0
1020.0
1020.0
1023.0
1021.0
1020.0
1019.0
1019.0
1018.0
1024.0
1022.0
1017.0
1014.0
1015.0
1019.0
1022.0
1018.0
1016.0
1013.0
1014.0
1015.0
1015.0
1012.0
1010.0
1006.0
1008.0
1007.0
1009.0
1007.0
1007.0
1007.0
1004.0
1011.0
1012.0
1011.0
1009.0
1008.0
1011.0
1016.0
1015.0
1016.0
1019.0
1019.0
1020.0
1027.0
1033.0
1035.0
1033.0
1028.0
1030.0
1034.0
1039.0
1040.0
1035.0
1037.0
1037.0
1040.0
1039.0
1037.0
1036.0
1036.0
1035.0
1039.0
1045.0
1046.0
1043.0
1041.0
1044.0
1045.0
1048.0
1048.0
1043.0
1045.0
1047.0
1048.0
1049.0
1048.0
1048.0
1042.0
1045.0
1051.0
1060.0
1063.0
1064.0
1069.0
1082.0
1100.0
1115.0
1134.0
1155.0
1182.0
1218.0
1260.0
1303.0
1330.0
1337.0
1346.0
1361.0
1373.0
1373.0
1362.0
1340.0
1310.0
1283.0
1254.0
1218.0
1165.0
1120.0
1085.0
1054.0
1040.0
1035.0
1029.0
1024.0
1016.0
1013.0
1010.0
1013.0
1010.0
1005.0
1000.0
998.0
999.0
1003.0
1003.0
997.0
992.0
995.0
995.0
1000.0
999.0
999.0
993.0
996.0
1001.0
1003.0
1004.0
1000.0
1001.0
1005.0
1008.0
1013.0
1012.0
1012.0
1015.0
1018.0
1020.0
1026.0
1025.0
1023.0
1022.0
1026.0
1034.0
1039.0
1040.0
1041.0
1041.0
1048.0
1052.0
1057.0
1061.0
1061.0
1062.0
1066.0
1071.0
1076.0
1074.0
1073.0
1074.0
1079.0
1084.0
1088.0
1091.0
1089.0
1092.0
1092.0
1090.0
1094.0
1095.0
1089.0
1085.0
1086.0
1088.0
1090.0
1086.0
1080.0
1082.0
1082.0
1081.0
1079.0
1077.0
1077.0
1075.0
1073.0
1071.0
1074.0
1075.0
1073.0
1069.0
1073.0
1077.0
1080.0
1078.0
1076.0
1072.0
1075.0
1080.0
1084.0
1080.0
1075.0
1077.0
1079.0
1080.0
1081.0
1078.0
1079.0
1076.0
1073.0
1078.0
1082.0
1083.0
1078.0
1075.0
1074.0
1075.0
1078.0
1077.0
1076.0
1072.0
1075.0
1080.0
1084.0
1078.0
1077.0
1070.0
1071.0
1073.0
1076.0
1074.0
1075.0
1075.0
1077.0
1078.0
1083.0
1083.0
1083.0
1081.0
1083.0
1086.0
1090.0
1088.0
1086.0
1092.0
1101.0
1107.0
1111.0
1115.0
1130.0
1143.0
1154.0
1165.0
1190.0
1223.0
1268.0
1311.0
1354.0
1385.0
1401.0
1405.0
1411.0
1419.0
1421.0
1415.0
1401.0
1377.0
1350.0
1323.0
1295.0
1258.0
1218.0
1176.0
1139.0
1104.0
1078.0
1066.0
1066.0
1064.0
1059.0
1053.0
1049.0
1051.0
1048.0
1043.0
1037.0
1033.0
1032.0
1032.0
1031.0
1030.0
1022.0
1020.0
1021.0
1024.0
1027.0
1024.0
1018.0
1019.0
1019.0
1023.0
1025.0
1024.0
1021.0
1018.0
1019.0
1022.0
1027.0
1025.0
1027.0
1024.0
1032.0
1036.0
1041.0
1040.0
1037.0
1041.0
1046.0
1050.0
1053.0
1055.0
1055.0
1055.0
1061.0
1067.0
1068.0
1068.0
1067.0
1071.0
1077.0
1079.0
1085.0
1084.0
1085.0
1088.0
1089.0
1094.0
1098.0
1098.0
1093.0
1089.0
1090.0
1092.0
1090.0
1081.0
1076.0
1072.0
1072.0
1072.0
1067.0
1066.0
1060.0
1057.0
1053.0
1055.0
1059.0
1057.0
1052.0
1049.0
1053.0
1057.0
1056.0
1051.0
1047.0
1044.0
1046.0
1045.0
1050.0
1051.0
1049.0
1044.0
1042.0
1044.0
1049.0
1047.0
1041.0
1035.0
1035.0
1043.0
1041.0
1039.0
1041.0
1037.0
1039.0
1043.0
1044.0
1054.0
1061.0
1064.0
1073.0
1076.0
1082.0
1087.0
1089.0
1083.0
1080.0
1079.0
1077.0
1080.0
1091.0
1116.0
1151.0
1175.0
1189.0
1195.0
1211.0
1234.0
1250.0
1255.0
1257.0
1255.0
1244.0
1220.0
1199.0
1181.0
1166.0
1134.0
1096.0
1062.0
1037.0
1021.0
1003.0
986.0
980.0
980.0
978.0
976.0
973.0
970.0
967.0
962.0
959.0
959.0
964.0
962.0
959.0
955.0
953.0
954.0
955.0
952.0
946.0
949.0
950.0
949.0
950.0
947.0
948.0
945.0
946.0
947.0
954.0
953.0
946.0
945.0
949.0
954.0
955.0
954.0
951.0
950.0
952.0
957.0
958.0
956.0
958.0
956.0
961.0
966.0
974.0
972.0
966.0
964.0
969.0
972.0
977.0
977.0
974.0
974.0
975.0
983.0
988.0
987.0
984.0
979.0
983.0
986.0
986.0
985.0
981.0
979.0
979.0
977.0
979.0
976.0
973.0
972.0
968.0
971.0
970.0
965.0
964.0
964.0
965.0
964.0
964.0
962.0
964.0
966.0
975.0
981.0
987.0
980.0
970.0
961.0
951.0
944.0
933.0
925.0
930.0
950.0
977.0
994.0
1015.0
1046.0
1077.0
1103.0
1124.0
1139.0
1140.0
1114.0
1083.0
1061.0
1042.0
1014.0
989.0
966.0
951.0
939.0
932.0
934.0
935.0
929.0
922.0
920.0
921.0
919.0
921.0
916.0
914.0
910.0
911.0
913.0
915.0
913.0
908.0
906.0
910.0
915.0
914.0
910.0
909.0
910.0
914.0
918.0
923.0
921.0
924.0
923.0
927.0
931.0
933.0
936.0
933.0
934.0
936.0
942.0
944.0
945.0
941.0
942.0
946.0
953.0
957.0
957.0
957.0
957.0
961.0
971.0
974.0
974.0
974.0
972.0
976.0
982.0
984.0
986.0
986.0
985.0
983.0
986.0
988.0
989.0
986.0
981.0
975.0
976.0
976.0
973.0
966.0
960.0
962.0
965.0
966.0
962.0
960.0
960.0
961.0
962.0
962.0
964.0
963.0
963.0
964.0
966.0
968.0
965.0
965.0
958.0
963.0
967.0
969.0
968.0
967.0
969.0
970.0
977.0
980.0
977.0
977.0
976.0
977.0
980.0
984.0
986.0
984.0
981.0
983.0
989.0
990.0
989.0
985.0
985.0
988.0
991.0
992.0
990.0
989.0
985.0
983.0
988.0
992.0
988.0
984.0
982.0
983.0
984.0
987.0
982.0
981.0
980.0
978.0
978.0
980.0
981.0
983.0
987.0
995.0
1007.0
1019.0
1023.0
1023.0
1028.0
1038.0
1058.0
1083.0
1111.0
1134.0
1155.0
1177.0
1189.0
1208.0
1217.0
1223.0
1226.0
1220.0
1203.0
1178.0
1148.0
1120.0
1078.0
1039.0
1010.0
989.0
973.0
963.0
961.0
963.0
962.0
960.0
957.0
950.0
949.0
947.0
948.0
948.0
943.0
944.0
941.0
940.0
942.0
943.0
939.0
937.0
932.0
935.0
938.0
938.0
936.0
935.0
933.0
937.0
938.0
938.0
935.0
932.0
926.0
927.0
931.0
938.0
935.0
935.0
934.0
939.0
943.0
945.0
947.0
949.0
951.0
953.0
956.0
962.0
963.0
966.0
966.0
968.0
974.0
978.0
978.0
977.0
984.0
991.0
998.0
1002.0
1007.0
1007.0
1009.0
1012.0
1019.0
1024.0
1022.0
1018.0
1020.0
1021.0
1025.0
1025.0
1023.0
1023.0
1022.0
1022.0
1023.0
1024.0
1024.0
1023.0
1020.0
1018.0
1021.0
1025.0
1024.0
1020.0
1013.0
1010.0
1012.0
1016.0
1012.0
1005.0
1001.0
1009.0
1013.0
1016.0
1012.0
1012.0
1013.0
1016.0
1018.0
1021.0
1019.0
1021.0
1019.0
1021.0
1023.0
1029.0
1026.0
1024.0
1023.0
1024.0
1028.0
1030.0
1028.0
1024.0
1025.0
1026.0
1030.0
1030.0
1033.0
1029.0
1029.0
1031.0
1034.0
1035.0
1035.0
1034.0
1033.0
1036.0
1040.0
1041.0
1040.0
1035.0
1034.0
1035.0
1039.0
1040.0
1041.0
1039.0
1035.0
1037.0
1037.0
1040.0
1040.0
1036.0
1032.0
1037.0
1039.0
1039.0
1036.0
1031.0
1031.0
1025.0
1027.0
1032.0
1034.0
1032.0
1031.0
1033.0
1039.0
1042.0
1041.0
1037.0
1036.0
1039.0
1037.0
1038.0
1040.0
1039.0
1040.0
1039.0
1044.0
1046.0
1044.0
1042.0
1036.0
1043.0
1047.0
1049.0
1046.0
1043.0
1045.0
1048.0
1050.0
1052.0
1050.0
1048.0
1051.0
1052.0
1055.0
1056.0
1053.0
1050.0
1050.0
1049.0
1056.0
1055.0
1054.0
1051.0
1049.0
1051.0
1055.0
1055.0
1056.0
1054.0
1047.0
1050.0
1052.0
1056.0
1052.0
1049.0
1048.0
1055.0
1061.0
1061.0
1063.0
1062.0
1063.0
1064.0
1065.0
1070.0
1072.0
1066.0
1067.0
1072.0
1073.0
1074.0
1067.0
1069.0
1068.0
1067.0
1071.0
1072.0
1072.0
1068.0
1068.0
1069.0
1073.0
1077.0
1073.0
1070.0
1069.0
1072.0
1075.0
1074.0
1070.0
1071.0
1074.0
1073.0
1075.0
1074.0
1074.0
1074.0
1076.0
1085.0
1094.0
1098.0
1098.0
1098.0
1108.0
1124.0
1137.0
1145.0
1154.0
1162.0
1175.0
1204.0
1240.0
1276.0
1300.0
1323.0
1336.0
1351.0
1370.0
1386.0
1391.0
1386.0
1379.0
1362.0
1340.0
1316.0
1288.0
1255.0
1212.0
1171.0
1139.0
1111.0
1082.0
1057.0
1047.0
1048.0
1047.0
1042.0
1037.0
1032.0
1027.0
1025.0
1024.0
1029.0
1026.0
1023.0
1019.0
1020.0
1024.0
1021.0
1019.0
1014.0
1015.0
1017.0
1020.0
1019.0
1017.0
1018.0
1018.0
1018.0
1022.0
1022.0
1023.0
1022.0
1018.0
1021.0
1023.0
1021.0
1020.0
1015.0
1015.0
1019.0
1023.0
1021.0
1023.0
1025.0
1026.0
1030.0
1034.0
1043.0
1042.0
1043.0
1046.0
1053.0
1062.0
1064.0
1064.0
1065.0
1066.0
1070.0
1074.0
1079.0
1082.0
1084.0
1084.0
1090.0
1098.0
1104.0
1103.0
1099.0
1102.0
1110.0
1117.0
1118.0
1121.0
1120.0
1124.0
1121.0
1126.0
1126.0
1126.0
1121.0
1120.0
1123.0
1124.0
1123.0
1119.0
1121.0
1120.0
1120.0
1117.0
1119.0
1114.0
1111.0
1107.0
1109.0
1113.0
1114.0
1111.0
1108.0
1111.0
1113.0
1119.0
1118.0
1119.0
1115.0
1112.0
1116.0
1122.0
1126.0
1130.0
1126.0
1125.0
1132.0
1136.0
1137.0
1134.0
1133.0
1131.0
1134.0
1135.0
1136.0
1139.0
1136.0
1134.0
1140.0
1141.0
1144.0
1144.0
1138.0
1135.0
1139.0
1142.0
1142.0
1142.0
1140.0
1139.0
1139.0
1142.0
1146.0
1146.0
1143.0
1141.0
1140.0
1144.0
1141.0
1140.0
1141.0
1148.0
1154.0
1156.0
1156.0
1161.0
1166.0
1174.0
1188.0
1210.0
1245.0
1286.0
1339.0
1384.0
1417.0
1431.0
1438.0
1456.0
1466.0
1465.0
1458.0
1444.0
1427.0
1403.0
1379.0
1347.0
1313.0
1277.0
1235.0
1197.0
1162.0
1123.0
1099.0
1090.0
1090.0
1087.0
1081.0
1071.0
1068.0
1070.0
1066.0
1065.0
1060.0
1055.0
1053.0
1055.0
1055.0
1051.0
1046.0
1044.0
1047.0
1050.0
1048.0
1043.0
1042.0
1043.0
1041.0
1042.0
1043.0
1042.0
1042.0
1041.0
1042.0
1047.0
1052.0
1054.0
1052.0
1056.0
1066.0
1070.0
1075.0
1080.0
1080.0
1081.0
1083.0
1090.0
1098.0
1097.0
1097.0
1101.0
1105.0
1110.0
1112.0
1113.0
1115.0
1118.0
1120.0
1126.0
1132.0
1133.0
1131.0
1133.0
1139.0
1142.0
1141.0
1137.0
1135.0
1133.0
1131.0
1132.0
1129.0
1126.0
1123.0
1116.0
1115.0
1118.0
1115.0
1110.0
1105.0
1104.0
1105.0
1105.0
1104.0
1101.0
1099.0
1097.0
1096.0
1098.0
1095.0
1093.0
1084.0
1085.0
1090.0
1093.0
1095.0
1096.0
1095.0
1095.0
1096.0
1097.0
1103.0
1104.0
1101.0
1100.0
1102.0
1105.0
1103.0
1104.0
1103.0
1101.0
1101.0
1105.0
1109.0
1105.0
1103.0
1098.0
1099.0
1100.0
1106.0
1113.0
1121.0
1129.0
1146.0
1159.0
1171.0
1172.0
1172.0
1179.0
1196.0
1219.0
1249.0
1278.0
1306.0
1324.0
1332.0
1350.0
1362.0
1364.0
1356.0
1343.0
1323.0
1299.0
1274.0
1243.0
1202.0
1160.0
1125.0
1105.0
1083.0
1065.0
1055.0
1053.0
1055.0
1056.0
1049.0
1043.0
1039.0
1041.0
1040.0
1040.0
1040.0
1036.0
1034.0
1032.0
1029.0
1034.0
1033.0
1031.0
1026.0
1026.0
1032.0
1036.0
1036.0
1033.0
1028.0
1029.0
1032.0
1036.0
1035.0
1032.0
1031.0
1031.0
1033.0
1032.0
1038.0
1041.0
1038.0
1040.0
1045.0
1049.0
1050.0
1049.0
1051.0
1051.0
1054.0
1063.0
1065.0
1065.0
1065.0
1067.0
1070.0
1073.0
1077.0
1069.0
1066.0
1067.0
1075.0
1084.0
1087.0
1087.0
1086.0
1090.0
1091.0
1090.0
1091.0
1095.0
1090.0
1081.0
1085.0
1089.0
1091.0
1085.0
1077.0
1074.0
1074.0
1075.0
1077.0
1071.0
1070.0
1068.0
1069.0
1071.0
1073.0
1069.0
1063.0
1066.0
1066.0
1067.0
1071.0
1072.0
1071.0
1068.0
1066.0
1069.0
1071.0
1068.0
1064.0
1062.0
1059.0
1064.0
1063.0
1059.0
1060.0
1054.0
1052.0
1055.0
1056.0
1051.0
1046.0
1045.0
1045.0
1047.0
1050.0
1050.0
1048.0
1044.0
1048.0
1052.0
1056.0
1057.0
1051.0
1052.0
1055.0
1057.0
1059.0
1061.0
1059.0
1055.0
1054.0
1054.0
1055.0
1054.0
1051.0
1051.0
1054.0
1059.0
1061.0
1059.0
1056.0
1057.0
1056.0
1059.0
1060.0
1061.0
1054.0
1052.0
1051.0
1053.0
1052.0
1048.0
1044.0
1043.0
1042.0
1043.0
1043.0
1041.0
1039.0
1036.0
1034.0
1036.0
1034.0
1027.0
1026.0
1026.0
1027.0
1029.0
1030.0
1030.0
1026.0
1024.0
1023.0
1031.0
1030.0
1027.0
1025.0
1026.0
1025.0
1027.0
1027.0
1024.0
1022.0
1019.0
1023.0
1029.0
1032.0
1033.0
1031.0
1031.0
1032.0
1036.0
1037.0
1034.0
1032.0
1031.0
1035.0
1036.0
1039.0
1039.0
1040.0
1038.0
1043.0
1046.0
1052.0
1049.0
1044.0
1042.0
1048.0
1051.0
1051.0
1044.0
1043.0
1039.0
1041.0
1045.0
1043.0
1041.0
1041.0
1038.0
1036.0
1036.0
1038.0
1035.0
1035.0
1032.0
1035.0
1038.0
1039.0
1036.0
1030.0
1034.0
1037.0
1039.0
1038.0
1034.0
1034.0
1033.0
1034.0
1036.0
1039.0
1040.0
1037.0
1033.0
1037.0
1041.0
1040.0
1039.0
1036.0
1047.0
1059.0
1066.0
1072.0
1078.0
1083.0
1089.0
1095.0
1108.0
1118.0
1126.0
1140.0
1166.0
1190.0
1209.0
1222.0
1236.0
1249.0
1258.0
1266.0
1267.0
1259.0
1232.0
1204.0
1179.0
1151.0
1117.0
1083.0
1053.0
1030.0
1011.0
1002.0
1001.0
996.0
995.0
985.0
981.0
980.0
