# Simple Text Format
# Sampling Rate (Hz):= 360.00
# Resolution:= 12
# Labels:= ECG
1025.0
1028.0
1030.0
1028.0
1026.0
1029.0
1030.0
1033.0
1034.0
1032.0
1036.0
1036.0
1037.0
1040.0
1039.0
1039.0
1036.0
1038.0
1045.0
1051.0
1049.0
1050.0
1049.0
1053.0
1059.0
1061.0
1063.0
1063.0
1063.0
1067.0
1072.0
1079.0
1080.0
1084.0
1084.0
1087.0
1089.0
1093.0
1094.0
1094.0
1096.0
1096.0
1098.0
1103.0
1100.0
1099.0
1096.0
1094.0
1093.0
1091.0
1090.0
1084.0
1078.0
1076.0
1073.0
1074.0
1068.0
1063.0
1057.0
1055.0
1052.0
1051.0
1045.0
1041.0
1040.0
1036.0
1035.0
1035.0
1035.0
1031.0
1028.0
1023.0
1025.0
1029.0
1030.0
1024.0
1023.0
1023.0
1027.0
1028.0
1027.0
1026.0
1024.0
1025.0
1025.0
1029.0
1026.0
1026.0
1024.0
1026.0
1029.0
1030.0
1028.0
1024.0
1023.0
1022.0
1023.0
1026.0
1026.0
1022.0
1022.0
1021.0
1022.0
1025.0
1023.0
1022.0
1021.0
1019.0
1020.0
1020.0
1016.0
1014.0
1010.0
1011.0
1013.0
1015.0
1013.0
1013.0
1011.0
1010.0
1012.0
1017.0
1015.0
1012.0
1011.0
1012.0
1016.0
1017.0
1018.0
1016.0
1014.0
1014.0
1015.0
1017.0
1017.0
1014.0
1014.0
1013.0
1014.0
1017.0
1016.0
1012.0
1010.0
1011.0
1014.0
1015.0
1017.0
1013.0
1011.0
1010.0
1014.0
1015.0
1012.0
1010.0
1008.0
1011.0
1012.0
1015.0
1015.0
1012.0
1011.0
1010.0
1014.0
1018.0
1015.0
1012.0
1010.0
1012.0
1015.0
1017.0
1013.0
1010.0
1008.0
1008.0
1011.0
1013.0
1012.0
1010.0
1006.0
1007.0
1008.0
1011.0
1013.0
1013.0
1010.0
1010.0
1012.0
1013.0
1012.0
1011.0
1011.0
1008.0
1009.0
1011.0
1012.0
1010.0
1008.0
1008.0
1014.0
1016.0
1017.0
1014.0
1012.0
1013.0
1013.0
1014.0
1013.0
1011.0
1010.0
1011.0
1012.0
1013.0
1016.0
1013.0
1012.0
1014.0
1016.0
1021.0
1019.0
1018.0
1014.0
1016.0
1019.0
1023.0
1022.0
1018.0
1019.0
1018.0
1019.0
1024.0
1034.0
1049.0
1070.0
1096.0
1120.0
1146.0
1166.0
1192.0
1217.0
1235.0
1243.0
1239.0
1225.0
1210.0
1188.0
1152.0
1103.0
1066.0
1041.0
1032.0
1025.0
1012.0
1002.0
1004.0
1002.0
998.0
995.0
989.0
991.0
994.0
991.0
993.0
987.0
986.0
990.0
988.0
988.0
988.0
984.0
983.0
982.0
987.0
982.0
978.0
978.0
975.0
978.0
979.0
979.0
978.0
976.0
977.0
979.0
982.0
983.0
979.0
977.0
979.0
982.0
983.0
983.0
984.0
982.0
979.0
981.0
985.0
984.0
982.0
983.0
983.0
985.0
991.0
992.0
989.0
986.0
985.0
988.0
991.0
991.0
988.0
985.0
986.0
988.0
990.0
989.0
991.0
987.0
985.0
991.0
992.0
993.0
993.0
992.0
993.0
995.0
997.0
1000.0
999.0
1001.0
1001.0
1005.0
1011.0
1011.0
1011.0
1011.0
1012.0
1017.0
1019.0
1020.0
1016.0
1014.0
1014.0
1015.0
1016.0
1017.0
1015.0
1015.0
1014.0
1016.0
1020.0
1020.0
1018.0
1016.0
1014.0
1018.0
1020.0
1019.0
1016.0
1015.0
1013.0
1013.0
1014.0
1016.0
1015.0
1010.0
1010.0
1011.0
1017.0
1016.0
1016.0
1014.0
1012.0
1017.0
1020.0
1022.0
1019.0
1019.0
1018.0
1020.0
1022.0
1021.0
1017.0
1016.0
1014.0
1018.0
1022.0
1019.0
1019.0
1014.0
1014.0
1014.0
1018.0
1018.0
1016.0
1012.0
1013.0
1010.0
1013.0
1012.0
1011.0
1009.0
1007.0
1012.0
1016.0
1014.0
1011.0
1009.0
1007.0
1011.0
1012.0
1012.0
1010.0
1009.0
1009.0
1012.0
1014.0
1014.0
1016.0
1016.0
1017.0
1019.0
1020.0
1017.0
1011.0
1013.0
1008.0
1013.0
1017.0
1016.0
1013.0
1014.0
1012.0
1008.0
1015.0
1016.0
1011.0
1011.0
1009.0
1013.0
1014.0
1014.0
1014.0
1007.0
1011.0
1012.0
1011.0
1013.0
1011.0
1013.0
1011.0
1012.0
1013.0
1014.0
1016.0
1016.0
1014.0
1016.0
1022.0
1020.0
1020.0
1017.0
1016.0
1018.0
1016.0
1016.0
1013.0
1014.0
1012.0
1015.0
1017.0
1014.0
1015.0
1014.0
1014.0
1023.0
1037.0
1054.0
1075.0
1098.0
1122.0
1148.0
1178.0
1203.0
1228.0
1244.0
1255.0
1250.0
1239.0
1220.0
1200.0
1167.0
1123.0
1079.0
1049.0
1037.0
1029.0
1019.0
1010.0
1003.0
1001.0
1003.0
996.0
994.0
992.0
992.0
992.0
991.0
991.0
988.0
986.0
986.0
987.0
984.0
981.0
977.0
977.0
978.0
978.0
978.0
977.0
976.0
972.0
975.0
978.0
979.0
978.0
978.0
976.0
979.0
980.0
980.0
977.0
977.0
974.0
977.0
980.0
981.0
979.0
976.0
975.0
979.0
982.0
983.0
982.0
980.0
980.0
983.0
986.0
986.0
983.0
983.0
983.0
986.0
987.0
988.0
986.0
982.0
982.0
985.0
984.0
987.0
984.0
982.0
982.0
984.0
986.0
989.0
989.0
984.0
986.0
990.0
994.0
996.0
997.0
999.0
996.0
1001.0
1003.0
1005.0
1003.0
1002.0
1000.0
1004.0
1006.0
1006.0
1003.0
1004.0
1001.0
1005.0
1003.0
1002.0
1006.0
1009.0
1009.0
1013.0
1017.0
1017.0
1014.0
1012.0
1011.0
1014.0
1013.0
1013.0
1013.0
1011.0
1009.0
1013.0
1016.0
1013.0
1013.0
1012.0
1012.0
1011.0
1014.0
1015.0
1012.0
1013.0
1013.0
1016.0
1017.0
1016.0
1013.0
1011.0
1011.0
1015.0
1015.0
1013.0
1013.0
1011.0
1006.0
1009.0
1012.0
1013.0
1008.0
1008.0
1007.0
1007.0
1009.0
1011.0
1013.0
1011.0
1010.0
1013.0
1016.0
1015.0
1013.0
1014.0
1011.0
1013.0
1018.0
1014.0
1016.0
1014.0
1012.0
1014.0
1016.0
1014.0
1013.0
1014.0
1011.0
1014.0
1013.0
1015.0
1012.0
1011.0
1011.0
1013.0
1014.0
1012.0
1011.0
1010.0
1009.0
1010.0
1016.0
1013.0
1012.0
1008.0
1007.0
1009.0
1011.0
1009.0
1009.0
1009.0
1008.0
1010.0
1011.0
1013.0
1005.0
1005.0
1004.0
1009.0
1013.0
1013.0
1013.0
1011.0
1011.0
1013.0
1012.0
1016.0
1014.0
1013.0
1012.0
1013.0
1015.0
1016.0
1012.0
1008.0
1011.0
1013.0
1016.0
1016.0
1014.0
1010.0
1011.0
1014.0
1014.0
1014.0
1012.0
1010.0
1008.0
1011.0
1015.0
1013.0
1012.0
1013.0
1011.0
1015.0
1015.0
1014.0
1012.0
1012.0
1012.0
1015.0
1019.0
1018.0
1016.0
1014.0
1012.0
1014.0
1015.0
1018.0
1014.0
1013.0
1011.0
1014.0
1014.0
1017.0
1012.0
1014.0
1009.0
1012.0
1015.0
1016.0
1014.0
1014.0
1012.0
1016.0
1018.0
1013.0
1016.0
1013.0
1012.0
1015.0
1017.0
1015.0
1016.0
1013.0
1013.0
1015.0
1017.0
1018.0
1016.0
1014.0
1013.0
1018.0
1020.0
1019.0
1018.0
1017.0
1016.0
1017.0
1018.0
1016.0
1019.0
1018.0
1020.0
1023.0
1027.0
1024.0
1023.0
1021.0
1020.0
1022.0
1023.0
1022.0
1019.0
1017.0
1015.0
1018.0
1020.0
1020.0
1016.0
1017.0
1023.0
1039.0
1061.0
1086.0
1107.0
1127.0
1146.0
1173.0
1201.0
1222.0
1233.0
1238.0
1231.0
1223.0
1215.0
1200.0
1169.0
1128.0
1080.0
1050.0
1036.0
1029.0
1022.0
1011.0
1004.0
1004.0
1006.0
1008.0
999.0
997.0
994.0
995.0
997.0
997.0
993.0
994.0
993.0
995.0
995.0
993.0
993.0
988.0
984.0
988.0
989.0
989.0
986.0
986.0
987.0
987.0
989.0
990.0
986.0
983.0
982.0
984.0
986.0
985.0
983.0
977.0
978.0
981.0
984.0
983.0
979.0
980.0
979.0
983.0
985.0
988.0
989.0
985.0
985.0
988.0
988.0
989.0
990.0
987.0
988.0
990.0
992.0
993.0
992.0
992.0
991.0
992.0
992.0
992.0
995.0
991.0
993.0
995.0
997.0
996.0
995.0
992.0
994.0
998.0
1000.0
1002.0
1000.0
998.0
1001.0
1004.0
1006.0
1006.0
1005.0
1004.0
1006.0
1009.0
1011.0
1011.0
1014.0
1012.0
1011.0
1015.0
1018.0
1019.0
1016.0
1018.0
1014.0
1018.0
1020.0
1019.0
1020.0
1019.0
1018.0
1020.0
1022.0
1022.0
1020.0
1020.0
1017.0
1021.0
1019.0
1022.0
1019.0
1016.0
1016.0
1018.0
1018.0
1019.0
1019.0
1014.0
1014.0
1013.0
1015.0
1015.0
1014.0
1014.0
1014.0
1016.0
1018.0
1017.0
1017.0
1014.0
1014.0
1015.0
1020.0
1018.0
1019.0
1016.0
1016.0
1018.0
1017.0
1020.0
1017.0
1015.0
1014.0
1017.0
1017.0
1017.0
1017.0
1013.0
1012.0
1013.0
1015.0
1016.0
1013.0
1010.0
1011.0
1013.0
1013.0
1013.0
1010.0
1006.0
1005.0
1005.0
1013.0
1011.0
1011.0
1009.0
1007.0
1010.0
1012.0
1013.0
1012.0
1012.0
1011.0
1013.0
1013.0
1012.0
1011.0
1009.0
1007.0
1010.0
1014.0
1015.0
1015.0
1014.0
1012.0
1014.0
1016.0
1015.0
1012.0
1010.0
1009.0
1012.0
1012.0
1012.0
1009.0
1006.0
1008.0
1011.0
1012.0
1009.0
1006.0
1007.0
1005.0
1007.0
1009.0
1008.0
1008.0
1005.0
1002.0
1004.0
1005.0
1006.0
1004.0
1001.0
1003.0
1008.0
1012.0
1012.0
1012.0
1008.0
1007.0
1013.0
1012.0
1013.0
1013.0
1009.0
1008.0
1010.0
1010.0
1011.0
1012.0
1009.0
1007.0
1012.0
1014.0
1012.0
1008.0
1014.0
1022.0
1040.0
1065.0
1090.0
1113.0
1129.0
1152.0
1177.0
1206.0
1229.0
1246.0
1252.0
1253.0
1241.0
1232.0
1215.0
1190.0
1153.0
1105.0
1065.0
1043.0
1035.0
1024.0
1013.0
1004.0
1000.0
1003.0
1002.0
996.0
993.0
990.0
991.0
991.0
988.0
985.0
981.0
979.0
979.0
982.0
981.0
978.0
974.0
971.0
974.0
976.0
973.0
972.0
971.0
974.0
974.0
979.0
979.0
977.0
973.0
971.0
972.0
977.0
979.0
978.0
978.0
976.0
980.0
984.0
984.0
979.0
981.0
981.0
982.0
985.0
985.0
983.0
977.0
978.0
979.0
982.0
984.0
982.0
979.0
979.0
981.0
984.0
983.0
984.0
982.0
982.0
982.0
982.0
983.0
984.0
982.0
983.0
987.0
989.0
989.0
992.0
991.0
989.0
994.0
995.0
998.0
997.0
997.0
1001.0
1006.0
1010.0
1009.0
1009.0
1007.0
1007.0
1007.0
1010.0
1010.0
1010.0
1006.0
1006.0
1008.0
1007.0
1007.0
1008.0
1005.0
1003.0
1006.0
1009.0
1006.0
1007.0
1006.0
1004.0
1006.0
1009.0
1010.0
1008.0
1008.0
1007.0
1005.0
1010.0
1008.0
1008.0
1006.0
1006.0
1007.0
1013.0
1014.0
1012.0
1010.0
1008.0
1009.0
1013.0
1011.0
1011.0
1008.0
1007.0
1008.0
1014.0
1012.0
1008.0
1007.0
1008.0
1007.0
1011.0
1011.0
1012.0
1009.0
1007.0
1007.0
1011.0
1012.0
1008.0
1006.0
1006.0
1008.0
1007.0
1007.0
1007.0
1002.0
1005.0
1007.0
1008.0
1012.0
1011.0
1009.0
1007.0
1008.0
1012.0
1013.0
1010.0
1006.0
1005.0
1007.0
1010.0
1008.0
1008.0
1006.0
1005.0
1006.0
1010.0
1011.0
1008.0
1003.0
1003.0
1006.0
1008.0
1009.0
1008.0
1007.0
1008.0
1008.0
1012.0
1010.0
1010.0
1010.0
1009.0
1013.0
1015.0
1014.0
1013.0
1009.0
1006.0
1014.0
1029.0
1051.0
1075.0
1097.0
1118.0
1148.0
1174.0
1201.0
1223.0
1244.0
1253.0
1256.0
1251.0
1239.0
1225.0
1202.0
1168.0
1124.0
1077.0
1048.0
1032.0
1022.0
1009.0
1005.0
997.0
999.0
996.0
990.0
989.0
985.0
986.0
984.0
980.0
976.0
977.0
977.0
979.0
980.0
979.0
974.0
976.0
977.0
980.0
980.0
977.0
975.0
976.0
976.0
976.0
977.0
976.0
971.0
969.0
968.0
971.0
970.0
971.0
973.0
970.0
972.0
974.0
976.0
979.0
978.0
975.0
978.0
977.0
977.0
975.0
974.0
976.0
977.0
975.0
976.0
978.0
975.0
974.0
978.0
982.0
982.0
984.0
981.0
982.0
983.0
985.0
987.0
988.0
985.0
984.0
986.0
988.0
985.0
987.0
986.0
987.0
988.0
992.0
996.0
996.0
993.0
997.0
1000.0
1004.0
1007.0
1006.0
1006.0
1007.0
1007.0
1012.0
1011.0
1009.0
1008.0
1007.0
1008.0
1010.0
1012.0
1010.0
1005.0
1006.0
1007.0
1011.0
1013.0
1012.0
1013.0
1010.0
1014.0
1015.0
1015.0
1012.0
1013.0
1011.0
1012.0
1013.0
1009.0
1010.0
1008.0
1006.0
1010.0
1012.0
1014.0
1014.0
1012.0
1013.0
1012.0
1014.0
1014.0
1014.0
1013.0
1010.0
1013.0
1015.0
1014.0
1014.0
1009.0
1010.0
1012.0
1017.0
1018.0
1014.0
1012.0
1012.0
1012.0
1013.0
1012.0
1011.0
1010.0
1009.0
1010.0
1008.0
1014.0
1011.0
1009.0
1008.0
1008.0
1009.0
1010.0
1010.0
1006.0
1007.0
1009.0
1011.0
1012.0
1011.0
1010.0
1008.0
1011.0
1013.0
1012.0
1014.0
1011.0
1011.0
1014.0
1016.0
1015.0
1015.0
1013.0
1013.0
1014.0
1019.0
1019.0
1016.0
1012.0
1013.0
1012.0
1014.0
1011.0
1010.0
1007.0
1005.0
1007.0
1005.0
1003.0
1005.0
1005.0
1003.0
1004.0
1005.0
1009.0
1006.0
1005.0
1004.0
1007.0
1010.0
1009.0
1009.0
1009.0
1011.0
1013.0
1014.0
1016.0
1016.0
1013.0
1014.0
1016.0
1018.0
1016.0
1014.0
1013.0
1012.0
1011.0
1014.0
1014.0
1012.0
1009.0
1007.0
1010.0
1013.0
1011.0
1007.0
1005.0
1005.0
1006.0
1006.0
1006.0
1004.0
1001.0
1000.0
1003.0
1006.0
1005.0
1007.0
1006.0
1005.0
1009.0
1012.0
1012.0
1013.0
1011.0
1013.0
1014.0
1015.0
1019.0
1017.0
1016.0
1015.0
1016.0
1018.0
1019.0
1018.0
1015.0
1014.0
1017.0
1019.0
1024.0
1019.0
1016.0
1012.0
1016.0
1024.0
1039.0
1056.0
1078.0
1099.0
1121.0
1144.0
1168.0
1192.0
1217.0
1233.0
1239.0
1235.0
1225.0
1210.0
1188.0
1155.0
1110.0
1063.0
1038.0
1026.0
1018.0
1008.0
1002.0
1000.0
1001.0
1000.0
991.0
990.0
990.0
990.0
992.0
989.0
985.0
982.0
985.0
985.0
985.0
986.0
983.0
982.0
984.0
987.0
987.0
985.0
980.0
978.0
977.0
979.0
978.0
974.0
970.0
968.0
969.0
969.0
969.0
968.0
967.0
965.0
967.0
969.0
971.0
971.0
971.0
970.0
973.0
975.0
974.0
975.0
978.0
977.0
978.0
980.0
982.0
980.0
982.0
979.0
983.0
985.0
986.0
985.0
984.0
983.0
983.0
988.0
989.0
992.0
988.0
989.0
992.0
991.0
992.0
990.0
987.0
987.0
988.0
990.0
993.0
992.0
993.0
994.0
996.0
1002.0
1004.0
1005.0
1004.0
1003.0
1004.0
1010.0
1014.0
1013.0
1010.0
1009.0
1011.0
1010.0
1012.0
1013.0
1011.0
1008.0
1011.0
1012.0
1013.0
1013.0
1011.0
1009.0
1008.0
1010.0
1011.0
1008.0
1007.0
1007.0
1008.0
1012.0
1013.0
1013.0
1012.0
1011.0
1011.0
1015.0
1016.0
1013.0
1012.0
1010.0
1011.0
1012.0
1015.0
1014.0
1011.0
1010.0
1014.0
1014.0
1018.0
1018.0
1015.0
1015.0
1017.0
1017.0
1017.0
1016.0
1014.0
1011.0
1012.0
1014.0
1016.0
1013.0
1011.0
1008.0
1009.0
1009.0
1010.0
1011.0
1009.0
1007.0
1010.0
1013.0
1013.0
1013.0
1009.0
1009.0
1010.0
1012.0
1011.0
1011.0
1007.0
1005.0
1007.0
1009.0
1008.0
1009.0
1007.0
1006.0
1010.0
1011.0
1013.0
1009.0
1011.0
1012.0
1011.0
1015.0
1015.0
1012.0
1010.0
1008.0
1007.0
1013.0
1012.0
1014.0
1009.0
1007.0
1009.0
1009.0
1011.0
1009.0
1010.0
1008.0
1010.0
1013.0
1011.0
1013.0
1008.0
1010.0
1012.0
1013.0
1016.0
1014.0
1014.0
1012.0
1015.0
1017.0
1016.0
1016.0
1016.0
1012.0
1012.0
1013.0
1017.0
1025.0
1041.0
1064.0
1090.0
1116.0
1140.0
1165.0
1191.0
1216.0
1237.0
1252.0
1252.0
1243.0
1229.0
1208.0
1186.0
1151.0
1105.0
1061.0
1037.0
1027.0
1021.0
1014.0
1006.0
1001.0
998.0
994.0
991.0
992.0
988.0
985.0
981.0
981.0
982.0
982.0
982.0
980.0
977.0
975.0
974.0
976.0
978.0
976.0
971.0
967.0
967.0
969.0
970.0
971.0
969.0
971.0
973.0
977.0
976.0
975.0
974.0
974.0
976.0
979.0
981.0
979.0
976.0
978.0
978.0
981.0
983.0
981.0
979.0
978.0
980.0
983.0
984.0
981.0
978.0
977.0
977.0
982.0
982.0
982.0
980.0
980.0
982.0
984.0
986.0
984.0
983.0
981.0
982.0
985.0
987.0
984.0
984.0
985.0
988.0
992.0
993.0
994.0
992.0
998.0
1002.0
1007.0
1013.0
1011.0
1007.0
1010.0
1012.0
1015.0
1017.0
1016.0
1013.0
1009.0
1013.0
1012.0
1012.0
1011.0
1009.0
1008.0
1009.0
1012.0
1012.0
1011.0
1008.0
1008.0
1010.0
1011.0
1009.0
1012.0
1009.0
1008.0
1008.0
1010.0
1011.0
1008.0
1007.0
1004.0
1009.0
1012.0
1013.0
1010.0
1009.0
1010.0
1011.0
1012.0
1012.0
1012.0
1009.0
1010.0
1011.0
1013.0
1014.0
1012.0
1011.0
1010.0
1014.0
1016.0
1016.0
1015.0
1010.0
1008.0
1011.0
1011.0
1013.0
1013.0
1012.0
1008.0
1012.0
1012.0
1012.0
1012.0
1012.0
1012.0
1013.0
1014.0
1016.0
1012.0
1013.0
1011.0
1013.0
1014.0
1015.0
1012.0
1007.0
1004.0
1008.0
1009.0
1012.0
1011.0
1009.0
1008.0
1009.0
1011.0
1012.0
1012.0
1008.0
1008.0
1010.0
1010.0
1011.0
1013.0
1007.0
1009.0
1010.0
1010.0
1011.0
1008.0
1005.0
1002.0
1003.0
1005.0
1006.0
1006.0
1002.0
1004.0
1004.0
1007.0
1009.0
1008.0
1008.0
1006.0
1009.0
1012.0
1013.0
1013.0
1012.0
1013.0
1016.0
1020.0
1018.0
1017.0
1017.0
1017.0
1018.0
1017.0
1020.0
1018.0
1014.0
1010.0
1013.0
1021.0
1040.0
1061.0
1084.0
1107.0
1131.0
1156.0
1181.0
1210.0
1231.0
1241.0
1241.0
1235.0
1222.0
1203.0
1172.0
1131.0
1080.0
1044.0
1026.0
1019.0
1005.0
996.0
992.0
992.0
992.0
989.0
982.0
980.0
981.0
981.0
983.0
981.0
975.0
979.0
979.0
980.0
982.0
978.0
977.0
976.0
976.0
979.0
981.0
978.0
977.0
974.0
975.0
977.0
976.0
972.0
968.0
966.0
966.0
967.0
969.0
968.0
967.0
965.0
968.0
968.0
970.0
973.0
972.0
968.0
971.0
975.0
976.0
975.0
970.0
970.0
967.0
971.0
973.0
972.0
972.0
969.0
971.0
973.0
978.0
977.0
977.0
976.0
979.0
981.0
981.0
978.0
975.0
978.0
981.0
983.0
987.0
985.0
985.0
985.0
987.0
991.0
993.0
994.0
992.0
993.0
994.0
997.0
1002.0
999.0
999.0
998.0
1001.0
1006.0
1007.0
1008.0
1006.0
1005.0
1007.0
1008.0
1008.0
1009.0
1008.0
1003.0
1004.0
1007.0
1008.0
1005.0
1002.0
1002.0
1004.0
1004.0
1005.0
1007.0
1002.0
1001.0
1001.0
1004.0
1006.0
1005.0
1001.0
1000.0
1000.0
1002.0
1003.0
1003.0
1001.0
1001.0
1003.0
1000.0
1003.0
1004.0
1004.0
1002.0
1004.0
1008.0
1008.0
1006.0
1006.0
1002.0
1007.0
1007.0
1010.0
1006.0
1002.0
1000.0
1000.0
1002.0
1003.0
1000.0
999.0
1000.0
1002.0
1005.0
1006.0
1005.0
1002.0
1001.0
1001.0
1003.0
1008.0
1006.0
1005.0
1005.0
1007.0
1007.0
1009.0
1007.0
1003.0
1002.0
1002.0
1006.0
1006.0
1005.0
1000.0
999.0
1003.0
1003.0
1006.0
1006.0
1005.0
1006.0
1006.0
1007.0
1010.0
1008.0
1003.0
1003.0
1002.0
1000.0
1001.0
999.0
999.0
997.0
999.0
1002.0
1004.0
1003.0
1000.0
998.0
999.0
1001.0
1002.0
1001.0
1000.0
996.0
1000.0
1001.0
1003.0
1002.0
1004.0
1004.0
1004.0
1008.0
1008.0
1007.0
1004.0
1003.0
1003.0
1006.0
1007.0
1007.0
1000.0
1002.0
1003.0
1004.0
1004.0
1006.0
1001.0
1001.0
1003.0
1003.0
1003.0
1003.0
1001.0
1000.0
1005.0
1018.0
1041.0
1067.0
1091.0
1114.0
1139.0
1168.0
1199.0
1224.0
1232.0
1233.0
1229.0
1215.0
1196.0
1165.0
1112.0
1061.0
1028.0
1015.0
1008.0
1000.0
989.0
987.0
989.0
989.0
986.0
981.0
978.0
976.0
974.0
973.0
974.0
973.0
971.0
968.0
967.0
969.0
970.0
967.0
966.0
966.0
969.0
968.0
971.0
967.0
965.0
964.0
966.0
969.0
970.0
970.0
969.0
968.0
968.0
970.0
972.0
970.0
971.0
968.0
971.0
974.0
974.0
975.0
972.0
973.0
974.0
977.0
979.0
977.0
975.0
974.0
973.0
974.0
976.0
976.0
974.0
978.0
980.0
982.0
985.0
982.0
982.0
981.0
982.0
985.0
991.0
991.0
990.0
991.0
992.0
994.0
997.0
996.0
995.0
995.0
997.0
1001.0
1002.0
1002.0
1002.0
1001.0
999.0
1001.0
1006.0
1003.0
1000.0
999.0
1003.0
1005.0
1005.0
1001.0
998.0
997.0
998.0
1004.0
1003.0
1003.0
1001.0
1002.0
1003.0
1006.0
1009.0
1008.0
1003.0
1004.0
1006.0
1007.0
1007.0
1007.0
1004.0
1004.0
1004.0
1007.0
1009.0
1009.0
1005.0
1003.0
1005.0
1009.0
1009.0
1008.0
1004.0
1003.0
1003.0
1005.0
1005.0
1003.0
1002.0
1001.0
1003.0
1004.0
1004.0
1002.0
1001.0
999.0
1002.0
1004.0
1003.0
1006.0
1004.0
1005.0
1005.0
1009.0
1012.0
1010.0
1007.0
1005.0
1006.0
1005.0
1008.0
1006.0
1002.0
998.0
1002.0
1004.0
1005.0
1004.0
1000.0
1001.0
1001.0
1004.0
1004.0
1004.0
999.0
999.0
999.0
1002.0
1004.0
1002.0
1002.0
1001.0
1004.0
1008.0
1007.0
1006.0
1005.0
1001.0
999.0
1004.0
1005.0
1006.0
1004.0
1000.0
1003.0
1006.0
1005.0
1008.0
1006.0
1001.0
1003.0
1005.0
1005.0
1004.0
1003.0
1005.0
1006.0
1007.0
1008.0
1008.0
1006.0
1006.0
1008.0
1008.0
1009.0
1010.0
1006.0
1006.0
1007.0
1009.0
1009.0
1008.0
1007.0
1008.0
1009.0
1010.0
1012.0
1011.0
1013.0
1011.0
1010.0
1010.0
1012.0
1008.0
1008.0
1013.0
1026.0
1049.0
1080.0
1105.0
1127.0
1149.0
1176.0
1203.0
1228.0
1240.0
1245.0
1237.0
1227.0
1214.0
1198.0
1167.0
1120.0
1073.0
1038.0
1025.0
1019.0
1009.0
996.0
990.0
988.0
989.0
989.0
987.0
984.0
980.0
977.0
982.0
980.0
978.0
972.0
973.0
971.0
972.0
976.0
976.0
978.0
974.0
977.0
977.0
977.0
978.0
976.0
974.0
976.0
977.0
978.0
978.0
977.0
973.0
974.0
975.0
976.0
975.0
974.0
972.0
973.0
975.0
977.0
976.0
973.0
974.0
975.0
978.0
978.0
977.0
973.0
975.0
978.0
978.0
980.0
977.0
976.0
973.0
975.0
975.0
981.0
983.0
978.0
980.0
981.0
984.0
987.0
988.0
988.0
987.0
990.0
993.0
995.0
996.0
998.0
997.0
996.0
1001.0
1005.0
1006.0
1002.0
1001.0
1005.0
1008.0
1008.0
1004.0
1006.0
1005.0
1005.0
1009.0
1009.0
1009.0
1008.0
1002.0
1002.0
1005.0
1005.0
1005.0
1004.0
1003.0
1004.0
1006.0
1009.0
1009.0
1010.0
1008.0
1009.0
1011.0
1014.0
1012.0
1011.0
1009.0
1006.0
1011.0
1011.0
1010.0
1012.0
1008.0
1007.0
1013.0
1014.0
1011.0
1010.0
1010.0
1009.0
1010.0
1016.0
1012.0
1010.0
1011.0
1013.0
1011.0
1009.0
1010.0
1006.0
1004.0
1004.0
1006.0
1011.0
1009.0
1008.0
1006.0
1007.0
1008.0
1011.0
1010.0
1009.0
1009.0
1009.0
1011.0
1012.0
1012.0
1004.0
1006.0
1005.0
1009.0
1011.0
1008.0
1005.0
1004.0
1003.0
1006.0
1005.0
1003.0
1002.0
1000.0
1000.0
1001.0
1001.0
1001.0
1001.0
999.0
998.0
1000.0
1005.0
1002.0
1002.0
1000.0
999.0
1002.0
1002.0
1001.0
1001.0
1003.0
1007.0
1013.0
1016.0
1016.0
1014.0
1012.0
1013.0
1015.0
1018.0
1018.0
1011.0
1011.0
1013.0
1012.0
1016.0
1013.0
1012.0
1013.0
1009.0
1010.0
1011.0
1012.0
1009.0
1005.0
1007.0
1007.0
1008.0
1006.0
1006.0
1005.0
1006.0
1008.0
1007.0
1005.0
1005.0
1004.0
1006.0
1006.0
1009.0
1007.0
1005.0
1006.0
1005.0
1006.0
1011.0
1007.0
1010.0
1020.0
1041.0
1064.0
1090.0
1112.0
1135.0
1154.0
1180.0
1207.0
1229.0
1240.0
1240.0
1233.0
1225.0
1213.0
1199.0
1169.0
1133.0
1093.0
1061.0
1043.0
1030.0
1022.0
1007.0
996.0
993.0
995.0
995.0
992.0
984.0
981.0
979.0
978.0
978.0
976.0
974.0
972.0
975.0
977.0
981.0
976.0
977.0
973.0
974.0
977.0
976.0
973.0
972.0
972.0
973.0
974.0
977.0
975.0
971.0
965.0
969.0
972.0
973.0
972.0
969.0
971.0
970.0
970.0
973.0
973.0
971.0
969.0
970.0
968.0
972.0
971.0
967.0
964.0
969.0
969.0
973.0
973.0
974.0
972.0
971.0
973.0
976.0
973.0
974.0
974.0
977.0
978.0
979.0
980.0
977.0
977.0
978.0
979.0
982.0
981.0
981.0
981.0
983.0
985.0
989.0
988.0
988.0
988.0
992.0
992.0
995.0
996.0
995.0
994.0
998.0
1000.0
1000.0
999.0
998.0
998.0
999.0
1002.0
1001.0
1001.0
999.0
996.0
998.0
1001.0
1003.0
1002.0
998.0
997.0
999.0
1002.0
1004.0
1004.0
1001.0
1002.0
1004.0
1004.0
1007.0
1007.0
1004.0
999.0
1002.0
1003.0
1007.0
1006.0
1003.0
1002.0
1003.0
1005.0
1005.0
1004.0
1006.0
1004.0
1004.0
1004.0
1005.0
1005.0
1003.0
1002.0
1002.0
1003.0
1006.0
1003.0
1002.0
1000.0
1001.0
1003.0
1005.0
1004.0
1002.0
1001.0
1000.0
1004.0
1006.0
1004.0
998.0
997.0
998.0
1002.0
1006.0
1005.0
1005.0
1003.0
1005.0
1007.0
1009.0
1008.0
1006.0
1001.0
1002.0
1003.0
1006.0
1006.0
1003.0
999.0
996.0
998.0
999.0
998.0
995.0
992.0
996.0
999.0
1000.0
997.0
999.0
998.0
996.0
1001.0
1003.0
1000.0
999.0
997.0
997.0
1001.0
1000.0
1004.0
1003.0
1002.0
1000.0
1000.0
1001.0
1002.0
1001.0
1000.0
1000.0
1003.0
1003.0
1007.0
1006.0
1004.0
1005.0
1005.0
1006.0
1005.0
1005.0
1001.0
1004.0
1004.0
1004.0
1002.0
1002.0
999.0
999.0
1003.0
1004.0
1004.0
1003.0
1000.0
999.0
1002.0
1004.0
1002.0
1000.0
995.0
995.0
999.0
1003.0
1002.0
1001.0
999.0
998.0
998.0
1001.0
997.0
998.0
997.0
998.0
1001.0
1004.0
1005.0
1003.0
1003.0
1003.0
1006.0
1007.0
1007.0
1002.0
1002.0
1001.0
1003.0
1006.0
1003.0
1003.0
1000.0
1002.0
1004.0
1006.0
1006.0
1001.0
998.0
1003.0
1007.0
1012.0
1020.0
1036.0
1051.0
1073.0
1099.0
1119.0
1136.0
1153.0
1175.0
1199.0
1219.0
1236.0
1238.0
1231.0
1222.0
1211.0
1198.0
1177.0
1143.0
1097.0
1054.0
1031.0
1022.0
1019.0
1012.0
1000.0
990.0
986.0
987.0
986.0
984.0
982.0
978.0
975.0
978.0
979.0
978.0
973.0
972.0
971.0
969.0
973.0
971.0
970.0
968.0
967.0
969.0
973.0
969.0
968.0
963.0
967.0
970.0
967.0
967.0
967.0
966.0
966.0
969.0
970.0
969.0
968.0
966.0
967.0
970.0
972.0
971.0
967.0
968.0
967.0
970.0
971.0
974.0
975.0
969.0
970.0
970.0
972.0
973.0
967.0
968.0
967.0
971.0
973.0
972.0
972.0
973.0
970.0
976.0
978.0
975.0
976.0
977.0
977.0
979.0
982.0
982.0
980.0
978.0
979.0
979.0
984.0
985.0
983.0
981.0
985.0
988.0
992.0
994.0
994.0
993.0
997.0
1000.0
1002.0
1003.0
1000.0
1000.0
1001.0
1002.0
1005.0
1005.0
1006.0
1002.0
1001.0
1005.0
1010.0
1007.0
1005.0
1005.0
1004.0
1004.0
1007.0
1006.0
1003.0
1000.0
1001.0
1005.0
1006.0
1004.0
1005.0
1000.0
1001.0
1002.0
1003.0
1005.0
1004.0
1000.0
1001.0
1005.0
1008.0
1006.0
1005.0
1003.0
1006.0
1009.0
1010.0
1013.0
1010.0
1006.0
1009.0
1011.0
1012.0
1012.0
1011.0
1009.0
1009.0
1010.0
1012.0
1010.0
1007.0
1004.0
1006.0
1006.0
1009.0
1009.0
1006.0
1004.0
1005.0
1004.0
1003.0
1005.0
1002.0
1001.0
1001.0
1004.0
1007.0
1007.0
1004.0
1001.0
1003.0
1004.0
1006.0
1003.0
1003.0
1001.0
1002.0
1003.0
1006.0
1006.0
1004.0
1002.0
1002.0
1005.0
1010.0
1008.0
1008.0
1006.0
1007.0
1010.0
1012.0
1011.0
1007.0
1004.0
1008.0
1010.0
1012.0
1008.0
1005.0
1002.0
1001.0
1004.0
1006.0
1005.0
1003.0
1001.0
999.0
998.0
1000.0
1004.0
1000.0
997.0
1001.0
1005.0
1005.0
1004.0
1002.0
999.0
999.0
1000.0
1001.0
1001.0
999.0
998.0
998.0
1002.0
1006.0
1011.0
1020.0
1038.0
1062.0
1089.0
1115.0
1137.0
1159.0
1181.0
1207.0
1229.0
1245.0
1249.0
1240.0
1226.0
1216.0
1198.0
1169.0
1123.0
1075.0
1041.0
1027.0
1021.0
1014.0
1007.0
998.0
992.0
992.0
990.0
989.0
990.0
984.0
981.0
978.0
976.0
977.0
975.0
973.0
969.0
968.0
970.0
969.0
966.0
964.0
962.0
961.0
967.0
969.0
965.0
965.0
962.0
962.0
964.0
968.0
969.0
968.0
965.0
967.0
970.0
972.0
971.0
973.0
972.0
972.0
973.0
976.0
976.0
975.0
973.0
974.0
975.0
977.0
977.0
976.0
973.0
973.0
975.0
976.0
978.0
975.0
973.0
973.0
976.0
977.0
979.0
977.0
977.0
975.0
977.0
980.0
979.0
974.0
973.0
975.0
981.0
982.0
982.0
983.0
984.0
988.0
991.0
993.0
993.0
992.0
992.0
994.0
997.0
997.0
999.0
997.0
996.0
998.0
1003.0
1007.0
1006.0
1003.0
1001.0
1005.0
1008.0
1007.0
1009.0
1006.0
1007.0
1008.0
1012.0
1010.0
1011.0
1010.0
1008.0
1009.0
1009.0
1009.0
1008.0
1006.0
1004.0
1003.0
1007.0
1009.0
1011.0
1007.0
1005.0
1004.0
1007.0
1007.0
1008.0
1003.0
999.0
1002.0
1002.0
1003.0
1004.0
1001.0
999.0
1000.0
1003.0
1005.0
1005.0
1000.0
997.0
996.0
999.0
1000.0
1001.0
1000.0
998.0
998.0
1002.0
1004.0
1005.0
1003.0
1004.0
1005.0
1007.0
1009.0
1012.0
1011.0
1010.0
1011.0
1013.0
1013.0
1012.0
1013.0
1013.0
1010.0
1012.0
1011.0
1013.0
1007.0
1007.0
1007.0
1008.0
1010.0
1008.0
1004.0
1004.0
1001.0
1002.0
1001.0
1002.0
1000.0
997.0
996.0
1000.0
1002.0
1002.0
1000.0
1000.0
1000.0
1004.0
1006.0
1007.0
1003.0
999.0
1001.0
999.0
1000.0
1003.0
1001.0
1001.0
1001.0
1004.0
1005.0
1007.0
1004.0
1002.0
1005.0
1004.0
1005.0
1007.0
1006.0
1004.0
1006.0
1008.0
1007.0
1009.0
1008.0
1006.0
1004.0
1008.0
1008.0
1008.0
1008.0
1005.0
1007.0
1008.0
1010.0
1010.0
1009.0
1008.0
1010.0
1012.0
1014.0
1015.0
1013.0
1011.0
1009.0
1007.0
1011.0
1018.0
1035.0
1056.0
1082.0
1111.0
1138.0
1164.0
1190.0
1212.0
