# Simple Text Format
# Sampling Rate (Hz):= 360.00
# Resolution:= 12
# Labels:= ECG
943.0
947.0
947.0
948.0
952.0
952.0
956.0
956.0
954.0
954.0
956.0
954.0
955.0
956.0
956.0
957.0
958.0
959.0
957.0
957.0
957.0
956.0
958.0
959.0
960.0
962.0
962.0
964.0
963.0
961.0
959.0
953.0
949.0
946.0
944.0
956.0
979.0
1009.0
1046.0
1090.0
1133.0
1182.0
1231.0
1274.0
1306.0
1323.0
1328.0
1322.0
1311.0
1292.0
1254.0
1194.0
1111.0
1024.0
958.0
916.0
903.0
902.0
913.0
928.0
936.0
937.0
938.0
936.0
931.0
928.0
924.0
924.0
924.0
924.0
922.0
923.0
925.0
923.0
925.0
923.0
926.0
924.0
922.0
918.0
917.0
917.0
914.0
917.0
919.0
918.0
919.0
922.0
921.0
921.0
918.0
915.0
914.0
910.0
908.0
908.0
910.0
909.0
908.0
911.0
907.0
905.0
902.0
899.0
898.0
897.0
895.0
892.0
894.0
894.0
895.0
895.0
894.0
894.0
890.0
891.0
887.0
885.0
882.0
882.0
883.0
879.0
879.0
876.0
876.0
869.0
870.0
863.0
856.0
852.0
850.0
846.0
845.0
846.0
845.0
845.0
843.0
842.0
839.0
840.0
836.0
837.0
840.0
842.0
847.0
852.0
857.0
863.0
866.0
871.0
875.0
879.0
885.0
888.0
892.0
900.0
904.0
909.0
915.0
921.0
924.0
928.0
930.0
931.0
934.0
933.0
933.0
936.0
935.0
940.0
937.0
945.0
944.0
946.0
945.0
941.0
944.0
943.0
939.0
942.0
939.0
942.0
943.0
947.0
946.0
945.0
944.0
942.0
944.0
944.0
941.0
944.0
945.0
946.0
946.0
947.0
946.0
944.0
944.0
944.0
944.0
944.0
942.0
944.0
945.0
946.0
949.0
950.0
949.0
948.0
947.0
948.0
948.0
947.0
947.0
950.0
949.0
951.0
954.0
954.0
955.0
957.0
958.0
954.0
952.0
951.0
953.0
950.0
950.0
952.0
950.0
950.0
953.0
952.0
952.0
952.0
949.0
945.0
944.0
942.0
944.0
944.0
944.0
944.0
944.0
946.0
943.0
942.0
941.0
940.0
940.0
936.0
936.0
936.0
936.0
936.0
936.0
934.0
933.0
930.0
930.0
931.0
933.0
933.0
938.0
941.0
943.0
946.0
946.0
949.0
948.0
948.0
945.0
946.0
947.0
948.0
949.0
953.0
957.0
959.0
958.0
959.0
957.0
953.0
953.0
951.0
951.0
949.0
950.0
949.0
950.0
948.0
948.0
947.0
945.0
942.0
942.0
940.0
938.0
936.0
937.0
939.0
941.0
942.0
943.0
943.0
938.0
930.0
924.0
922.0
925.0
944.0
970.0
1009.0
1053.0
1102.0
1157.0
1216.0
1267.0
1306.0
1330.0
1338.0
1335.0
1321.0
1296.0
1250.0
1179.0
1087.0
997.0
932.0
902.0
899.0
909.0
923.0
933.0
941.0
943.0
939.0
937.0
934.0
931.0
929.0
930.0
930.0
928.0
925.0
921.0
920.0
919.0
920.0
917.0
918.0
916.0
915.0
914.0
909.0
905.0
901.0
895.0
891.0
891.0
896.0
895.0
894.0
892.0
890.0
890.0
889.0
888.0
885.0
886.0
883.0
883.0
884.0
883.0
885.0
884.0
882.0
884.0
883.0
882.0
883.0
884.0
883.0
884.0
884.0
887.0
889.0
888.0
887.0
884.0
881.0
880.0
878.0
876.0
875.0
874.0
872.0
872.0
872.0
870.0
867.0
865.0
861.0
858.0
853.0
850.0
848.0
845.0
845.0
842.0
839.0
837.0
830.0
826.0
824.0
821.0
816.0
814.0
814.0
814.0
816.0
818.0
820.0
828.0
830.0
835.0
838.0
844.0
848.0
854.0
862.0
867.0
872.0
878.0
885.0
890.0
893.0
899.0
903.0
908.0
913.0
916.0
920.0
923.0
929.0
930.0
933.0
935.0
936.0
937.0
937.0
935.0
934.0
933.0
931.0
931.0
934.0
939.0
942.0
939.0
938.0
937.0
937.0
935.0
931.0
933.0
933.0
933.0
934.0
937.0
937.0
936.0
934.0
933.0
933.0
933.0
931.0
929.0
929.0
930.0
933.0
932.0
935.0
935.0
933.0
934.0
932.0
930.0
932.0
931.0
932.0
933.0
932.0
935.0
937.0
941.0
941.0
940.0
940.0
939.0
939.0
938.0
939.0
941.0
944.0
948.0
950.0
953.0
955.0
952.0
951.0
952.0
950.0
949.0
948.0
946.0
946.0
946.0
947.0
946.0
945.0
940.0
938.0
939.0
937.0
934.0
933.0
935.0
932.0
936.0
937.0
936.0
936.0
933.0
934.0
932.0
931.0
931.0
930.0
930.0
930.0
930.0
933.0
933.0
931.0
931.0
931.0
930.0
931.0
931.0
931.0
930.0
934.0
931.0
933.0
931.0
925.0
921.0
920.0
930.0
950.0
983.0
1021.0
1070.0
1127.0
1189.0
1245.0
1293.0
1322.0
1336.0
1335.0
1323.0
1301.0
1263.0
1202.0
1116.0
1024.0
948.0
906.0
891.0
897.0
914.0
928.0
933.0
933.0
926.0
919.0
911.0
908.0
906.0
909.0
908.0
909.0
907.0
904.0
902.0
898.0
894.0
891.0
891.0
891.0
893.0
892.0
892.0
891.0
890.0
889.0
887.0
890.0
889.0
888.0
892.0
892.0
892.0
894.0
893.0
895.0
891.0
891.0
885.0
887.0
886.0
888.0
889.0
889.0
888.0
889.0
888.0
886.0
886.0
879.0
877.0
873.0
877.0
876.0
875.0
873.0
872.0
870.0
869.0
865.0
860.0
856.0
853.0
849.0
846.0
844.0
844.0
843.0
840.0
835.0
829.0
827.0
825.0
818.0
814.0
811.0
806.0
804.0
802.0
801.0
803.0
804.0
806.0
807.0
813.0
815.0
820.0
827.0
834.0
842.0
852.0
863.0
870.0
878.0
885.0
889.0
892.0
895.0
900.0
907.0
910.0
913.0
915.0
920.0
920.0
920.0
924.0
922.0
923.0
919.0
919.0
915.0
918.0
919.0
915.0
919.0
918.0
920.0
920.0
918.0
915.0
913.0
909.0
906.0
902.0
904.0
905.0
907.0
907.0
911.0
913.0
910.0
910.0
907.0
908.0
908.0
910.0
913.0
913.0
915.0
920.0
924.0
927.0
926.0
926.0
925.0
924.0
925.0
923.0
928.0
926.0
929.0
929.0
932.0
932.0
932.0
934.0
931.0
931.0
931.0
929.0
929.0
928.0
930.0
931.0
932.0
932.0
931.0
929.0
926.0
925.0
920.0
919.0
919.0
919.0
919.0
921.0
924.0
922.0
922.0
921.0
918.0
918.0
916.0
916.0
915.0
915.0
916.0
916.0
919.0
919.0
922.0
920.0
918.0
916.0
917.0
918.0
918.0
920.0
921.0
924.0
925.0
926.0
926.0
928.0
926.0
925.0
924.0
926.0
928.0
929.0
929.0
931.0
933.0
932.0
929.0
929.0
924.0
919.0
914.0
912.0
919.0
936.0
965.0
1004.0
1046.0
1096.0
1153.0
1207.0
1257.0
1295.0
1317.0
1322.0
1316.0
1300.0
1272.0
1219.0
1139.0
1043.0
956.0
897.0
871.0
869.0
877.0
891.0
903.0
908.0
907.0
904.0
902.0
897.0
894.0
895.0
895.0
896.0
895.0
895.0
892.0
893.0
893.0
893.0
895.0
893.0
893.0
895.0
895.0
893.0
894.0
893.0
892.0
892.0
893.0
894.0
893.0
893.0
892.0
890.0
887.0
883.0
881.0
880.0
877.0
877.0
877.0
877.0
875.0
874.0
874.0
872.0
873.0
868.0
866.0
862.0
860.0
858.0
856.0
854.0
853.0
852.0
851.0
850.0
847.0
846.0
845.0
840.0
839.0
836.0
836.0
837.0
836.0
834.0
829.0
830.0
827.0
824.0
820.0
815.0
813.0
810.0
809.0
811.0
809.0
808.0
807.0
807.0
808.0
807.0
807.0
810.0
813.0
819.0
826.0
832.0
841.0
848.0
854.0
861.0
866.0
871.0
873.0
878.0
883.0
885.0
891.0
894.0
900.0
905.0
907.0
907.0
905.0
903.0
904.0
903.0
905.0
904.0
910.0
911.0
912.0
909.0
910.0
910.0
909.0
906.0
908.0
908.0
909.0
909.0
910.0
912.0
914.0
917.0
911.0
917.0
913.0
911.0
911.0
909.0
911.0
914.0
915.0
919.0
920.0
920.0
920.0
922.0
923.0
922.0
921.0
922.0
923.0
924.0
925.0
928.0
931.0
929.0
929.0
931.0
930.0
928.0
928.0
927.0
924.0
922.0
925.0
924.0
925.0
924.0
923.0
923.0
921.0
918.0
920.0
918.0
916.0
919.0
917.0
917.0
913.0
911.0
910.0
911.0
909.0
906.0
904.0
905.0
905.0
905.0
905.0
907.0
908.0
909.0
908.0
908.0
906.0
904.0
902.0
899.0
901.0
902.0
904.0
904.0
905.0
907.0
907.0
908.0
904.0
903.0
905.0
906.0
907.0
908.0
909.0
908.0
911.0
912.0
911.0
913.0
915.0
911.0
910.0
910.0
912.0
912.0
914.0
914.0
916.0
916.0
916.0
913.0
914.0
915.0
916.0
916.0
916.0
918.0
919.0
916.0
917.0
914.0
912.0
911.0
908.0
907.0
906.0
906.0
904.0
904.0
902.0
899.0
897.0
891.0
888.0
892.0
904.0
929.0
966.0
1003.0
1054.0
1110.0
1168.0
1222.0
1270.0
1299.0
1315.0
1317.0
1311.0
1295.0
1267.0
1219.0
1146.0
1055.0
965.0
905.0
874.0
871.0
876.0
890.0
898.0
903.0
902.0
899.0
894.0
890.0
888.0
888.0
888.0
889.0
888.0
887.0
885.0
883.0
880.0
880.0
879.0
879.0
877.0
876.0
877.0
872.0
875.0
872.0
868.0
868.0
866.0
865.0
864.0
863.0
865.0
865.0
863.0
864.0
861.0
859.0
857.0
855.0
852.0
851.0
850.0
849.0
847.0
849.0
848.0
847.0
848.0
843.0
842.0
842.0
842.0
839.0
841.0
841.0
845.0
846.0
848.0
851.0
849.0
848.0
844.0
841.0
837.0
836.0
834.0
830.0
828.0
825.0
823.0
822.0
819.0
818.0
814.0
810.0
807.0
802.0
799.0
794.0
790.0
788.0
785.0
783.0
783.0
780.0
781.0
783.0
783.0
786.0
787.0
790.0
798.0
801.0
807.0
815.0
818.0
821.0
825.0
831.0
836.0
840.0
845.0
847.0
854.0
858.0
862.0
867.0
870.0
874.0
876.0
874.0
874.0
875.0
876.0
880.0
883.0
887.0
888.0
892.0
895.0
900.0
901.0
901.0
901.0
902.0
904.0
904.0
906.0
907.0
907.0
909.0
909.0
910.0
907.0
908.0
906.0
903.0
903.0
903.0
905.0
904.0
906.0
906.0
906.0
904.0
903.0
900.0
896.0
897.0
897.0
896.0
899.0
899.0
902.0
899.0
897.0
896.0
895.0
894.0
892.0
893.0
892.0
896.0
897.0
898.0
900.0
900.0
899.0
899.0
898.0
895.0
892.0
892.0
891.0
892.0
894.0
893.0
896.0
897.0
898.0
901.0
898.0
898.0
898.0
898.0
898.0
899.0
899.0
900.0
899.0
899.0
900.0
897.0
896.0
895.0
893.0
894.0
892.0
894.0
895.0
896.0
898.0
898.0
895.0
894.0
893.0
888.0
888.0
889.0
891.0
890.0
893.0
893.0
893.0
892.0
890.0
890.0
890.0
888.0
886.0
885.0
886.0
887.0
889.0
892.0
893.0
894.0
896.0
894.0
892.0
888.0
886.0
884.0
883.0
881.0
883.0
884.0
885.0
885.0
885.0
884.0
884.0
887.0
888.0
891.0
896.0
899.0
901.0
902.0
906.0
908.0
909.0
909.0
906.0
905.0
905.0
906.0
907.0
907.0
908.0
907.0
907.0
908.0
906.0
901.0
895.0
888.0
881.0
882.0
886.0
902.0
928.0
961.0
998.0
1042.0
1089.0
1144.0
1197.0
1245.0
1283.0
1307.0
1320.0
1315.0
1304.0
1281.0
1237.0
1169.0
1076.0
975.0
892.0
844.0
829.0
837.0
853.0
865.0
874.0
879.0
875.0
873.0
865.0
861.0
857.0
856.0
855.0
855.0
855.0
855.0
855.0
856.0
859.0
860.0
858.0
862.0
862.0
860.0
859.0
857.0
856.0
857.0
860.0
861.0
861.0
863.0
861.0
859.0
858.0
857.0
855.0
851.0
852.0
854.0
851.0
850.0
852.0
852.0
849.0
849.0
847.0
842.0
841.0
840.0
839.0
835.0
835.0
832.0
832.0
832.0
828.0
824.0
825.0
823.0
821.0
819.0
821.0
818.0
818.0
818.0
819.0
819.0
815.0
815.0
811.0
809.0
805.0
804.0
802.0
799.0
800.0
800.0
799.0
799.0
797.0
792.0
790.0
787.0
782.0
781.0
778.0
777.0
778.0
779.0
775.0
778.0
777.0
779.0
776.0
776.0
780.0
780.0
784.0
788.0
796.0
801.0
807.0
815.0
818.0
823.0
829.0
832.0
838.0
841.0
844.0
850.0
855.0
860.0
862.0
864.0
862.0
866.0
866.0
865.0
866.0
866.0
870.0
871.0
875.0
876.0
879.0
883.0
885.0
884.0
884.0
887.0
885.0
885.0
887.0
888.0
890.0
892.0
894.0
896.0
896.0
894.0
895.0
894.0
894.0
890.0
891.0
892.0
895.0
894.0
896.0
897.0
897.0
897.0
896.0
894.0
896.0
894.0
894.0
896.0
894.0
893.0
897.0
898.0
898.0
896.0
894.0
893.0
889.0
887.0
888.0
885.0
886.0
883.0
883.0
881.0
879.0
880.0
878.0
877.0
872.0
874.0
874.0
876.0
873.0
877.0
879.0
881.0
883.0
884.0
885.0
884.0
883.0
882.0
884.0
886.0
888.0
890.0
892.0
893.0
892.0
893.0
894.0
892.0
892.0
889.0
891.0
889.0
894.0
892.0
896.0
895.0
896.0
894.0
895.0
891.0
890.0
888.0
888.0
888.0
889.0
887.0
888.0
890.0
888.0
887.0
885.0
883.0
884.0
882.0
879.0
881.0
884.0
887.0
889.0
889.0
888.0
886.0
881.0
881.0
879.0
881.0
881.0
883.0
886.0
885.0
886.0
887.0
889.0
886.0
887.0
887.0
887.0
886.0
886.0
886.0
889.0
890.0
893.0
891.0
893.0
892.0
888.0
885.0
880.0
874.0
875.0
876.0
895.0
924.0
965.0
1011.0
1062.0
1118.0
1177.0
1233.0
1274.0
1305.0
1321.0
1318.0
1307.0
1284.0
1231.0
1155.0
1054.0
949.0
867.0
828.0
821.0
832.0
854.0
873.0
885.0
887.0
887.0
879.0
874.0
870.0
868.0
867.0
867.0
865.0
865.0
862.0
865.0
862.0
862.0
860.0
863.0
864.0
862.0
859.0
855.0
855.0
854.0
855.0
856.0
859.0
860.0
865.0
863.0
861.0
861.0
855.0
849.0
851.0
851.0
852.0
848.0
849.0
849.0
849.0
846.0
843.0
842.0
838.0
835.0
834.0
831.0
832.0
831.0
830.0
829.0
828.0
828.0
827.0
821.0
822.0
821.0
820.0
821.0
823.0
824.0
823.0
821.0
819.0
813.0
810.0
805.0
804.0
799.0
797.0
793.0
789.0
789.0
786.0
786.0
786.0
781.0
780.0
774.0
772.0
767.0
764.0
765.0
766.0
768.0
771.0
774.0
778.0
778.0
782.0
784.0
787.0
793.0
798.0
804.0
811.0
817.0
823.0
829.0
836.0
841.0
845.0
850.0
853.0
855.0
859.0
864.0
864.0
866.0
868.0
872.0
875.0
877.0
879.0
880.0
882.0
883.0
881.0
884.0
884.0
887.0
885.0
885.0
889.0
888.0
886.0
887.0
886.0
885.0
883.0
882.0
883.0
883.0
884.0
885.0
886.0
882.0
884.0
883.0
884.0
884.0
882.0
884.0
884.0
882.0
886.0
887.0
888.0
887.0
887.0
886.0
887.0
883.0
884.0
883.0
885.0
886.0
888.0
887.0
890.0
891.0
895.0
892.0
894.0
891.0
892.0
893.0
893.0
894.0
895.0
895.0
896.0
893.0
893.0
894.0
894.0
892.0
891.0
893.0
894.0
896.0
896.0
897.0
898.0
895.0
895.0
891.0
891.0
889.0
888.0
889.0
888.0
893.0
893.0
893.0
896.0
894.0
892.0
892.0
890.0
888.0
888.0
886.0
887.0
886.0
886.0
886.0
890.0
889.0
890.0
888.0
888.0
887.0
887.0
889.0
888.0
892.0
892.0
895.0
897.0
900.0
899.0
898.0
899.0
899.0
899.0
899.0
901.0
900.0
899.0
899.0
899.0
895.0
893.0
887.0
881.0
887.0
902.0
932.0
979.0
1035.0
1096.0
1162.0
1234.0
1287.0
1322.0
1335.0
1329.0
1304.0
1257.0
1180.0
1073.0
967.0
883.0
843.0
833.0
845.0
861.0
877.0
887.0
885.0
880.0
873.0
869.0
870.0
872.0
873.0
875.0
873.0
874.0
869.0
866.0
861.0
860.0
862.0
864.0
863.0
864.0
866.0
869.0
869.0
869.0
865.0
863.0
862.0
860.0
858.0
859.0
859.0
861.0
859.0
860.0
862.0
858.0
856.0
854.0
851.0
850.0
849.0
848.0
848.0
846.0
846.0
847.0
843.0
843.0
840.0
839.0
837.0
833.0
835.0
834.0
833.0
831.0
832.0
831.0
829.0
825.0
821.0
817.0
814.0
810.0
807.0
802.0
805.0
803.0
803.0
803.0
806.0
804.0
804.0
800.0
797.0
795.0
793.0
791.0
792.0
792.0
791.0
793.0
793.0
794.0
793.0
792.0
796.0
798.0
805.0
812.0
819.0
826.0
834.0
839.0
846.0
848.0
853.0
854.0
855.0
857.0
863.0
866.0
866.0
870.0
871.0
872.0
873.0
873.0
874.0
876.0
876.0
878.0
879.0
877.0
881.0
880.0
882.0
885.0
882.0
881.0
882.0
881.0
878.0
881.0
882.0
882.0
887.0
888.0
892.0
893.0
894.0
898.0
894.0
891.0
890.0
894.0
896.0
897.0
899.0
898.0
901.0
903.0
905.0
906.0
904.0
902.0
899.0
901.0
898.0
897.0
899.0
897.0
896.0
896.0
896.0
897.0
894.0
894.0
893.0
891.0
892.0
890.0
890.0
892.0
893.0
892.0
891.0
892.0
892.0
891.0
891.0
889.0
887.0
888.0
890.0
891.0
891.0
892.0
892.0
891.0
893.0
893.0
892.0
891.0
893.0
893.0
895.0
896.0
897.0
898.0
897.0
897.0
892.0
893.0
894.0
893.0
893.0
893.0
898.0
899.0
898.0
903.0
901.0
898.0
896.0
893.0
892.0
891.0
894.0
895.0
897.0
897.0
895.0
894.0
895.0
897.0
895.0
894.0
895.0
893.0
894.0
895.0
896.0
896.0
897.0
901.0
901.0
903.0
904.0
902.0
904.0
902.0
902.0
903.0
900.0
898.0
896.0
891.0
885.0
887.0
899.0
921.0
954.0
998.0
1051.0
1113.0
1173.0
1234.0
1280.0
1313.0
1326.0
1322.0
1307.0
1280.0
1231.0
1151.0
1052.0
950.0
874.0
839.0
832.0
840.0
857.0
868.0
875.0
875.0
871.0
866.0
861.0
858.0
862.0
862.0
865.0
867.0
863.0
861.0
859.0
856.0
852.0
852.0
848.0
849.0
853.0
856.0
858.0
859.0
860.0
863.0
863.0
864.0
862.0
862.0
860.0
859.0
859.0
858.0
859.0
860.0
860.0
857.0
855.0
852.0
849.0
846.0
845.0
843.0
845.0
841.0
841.0
844.0
844.0
842.0
839.0
838.0
837.0
833.0
833.0
831.0
829.0
832.0
831.0
832.0
830.0
829.0
826.0
822.0
817.0
817.0
816.0
813.0
812.0
812.0
810.0
809.0
808.0
805.0
801.0
797.0
792.0
790.0
786.0
783.0
782.0
783.0
781.0
782.0
782.0
781.0
782.0
783.0
788.0
790.0
794.0
799.0
804.0
811.0
817.0
823.0
828.0
831.0
835.0
839.0
841.0
845.0
849.0
853.0
856.0
860.0
864.0
865.0
868.0
868.0
871.0
873.0
871.0
869.0
872.0
874.0
876.0
877.0
879.0
882.0
882.0
882.0
881.0
879.0
881.0
881.0
880.0
881.0
888.0
889.0
892.0
896.0
898.0
898.0
897.0
898.0
895.0
894.0
896.0
894.0
896.0
898.0
899.0
898.0
899.0
899.0
899.0
897.0
895.0
898.0
898.0
895.0
895.0
892.0
892.0
890.0
888.0
886.0
887.0
885.0
886.0
886.0
888.0
885.0
887.0
890.0
888.0
885.0
889.0
886.0
886.0
884.0
884.0
884.0
882.0
883.0
882.0
884.0
886.0
886.0
887.0
887.0
884.0
883.0
880.0
880.0
879.0
879.0
877.0
881.0
883.0
884.0
886.0
885.0
887.0
886.0
884.0
884.0
887.0
886.0
887.0
889.0
892.0
895.0
896.0
896.0
895.0
894.0
892.0
893.0
893.0
894.0
893.0
896.0
895.0
897.0
897.0
896.0
897.0
893.0
892.0
889.0
887.0
884.0
885.0
886.0
885.0
888.0
886.0
884.0
884.0
883.0
881.0
876.0
876.0
873.0
875.0
877.0
879.0
877.0
878.0
879.0
880.0
876.0
874.0
873.0
872.0
872.0
873.0
875.0
876.0
880.0
881.0
884.0
884.0
885.0
886.0
885.0
885.0
883.0
885.0
888.0
889.0
890.0
891.0
892.0
893.0
891.0
890.0
892.0
892.0
893.0
893.0
895.0
896.0
897.0
896.0
899.0
898.0
896.0
895.0
893.0
894.0
892.0
893.0
893.0
894.0
892.0
893.0
893.0
890.0
889.0
886.0
884.0
884.0
880.0
881.0
877.0
875.0
874.0
872.0
871.0
882.0
904.0
940.0
986.0
1043.0
1108.0
1177.0
1240.0
1289.0
1323.0
1335.0
1330.0
1310.0
1273.0
1208.0
1115.0
1007.0
912.0
856.0
839.0
841.0
861.0
874.0
886.0
889.0
886.0
880.0
873.0
868.0
865.0
865.0
865.0
866.0
868.0
868.0
868.0
867.0
865.0
864.0
862.0
863.0
863.0
861.0
861.0
858.0
858.0
857.0
854.0
852.0
852.0
853.0
848.0
849.0
849.0
847.0
851.0
850.0
850.0
848.0
846.0
842.0
839.0
834.0
830.0
827.0
828.0
828.0
833.0
835.0
834.0
836.0
836.0
836.0
833.0
832.0
831.0
832.0
828.0
831.0
831.0
831.0
833.0
833.0
831.0
829.0
827.0
824.0
821.0
820.0
814.0
815.0
813.0
810.0
808.0
805.0
801.0
798.0
793.0
791.0
786.0
784.0
781.0
778.0
776.0
775.0
774.0
767.0
763.0
758.0
759.0
757.0
754.0
756.0
758.0
762.0
765.0
770.0
774.0
781.0
785.0
789.0
792.0
797.0
802.0
807.0
812.0
820.0
827.0
834.0
839.0
843.0
847.0
850.0
852.0
856.0
854.0
858.0
860.0
864.0
869.0
874.0
878.0
882.0
885.0
889.0
890.0
891.0
892.0
892.0
892.0
894.0
895.0
895.0
899.0
899.0
897.0
899.0
898.0
895.0
897.0
896.0
896.0
896.0
899.0
899.0
899.0
899.0
898.0
896.0
893.0
891.0
889.0
885.0
883.0
884.0
882.0
885.0
883.0
884.0
884.0
884.0
883.0
885.0
882.0
883.0
881.0
883.0
882.0
882.0
883.0
881.0
882.0
879.0
878.0
875.0
874.0
872.0
872.0
871.0
873.0
875.0
877.0
879.0
884.0
887.0
892.0
891.0
890.0
893.0
896.0
897.0
900.0
898.0
900.0
902.0
901.0
902.0
898.0
899.0
898.0
897.0
899.0
899.0
901.0
902.0
902.0
903.0
902.0
898.0
898.0
894.0
891.0
892.0
893.0
892.0
892.0
892.0
891.0
888.0
883.0
878.0
873.0
872.0
872.0
871.0
871.0
870.0
869.0
870.0
874.0
873.0
870.0
871.0
870.0
871.0
870.0
871.0
872.0
873.0
876.0
878.0
884.0
885.0
884.0
886.0
889.0
890.0
890.0
891.0
893.0
894.0
897.0
897.0
899.0
897.0
897.0
897.0
896.0
894.0
894.0
894.0
892.0
895.0
899.0
897.0
899.0
894.0
893.0
892.0
895.0
892.0
888.0
889.0
890.0
890.0
893.0
893.0
893.0
893.0
889.0
887.0
886.0
883.0
879.0
876.0
876.0
874.0
874.0
876.0
876.0
877.0
876.0
874.0
873.0
872.0
877.0
880.0
881.0
882.0
888.0
886.0
890.0
892.0
894.0
894.0
893.0
893.0
893.0
892.0
892.0
893.0
891.0
887.0
885.0
880.0
883.0
895.0
919.0
953.0
997.0
1051.0
1112.0
1178.0
1242.0
1292.0
1325.0
1337.0
1336.0
1322.0
1294.0
1247.0
1169.0
1069.0
968.0
891.0
852.0
843.0
853.0
874.0
887.0
894.0
894.0
889.0
881.0
875.0
871.0
869.0
872.0
873.0
875.0
873.0
870.0
865.0
860.0
856.0
852.0
851.0
847.0
847.0
847.0
847.0
849.0
850.0
850.0
849.0
850.0
851.0
847.0
851.0
851.0
854.0
854.0
851.0
854.0
854.0
853.0
851.0
849.0
849.0
846.0
846.0
846.0
847.0
846.0
851.0
852.0
850.0
848.0
848.0
848.0
845.0
846.0
847.0
845.0
845.0
841.0
844.0
844.0
844.0
843.0
840.0
838.0
834.0
832.0
830.0
826.0
824.0
824.0
821.0
819.0
817.0
816.0
813.0
810.0
803.0
799.0
794.0
792.0
788.0
786.0
784.0
783.0
779.0
777.0
774.0
771.0
764.0
764.0
760.0
764.0
765.0
767.0
770.0
775.0
781.0
785.0
791.0
797.0
803.0
809.0
820.0
827.0
836.0
842.0
850.0
857.0
862.0
866.0
872.0
876.0
879.0
880.0
883.0
887.0
891.0
892.0
894.0
895.0
896.0
898.0
897.0
889.0
887.0
888.0
885.0
884.0
883.0
882.0
883.0
882.0
885.0
883.0
879.0
879.0
879.0
880.0
879.0
878.0
879.0
881.0
883.0
885.0
883.0
883.0
883.0
880.0
880.0
880.0
883.0
884.0
885.0
890.0
894.0
893.0
893.0
895.0
895.0
896.0
896.0
898.0
899.0
902.0
904.0
907.0
909.0
914.0
912.0
913.0
913.0
912.0
912.0
911.0
911.0
910.0
912.0
912.0
912.0
914.0
914.0
912.0
911.0
909.0
906.0
905.0
900.0
901.0
902.0
901.0
899.0
898.0
898.0
895.0
893.0
890.0
890.0
894.0
893.0
891.0
891.0
893.0
893.0
896.0
897.0
896.0
897.0
894.0
893.0
891.0
892.0
890.0
890.0
891.0
894.0
892.0
892.0
892.0
891.0
893.0
887.0
889.0
890.0
891.0
895.0
897.0
901.0
903.0
905.0
904.0
904.0
904.0
903.0
903.0
903.0
905.0
904.0
905.0
906.0
907.0
905.0
907.0
903.0
904.0
903.0
900.0
899.0
899.0
902.0
902.0
903.0
903.0
904.0
904.0
901.0
900.0
899.0
895.0
895.0
896.0
897.0
895.0
898.0
900.0
900.0
900.0
898.0
896.0
893.0
894.0
891.0
895.0
894.0
895.0
896.0
897.0
898.0
897.0
899.0
896.0
895.0
894.0
897.0
896.0
894.0
891.0
888.0
886.0
887.0
893.0
913.0
940.0
981.0
1031.0
1087.0
1151.0
1212.0
1269.0
1313.0
1341.0
1347.0
1340.0
1319.0
1282.0
1218.0
1127.0
1023.0
934.0
874.0
856.0
858.0
873.0
893.0
903.0
905.0
902.0
893.0
885.0
879.0
876.0
877.0
877.0
880.0
879.0
878.0
876.0
873.0
871.0
869.0
867.0
864.0
861.0
863.0
863.0
864.0
865.0
863.0
861.0
858.0
858.0
854.0
854.0
852.0
851.0
853.0
854.0
852.0
851.0
854.0
852.0
850.0
847.0
846.0
843.0
841.0
841.0
841.0
843.0
842.0
846.0
847.0
848.0
851.0
850.0
850.0
852.0
851.0
854.0
854.0
856.0
852.0
850.0
851.0
851.0
847.0
844.0
842.0
837.0
833.0
827.0
825.0
823.0
822.0
820.0
817.0
810.0
808.0
804.0
797.0
796.0
791.0
789.0
787.0
789.0
788.0
788.0
785.0
782.0
782.0
781.0
780.0
780.0
781.0
784.0
789.0
793.0
798.0
806.0
811.0
819.0
824.0
830.0
833.0
838.0
842.0
848.0
853.0
857.0
860.0
866.0
870.0
873.0
875.0
877.0
879.0
884.0
885.0
889.0
894.0
894.0
899.0
901.0
906.0
906.0
907.0
905.0
906.0
902.0
902.0
901.0
903.0
903.0
900.0
901.0
899.0
899.0
899.0
896.0
898.0
897.0
892.0
890.0
887.0
889.0
888.0
891.0
891.0
890.0
889.0
887.0
887.0
884.0
884.0
886.0
886.0
888.0
890.0
891.0
891.0
892.0
890.0
891.0
889.0
890.0
891.0
894.0
895.0
896.0
898.0
899.0
902.0
902.0
901.0
902.0
901.0
902.0
903.0
906.0
906.0
906.0
906.0
913.0
911.0
910.0
908.0
905.0
901.0
900.0
899.0
899.0
899.0
901.0
898.0
898.0
898.0
899.0
897.0
894.0
891.0
891.0
889.0
889.0
888.0
890.0
890.0
893.0
895.0
893.0
892.0
891.0
891.0
890.0
888.0
892.0
891.0
892.0
895.0
897.0
900.0
900.0
901.0
897.0
898.0
898.0
896.0
899.0
900.0
903.0
905.0
908.0
909.0
906.0
903.0
896.0
892.0
891.0
897.0
915.0
942.0
984.0
1034.0
1092.0
1156.0
1219.0
1275.0
1314.0
1334.0
1341.0
1330.0
1302.0
1251.0
1171.0
1069.0
968.0
895.0
853.0
843.0
851.0
863.0
876.0
883.0
883.0
878.0
877.0
870.0
871.0
870.0
872.0
873.0
871.0
872.0
870.0
868.0
868.0
867.0
867.0
869.0
870.0
872.0
871.0
872.0
870.0
867.0
868.0
865.0
864.0
865.0
868.0
867.0
868.0
866.0
864.0
864.0
862.0
860.0
857.0
854.0
854.0
853.0
855.0
856.0
855.0
858.0
854.0
852.0
850.0
847.0
845.0
842.0
842.0
842.0
840.0
840.0
840.0
840.0
837.0
836.0
834.0
831.0
827.0
822.0
822.0
822.0
820.0
821.0
818.0
815.0
812.0
813.0
808.0
804.0
798.0
797.0
794.0
790.0
793.0
792.0
793.0
792.0
794.0
796.0
793.0
792.0
791.0
794.0
798.0
802.0
809.0
815.0
821.0
829.0
832.0
836.0
841.0
843.0
850.0
855.0
859.0
867.0
871.0
875.0
877.0
881.0
883.0
886.0
883.0
885.0
886.0
886.0
882.0
885.0
887.0
891.0
892.0
895.0
894.0
894.0
890.0
887.0
885.0
884.0
885.0
886.0
889.0
892.0
896.0
896.0
898.0
897.0
894.0
894.0
894.0
893.0
895.0
894.0
896.0
896.0
899.0
897.0
897.0
892.0
890.0
890.0
891.0
887.0
888.0
891.0
892.0
894.0
897.0
898.0
898.0
897.0
896.0
896.0
895.0
894.0
897.0
896.0
895.0
893.0
895.0
899.0
896.0
897.0
897.0
894.0
894.0
890.0
