# Simple Text Format
# Sampling Rate (Hz):= 360.00
# Resolution:= 12
# Labels:= ECG
917.0
914.0
908.0
901.0
899.0
896.0
895.0
896.0
898.0
899.0
899.0
898.0
896.0
896.0
895.0
893.0
896.0
896.0
897.0
897.0
899.0
899.0
899.0
898.0
898.0
897.0
897.0
897.0
896.0
898.0
899.0
897.0
902.0
902.0
900.0
897.0
895.0
892.0
892.0
891.0
891.0
889.0
887.0
888.0
888.0
887.0
883.0
883.0
883.0
878.0
875.0
874.0
870.0
869.0
867.0
864.0
861.0
859.0
857.0
852.0
848.0
846.0
842.0
841.0
839.0
839.0
836.0
835.0
832.0
830.0
828.0
823.0
819.0
815.0
811.0
809.0
806.0
807.0
807.0
805.0
803.0
805.0
803.0
802.0
803.0
803.0
805.0
803.0
807.0
811.0
816.0
822.0
827.0
837.0
841.0
848.0
853.0
859.0
862.0
864.0
871.0
877.0
885.0
889.0
895.0
900.0
902.0
904.0
905.0
907.0
908.0
912.0
912.0
912.0
914.0
917.0
918.0
916.0
919.0
918.0
919.0
921.0
919.0
918.0
918.0
920.0
920.0
920.0
924.0
924.0
922.0
920.0
920.0
918.0
917.0
915.0
916.0
921.0
922.0
924.0
924.0
926.0
925.0
925.0
928.0
925.0
926.0
927.0
926.0
927.0
930.0
930.0
929.0
932.0
933.0
933.0
934.0
933.0
934.0
932.0
934.0
933.0
934.0
934.0
934.0
932.0
933.0
930.0
930.0
926.0
922.0
920.0
922.0
925.0
927.0
926.0
929.0
929.0
928.0
926.0
922.0
922.0
920.0
918.0
916.0
918.0
918.0
919.0
921.0
922.0
920.0
919.0
918.0
918.0
918.0
914.0
918.0
919.0
919.0
921.0
923.0
925.0
925.0
928.0
925.0
926.0
925.0
925.0
924.0
921.0
925.0
928.0
931.0
931.0
930.0
929.0
927.0
926.0
922.0
920.0
919.0
922.0
923.0
922.0
926.0
926.0
924.0
922.0
919.0
917.0
912.0
911.0
909.0
914.0
913.0
915.0
917.0
920.0
919.0
921.0
919.0
919.0
918.0
916.0
918.0
917.0
921.0
920.0
923.0
926.0
927.0
926.0
925.0
924.0
923.0
920.0
920.0
922.0
924.0
926.0
926.0
927.0
927.0
927.0
924.0
926.0
924.0
923.0
928.0
927.0
930.0
931.0
932.0
932.0
932.0
935.0
931.0
928.0
928.0
928.0
928.0
925.0
928.0
928.0
931.0
929.0
927.0
926.0
924.0
924.0
918.0
919.0
920.0
918.0
923.0
923.0
923.0
926.0
923.0
919.0
915.0
912.0
914.0
928.0
951.0
984.0
1028.0
1078.0
1136.0
1195.0
1249.0
1296.0
1325.0
1338.0
1339.0
1323.0
1294.0
1243.0
1164.0
1070.0
979.0
912.0
885.0
879.0
889.0
902.0
914.0
920.0
921.0
914.0
909.0
908.0
905.0
906.0
904.0
902.0
899.0
896.0
894.0
892.0
889.0
891.0
893.0
892.0
895.0
896.0
895.0
895.0
893.0
891.0
890.0
889.0
887.0
886.0
888.0
888.0
888.0
887.0
884.0
883.0
882.0
879.0
879.0
877.0
875.0
874.0
876.0
876.0
875.0
875.0
874.0
871.0
869.0
867.0
862.0
861.0
859.0
858.0
858.0
855.0
856.0
855.0
852.0
853.0
848.0
844.0
839.0
838.0
833.0
832.0
829.0
828.0
828.0
826.0
823.0
821.0
818.0
815.0
813.0
811.0
808.0
806.0
804.0
804.0
807.0
803.0
802.0
801.0
799.0
797.0
795.0
796.0
797.0
798.0
802.0
809.0
815.0
820.0
827.0
830.0
838.0
844.0
848.0
852.0
858.0
864.0
869.0
872.0
878.0
882.0
886.0
891.0
893.0
896.0
898.0
897.0
902.0
904.0
906.0
908.0
913.0
911.0
911.0
911.0
910.0
910.0
907.0
909.0
908.0
909.0
911.0
913.0
916.0
919.0
919.0
921.0
922.0
920.0
920.0
918.0
917.0
918.0
919.0
921.0
919.0
923.0
926.0
925.0
924.0
922.0
923.0
924.0
924.0
923.0
926.0
926.0
928.0
929.0
928.0
927.0
927.0
926.0
923.0
923.0
921.0
924.0
922.0
922.0
924.0
924.0
926.0
927.0
926.0
924.0
925.0
926.0
926.0
926.0
930.0
931.0
932.0
932.0
932.0
933.0
931.0
930.0
929.0
930.0
931.0
935.0
936.0
938.0
938.0
939.0
936.0
935.0
935.0
932.0
927.0
926.0
927.0
926.0
929.0
929.0
930.0
935.0
930.0
930.0
927.0
926.0
923.0
922.0
921.0
921.0
922.0
923.0
925.0
923.0
924.0
924.0
923.0
920.0
921.0
920.0
918.0
918.0
919.0
920.0
922.0
922.0
922.0
923.0
923.0
922.0
927.0
926.0
927.0
927.0
930.0
929.0
932.0
932.0
934.0
932.0
929.0
929.0
931.0
931.0
932.0
933.0
934.0
933.0
935.0
937.0
935.0
934.0
935.0
934.0
929.0
931.0
931.0
931.0
930.0
932.0
933.0
929.0
930.0
927.0
926.0
923.0
921.0
925.0
925.0
926.0
926.0
926.0
927.0
929.0
930.0
932.0
931.0
931.0
933.0
934.0
935.0
935.0
939.0
938.0
939.0
941.0
943.0
940.0
941.0
939.0
938.0
939.0
940.0
941.0
944.0
944.0
946.0
945.0
944.0
941.0
935.0
930.0
923.0
922.0
928.0
941.0
967.0
1003.0
1045.0
1099.0
1151.0
1207.0
1259.0
1300.0
1326.0
1336.0
1335.0
1324.0
1301.0
1261.0
1198.0
1114.0
1023.0
949.0
906.0
891.0
892.0
902.0
913.0
920.0
925.0
921.0
919.0
917.0
913.0
913.0
913.0
911.0
912.0
914.0
914.0
909.0
910.0
908.0
909.0
910.0
908.0
907.0
907.0
903.0
901.0
901.0
901.0
901.0
902.0
901.0
904.0
905.0
903.0
900.0
898.0
895.0
892.0
891.0
888.0
891.0
891.0
888.0
888.0
887.0
886.0
881.0
878.0
876.0
876.0
873.0
874.0
875.0
872.0
871.0
871.0
870.0
868.0
870.0
865.0
864.0
860.0
858.0
856.0
854.0
855.0
855.0
856.0
855.0
853.0
850.0
847.0
846.0
840.0
839.0
838.0
837.0
835.0
833.0
831.0
832.0
827.0
829.0
825.0
824.0
824.0
822.0
822.0
819.0
820.0
819.0
820.0
819.0
821.0
823.0
824.0
824.0
825.0
831.0
833.0
839.0
844.0
853.0
859.0
866.0
869.0
872.0
876.0
883.0
886.0
892.0
895.0
901.0
906.0
909.0
912.0
916.0
916.0
917.0
916.0
915.0
916.0
916.0
919.0
921.0
922.0
924.0
926.0
924.0
924.0
923.0
922.0
922.0
920.0
921.0
921.0
925.0
925.0
925.0
926.0
927.0
932.0
931.0
930.0
930.0
932.0
931.0
932.0
931.0
933.0
934.0
934.0
937.0
935.0
935.0
935.0
933.0
931.0
932.0
931.0
933.0
935.0
937.0
939.0
940.0
940.0
941.0
941.0
942.0
941.0
939.0
941.0
944.0
944.0
943.0
943.0
947.0
947.0
945.0
944.0
942.0
940.0
939.0
936.0
938.0
941.0
943.0
945.0
946.0
946.0
946.0
943.0
939.0
937.0
935.0
931.0
928.0
930.0
938.0
958.0
988.0
1023.0
1066.0
1114.0
1163.0
1216.0
1263.0
1302.0
1323.0
1337.0
1337.0
1328.0
1307.0
1272.0
1211.0
1124.0
1037.0
963.0
922.0
906.0
908.0
915.0
925.0
932.0
935.0
935.0
931.0
923.0
919.0
916.0
913.0
916.0
914.0
914.0
913.0
910.0
913.0
910.0
911.0
908.0
905.0
899.0
898.0
899.0
898.0
896.0
897.0
896.0
898.0
898.0
898.0
898.0
897.0
894.0
890.0
890.0
887.0
887.0
889.0
891.0
891.0
892.0
893.0
890.0
889.0
888.0
885.0
882.0
882.0
883.0
882.0
880.0
881.0
878.0
878.0
875.0
873.0
871.0
867.0
869.0
866.0
866.0
866.0
868.0
865.0
864.0
862.0
861.0
857.0
855.0
850.0
850.0
848.0
847.0
844.0
845.0
844.0
841.0
837.0
834.0
832.0
831.0
829.0
828.0
828.0
830.0
834.0
838.0
842.0
845.0
849.0
850.0
857.0
860.0
866.0
871.0
878.0
884.0
890.0
897.0
900.0
905.0
904.0
907.0
908.0
910.0
910.0
912.0
911.0
915.0
914.0
916.0
918.0
917.0
920.0
919.0
918.0
915.0
914.0
917.0
919.0
923.0
924.0
926.0
929.0
928.0
929.0
927.0
926.0
926.0
923.0
924.0
924.0
926.0
929.0
929.0
930.0
928.0
926.0
923.0
921.0
917.0
917.0
917.0
916.0
917.0
917.0
917.0
920.0
918.0
916.0
913.0
912.0
913.0
910.0
911.0
911.0
909.0
911.0
914.0
910.0
910.0
916.0
915.0
917.0
917.0
916.0
916.0
915.0
920.0
920.0
922.0
921.0
921.0
923.0
920.0
922.0
918.0
917.0
916.0
916.0
918.0
922.0
924.0
925.0
922.0
923.0
920.0
916.0
916.0
915.0
915.0
916.0
917.0
917.0
920.0
919.0
915.0
915.0
913.0
914.0
912.0
912.0
910.0
909.0
910.0
913.0
913.0
914.0
913.0
912.0
914.0
913.0
912.0
908.0
911.0
910.0
912.0
912.0
913.0
914.0
915.0
916.0
914.0
913.0
911.0
912.0
910.0
911.0
913.0
920.0
918.0
920.0
920.0
919.0
916.0
916.0
913.0
912.0
912.0
913.0
913.0
916.0
918.0
917.0
915.0
916.0
911.0
910.0
906.0
906.0
906.0
905.0
905.0
905.0
906.0
910.0
908.0
906.0
907.0
901.0
903.0
902.0
903.0
903.0
906.0
909.0
911.0
914.0
917.0
920.0
921.0
919.0
919.0
919.0
920.0
921.0
921.0
922.0
921.0
917.0
917.0
924.0
943.0
968.0
1005.0
1053.0
1106.0
1161.0
1218.0
1265.0
1298.0
1317.0
1314.0
1303.0
1279.0
1233.0
1164.0
1076.0
989.0
925.0
893.0
883.0
888.0
898.0
906.0
908.0
907.0
901.0
897.0
890.0
887.0
887.0
888.0
889.0
890.0
889.0
887.0
885.0
881.0
877.0
877.0
875.0
872.0
874.0
875.0
875.0
874.0
877.0
875.0
876.0
875.0
873.0
872.0
870.0
866.0
869.0
871.0
873.0
869.0
871.0
868.0
867.0
865.0
861.0
857.0
856.0
855.0
853.0
853.0
853.0
851.0
850.0
846.0
842.0
839.0
836.0
831.0
828.0
825.0
826.0
824.0
824.0
824.0
825.0
822.0
821.0
816.0
814.0
811.0
807.0
807.0
803.0
803.0
801.0
799.0
800.0
795.0
793.0
790.0
790.0
786.0
783.0
781.0
783.0
783.0
786.0
789.0
792.0
798.0
799.0
803.0
807.0
813.0
818.0
824.0
831.0
841.0
844.0
852.0
858.0
862.0
865.0
871.0
875.0
878.0
877.0
882.0
886.0
889.0
893.0
896.0
899.0
900.0
906.0
906.0
906.0
905.0
905.0
903.0
903.0
903.0
907.0
907.0
909.0
911.0
911.0
911.0
911.0
908.0
908.0
909.0
913.0
914.0
917.0
918.0
918.0
918.0
919.0
916.0
915.0
915.0
915.0
917.0
915.0
916.0
920.0
918.0
920.0
918.0
919.0
917.0
918.0
917.0
915.0
917.0
917.0
918.0
919.0
922.0
925.0
924.0
925.0
924.0
924.0
922.0
920.0
920.0
921.0
923.0
923.0
924.0
927.0
924.0
924.0
921.0
920.0
920.0
919.0
915.0
914.0
915.0
916.0
916.0
916.0
916.0
913.0
910.0
909.0
909.0
909.0
909.0
909.0
909.0
908.0
910.0
910.0
909.0
905.0
902.0
901.0
898.0
898.0
899.0
899.0
901.0
902.0
906.0
908.0
907.0
908.0
908.0
908.0
905.0
906.0
906.0
907.0
907.0
910.0
910.0
912.0
911.0
913.0
912.0
911.0
907.0
906.0
905.0
903.0
907.0
908.0
908.0
910.0
914.0
917.0
915.0
918.0
917.0
916.0
916.0
913.0
915.0
916.0
915.0
917.0
916.0
916.0
916.0
914.0
909.0
906.0
902.0
904.0
906.0
919.0
942.0
974.0
1015.0
1065.0
1117.0
1172.0
1223.0
1263.0
1291.0
1302.0
1297.0
1284.0
1253.0
1201.0
1125.0
1035.0
955.0
898.0
874.0
874.0
884.0
899.0
909.0
912.0
910.0
907.0
901.0
897.0
894.0
892.0
890.0
888.0
888.0
886.0
885.0
884.0
883.0
884.0
885.0
885.0
882.0
882.0
881.0
881.0
879.0
878.0
879.0
877.0
877.0
877.0
873.0
874.0
873.0
869.0
870.0
866.0
865.0
862.0
865.0
865.0
866.0
867.0
865.0
864.0
863.0
860.0
859.0
858.0
857.0
857.0
856.0
855.0
855.0
854.0
856.0
851.0
851.0
845.0
845.0
843.0
841.0
839.0
840.0
840.0
841.0
839.0
837.0
834.0
830.0
825.0
821.0
815.0
815.0
814.0
812.0
812.0
813.0
812.0
809.0
807.0
803.0
799.0
794.0
793.0
791.0
791.0
793.0
794.0
795.0
800.0
801.0
807.0
812.0
817.0
821.0
827.0
833.0
842.0
850.0
856.0
866.0
869.0
872.0
875.0
876.0
881.0
879.0
884.0
887.0
888.0
892.0
895.0
900.0
901.0
902.0
900.0
900.0
900.0
899.0
896.0
897.0
898.0
898.0
899.0
899.0
901.0
901.0
900.0
901.0
897.0
896.0
893.0
892.0
892.0
891.0
892.0
897.0
897.0
899.0
901.0
901.0
901.0
898.0
897.0
899.0
901.0
901.0
902.0
903.0
903.0
907.0
908.0
908.0
910.0
905.0
906.0
909.0
908.0
910.0
912.0
917.0
917.0
913.0
912.0
912.0
912.0
911.0
910.0
911.0
910.0
911.0
913.0
915.0
915.0
916.0
913.0
915.0
911.0
908.0
909.0
907.0
906.0
906.0
908.0
907.0
909.0
908.0
907.0
903.0
901.0
899.0
899.0
898.0
897.0
897.0
899.0
898.0
899.0
897.0
896.0
895.0
893.0
893.0
892.0
895.0
896.0
898.0
901.0
903.0
903.0
903.0
904.0
902.0
896.0
899.0
896.0
896.0
895.0
900.0
900.0
902.0
903.0
904.0
903.0
904.0
905.0
907.0
906.0
907.0
908.0
909.0
912.0
912.0
915.0
912.0
914.0
913.0
911.0
910.0
909.0
910.0
909.0
910.0
909.0
912.0
913.0
911.0
911.0
907.0
908.0
902.0
900.0
894.0
894.0
900.0
915.0
939.0
971.0
1009.0
1054.0
1101.0
1153.0
1200.0
1235.0
1258.0
1270.0
1272.0
1260.0
1234.0
1190.0
1125.0
1039.0
958.0
898.0
866.0
859.0
869.0
883.0
895.0
900.0
900.0
895.0
891.0
886.0
887.0
886.0
889.0
891.0
891.0
891.0
890.0
890.0
890.0
890.0
886.0
884.0
881.0
878.0
873.0
872.0
871.0
872.0
873.0
870.0
869.0
871.0
869.0
868.0
865.0
862.0
860.0
857.0
855.0
854.0
857.0
859.0
858.0
861.0
861.0
858.0
857.0
854.0
851.0
849.0
847.0
847.0
846.0
846.0
847.0
845.0
845.0
843.0
839.0
836.0
831.0
830.0
826.0
826.0
827.0
824.0
829.0
829.0
827.0
826.0
827.0
820.0
816.0
810.0
806.0
806.0
804.0
803.0
804.0
803.0
801.0
798.0
797.0
796.0
795.0
797.0
800.0
804.0
809.0
815.0
822.0
826.0
829.0
833.0
841.0
846.0
849.0
852.0
855.0
861.0
865.0
870.0
874.0
876.0
881.0
882.0
884.0
885.0
886.0
889.0
885.0
886.0
890.0
891.0
892.0
896.0
894.0
896.0
895.0
893.0
893.0
890.0
890.0
891.0
894.0
898.0
897.0
903.0
907.0
905.0
907.0
905.0
907.0
906.0
905.0
903.0
909.0
910.0
911.0
914.0
912.0
914.0
909.0
904.0
902.0
901.0
904.0
902.0
904.0
904.0
906.0
907.0
908.0
907.0
907.0
906.0
905.0
903.0
900.0
904.0
907.0
907.0
907.0
908.0
909.0
909.0
908.0
905.0
905.0
903.0
904.0
904.0
904.0
905.0
908.0
909.0
908.0
909.0
909.0
907.0
905.0
903.0
903.0
902.0
906.0
907.0
907.0
909.0
909.0
910.0
910.0
910.0
911.0
908.0
906.0
909.0
908.0
910.0
914.0
915.0
916.0
920.0
917.0
916.0
915.0
912.0
914.0
912.0
914.0
914.0
916.0
918.0
915.0
917.0
915.0
915.0
915.0
912.0
912.0
913.0
913.0
916.0
915.0
915.0
915.0
914.0
913.0
910.0
910.0
907.0
911.0
910.0
909.0
911.0
912.0
915.0
917.0
916.0
914.0
914.0
913.0
913.0
912.0
913.0
917.0
915.0
916.0
920.0
924.0
923.0
923.0
919.0
913.0
917.0
925.0
938.0
964.0
995.0
1036.0
1078.0
1124.0
1170.0
1211.0
1244.0
1266.0
1278.0
1276.0
1266.0
1247.0
1216.0
1166.0
1100.0
1027.0
962.0
921.0
902.0
896.0
902.0
909.0
913.0
916.0
914.0
912.0
907.0
904.0
902.0
900.0
898.0
896.0
893.0
890.0
891.0
892.0
888.0
887.0
885.0
886.0
886.0
885.0
882.0
881.0
880.0
879.0
880.0
881.0
881.0
883.0
881.0
881.0
879.0
876.0
875.0
872.0
870.0
869.0
869.0
870.0
871.0
872.0
872.0
870.0
870.0
869.0
868.0
869.0
866.0
866.0
865.0
863.0
861.0
861.0
862.0
859.0
858.0
855.0
854.0
851.0
847.0
843.0
842.0
842.0
842.0
839.0
841.0
840.0
835.0
833.0
829.0
826.0
821.0
817.0
815.0
813.0
815.0
816.0
811.0
813.0
812.0
812.0
807.0
807.0
804.0
803.0
806.0
808.0
810.0
812.0
818.0
823.0
829.0
834.0
837.0
844.0
852.0
857.0
865.0
873.0
876.0
883.0
888.0
894.0
897.0
899.0
901.0
900.0
900.0
902.0
905.0
907.0
910.0
913.0
920.0
920.0
919.0
920.0
918.0
918.0
916.0
917.0
917.0
916.0
916.0
916.0
920.0
918.0
918.0
917.0
915.0
915.0
915.0
915.0
914.0
917.0
919.0
917.0
921.0
923.0
922.0
920.0
920.0
919.0
918.0
918.0
915.0
918.0
920.0
922.0
924.0
921.0
923.0
922.0
921.0
924.0
924.0
924.0
926.0
928.0
928.0
932.0
932.0
932.0
931.0
930.0
927.0
929.0
928.0
928.0
924.0
927.0
927.0
927.0
927.0
927.0
929.0
928.0
926.0
923.0
920.0
924.0
925.0
924.0
922.0
925.0
928.0
928.0
927.0
926.0
924.0
923.0
918.0
917.0
919.0
920.0
921.0
921.0
922.0
922.0
921.0
920.0
918.0
916.0
915.0
913.0
912.0
915.0
915.0
915.0
915.0
916.0
916.0
916.0
916.0
915.0
917.0
916.0
919.0
921.0
922.0
924.0
929.0
927.0
929.0
930.0
927.0
926.0
922.0
921.0
919.0
922.0
925.0
924.0
925.0
925.0
922.0
921.0
920.0
918.0
917.0
918.0
917.0
919.0
918.0
920.0
920.0
923.0
919.0
921.0
920.0
918.0
915.0
915.0
915.0
914.0
918.0
917.0
917.0
918.0
919.0
916.0
917.0
915.0
913.0
911.0
912.0
912.0
914.0
914.0
914.0
917.0
918.0
917.0
917.0
914.0
911.0
912.0
913.0
915.0
915.0
918.0
917.0
919.0
923.0
924.0
922.0
921.0
920.0
923.0
924.0
924.0
928.0
930.0
931.0
930.0
928.0
924.0
923.0
918.0
917.0
922.0
940.0
966.0
1001.0
1044.0
1092.0
1139.0
1190.0
1234.0
1264.0
1286.0
1289.0
1280.0
1267.0
1235.0
1188.0
1116.0
1033.0
963.0
917.0
896.0
886.0
893.0
898.0
902.0
904.0
902.0
898.0
892.0
891.0
887.0
887.0
888.0
886.0
885.0
884.0
885.0
882.0
885.0
885.0
885.0
888.0
887.0
887.0
886.0
885.0
884.0
879.0
879.0
880.0
880.0
879.0
877.0
879.0
878.0
878.0
874.0
873.0
870.0
866.0
866.0
866.0
867.0
867.0
865.0
866.0
865.0
863.0
861.0
858.0
858.0
854.0
855.0
851.0
851.0
852.0
849.0
847.0
846.0
844.0
843.0
838.0
838.0
830.0
829.0
828.0
826.0
825.0
822.0
821.0
820.0
816.0
814.0
811.0
809.0
806.0
807.0
807.0
805.0
805.0
808.0
807.0
804.0
804.0
802.0
797.0
796.0
795.0
796.0
796.0
798.0
805.0
809.0
815.0
819.0
826.0
830.0
835.0
840.0
845.0
850.0
853.0
859.0
866.0
873.0
878.0
882.0
885.0
887.0
888.0
887.0
893.0
892.0
893.0
896.0
898.0
899.0
901.0
902.0
902.0
901.0
897.0
896.0
897.0
894.0
896.0
899.0
901.0
905.0
907.0
910.0
910.0
914.0
911.0
913.0
914.0
913.0
912.0
916.0
918.0
925.0
927.0
929.0
929.0
928.0
926.0
925.0
925.0
925.0
925.0
927.0
927.0
929.0
932.0
931.0
930.0
929.0
927.0
924.0
924.0
922.0
920.0
922.0
925.0
923.0
923.0
922.0
920.0
915.0
915.0
913.0
914.0
910.0
911.0
913.0
914.0
916.0
912.0
912.0
912.0
911.0
910.0
909.0
910.0
909.0
910.0
910.0
911.0
917.0
921.0
920.0
921.0
921.0
919.0
919.0
918.0
918.0
917.0
916.0
917.0
921.0
922.0
923.0
922.0
920.0
920.0
919.0
918.0
917.0
917.0
918.0
917.0
919.0
921.0
920.0
921.0
920.0
919.0
919.0
916.0
917.0
921.0
922.0
922.0
922.0
923.0
922.0
924.0
922.0
921.0
923.0
923.0
922.0
921.0
919.0
918.0
919.0
925.0
941.0
965.0
995.0
1031.0
1075.0
1119.0
1166.0
1209.0
1247.0
1270.0
1283.0
1285.0
1275.0
1256.0
1221.0
1171.0
1103.0
1025.0
956.0
913.0
894.0
894.0
903.0
914.0
920.0
921.0
915.0
912.0
909.0
903.0
900.0
902.0
902.0
903.0
903.0
902.0
901.0
899.0
898.0
894.0
894.0
889.0
888.0
889.0
890.0
891.0
890.0
889.0
885.0
884.0
882.0
881.0
881.0
880.0
877.0
880.0
879.0
880.0
880.0
880.0
877.0
873.0
872.0
867.0
865.0
863.0
864.0
861.0
864.0
866.0
867.0
867.0
867.0
864.0
862.0
860.0
856.0
855.0
851.0
850.0
848.0
846.0
848.0
849.0
847.0
845.0
843.0
837.0
834.0
830.0
826.0
823.0
824.0
824.0
819.0
819.0
819.0
816.0
814.0
813.0
809.0
809.0
806.0
806.0
806.0
809.0
808.0
813.0
814.0
818.0
820.0
824.0
829.0
833.0
837.0
844.0
850.0
858.0
864.0
872.0
875.0
879.0
881.0
883.0
886.0
886.0
891.0
896.0
898.0
904.0
906.0
908.0
912.0
911.0
911.0
910.0
909.0
908.0
907.0
909.0
908.0
914.0
915.0
916.0
916.0
916.0
913.0
913.0
910.0
911.0
910.0
909.0
911.0
914.0
914.0
915.0
917.0
917.0
918.0
916.0
911.0
911.0
907.0
907.0
908.0
907.0
909.0
910.0
912.0
912.0
912.0
907.0
909.0
909.0
906.0
903.0
905.0
905.0
903.0
905.0
907.0
905.0
905.0
903.0
906.0
908.0
910.0
914.0
915.0
917.0
918.0
919.0
920.0
920.0
915.0
916.0
914.0
914.0
915.0
915.0
915.0
916.0
917.0
919.0
919.0
919.0
916.0
914.0
913.0
909.0
910.0
911.0
911.0
910.0
908.0
911.0
916.0
931.0
956.0
988.0
1028.0
1069.0
1120.0
1170.0
1215.0
1254.0
1278.0
1291.0
1287.0
1273.0
1251.0
1210.0
1149.0
1072.0
993.0
928.0
892.0
881.0
887.0
901.0
911.0
919.0
919.0
915.0
911.0
904.0
901.0
903.0
903.0
905.0
905.0
907.0
908.0
904.0
905.0
902.0
899.0
897.0
896.0
893.0
891.0
889.0
890.0
891.0
888.0
888.0
882.0
880.0
875.0
867.0
868.0
863.0
864.0
866.0
864.0
867.0
867.0
863.0
863.0
863.0
862.0
858.0
855.0
856.0
855.0
857.0
856.0
857.0
857.0
854.0
852.0
849.0
849.0
848.0
846.0
847.0
845.0
845.0
845.0
843.0
840.0
839.0
839.0
836.0
831.0
831.0
828.0
826.0
825.0
824.0
824.0
823.0
820.0
815.0
814.0
808.0
808.0
805.0
803.0
803.0
801.0
801.0
806.0
808.0
809.0
813.0
816.0
817.0
817.0
822.0
825.0
832.0
842.0
848.0
856.0
862.0
867.0
873.0
878.0
879.0
880.0
884.0
886.0
890.0
892.0
897.0
900.0
905.0
904.0
904.0
906.0
907.0
906.0
906.0
906.0
906.0
906.0
908.0
907.0
910.0
911.0
911.0
911.0
910.0
907.0
908.0
909.0
908.0
910.0
911.0
910.0
911.0
912.0
914.0
911.0
913.0
912.0
907.0
905.0
908.0
913.0
916.0
918.0
918.0
919.0
919.0
919.0
917.0
916.0
915.0
916.0
915.0
917.0
921.0
919.0
921.0
922.0
921.0
920.0
918.0
913.0
912.0
912.0
913.0
915.0
916.0
916.0
919.0
921.0
920.0
920.0
915.0
916.0
913.0
914.0
912.0
912.0
914.0
915.0
917.0
915.0
916.0
916.0
913.0
912.0
910.0
906.0
908.0
912.0
913.0
917.0
920.0
923.0
922.0
921.0
920.0
917.0
918.0
914.0
913.0
911.0
911.0
915.0
928.0
953.0
981.0
1019.0
1057.0
1102.0
1151.0
1201.0
1244.0
1277.0
1297.0
1303.0
1299.0
1283.0
1252.0
1202.0
1131.0
1046.0
964.0
909.0
884.0
880.0
889.0
901.0
911.0
914.0
912.0
910.0
903.0
896.0
892.0
893.0
894.0
895.0
890.0
892.0
889.0
889.0
889.0
885.0
883.0
880.0
879.0
878.0
876.0
876.0
877.0
876.0
878.0
881.0
880.0
881.0
882.0
881.0
878.0
879.0
879.0
879.0
881.0
882.0
885.0
886.0
884.0
883.0
882.0
881.0
879.0
875.0
875.0
873.0
873.0
872.0
873.0
873.0
871.0
867.0
864.0
862.0
859.0
856.0
853.0
851.0
849.0
845.0
845.0
840.0
835.0
833.0
830.0
827.0
824.0
821.0
819.0
817.0
814.0
812.0
810.0
809.0
804.0
802.0
799.0
798.0
796.0
794.0
794.0
795.0
795.0
798.0
802.0
805.0
807.0
810.0
812.0
816.0
825.0
832.0
842.0
849.0
858.0
868.0
876.0
883.0
890.0
892.0
897.0
902.0
903.0
904.0
906.0
909.0
914.0
916.0
920.0
921.0
918.0
919.0
917.0
916.0
913.0
916.0
915.0
914.0
915.0
914.0
912.0
912.0
910.0
909.0
906.0
906.0
907.0
906.0
909.0
906.0
911.0
907.0
911.0
912.0
907.0
908.0
910.0
908.0
908.0
905.0
906.0
909.0
911.0
910.0
914.0
914.0
912.0
912.0
910.0
910.0
910.0
910.0
912.0
913.0
914.0
917.0
919.0
921.0
921.0
921.0
921.0
924.0
923.0
920.0
924.0
923.0
925.0
928.0
928.0
929.0
925.0
925.0
924.0
922.0
920.0
918.0
920.0
919.0
918.0
918.0
918.0
921.0
918.0
915.0
914.0
912.0
910.0
911.0
909.0
911.0
912.0
914.0
916.0
917.0
915.0
916.0
913.0
914.0
910.0
910.0
911.0
912.0
913.0
915.0
918.0
916.0
917.0
915.0
914.0
914.0
912.0
912.0
910.0
910.0
912.0
913.0
913.0
914.0
918.0
918.0
917.0
918.0
917.0
915.0
918.0
915.0
917.0
918.0
917.0
919.0
919.0
919.0
919.0
915.0
914.0
912.0
913.0
912.0
912.0
915.0
915.0
916.0
912.0
912.0
912.0
909.0
907.0
907.0
904.0
907.0
909.0
909.0
912.0
914.0
913.0
912.0
913.0
909.0
909.0
908.0
909.0
907.0
910.0
910.0
911.0
911.0
913.0
912.0
911.0
910.0
908.0
907.0
907.0
907.0
907.0
912.0
915.0
918.0
918.0
918.0
918.0
916.0
916.0
914.0
916.0
916.0
917.0
918.0
920.0
920.0
918.0
922.0
919.0
918.0
915.0
912.0
908.0
905.0
902.0
912.0
929.0
959.0
997.0
1045.0
1099.0
1155.0
1207.0
1254.0
1289.0
1306.0
1311.0
1305.0
1286.0
1249.0
1187.0
1101.0
1010.0
938.0
896.0
878.0
880.0
891.0
898.0
907.0
909.0
903.0
898.0
894.0
888.0
884.0
883.0
880.0
881.0
882.0
884.0
887.0
887.0
887.0
884.0
885.0
884.0
881.0
880.0
879.0
876.0
872.0
873.0
872.0
872.0
877.0
875.0
875.0
874.0
871.0
869.0
866.0
866.0
864.0
863.0
865.0
862.0
864.0
860.0
862.0
861.0
861.0
857.0
857.0
855.0
856.0
858.0
859.0
859.0
858.0
855.0
853.0
851.0
847.0
842.0
840.0
838.0
835.0
837.0
834.0
835.0
834.0
829.0
826.0
822.0
817.0
812.0
812.0
811.0
808.0
807.0
807.0
805.0
805.0
805.0
802.0
799.0
796.0
792.0
790.0
789.0
785.0
786.0
785.0
785.0
788.0
789.0
790.0
792.0
794.0
797.0
800.0
807.0
814.0
819.0
826.0
833.0
839.0
846.0
850.0
852.0
857.0
861.0
867.0
872.0
878.0
884.0
889.0
892.0
896.0
899.0
901.0
905.0
906.0
906.0
906.0
907.0
908.0
912.0
913.0
917.0
919.0
919.0
921.0
922.0
920.0
917.0
917.0
918.0
916.0
919.0
917.0
916.0
917.0
918.0
917.0
918.0
917.0
917.0
917.0
918.0
917.0
920.0
918.0
916.0
917.0
916.0
915.0
911.0
914.0
910.0
913.0
914.0
915.0
916.0
914.0
916.0
917.0
916.0
917.0
916.0
914.0
910.0
908.0
908.0
909.0
912.0
916.0
915.0
918.0
915.0
915.0
913.0
915.0
913.0
910.0
912.0
914.0
913.0
915.0
916.0
919.0
919.0
919.0
920.0
919.0
920.0
919.0
920.0
921.0
921.0
920.0
920.0
920.0
921.0
920.0
917.0
917.0
915.0
913.0
913.0
911.0
911.0
913.0
914.0
913.0
916.0
912.0
910.0
912.0
909.0
907.0
907.0
906.0
906.0
907.0
905.0
908.0
906.0
905.0
904.0
903.0
902.0
903.0
904.0
903.0
902.0
901.0
903.0
905.0
905.0
903.0
899.0
899.0
896.0
896.0
896.0
897.0
897.0
896.0
896.0
901.0
900.0
902.0
904.0
904.0
904.0
905.0
906.0
909.0
912.0
912.0
913.0
915.0
913.0
