# Simple Text Format
# Sampling Rate (Hz):= 360.00
# Resolution:= 12
# Labels:= ECG
885.0
885.0
885.0
885.0
885.0
885.0
885.0
885.0
885.0
885.0
884.0
882.0
884.0
884.0
887.0
888.0
890.0
890.0
891.0
891.0
890.0
889.0
888.0
885.0
885.0
885.0
886.0
885.0
883.0
883.0
878.0
875.0
874.0
870.0
871.0
866.0
870.0
868.0
867.0
866.0
864.0
861.0
856.0
852.0
849.0
845.0
843.0
847.0
847.0
850.0
852.0
853.0
851.0
849.0
846.0
842.0
839.0
836.0
836.0
834.0
833.0
831.0
828.0
829.0
827.0
823.0
819.0
816.0
815.0
811.0
808.0
804.0
803.0
800.0
801.0
801.0
797.0
795.0
791.0
791.0
790.0
789.0
796.0
799.0
806.0
809.0
816.0
822.0
824.0
832.0
837.0
840.0
845.0
851.0
856.0
858.0
864.0
871.0
877.0
885.0
888.0
892.0
894.0
893.0
899.0
900.0
901.0
900.0
902.0
903.0
905.0
905.0
906.0
906.0
901.0
900.0
899.0
899.0
901.0
899.0
900.0
902.0
901.0
905.0
904.0
904.0
902.0
904.0
903.0
904.0
903.0
907.0
909.0
912.0
912.0
915.0
913.0
911.0
910.0
911.0
913.0
912.0
913.0
915.0
914.0
915.0
916.0
919.0
918.0
920.0
923.0
920.0
917.0
917.0
919.0
920.0
923.0
926.0
928.0
930.0
930.0
929.0
927.0
925.0
923.0
922.0
922.0
921.0
920.0
921.0
921.0
920.0
918.0
918.0
916.0
915.0
914.0
911.0
911.0
909.0
910.0
912.0
911.0
914.0
913.0
912.0
909.0
906.0
907.0
905.0
901.0
901.0
903.0
905.0
907.0
910.0
909.0
910.0
907.0
906.0
905.0
905.0
907.0
909.0
912.0
912.0
911.0
913.0
913.0
912.0
909.0
907.0
907.0
904.0
903.0
906.0
906.0
907.0
912.0
912.0
915.0
915.0
917.0
918.0
915.0
914.0
913.0
913.0
914.0
913.0
911.0
914.0
912.0
912.0
910.0
909.0
909.0
907.0
908.0
904.0
906.0
905.0
908.0
907.0
907.0
907.0
906.0
905.0
901.0
903.0
906.0
905.0
906.0
909.0
910.0
912.0
912.0
912.0
912.0
911.0
912.0
913.0
913.0
916.0
916.0
920.0
922.0
922.0
923.0
922.0
923.0
923.0
923.0
923.0
920.0
919.0
920.0
919.0
917.0
919.0
916.0
916.0
912.0
907.0
904.0
899.0
896.0
895.0
898.0
909.0
934.0
969.0
1009.0
1056.0
1106.0
1162.0
1217.0
1267.0
1311.0
1346.0
1362.0
1363.0
1356.0
1332.0
1285.0
1204.0
1098.0
989.0
907.0
864.0
852.0
860.0
875.0
889.0
898.0
900.0
896.0
888.0
882.0
878.0
876.0
878.0
878.0
879.0
881.0
882.0
880.0
883.0
882.0
883.0
880.0
880.0
875.0
876.0
873.0
872.0
874.0
872.0
871.0
872.0
869.0
868.0
863.0
863.0
861.0
860.0
862.0
860.0
859.0
862.0
862.0
864.0
867.0
866.0
865.0
864.0
862.0
860.0
858.0
856.0
856.0
854.0
854.0
853.0
851.0
849.0
848.0
846.0
846.0
843.0
842.0
841.0
842.0
840.0
841.0
839.0
836.0
834.0
829.0
825.0
820.0
820.0
817.0
818.0
816.0
813.0
811.0
812.0
807.0
804.0
804.0
800.0
794.0
790.0
789.0
788.0
785.0
786.0
785.0
786.0
785.0
784.0
783.0
783.0
783.0
784.0
791.0
797.0
807.0
811.0
821.0
832.0
838.0
844.0
851.0
855.0
861.0
865.0
869.0
876.0
882.0
885.0
888.0
890.0
891.0
892.0
889.0
887.0
886.0
888.0
889.0
888.0
892.0
892.0
896.0
897.0
899.0
899.0
900.0
898.0
899.0
897.0
896.0
898.0
899.0
902.0
904.0
909.0
908.0
909.0
911.0
911.0
909.0
909.0
909.0
909.0
906.0
906.0
903.0
905.0
905.0
904.0
902.0
902.0
902.0
904.0
905.0
904.0
906.0
908.0
911.0
913.0
915.0
915.0
914.0
913.0
916.0
914.0
915.0
915.0
918.0
918.0
917.0
919.0
919.0
917.0
914.0
913.0
909.0
910.0
910.0
909.0
912.0
915.0
916.0
918.0
919.0
918.0
918.0
917.0
914.0
912.0
912.0
910.0
912.0
912.0
913.0
915.0
915.0
915.0
915.0
914.0
912.0
909.0
908.0
907.0
904.0
902.0
900.0
902.0
898.0
901.0
901.0
900.0
900.0
899.0
898.0
902.0
903.0
904.0
906.0
908.0
911.0
908.0
909.0
908.0
907.0
905.0
904.0
906.0
907.0
907.0
908.0
909.0
910.0
911.0
910.0
906.0
905.0
903.0
905.0
903.0
906.0
907.0
907.0
910.0
911.0
911.0
911.0
910.0
909.0
904.0
902.0
905.0
906.0
909.0
910.0
913.0
913.0
914.0
915.0
914.0
912.0
913.0
914.0
914.0
915.0
914.0
917.0
918.0
914.0
912.0
912.0
909.0
909.0
908.0
907.0
909.0
909.0
909.0
910.0
912.0
912.0
911.0
909.0
911.0
909.0
909.0
908.0
905.0
902.0
896.0
900.0
913.0
933.0
966.0
1007.0
1051.0
1104.0
1165.0
1225.0
1281.0
1329.0
1357.0
1371.0
1370.0
1354.0
1322.0
1266.0
1183.0
1078.0
979.0
905.0
869.0
862.0
870.0
889.0
900.0
909.0
907.0
903.0
900.0
896.0
893.0
892.0
896.0
897.0
897.0
897.0
895.0
893.0
890.0
887.0
882.0
881.0
879.0
880.0
879.0
881.0
880.0
881.0
880.0
881.0
878.0
876.0
873.0
871.0
867.0
864.0
866.0
867.0
865.0
868.0
869.0
869.0
866.0
864.0
864.0
864.0
857.0
858.0
856.0
853.0
854.0
854.0
852.0
850.0
846.0
846.0
844.0
844.0
841.0
841.0
839.0
839.0
840.0
839.0
840.0
838.0
835.0
832.0
829.0
828.0
825.0
824.0
822.0
822.0
818.0
816.0
812.0
806.0
802.0
799.0
799.0
796.0
794.0
790.0
792.0
789.0
790.0
788.0
790.0
793.0
795.0
796.0
798.0
804.0
808.0
815.0
820.0
830.0
836.0
845.0
851.0
857.0
861.0
865.0
865.0
868.0
869.0
874.0
875.0
879.0
880.0
888.0
893.0
894.0
894.0
893.0
891.0
892.0
891.0
891.0
894.0
894.0
899.0
902.0
902.0
904.0
904.0
905.0
902.0
904.0
904.0
905.0
906.0
907.0
907.0
910.0
913.0
915.0
917.0
918.0
917.0
918.0
917.0
918.0
917.0
921.0
921.0
923.0
924.0
924.0
923.0
922.0
920.0
916.0
916.0
915.0
914.0
914.0
914.0
914.0
917.0
916.0
914.0
913.0
911.0
906.0
904.0
905.0
905.0
904.0
904.0
904.0
907.0
906.0
905.0
901.0
900.0
896.0
895.0
893.0
892.0
894.0
896.0
899.0
901.0
905.0
907.0
906.0
908.0
906.0
909.0
909.0
910.0
911.0
910.0
911.0
913.0
914.0
913.0
914.0
913.0
910.0
912.0
912.0
913.0
917.0
917.0
920.0
921.0
920.0
919.0
917.0
918.0
916.0
914.0
913.0
913.0
915.0
915.0
917.0
918.0
918.0
918.0
915.0
914.0
913.0
912.0
909.0
910.0
914.0
911.0
911.0
908.0
908.0
907.0
905.0
899.0
897.0
893.0
895.0
895.0
898.0
901.0
905.0
907.0
909.0
911.0
912.0
911.0
911.0
906.0
903.0
902.0
910.0
926.0
956.0
993.0
1034.0
1086.0
1144.0
1202.0
1254.0
1297.0
1331.0
1346.0
1349.0
1342.0
1324.0
1290.0
1233.0
1147.0
1044.0
955.0
897.0
870.0
871.0
883.0
900.0
911.0
917.0
918.0
913.0
908.0
901.0
899.0
895.0
892.0
891.0
890.0
889.0
888.0
888.0
885.0
884.0
883.0
877.0
872.0
871.0
867.0
863.0
861.0
860.0
863.0
864.0
864.0
864.0
864.0
863.0
862.0
862.0
861.0
863.0
867.0
866.0
868.0
871.0
870.0
872.0
875.0
872.0
872.0
869.0
870.0
869.0
868.0
868.0
870.0
871.0
873.0
869.0
867.0
865.0
864.0
861.0
857.0
857.0
854.0
853.0
852.0
850.0
851.0
848.0
845.0
843.0
840.0
833.0
832.0
828.0
826.0
824.0
824.0
822.0
820.0
818.0
817.0
811.0
807.0
801.0
798.0
797.0
795.0
795.0
796.0
800.0
803.0
804.0
806.0
811.0
811.0
814.0
824.0
830.0
836.0
843.0
848.0
857.0
870.0
874.0
880.0
885.0
887.0
890.0
894.0
895.0
901.0
905.0
910.0
913.0
916.0
917.0
919.0
917.0
916.0
915.0
914.0
913.0
914.0
915.0
917.0
920.0
917.0
918.0
918.0
916.0
915.0
911.0
912.0
912.0
912.0
912.0
913.0
914.0
911.0
911.0
910.0
908.0
907.0
905.0
906.0
905.0
907.0
910.0
912.0
915.0
911.0
911.0
910.0
908.0
908.0
907.0
908.0
908.0
910.0
911.0
912.0
913.0
913.0
913.0
911.0
911.0
909.0
908.0
907.0
903.0
903.0
905.0
906.0
910.0
913.0
914.0
917.0
916.0
915.0
917.0
918.0
918.0
920.0
922.0
925.0
925.0
928.0
926.0
926.0
924.0
923.0
922.0
921.0
921.0
920.0
920.0
922.0
925.0
925.0
923.0
921.0
922.0
921.0
919.0
919.0
919.0
919.0
919.0
920.0
924.0
923.0
924.0
923.0
921.0
919.0
917.0
918.0
919.0
919.0
921.0
924.0
923.0
923.0
922.0
921.0
919.0
916.0
911.0
910.0
908.0
907.0
909.0
907.0
909.0
909.0
906.0
908.0
908.0
908.0
907.0
912.0
910.0
913.0
921.0
923.0
924.0
926.0
929.0
927.0
927.0
926.0
927.0
924.0
923.0
921.0
923.0
925.0
927.0
926.0
929.0
926.0
925.0
924.0
923.0
923.0
922.0
925.0
926.0
927.0
931.0
931.0
932.0
931.0
928.0
925.0
925.0
922.0
921.0
922.0
923.0
925.0
926.0
927.0
926.0
926.0
926.0
923.0
924.0
922.0
921.0
923.0
925.0
924.0
924.0
920.0
913.0
906.0
904.0
914.0
932.0
963.0
1004.0
1055.0
1112.0
1173.0
1235.0
1290.0
1333.0
1358.0
1365.0
1362.0
1354.0
1334.0
1296.0
1235.0
1145.0
1044.0
959.0
903.0
884.0
884.0
892.0
904.0
912.0
915.0
916.0
913.0
909.0
907.0
907.0
905.0
905.0
905.0
900.0
898.0
896.0
893.0
892.0
888.0
889.0
889.0
888.0
889.0
887.0
888.0
884.0
881.0
879.0
876.0
879.0
876.0
878.0
878.0
878.0
877.0
877.0
875.0
874.0
870.0
870.0
869.0
867.0
861.0
860.0
859.0
860.0
860.0
859.0
859.0
859.0
857.0
857.0
856.0
857.0
856.0
855.0
852.0
849.0
852.0
848.0
849.0
846.0
841.0
840.0
837.0
835.0
833.0
833.0
829.0
827.0
823.0
818.0
815.0
812.0
809.0
806.0
804.0
803.0
799.0
799.0
798.0
798.0
797.0
794.0
792.0
789.0
789.0
790.0
791.0
792.0
799.0
804.0
810.0
815.0
821.0
828.0
838.0
841.0
845.0
848.0
852.0
858.0
864.0
872.0
876.0
884.0
889.0
894.0
896.0
898.0
899.0
903.0
905.0
904.0
911.0
914.0
915.0
919.0
919.0
919.0
919.0
917.0
914.0
913.0
913.0
913.0
913.0
914.0
912.0
914.0
914.0
911.0
911.0
910.0
909.0
908.0
908.0
907.0
909.0
913.0
914.0
917.0
915.0
917.0
916.0
917.0
916.0
917.0
919.0
919.0
920.0
922.0
922.0
923.0
924.0
922.0
920.0
919.0
915.0
916.0
916.0
919.0
923.0
928.0
929.0
931.0
934.0
935.0
935.0
938.0
937.0
933.0
937.0
937.0
938.0
940.0
941.0
941.0
942.0
943.0
943.0
941.0
940.0
938.0
935.0
931.0
927.0
923.0
918.0
927.0
949.0
981.0
1022.0
1073.0
1128.0
1188.0
1248.0
1304.0
1344.0
1370.0
1383.0
1381.0
1362.0
1331.0
1277.0
1189.0
1085.0
984.0
910.0
873.0
860.0
864.0
874.0
886.0
891.0
893.0
893.0
891.0
884.0
881.0
881.0
881.0
883.0
883.0
888.0
890.0
891.0
890.0
889.0
890.0
890.0
887.0
886.0
888.0
888.0
892.0
892.0
895.0
893.0
891.0
888.0
886.0
887.0
887.0
887.0
886.0
886.0
887.0
886.0
885.0
884.0
882.0
881.0
880.0
877.0
874.0
873.0
871.0
871.0
871.0
870.0
870.0
868.0
865.0
861.0
858.0
856.0
850.0
847.0
843.0
840.0
839.0
839.0
836.0
836.0
829.0
830.0
828.0
827.0
825.0
822.0
820.0
819.0
820.0
817.0
818.0
819.0
818.0
817.0
817.0
817.0
816.0
812.0
813.0
811.0
815.0
815.0
819.0
824.0
826.0
830.0
833.0
836.0
841.0
848.0
855.0
862.0
870.0
876.0
878.0
884.0
888.0
888.0
890.0
892.0
893.0
896.0
899.0
901.0
903.0
905.0
905.0
909.0
909.0
907.0
908.0
906.0
905.0
905.0
902.0
903.0
904.0
903.0
907.0
908.0
907.0
905.0
905.0
907.0
906.0
901.0
902.0
901.0
902.0
903.0
905.0
906.0
908.0
908.0
911.0
912.0
912.0
913.0
917.0
918.0
923.0
925.0
923.0
925.0
918.0
919.0
916.0
914.0
913.0
911.0
909.0
911.0
911.0
911.0
913.0
916.0
915.0
916.0
914.0
912.0
911.0
911.0
911.0
911.0
912.0
910.0
911.0
911.0
909.0
910.0
908.0
908.0
903.0
903.0
904.0
904.0
904.0
906.0
907.0
909.0
906.0
907.0
902.0
900.0
900.0
899.0
898.0
898.0
898.0
897.0
895.0
895.0
894.0
892.0
890.0
890.0
891.0
893.0
896.0
899.0
906.0
910.0
912.0
915.0
916.0
915.0
917.0
915.0
917.0
916.0
915.0
916.0
917.0
918.0
920.0
919.0
920.0
919.0
916.0
916.0
914.0
914.0
911.0
912.0
911.0
911.0
908.0
905.0
904.0
902.0
899.0
899.0
898.0
896.0
897.0
899.0
902.0
904.0
905.0
904.0
904.0
903.0
901.0
901.0
897.0
895.0
896.0
896.0
896.0
895.0
897.0
897.0
894.0
892.0
893.0
893.0
897.0
899.0
903.0
906.0
908.0
907.0
908.0
903.0
900.0
902.0
913.0
940.0
976.0
1020.0
1075.0
1134.0
1199.0
1262.0
1314.0
1352.0
1371.0
1376.0
1365.0
1344.0
1308.0
1244.0
1152.0
1045.0
952.0
892.0
870.0
870.0
882.0
892.0
903.0
905.0
902.0
895.0
889.0
885.0
884.0
881.0
882.0
882.0
880.0
876.0
870.0
865.0
862.0
860.0
858.0
859.0
860.0
861.0
863.0
863.0
861.0
865.0
862.0
861.0
860.0
859.0
857.0
858.0
857.0
857.0
858.0
860.0
860.0
860.0
862.0
860.0
861.0
856.0
858.0
855.0
857.0
857.0
857.0
858.0
857.0
855.0
852.0
851.0
848.0
847.0
847.0
844.0
845.0
843.0
842.0
841.0
839.0
834.0
831.0
829.0
825.0
824.0
822.0
818.0
816.0
813.0
811.0
807.0
802.0
798.0
795.0
791.0
787.0
782.0
783.0
782.0
779.0
779.0
782.0
782.0
781.0
781.0
779.0
777.0
778.0
776.0
776.0
779.0
783.0
785.0
791.0
797.0
799.0
805.0
812.0
820.0
824.0
829.0
837.0
845.0
853.0
859.0
868.0
873.0
877.0
880.0
882.0
884.0
886.0
889.0
891.0
894.0
898.0
900.0
905.0
906.0
908.0
906.0
905.0
902.0
902.0
901.0
901.0
901.0
901.0
900.0
904.0
907.0
907.0
908.0
905.0
905.0
904.0
902.0
904.0
906.0
908.0
909.0
912.0
916.0
917.0
917.0
917.0
916.0
916.0
914.0
914.0
915.0
917.0
916.0
920.0
922.0
920.0
920.0
917.0
919.0
916.0
918.0
919.0
918.0
920.0
919.0
920.0
923.0
922.0
920.0
922.0
919.0
915.0
913.0
911.0
912.0
914.0
915.0
914.0
915.0
912.0
910.0
905.0
904.0
899.0
898.0
901.0
899.0
903.0
903.0
900.0
901.0
899.0
904.0
922.0
952.0
992.0
1040.0
1098.0
1159.0
1223.0
1284.0
1334.0
1364.0
1373.0
1369.0
1352.0
1315.0
1250.0
1154.0
1043.0
947.0
887.0
862.0
865.0
882.0
897.0
908.0
908.0
905.0
897.0
889.0
885.0
885.0
888.0
889.0
890.0
891.0
889.0
884.0
885.0
881.0
878.0
878.0
875.0
874.0
875.0
871.0
871.0
870.0
869.0
866.0
862.0
859.0
855.0
854.0
853.0
851.0
851.0
853.0
854.0
855.0
854.0
854.0
853.0
852.0
852.0
852.0
854.0
855.0
856.0
859.0
858.0
859.0
858.0
860.0
859.0
856.0
855.0
852.0
848.0
848.0
850.0
850.0
849.0
848.0
848.0
846.0
844.0
841.0
837.0
834.0
831.0
828.0
827.0
825.0
824.0
824.0
821.0
820.0
815.0
811.0
806.0
804.0
799.0
797.0
794.0
796.0
796.0
796.0
797.0
799.0
799.0
800.0
803.0
804.0
810.0
819.0
829.0
833.0
842.0
851.0
856.0
860.0
861.0
864.0
867.0
867.0
875.0
880.0
884.0
889.0
897.0
900.0
901.0
904.0
905.0
902.0
903.0
903.0
903.0
903.0
903.0
904.0
905.0
908.0
907.0
906.0
909.0
905.0
902.0
902.0
900.0
901.0
903.0
903.0
905.0
906.0
907.0
908.0
905.0
901.0
900.0
899.0
900.0
901.0
900.0
903.0
903.0
905.0
903.0
904.0
903.0
902.0
902.0
902.0
903.0
902.0
904.0
903.0
906.0
911.0
910.0
908.0
907.0
904.0
904.0
904.0
903.0
904.0
907.0
908.0
910.0
917.0
917.0
917.0
915.0
914.0
911.0
910.0
907.0
906.0
909.0
911.0
914.0
914.0
913.0
913.0
909.0
908.0
907.0
907.0
907.0
909.0
909.0
909.0
912.0
912.0
910.0
910.0
911.0
908.0
907.0
908.0
909.0
911.0
912.0
914.0
916.0
914.0
915.0
914.0
909.0
908.0
906.0
907.0
912.0
913.0
914.0
914.0
915.0
915.0
914.0
914.0
915.0
915.0
913.0
913.0
912.0
911.0
912.0
913.0
913.0
915.0
916.0
914.0
916.0
916.0
915.0
913.0
911.0
911.0
915.0
911.0
911.0
908.0
911.0
909.0
907.0
905.0
904.0
903.0
905.0
907.0
909.0
911.0
914.0
914.0
914.0
913.0
914.0
911.0
907.0
903.0
898.0
893.0
895.0
907.0
931.0
970.0
1017.0
1076.0
1142.0
1211.0
1275.0
1329.0
1366.0
1379.0
1378.0
1363.0
1329.0
1264.0
1166.0
1048.0
946.0
882.0
856.0
856.0
873.0
891.0
900.0
906.0
906.0
903.0
897.0
894.0
894.0
890.0
891.0
890.0
889.0
887.0
887.0
887.0
888.0
887.0
881.0
880.0
879.0
877.0
870.0
873.0
870.0
870.0
871.0
870.0
870.0
867.0
868.0
864.0
863.0
861.0
858.0
856.0
855.0
856.0
856.0
856.0
856.0
857.0
855.0
853.0
851.0
849.0
848.0
847.0
847.0
846.0
845.0
843.0
842.0
841.0
838.0
834.0
827.0
825.0
823.0
819.0
820.0
821.0
819.0
818.0
818.0
817.0
813.0
809.0
806.0
802.0
799.0
794.0
791.0
787.0
786.0
786.0
786.0
786.0
784.0
782.0
781.0
781.0
780.0
782.0
785.0
789.0
792.0
799.0
805.0
811.0
817.0
827.0
833.0
838.0
844.0
851.0
858.0
862.0
868.0
875.0
884.0
887.0
893.0
895.0
898.0
898.0
898.0
900.0
900.0
901.0
903.0
906.0
907.0
908.0
908.0
908.0
907.0
907.0
905.0
901.0
902.0
902.0
905.0
908.0
911.0
915.0
915.0
915.0
914.0
913.0
913.0
913.0
914.0
914.0
915.0
917.0
918.0
921.0
922.0
922.0
921.0
920.0
918.0
918.0
919.0
919.0
921.0
923.0
923.0
926.0
926.0
927.0
924.0
922.0
922.0
924.0
925.0
925.0
928.0
927.0
931.0
931.0
929.0
929.0
928.0
925.0
923.0
924.0
922.0
926.0
924.0
922.0
922.0
922.0
922.0
921.0
920.0
917.0
916.0
914.0
915.0
913.0
914.0
915.0
914.0
915.0
914.0
913.0
911.0
908.0
910.0
908.0
909.0
911.0
910.0
910.0
914.0
915.0
915.0
915.0
914.0
911.0
912.0
911.0
912.0
911.0
914.0
913.0
913.0
912.0
913.0
915.0
916.0
914.0
913.0
913.0
914.0
915.0
914.0
918.0
920.0
923.0
922.0
921.0
920.0
921.0
922.0
920.0
919.0
919.0
918.0
920.0
921.0
923.0
922.0
918.0
915.0
914.0
916.0
917.0
917.0
917.0
918.0
917.0
915.0
915.0
906.0
901.0
896.0
897.0
910.0
937.0
975.0
1025.0
1089.0
1155.0
1221.0
1284.0
1335.0
1366.0
1379.0
1374.0
1355.0
1312.0
1244.0
1143.0
1029.0
933.0
875.0
849.0
858.0
872.0
888.0
899.0
901.0
898.0
895.0
889.0
889.0
886.0
889.0
890.0
889.0
886.0
883.0
883.0
878.0
878.0
880.0
880.0
882.0
880.0
879.0
881.0
878.0
878.0
876.0
874.0
871.0
871.0
873.0
872.0
872.0
870.0
870.0
866.0
864.0
860.0
858.0
852.0
851.0
848.0
845.0
846.0
848.0
845.0
847.0
850.0
849.0
846.0
845.0
842.0
839.0
835.0
834.0
833.0
831.0
830.0
832.0
832.0
832.0
833.0
827.0
823.0
819.0
817.0
813.0
810.0
808.0
810.0
808.0
805.0
803.0
801.0
799.0
797.0
792.0
788.0
785.0
783.0
781.0
778.0
775.0
780.0
778.0
779.0
780.0
781.0
786.0
792.0
797.0
805.0
812.0
818.0
824.0
832.0
839.0
842.0
850.0
852.0
857.0
860.0
866.0
868.0
873.0
878.0
882.0
884.0
886.0
888.0
890.0
891.0
891.0
892.0
894.0
896.0
899.0
899.0
902.0
902.0
903.0
902.0
901.0
900.0
901.0
901.0
902.0
900.0
901.0
904.0
907.0
906.0
908.0
909.0
906.0
909.0
907.0
906.0
907.0
907.0
909.0
909.0
911.0
913.0
912.0
915.0
913.0
911.0
910.0
909.0
906.0
904.0
907.0
905.0
906.0
909.0
910.0
912.0
909.0
910.0
908.0
905.0
907.0
905.0
908.0
907.0
908.0
909.0
906.0
906.0
904.0
901.0
899.0
902.0
898.0
899.0
900.0
903.0
903.0
902.0
903.0
903.0
899.0
899.0
899.0
900.0
902.0
904.0
907.0
905.0
910.0
909.0
907.0
910.0
908.0
907.0
904.0
904.0
904.0
904.0
904.0
905.0
906.0
909.0
910.0
910.0
912.0
911.0
910.0
908.0
907.0
907.0
909.0
913.0
911.0
914.0
912.0
914.0
912.0
912.0
907.0
904.0
898.0
898.0
899.0
907.0
927.0
959.0
1002.0
1049.0
1108.0
1170.0
1229.0
1285.0
1328.0
1358.0
1366.0
1365.0
1352.0
1320.0
1265.0
1181.0
1077.0
967.0
889.0
849.0
844.0
850.0
869.0
880.0
886.0
889.0
884.0
878.0
872.0
868.0
867.0
866.0
868.0
869.0
870.0
872.0
873.0
872.0
872.0
873.0
872.0
870.0
870.0
866.0
869.0
866.0
869.0
867.0
868.0
869.0
868.0
865.0
865.0
861.0
860.0
858.0
859.0
856.0
859.0
857.0
855.0
855.0
853.0
852.0
850.0
849.0
846.0
846.0
845.0
842.0
844.0
842.0
844.0
843.0
842.0
840.0
836.0
831.0
829.0
826.0
825.0
822.0
823.0
823.0
823.0
822.0
822.0
817.0
813.0
810.0
804.0
802.0
800.0
799.0
796.0
794.0
794.0
793.0
794.0
793.0
788.0
783.0
781.0
777.0
775.0
777.0
779.0
783.0
786.0
791.0
795.0
797.0
801.0
804.0
810.0
813.0
820.0
821.0
830.0
839.0
843.0
849.0
851.0
853.0
856.0
856.0
857.0
856.0
862.0
864.0
871.0
871.0
875.0
876.0
876.0
879.0
879.0
877.0
877.0
879.0
880.0
884.0
887.0
888.0
892.0
894.0
894.0
897.0
898.0
898.0
897.0
898.0
900.0
897.0
897.0
902.0
906.0
909.0
912.0
913.0
914.0
913.0
914.0
914.0
912.0
915.0
915.0
917.0
919.0
919.0
922.0
919.0
916.0
914.0
910.0
909.0
910.0
909.0
908.0
905.0
906.0
905.0
905.0
902.0
901.0
897.0
895.0
891.0
888.0
891.0
888.0
890.0
887.0
891.0
889.0
887.0
887.0
882.0
883.0
880.0
880.0
883.0
885.0
889.0
892.0
892.0
891.0
891.0
889.0
889.0
888.0
887.0
890.0
894.0
896.0
900.0
902.0
906.0
906.0
907.0
907.0
906.0
907.0
905.0
907.0
908.0
909.0
911.0
915.0
915.0
915.0
913.0
913.0
909.0
907.0
906.0
904.0
904.0
903.0
904.0
903.0
899.0
897.0
893.0
891.0
887.0
884.0
883.0
881.0
879.0
880.0
877.0
877.0
880.0
881.0
883.0
883.0
881.0
882.0
882.0
880.0
881.0
882.0
887.0
890.0
897.0
897.0
898.0
895.0
896.0
896.0
895.0
898.0
897.0
902.0
905.0
908.0
910.0
911.0
911.0
910.0
908.0
901.0
895.0
892.0
899.0
920.0
950.0
991.0
1041.0
1094.0
1154.0
1215.0
1271.0
1318.0
1351.0
1370.0
1374.0
1365.0
1348.0
1325.0
1278.0
1201.0
1096.0
989.0
903.0
854.0
839.0
845.0
856.0
869.0
878.0
881.0
877.0
871.0
866.0
860.0
858.0
854.0
854.0
856.0
857.0
858.0
859.0
861.0
862.0
860.0
857.0
857.0
853.0
852.0
850.0
847.0
850.0
849.0
852.0
854.0
853.0
856.0
854.0
852.0
850.0
849.0
850.0
848.0
849.0
847.0
848.0
849.0
848.0
846.0
844.0
843.0
843.0
842.0
842.0
838.0
837.0
837.0
836.0
835.0
835.0
833.0
831.0
828.0
827.0
824.0
823.0
820.0
819.0
817.0
816.0
819.0
814.0
812.0
808.0
802.0
799.0
791.0
789.0
789.0
786.0
785.0
783.0
781.0
781.0
779.0
775.0
771.0
767.0
761.0
759.0
756.0
756.0
758.0
759.0
760.0
764.0
767.0
769.0
774.0
781.0
783.0
789.0
793.0
798.0
807.0
816.0
824.0
833.0
843.0
847.0
849.0
854.0
856.0
859.0
862.0
866.0
870.0
873.0
877.0
877.0
880.0
881.0
881.0
882.0
883.0
883.0
884.0
885.0
886.0
888.0
889.0
892.0
893.0
893.0
889.0
891.0
891.0
891.0
890.0
891.0
893.0
896.0
899.0
899.0
900.0
902.0
902.0
904.0
902.0
903.0
901.0
904.0
903.0
904.0
904.0
905.0
904.0
905.0
906.0
905.0
904.0
904.0
903.0
904.0
904.0
904.0
905.0
906.0
904.0
904.0
903.0
901.0
901.0
899.0
899.0
901.0
901.0
902.0
905.0
904.0
906.0
903.0
903.0
904.0
900.0
902.0
902.0
903.0
905.0
906.0
912.0
914.0
914.0
915.0
913.0
913.0
910.0
911.0
908.0
905.0
899.0
894.0
890.0
896.0
910.0
938.0
973.0
1020.0
1078.0
1143.0
1215.0
1279.0
1328.0
1360.0
1371.0
1367.0
1345.0
1303.0
1230.0
1125.0
1011.0
915.0
862.0
844.0
852.0
875.0
893.0
904.0
904.0
899.0
892.0
881.0
877.0
874.0
873.0
877.0
879.0
880.0
879.0
880.0
878.0
879.0
876.0
878.0
874.0
873.0
871.0
869.0
872.0
872.0
871.0
872.0
865.0
865.0
862.0
860.0
858.0
856.0
856.0
853.0
854.0
856.0
855.0
857.0
856.0
854.0
851.0
850.0
849.0
847.0
843.0
841.0
840.0
839.0
838.0
839.0
838.0
837.0
839.0
834.0
832.0
830.0
826.0
827.0
826.0
826.0
825.0
825.0
825.0
822.0
820.0
816.0
813.0
811.0
810.0
809.0
809.0
810.0
809.0
810.0
808.0
808.0
806.0
804.0
803.0
802.0
801.0
802.0
805.0
808.0
814.0
817.0
821.0
827.0
832.0
837.0
841.0
847.0
853.0
856.0
861.0
866.0
871.0
877.0
884.0
882.0
881.0
883.0
882.0
879.0
879.0
879.0
883.0
888.0
888.0
890.0
889.0
890.0
889.0
889.0
888.0
887.0
885.0
887.0
886.0
887.0
886.0
889.0
890.0
892.0
888.0
888.0
890.0
891.0
892.0
894.0
895.0
899.0
901.0
903.0
901.0
902.0
902.0
900.0
903.0
901.0
901.0
903.0
904.0
905.0
907.0
908.0
911.0
910.0
909.0
908.0
907.0
907.0
907.0
911.0
914.0
914.0
914.0
919.0
917.0
916.0
915.0
912.0
912.0
907.0
906.0
904.0
905.0
906.0
905.0
905.0
905.0
905.0
903.0
903.0
900.0
896.0
895.0
895.0
897.0
897.0
898.0
899.0
899.0
898.0
900.0
897.0
898.0
897.0
897.0
898.0
900.0
901.0
900.0
900.0
905.0
907.0
906.0
903.0
905.0
904.0
899.0
892.0
888.0
889.0
892.0
908.0
935.0
975.0
1023.0
1078.0
1142.0
1204.0
1266.0
1316.0
1349.0
1363.0
1361.0
1350.0
1324.0
1271.0
1187.0
1078.0
976.0
904.0
868.0
860.0
872.0
887.0
896.0
904.0
905.0
901.0
892.0
886.0
881.0
882.0
882.0
881.0
879.0
875.0
873.0
870.0
869.0
866.0
864.0
862.0
860.0
856.0
855.0
856.0
854.0
855.0
857.0
857.0
853.0
850.0
847.0
845.0
842.0
840.0
837.0
837.0
837.0
833.0
836.0
836.0
835.0
833.0
831.0
831.0
835.0
834.0
834.0
834.0
835.0
838.0
839.0
839.0
840.0
841.0
838.0
838.0
833.0
832.0
829.0
829.0
830.0
828.0
825.0
825.0
821.0
817.0
812.0
805.0
801.0
798.0
792.0
790.0
787.0
784.0
786.0
782.0
778.0
774.0
771.0
766.0
762.0
762.0
762.0
766.0
770.0
779.0
784.0
791.0
796.0
803.0
809.0
814.0
819.0
826.0
830.0
837.0
842.0
853.0
858.0
863.0
867.0
870.0
869.0
871.0
872.0
874.0
876.0
880.0
883.0
888.0
889.0
891.0
892.0
894.0
895.0
898.0
897.0
897.0
895.0
900.0
900.0
902.0
903.0
905.0
905.0
904.0
901.0
897.0
899.0
897.0
895.0
897.0
