# Simple Text Format
# Sampling Rate (Hz):= 360.00
# Resolution:= 12
# Labels:= ECG
892.0
858.0
848.0
854.0
868.0
879.0
884.0
885.0
882.0
878.0
875.0
872.0
871.0
869.0
867.0
865.0
864.0
861.0
862.0
860.0
860.0
860.0
860.0
858.0
855.0
851.0
849.0
847.0
845.0
845.0
846.0
847.0
848.0
849.0
847.0
844.0
842.0
836.0
833.0
834.0
831.0
831.0
831.0
834.0
832.0
838.0
839.0
839.0
837.0
837.0
836.0
833.0
834.0
832.0
835.0
833.0
832.0
831.0
830.0
829.0
826.0
822.0
821.0
819.0
818.0
816.0
814.0
813.0
812.0
811.0
808.0
808.0
804.0
800.0
798.0
793.0
790.0
788.0
786.0
786.0
785.0
783.0
783.0
780.0
777.0
771.0
772.0
770.0
766.0
770.0
768.0
772.0
776.0
777.0
780.0
784.0
788.0
789.0
792.0
794.0
800.0
804.0
810.0
815.0
821.0
829.0
835.0
840.0
845.0
851.0
855.0
856.0
860.0
862.0
867.0
868.0
868.0
871.0
870.0
871.0
871.0
871.0
868.0
868.0
868.0
871.0
873.0
877.0
877.0
878.0
879.0
881.0
881.0
881.0
879.0
881.0
880.0
880.0
883.0
885.0
884.0
887.0
889.0
887.0
886.0
887.0
884.0
885.0
884.0
884.0
885.0
886.0
885.0
886.0
885.0
881.0
879.0
877.0
875.0
873.0
872.0
873.0
873.0
875.0
875.0
878.0
879.0
878.0
877.0
877.0
877.0
879.0
880.0
882.0
884.0
885.0
886.0
886.0
886.0
881.0
879.0
878.0
876.0
875.0
872.0
873.0
874.0
878.0
878.0
878.0
878.0
878.0
877.0
874.0
875.0
875.0
875.0
873.0
877.0
876.0
877.0
879.0
879.0
878.0
876.0
877.0
874.0
873.0
873.0
872.0
873.0
873.0
867.0
869.0
870.0
869.0
868.0
869.0
871.0
871.0
871.0
874.0
874.0
879.0
881.0
882.0
882.0
882.0
882.0
878.0
878.0
879.0
877.0
877.0
877.0
879.0
880.0
881.0
878.0
879.0
879.0
877.0
877.0
875.0
876.0
876.0
880.0
880.0
879.0
880.0
883.0
881.0
880.0
879.0
879.0
878.0
878.0
880.0
880.0
879.0
881.0
883.0
884.0
882.0
883.0
880.0
880.0
879.0
880.0
879.0
881.0
883.0
886.0
887.0
888.0
886.0
884.0
879.0
877.0
885.0
902.0
929.0
967.0
1018.0
1070.0
1127.0
1183.0
1232.0
1269.0
1289.0
1294.0
1282.0
1266.0
1234.0
1183.0
1106.0
1018.0
939.0
883.0
855.0
850.0
854.0
863.0
869.0
875.0
871.0
870.0
866.0
862.0
861.0
862.0
862.0
860.0
855.0
856.0
852.0
849.0
848.0
849.0
850.0
849.0
847.0
845.0
839.0
838.0
833.0
832.0
829.0
828.0
830.0
830.0
829.0
827.0
830.0
830.0
832.0
831.0
830.0
828.0
826.0
824.0
824.0
825.0
826.0
826.0
826.0
823.0
821.0
822.0
818.0
815.0
812.0
810.0
809.0
807.0
811.0
809.0
809.0
805.0
805.0
803.0
801.0
799.0
794.0
790.0
789.0
788.0
788.0
787.0
786.0
786.0
782.0
780.0
777.0
772.0
768.0
763.0
761.0
757.0
755.0
755.0
754.0
754.0
754.0
751.0
750.0
751.0
754.0
759.0
764.0
769.0
778.0
783.0
792.0
796.0
802.0
810.0
817.0
823.0
829.0
834.0
838.0
844.0
848.0
853.0
859.0
860.0
865.0
867.0
866.0
867.0
867.0
867.0
869.0
871.0
875.0
877.0
878.0
881.0
878.0
877.0
876.0
877.0
875.0
877.0
876.0
880.0
883.0
883.0
886.0
885.0
887.0
884.0
881.0
879.0
877.0
877.0
876.0
875.0
883.0
881.0
881.0
880.0
879.0
878.0
877.0
878.0
879.0
881.0
883.0
887.0
888.0
891.0
897.0
900.0
898.0
898.0
901.0
898.0
896.0
895.0
893.0
894.0
893.0
894.0
896.0
895.0
892.0
894.0
891.0
889.0
886.0
887.0
888.0
886.0
888.0
888.0
888.0
889.0
888.0
888.0
886.0
885.0
885.0
884.0
883.0
881.0
883.0
885.0
887.0
886.0
885.0
884.0
882.0
877.0
875.0
872.0
871.0
871.0
870.0
875.0
875.0
876.0
876.0
880.0
881.0
882.0
883.0
885.0
885.0
887.0
891.0
894.0
895.0
894.0
893.0
894.0
892.0
888.0
889.0
885.0
885.0
886.0
889.0
888.0
891.0
890.0
890.0
892.0
890.0
887.0
886.0
885.0
889.0
890.0
890.0
890.0
892.0
894.0
893.0
893.0
892.0
892.0
890.0
889.0
891.0
890.0
890.0
892.0
892.0
892.0
891.0
887.0
882.0
878.0
878.0
886.0
901.0
928.0
968.0
1013.0
1066.0
1121.0
1175.0
1225.0
1260.0
1279.0
1284.0
1274.0
1255.0
1221.0
1169.0
1095.0
1007.0
928.0
876.0
851.0
848.0
859.0
872.0
881.0
886.0
886.0
881.0
874.0
871.0
867.0
867.0
868.0
867.0
864.0
864.0
860.0
859.0
859.0
860.0
860.0
860.0
862.0
862.0
859.0
857.0
856.0
854.0
856.0
856.0
857.0
857.0
858.0
860.0
858.0
858.0
855.0
852.0
849.0
847.0
845.0
846.0
845.0
844.0
838.0
837.0
834.0
827.0
827.0
822.0
821.0
822.0
821.0
819.0
821.0
822.0
823.0
823.0
824.0
823.0
820.0
818.0
814.0
810.0
809.0
807.0
802.0
803.0
801.0
802.0
799.0
796.0
792.0
788.0
784.0
781.0
776.0
774.0
771.0
772.0
771.0
771.0
767.0
763.0
760.0
758.0
757.0
755.0
754.0
755.0
757.0
761.0
765.0
769.0
771.0
777.0
784.0
790.0
796.0
805.0
814.0
818.0
825.0
831.0
837.0
840.0
844.0
846.0
847.0
849.0
850.0
857.0
857.0
859.0
862.0
869.0
871.0
876.0
878.0
878.0
879.0
878.0
877.0
876.0
875.0
873.0
875.0
877.0
877.0
879.0
878.0
880.0
877.0
876.0
877.0
876.0
874.0
874.0
872.0
875.0
877.0
879.0
881.0
879.0
880.0
876.0
876.0
875.0
878.0
880.0
881.0
882.0
883.0
886.0
888.0
886.0
886.0
886.0
882.0
881.0
883.0
883.0
884.0
885.0
886.0
886.0
885.0
887.0
887.0
887.0
888.0
888.0
889.0
889.0
891.0
893.0
893.0
894.0
897.0
898.0
898.0
896.0
896.0
895.0
894.0
896.0
895.0
897.0
897.0
897.0
897.0
893.0
893.0
891.0
889.0
889.0
889.0
889.0
889.0
890.0
889.0
887.0
882.0
878.0
873.0
879.0
891.0
917.0
956.0
1003.0
1057.0
1120.0
1184.0
1240.0
1285.0
1309.0
1319.0
1309.0
1291.0
1256.0
1198.0
1114.0
1016.0
930.0
872.0
853.0
850.0
861.0
872.0
882.0
885.0
883.0
878.0
874.0
872.0
872.0
875.0
879.0
877.0
875.0
873.0
873.0
868.0
866.0
865.0
863.0
863.0
865.0
861.0
863.0
862.0
857.0
855.0
851.0
848.0
845.0
843.0
844.0
843.0
842.0
841.0
840.0
839.0
837.0
834.0
831.0
828.0
824.0
824.0
823.0
821.0
822.0
822.0
825.0
823.0
824.0
822.0
819.0
815.0
815.0
814.0
815.0
814.0
817.0
814.0
816.0
816.0
814.0
809.0
807.0
803.0
801.0
797.0
798.0
799.0
797.0
796.0
793.0
793.0
789.0
783.0
779.0
775.0
775.0
772.0
770.0
768.0
766.0
769.0
771.0
769.0
770.0
773.0
773.0
779.0
782.0
787.0
793.0
800.0
807.0
815.0
820.0
823.0
830.0
835.0
838.0
839.0
842.0
844.0
847.0
850.0
855.0
861.0
865.0
867.0
868.0
868.0
868.0
867.0
870.0
871.0
871.0
870.0
874.0
877.0
875.0
878.0
879.0
882.0
882.0
882.0
883.0
882.0
882.0
883.0
884.0
885.0
887.0
887.0
886.0
886.0
884.0
885.0
881.0
878.0
877.0
875.0
877.0
877.0
879.0
878.0
879.0
876.0
876.0
874.0
871.0
869.0
870.0
872.0
872.0
873.0
875.0
875.0
874.0
872.0
873.0
870.0
870.0
872.0
871.0
875.0
874.0
874.0
876.0
876.0
876.0
877.0
877.0
874.0
875.0
875.0
877.0
878.0
877.0
879.0
881.0
882.0
882.0
881.0
880.0
880.0
881.0
876.0
878.0
876.0
880.0
877.0
877.0
877.0
873.0
875.0
875.0
875.0
874.0
874.0
877.0
879.0
879.0
876.0
880.0
878.0
878.0
876.0
874.0
872.0
870.0
868.0
868.0
871.0
873.0
875.0
877.0
877.0
879.0
875.0
875.0
872.0
872.0
871.0
873.0
874.0
875.0
877.0
878.0
879.0
877.0
877.0
876.0
876.0
876.0
876.0
878.0
878.0
880.0
882.0
884.0
882.0
881.0
880.0
882.0
880.0
879.0
877.0
876.0
879.0
881.0
881.0
880.0
881.0
879.0
877.0
879.0
877.0
874.0
874.0
873.0
872.0
872.0
873.0
875.0
876.0
874.0
874.0
875.0
871.0
874.0
874.0
873.0
873.0
873.0
875.0
877.0
880.0
875.0
874.0
873.0
872.0
872.0
874.0
874.0
873.0
874.0
878.0
881.0
881.0
876.0
874.0
872.0
872.0
870.0
869.0
872.0
873.0
873.0
874.0
877.0
879.0
879.0
876.0
875.0
875.0
873.0
873.0
874.0
872.0
876.0
875.0
876.0
875.0
876.0
880.0
877.0
875.0
876.0
875.0
876.0
877.0
879.0
877.0
878.0
879.0
876.0
874.0
873.0
871.0
871.0
870.0
870.0
870.0
874.0
873.0
875.0
877.0
875.0
879.0
878.0
879.0
877.0
877.0
878.0
880.0
881.0
884.0
886.0
887.0
886.0
886.0
885.0
883.0
878.0
876.0
873.0
868.0
865.0
862.0
874.0
897.0
925.0
964.0
1007.0
1062.0
1120.0
1177.0
1230.0
1270.0
1296.0
1302.0
1298.0
1278.0
1245.0
1188.0
1102.0
1006.0
917.0
862.0
836.0
832.0
848.0
862.0
874.0
876.0
874.0
869.0
860.0
853.0
847.0
845.0
845.0
846.0
844.0
843.0
844.0
843.0
842.0
841.0
840.0
840.0
837.0
836.0
835.0
837.0
835.0
835.0
837.0
837.0
835.0
833.0
832.0
831.0
828.0
826.0
826.0
825.0
825.0
821.0
822.0
821.0
819.0
817.0
817.0
814.0
813.0
811.0
811.0
812.0
814.0
812.0
814.0
815.0
815.0
817.0
819.0
819.0
818.0
818.0
819.0
815.0
818.0
817.0
815.0
813.0
806.0
803.0
797.0
794.0
791.0
789.0
787.0
786.0
785.0
783.0
782.0
779.0
777.0
773.0
767.0
761.0
758.0
753.0
754.0
752.0
751.0
748.0
750.0
745.0
746.0
744.0
744.0
743.0
744.0
746.0
748.0
753.0
757.0
761.0
765.0
772.0
779.0
786.0
786.0
793.0
799.0
804.0
809.0
815.0
820.0
829.0
835.0
838.0
838.0
845.0
846.0
849.0
850.0
856.0
860.0
862.0
866.0
868.0
870.0
874.0
877.0
876.0
879.0
879.0
877.0
879.0
879.0
879.0
881.0
884.0
886.0
887.0
884.0
885.0
888.0
887.0
885.0
882.0
881.0
878.0
880.0
881.0
880.0
883.0
885.0
886.0
885.0
882.0
882.0
880.0
883.0
880.0
879.0
881.0
880.0
885.0
883.0
882.0
878.0
875.0
875.0
875.0
874.0
877.0
876.0
878.0
880.0
879.0
879.0
879.0
878.0
879.0
876.0
877.0
879.0
880.0
881.0
879.0
885.0
887.0
886.0
884.0
884.0
884.0
880.0
880.0
881.0
882.0
883.0
887.0
888.0
886.0
885.0
883.0
882.0
876.0
874.0
875.0
876.0
875.0
876.0
876.0
877.0
878.0
878.0
879.0
875.0
874.0
873.0
873.0
874.0
873.0
872.0
871.0
874.0
877.0
876.0
872.0
870.0
867.0
865.0
862.0
863.0
862.0
863.0
865.0
866.0
868.0
871.0
872.0
873.0
875.0
874.0
874.0
876.0
875.0
877.0
880.0
882.0
883.0
885.0
886.0
884.0
883.0
882.0
880.0
882.0
883.0
886.0
887.0
890.0
891.0
891.0
891.0
891.0
885.0
882.0
876.0
875.0
874.0
886.0
909.0
944.0
989.0
1043.0
1101.0
1164.0
1220.0
1269.0
1301.0
1316.0
1315.0
1301.0
1271.0
1223.0
1151.0
1056.0
957.0
880.0
836.0
822.0
828.0
841.0
854.0
862.0
862.0
858.0
853.0
850.0
851.0
850.0
853.0
852.0
852.0
854.0
853.0
852.0
851.0
851.0
852.0
850.0
852.0
850.0
850.0
846.0
846.0
848.0
846.0
846.0
847.0
847.0
845.0
843.0
842.0
839.0
835.0
830.0
829.0
830.0
827.0
827.0
825.0
826.0
825.0
823.0
820.0
815.0
814.0
811.0
811.0
811.0
810.0
808.0
809.0
809.0
810.0
806.0
803.0
801.0
799.0
795.0
793.0
792.0
793.0
792.0
792.0
794.0
796.0
796.0
794.0
790.0
785.0
785.0
784.0
783.0
781.0
779.0
775.0
775.0
770.0
766.0
760.0
761.0
758.0
756.0
754.0
757.0
758.0
762.0
764.0
767.0
772.0
775.0
782.0
787.0
791.0
794.0
799.0
803.0
807.0
815.0
820.0
825.0
831.0
836.0
839.0
841.0
842.0
843.0
845.0
846.0
848.0
851.0
853.0
855.0
857.0
858.0
859.0
855.0
855.0
855.0
857.0
859.0
860.0
861.0
865.0
867.0
870.0
868.0
869.0
867.0
869.0
869.0
874.0
877.0
880.0
882.0
886.0
889.0
890.0
890.0
890.0
889.0
888.0
887.0
885.0
886.0
883.0
885.0
886.0
886.0
887.0
885.0
884.0
884.0
883.0
882.0
881.0
878.0
881.0
881.0
883.0
886.0
885.0
884.0
883.0
880.0
878.0
875.0
877.0
877.0
873.0
878.0
877.0
879.0
882.0
882.0
880.0
878.0
876.0
874.0
875.0
875.0
878.0
878.0
879.0
881.0
883.0
881.0
880.0
880.0
877.0
876.0
876.0
876.0
876.0
876.0
874.0
875.0
874.0
875.0
874.0
874.0
875.0
875.0
876.0
877.0
879.0
881.0
881.0
883.0
886.0
885.0
886.0
885.0
884.0
885.0
885.0
885.0
885.0
884.0
885.0
886.0
888.0
887.0
887.0
885.0
882.0
880.0
881.0
882.0
882.0
883.0
882.0
883.0
883.0
883.0
882.0
881.0
878.0
877.0
876.0
877.0
877.0
878.0
879.0
879.0
880.0
883.0
882.0
881.0
880.0
881.0
881.0
883.0
882.0
883.0
884.0
884.0
883.0
882.0
880.0
876.0
874.0
870.0
869.0
870.0
870.0
871.0
873.0
878.0
881.0
885.0
890.0
889.0
892.0
889.0
889.0
891.0
888.0
893.0
894.0
894.0
898.0
894.0
896.0
894.0
893.0
889.0
888.0
889.0
888.0
891.0
892.0
892.0
893.0
893.0
888.0
887.0
885.0
886.0
884.0
883.0
882.0
883.0
885.0
885.0
887.0
887.0
889.0
888.0
888.0
886.0
883.0
884.0
880.0
883.0
879.0
878.0
878.0
874.0
874.0
869.0
870.0
869.0
866.0
867.0
869.0
874.0
880.0
883.0
887.0
887.0
889.0
890.0
890.0
888.0
889.0
894.0
894.0
897.0
898.0
897.0
897.0
893.0
887.0
884.0
889.0
905.0
934.0
976.0
1028.0
1086.0
1147.0
1208.0
1260.0
1296.0
1319.0
1326.0
1318.0
1302.0
1271.0
1217.0
1141.0
1045.0
957.0
896.0
864.0
857.0
860.0
870.0
877.0
879.0
876.0
874.0
866.0
861.0
857.0
861.0
861.0
858.0
857.0
851.0
848.0
845.0
842.0
841.0
841.0
845.0
849.0
852.0
854.0
854.0
854.0
851.0
850.0
845.0
846.0
847.0
848.0
848.0
848.0
849.0
848.0
850.0
849.0
846.0
844.0
842.0
838.0
839.0
837.0
838.0
839.0
838.0
840.0
838.0
837.0
832.0
830.0
827.0
824.0
821.0
819.0
817.0
818.0
820.0
818.0
813.0
814.0
813.0
812.0
809.0
806.0
803.0
801.0
800.0
799.0
797.0
795.0
792.0
790.0
784.0
780.0
775.0
770.0
767.0
761.0
759.0
755.0
753.0
751.0
747.0
748.0
745.0
747.0
744.0
745.0
748.0
751.0
757.0
758.0
764.0
770.0
774.0
781.0
788.0
791.0
795.0
800.0
806.0
813.0
819.0
824.0
831.0
837.0
840.0
845.0
848.0
849.0
852.0
853.0
857.0
860.0
866.0
867.0
874.0
875.0
877.0
878.0
879.0
878.0
878.0
876.0
876.0
879.0
879.0
881.0
882.0
886.0
884.0
884.0
881.0
883.0
886.0
881.0
883.0
884.0
888.0
890.0
890.0
889.0
889.0
889.0
891.0
889.0
890.0
890.0
892.0
893.0
897.0
900.0
902.0
906.0
907.0
910.0
907.0
908.0
906.0
906.0
906.0
905.0
905.0
904.0
908.0
908.0
905.0
907.0
903.0
901.0
899.0
896.0
898.0
898.0
899.0
901.0
902.0
901.0
899.0
895.0
891.0
889.0
898.0
918.0
953.0
1000.0
1054.0
1109.0
1165.0
1219.0
1263.0
1296.0
1316.0
1320.0
1311.0
1292.0
1262.0
1214.0
1138.0
1043.0
958.0
899.0
867.0
858.0
864.0
874.0
881.0
884.0
886.0
886.0
882.0
882.0
884.0
887.0
885.0
884.0
883.0
881.0
878.0
873.0
873.0
868.0
869.0
867.0
869.0
868.0
866.0
865.0
862.0
858.0
855.0
851.0
851.0
851.0
848.0
850.0
850.0
850.0
851.0
847.0
847.0
844.0
841.0
840.0
841.0
842.0
840.0
843.0
843.0
841.0
841.0
841.0
837.0
835.0
830.0
828.0
825.0
824.0
822.0
823.0
825.0
825.0
824.0
825.0
823.0
822.0
821.0
822.0
819.0
818.0
820.0
819.0
818.0
818.0
816.0
814.0
813.0
810.0
807.0
804.0
801.0
801.0
799.0
797.0
796.0
796.0
794.0
792.0
792.0
788.0
789.0
790.0
793.0
798.0
803.0
810.0
817.0
823.0
829.0
836.0
839.0
844.0
848.0
852.0
856.0
862.0
866.0
869.0
873.0
876.0
877.0
878.0
877.0
874.0
874.0
874.0
871.0
872.0
871.0
873.0
873.0
875.0
873.0
876.0
877.0
876.0
875.0
878.0
880.0
885.0
888.0
890.0
893.0
894.0
896.0
895.0
893.0
892.0
890.0
889.0
887.0
886.0
886.0
887.0
888.0
888.0
885.0
885.0
883.0
878.0
880.0
881.0
879.0
882.0
882.0
882.0
882.0
882.0
884.0
883.0
883.0
882.0
882.0
879.0
880.0
880.0
885.0
883.0
885.0
888.0
888.0
887.0
886.0
883.0
881.0
878.0
877.0
874.0
874.0
875.0
882.0
885.0
888.0
888.0
888.0
890.0
890.0
888.0
892.0
894.0
895.0
898.0
898.0
898.0
897.0
898.0
897.0
893.0
893.0
893.0
892.0
892.0
893.0
895.0
895.0
894.0
892.0
891.0
885.0
887.0
884.0
883.0
883.0
884.0
887.0
886.0
886.0
887.0
886.0
886.0
886.0
885.0
884.0
885.0
886.0
887.0
888.0
889.0
891.0
887.0
884.0
883.0
885.0
900.0
923.0
954.0
996.0
1041.0
1093.0
1148.0
1204.0
1253.0
1286.0
1301.0
1308.0
1297.0
1278.0
1241.0
1183.0
1105.0
1014.0
929.0
873.0
849.0
845.0
852.0
864.0
871.0
875.0
874.0
872.0
869.0
866.0
864.0
865.0
866.0
867.0
867.0
866.0
864.0
860.0
859.0
854.0
852.0
850.0
851.0
850.0
851.0
849.0
847.0
845.0
842.0
842.0
838.0
837.0
838.0
837.0
835.0
836.0
834.0
831.0
835.0
832.0
832.0
830.0
827.0
827.0
829.0
827.0
825.0
827.0
827.0
827.0
826.0
824.0
820.0
821.0
820.0
820.0
819.0
823.0
824.0
825.0
827.0
825.0
820.0
817.0
816.0
812.0
808.0
806.0
803.0
802.0
800.0
797.0
795.0
793.0
791.0
785.0
778.0
777.0
774.0
771.0
768.0
767.0
766.0
765.0
765.0
766.0
766.0
765.0
765.0
768.0
768.0
768.0
777.0
780.0
786.0
792.0
800.0
806.0
810.0
816.0
819.0
823.0
825.0
832.0
839.0
844.0
851.0
855.0
859.0
862.0
867.0
869.0
868.0
872.0
872.0
875.0
875.0
879.0
881.0
881.0
882.0
882.0
883.0
884.0
883.0
882.0
882.0
883.0
884.0
884.0
885.0
888.0
890.0
890.0
892.0
893.0
893.0
888.0
886.0
888.0
888.0
890.0
891.0
891.0
893.0
891.0
890.0
890.0
887.0
883.0
880.0
879.0
876.0
878.0
880.0
881.0
885.0
883.0
886.0
883.0
881.0
881.0
882.0
884.0
888.0
888.0
890.0
892.0
894.0
893.0
893.0
893.0
894.0
893.0
891.0
892.0
895.0
895.0
897.0
898.0
896.0
894.0
895.0
891.0
890.0
890.0
886.0
887.0
890.0
893.0
891.0
892.0
892.0
893.0
891.0
887.0
887.0
884.0
884.0
884.0
885.0
886.0
887.0
885.0
886.0
886.0
884.0
886.0
884.0
884.0
883.0
883.0
884.0
886.0
886.0
887.0
890.0
891.0
889.0
888.0
888.0
888.0
888.0
890.0
891.0
894.0
894.0
896.0
897.0
895.0
896.0
896.0
896.0
895.0
895.0
892.0
892.0
894.0
895.0
898.0
899.0
900.0
897.0
898.0
896.0
894.0
892.0
891.0
894.0
896.0
894.0
895.0
897.0
896.0
893.0
894.0
894.0
893.0
893.0
894.0
892.0
894.0
894.0
895.0
896.0
894.0
893.0
892.0
890.0
892.0
890.0
891.0
894.0
894.0
895.0
896.0
896.0
895.0
896.0
897.0
895.0
895.0
893.0
894.0
894.0
893.0
892.0
894.0
896.0
896.0
896.0
894.0
893.0
894.0
893.0
893.0
893.0
895.0
896.0
895.0
898.0
896.0
895.0
894.0
892.0
891.0
890.0
888.0
890.0
890.0
891.0
893.0
891.0
893.0
891.0
890.0
886.0
887.0
886.0
885.0
885.0
886.0
887.0
888.0
889.0
891.0
893.0
892.0
894.0
893.0
893.0
896.0
895.0
896.0
898.0
899.0
900.0
901.0
903.0
901.0
903.0
902.0
902.0
904.0
906.0
906.0
906.0
905.0
903.0
900.0
897.0
896.0
898.0
914.0
941.0
978.0
1025.0
1081.0
1138.0
1195.0
1247.0
1289.0
1311.0
1318.0
1311.0
1291.0
1254.0
1193.0
1108.0
1012.0
933.0
881.0
859.0
860.0
868.0
878.0
886.0
888.0
885.0
882.0
876.0
872.0
873.0
874.0
878.0
877.0
879.0
876.0
874.0
873.0
870.0
867.0
868.0
869.0
870.0
870.0
871.0
870.0
869.0
866.0
864.0
862.0
860.0
860.0
856.0
857.0
857.0
856.0
855.0
851.0
850.0
845.0
844.0
841.0
840.0
839.0
838.0
838.0
836.0
835.0
833.0
832.0
829.0
824.0
821.0
819.0
817.0
816.0
818.0
816.0
818.0
817.0
815.0
811.0
812.0
811.0
807.0
804.0
800.0
799.0
797.0
797.0
796.0
794.0
792.0
791.0
787.0
787.0
782.0
779.0
776.0
774.0
773.0
773.0
772.0
773.0
772.0
774.0
776.0
775.0
775.0
776.0
778.0
783.0
787.0
791.0
799.0
808.0
817.0
824.0
833.0
838.0
840.0
848.0
851.0
858.0
863.0
863.0
867.0
871.0
875.0
878.0
882.0
885.0
887.0
889.0
888.0
886.0
888.0
889.0
893.0
892.0
894.0
894.0
893.0
895.0
895.0
896.0
893.0
896.0
896.0
897.0
898.0
898.0
899.0
895.0
899.0
897.0
896.0
895.0
895.0
896.0
894.0
896.0
898.0
900.0
900.0
902.0
900.0
901.0
899.0
901.0
901.0
899.0
899.0
899.0
904.0
908.0
909.0
910.0
910.0
909.0
911.0
907.0
905.0
906.0
905.0
907.0
910.0
912.0
913.0
914.0
914.0
914.0
911.0
910.0
908.0
908.0
907.0
906.0
909.0
906.0
909.0
909.0
909.0
907.0
905.0
903.0
903.0
901.0
900.0
901.0
904.0
904.0
906.0
904.0
904.0
901.0
898.0
896.0
895.0
896.0
896.0
897.0
898.0
899.0
900.0
900.0
900.0
898.0
898.0
900.0
897.0
898.0
898.0
901.0
899.0
899.0
902.0
900.0
899.0
898.0
897.0
898.0
895.0
893.0
894.0
893.0
895.0
894.0
897.0
899.0
901.0
901.0
898.0
897.0
899.0
899.0
901.0
899.0
902.0
902.0
901.0
900.0
899.0
897.0
895.0
897.0
895.0
896.0
897.0
897.0
898.0
902.0
904.0
906.0
904.0
904.0
905.0
901.0
901.0
900.0
904.0
904.0
907.0
906.0
910.0
910.0
907.0
903.0
902.0
900.0
897.0
896.0
897.0
911.0
930.0
966.0
1009.0
1059.0
1117.0
1175.0
1229.0
1274.0
1299.0
1311.0
1304.0
1282.0
1240.0
1179.0
1093.0
1003.0
929.0
885.0
871.0
871.0
881.0
890.0
896.0
896.0
893.0
888.0
884.0
879.0
878.0
875.0
874.0
871.0
869.0
868.0
865.0
866.0
867.0
867.0
870.0
870.0
868.0
867.0
864.0
864.0
857.0
858.0
857.0
858.0
858.0
859.0
859.0
857.0
858.0
857.0
856.0
854.0
853.0
853.0
854.0
853.0
850.0
850.0
852.0
851.0
850.0
849.0
848.0
847.0
845.0
844.0
844.0
846.0
844.0
843.0
843.0
842.0
840.0
838.0
833.0
828.0
823.0
820.0
819.0
816.0
817.0
814.0
813.0
813.0
809.0
806.0
803.0
800.0
796.0
793.0
792.0
790.0
791.0
790.0
789.0
790.0
788.0
786.0
783.0
779.0
780.0
780.0
781.0
784.0
788.0
790.0
797.0
799.0
804.0
809.0
813.0
818.0
824.0
830.0
835.0
840.0
845.0
850.0
856.0
860.0
866.0
866.0
868.0
870.0
871.0
873.0
876.0
877.0
880.0
884.0
885.0
885.0
885.0
885.0
883.0
882.0
881.0
882.0
884.0
885.0
886.0
887.0
891.0
891.0
891.0
892.0
894.0
890.0
889.0
891.0
891.0
891.0
893.0
895.0
896.0
894.0
896.0
896.0
893.0
893.0
892.0
893.0
894.0
893.0
894.0
896.0
895.0
894.0
894.0
891.0
891.0
888.0
887.0
889.0
890.0
893.0
893.0
896.0
896.0
898.0
899.0
895.0
894.0
895.0
891.0
894.0
895.0
895.0
894.0
897.0
896.0
896.0
898.0
898.0
894.0
896.0
898.0
898.0
895.0
897.0
897.0
898.0
900.0
902.0
901.0
901.0
902.0
900.0
899.0
899.0
902.0
901.0
903.0
907.0
908.0
909.0
907.0
906.0
905.0
906.0
902.0
900.0
902.0
902.0
901.0
900.0
904.0
911.0
927.0
953.0
986.0
1026.0
1070.0
1120.0
1174.0
1222.0
1263.0
1289.0
1300.0
1300.0
1287.0
1261.0
1218.0
1155.0
1074.0
987.0
921.0
877.0
864.0
869.0
879.0
890.0
894.0
895.0
894.0
889.0
885.0
883.0
883.0
884.0
885.0
883.0
884.0
882.0
878.0
877.0
874.0
874.0
870.0
869.0
870.0
870.0
871.0
872.0
873.0
873.0
869.0
868.0
865.0
861.0
859.0
859.0
857.0
855.0
856.0
853.0
855.0
854.0
851.0
848.0
845.0
843.0
843.0
841.0
840.0
840.0
842.0
843.0
844.0
842.0
843.0
843.0
840.0
836.0
834.0
833.0
834.0
830.0
833.0
831.0
834.0
833.0
833.0
829.0
825.0
822.0
818.0
816.0
814.0
813.0
814.0
814.0
813.0
809.0
806.0
803.0
797.0
795.0
791.0
790.0
787.0
785.0
786.0
789.0
790.0
793.0
795.0
798.0
800.0
806.0
811.0
816.0
819.0
827.0
834.0
839.0
845.0
849.0
852.0
857.0
860.0
863.0
864.0
867.0
869.0
870.0
872.0
873.0
876.0
880.0
881.0
880.0
881.0
879.0
880.0
880.0
882.0
884.0
886.0
887.0
888.0
889.0
889.0
890.0
888.0
889.0
890.0
890.0
895.0
895.0
896.0
898.0
900.0
899.0
898.0
896.0
894.0
893.0
891.0
892.0
890.0
890.0
891.0
892.0
894.0
889.0
891.0
890.0
887.0
889.0
887.0
888.0
890.0
890.0
891.0
891.0
891.0
892.0
892.0
888.0
888.0
887.0
886.0
883.0
884.0
883.0
885.0
886.0
886.0
889.0
886.0
886.0
882.0
882.0
880.0
881.0
882.0
883.0
885.0
886.0
888.0
888.0
888.0
889.0
889.0
888.0
886.0
885.0
886.0
886.0
890.0
888.0
890.0
889.0
888.0
888.0
885.0
884.0
884.0
883.0
884.0
884.0
886.0
888.0
890.0
890.0
890.0
890.0
888.0
889.0
887.0
885.0
885.0
887.0
886.0
887.0
886.0
889.0
889.0
889.0
887.0
885.0
886.0
885.0
882.0
886.0
886.0
886.0
889.0
889.0
889.0
887.0
888.0
887.0
887.0
888.0
889.0
888.0
892.0
892.0
895.0
896.0
894.0
895.0
893.0
890.0
892.0
892.0
888.0
889.0
890.0
891.0
894.0
894.0
893.0
891.0
889.0
891.0
891.0
887.0
888.0
888.0
888.0
889.0
891.0
889.0
888.0
889.0
888.0
888.0
888.0
884.0
886.0
888.0
889.0
887.0
888.0
889.0
889.0
886.0
887.0
886.0
887.0
884.0
882.0
882.0
884.0
884.0
885.0
886.0
884.0
885.0
886.0
886.0
885.0
886.0
886.0
886.0
888.0
889.0
889.0
891.0
890.0
892.0
891.0
891.0
888.0
888.0
891.0
890.0
895.0
897.0
896.0
896.0
892.0
893.0
888.0
887.0
887.0
888.0
890.0
894.0
897.0
899.0
900.0
901.0
899.0
899.0
897.0
897.0
896.0
894.0
894.0
895.0
896.0
892.0
896.0
894.0
892.0
891.0
891.0
888.0
889.0
888.0
890.0
890.0
891.0
892.0
894.0
893.0
891.0
891.0
890.0
893.0
889.0
888.0
894.0
894.0
895.0
898.0
898.0
896.0
896.0
896.0
895.0
892.0
891.0
891.0
889.0
890.0
891.0
891.0
893.0
892.0
893.0
892.0
893.0
894.0
895.0
897.0
898.0
900.0
904.0
904.0
906.0
907.0
906.0
908.0
907.0
906.0
903.0
899.0
896.0
893.0
890.0
890.0
900.0
918.0
948.0
988.0
1034.0
1089.0
1147.0
1208.0
1262.0
1306.0
1331.0
1341.0
1337.0
1321.0
