# Simple Text Format
# Sampling Rate (Hz):= 360.00
# Resolution:= 12
# Labels:= ECG
816.0
812.0
812.0
807.0
806.0
804.0
801.0
798.0
793.0
788.0
784.0
779.0
775.0
776.0
776.0
774.0
775.0
775.0
773.0
772.0
774.0
776.0
777.0
781.0
787.0
794.0
802.0
808.0
817.0
824.0
828.0
837.0
842.0
846.0
849.0
854.0
859.0
863.0
869.0
877.0
883.0
890.0
895.0
897.0
898.0
900.0
901.0
901.0
903.0
905.0
906.0
911.0
914.0
916.0
918.0
918.0
919.0
920.0
921.0
920.0
921.0
923.0
923.0
925.0
929.0
932.0
932.0
930.0
929.0
927.0
927.0
924.0
926.0
926.0
928.0
929.0
931.0
931.0
931.0
933.0
930.0
927.0
926.0
923.0
920.0
917.0
915.0
915.0
916.0
915.0
914.0
915.0
917.0
915.0
918.0
920.0
921.0
923.0
925.0
927.0
932.0
934.0
934.0
936.0
936.0
933.0
933.0
933.0
934.0
933.0
935.0
934.0
933.0
938.0
934.0
935.0
932.0
930.0
929.0
929.0
927.0
926.0
929.0
928.0
928.0
928.0
929.0
929.0
928.0
926.0
924.0
923.0
922.0
923.0
920.0
917.0
921.0
924.0
921.0
920.0
920.0
914.0
913.0
913.0
915.0
915.0
915.0
919.0
918.0
918.0
919.0
920.0
918.0
916.0
915.0
916.0
918.0
921.0
925.0
927.0
931.0
934.0
932.0
933.0
933.0
930.0
930.0
929.0
930.0
932.0
935.0
935.0
936.0
934.0
932.0
929.0
928.0
936.0
954.0
987.0
1030.0
1084.0
1150.0
1216.0
1283.0
1340.0
1376.0
1397.0
1397.0
1380.0
1348.0
1287.0
1196.0
1084.0
979.0
906.0
872.0
868.0
880.0
899.0
912.0
916.0
913.0
910.0
903.0
897.0
896.0
897.0
900.0
900.0
902.0
901.0
898.0
897.0
897.0
897.0
898.0
897.0
899.0
900.0
903.0
906.0
904.0
903.0
900.0
896.0
894.0
895.0
895.0
891.0
891.0
891.0
894.0
895.0
892.0
891.0
892.0
890.0
887.0
885.0
882.0
881.0
881.0
881.0
884.0
883.0
880.0
878.0
877.0
870.0
866.0
863.0
862.0
858.0
856.0
855.0
854.0
855.0
852.0
851.0
847.0
843.0
840.0
836.0
838.0
836.0
835.0
835.0
835.0
832.0
833.0
830.0
827.0
821.0
821.0
819.0
817.0
816.0
818.0
821.0
820.0
821.0
823.0
824.0
827.0
828.0
834.0
838.0
846.0
852.0
862.0
867.0
873.0
879.0
886.0
892.0
895.0
896.0
897.0
900.0
906.0
907.0
911.0
916.0
919.0
918.0
916.0
915.0
913.0
911.0
910.0
912.0
911.0
909.0
913.0
912.0
915.0
917.0
919.0
920.0
919.0
919.0
918.0
915.0
916.0
915.0
916.0
919.0
921.0
925.0
926.0
927.0
927.0
926.0
925.0
924.0
923.0
922.0
920.0
922.0
923.0
923.0
924.0
927.0
924.0
924.0
923.0
920.0
921.0
920.0
921.0
920.0
919.0
922.0
921.0
921.0
920.0
921.0
922.0
922.0
922.0
922.0
925.0
924.0
928.0
929.0
930.0
931.0
930.0
930.0
927.0
927.0
931.0
932.0
934.0
938.0
937.0
938.0
936.0
937.0
932.0
931.0
931.0
929.0
930.0
929.0
931.0
933.0
933.0
931.0
931.0
931.0
930.0
926.0
925.0
921.0
922.0
920.0
920.0
921.0
922.0
921.0
921.0
918.0
916.0
913.0
911.0
909.0
910.0
910.0
910.0
910.0
911.0
912.0
913.0
913.0
912.0
915.0
913.0
908.0
912.0
915.0
917.0
919.0
920.0
922.0
924.0
926.0
930.0
930.0
929.0
928.0
929.0
930.0
932.0
934.0
934.0
935.0
934.0
936.0
934.0
931.0
931.0
927.0
927.0
926.0
925.0
925.0
924.0
924.0
920.0
919.0
919.0
913.0
912.0
910.0
911.0
912.0
911.0
913.0
915.0
917.0
918.0
917.0
915.0
913.0
911.0
912.0
911.0
910.0
911.0
909.0
912.0
914.0
915.0
915.0
916.0
917.0
917.0
919.0
917.0
919.0
918.0
922.0
923.0
924.0
926.0
928.0
926.0
925.0
927.0
925.0
928.0
926.0
926.0
928.0
928.0
930.0
928.0
926.0
924.0
924.0
922.0
920.0
919.0
918.0
920.0
920.0
921.0
920.0
921.0
921.0
918.0
914.0
914.0
909.0
910.0
911.0
909.0
911.0
913.0
913.0
914.0
913.0
912.0
909.0
906.0
905.0
906.0
905.0
904.0
907.0
909.0
913.0
916.0
916.0
918.0
916.0
915.0
916.0
914.0
917.0
917.0
920.0
921.0
922.0
923.0
924.0
921.0
923.0
924.0
923.0
926.0
927.0
927.0
927.0
928.0
927.0
926.0
925.0
923.0
920.0
919.0
918.0
918.0
918.0
922.0
923.0
924.0
925.0
929.0
926.0
927.0
924.0
923.0
921.0
919.0
917.0
918.0
918.0
917.0
920.0
919.0
919.0
916.0
911.0
902.0
895.0
894.0
902.0
924.0
958.0
1001.0
1051.0
1109.0
1171.0
1234.0
1291.0
1338.0
1367.0
1383.0
1383.0
1373.0
1354.0
1319.0
1259.0
1172.0
1063.0
972.0
908.0
880.0
878.0
886.0
898.0
907.0
912.0
911.0
908.0
905.0
897.0
893.0
890.0
888.0
889.0
889.0
889.0
890.0
889.0
890.0
890.0
889.0
889.0
887.0
885.0
882.0
884.0
883.0
885.0
885.0
885.0
884.0
883.0
885.0
886.0
882.0
879.0
877.0
876.0
872.0
873.0
872.0
872.0
874.0
872.0
873.0
869.0
867.0
867.0
865.0
865.0
866.0
864.0
862.0
866.0
865.0
866.0
863.0
860.0
860.0
855.0
853.0
850.0
848.0
847.0
845.0
844.0
844.0
841.0
840.0
835.0
833.0
828.0
824.0
821.0
817.0
817.0
813.0
812.0
808.0
808.0
805.0
803.0
798.0
795.0
793.0
787.0
787.0
783.0
783.0
783.0
783.0
780.0
777.0
774.0
770.0
769.0
766.0
767.0
766.0
769.0
771.0
774.0
776.0
781.0
784.0
791.0
794.0
799.0
805.0
811.0
817.0
826.0
833.0
843.0
853.0
860.0
864.0
870.0
874.0
878.0
880.0
880.0
884.0
888.0
891.0
893.0
898.0
901.0
904.0
903.0
905.0
907.0
904.0
905.0
905.0
907.0
907.0
908.0
910.0
914.0
916.0
916.0
921.0
922.0
924.0
924.0
926.0
925.0
924.0
924.0
923.0
924.0
921.0
918.0
919.0
915.0
913.0
915.0
917.0
915.0
913.0
917.0
920.0
922.0
922.0
925.0
921.0
921.0
920.0
918.0
916.0
917.0
917.0
919.0
919.0
920.0
921.0
920.0
920.0
918.0
917.0
918.0
920.0
923.0
923.0
924.0
926.0
929.0
929.0
927.0
928.0
929.0
925.0
925.0
922.0
920.0
923.0
927.0
927.0
926.0
924.0
926.0
925.0
924.0
924.0
923.0
922.0
922.0
921.0
922.0
923.0
923.0
922.0
924.0
923.0
923.0
921.0
920.0
920.0
920.0
920.0
921.0
923.0
924.0
923.0
923.0
921.0
920.0
915.0
911.0
914.0
912.0
910.0
911.0
914.0
914.0
913.0
915.0
914.0
915.0
916.0
914.0
913.0
915.0
914.0
915.0
915.0
917.0
917.0
917.0
917.0
916.0
913.0
913.0
915.0
912.0
917.0
915.0
917.0
917.0
917.0
919.0
917.0
916.0
917.0
914.0
913.0
912.0
914.0
914.0
915.0
917.0
916.0
916.0
918.0
917.0
919.0
914.0
917.0
918.0
918.0
921.0
922.0
920.0
923.0
921.0
921.0
918.0
916.0
918.0
919.0
920.0
921.0
921.0
924.0
923.0
923.0
922.0
920.0
917.0
917.0
913.0
914.0
913.0
915.0
919.0
921.0
924.0
924.0
925.0
921.0
916.0
915.0
912.0
913.0
912.0
913.0
916.0
917.0
916.0
915.0
914.0
913.0
911.0
914.0
913.0
915.0
915.0
916.0
917.0
918.0
920.0
919.0
922.0
922.0
922.0
922.0
918.0
920.0
921.0
921.0
924.0
927.0
929.0
930.0
930.0
928.0
929.0
926.0
926.0
927.0
928.0
927.0
929.0
929.0
929.0
931.0
930.0
928.0
926.0
923.0
920.0
918.0
920.0
919.0
922.0
924.0
925.0
923.0
922.0
921.0
916.0
917.0
916.0
917.0
916.0
918.0
918.0
920.0
921.0
922.0
922.0
918.0
918.0
916.0
917.0
916.0
914.0
912.0
909.0
905.0
911.0
925.0
951.0
989.0
1037.0
1092.0
1154.0
1222.0
1285.0
1340.0
1376.0
1394.0
1395.0
1380.0
1349.0
1299.0
1216.0
1109.0
1003.0
923.0
886.0
877.0
889.0
906.0
921.0
926.0
925.0
920.0
909.0
901.0
895.0
891.0
890.0
890.0
895.0
896.0
897.0
895.0
891.0
891.0
892.0
889.0
889.0
889.0
890.0
890.0
888.0
889.0
891.0
891.0
887.0
888.0
886.0
885.0
884.0
879.0
877.0
878.0
881.0
878.0
880.0
880.0
877.0
875.0
870.0
871.0
867.0
865.0
864.0
865.0
866.0
866.0
869.0
870.0
868.0
866.0
865.0
864.0
862.0
860.0
857.0
855.0
853.0
848.0
850.0
846.0
844.0
838.0
837.0
835.0
832.0
829.0
826.0
824.0
822.0
819.0
816.0
814.0
809.0
806.0
801.0
795.0
789.0
785.0
783.0
781.0
783.0
782.0
781.0
782.0
780.0
779.0
779.0
778.0
778.0
780.0
786.0
791.0
800.0
809.0
816.0
825.0
834.0
841.0
847.0
853.0
861.0
867.0
874.0
880.0
886.0
893.0
897.0
900.0
903.0
908.0
907.0
908.0
908.0
912.0
913.0
914.0
918.0
920.0
920.0
920.0
919.0
923.0
921.0
920.0
918.0
918.0
919.0
920.0
921.0
920.0
922.0
920.0
920.0
920.0
921.0
922.0
922.0
922.0
923.0
925.0
924.0
927.0
929.0
929.0
926.0
927.0
925.0
925.0
927.0
926.0
927.0
929.0
930.0
930.0
931.0
932.0
933.0
927.0
930.0
929.0
928.0
924.0
923.0
926.0
926.0
929.0
932.0
930.0
930.0
932.0
929.0
930.0
929.0
927.0
927.0
926.0
927.0
929.0
928.0
928.0
926.0
929.0
927.0
923.0
921.0
920.0
920.0
922.0
923.0
925.0
925.0
927.0
928.0
930.0
929.0
929.0
929.0
928.0
932.0
934.0
935.0
938.0
938.0
940.0
941.0
940.0
937.0
932.0
926.0
922.0
926.0
941.0
973.0
1014.0
1064.0
1125.0
1190.0
1259.0
1320.0
1366.0
1390.0
1398.0
1390.0
1368.0
1337.0
1278.0
1187.0
1076.0
973.0
907.0
879.0
881.0
899.0
913.0
927.0
934.0
932.0
923.0
915.0
909.0
904.0
902.0
899.0
898.0
896.0
895.0
895.0
894.0
891.0
890.0
891.0
888.0
889.0
891.0
887.0
887.0
885.0
886.0
884.0
886.0
889.0
887.0
890.0
892.0
887.0
889.0
888.0
889.0
889.0
890.0
889.0
891.0
888.0
893.0
893.0
894.0
891.0
891.0
891.0
889.0
890.0
887.0
889.0
891.0
890.0
893.0
894.0
894.0
891.0
889.0
887.0
888.0
884.0
881.0
879.0
878.0
877.0
875.0
874.0
869.0
867.0
861.0
858.0
853.0
847.0
842.0
837.0
833.0
830.0
827.0
828.0
827.0
824.0
821.0
817.0
814.0
813.0
811.0
813.0
812.0
818.0
820.0
825.0
831.0
838.0
844.0
848.0
854.0
859.0
865.0
872.0
875.0
882.0
888.0
894.0
900.0
903.0
904.0
907.0
909.0
911.0
916.0
919.0
922.0
923.0
927.0
926.0
928.0
929.0
931.0
930.0
930.0
930.0
929.0
930.0
929.0
928.0
930.0
932.0
932.0
930.0
927.0
924.0
920.0
917.0
915.0
915.0
912.0
913.0
918.0
919.0
923.0
923.0
925.0
923.0
926.0
924.0
922.0
924.0
922.0
925.0
929.0
931.0
938.0
937.0
937.0
939.0
939.0
938.0
936.0
938.0
940.0
942.0
940.0
941.0
942.0
941.0
943.0
940.0
937.0
936.0
938.0
937.0
938.0
941.0
940.0
941.0
942.0
940.0
940.0
938.0
935.0
933.0
931.0
927.0
929.0
926.0
922.0
927.0
926.0
924.0
922.0
919.0
918.0
914.0
916.0
916.0
918.0
921.0
921.0
925.0
926.0
924.0
926.0
925.0
931.0
930.0
930.0
929.0
929.0
930.0
930.0
931.0
934.0
937.0
935.0
936.0
938.0
936.0
935.0
935.0
936.0
937.0
937.0
940.0
940.0
939.0
941.0
938.0
937.0
936.0
936.0
936.0
935.0
938.0
939.0
940.0
940.0
937.0
935.0
929.0
927.0
928.0
924.0
924.0
923.0
922.0
923.0
922.0
924.0
921.0
918.0
917.0
916.0
915.0
919.0
920.0
920.0
919.0
916.0
913.0
910.0
914.0
929.0
955.0
996.0
1043.0
1097.0
1163.0
1231.0
1292.0
1339.0
1374.0
1388.0
1383.0
1371.0
1347.0
1308.0
1243.0
1152.0
1048.0
958.0
905.0
885.0
889.0
899.0
909.0
919.0
923.0
920.0
917.0
913.0
909.0
907.0
907.0
908.0
909.0
910.0
909.0
906.0
900.0
897.0
892.0
891.0
888.0
886.0
887.0
884.0
888.0
886.0
887.0
888.0
886.0
883.0
878.0
877.0
877.0
880.0
881.0
882.0
884.0
885.0
884.0
881.0
880.0
875.0
874.0
872.0
871.0
871.0
874.0
871.0
873.0
872.0
868.0
868.0
864.0
864.0
861.0
861.0
861.0
860.0
860.0
859.0
856.0
855.0
856.0
852.0
851.0
849.0
847.0
844.0
844.0
842.0
840.0
838.0
835.0
831.0
824.0
817.0
809.0
805.0
799.0
796.0
796.0
792.0
789.0
787.0
785.0
784.0
779.0
778.0
776.0
775.0
772.0
772.0
775.0
775.0
782.0
790.0
796.0
803.0
809.0
816.0
823.0
830.0
835.0
840.0
844.0
853.0
858.0
865.0
869.0
876.0
883.0
888.0
890.0
894.0
894.0
898.0
901.0
903.0
906.0
909.0
909.0
909.0
910.0
912.0
913.0
911.0
912.0
911.0
912.0
915.0
914.0
915.0
918.0
922.0
921.0
917.0
916.0
915.0
915.0
913.0
911.0
913.0
912.0
913.0
912.0
911.0
910.0
908.0
909.0
905.0
905.0
904.0
907.0
906.0
907.0
908.0
910.0
910.0
911.0
912.0
912.0
913.0
915.0
914.0
915.0
917.0
918.0
920.0
921.0
922.0
924.0
922.0
921.0
921.0
922.0
921.0
922.0
921.0
923.0
924.0
928.0
928.0
927.0
928.0
925.0
925.0
925.0
926.0
923.0
925.0
927.0
930.0
930.0
929.0
926.0
924.0
922.0
920.0
916.0
914.0
913.0
908.0
911.0
911.0
911.0
909.0
910.0
911.0
905.0
906.0
902.0
903.0
904.0
905.0
908.0
910.0
911.0
912.0
914.0
915.0
914.0
912.0
913.0
911.0
912.0
914.0
915.0
919.0
920.0
923.0
922.0
922.0
923.0
924.0
920.0
917.0
913.0
907.0
909.0
921.0
947.0
983.0
1028.0
1086.0
1149.0
1213.0
1275.0
1327.0
1360.0
1377.0
1372.0
1360.0
1327.0
1270.0
1176.0
1063.0
960.0
890.0
859.0
854.0
868.0
884.0
897.0
901.0
900.0
896.0
889.0
884.0
882.0
886.0
885.0
888.0
889.0
888.0
889.0
888.0
888.0
889.0
887.0
886.0
883.0
886.0
885.0
884.0
885.0
886.0
885.0
885.0
882.0
880.0
879.0
880.0
880.0
880.0
878.0
876.0
875.0
874.0
874.0
873.0
875.0
873.0
871.0
869.0
866.0
865.0
864.0
862.0
858.0
857.0
855.0
852.0
851.0
847.0
847.0
842.0
841.0
839.0
836.0
834.0
833.0
832.0
834.0
832.0
833.0
833.0
830.0
827.0
821.0
818.0
815.0
809.0
809.0
806.0
804.0
802.0
799.0
801.0
799.0
795.0
794.0
792.0
789.0
786.0
785.0
785.0
784.0
787.0
789.0
791.0
793.0
796.0
800.0
806.0
809.0
817.0
826.0
834.0
841.0
850.0
859.0
867.0
871.0
874.0
877.0
878.0
880.0
882.0
885.0
887.0
888.0
890.0
894.0
894.0
893.0
894.0
895.0
896.0
895.0
894.0
896.0
897.0
898.0
902.0
903.0
905.0
905.0
905.0
903.0
900.0
902.0
901.0
901.0
903.0
907.0
907.0
910.0
910.0
913.0
912.0
912.0
911.0
909.0
908.0
908.0
907.0
911.0
909.0
911.0
913.0
913.0
911.0
913.0
911.0
910.0
908.0
908.0
910.0
910.0
911.0
912.0
911.0
911.0
911.0
908.0
907.0
906.0
905.0
907.0
909.0
913.0
913.0
915.0
917.0
918.0
917.0
915.0
916.0
913.0
911.0
911.0
913.0
916.0
917.0
920.0
922.0
922.0
920.0
917.0
915.0
911.0
910.0
908.0
909.0
911.0
911.0
912.0
915.0
916.0
917.0
916.0
915.0
913.0
912.0
911.0
913.0
914.0
915.0
917.0
919.0
919.0
920.0
920.0
919.0
917.0
917.0
915.0
914.0
914.0
913.0
908.0
904.0
903.0
900.0
903.0
917.0
944.0
981.0
1027.0
1082.0
1142.0
1207.0
1265.0
1317.0
1351.0
1367.0
1364.0
1350.0
1317.0
1260.0
1176.0
1066.0
964.0
895.0
863.0
862.0
876.0
895.0
906.0
910.0
908.0
901.0
893.0
890.0
888.0
889.0
890.0
891.0
888.0
887.0
884.0
882.0
879.0
876.0
876.0
876.0
875.0
875.0
875.0
875.0
874.0
874.0
871.0
869.0
868.0
863.0
863.0
860.0
862.0
861.0
863.0
862.0
862.0
860.0
856.0
855.0
852.0
850.0
851.0
848.0
850.0
846.0
848.0
848.0
847.0
846.0
846.0
847.0
845.0
843.0
841.0
843.0
842.0
842.0
836.0
836.0
832.0
828.0
825.0
823.0
817.0
813.0
810.0
812.0
809.0
810.0
809.0
811.0
806.0
801.0
799.0
795.0
793.0
788.0
788.0
784.0
787.0
787.0
789.0
790.0
791.0
792.0
792.0
793.0
795.0
799.0
806.0
810.0
818.0
825.0
834.0
842.0
846.0
850.0
852.0
856.0
859.0
862.0
864.0
867.0
868.0
872.0
874.0
879.0
879.0
881.0
882.0
886.0
893.0
894.0
899.0
898.0
901.0
904.0
905.0
905.0
904.0
902.0
900.0
900.0
899.0
900.0
900.0
902.0
903.0
904.0
906.0
906.0
907.0
909.0
906.0
904.0
902.0
902.0
905.0
905.0
908.0
909.0
914.0
913.0
914.0
913.0
909.0
910.0
906.0
907.0
907.0
905.0
907.0
906.0
907.0
908.0
908.0
908.0
903.0
901.0
900.0
899.0
896.0
894.0
897.0
896.0
901.0
901.0
900.0
902.0
905.0
906.0
906.0
906.0
910.0
911.0
912.0
914.0
915.0
916.0
913.0
911.0
908.0
911.0
908.0
908.0
907.0
908.0
908.0
909.0
911.0
912.0
911.0
911.0
910.0
906.0
904.0
905.0
904.0
902.0
904.0
905.0
907.0
907.0
907.0
906.0
905.0
902.0
901.0
899.0
899.0
899.0
900.0
897.0
899.0
899.0
899.0
896.0
894.0
894.0
896.0
894.0
895.0
895.0
901.0
901.0
906.0
907.0
907.0
907.0
907.0
909.0
905.0
906.0
903.0
904.0
905.0
905.0
908.0
910.0
910.0
909.0
908.0
906.0
908.0
906.0
907.0
907.0
910.0
912.0
913.0
915.0
913.0
912.0
911.0
912.0
909.0
908.0
906.0
903.0
904.0
905.0
904.0
906.0
903.0
900.0
900.0
899.0
898.0
894.0
896.0
897.0
896.0
899.0
902.0
901.0
904.0
903.0
903.0
897.0
895.0
893.0
890.0
885.0
889.0
897.0
921.0
952.0
997.0
1050.0
1112.0
1175.0
1240.0
1297.0
1340.0
1364.0
1371.0
1363.0
1339.0
1291.0
1216.0
1108.0
997.0
909.0
864.0
850.0
860.0
879.0
897.0
907.0
910.0
907.0
900.0
890.0
887.0
882.0
878.0
877.0
873.0
871.0
868.0
867.0
868.0
864.0
864.0
860.0
859.0
855.0
854.0
851.0
850.0
852.0
851.0
854.0
857.0
856.0
856.0
855.0
853.0
850.0
853.0
846.0
849.0
851.0
852.0
851.0
852.0
853.0
853.0
851.0
850.0
847.0
847.0
844.0
844.0
845.0
844.0
845.0
847.0
846.0
844.0
842.0
840.0
838.0
835.0
831.0
829.0
828.0
827.0
828.0
828.0
826.0
823.0
819.0
813.0
806.0
799.0
792.0
789.0
786.0
784.0
779.0
779.0
779.0
776.0
771.0
766.0
765.0
759.0
756.0
757.0
758.0
761.0
764.0
770.0
774.0
779.0
786.0
789.0
796.0
802.0
810.0
818.0
825.0
834.0
844.0
852.0
860.0
866.0
869.0
873.0
883.0
882.0
883.0
887.0
889.0
892.0
896.0
899.0
900.0
902.0
902.0
902.0
901.0
901.0
902.0
907.0
906.0
908.0
909.0
911.0
913.0
911.0
909.0
906.0
903.0
902.0
899.0
900.0
896.0
898.0
898.0
897.0
898.0
900.0
902.0
904.0
905.0
906.0
904.0
901.0
899.0
899.0
900.0
901.0
903.0
905.0
901.0
903.0
901.0
902.0
902.0
902.0
903.0
908.0
910.0
913.0
916.0
916.0
917.0
917.0
915.0
914.0
912.0
911.0
912.0
914.0
914.0
912.0
911.0
911.0
911.0
907.0
904.0
905.0
905.0
906.0
906.0
911.0
913.0
915.0
917.0
916.0
915.0
915.0
911.0
910.0
910.0
908.0
908.0
912.0
913.0
913.0
912.0
911.0
909.0
909.0
908.0
907.0
904.0
903.0
904.0
905.0
906.0
908.0
910.0
909.0
908.0
907.0
905.0
900.0
898.0
898.0
903.0
903.0
905.0
908.0
911.0
913.0
911.0
911.0
912.0
909.0
908.0
910.0
911.0
914.0
913.0
913.0
914.0
911.0
909.0
904.0
905.0
903.0
904.0
903.0
904.0
905.0
909.0
912.0
912.0
911.0
911.0
911.0
911.0
910.0
910.0
913.0
915.0
916.0
915.0
917.0
919.0
917.0
919.0
917.0
914.0
912.0
909.0
909.0
908.0
908.0
908.0
907.0
909.0
908.0
907.0
906.0
905.0
905.0
905.0
903.0
903.0
902.0
904.0
904.0
904.0
904.0
903.0
904.0
905.0
903.0
903.0
902.0
900.0
902.0
901.0
902.0
902.0
902.0
903.0
903.0
902.0
901.0
902.0
901.0
901.0
904.0
906.0
911.0
916.0
915.0
917.0
915.0
917.0
916.0
915.0
916.0
912.0
910.0
910.0
904.0
899.0
902.0
915.0
942.0
977.0
1023.0
1079.0
1138.0
1203.0
1264.0
1314.0
1347.0
1365.0
1364.0
1352.0
1324.0
1280.0
1208.0
1107.0
1005.0
920.0
873.0
859.0
864.0
878.0
891.0
897.0
897.0
892.0
886.0
877.0
872.0
867.0
866.0
869.0
868.0
870.0
867.0
867.0
865.0
864.0
862.0
861.0
861.0
862.0
863.0
864.0
864.0
865.0
861.0
861.0
858.0
856.0
854.0
856.0
855.0
856.0
858.0
857.0
855.0
858.0
856.0
856.0
854.0
855.0
855.0
851.0
853.0
852.0
853.0
851.0
851.0
849.0
849.0
848.0
846.0
846.0
844.0
840.0
839.0
839.0
837.0
835.0
832.0
830.0
827.0
824.0
822.0
817.0
813.0
810.0
807.0
803.0
799.0
795.0
797.0
794.0
790.0
790.0
784.0
779.0
772.0
770.0
766.0
763.0
761.0
763.0
759.0
758.0
759.0
761.0
760.0
761.0
764.0
765.0
767.0
774.0
783.0
789.0
798.0
809.0
816.0
824.0
831.0
838.0
843.0
848.0
854.0
860.0
865.0
871.0
876.0
884.0
888.0
890.0
892.0
892.0
892.0
890.0
891.0
893.0
895.0
897.0
899.0
900.0
897.0
900.0
899.0
898.0
896.0
897.0
899.0
899.0
900.0
904.0
906.0
908.0
910.0
910.0
909.0
908.0
903.0
901.0
903.0
903.0
903.0
903.0
905.0
907.0
907.0
906.0
907.0
907.0
908.0
909.0
909.0
910.0
912.0
909.0
910.0
909.0
911.0
909.0
908.0
907.0
908.0
904.0
902.0
904.0
906.0
904.0
903.0
902.0
901.0
898.0
893.0
892.0
892.0
890.0
892.0
892.0
898.0
898.0
900.0
903.0
903.0
906.0
906.0
903.0
903.0
903.0
901.0
900.0
902.0
904.0
907.0
907.0
904.0
904.0
903.0
902.0
902.0
898.0
898.0
899.0
897.0
898.0
900.0
899.0
900.0
899.0
901.0
902.0
900.0
902.0
903.0
904.0
905.0
907.0
908.0
906.0
908.0
904.0
904.0
902.0
903.0
902.0
898.0
898.0
900.0
898.0
895.0
896.0
896.0
893.0
891.0
891.0
888.0
890.0
889.0
887.0
889.0
890.0
893.0
896.0
901.0
902.0
902.0
903.0
903.0
904.0
901.0
900.0
901.0
903.0
904.0
905.0
905.0
907.0
904.0
899.0
901.0
896.0
895.0
894.0
895.0
899.0
901.0
903.0
902.0
907.0
907.0
906.0
907.0
907.0
907.0
905.0
909.0
908.0
910.0
911.0
912.0
906.0
904.0
904.0
905.0
903.0
901.0
900.0
898.0
898.0
899.0
900.0
897.0
894.0
891.0
889.0
887.0
884.0
881.0
883.0
886.0
889.0
892.0
897.0
898.0
898.0
898.0
896.0
896.0
894.0
893.0
893.0
896.0
898.0
897.0
899.0
901.0
901.0
902.0
902.0
899.0
900.0
898.0
898.0
902.0
902.0
905.0
905.0
903.0
901.0
896.0
889.0
890.0
900.0
921.0
956.0
999.0
1055.0
1110.0
1173.0
1234.0
1285.0
1326.0
1350.0
1357.0
1350.0
1335.0
1305.0
1258.0
1180.0
1085.0
986.0
912.0
871.0
857.0
861.0
871.0
881.0
887.0
889.0
885.0
882.0
877.0
874.0
872.0
870.0
868.0
864.0
858.0
855.0
852.0
850.0
853.0
854.0
856.0
859.0
859.0
862.0
864.0
865.0
865.0
864.0
860.0
861.0
861.0
862.0
863.0
864.0
862.0
862.0
863.0
862.0
860.0
859.0
859.0
861.0
860.0
860.0
858.0
859.0
855.0
854.0
853.0
851.0
850.0
842.0
843.0
843.0
842.0
842.0
842.0
843.0
841.0
838.0
836.0
833.0
827.0
826.0
821.0
819.0
819.0
819.0
820.0
818.0
816.0
814.0
809.0
804.0
797.0
791.0
786.0
785.0
781.0
776.0
775.0
772.0
769.0
766.0
766.0
763.0
763.0
764.0
764.0
763.0
762.0
764.0
765.0
768.0
768.0
769.0
773.0
774.0
776.0
780.0
787.0
793.0
801.0
809.0
817.0
825.0
829.0
836.0
843.0
846.0
850.0
854.0
857.0
861.0
867.0
874.0
878.0
885.0
888.0
890.0
890.0
890.0
887.0
884.0
884.0
887.0
888.0
890.0
891.0
892.0
894.0
895.0
894.0
891.0
893.0
895.0
893.0
891.0
891.0
891.0
893.0
892.0
893.0
891.0
890.0
888.0
886.0
886.0
888.0
889.0
894.0
898.0
901.0
904.0
907.0
909.0
912.0
911.0
909.0
906.0
906.0
906.0
907.0
909.0
911.0
915.0
914.0
915.0
912.0
911.0
911.0
910.0
908.0
908.0
908.0
910.0
909.0
910.0
910.0
909.0
908.0
907.0
905.0
903.0
902.0
902.0
902.0
905.0
906.0
904.0
904.0
906.0
903.0
901.0
899.0
900.0
899.0
899.0
901.0
902.0
903.0
903.0
902.0
901.0
898.0
896.0
893.0
892.0
890.0
889.0
889.0
890.0
890.0
889.0
891.0
893.0
894.0
895.0
896.0
899.0
903.0
903.0
907.0
909.0
911.0
911.0
910.0
909.0
910.0
909.0
908.0
906.0
907.0
909.0
909.0
912.0
911.0
914.0
915.0
913.0
911.0
911.0
909.0
907.0
904.0
907.0
905.0
907.0
907.0
910.0
911.0
910.0
911.0
910.0
911.0
907.0
907.0
906.0
908.0
907.0
908.0
909.0
910.0
910.0
910.0
910.0
910.0
908.0
907.0
907.0
906.0
906.0
902.0
897.0
890.0
885.0
883.0
893.0
918.0
955.0
1007.0
1071.0
1147.0
1221.0
1286.0
1338.0
1367.0
1375.0
1367.0
1343.0
1298.0
1226.0
1126.0
1013.0
919.0
862.0
848.0
858.0
875.0
891.0
898.0
896.0
893.0
886.0
880.0
876.0
874.0
875.0
877.0
881.0
880.0
880.0
876.0
875.0
872.0
869.0
867.0
869.0
868.0
871.0
867.0
867.0
867.0
864.0
862.0
859.0
858.0
855.0
856.0
852.0
852.0
853.0
855.0
855.0
855.0
854.0
850.0
847.0
845.0
845.0
841.0
843.0
842.0
842.0
842.0
843.0
842.0
839.0
835.0
832.0
830.0
830.0
832.0
830.0
833.0
836.0
837.0
837.0
839.0
839.0
837.0
832.0
829.0
827.0
822.0
822.0
820.0
819.0
817.0
816.0
814.0
807.0
806.0
803.0
796.0
794.0
786.0
783.0
781.0
781.0
781.0
782.0
781.0
781.0
782.0
782.0
785.0
787.0
791.0
796.0
803.0
811.0
817.0
822.0
832.0
837.0
842.0
850.0
858.0
862.0
865.0
868.0
870.0
873.0
877.0
880.0
882.0
886.0
888.0
887.0
888.0
886.0
888.0
886.0
886.0
887.0
890.0
896.0
896.0
899.0
900.0
902.0
906.0
907.0
907.0
908.0
909.0
910.0
911.0
912.0
911.0
910.0
910.0
909.0
908.0
908.0
906.0
905.0
906.0
907.0
909.0
910.0
912.0
912.0
911.0
907.0
907.0
905.0
902.0
901.0
901.0
898.0
900.0
901.0
900.0
900.0
900.0
897.0
896.0
898.0
898.0
898.0
898.0
898.0
898.0
897.0
899.0
899.0
898.0
892.0
890.0
890.0
888.0
886.0
887.0
888.0
892.0
893.0
898.0
901.0
903.0
906.0
908.0
909.0
910.0
914.0
918.0
921.0
922.0
922.0
925.0
924.0
924.0
922.0
921.0
920.0
920.0
918.0
919.0
920.0
924.0
923.0
925.0
923.0
923.0
922.0
921.0
920.0
920.0
919.0
918.0
918.0
917.0
918.0
921.0
920.0
920.0
918.0
916.0
912.0
913.0
916.0
916.0
918.0
918.0
919.0
919.0
916.0
912.0
911.0
906.0
898.0
891.0
885.0
881.0
884.0
898.0
926.0
966.0
1013.0
1072.0
1136.0
1202.0
1261.0
1314.0
1349.0
1362.0
1365.0
1351.0
1321.0
1269.0
1182.0
1073.0
969.0
894.0
