# Simple Text Format
# Sampling Rate (Hz):= 360.00
# Resolution:= 12
# Labels:= ECG
912.0
911.0
912.0
907.0
906.0
905.0
904.0
906.0
905.0
907.0
907.0
909.0
908.0
909.0
908.0
907.0
909.0
911.0
910.0
910.0
914.0
914.0
917.0
919.0
919.0
917.0
919.0
917.0
918.0
913.0
914.0
914.0
916.0
918.0
920.0
920.0
922.0
921.0
919.0
917.0
914.0
912.0
911.0
912.0
912.0
911.0
912.0
913.0
912.0
913.0
908.0
908.0
907.0
906.0
911.0
911.0
913.0
913.0
915.0
916.0
916.0
915.0
916.0
915.0
914.0
912.0
911.0
912.0
911.0
910.0
908.0
909.0
907.0
907.0
908.0
908.0
907.0
906.0
908.0
911.0
917.0
917.0
918.0
920.0
919.0
913.0
909.0
908.0
910.0
925.0
949.0
984.0
1028.0
1076.0
1133.0
1190.0
1242.0
1283.0
1306.0
1312.0
1307.0
1290.0
1258.0
1200.0
1116.0
1021.0
945.0
894.0
874.0
876.0
886.0
895.0
906.0
907.0
908.0
903.0
900.0
897.0
897.0
899.0
898.0
896.0
893.0
892.0
888.0
885.0
885.0
886.0
884.0
883.0
880.0
879.0
876.0
875.0
874.0
873.0
875.0
874.0
873.0
874.0
874.0
875.0
879.0
878.0
878.0
877.0
876.0
873.0
873.0
871.0
872.0
870.0
871.0
871.0
871.0
872.0
872.0
867.0
868.0
864.0
859.0
857.0
856.0
854.0
854.0
852.0
851.0
852.0
853.0
849.0
847.0
846.0
844.0
841.0
840.0
835.0
839.0
838.0
836.0
835.0
832.0
832.0
828.0
825.0
820.0
816.0
812.0
810.0
806.0
803.0
802.0
799.0
797.0
796.0
794.0
791.0
793.0
793.0
798.0
802.0
807.0
813.0
818.0
825.0
830.0
835.0
840.0
845.0
850.0
851.0
858.0
863.0
870.0
875.0
882.0
886.0
891.0
890.0
891.0
890.0
892.0
894.0
895.0
896.0
895.0
899.0
899.0
903.0
905.0
904.0
903.0
902.0
901.0
899.0
900.0
902.0
904.0
905.0
903.0
906.0
907.0
906.0
905.0
904.0
903.0
901.0
903.0
904.0
906.0
908.0
911.0
911.0
911.0
913.0
912.0
912.0
910.0
911.0
912.0
912.0
915.0
918.0
921.0
922.0
922.0
922.0
919.0
916.0
915.0
914.0
917.0
914.0
915.0
916.0
917.0
917.0
916.0
915.0
911.0
909.0
910.0
912.0
912.0
914.0
914.0
917.0
916.0
920.0
918.0
913.0
908.0
905.0
907.0
919.0
943.0
981.0
1023.0
1075.0
1125.0
1179.0
1229.0
1272.0
1298.0
1313.0
1311.0
1293.0
1261.0
1205.0
1123.0
1031.0
952.0
903.0
880.0
881.0
888.0
897.0
904.0
907.0
908.0
903.0
902.0
899.0
898.0
896.0
893.0
891.0
888.0
886.0
883.0
881.0
881.0
880.0
882.0
881.0
881.0
881.0
882.0
881.0
878.0
875.0
872.0
871.0
871.0
871.0
872.0
872.0
873.0
873.0
874.0
873.0
869.0
869.0
869.0
866.0
865.0
859.0
860.0
859.0
862.0
860.0
855.0
852.0
846.0
846.0
844.0
841.0
842.0
839.0
840.0
841.0
842.0
845.0
845.0
845.0
842.0
840.0
837.0
833.0
831.0
830.0
830.0
829.0
828.0
823.0
822.0
819.0
816.0
811.0
807.0
805.0
803.0
803.0
801.0
802.0
803.0
806.0
809.0
812.0
813.0
818.0
822.0
827.0
833.0
839.0
847.0
854.0
861.0
864.0
868.0
873.0
873.0
873.0
877.0
877.0
882.0
883.0
888.0
891.0
894.0
896.0
897.0
899.0
899.0
897.0
896.0
895.0
896.0
893.0
898.0
898.0
900.0
904.0
905.0
908.0
908.0
906.0
908.0
905.0
908.0
906.0
911.0
913.0
914.0
914.0
915.0
914.0
915.0
911.0
909.0
908.0
908.0
908.0
910.0
912.0
912.0
913.0
912.0
911.0
911.0
909.0
908.0
907.0
904.0
903.0
906.0
903.0
905.0
904.0
905.0
904.0
903.0
900.0
899.0
897.0
897.0
897.0
897.0
898.0
902.0
903.0
902.0
902.0
903.0
900.0
899.0
897.0
899.0
899.0
901.0
902.0
903.0
905.0
906.0
909.0
906.0
904.0
903.0
904.0
905.0
905.0
909.0
909.0
910.0
910.0
912.0
912.0
908.0
910.0
910.0
906.0
909.0
910.0
908.0
910.0
912.0
910.0
911.0
909.0
908.0
905.0
909.0
908.0
907.0
906.0
906.0
906.0
906.0
906.0
907.0
907.0
906.0
905.0
904.0
904.0
904.0
904.0
904.0
906.0
906.0
907.0
908.0
907.0
907.0
906.0
904.0
903.0
905.0
903.0
904.0
905.0
905.0
906.0
905.0
905.0
901.0
903.0
900.0
901.0
898.0
901.0
903.0
903.0
904.0
906.0
908.0
907.0
905.0
905.0
903.0
902.0
905.0
905.0
907.0
909.0
910.0
909.0
912.0
911.0
909.0
907.0
903.0
902.0
900.0
898.0
901.0
901.0
900.0
902.0
903.0
903.0
903.0
901.0
903.0
905.0
905.0
908.0
910.0
912.0
913.0
915.0
916.0
914.0
915.0
912.0
912.0
910.0
910.0
910.0
913.0
912.0
913.0
916.0
916.0
915.0
913.0
912.0
908.0
904.0
904.0
900.0
898.0
902.0
909.0
934.0
965.0
1007.0
1053.0
1105.0
1161.0
1214.0
1259.0
1294.0
1312.0
1314.0
1307.0
1283.0
1244.0
1179.0
1092.0
996.0
920.0
875.0
860.0
862.0
876.0
888.0
898.0
898.0
898.0
891.0
887.0
885.0
884.0
882.0
882.0
883.0
887.0
885.0
884.0
886.0
886.0
886.0
884.0
881.0
878.0
876.0
876.0
876.0
876.0
877.0
878.0
876.0
877.0
875.0
874.0
871.0
869.0
867.0
866.0
865.0
864.0
864.0
862.0
862.0
860.0
857.0
856.0
853.0
851.0
848.0
851.0
849.0
852.0
852.0
853.0
851.0
849.0
848.0
846.0
845.0
838.0
836.0
836.0
833.0
834.0
839.0
837.0
841.0
841.0
839.0
836.0
835.0
829.0
828.0
826.0
823.0
819.0
819.0
818.0
817.0
813.0
809.0
806.0
803.0
800.0
797.0
795.0
794.0
794.0
794.0
789.0
791.0
790.0
792.0
793.0
792.0
796.0
799.0
802.0
805.0
813.0
819.0
825.0
833.0
839.0
843.0
849.0
850.0
856.0
859.0
863.0
864.0
873.0
877.0
879.0
884.0
889.0
893.0
895.0
896.0
897.0
898.0
897.0
902.0
907.0
908.0
911.0
916.0
915.0
914.0
915.0
913.0
914.0
910.0
910.0
914.0
915.0
917.0
915.0
915.0
918.0
917.0
916.0
914.0
911.0
908.0
910.0
909.0
910.0
912.0
913.0
914.0
914.0
916.0
915.0
910.0
910.0
910.0
908.0
907.0
909.0
907.0
909.0
911.0
906.0
911.0
911.0
910.0
910.0
910.0
908.0
904.0
905.0
906.0
909.0
915.0
914.0
913.0
913.0
913.0
912.0
912.0
915.0
915.0
918.0
922.0
922.0
924.0
924.0
923.0
923.0
923.0
925.0
924.0
924.0
925.0
928.0
928.0
927.0
927.0
925.0
925.0
922.0
921.0
921.0
918.0
919.0
916.0
916.0
917.0
915.0
918.0
917.0
914.0
911.0
909.0
908.0
905.0
907.0
908.0
910.0
912.0
911.0
910.0
910.0
909.0
908.0
906.0
905.0
904.0
901.0
905.0
905.0
907.0
909.0
910.0
911.0
909.0
909.0
908.0
907.0
906.0
905.0
906.0
906.0
909.0
910.0
912.0
912.0
912.0
915.0
916.0
917.0
920.0
921.0
922.0
921.0
920.0
917.0
918.0
921.0
938.0
966.0
1002.0
1043.0
1088.0
1144.0
1199.0
1253.0
1295.0
1316.0
1323.0
1318.0
1302.0
1268.0
1215.0
1136.0
1041.0
952.0
891.0
862.0
858.0
870.0
888.0
900.0
907.0
907.0
903.0
894.0
886.0
881.0
879.0
879.0
881.0
883.0
883.0
882.0
882.0
881.0
877.0
876.0
872.0
870.0
873.0
876.0
880.0
882.0
882.0
883.0
882.0
881.0
881.0
880.0
877.0
879.0
880.0
882.0
884.0
885.0
885.0
886.0
884.0
882.0
878.0
877.0
876.0
873.0
875.0
874.0
874.0
874.0
874.0
870.0
865.0
862.0
861.0
856.0
855.0
854.0
853.0
853.0
852.0
850.0
851.0
849.0
846.0
843.0
840.0
835.0
832.0
830.0
830.0
828.0
826.0
826.0
825.0
822.0
822.0
818.0
814.0
812.0
808.0
805.0
804.0
803.0
804.0
805.0
806.0
808.0
807.0
809.0
811.0
811.0
812.0
818.0
825.0
832.0
840.0
849.0
853.0
859.0
867.0
872.0
876.0
880.0
883.0
886.0
887.0
892.0
894.0
900.0
901.0
903.0
903.0
902.0
900.0
901.0
898.0
898.0
899.0
899.0
898.0
901.0
903.0
900.0
899.0
900.0
897.0
899.0
897.0
902.0
906.0
906.0
909.0
908.0
911.0
910.0
909.0
907.0
908.0
906.0
905.0
905.0
907.0
909.0
910.0
914.0
917.0
916.0
916.0
920.0
919.0
921.0
921.0
922.0
922.0
923.0
925.0
927.0
929.0
929.0
929.0
930.0
927.0
926.0
922.0
922.0
921.0
920.0
920.0
923.0
924.0
924.0
925.0
920.0
918.0
917.0
913.0
913.0
914.0
912.0
912.0
913.0
913.0
910.0
909.0
910.0
910.0
910.0
908.0
908.0
907.0
911.0
911.0
909.0
913.0
911.0
912.0
910.0
911.0
908.0
913.0
912.0
913.0
914.0
914.0
916.0
919.0
920.0
918.0
919.0
919.0
918.0
920.0
919.0
920.0
921.0
922.0
927.0
928.0
930.0
928.0
926.0
923.0
921.0
915.0
910.0
907.0
909.0
919.0
935.0
964.0
1000.0
1040.0
1091.0
1142.0
1197.0
1247.0
1287.0
1313.0
1323.0
1321.0
1310.0
1282.0
1233.0
1155.0
1062.0
972.0
907.0
875.0
869.0
875.0
889.0
901.0
908.0
911.0
906.0
904.0
897.0
894.0
893.0
890.0
891.0
891.0
890.0
891.0
891.0
893.0
892.0
890.0
892.0
887.0
888.0
887.0
888.0
889.0
890.0
893.0
891.0
893.0
892.0
892.0
890.0
888.0
886.0
883.0
881.0
881.0
882.0
881.0
883.0
882.0
878.0
879.0
878.0
874.0
872.0
871.0
866.0
865.0
865.0
862.0
860.0
857.0
854.0
852.0
852.0
849.0
847.0
845.0
843.0
841.0
843.0
843.0
844.0
844.0
844.0
840.0
836.0
835.0
832.0
825.0
824.0
826.0
824.0
823.0
823.0
819.0
820.0
817.0
818.0
816.0
814.0
811.0
809.0
809.0
811.0
813.0
814.0
817.0
821.0
825.0
825.0
830.0
833.0
835.0
841.0
848.0
855.0
862.0
867.0
874.0
879.0
880.0
881.0
883.0
883.0
885.0
884.0
885.0
886.0
888.0
888.0
889.0
892.0
893.0
895.0
895.0
896.0
898.0
900.0
903.0
904.0
909.0
907.0
909.0
908.0
910.0
909.0
908.0
910.0
910.0
911.0
910.0
912.0
915.0
921.0
923.0
925.0
924.0
925.0
924.0
921.0
920.0
919.0
920.0
922.0
921.0
926.0
925.0
926.0
921.0
921.0
920.0
920.0
919.0
917.0
914.0
914.0
913.0
911.0
912.0
911.0
907.0
907.0
903.0
903.0
899.0
898.0
896.0
894.0
895.0
898.0
902.0
906.0
909.0
908.0
909.0
911.0
910.0
911.0
911.0
915.0
919.0
918.0
919.0
924.0
920.0
921.0
921.0
920.0
917.0
918.0
923.0
924.0
926.0
927.0
928.0
927.0
928.0
929.0
926.0
925.0
925.0
922.0
922.0
923.0
925.0
925.0
927.0
926.0
924.0
920.0
918.0
917.0
913.0
913.0
909.0
909.0
909.0
906.0
905.0
904.0
903.0
900.0
899.0
901.0
898.0
898.0
901.0
900.0
901.0
904.0
906.0
909.0
909.0
911.0
911.0
912.0
910.0
910.0
912.0
911.0
914.0
913.0
912.0
914.0
927.0
950.0
986.0
1030.0
1084.0
1145.0
1209.0
1265.0
1306.0
1328.0
1332.0
1325.0
1309.0
1270.0
1214.0
1133.0
1040.0
956.0
901.0
877.0
876.0
885.0
896.0
905.0
907.0
903.0
897.0
891.0
883.0
878.0
879.0
878.0
879.0
883.0
883.0
887.0
883.0
884.0
882.0
881.0
879.0
877.0
879.0
878.0
878.0
881.0
883.0
882.0
880.0
880.0
882.0
879.0
878.0
878.0
878.0
881.0
883.0
882.0
886.0
886.0
886.0
884.0
882.0
882.0
880.0
877.0
877.0
876.0
877.0
877.0
875.0
876.0
871.0
868.0
865.0
862.0
859.0
857.0
852.0
851.0
850.0
846.0
848.0
843.0
838.0
836.0
832.0
832.0
831.0
829.0
827.0
827.0
825.0
824.0
822.0
821.0
816.0
812.0
806.0
803.0
801.0
798.0
798.0
797.0
799.0
799.0
804.0
802.0
802.0
804.0
808.0
807.0
808.0
811.0
815.0
820.0
828.0
836.0
844.0
850.0
858.0
864.0
868.0
875.0
879.0
883.0
889.0
891.0
896.0
901.0
905.0
907.0
907.0
908.0
910.0
908.0
910.0
908.0
909.0
908.0
910.0
911.0
911.0
911.0
910.0
909.0
909.0
909.0
911.0
911.0
910.0
913.0
911.0
911.0
911.0
909.0
909.0
907.0
909.0
908.0
907.0
909.0
909.0
913.0
915.0
917.0
920.0
921.0
921.0
922.0
920.0
921.0
919.0
917.0
919.0
920.0
921.0
920.0
921.0
917.0
919.0
919.0
921.0
922.0
920.0
921.0
921.0
920.0
920.0
923.0
924.0
921.0
920.0
919.0
916.0
914.0
913.0
911.0
910.0
910.0
909.0
909.0
912.0
912.0
914.0
912.0
908.0
909.0
907.0
906.0
904.0
907.0
906.0
910.0
911.0
913.0
912.0
913.0
915.0
914.0
913.0
914.0
915.0
916.0
916.0
916.0
918.0
920.0
921.0
919.0
916.0
915.0
916.0
914.0
913.0
914.0
917.0
917.0
919.0
919.0
919.0
918.0
915.0
913.0
911.0
909.0
910.0
911.0
908.0
908.0
907.0
908.0
907.0
906.0
904.0
904.0
901.0
902.0
904.0
904.0
907.0
909.0
910.0
912.0
910.0
912.0
913.0
909.0
909.0
907.0
908.0
910.0
912.0
915.0
917.0
919.0
917.0
916.0
915.0
915.0
915.0
914.0
916.0
917.0
922.0
921.0
921.0
917.0
913.0
909.0
909.0
916.0
930.0
958.0
992.0
1034.0
1078.0
1128.0
1180.0
1230.0
1270.0
1299.0
1315.0
1317.0
1310.0
1292.0
1265.0
1215.0
1145.0
1057.0
975.0
910.0
875.0
865.0
870.0
879.0
890.0
894.0
895.0
895.0
894.0
890.0
888.0
888.0
892.0
893.0
892.0
888.0
888.0
885.0
885.0
887.0
887.0
891.0
891.0
889.0
887.0
889.0
885.0
883.0
881.0
876.0
877.0
877.0
876.0
877.0
879.0
882.0
880.0
877.0
877.0
874.0
870.0
866.0
868.0
866.0
867.0
868.0
868.0
869.0
867.0
866.0
862.0
862.0
858.0
857.0
857.0
859.0
858.0
860.0
860.0
859.0
857.0
854.0
852.0
849.0
849.0
846.0
839.0
842.0
843.0
839.0
841.0
840.0
837.0
830.0
829.0
828.0
826.0
822.0
821.0
820.0
820.0
819.0
817.0
817.0
814.0
814.0
809.0
806.0
804.0
806.0
807.0
808.0
811.0
814.0
819.0
824.0
828.0
829.0
833.0
838.0
842.0
847.0
849.0
853.0
861.0
865.0
873.0
877.0
881.0
886.0
886.0
888.0
890.0
895.0
899.0
903.0
909.0
911.0
915.0
917.0
916.0
915.0
910.0
910.0
909.0
908.0
908.0
911.0
912.0
914.0
912.0
916.0
916.0
915.0
913.0
910.0
910.0
908.0
910.0
915.0
912.0
916.0
919.0
919.0
915.0
917.0
917.0
916.0
914.0
912.0
913.0
915.0
914.0
913.0
915.0
917.0
916.0
913.0
913.0
911.0
909.0
908.0
908.0
909.0
909.0
911.0
916.0
918.0
918.0
919.0
919.0
920.0
920.0
922.0
922.0
925.0
929.0
928.0
930.0
927.0
928.0
929.0
926.0
929.0
929.0
929.0
928.0
927.0
925.0
923.0
921.0
927.0
942.0
967.0
1004.0
1045.0
1095.0
1148.0
1204.0
1256.0
1294.0
1317.0
1326.0
1317.0
1294.0
1245.0
1176.0
1084.0
988.0
913.0
869.0
855.0
864.0
881.0
896.0
905.0
904.0
901.0
894.0
887.0
881.0
882.0
880.0
881.0
885.0
887.0
889.0
888.0
887.0
885.0
886.0
886.0
885.0
885.0
886.0
886.0
886.0
889.0
888.0
889.0
890.0
889.0
887.0
886.0
881.0
881.0
879.0
879.0
878.0
880.0
881.0
879.0
877.0
873.0
871.0
870.0
868.0
861.0
860.0
854.0
854.0
852.0
855.0
852.0
855.0
853.0
848.0
846.0
843.0
844.0
844.0
844.0
844.0
845.0
847.0
847.0
847.0
843.0
843.0
839.0
834.0
832.0
830.0
831.0
830.0
830.0
830.0
831.0
827.0
823.0
823.0
821.0
816.0
816.0
813.0
813.0
813.0
816.0
819.0
820.0
820.0
825.0
827.0
830.0
833.0
835.0
844.0
849.0
856.0
864.0
869.0
875.0
875.0
876.0
878.0
879.0
881.0
882.0
882.0
885.0
886.0
889.0
892.0
894.0
894.0
893.0
893.0
892.0
893.0
893.0
896.0
896.0
902.0
903.0
908.0
909.0
913.0
911.0
911.0
909.0
908.0
907.0
907.0
910.0
912.0
914.0
918.0
919.0
920.0
920.0
916.0
915.0
913.0
913.0
913.0
913.0
914.0
915.0
916.0
915.0
914.0
913.0
910.0
908.0
907.0
906.0
904.0
907.0
908.0
909.0
911.0
911.0
909.0
909.0
907.0
906.0
903.0
901.0
902.0
903.0
905.0
906.0
906.0
908.0
909.0
910.0
910.0
909.0
908.0
908.0
910.0
913.0
914.0
914.0
918.0
918.0
918.0
915.0
914.0
911.0
911.0
910.0
911.0
912.0
912.0
912.0
913.0
914.0
911.0
912.0
910.0
911.0
908.0
905.0
906.0
905.0
908.0
907.0
907.0
909.0
908.0
907.0
906.0
904.0
901.0
905.0
906.0
908.0
910.0
910.0
911.0
911.0
910.0
909.0
910.0
908.0
905.0
908.0
908.0
908.0
911.0
913.0
915.0
917.0
917.0
916.0
917.0
918.0
915.0
914.0
914.0
914.0
916.0
915.0
920.0
918.0
922.0
918.0
916.0
915.0
915.0
910.0
914.0
914.0
916.0
918.0
921.0
920.0
919.0
918.0
917.0
916.0
916.0
914.0
914.0
912.0
915.0
915.0
914.0
917.0
915.0
917.0
914.0
912.0
911.0
913.0
911.0
914.0
914.0
914.0
915.0
914.0
911.0
908.0
906.0
904.0
903.0
904.0
906.0
909.0
911.0
909.0
912.0
913.0
912.0
909.0
909.0
909.0
909.0
911.0
912.0
913.0
917.0
917.0
921.0
921.0
921.0
921.0
920.0
919.0
920.0
920.0
919.0
917.0
921.0
920.0
921.0
922.0
921.0
921.0
919.0
918.0
916.0
917.0
920.0
920.0
922.0
926.0
927.0
928.0
929.0
930.0
928.0
928.0
926.0
927.0
929.0
927.0
929.0
931.0
932.0
932.0
930.0
930.0
927.0
923.0
917.0
914.0
912.0
910.0
920.0
939.0
970.0
1007.0
1049.0
1100.0
1153.0
1208.0
1258.0
1296.0
1319.0
1327.0
1324.0
1310.0
1283.0
1229.0
1150.0
1058.0
970.0
907.0
875.0
870.0
882.0
894.0
906.0
913.0
915.0
911.0
907.0
900.0
898.0
895.0
894.0
891.0
891.0
891.0
891.0
891.0
889.0
888.0
887.0
888.0
889.0
885.0
882.0
882.0
881.0
880.0
883.0
882.0
884.0
886.0
882.0
881.0
879.0
877.0
874.0
871.0
872.0
871.0
871.0
870.0
872.0
870.0
867.0
867.0
867.0
865.0
863.0
860.0
860.0
862.0
861.0
862.0
862.0
861.0
861.0
859.0
856.0
854.0
851.0
849.0
847.0
849.0
850.0
846.0
847.0
847.0
844.0
843.0
843.0
839.0
834.0
833.0
831.0
832.0
832.0
831.0
829.0
828.0
826.0
823.0
821.0
818.0
816.0
813.0
812.0
811.0
810.0
808.0
810.0
809.0
806.0
809.0
807.0
808.0
807.0
809.0
809.0
811.0
814.0
819.0
823.0
830.0
834.0
836.0
844.0
845.0
852.0
854.0
858.0
865.0
869.0
877.0
885.0
889.0
888.0
888.0
894.0
897.0
896.0
897.0
901.0
906.0
909.0
911.0
911.0
915.0
915.0
916.0
914.0
913.0
914.0
915.0
916.0
916.0
919.0
920.0
922.0
923.0
925.0
926.0
925.0
926.0
926.0
927.0
928.0
932.0
933.0
935.0
936.0
939.0
938.0
937.0
937.0
934.0
933.0
933.0
935.0
932.0
937.0
935.0
934.0
934.0
932.0
932.0
928.0
927.0
926.0
926.0
926.0
929.0
931.0
930.0
930.0
932.0
931.0
932.0
928.0
926.0
926.0
923.0
923.0
922.0
923.0
925.0
925.0
927.0
925.0
925.0
924.0
922.0
920.0
920.0
921.0
920.0
921.0
921.0
922.0
924.0
924.0
924.0
925.0
923.0
922.0
923.0
921.0
922.0
923.0
921.0
922.0
926.0
920.0
918.0
917.0
913.0
916.0
914.0
915.0
915.0
918.0
919.0
921.0
921.0
918.0
919.0
914.0
915.0
913.0
912.0
912.0
915.0
916.0
918.0
918.0
919.0
917.0
917.0
916.0
915.0
914.0
914.0
917.0
918.0
921.0
922.0
922.0
926.0
923.0
922.0
921.0
920.0
919.0
919.0
918.0
919.0
917.0
916.0
913.0
914.0
921.0
938.0
967.0
1005.0
1051.0
1105.0
1164.0
1225.0
1279.0
1315.0
1335.0
1337.0
1326.0
1304.0
1262.0
1196.0
1107.0
1009.0
936.0
892.0
879.0
885.0
897.0
910.0
916.0
916.0
913.0
907.0
900.0
895.0
894.0
893.0
893.0
894.0
894.0
893.0
892.0
892.0
887.0
885.0
884.0
885.0
883.0
883.0
882.0
884.0
879.0
882.0
880.0
880.0
878.0
876.0
873.0
871.0
869.0
868.0
868.0
872.0
870.0
871.0
871.0
869.0
866.0
865.0
867.0
865.0
864.0
867.0
866.0
867.0
868.0
869.0
867.0
871.0
867.0
867.0
867.0
865.0
863.0
862.0
862.0
861.0
860.0
860.0
856.0
855.0
849.0
843.0
839.0
835.0
833.0
831.0
829.0
828.0
825.0
823.0
820.0
817.0
813.0
813.0
807.0
803.0
802.0
800.0
800.0
801.0
800.0
802.0
803.0
806.0
808.0
808.0
813.0
814.0
820.0
827.0
834.0
841.0
847.0
851.0
855.0
858.0
863.0
867.0
873.0
871.0
877.0
885.0
890.0
898.0
904.0
907.0
909.0
911.0
911.0
912.0
913.0
913.0
913.0
914.0
914.0
914.0
917.0
916.0
915.0
917.0
913.0
916.0
917.0
918.0
920.0
919.0
920.0
921.0
924.0
926.0
924.0
924.0
922.0
919.0
916.0
913.0
914.0
911.0
912.0
912.0
914.0
917.0
916.0
914.0
911.0
907.0
903.0
901.0
897.0
897.0
900.0
903.0
903.0
903.0
903.0
900.0
898.0
898.0
893.0
892.0
891.0
891.0
897.0
902.0
904.0
907.0
908.0
907.0
908.0
911.0
912.0
913.0
915.0
912.0
916.0
915.0
919.0
917.0
917.0
918.0
918.0
917.0
916.0
916.0
921.0
921.0
923.0
925.0
926.0
926.0
926.0
925.0
926.0
923.0
921.0
920.0
919.0
920.0
920.0
922.0
923.0
925.0
925.0
924.0
922.0
919.0
921.0
918.0
919.0
918.0
916.0
915.0
915.0
913.0
911.0
909.0
905.0
902.0
898.0
894.0
889.0
891.0
894.0
893.0
896.0
898.0
901.0
903.0
904.0
901.0
902.0
900.0
901.0
904.0
904.0
908.0
910.0
911.0
912.0
910.0
910.0
910.0
908.0
910.0
913.0
913.0
913.0
913.0
915.0
912.0
913.0
914.0
912.0
911.0
912.0
911.0
910.0
912.0
916.0
914.0
916.0
919.0
917.0
916.0
916.0
915.0
914.0
915.0
914.0
914.0
917.0
919.0
919.0
920.0
918.0
917.0
915.0
913.0
909.0
906.0
906.0
905.0
907.0
907.0
908.0
908.0
910.0
911.0
913.0
912.0
909.0
907.0
903.0
902.0
912.0
931.0
961.0
1004.0
1053.0
1112.0
1176.0
1233.0
1285.0
1318.0
1337.0
1337.0
1325.0
1298.0
1252.0
1179.0
1083.0
984.0
915.0
876.0
864.0
873.0
886.0
900.0
904.0
905.0
904.0
900.0
895.0
893.0
890.0
890.0
889.0
886.0
886.0
885.0
885.0
883.0
885.0
886.0
883.0
881.0
880.0
877.0
874.0
874.0
870.0
868.0
867.0
864.0
862.0
863.0
861.0
863.0
863.0
863.0
864.0
866.0
867.0
867.0
868.0
869.0
870.0
867.0
864.0
863.0
862.0
860.0
856.0
854.0
855.0
855.0
857.0
858.0
860.0
859.0
855.0
855.0
852.0
849.0
847.0
844.0
842.0
841.0
841.0
839.0
838.0
836.0
832.0
829.0
825.0
819.0
818.0
814.0
812.0
810.0
810.0
808.0
806.0
805.0
801.0
798.0
792.0
788.0
784.0
780.0
778.0
774.0
775.0
779.0
781.0
786.0
790.0
793.0
797.0
799.0
805.0
810.0
819.0
828.0
838.0
846.0
849.0
857.0
862.0
865.0
868.0
873.0
875.0
878.0
883.0
890.0
893.0
896.0
899.0
902.0
902.0
903.0
903.0
904.0
903.0
903.0
905.0
906.0
909.0
911.0
914.0
916.0
915.0
916.0
916.0
913.0
912.0
909.0
909.0
910.0
910.0
909.0
906.0
908.0
906.0
905.0
904.0
902.0
902.0
900.0
903.0
901.0
902.0
904.0
908.0
910.0
910.0
911.0
910.0
905.0
905.0
907.0
907.0
909.0
909.0
911.0
911.0
912.0
909.0
911.0
910.0
909.0
910.0
908.0
909.0
909.0
910.0
911.0
912.0
912.0
912.0
911.0
911.0
909.0
908.0
905.0
909.0
909.0
910.0
913.0
914.0
912.0
913.0
912.0
910.0
907.0
907.0
901.0
903.0
905.0
907.0
908.0
913.0
911.0
909.0
910.0
911.0
911.0
912.0
912.0
913.0
911.0
912.0
912.0
912.0
915.0
911.0
912.0
909.0
909.0
906.0
906.0
903.0
907.0
904.0
905.0
909.0
911.0
908.0
906.0
904.0
903.0
900.0
898.0
893.0
892.0
897.0
908.0
927.0
957.0
999.0
1042.0
1088.0
1142.0
1195.0
1245.0
1287.0
1320.0
1334.0
1334.0
1324.0
1303.0
1264.0
1205.0
1119.0
1022.0
938.0
882.0
860.0
860.0
871.0
887.0
899.0
902.0
902.0
896.0
888.0
885.0
884.0
883.0
885.0
889.0
887.0
887.0
887.0
888.0
884.0
883.0
881.0
878.0
877.0
874.0
872.0
872.0
871.0
871.0
871.0
873.0
870.0
869.0
867.0
865.0
863.0
863.0
860.0
860.0
857.0
859.0
859.0
861.0
859.0
856.0
855.0
853.0
847.0
847.0
845.0
846.0
848.0
848.0
850.0
850.0
851.0
850.0
849.0
847.0
845.0
842.0
841.0
839.0
838.0
837.0
840.0
839.0
838.0
834.0
832.0
831.0
827.0
822.0
822.0
819.0
821.0
817.0
813.0
814.0
810.0
807.0
807.0
804.0
799.0
797.0
798.0
795.0
794.0
791.0
790.0
789.0
792.0
791.0
795.0
796.0
803.0
805.0
813.0
817.0
828.0
834.0
842.0
846.0
850.0
855.0
859.0
861.0
864.0
870.0
872.0
879.0
883.0
888.0
891.0
893.0
899.0
899.0
897.0
898.0
895.0
895.0
894.0
896.0
900.0
902.0
905.0
905.0
905.0
906.0
904.0
901.0
903.0
899.0
897.0
897.0
899.0
900.0
902.0
904.0
904.0
903.0
899.0
899.0
898.0
898.0
898.0
896.0
897.0
897.0
896.0
895.0
896.0
896.0
895.0
893.0
893.0
890.0
894.0
894.0
895.0
899.0
898.0
900.0
902.0
903.0
901.0
904.0
902.0
898.0
900.0
900.0
899.0
899.0
899.0
900.0
903.0
902.0
902.0
899.0
898.0
899.0
900.0
900.0
901.0
903.0
905.0
906.0
905.0
906.0
902.0
903.0
903.0
902.0
900.0
903.0
905.0
907.0
908.0
909.0
907.0
906.0
904.0
903.0
901.0
900.0
901.0
903.0
904.0
907.0
908.0
910.0
910.0
910.0
910.0
907.0
906.0
905.0
905.0
908.0
910.0
909.0
910.0
905.0
900.0
898.0
897.0
898.0
907.0
929.0
957.0
993.0
1036.0
1087.0
1142.0
1197.0
1246.0
1285.0
1308.0
1316.0
1313.0
1300.0
1281.0
1244.0
1186.0
1100.0
1012.0
934.0
885.0
866.0
862.0
871.0
879.0
886.0
890.0
888.0
888.0
886.0
883.0
879.0
881.0
881.0
877.0
875.0
879.0
875.0
876.0
873.0
874.0
875.0
877.0
876.0
875.0
875.0
875.0
873.0
874.0
871.0
870.0
870.0
873.0
873.0
874.0
871.0
872.0
870.0
869.0
868.0
865.0
864.0
863.0
864.0
863.0
863.0
866.0
864.0
863.0
861.0
859.0
855.0
853.0
849.0
849.0
847.0
847.0
846.0
844.0
843.0
839.0
834.0
830.0
826.0
821.0
818.0
818.0
816.0
818.0
817.0
816.0
815.0
815.0
810.0
806.0
805.0
800.0
796.0
794.0
792.0
790.0
792.0
792.0
793.0
793.0
790.0
792.0
791.0
793.0
798.0
800.0
807.0
816.0
821.0
830.0
838.0
846.0
847.0
856.0
860.0
863.0
867.0
873.0
876.0
881.0
886.0
889.0
892.0
893.0
894.0
893.0
892.0
889.0
888.0
886.0
884.0
883.0
885.0
884.0
887.0
886.0
886.0
887.0
884.0
886.0
885.0
888.0
890.0
894.0
894.0
897.0
898.0
899.0
898.0
900.0
899.0
898.0
896.0
896.0
895.0
895.0
897.0
897.0
900.0
901.0
900.0
900.0
899.0
896.0
892.0
897.0
897.0
902.0
903.0
907.0
909.0
910.0
910.0
911.0
909.0
908.0
909.0
909.0
909.0
910.0
910.0
909.0
911.0
906.0
907.0
903.0
898.0
897.0
894.0
893.0
891.0
892.0
894.0
895.0
895.0
896.0
899.0
896.0
893.0
894.0
894.0
893.0
893.0
894.0
895.0
896.0
