# Simple Text Format
# Sampling Rate (Hz):= 360.00
# Resolution:= 12
# Labels:= ECG
820.0
819.0
815.0
815.0
814.0
811.0
811.0
807.0
803.0
798.0
795.0
792.0
788.0
787.0
785.0
786.0
786.0
786.0
787.0
784.0
785.0
783.0
784.0
783.0
782.0
786.0
793.0
800.0
805.0
815.0
824.0
830.0
836.0
840.0
842.0
850.0
856.0
862.0
867.0
872.0
878.0
880.0
885.0
888.0
888.0
886.0
887.0
886.0
888.0
888.0
889.0
892.0
894.0
895.0
897.0
893.0
893.0
891.0
889.0
890.0
889.0
890.0
892.0
891.0
891.0
891.0
891.0
893.0
894.0
891.0
890.0
889.0
889.0
891.0
892.0
892.0
894.0
895.0
894.0
895.0
894.0
892.0
892.0
891.0
896.0
894.0
899.0
904.0
908.0
910.0
911.0
912.0
912.0
909.0
908.0
905.0
906.0
906.0
905.0
907.0
909.0
909.0
911.0
914.0
911.0
909.0
907.0
905.0
905.0
906.0
905.0
906.0
906.0
910.0
910.0
909.0
905.0
906.0
907.0
904.0
907.0
906.0
908.0
907.0
910.0
911.0
910.0
911.0
910.0
909.0
908.0
907.0
906.0
902.0
897.0
894.0
892.0
897.0
907.0
933.0
970.0
1016.0
1066.0
1120.0
1182.0
1240.0
1292.0
1328.0
1347.0
1353.0
1342.0
1320.0
1281.0
1217.0
1128.0
1028.0
939.0
884.0
863.0
868.0
882.0
899.0
911.0
914.0
913.0
904.0
898.0
892.0
891.0
890.0
891.0
891.0
888.0
889.0
886.0
884.0
880.0
878.0
876.0
876.0
875.0
875.0
875.0
877.0
877.0
878.0
880.0
876.0
873.0
871.0
869.0
867.0
867.0
866.0
867.0
867.0
868.0
870.0
870.0
867.0
866.0
864.0
863.0
861.0
860.0
859.0
860.0
863.0
860.0
862.0
860.0
859.0
856.0
856.0
853.0
849.0
847.0
846.0
844.0
843.0
845.0
845.0
843.0
841.0
837.0
836.0
834.0
826.0
825.0
824.0
822.0
821.0
819.0
816.0
813.0
813.0
810.0
805.0
805.0
804.0
801.0
802.0
801.0
801.0
802.0
806.0
811.0
813.0
818.0
821.0
826.0
829.0
835.0
841.0
848.0
855.0
860.0
865.0
869.0
872.0
874.0
876.0
876.0
879.0
883.0
883.0
886.0
890.0
892.0
895.0
898.0
897.0
897.0
897.0
893.0
892.0
896.0
898.0
898.0
898.0
899.0
902.0
902.0
904.0
904.0
905.0
905.0
902.0
903.0
904.0
903.0
911.0
911.0
914.0
917.0
919.0
918.0
915.0
916.0
913.0
913.0
912.0
912.0
916.0
917.0
918.0
916.0
917.0
914.0
910.0
910.0
907.0
904.0
910.0
909.0
911.0
909.0
912.0
910.0
912.0
915.0
909.0
910.0
908.0
906.0
906.0
906.0
909.0
907.0
910.0
909.0
909.0
908.0
907.0
904.0
905.0
905.0
908.0
908.0
909.0
910.0
911.0
910.0
911.0
908.0
909.0
908.0
907.0
906.0
904.0
903.0
906.0
908.0
910.0
910.0
910.0
909.0
906.0
905.0
905.0
906.0
908.0
909.0
915.0
919.0
919.0
920.0
921.0
919.0
918.0
917.0
919.0
919.0
920.0
919.0
920.0
922.0
926.0
925.0
924.0
924.0
921.0
918.0
918.0
921.0
920.0
918.0
921.0
919.0
920.0
920.0
918.0
918.0
916.0
917.0
915.0
914.0
916.0
916.0
917.0
918.0
921.0
922.0
921.0
919.0
915.0
909.0
905.0
900.0
900.0
908.0
925.0
957.0
995.0
1040.0
1092.0
1150.0
1208.0
1264.0
1309.0
1340.0
1355.0
1355.0
1349.0
1334.0
1304.0
1256.0
1173.0
1078.0
989.0
925.0
894.0
889.0
897.0
908.0
914.0
918.0
923.0
920.0
916.0
913.0
908.0
905.0
901.0
900.0
902.0
899.0
899.0
899.0
902.0
899.0
897.0
895.0
891.0
888.0
886.0
885.0
884.0
883.0
882.0
882.0
880.0
881.0
879.0
877.0
876.0
876.0
875.0
875.0
876.0
875.0
872.0
873.0
873.0
869.0
869.0
865.0
865.0
863.0
860.0
860.0
858.0
857.0
857.0
856.0
856.0
856.0
856.0
858.0
855.0
857.0
855.0
857.0
857.0
857.0
860.0
859.0
858.0
856.0
853.0
848.0
846.0
843.0
841.0
837.0
831.0
831.0
831.0
831.0
828.0
826.0
824.0
820.0
818.0
813.0
808.0
805.0
801.0
802.0
799.0
800.0
802.0
804.0
806.0
809.0
809.0
812.0
820.0
825.0
835.0
841.0
848.0
854.0
862.0
868.0
873.0
879.0
880.0
885.0
886.0
891.0
894.0
898.0
901.0
905.0
905.0
907.0
908.0
907.0
906.0
903.0
903.0
900.0
900.0
903.0
908.0
912.0
920.0
921.0
924.0
922.0
923.0
921.0
922.0
920.0
916.0
918.0
920.0
921.0
922.0
919.0
923.0
921.0
920.0
919.0
918.0
919.0
920.0
921.0
919.0
920.0
924.0
926.0
927.0
927.0
928.0
923.0
924.0
924.0
924.0
925.0
928.0
926.0
930.0
934.0
930.0
930.0
928.0
921.0
921.0
922.0
921.0
921.0
925.0
924.0
927.0
926.0
925.0
923.0
918.0
918.0
918.0
920.0
918.0
919.0
920.0
921.0
919.0
919.0
919.0
921.0
921.0
921.0
924.0
926.0
929.0
931.0
931.0
931.0
934.0
933.0
933.0
933.0
931.0
929.0
930.0
927.0
925.0
925.0
925.0
922.0
925.0
925.0
925.0
924.0
919.0
920.0
918.0
916.0
919.0
916.0
918.0
920.0
920.0
921.0
920.0
919.0
917.0
917.0
918.0
918.0
917.0
916.0
917.0
919.0
922.0
924.0
922.0
920.0
919.0
918.0
912.0
910.0
910.0
903.0
903.0
908.0
913.0
916.0
917.0
918.0
918.0
920.0
920.0
923.0
926.0
925.0
927.0
930.0
930.0
926.0
926.0
927.0
925.0
923.0
922.0
921.0
923.0
925.0
926.0
927.0
932.0
931.0
931.0
932.0
930.0
929.0
927.0
926.0
925.0
922.0
919.0
918.0
914.0
910.0
904.0
906.0
919.0
944.0
976.0
1016.0
1063.0
1116.0
1175.0
1231.0
1282.0
1320.0
1343.0
1351.0
1344.0
1329.0
1300.0
1252.0
1175.0
1077.0
977.0
904.0
865.0
855.0
864.0
878.0
888.0
898.0
901.0
902.0
902.0
900.0
901.0
902.0
903.0
905.0
906.0
903.0
901.0
900.0
897.0
894.0
896.0
897.0
896.0
899.0
902.0
901.0
898.0
896.0
894.0
893.0
888.0
887.0
885.0
885.0
885.0
886.0
884.0
886.0
883.0
882.0
880.0
877.0
872.0
870.0
869.0
867.0
867.0
867.0
867.0
868.0
867.0
865.0
862.0
859.0
855.0
854.0
852.0
849.0
849.0
844.0
842.0
841.0
836.0
834.0
831.0
829.0
828.0
825.0
825.0
823.0
823.0
824.0
825.0
827.0
824.0
823.0
818.0
815.0
811.0
805.0
803.0
800.0
797.0
796.0
797.0
795.0
797.0
794.0
795.0
796.0
798.0
800.0
806.0
807.0
816.0
823.0
831.0
838.0
841.0
848.0
854.0
857.0
862.0
866.0
871.0
873.0
880.0
885.0
888.0
891.0
892.0
896.0
899.0
901.0
898.0
897.0
900.0
900.0
903.0
905.0
905.0
908.0
909.0
912.0
912.0
912.0
913.0
914.0
915.0
916.0
920.0
921.0
921.0
924.0
925.0
927.0
926.0
926.0
927.0
928.0
926.0
927.0
927.0
928.0
927.0
927.0
926.0
925.0
925.0
924.0
923.0
923.0
920.0
921.0
921.0
921.0
924.0
924.0
922.0
922.0
920.0
918.0
918.0
914.0
913.0
914.0
916.0
917.0
918.0
919.0
917.0
916.0
910.0
907.0
903.0
901.0
903.0
903.0
906.0
907.0
909.0
909.0
908.0
910.0
911.0
913.0
912.0
915.0
917.0
919.0
924.0
926.0
930.0
930.0
930.0
932.0
932.0
931.0
931.0
929.0
933.0
933.0
934.0
934.0
929.0
931.0
927.0
928.0
927.0
923.0
924.0
924.0
923.0
924.0
924.0
923.0
924.0
923.0
923.0
921.0
919.0
917.0
916.0
915.0
914.0
913.0
915.0
915.0
917.0
918.0
917.0
913.0
909.0
906.0
902.0
898.0
897.0
899.0
901.0
901.0
905.0
906.0
909.0
909.0
909.0
910.0
911.0
913.0
915.0
917.0
919.0
924.0
927.0
929.0
929.0
929.0
929.0
925.0
925.0
923.0
922.0
925.0
927.0
929.0
926.0
926.0
925.0
925.0
925.0
922.0
922.0
920.0
919.0
919.0
920.0
922.0
921.0
922.0
919.0
920.0
920.0
917.0
915.0
915.0
914.0
918.0
918.0
918.0
916.0
914.0
910.0
903.0
896.0
894.0
904.0
926.0
964.0
1013.0
1073.0
1141.0
1211.0
1273.0
1322.0
1348.0
1354.0
1346.0
1319.0
1270.0
1192.0
1088.0
988.0
916.0
882.0
878.0
895.0
913.0
925.0
928.0
925.0
919.0
910.0
906.0
904.0
906.0
911.0
913.0
912.0
909.0
908.0
905.0
903.0
899.0
899.0
898.0
897.0
897.0
896.0
893.0
892.0
890.0
882.0
877.0
872.0
868.0
869.0
864.0
864.0
863.0
865.0
864.0
862.0
864.0
862.0
862.0
860.0
859.0
857.0
856.0
859.0
860.0
860.0
862.0
863.0
865.0
865.0
865.0
866.0
865.0
865.0
865.0
863.0
864.0
863.0
860.0
856.0
855.0
850.0
844.0
840.0
838.0
835.0
832.0
832.0
829.0
826.0
822.0
820.0
816.0
812.0
810.0
803.0
798.0
794.0
793.0
791.0
792.0
793.0
796.0
793.0
794.0
796.0
798.0
799.0
803.0
810.0
816.0
825.0
832.0
840.0
846.0
851.0
857.0
861.0
865.0
866.0
871.0
874.0
879.0
885.0
890.0
893.0
898.0
900.0
903.0
906.0
908.0
912.0
914.0
917.0
919.0
922.0
925.0
926.0
928.0
926.0
926.0
923.0
923.0
921.0
918.0
917.0
920.0
923.0
924.0
923.0
922.0
920.0
916.0
915.0
912.0
909.0
908.0
906.0
909.0
907.0
909.0
912.0
912.0
912.0
913.0
915.0
915.0
913.0
913.0
916.0
918.0
920.0
921.0
922.0
925.0
922.0
928.0
926.0
926.0
926.0
923.0
923.0
926.0
925.0
927.0
929.0
931.0
930.0
928.0
931.0
929.0
930.0
930.0
930.0
930.0
931.0
933.0
934.0
936.0
934.0
933.0
931.0
930.0
926.0
927.0
928.0
926.0
925.0
925.0
923.0
922.0
918.0
918.0
912.0
910.0
908.0
904.0
905.0
905.0
906.0
905.0
908.0
912.0
912.0
913.0
914.0
909.0
910.0
912.0
910.0
913.0
916.0
917.0
920.0
923.0
924.0
926.0
926.0
925.0
923.0
924.0
925.0
924.0
925.0
928.0
928.0
931.0
930.0
931.0
925.0
923.0
921.0
921.0
923.0
920.0
923.0
921.0
922.0
921.0
920.0
921.0
923.0
922.0
921.0
920.0
923.0
924.0
924.0
922.0
923.0
919.0
917.0
915.0
914.0
915.0
912.0
914.0
916.0
915.0
914.0
914.0
914.0
913.0
914.0
915.0
913.0
915.0
914.0
914.0
914.0
915.0
917.0
917.0
923.0
925.0
925.0
923.0
923.0
918.0
916.0
916.0
917.0
915.0
918.0
923.0
925.0
929.0
926.0
924.0
925.0
922.0
924.0
920.0
922.0
924.0
926.0
927.0
928.0
929.0
929.0
928.0
927.0
928.0
929.0
928.0
927.0
929.0
929.0
931.0
931.0
931.0
929.0
930.0
927.0
924.0
925.0
923.0
924.0
926.0
925.0
928.0
927.0
927.0
926.0
928.0
924.0
922.0
919.0
914.0
913.0
919.0
935.0
963.0
1003.0
1053.0
1113.0
1173.0
1232.0
1284.0
1321.0
1343.0
1349.0
1344.0
1328.0
1299.0
1252.0
1179.0
1087.0
998.0
931.0
894.0
885.0
891.0
903.0
916.0
923.0
922.0
921.0
914.0
909.0
908.0
908.0
903.0
902.0
898.0
897.0
896.0
896.0
892.0
889.0
886.0
884.0
880.0
877.0
877.0
877.0
877.0
876.0
879.0
884.0
885.0
889.0
892.0
889.0
890.0
889.0
888.0
889.0
889.0
889.0
890.0
888.0
890.0
890.0
889.0
890.0
889.0
886.0
881.0
880.0
883.0
880.0
878.0
881.0
878.0
880.0
879.0
878.0
876.0
873.0
872.0
870.0
866.0
865.0
860.0
862.0
860.0
859.0
857.0
854.0
852.0
850.0
846.0
840.0
836.0
833.0
830.0
825.0
820.0
817.0
818.0
813.0
810.0
808.0
802.0
798.0
793.0
789.0
786.0
783.0
781.0
783.0
782.0
782.0
784.0
787.0
791.0
798.0
808.0
818.0
831.0
841.0
851.0
860.0
868.0
873.0
881.0
887.0
890.0
893.0
900.0
903.0
908.0
912.0
915.0
921.0
921.0
923.0
923.0
923.0
921.0
923.0
923.0
924.0
925.0
926.0
928.0
924.0
929.0
926.0
926.0
924.0
924.0
922.0
923.0
920.0
921.0
921.0
918.0
915.0
915.0
915.0
914.0
913.0
914.0
915.0
911.0
911.0
910.0
912.0
914.0
912.0
910.0
910.0
914.0
914.0
914.0
913.0
911.0
914.0
915.0
919.0
921.0
924.0
931.0
932.0
938.0
941.0
941.0
942.0
940.0
944.0
943.0
944.0
946.0
947.0
947.0
946.0
948.0
947.0
947.0
945.0
944.0
942.0
941.0
944.0
944.0
944.0
946.0
946.0
947.0
943.0
943.0
939.0
937.0
939.0
938.0
938.0
938.0
939.0
937.0
937.0
936.0
933.0
931.0
929.0
927.0
927.0
928.0
927.0
929.0
932.0
931.0
931.0
929.0
930.0
930.0
927.0
922.0
922.0
918.0
913.0
912.0
912.0
922.0
942.0
976.0
1019.0
1069.0
1124.0
1187.0
1314.0
1291.0
1321.0
1332.0
1319.0
1310.0
1273.0
1400.0
1272.0
1144.0
1016.0
902.0
880.0
877.0
889.0
902.0
911.0
920.0
915.0
910.0
901.0
898.0
898.0
895.0
897.0
898.0
901.0
898.0
899.0
902.0
904.0
901.0
895.0
896.0
896.0
890.0
891.0
890.0
894.0
894.0
891.0
891.0
893.0
892.0
891.0
890.0
889.0
889.0
889.0
888.0
1015.0
1142.0
1014.0
961.0
960.0
961.0
960.0
957.0
958.0
954.0
956.0
957.0
956.0
957.0
959.0
958.0
960.0
960.0
958.0
957.0
956.0
951.0
951.0
951.0
951.0
955.0
952.0
953.0
952.0
949.0
946.0
947.0
942.0
939.0
936.0
936.0
934.0
933.0
934.0
932.0
930.0
927.0
924.0
920.0
915.0
911.0
907.0
907.0
904.0
905.0
904.0
903.0
900.0
898.0
898.0
898.0
896.0
893.0
897.0
898.0
902.0
907.0
913.0
917.0
922.0
924.0
925.0
924.0
928.0
929.0
930.0
935.0
936.0
938.0
940.0
943.0
945.0
944.0
944.0
944.0
944.0
945.0
944.0
946.0
944.0
948.0
948.0
951.0
950.0
950.0
948.0
948.0
944.0
941.0
944.0
946.0
945.0
947.0
948.0
949.0
948.0
949.0
948.0
947.0
947.0
947.0
946.0
946.0
946.0
947.0
948.0
950.0
949.0
950.0
947.0
946.0
945.0
944.0
944.0
946.0
947.0
952.0
952.0
954.0
957.0
954.0
957.0
953.0
955.0
956.0
959.0
961.0
961.0
963.0
965.0
964.0
964.0
964.0
962.0
960.0
961.0
960.0
958.0
960.0
960.0
962.0
962.0
964.0
966.0
962.0
960.0
960.0
958.0
957.0
958.0
958.0
960.0
958.0
959.0
962.0
957.0
955.0
956.0
954.0
953.0
949.0
947.0
951.0
949.0
951.0
951.0
951.0
950.0
949.0
949.0
948.0
950.0
948.0
951.0
951.0
952.0
954.0
954.0
960.0
960.0
961.0
960.0
961.0
960.0
912.0
912.0
911.0
911.0
913.0
915.0
916.0
917.0
915.0
914.0
914.0
908.0
903.0
897.0
901.0
909.0
933.0
967.0
1010.0
1058.0
1112.0
1171.0
1230.0
1281.0
1320.0
1340.0
1346.0
1340.0
1319.0
1284.0
1223.0
1130.0
1027.0
937.0
876.0
854.0
853.0
865.0
878.0
889.0
894.0
896.0
894.0
891.0
887.0
888.0
885.0
886.0
885.0
884.0
886.0
884.0
885.0
884.0
884.0
883.0
883.0
880.0
880.0
877.0
876.0
875.0
876.0
880.0
878.0
878.0
877.0
877.0
874.0
874.0
874.0
872.0
873.0
873.0
873.0
873.0
872.0
874.0
876.0
877.0
875.0
874.0
871.0
865.0
866.0
864.0
865.0
864.0
867.0
866.0
865.0
864.0
862.0
860.0
854.0
854.0
852.0
852.0
849.0
847.0
847.0
844.0
839.0
836.0
831.0
824.0
821.0
817.0
816.0
812.0
812.0
812.0
811.0
808.0
808.0
805.0
803.0
798.0
795.0
790.0
787.0
784.0
785.0
789.0
790.0
793.0
795.0
796.0
800.0
802.0
805.0
808.0
814.0
818.0
822.0
830.0
835.0
843.0
852.0
861.0
865.0
869.0
875.0
876.0
881.0
882.0
887.0
890.0
894.0
896.0
901.0
903.0
907.0
907.0
906.0
904.0
903.0
906.0
905.0
907.0
907.0
906.0
907.0
903.0
899.0
895.0
895.0
893.0
896.0
896.0
899.0
901.0
905.0
907.0
912.0
912.0
915.0
915.0
913.0
912.0
911.0
909.0
910.0
909.0
912.0
912.0
915.0
915.0
912.0
911.0
914.0
915.0
916.0
916.0
914.0
913.0
914.0
913.0
912.0
914.0
915.0
913.0
913.0
910.0
911.0
914.0
914.0
917.0
918.0
920.0
922.0
922.0
920.0
917.0
917.0
913.0
909.0
911.0
912.0
912.0
913.0
913.0
912.0
909.0
907.0
901.0
898.0
898.0
900.0
901.0
905.0
908.0
911.0
912.0
916.0
915.0
916.0
917.0
915.0
913.0
912.0
911.0
912.0
912.0
910.0
911.0
911.0
913.0
911.0
911.0
908.0
908.0
905.0
904.0
903.0
904.0
906.0
907.0
907.0
907.0
906.0
905.0
905.0
905.0
903.0
904.0
907.0
907.0
908.0
911.0
913.0
914.0
914.0
912.0
911.0
908.0
907.0
909.0
910.0
910.0
909.0
909.0
909.0
907.0
906.0
903.0
899.0
894.0
890.0
887.0
888.0
891.0
895.0
895.0
902.0
905.0
908.0
909.0
909.0
911.0
907.0
908.0
907.0
909.0
912.0
913.0
914.0
913.0
911.0
911.0
911.0
911.0
909.0
909.0
908.0
907.0
911.0
909.0
910.0
910.0
912.0
909.0
909.0
908.0
908.0
909.0
909.0
911.0
911.0
914.0
914.0
916.0
916.0
917.0
911.0
912.0
911.0
910.0
912.0
914.0
912.0
911.0
912.0
915.0
911.0
912.0
906.0
902.0
900.0
897.0
893.0
896.0
899.0
904.0
905.0
904.0
907.0
906.0
906.0
907.0
908.0
908.0
908.0
911.0
911.0
910.0
910.0
910.0
909.0
908.0
907.0
907.0
907.0
904.0
903.0
907.0
910.0
909.0
910.0
910.0
908.0
908.0
904.0
904.0
902.0
903.0
903.0
906.0
906.0
905.0
905.0
907.0
905.0
909.0
907.0
903.0
903.0
904.0
907.0
910.0
910.0
912.0
908.0
910.0
907.0
908.0
906.0
904.0
902.0
902.0
903.0
904.0
904.0
904.0
904.0
903.0
904.0
904.0
903.0
905.0
908.0
906.0
909.0
912.0
915.0
915.0
920.0
924.0
923.0
923.0
924.0
921.0
919.0
920.0
920.0
921.0
924.0
924.0
924.0
925.0
923.0
921.0
914.0
910.0
902.0
899.0
903.0
920.0
950.0
992.0
1038.0
1093.0
1157.0
1220.0
1276.0
1322.0
1348.0
1359.0
1356.0
1343.0
1319.0
1269.0
1194.0
1093.0
988.0
909.0
865.0
854.0
861.0
877.0
891.0
900.0
902.0
897.0
892.0
885.0
879.0
877.0
874.0
870.0
869.0
866.0
867.0
869.0
873.0
876.0
881.0
881.0
883.0
883.0
882.0
881.0
878.0
875.0
876.0
876.0
876.0
876.0
878.0
874.0
873.0
872.0
870.0
867.0
864.0
864.0
863.0
861.0
859.0
859.0
862.0
860.0
859.0
855.0
854.0
850.0
849.0
848.0
845.0
845.0
846.0
842.0
842.0
838.0
834.0
829.0
822.0
819.0
817.0
813.0
811.0
809.0
807.0
807.0
806.0
803.0
802.0
800.0
797.0
794.0
795.0
793.0
792.0
791.0
790.0
791.0
791.0
791.0
790.0
788.0
784.0
781.0
779.0
777.0
777.0
775.0
777.0
778.0
778.0
781.0
782.0
785.0
787.0
790.0
791.0
798.0
805.0
812.0
816.0
824.0
832.0
838.0
843.0
850.0
855.0
858.0
862.0
867.0
873.0
876.0
880.0
885.0
887.0
890.0
889.0
890.0
890.0
891.0
890.0
891.0
893.0
895.0
894.0
896.0
898.0
900.0
899.0
901.0
899.0
898.0
897.0
899.0
900.0
904.0
908.0
913.0
915.0
916.0
917.0
918.0
920.0
918.0
922.0
918.0
918.0
919.0
920.0
923.0
925.0
926.0
925.0
924.0
924.0
923.0
923.0
922.0
919.0
920.0
921.0
922.0
923.0
922.0
920.0
918.0
915.0
913.0
910.0
908.0
908.0
909.0
911.0
911.0
913.0
915.0
915.0
916.0
912.0
914.0
910.0
909.0
911.0
912.0
913.0
915.0
913.0
913.0
915.0
913.0
914.0
912.0
912.0
911.0
911.0
918.0
920.0
923.0
924.0
924.0
924.0
923.0
923.0
919.0
920.0
916.0
917.0
920.0
919.0
922.0
925.0
927.0
925.0
927.0
923.0
921.0
920.0
917.0
917.0
918.0
917.0
920.0
922.0
922.0
918.0
917.0
914.0
912.0
909.0
910.0
907.0
909.0
911.0
910.0
910.0
911.0
910.0
913.0
910.0
910.0
914.0
911.0
915.0
915.0
916.0
915.0
914.0
914.0
913.0
913.0
911.0
911.0
912.0
913.0
913.0
918.0
921.0
924.0
926.0
928.0
926.0
924.0
923.0
921.0
922.0
923.0
925.0
924.0
927.0
925.0
923.0
918.0
914.0
915.0
922.0
945.0
976.0
1019.0
1074.0
1137.0
1204.0
1268.0
1318.0
1350.0
1363.0
1360.0
1348.0
1316.0
1265.0
1178.0
1068.0
966.0
895.0
867.0
868.0
881.0
901.0
915.0
922.0
923.0
916.0
911.0
907.0
904.0
904.0
906.0
903.0
903.0
900.0
901.0
894.0
891.0
889.0
887.0
884.0
885.0
887.0
885.0
890.0
890.0
887.0
885.0
883.0
881.0
879.0
878.0
877.0
876.0
874.0
876.0
878.0
880.0
877.0
880.0
878.0
875.0
872.0
867.0
864.0
867.0
867.0
866.0
871.0
870.0
869.0
867.0
868.0
866.0
864.0
864.0
862.0
864.0
861.0
861.0
861.0
860.0
859.0
857.0
852.0
850.0
848.0
845.0
846.0
844.0
844.0
841.0
840.0
837.0
836.0
833.0
827.0
823.0
816.0
816.0
814.0
815.0
814.0
813.0
812.0
808.0
806.0
803.0
803.0
801.0
803.0
804.0
810.0
814.0
821.0
827.0
835.0
842.0
846.0
854.0
858.0
863.0
868.0
872.0
877.0
884.0
889.0
893.0
898.0
901.0
905.0
907.0
905.0
908.0
909.0
911.0
912.0
914.0
917.0
918.0
919.0
918.0
918.0
917.0
914.0
915.0
911.0
911.0
914.0
914.0
914.0
915.0
915.0
914.0
913.0
914.0
912.0
909.0
910.0
909.0
908.0
910.0
909.0
909.0
910.0
910.0
903.0
901.0
901.0
899.0
899.0
900.0
900.0
903.0
905.0
907.0
907.0
909.0
908.0
907.0
905.0
904.0
903.0
906.0
907.0
910.0
912.0
915.0
920.0
921.0
923.0
923.0
922.0
922.0
923.0
923.0
924.0
925.0
928.0
929.0
930.0
928.0
928.0
926.0
926.0
924.0
923.0
923.0
922.0
922.0
924.0
924.0
924.0
923.0
921.0
920.0
920.0
916.0
916.0
915.0
912.0
906.0
906.0
904.0
917.0
939.0
967.0
1009.0
1052.0
1104.0
1160.0
1219.0
1275.0
1319.0
1345.0
1355.0
1349.0
1330.0
1293.0
1229.0
1140.0
1041.0
957.0
902.0
877.0
874.0
882.0
894.0
900.0
903.0
903.0
898.0
891.0
886.0
885.0
884.0
886.0
886.0
888.0
889.0
889.0
885.0
883.0
884.0
879.0
882.0
883.0
882.0
884.0
880.0
880.0
883.0
884.0
880.0
881.0
881.0
877.0
876.0
874.0
873.0
871.0
871.0
874.0
874.0
875.0
877.0
876.0
875.0
873.0
871.0
870.0
867.0
867.0
868.0
868.0
867.0
867.0
866.0
865.0
865.0
865.0
860.0
858.0
857.0
859.0
857.0
855.0
854.0
854.0
852.0
853.0
849.0
844.0
839.0
833.0
830.0
829.0
825.0
825.0
822.0
821.0
819.0
816.0
811.0
808.0
806.0
804.0
802.0
801.0
800.0
802.0
801.0
803.0
803.0
803.0
806.0
808.0
810.0
812.0
817.0
822.0
832.0
838.0
845.0
852.0
858.0
862.0
868.0
869.0
872.0
873.0
877.0
879.0
885.0
889.0
894.0
896.0
899.0
899.0
899.0
899.0
902.0
900.0
898.0
899.0
901.0
904.0
903.0
906.0
906.0
904.0
903.0
900.0
901.0
902.0
901.0
903.0
903.0
906.0
909.0
909.0
909.0
909.0
908.0
906.0
907.0
906.0
903.0
905.0
905.0
909.0
910.0
911.0
912.0
911.0
910.0
907.0
907.0
904.0
902.0
903.0
902.0
905.0
907.0
910.0
910.0
911.0
910.0
909.0
908.0
907.0
909.0
912.0
912.0
913.0
912.0
915.0
915.0
914.0
915.0
910.0
909.0
908.0
906.0
910.0
908.0
910.0
910.0
914.0
912.0
911.0
910.0
909.0
906.0
905.0
903.0
904.0
900.0
905.0
906.0
910.0
909.0
909.0
909.0
907.0
908.0
906.0
906.0
908.0
909.0
906.0
908.0
910.0
909.0
908.0
906.0
905.0
904.0
903.0
899.0
900.0
902.0
901.0
902.0
905.0
904.0
904.0
906.0
903.0
904.0
901.0
908.0
909.0
910.0
912.0
914.0
914.0
914.0
915.0
913.0
912.0
907.0
907.0
905.0
907.0
908.0
910.0
912.0
914.0
918.0
915.0
913.0
912.0
911.0
910.0
908.0
910.0
910.0
911.0
911.0
913.0
912.0
910.0
910.0
907.0
905.0
906.0
904.0
906.0
904.0
904.0
907.0
909.0
908.0
906.0
907.0
905.0
907.0
905.0
907.0
908.0
907.0
908.0
908.0
913.0
911.0
911.0
912.0
911.0
911.0
910.0
909.0
912.0
911.0
912.0
915.0
916.0
917.0
915.0
916.0
914.0
914.0
913.0
913.0
913.0
913.0
917.0
916.0
917.0
919.0
918.0
917.0
911.0
911.0
911.0
910.0
911.0
913.0
914.0
916.0
918.0
918.0
917.0
915.0
911.0
910.0
908.0
907.0
907.0
906.0
908.0
911.0
910.0
912.0
913.0
913.0
912.0
909.0
909.0
910.0
908.0
912.0
911.0
913.0
916.0
917.0
915.0
917.0
917.0
915.0
917.0
917.0
917.0
916.0
916.0
916.0
918.0
919.0
919.0
919.0
919.0
919.0
917.0
917.0
914.0
914.0
915.0
914.0
915.0
914.0
915.0
910.0
909.0
908.0
908.0
907.0
907.0
908.0
910.0
913.0
915.0
917.0
917.0
916.0
911.0
909.0
907.0
904.0
905.0
908.0
911.0
912.0
914.0
917.0
913.0
911.0
912.0
915.0
911.0
911.0
911.0
912.0
914.0
916.0
917.0
918.0
918.0
917.0
915.0
915.0
913.0
913.0
912.0
914.0
915.0
917.0
921.0
922.0
922.0
923.0
924.0
923.0
921.0
919.0
915.0
911.0
908.0
910.0
921.0
942.0
974.0
1015.0
1062.0
1117.0
1176.0
1237.0
1291.0
1332.0
1356.0
1363.0
1358.0
1342.0
1311.0
1256.0
1173.0
1070.0
970.0
898.0
864.0
860.0
875.0
891.0
903.0
911.0
911.0
908.0
901.0
893.0
889.0
887.0
882.0
887.0
889.0
889.0
893.0
891.0
890.0
891.0
887.0
884.0
883.0
881.0
880.0
879.0
878.0
879.0
879.0
879.0
877.0
872.0
870.0
870.0
870.0
869.0
869.0
868.0
868.0
870.0
872.0
870.0
872.0
870.0
868.0
867.0
865.0
864.0
860.0
861.0
861.0
863.0
864.0
864.0
862.0
859.0
857.0
853.0
851.0
849.0
850.0
849.0
852.0
851.0
854.0
854.0
850.0
850.0
848.0
846.0
841.0
840.0
836.0
837.0
835.0
833.0
832.0
832.0
830.0
827.0
825.0
819.0
813.0
811.0
810.0
808.0
809.0
808.0
807.0
807.0
803.0
800.0
797.0
795.0
794.0
792.0
795.0
796.0
798.0
801.0
809.0
815.0
819.0
822.0
825.0
830.0
831.0
838.0
846.0
852.0
858.0
864.0
870.0
875.0
880.0
882.0
883.0
886.0
892.0
890.0
896.0
898.0
906.0
910.0
913.0
914.0
915.0
915.0
919.0
920.0
920.0
919.0
919.0
921.0
921.0
923.0
923.0
924.0
924.0
924.0
923.0
923.0
926.0
926.0
927.0
925.0
929.0
930.0
930.0
933.0
935.0
934.0
936.0
936.0
939.0
939.0
940.0
941.0
940.0
941.0
943.0
944.0
945.0
941.0
941.0
939.0
939.0
935.0
937.0
938.0
939.0
942.0
944.0
945.0
943.0
941.0
939.0
936.0
935.0
931.0
929.0
925.0
930.0
940.0
965.0
1008.0
1054.0
1110.0
1170.0
1228.0
1284.0
1325.0
1349.0
1361.0
1356.0
1339.0
1304.0
1242.0
1147.0
1036.0
937.0
876.0
853.0
861.0
884.0
906.0
925.0
934.0
934.0
930.0
922.0
917.0
914.0
913.0
915.0
915.0
914.0
914.0
916.0
917.0
916.0
916.0
915.0
913.0
911.0
909.0
907.0
905.0
905.0
905.0
905.0
904.0
903.0
901.0
898.0
897.0
894.0
891.0
888.0
886.0
886.0
883.0
883.0
883.0
880.0
880.0
878.0
875.0
873.0
869.0
867.0
864.0
863.0
862.0
863.0
865.0
864.0
865.0
863.0
860.0
860.0
857.0
857.0
857.0
857.0
856.0
857.0
857.0
858.0
858.0
855.0
855.0
851.0
847.0
845.0
843.0
845.0
843.0
842.0
843.0
842.0
841.0
840.0
840.0
840.0
840.0
838.0
838.0
841.0
845.0
849.0
854.0
859.0
865.0
869.0
872.0
876.0
881.0
