# Simple Text Format
# Sampling Rate (Hz):= 360.00
# Resolution:= 12
# Labels:= ECG
885.0
888.0
892.0
894.0
896.0
896.0
900.0
904.0
907.0
907.0
907.0
906.0
902.0
899.0
899.0
899.0
901.0
903.0
903.0
907.0
906.0
910.0
909.0
907.0
910.0
910.0
917.0
918.0
922.0
922.0
924.0
925.0
926.0
927.0
927.0
927.0
926.0
926.0
928.0
928.0
931.0
932.0
934.0
935.0
935.0
933.0
934.0
931.0
931.0
930.0
930.0
933.0
935.0
936.0
936.0
937.0
936.0
935.0
932.0
933.0
925.0
924.0
921.0
920.0
920.0
920.0
919.0
921.0
919.0
918.0
917.0
916.0
915.0
916.0
916.0
917.0
918.0
919.0
920.0
925.0
925.0
925.0
924.0
924.0
925.0
923.0
924.0
927.0
929.0
929.0
930.0
933.0
933.0
932.0
933.0
929.0
927.0
927.0
930.0
929.0
930.0
930.0
933.0
933.0
931.0
932.0
929.0
929.0
928.0
925.0
926.0
927.0
927.0
927.0
926.0
929.0
929.0
929.0
927.0
925.0
922.0
920.0
920.0
917.0
916.0
913.0
915.0
917.0
916.0
913.0
913.0
913.0
912.0
913.0
914.0
914.0
920.0
922.0
926.0
926.0
928.0
927.0
926.0
925.0
920.0
921.0
919.0
922.0
921.0
923.0
924.0
924.0
925.0
923.0
921.0
920.0
919.0
917.0
918.0
919.0
919.0
920.0
920.0
923.0
923.0
925.0
923.0
921.0
923.0
924.0
925.0
926.0
928.0
928.0
927.0
927.0
925.0
923.0
921.0
917.0
918.0
915.0
916.0
917.0
916.0
918.0
918.0
920.0
919.0
917.0
919.0
918.0
916.0
917.0
921.0
925.0
926.0
929.0
931.0
932.0
933.0
935.0
933.0
932.0
927.0
927.0
924.0
924.0
924.0
930.0
942.0
961.0
992.0
1029.0
1071.0
1118.0
1171.0
1222.0
1269.0
1304.0
1327.0
1332.0
1325.0
1306.0
1269.0
1213.0
1131.0
1043.0
966.0
914.0
894.0
889.0
898.0
904.0
911.0
914.0
913.0
907.0
901.0
895.0
893.0
890.0
890.0
889.0
886.0
887.0
887.0
888.0
887.0
885.0
886.0
882.0
883.0
883.0
880.0
880.0
880.0
879.0
878.0
879.0
878.0
877.0
876.0
875.0
874.0
877.0
876.0
877.0
877.0
877.0
878.0
879.0
877.0
875.0
873.0
870.0
867.0
866.0
864.0
864.0
865.0
864.0
864.0
862.0
859.0
858.0
854.0
853.0
851.0
847.0
844.0
844.0
844.0
842.0
841.0
839.0
837.0
836.0
832.0
828.0
828.0
822.0
821.0
820.0
820.0
817.0
817.0
818.0
814.0
811.0
808.0
805.0
799.0
794.0
795.0
793.0
794.0
794.0
791.0
791.0
787.0
788.0
787.0
787.0
787.0
788.0
789.0
791.0
796.0
802.0
810.0
815.0
822.0
826.0
832.0
839.0
842.0
854.0
860.0
866.0
870.0
875.0
881.0
887.0
891.0
892.0
892.0
891.0
890.0
890.0
894.0
899.0
902.0
904.0
907.0
907.0
908.0
904.0
907.0
907.0
907.0
906.0
910.0
912.0
916.0
919.0
921.0
923.0
923.0
922.0
922.0
922.0
921.0
924.0
924.0
921.0
925.0
925.0
925.0
927.0
925.0
929.0
928.0
925.0
923.0
920.0
921.0
922.0
921.0
924.0
926.0
925.0
927.0
928.0
927.0
926.0
922.0
922.0
922.0
922.0
924.0
923.0
923.0
925.0
921.0
920.0
920.0
918.0
917.0
918.0
917.0
918.0
920.0
923.0
922.0
925.0
924.0
926.0
925.0
923.0
923.0
922.0
923.0
923.0
928.0
928.0
931.0
930.0
930.0
927.0
924.0
920.0
918.0
922.0
917.0
921.0
922.0
921.0
921.0
922.0
922.0
922.0
921.0
918.0
918.0
915.0
915.0
915.0
915.0
917.0
918.0
919.0
917.0
915.0
913.0
912.0
909.0
909.0
911.0
910.0
910.0
910.0
912.0
912.0
914.0
914.0
914.0
915.0
914.0
915.0
916.0
919.0
918.0
922.0
925.0
926.0
928.0
927.0
923.0
919.0
914.0
912.0
921.0
941.0
969.0
1007.0
1050.0
1100.0
1155.0
1209.0
1260.0
1298.0
1323.0
1331.0
1329.0
1314.0
1281.0
1229.0
1157.0
1064.0
976.0
913.0
881.0
875.0
881.0
892.0
903.0
909.0
910.0
905.0
903.0
901.0
900.0
896.0
897.0
895.0
894.0
891.0
889.0
888.0
887.0
885.0
885.0
888.0
888.0
889.0
887.0
885.0
882.0
882.0
881.0
880.0
881.0
881.0
885.0
884.0
885.0
887.0
887.0
886.0
885.0
884.0
882.0
882.0
882.0
883.0
880.0
881.0
880.0
880.0
877.0
874.0
871.0
871.0
870.0
869.0
869.0
869.0
863.0
862.0
861.0
859.0
856.0
852.0
849.0
849.0
847.0
846.0
846.0
845.0
844.0
844.0
840.0
839.0
837.0
832.0
827.0
825.0
823.0
821.0
817.0
815.0
814.0
812.0
809.0
805.0
803.0
798.0
795.0
790.0
786.0
786.0
786.0
786.0
788.0
792.0
793.0
796.0
804.0
809.0
815.0
819.0
825.0
834.0
845.0
851.0
857.0
865.0
870.0
873.0
878.0
880.0
884.0
887.0
887.0
893.0
897.0
898.0
902.0
904.0
904.0
903.0
900.0
900.0
899.0
898.0
899.0
900.0
904.0
902.0
904.0
906.0
906.0
907.0
904.0
906.0
905.0
906.0
908.0
906.0
907.0
908.0
908.0
909.0
911.0
910.0
910.0
911.0
911.0
910.0
910.0
913.0
915.0
917.0
919.0
921.0
924.0
924.0
922.0
919.0
918.0
919.0
918.0
919.0
920.0
921.0
923.0
924.0
924.0
923.0
922.0
917.0
915.0
914.0
914.0
912.0
913.0
913.0
911.0
913.0
912.0
913.0
910.0
905.0
902.0
900.0
902.0
904.0
904.0
905.0
904.0
908.0
907.0
906.0
906.0
904.0
902.0
903.0
904.0
905.0
909.0
912.0
914.0
916.0
918.0
917.0
921.0
920.0
919.0
920.0
917.0
922.0
921.0
923.0
922.0
922.0
923.0
921.0
921.0
920.0
918.0
917.0
917.0
918.0
919.0
919.0
923.0
923.0
924.0
923.0
922.0
917.0
917.0
917.0
917.0
916.0
919.0
916.0
916.0
915.0
917.0
914.0
911.0
911.0
909.0
910.0
909.0
909.0
908.0
910.0
909.0
910.0
911.0
911.0
911.0
913.0
911.0
911.0
908.0
910.0
910.0
910.0
917.0
920.0
920.0
922.0
920.0
920.0
921.0
920.0
917.0
921.0
920.0
923.0
925.0
927.0
926.0
926.0
923.0
922.0
919.0
919.0
922.0
921.0
924.0
924.0
926.0
927.0
926.0
924.0
922.0
920.0
919.0
916.0
917.0
922.0
924.0
927.0
928.0
929.0
927.0
926.0
925.0
923.0
921.0
920.0
920.0
920.0
919.0
919.0
917.0
915.0
915.0
912.0
926.0
948.0
982.0
1026.0
1082.0
1145.0
1211.0
1269.0
1315.0
1345.0
1356.0
1355.0
1342.0
1319.0
1279.0
1218.0
1130.0
1034.0
952.0
903.0
887.0
888.0
904.0
912.0
921.0
919.0
917.0
910.0
905.0
898.0
897.0
896.0
897.0
899.0
896.0
895.0
892.0
887.0
882.0
880.0
878.0
877.0
877.0
875.0
874.0
878.0
877.0
877.0
877.0
874.0
871.0
868.0
870.0
870.0
871.0
871.0
871.0
874.0
878.0
879.0
879.0
877.0
878.0
876.0
879.0
878.0
879.0
880.0
882.0
881.0
879.0
876.0
871.0
870.0
865.0
862.0
865.0
862.0
862.0
862.0
862.0
862.0
861.0
858.0
859.0
854.0
853.0
848.0
846.0
843.0
843.0
839.0
839.0
837.0
834.0
830.0
827.0
819.0
815.0
810.0
808.0
803.0
801.0
803.0
802.0
801.0
798.0
794.0
793.0
790.0
788.0
785.0
783.0
784.0
793.0
795.0
800.0
803.0
807.0
811.0
817.0
822.0
831.0
839.0
845.0
855.0
862.0
869.0
877.0
884.0
891.0
894.0
898.0
901.0
902.0
906.0
907.0
910.0
913.0
915.0
914.0
916.0
919.0
918.0
916.0
913.0
914.0
912.0
911.0
912.0
912.0
915.0
915.0
917.0
918.0
919.0
917.0
912.0
912.0
911.0
911.0
911.0
914.0
916.0
914.0
916.0
919.0
918.0
918.0
917.0
917.0
919.0
917.0
922.0
927.0
930.0
932.0
935.0
937.0
937.0
936.0
935.0
935.0
937.0
937.0
940.0
942.0
942.0
946.0
947.0
950.0
949.0
949.0
945.0
946.0
945.0
943.0
942.0
943.0
944.0
944.0
944.0
944.0
945.0
944.0
944.0
941.0
939.0
938.0
939.0
939.0
941.0
942.0
942.0
943.0
942.0
941.0
940.0
935.0
936.0
932.0
927.0
921.0
920.0
921.0
934.0
961.0
998.0
1048.0
1104.0
1167.0
1232.0
1289.0
1332.0
1359.0
1366.0
1356.0
1333.0
1286.0
1209.0
1103.0
999.0
923.0
888.0
885.0
899.0
918.0
932.0
938.0
944.0
938.0
926.0
921.0
916.0
916.0
914.0
917.0
914.0
917.0
918.0
917.0
918.0
916.0
914.0
912.0
913.0
909.0
907.0
905.0
902.0
903.0
903.0
902.0
901.0
900.0
898.0
893.0
893.0
891.0
891.0
887.0
884.0
883.0
878.0
875.0
879.0
877.0
878.0
877.0
874.0
874.0
873.0
869.0
874.0
873.0
876.0
876.0
875.0
875.0
873.0
871.0
868.0
866.0
865.0
862.0
860.0
860.0
860.0
860.0
857.0
856.0
854.0
849.0
847.0
845.0
841.0
842.0
843.0
844.0
845.0
845.0
845.0
840.0
842.0
840.0
834.0
832.0
833.0
833.0
834.0
836.0
840.0
845.0
849.0
850.0
854.0
858.0
861.0
864.0
865.0
867.0
871.0
874.0
878.0
882.0
886.0
887.0
889.0
893.0
889.0
894.0
896.0
895.0
894.0
896.0
898.0
899.0
903.0
905.0
906.0
908.0
910.0
912.0
914.0
916.0
917.0
918.0
920.0
921.0
921.0
924.0
923.0
925.0
925.0
924.0
925.0
926.0
927.0
928.0
931.0
932.0
934.0
935.0
935.0
933.0
931.0
932.0
929.0
928.0
930.0
927.0
931.0
931.0
932.0
934.0
933.0
932.0
931.0
929.0
928.0
927.0
927.0
925.0
924.0
925.0
925.0
921.0
920.0
917.0
915.0
911.0
910.0
904.0
905.0
907.0
908.0
909.0
912.0
911.0
908.0
912.0
912.0
911.0
910.0
911.0
911.0
911.0
913.0
913.0
917.0
915.0
915.0
913.0
915.0
915.0
913.0
911.0
913.0
915.0
915.0
920.0
921.0
923.0
923.0
922.0
920.0
918.0
917.0
914.0
914.0
914.0
915.0
919.0
920.0
921.0
919.0
919.0
919.0
919.0
917.0
920.0
920.0
921.0
922.0
924.0
924.0
926.0
925.0
923.0
922.0
923.0
920.0
920.0
921.0
919.0
921.0
920.0
922.0
921.0
918.0
916.0
914.0
910.0
912.0
913.0
914.0
917.0
915.0
916.0
920.0
920.0
920.0
918.0
918.0
916.0
914.0
914.0
917.0
919.0
920.0
921.0
923.0
925.0
923.0
922.0
921.0
918.0
917.0
909.0
904.0
902.0
906.0
918.0
944.0
981.0
1028.0
1082.0
1141.0
1204.0
1261.0
1306.0
1336.0
1346.0
1343.0
1326.0
1290.0
1226.0
1136.0
1036.0
947.0
896.0
874.0
873.0
884.0
897.0
908.0
909.0
909.0
903.0
900.0
896.0
890.0
892.0
890.0
888.0
892.0
890.0
890.0
891.0
892.0
889.0
887.0
885.0
884.0
881.0
881.0
880.0
881.0
881.0
881.0
881.0
882.0
879.0
879.0
876.0
874.0
871.0
869.0
868.0
867.0
865.0
867.0
867.0
868.0
867.0
865.0
864.0
861.0
860.0
858.0
855.0
856.0
854.0
855.0
854.0
855.0
853.0
853.0
849.0
847.0
843.0
843.0
841.0
840.0
839.0
840.0
840.0
836.0
835.0
833.0
830.0
824.0
820.0
816.0
811.0
808.0
807.0
805.0
802.0
799.0
798.0
793.0
792.0
789.0
789.0
786.0
784.0
786.0
787.0
793.0
796.0
800.0
802.0
806.0
807.0
809.0
815.0
819.0
826.0
831.0
838.0
848.0
856.0
862.0
868.0
874.0
877.0
880.0
884.0
885.0
887.0
891.0
892.0
896.0
899.0
901.0
906.0
909.0
910.0
913.0
914.0
916.0
915.0
917.0
916.0
916.0
918.0
920.0
922.0
923.0
920.0
920.0
922.0
922.0
921.0
922.0
921.0
922.0
921.0
923.0
922.0
922.0
919.0
920.0
919.0
916.0
917.0
916.0
916.0
919.0
921.0
919.0
921.0
920.0
918.0
916.0
912.0
911.0
911.0
911.0
911.0
912.0
914.0
915.0
917.0
917.0
915.0
915.0
915.0
913.0
911.0
909.0
909.0
911.0
912.0
915.0
915.0
916.0
919.0
917.0
918.0
912.0
911.0
911.0
911.0
913.0
915.0
915.0
917.0
917.0
918.0
915.0
917.0
917.0
917.0
917.0
917.0
918.0
919.0
920.0
922.0
921.0
921.0
919.0
918.0
918.0
917.0
917.0
917.0
916.0
919.0
916.0
919.0
919.0
921.0
917.0
918.0
915.0
912.0
914.0
911.0
912.0
913.0
915.0
911.0
909.0
909.0
908.0
907.0
901.0
902.0
905.0
905.0
908.0
909.0
908.0
910.0
907.0
905.0
905.0
902.0
900.0
898.0
894.0
896.0
895.0
898.0
900.0
901.0
904.0
904.0
906.0
906.0
905.0
907.0
908.0
909.0
910.0
911.0
910.0
914.0
914.0
914.0
915.0
913.0
913.0
912.0
912.0
912.0
912.0
912.0
914.0
914.0
913.0
912.0
911.0
909.0
910.0
910.0
912.0
915.0
921.0
923.0
925.0
929.0
928.0
928.0
927.0
925.0
925.0
922.0
921.0
923.0
925.0
923.0
920.0
915.0
914.0
910.0
921.0
934.0
959.0
997.0
1042.0
1093.0
1146.0
1199.0
1250.0
1293.0
1321.0
1333.0
1333.0
1323.0
1301.0
1261.0
1199.0
1112.0
1017.0
937.0
889.0
872.0
872.0
883.0
896.0
902.0
904.0
900.0
896.0
889.0
890.0
888.0
889.0
889.0
889.0
885.0
882.0
883.0
880.0
878.0
875.0
877.0
877.0
879.0
881.0
882.0
881.0
882.0
882.0
879.0
878.0
876.0
875.0
873.0
874.0
873.0
873.0
874.0
871.0
874.0
871.0
870.0
870.0
866.0
866.0
864.0
865.0
865.0
864.0
864.0
864.0
862.0
861.0
858.0
856.0
852.0
853.0
852.0
851.0
853.0
850.0
850.0
846.0
849.0
845.0
841.0
838.0
839.0
840.0
841.0
838.0
840.0
838.0
839.0
834.0
828.0
823.0
821.0
818.0
816.0
813.0
809.0
807.0
805.0
805.0
804.0
798.0
795.0
790.0
785.0
783.0
782.0
781.0
781.0
785.0
786.0
788.0
792.0
794.0
798.0
803.0
810.0
816.0
823.0
829.0
834.0
839.0
847.0
852.0
860.0
865.0
869.0
871.0
874.0
878.0
882.0
884.0
887.0
894.0
894.0
897.0
900.0
901.0
900.0
902.0
898.0
898.0
898.0
898.0
899.0
902.0
903.0
908.0
906.0
909.0
912.0
911.0
911.0
910.0
907.0
910.0
907.0
909.0
910.0
910.0
913.0
908.0
906.0
906.0
904.0
907.0
909.0
911.0
912.0
915.0
915.0
918.0
919.0
918.0
920.0
918.0
917.0
917.0
917.0
918.0
919.0
923.0
923.0
924.0
926.0
923.0
923.0
920.0
920.0
920.0
916.0
916.0
915.0
918.0
916.0
919.0
919.0
918.0
918.0
916.0
916.0
913.0
912.0
914.0
916.0
917.0
915.0
917.0
918.0
919.0
918.0
915.0
915.0
914.0
912.0
913.0
912.0
913.0
910.0
911.0
912.0
913.0
911.0
912.0
910.0
908.0
908.0
909.0
912.0
919.0
919.0
922.0
925.0
926.0
928.0
931.0
932.0
930.0
928.0
929.0
927.0
927.0
930.0
931.0
931.0
931.0
930.0
926.0
924.0
923.0
920.0
921.0
924.0
923.0
923.0
926.0
925.0
925.0
927.0
922.0
922.0
921.0
919.0
917.0
918.0
918.0
919.0
920.0
920.0
918.0
919.0
915.0
914.0
913.0
915.0
913.0
911.0
915.0
915.0
915.0
917.0
914.0
912.0
914.0
910.0
909.0
910.0
908.0
909.0
912.0
912.0
917.0
920.0
919.0
920.0
918.0
916.0
912.0
914.0
914.0
918.0
925.0
930.0
939.0
942.0
943.0
943.0
942.0
940.0
937.0
936.0
934.0
935.0
934.0
930.0
934.0
935.0
932.0
932.0
930.0
928.0
925.0
923.0
925.0
925.0
926.0
927.0
929.0
930.0
931.0
931.0
927.0
925.0
922.0
918.0
908.0
904.0
907.0
919.0
943.0
981.0
1029.0
1083.0
1143.0
1205.0
1264.0
1309.0
1339.0
1352.0
1352.0
1341.0
1314.0
1264.0
1184.0
1082.0
978.0
904.0
870.0
863.0
874.0
888.0
902.0
912.0
916.0
916.0
911.0
906.0
904.0
905.0
904.0
905.0
906.0
904.0
905.0
905.0
905.0
906.0
905.0
903.0
900.0
900.0
896.0
896.0
897.0
893.0
895.0
893.0
894.0
893.0
892.0
890.0
889.0
887.0
885.0
882.0
883.0
884.0
882.0
883.0
879.0
880.0
877.0
875.0
872.0
871.0
870.0
867.0
866.0
864.0
864.0
862.0
861.0
858.0
855.0
853.0
850.0
848.0
847.0
846.0
846.0
846.0
848.0
850.0
848.0
849.0
847.0
845.0
840.0
835.0
830.0
826.0
822.0
820.0
819.0
819.0
816.0
816.0
812.0
810.0
807.0
805.0
801.0
800.0
798.0
800.0
803.0
806.0
812.0
820.0
825.0
831.0
834.0
842.0
846.0
852.0
859.0
866.0
873.0
877.0
883.0
886.0
888.0
893.0
894.0
895.0
897.0
897.0
900.0
902.0
906.0
908.0
910.0
914.0
914.0
916.0
917.0
915.0
912.0
910.0
912.0
911.0
912.0
912.0
915.0
914.0
917.0
918.0
916.0
913.0
914.0
914.0
916.0
914.0
915.0
917.0
922.0
919.0
919.0
920.0
920.0
918.0
915.0
916.0
919.0
919.0
921.0
923.0
925.0
925.0
927.0
927.0
927.0
924.0
923.0
924.0
923.0
926.0
925.0
930.0
932.0
933.0
934.0
934.0
933.0
931.0
931.0
931.0
931.0
930.0
929.0
930.0
930.0
930.0
930.0
929.0
928.0
928.0
928.0
926.0
929.0
929.0
929.0
931.0
930.0
932.0
931.0
929.0
926.0
922.0
918.0
917.0
915.0
916.0
917.0
918.0
920.0
924.0
923.0
925.0
925.0
926.0
926.0
924.0
926.0
928.0
929.0
930.0
931.0
932.0
931.0
930.0
930.0
925.0
922.0
921.0
922.0
923.0
923.0
923.0
925.0
925.0
927.0
929.0
929.0
929.0
927.0
928.0
927.0
927.0
928.0
927.0
926.0
925.0
922.0
919.0
913.0
908.0
904.0
901.0
906.0
923.0
956.0
997.0
1046.0
1099.0
1161.0
1222.0
1279.0
1319.0
1343.0
1349.0
1342.0
1319.0
1275.0
1205.0
1108.0
1007.0
926.0
883.0
869.0
876.0
893.0
904.0
916.0
919.0
918.0
914.0
911.0
909.0
905.0
905.0
902.0
904.0
903.0
902.0
900.0
901.0
901.0
900.0
899.0
898.0
899.0
900.0
899.0
897.0
897.0
894.0
897.0
896.0
895.0
894.0
892.0
892.0
888.0
886.0
882.0
882.0
879.0
877.0
876.0
879.0
880.0
879.0
880.0
883.0
878.0
876.0
871.0
869.0
862.0
856.0
857.0
854.0
854.0
852.0
855.0
856.0
854.0
853.0
851.0
848.0
846.0
849.0
847.0
848.0
848.0
844.0
844.0
841.0
838.0
837.0
833.0
831.0
826.0
824.0
821.0
820.0
820.0
818.0
817.0
816.0
814.0
814.0
808.0
809.0
811.0
811.0
817.0
821.0
826.0
832.0
839.0
846.0
851.0
857.0
863.0
867.0
871.0
875.0
880.0
884.0
888.0
893.0
893.0
895.0
895.0
891.0
890.0
888.0
889.0
889.0
893.0
895.0
896.0
900.0
904.0
907.0
908.0
910.0
910.0
912.0
911.0
910.0
910.0
911.0
914.0
916.0
917.0
919.0
919.0
919.0
918.0
918.0
917.0
915.0
916.0
916.0
917.0
918.0
920.0
919.0
920.0
919.0
917.0
917.0
913.0
914.0
913.0
914.0
913.0
916.0
917.0
919.0
918.0
919.0
919.0
915.0
915.0
912.0
913.0
914.0
914.0
912.0
910.0
909.0
907.0
905.0
904.0
907.0
904.0
903.0
906.0
907.0
910.0
914.0
916.0
919.0
920.0
920.0
918.0
917.0
918.0
919.0
919.0
920.0
922.0
921.0
921.0
926.0
926.0
926.0
929.0
929.0
926.0
925.0
923.0
916.0
917.0
922.0
935.0
962.0
992.0
1032.0
1074.0
1120.0
1169.0
1222.0
1268.0
1306.0
1330.0
1340.0
1344.0
1328.0
1296.0
1243.0
1162.0
1064.0
972.0
908.0
877.0
871.0
877.0
887.0
896.0
900.0
897.0
894.0
889.0
887.0
886.0
885.0
884.0
886.0
886.0
889.0
888.0
889.0
891.0
890.0
888.0
887.0
885.0
882.0
881.0
880.0
881.0
879.0
885.0
882.0
882.0
881.0
881.0
879.0
877.0
876.0
876.0
875.0
875.0
876.0
874.0
875.0
874.0
872.0
870.0
868.0
865.0
864.0
862.0
860.0
860.0
859.0
858.0
858.0
860.0
859.0
855.0
853.0
851.0
848.0
846.0
840.0
839.0
838.0
835.0
831.0
828.0
828.0
824.0
824.0
822.0
822.0
819.0
819.0
819.0
819.0
820.0
820.0
818.0
818.0
815.0
814.0
811.0
807.0
807.0
808.0
809.0
812.0
815.0
822.0
826.0
830.0
834.0
839.0
845.0
850.0
856.0
864.0
869.0
873.0
879.0
885.0
889.0
890.0
892.0
893.0
891.0
892.0
890.0
893.0
894.0
895.0
898.0
899.0
902.0
901.0
905.0
902.0
903.0
900.0
901.0
900.0
900.0
898.0
897.0
899.0
899.0
898.0
902.0
901.0
903.0
906.0
909.0
910.0
913.0
913.0
916.0
917.0
915.0
916.0
918.0
917.0
916.0
916.0
918.0
917.0
923.0
925.0
926.0
928.0
929.0
928.0
924.0
927.0
927.0
923.0
926.0
927.0
928.0
929.0
929.0
928.0
927.0
927.0
925.0
921.0
919.0
916.0
916.0
916.0
915.0
917.0
918.0
917.0
916.0
913.0
910.0
909.0
905.0
904.0
905.0
905.0
906.0
907.0
910.0
912.0
913.0
911.0
913.0
911.0
913.0
913.0
916.0
922.0
921.0
924.0
927.0
928.0
926.0
923.0
916.0
913.0
919.0
931.0
957.0
989.0
1032.0
1079.0
1127.0
1180.0
1229.0
1272.0
1304.0
1320.0
1322.0
1311.0
1290.0
1250.0
1191.0
1110.0
1026.0
951.0
907.0
889.0
885.0
890.0
896.0
902.0
904.0
902.0
900.0
898.0
894.0
893.0
894.0
894.0
894.0
892.0
889.0
886.0
887.0
884.0
886.0
886.0
886.0
887.0
887.0
887.0
885.0
882.0
881.0
879.0
876.0
874.0
874.0
874.0
875.0
876.0
876.0
878.0
879.0
874.0
875.0
875.0
873.0
874.0
875.0
872.0
873.0
874.0
873.0
869.0
868.0
866.0
863.0
860.0
859.0
857.0
857.0
855.0
855.0
856.0
854.0
853.0
851.0
847.0
844.0
841.0
838.0
835.0
835.0
835.0
835.0
834.0
832.0
828.0
823.0
818.0
815.0
811.0
810.0
810.0
810.0
809.0
807.0
808.0
807.0
803.0
802.0
799.0
800.0
798.0
800.0
805.0
807.0
814.0
819.0
828.0
833.0
836.0
842.0
846.0
852.0
857.0
865.0
869.0
874.0
882.0
886.0
890.0
895.0
897.0
896.0
897.0
898.0
901.0
899.0
903.0
905.0
909.0
913.0
913.0
913.0
912.0
910.0
910.0
907.0
907.0
906.0
906.0
906.0
908.0
911.0
910.0
912.0
911.0
912.0
910.0
910.0
908.0
911.0
909.0
909.0
910.0
911.0
913.0
911.0
910.0
906.0
906.0
906.0
904.0
905.0
907.0
906.0
909.0
910.0
912.0
909.0
909.0
906.0
907.0
906.0
905.0
907.0
907.0
908.0
908.0
908.0
910.0
911.0
913.0
911.0
909.0
912.0
913.0
913.0
916.0
919.0
922.0
924.0
926.0
927.0
925.0
925.0
923.0
924.0
923.0
923.0
920.0
923.0
924.0
923.0
924.0
923.0
921.0
920.0
919.0
917.0
916.0
916.0
916.0
915.0
917.0
917.0
916.0
918.0
917.0
916.0
914.0
914.0
910.0
910.0
910.0
917.0
929.0
954.0
989.0
1032.0
1084.0
1141.0
1202.0
1255.0
1291.0
1315.0
1320.0
1311.0
1285.0
1240.0
1175.0
1086.0
1000.0
929.0
890.0
876.0
882.0
896.0
909.0
917.0
921.0
918.0
916.0
911.0
908.0
907.0
904.0
902.0
897.0
896.0
895.0
895.0
892.0
890.0
888.0
888.0
883.0
885.0
881.0
880.0
878.0
875.0
875.0
872.0
873.0
873.0
872.0
872.0
870.0
865.0
862.0
858.0
856.0
855.0
852.0
852.0
855.0
855.0
854.0
853.0
851.0
850.0
848.0
847.0
846.0
847.0
848.0
847.0
847.0
848.0
850.0
849.0
849.0
847.0
845.0
842.0
841.0
839.0
839.0
838.0
838.0
840.0
840.0
841.0
839.0
837.0
834.0
829.0
825.0
821.0
818.0
819.0
816.0
813.0
810.0
807.0
805.0
803.0
801.0
798.0
794.0
796.0
799.0
798.0
801.0
804.0
806.0
810.0
815.0
818.0
824.0
828.0
833.0
839.0
841.0
850.0
854.0
859.0
865.0
868.0
871.0
876.0
876.0
879.0
882.0
886.0
887.0
892.0
897.0
901.0
905.0
905.0
903.0
901.0
901.0
903.0
902.0
903.0
905.0
908.0
909.0
910.0
910.0
914.0
914.0
916.0
912.0
912.0
913.0
914.0
915.0
916.0
918.0
919.0
921.0
921.0
920.0
919.0
919.0
920.0
920.0
920.0
923.0
924.0
926.0
926.0
927.0
925.0
922.0
917.0
918.0
916.0
914.0
915.0
918.0
919.0
917.0
919.0
920.0
917.0
918.0
918.0
915.0
913.0
914.0
914.0
915.0
917.0
920.0
920.0
919.0
919.0
918.0
917.0
917.0
916.0
914.0
915.0
916.0
915.0
915.0
917.0
921.0
922.0
921.0
923.0
921.0
919.0
917.0
915.0
914.0
914.0
917.0
918.0
921.0
919.0
918.0
919.0
918.0
915.0
915.0
916.0
918.0
921.0
922.0
924.0
928.0
928.0
929.0
929.0
930.0
929.0
930.0
929.0
926.0
928.0
931.0
930.0
931.0
931.0
930.0
928.0
925.0
920.0
919.0
918.0
919.0
920.0
922.0
922.0
923.0
922.0
923.0
921.0
921.0
921.0
921.0
922.0
920.0
922.0
922.0
923.0
923.0
925.0
927.0
927.0
925.0
925.0
925.0
927.0
926.0
926.0
928.0
926.0
928.0
927.0
926.0
925.0
922.0
919.0
920.0
918.0
919.0
920.0
923.0
925.0
929.0
927.0
929.0
928.0
926.0
927.0
927.0
927.0
929.0
932.0
933.0
936.0
938.0
939.0
937.0
936.0
934.0
931.0
926.0
923.0
921.0
921.0
930.0
948.0
974.0
1009.0
1049.0
1098.0
1149.0
1200.0
1248.0
1285.0
1313.0
1328.0
1327.0
1318.0
1299.0
1258.0
1193.0
1110.0
1022.0
951.0
907.0
892.0
892.0
904.0
913.0
918.0
923.0
921.0
918.0
916.0
910.0
906.0
906.0
905.0
905.0
904.0
906.0
907.0
905.0
906.0
904.0
900.0
895.0
895.0
892.0
889.0
888.0
894.0
896.0
896.0
896.0
899.0
896.0
894.0
892.0
892.0
890.0
887.0
889.0
890.0
886.0
886.0
887.0
885.0
887.0
884.0
881.0
875.0
872.0
870.0
868.0
867.0
865.0
867.0
867.0
868.0
862.0
864.0
863.0
860.0
859.0
857.0
857.0
857.0
859.0
856.0
857.0
853.0
851.0
848.0
845.0
841.0
839.0
837.0
834.0
831.0
830.0
829.0
831.0
828.0
823.0
820.0
817.0
814.0
811.0
811.0
808.0
804.0
803.0
802.0
805.0
804.0
806.0
805.0
802.0
805.0
804.0
807.0
809.0
812.0
819.0
821.0
832.0
837.0
844.0
848.0
853.0
859.0
864.0
868.0
873.0
879.0
885.0
890.0
895.0
898.0
902.0
905.0
907.0
908.0
910.0
909.0
911.0
913.0
915.0
916.0
918.0
918.0
917.0
919.0
915.0
917.0
917.0
916.0
918.0
919.0
922.0
925.0
928.0
929.0
930.0
932.0
932.0
928.0
928.0
929.0
933.0
933.0
938.0
941.0
942.0
941.0
942.0
942.0
943.0
941.0
940.0
937.0
939.0
939.0
939.0
938.0
940.0
939.0
939.0
935.0
936.0
935.0
934.0
932.0
932.0
933.0
936.0
935.0
935.0
936.0
937.0
933.0
930.0
927.0
928.0
927.0
925.0
926.0
928.0
927.0
928.0
927.0
926.0
926.0
922.0
922.0
920.0
921.0
921.0
924.0
924.0
928.0
929.0
931.0
933.0
935.0
934.0
937.0
937.0
939.0
939.0
939.0
940.0
940.0
942.0
943.0
944.0
940.0
938.0
938.0
938.0
934.0
935.0
936.0
936.0
935.0
937.0
936.0
935.0
931.0
929.0
927.0
924.0
925.0
924.0
924.0
925.0
924.0
927.0
925.0
924.0
923.0
923.0
920.0
921.0
921.0
921.0
922.0
925.0
926.0
926.0
927.0
927.0
924.0
921.0
922.0
919.0
920.0
919.0
921.0
924.0
927.0
930.0
932.0
933.0
934.0
934.0
937.0
936.0
935.0
933.0
936.0
938.0
939.0
939.0
940.0
937.0
939.0
938.0
935.0
934.0
931.0
930.0
928.0
929.0
930.0
929.0
927.0
927.0
927.0
924.0
922.0
922.0
921.0
919.0
919.0
919.0
921.0
922.0
923.0
924.0
924.0
924.0
928.0
929.0
928.0
930.0
931.0
934.0
933.0
936.0
936.0
937.0
936.0
936.0
936.0
936.0
934.0
937.0
940.0
938.0
936.0
934.0
932.0
941.0
952.0
973.0
1002.0
1041.0
1085.0
1138.0
1193.0
1245.0
1285.0
1318.0
1334.0
1337.0
1329.0
1311.0
1284.0
1236.0
1166.0
1080.0
997.0
936.0
907.0
897.0
901.0
908.0
915.0
