# Simple Text Format
# Sampling Rate (Hz):= 360.00
# Resolution:= 12
# Labels:= ECG
885.0
882.0
882.0
883.0
885.0
880.0
881.0
878.0
879.0
875.0
876.0
876.0
876.0
879.0
879.0
879.0
876.0
875.0
873.0
872.0
872.0
869.0
871.0
871.0
872.0
871.0
869.0
867.0
864.0
863.0
862.0
862.0
858.0
861.0
861.0
862.0
867.0
867.0
865.0
864.0
861.0
858.0
856.0
853.0
851.0
851.0
850.0
850.0
851.0
850.0
849.0
844.0
842.0
839.0
834.0
832.0
826.0
827.0
825.0
824.0
821.0
821.0
817.0
814.0
812.0
810.0
807.0
805.0
804.0
802.0
801.0
801.0
800.0
800.0
800.0
799.0
797.0
800.0
801.0
801.0
803.0
811.0
817.0
823.0
829.0
836.0
841.0
847.0
852.0
856.0
858.0
864.0
869.0
873.0
879.0
881.0
887.0
889.0
893.0
896.0
897.0
894.0
895.0
895.0
895.0
902.0
904.0
905.0
907.0
910.0
910.0
910.0
906.0
904.0
905.0
906.0
906.0
908.0
908.0
910.0
907.0
911.0
910.0
910.0
910.0
911.0
910.0
911.0
912.0
912.0
916.0
918.0
920.0
919.0
922.0
921.0
921.0
918.0
919.0
915.0
916.0
913.0
913.0
917.0
917.0
917.0
918.0
913.0
914.0
908.0
909.0
905.0
906.0
906.0
907.0
909.0
912.0
914.0
914.0
915.0
916.0
913.0
912.0
911.0
910.0
910.0
910.0
912.0
912.0
914.0
916.0
912.0
911.0
909.0
909.0
910.0
909.0
909.0
911.0
912.0
913.0
911.0
914.0
909.0
909.0
906.0
908.0
907.0
906.0
908.0
911.0
911.0
913.0
913.0
912.0
912.0
910.0
906.0
907.0
902.0
900.0
899.0
899.0
902.0
904.0
904.0
904.0
905.0
905.0
904.0
902.0
901.0
900.0
900.0
902.0
903.0
904.0
907.0
904.0
908.0
908.0
907.0
906.0
903.0
907.0
908.0
908.0
908.0
912.0
914.0
914.0
915.0
913.0
911.0
910.0
910.0
908.0
909.0
909.0
910.0
912.0
915.0
914.0
914.0
914.0
912.0
911.0
910.0
910.0
909.0
909.0
910.0
911.0
912.0
914.0
913.0
914.0
911.0
907.0
905.0
903.0
900.0
900.0
905.0
908.0
910.0
911.0
913.0
912.0
909.0
903.0
900.0
895.0
891.0
893.0
904.0
927.0
962.0
1006.0
1057.0
1116.0
1180.0
1240.0
1292.0
1329.0
1351.0
1356.0
1348.0
1329.0
1296.0
1238.0
1150.0
1048.0
956.0
894.0
865.0
862.0
873.0
887.0
898.0
901.0
901.0
893.0
886.0
880.0
878.0
878.0
878.0
875.0
874.0
876.0
875.0
874.0
875.0
873.0
872.0
870.0
869.0
870.0
869.0
868.0
866.0
867.0
867.0
870.0
871.0
867.0
866.0
861.0
858.0
856.0
853.0
852.0
853.0
854.0
855.0
855.0
854.0
856.0
856.0
854.0
852.0
850.0
847.0
847.0
846.0
846.0
848.0
852.0
851.0
851.0
849.0
845.0
844.0
842.0
840.0
839.0
836.0
837.0
835.0
835.0
834.0
831.0
829.0
824.0
818.0
818.0
815.0
812.0
810.0
807.0
801.0
800.0
799.0
795.0
794.0
791.0
785.0
778.0
775.0
774.0
772.0
771.0
773.0
773.0
776.0
778.0
779.0
781.0
782.0
785.0
786.0
792.0
797.0
803.0
814.0
820.0
829.0
835.0
840.0
846.0
849.0
853.0
859.0
861.0
869.0
872.0
877.0
881.0
887.0
892.0
893.0
896.0
895.0
896.0
895.0
896.0
897.0
896.0
899.0
899.0
900.0
902.0
901.0
901.0
898.0
898.0
897.0
899.0
903.0
904.0
907.0
908.0
906.0
906.0
909.0
905.0
903.0
902.0
903.0
904.0
906.0
907.0
907.0
909.0
911.0
913.0
914.0
913.0
911.0
911.0
909.0
909.0
910.0
910.0
913.0
915.0
916.0
917.0
915.0
914.0
913.0
913.0
913.0
911.0
910.0
914.0
911.0
913.0
916.0
913.0
913.0
913.0
912.0
910.0
909.0
911.0
910.0
910.0
910.0
911.0
912.0
914.0
910.0
909.0
907.0
904.0
905.0
903.0
902.0
904.0
906.0
907.0
908.0
906.0
906.0
903.0
899.0
897.0
893.0
896.0
896.0
894.0
899.0
902.0
904.0
904.0
904.0
906.0
907.0
905.0
905.0
905.0
906.0
908.0
909.0
911.0
912.0
916.0
916.0
917.0
915.0
913.0
913.0
916.0
917.0
920.0
922.0
922.0
924.0
925.0
921.0
923.0
921.0
921.0
918.0
918.0
917.0
916.0
917.0
913.0
910.0
908.0
911.0
930.0
961.0
1003.0
1051.0
1112.0
1179.0
1242.0
1302.0
1338.0
1358.0
1360.0
1345.0
1318.0
1265.0
1182.0
1077.0
972.0
896.0
857.0
849.0
864.0
884.0
902.0
913.0
913.0
907.0
899.0
892.0
891.0
890.0
888.0
890.0
890.0
889.0
888.0
887.0
885.0
881.0
880.0
876.0
876.0
876.0
876.0
876.0
875.0
875.0
875.0
874.0
873.0
870.0
869.0
868.0
870.0
872.0
871.0
873.0
873.0
872.0
871.0
868.0
866.0
862.0
863.0
859.0
859.0
859.0
859.0
859.0
859.0
861.0
862.0
858.0
856.0
852.0
847.0
845.0
839.0
836.0
836.0
838.0
838.0
836.0
836.0
835.0
835.0
831.0
828.0
821.0
820.0
816.0
816.0
812.0
811.0
810.0
805.0
805.0
803.0
800.0
797.0
797.0
795.0
795.0
796.0
798.0
798.0
803.0
802.0
805.0
807.0
814.0
818.0
823.0
829.0
832.0
840.0
848.0
854.0
860.0
867.0
870.0
875.0
879.0
880.0
883.0
884.0
886.0
890.0
892.0
895.0
896.0
900.0
900.0
902.0
902.0
906.0
905.0
903.0
905.0
904.0
906.0
906.0
907.0
907.0
906.0
908.0
906.0
905.0
903.0
903.0
903.0
906.0
908.0
909.0
912.0
910.0
910.0
910.0
907.0
906.0
905.0
902.0
902.0
900.0
902.0
903.0
906.0
907.0
905.0
905.0
903.0
905.0
905.0
905.0
906.0
908.0
910.0
912.0
914.0
917.0
913.0
916.0
912.0
909.0
908.0
908.0
910.0
910.0
912.0
914.0
916.0
917.0
917.0
918.0
916.0
916.0
915.0
916.0
916.0
918.0
920.0
920.0
922.0
922.0
919.0
922.0
917.0
914.0
915.0
914.0
914.0
914.0
914.0
913.0
913.0
913.0
909.0
908.0
905.0
906.0
904.0
905.0
905.0
905.0
906.0
906.0
907.0
909.0
911.0
907.0
907.0
905.0
905.0
905.0
907.0
906.0
908.0
906.0
907.0
902.0
900.0
898.0
901.0
915.0
943.0
982.0
1032.0
1092.0
1159.0
1225.0
1286.0
1333.0
1359.0
1368.0
1359.0
1337.0
1301.0
1239.0
1154.0
1053.0
959.0
895.0
870.0
870.0
878.0
892.0
901.0
904.0
903.0
897.0
892.0
887.0
887.0
885.0
887.0
888.0
887.0
884.0
879.0
877.0
875.0
875.0
874.0
874.0
873.0
873.0
874.0
874.0
873.0
873.0
869.0
867.0
864.0
863.0
864.0
863.0
864.0
864.0
867.0
868.0
866.0
865.0
861.0
860.0
855.0
854.0
851.0
851.0
852.0
853.0
852.0
855.0
852.0
849.0
846.0
843.0
838.0
837.0
835.0
832.0
833.0
835.0
836.0
835.0
835.0
830.0
826.0
822.0
818.0
814.0
811.0
809.0
807.0
805.0
804.0
803.0
801.0
796.0
793.0
791.0
788.0
786.0
784.0
783.0
784.0
783.0
784.0
786.0
787.0
789.0
790.0
793.0
797.0
802.0
809.0
815.0
824.0
830.0
839.0
844.0
850.0
853.0
856.0
859.0
860.0
863.0
867.0
872.0
875.0
880.0
884.0
888.0
891.0
894.0
896.0
896.0
894.0
893.0
892.0
891.0
894.0
894.0
896.0
897.0
898.0
899.0
897.0
895.0
894.0
894.0
894.0
894.0
897.0
899.0
902.0
902.0
905.0
904.0
903.0
902.0
901.0
902.0
902.0
903.0
902.0
904.0
906.0
907.0
907.0
906.0
905.0
903.0
902.0
902.0
902.0
899.0
899.0
900.0
899.0
899.0
899.0
898.0
897.0
896.0
894.0
894.0
896.0
897.0
898.0
900.0
901.0
901.0
900.0
900.0
899.0
897.0
897.0
895.0
895.0
896.0
895.0
898.0
898.0
898.0
899.0
901.0
898.0
898.0
896.0
895.0
892.0
891.0
892.0
896.0
899.0
903.0
902.0
902.0
902.0
900.0
899.0
895.0
898.0
896.0
899.0
898.0
902.0
902.0
902.0
903.0
902.0
900.0
900.0
899.0
896.0
894.0
894.0
899.0
898.0
899.0
898.0
898.0
898.0
899.0
896.0
893.0
891.0
888.0
890.0
895.0
914.0
941.0
980.0
1024.0
1076.0
1133.0
1192.0
1249.0
1300.0
1338.0
1357.0
1359.0
1346.0
1313.0
1255.0
1167.0
1058.0
957.0
888.0
853.0
851.0
863.0
884.0
896.0
901.0
900.0
891.0
884.0
879.0
875.0
873.0
872.0
873.0
871.0
869.0
869.0
869.0
868.0
866.0
868.0
867.0
862.0
864.0
864.0
863.0
862.0
866.0
864.0
863.0
863.0
861.0
859.0
856.0
852.0
848.0
846.0
846.0
845.0
846.0
848.0
849.0
852.0
849.0
847.0
843.0
841.0
840.0
837.0
836.0
839.0
842.0
842.0
843.0
844.0
843.0
844.0
842.0
838.0
835.0
833.0
831.0
828.0
826.0
824.0
824.0
824.0
819.0
818.0
813.0
810.0
804.0
804.0
799.0
796.0
793.0
791.0
789.0
787.0
782.0
781.0
777.0
779.0
778.0
778.0
778.0
781.0
784.0
789.0
795.0
798.0
804.0
807.0
813.0
818.0
817.0
821.0
830.0
835.0
839.0
845.0
854.0
859.0
861.0
864.0
865.0
868.0
869.0
870.0
873.0
877.0
882.0
884.0
887.0
892.0
892.0
890.0
891.0
890.0
890.0
890.0
890.0
893.0
893.0
895.0
896.0
896.0
898.0
900.0
898.0
895.0
894.0
897.0
897.0
895.0
896.0
899.0
897.0
900.0
895.0
896.0
893.0
893.0
892.0
891.0
893.0
892.0
894.0
897.0
898.0
901.0
902.0
902.0
902.0
902.0
900.0
900.0
897.0
896.0
896.0
897.0
899.0
901.0
899.0
902.0
898.0
895.0
898.0
897.0
896.0
897.0
898.0
900.0
904.0
907.0
907.0
907.0
907.0
905.0
905.0
904.0
902.0
904.0
906.0
906.0
909.0
910.0
908.0
905.0
901.0
912.0
931.0
960.0
1000.0
1046.0
1094.0
1142.0
1194.0
1246.0
1288.0
1322.0
1344.0
1345.0
1338.0
1315.0
1275.0
1214.0
1132.0
1033.0
949.0
891.0
868.0
864.0
872.0
881.0
889.0
889.0
889.0
885.0
883.0
879.0
880.0
881.0
881.0
879.0
877.0
875.0
869.0
866.0
865.0
865.0
866.0
865.0
867.0
868.0
867.0
866.0
866.0
864.0
861.0
860.0
861.0
859.0
862.0
861.0
861.0
862.0
863.0
864.0
863.0
861.0
858.0
856.0
857.0
857.0
856.0
856.0
859.0
860.0
856.0
858.0
853.0
852.0
849.0
848.0
846.0
844.0
847.0
845.0
846.0
847.0
846.0
843.0
838.0
836.0
832.0
828.0
827.0
825.0
824.0
822.0
821.0
820.0
819.0
816.0
813.0
808.0
804.0
803.0
800.0
796.0
796.0
793.0
795.0
798.0
795.0
796.0
795.0
794.0
792.0
792.0
794.0
798.0
802.0
807.0
814.0
822.0
828.0
834.0
836.0
838.0
845.0
854.0
858.0
860.0
867.0
873.0
880.0
882.0
882.0
885.0
885.0
885.0
884.0
883.0
884.0
886.0
887.0
887.0
890.0
891.0
892.0
893.0
891.0
893.0
894.0
894.0
897.0
896.0
898.0
902.0
903.0
906.0
906.0
906.0
903.0
904.0
902.0
900.0
900.0
899.0
899.0
900.0
899.0
900.0
901.0
902.0
899.0
898.0
896.0
896.0
895.0
894.0
896.0
898.0
901.0
900.0
902.0
902.0
903.0
901.0
901.0
901.0
903.0
904.0
903.0
903.0
905.0
905.0
906.0
906.0
904.0
904.0
903.0
899.0
900.0
898.0
899.0
897.0
895.0
897.0
895.0
891.0
890.0
889.0
885.0
885.0
887.0
890.0
892.0
898.0
904.0
905.0
909.0
907.0
907.0
908.0
905.0
904.0
905.0
904.0
906.0
905.0
905.0
908.0
907.0
904.0
905.0
905.0
902.0
904.0
901.0
903.0
903.0
903.0
907.0
906.0
902.0
905.0
905.0
904.0
901.0
902.0
902.0
908.0
908.0
910.0
911.0
910.0
911.0
909.0
909.0
910.0
908.0
910.0
907.0
905.0
909.0
909.0
908.0
909.0
905.0
906.0
905.0
903.0
900.0
899.0
898.0
895.0
894.0
895.0
896.0
896.0
892.0
892.0
888.0
890.0
891.0
891.0
893.0
895.0
900.0
903.0
904.0
907.0
909.0
907.0
906.0
902.0
900.0
901.0
904.0
905.0
909.0
910.0
911.0
913.0
912.0
914.0
910.0
911.0
912.0
911.0
913.0
915.0
917.0
918.0
920.0
921.0
920.0
920.0
917.0
919.0
918.0
917.0
919.0
918.0
923.0
922.0
922.0
922.0
920.0
914.0
908.0
902.0
906.0
920.0
944.0
982.0
1030.0
1083.0
1143.0
1205.0
1264.0
1311.0
1340.0
1351.0
1345.0
1333.0
1308.0
1261.0
1187.0
1095.0
999.0
926.0
884.0
871.0
877.0
888.0
899.0
905.0
903.0
899.0
893.0
890.0
890.0
891.0
894.0
892.0
892.0
891.0
888.0
884.0
882.0
883.0
886.0
885.0
887.0
885.0
887.0
885.0
880.0
877.0
876.0
871.0
871.0
868.0
867.0
868.0
868.0
866.0
862.0
858.0
857.0
849.0
846.0
845.0
845.0
844.0
845.0
843.0
846.0
846.0
846.0
845.0
847.0
845.0
843.0
840.0
839.0
839.0
839.0
841.0
842.0
842.0
842.0
842.0
835.0
832.0
829.0
827.0
826.0
823.0
824.0
823.0
824.0
823.0
824.0
823.0
818.0
815.0
812.0
812.0
810.0
808.0
809.0
806.0
808.0
806.0
803.0
804.0
802.0
799.0
797.0
795.0
791.0
794.0
795.0
799.0
803.0
808.0
810.0
813.0
818.0
820.0
822.0
824.0
831.0
841.0
850.0
858.0
863.0
871.0
873.0
881.0
883.0
886.0
889.0
892.0
894.0
897.0
898.0
902.0
904.0
905.0
907.0
907.0
905.0
905.0
904.0
903.0
904.0
908.0
910.0
914.0
917.0
918.0
918.0
920.0
922.0
921.0
920.0
917.0
918.0
922.0
922.0
923.0
924.0
929.0
929.0
927.0
926.0
926.0
923.0
920.0
921.0
918.0
919.0
916.0
918.0
915.0
913.0
910.0
907.0
907.0
905.0
903.0
908.0
910.0
914.0
918.0
920.0
922.0
922.0
924.0
924.0
922.0
922.0
920.0
921.0
919.0
920.0
922.0
924.0
923.0
923.0
922.0
921.0
918.0
917.0
915.0
916.0
917.0
919.0
921.0
921.0
922.0
920.0
920.0
919.0
918.0
917.0
917.0
915.0
916.0
915.0
916.0
915.0
916.0
918.0
918.0
917.0
915.0
911.0
911.0
910.0
910.0
911.0
912.0
913.0
911.0
910.0
908.0
906.0
901.0
897.0
893.0
894.0
891.0
890.0
890.0
894.0
898.0
900.0
900.0
900.0
900.0
902.0
905.0
907.0
908.0
910.0
912.0
915.0
914.0
916.0
915.0
916.0
915.0
913.0
911.0
910.0
909.0
915.0
914.0
917.0
917.0
918.0
918.0
916.0
916.0
914.0
913.0
914.0
914.0
916.0
914.0
916.0
917.0
917.0
916.0
916.0
916.0
917.0
914.0
917.0
916.0
916.0
915.0
909.0
906.0
901.0
902.0
916.0
943.0
977.0
1025.0
1083.0
1147.0
1211.0
1272.0
1319.0
1347.0
1356.0
1345.0
1322.0
1283.0
1218.0
1125.0
1019.0
932.0
880.0
862.0
867.0
882.0
897.0
907.0
910.0
906.0
896.0
891.0
887.0
883.0
884.0
887.0
888.0
888.0
886.0
885.0
883.0
880.0
876.0
876.0
875.0
873.0
876.0
874.0
876.0
877.0
878.0
876.0
873.0
870.0
867.0
865.0
865.0
866.0
865.0
864.0
862.0
864.0
863.0
863.0
860.0
857.0
850.0
847.0
845.0
845.0
844.0
844.0
845.0
846.0
844.0
843.0
841.0
839.0
838.0
835.0
835.0
833.0
834.0
834.0
834.0
835.0
833.0
831.0
828.0
825.0
821.0
816.0
814.0
811.0
811.0
811.0
810.0
811.0
805.0
801.0
795.0
791.0
787.0
782.0
781.0
781.0
780.0
782.0
786.0
794.0
798.0
801.0
805.0
812.0
818.0
823.0
827.0
834.0
845.0
850.0
856.0
861.0
864.0
864.0
865.0
868.0
868.0
869.0
872.0
873.0
877.0
880.0
883.0
886.0
885.0
887.0
888.0
888.0
889.0
889.0
892.0
896.0
894.0
898.0
901.0
902.0
902.0
902.0
901.0
901.0
899.0
898.0
896.0
897.0
899.0
898.0
900.0
904.0
903.0
903.0
900.0
897.0
897.0
897.0
897.0
899.0
901.0
906.0
910.0
913.0
916.0
913.0
914.0
913.0
910.0
908.0
912.0
912.0
911.0
914.0
915.0
914.0
912.0
911.0
911.0
911.0
908.0
906.0
904.0
904.0
906.0
906.0
906.0
908.0
908.0
908.0
906.0
906.0
904.0
904.0
906.0
907.0
911.0
910.0
913.0
915.0
915.0
917.0
914.0
912.0
907.0
905.0
904.0
902.0
901.0
902.0
905.0
907.0
907.0
905.0
900.0
897.0
893.0
890.0
889.0
890.0
888.0
888.0
890.0
892.0
891.0
894.0
896.0
896.0
898.0
900.0
905.0
906.0
910.0
912.0
913.0
911.0
913.0
911.0
909.0
907.0
906.0
906.0
905.0
904.0
902.0
902.0
903.0
902.0
903.0
900.0
899.0
894.0
894.0
894.0
893.0
895.0
896.0
899.0
901.0
903.0
904.0
906.0
904.0
903.0
901.0
900.0
901.0
900.0
900.0
899.0
898.0
897.0
896.0
894.0
892.0
892.0
892.0
894.0
893.0
894.0
896.0
898.0
899.0
902.0
902.0
902.0
899.0
893.0
889.0
892.0
906.0
932.0
972.0
1017.0
1071.0
1131.0
1195.0
1257.0
1306.0
1337.0
1355.0
1353.0
1339.0
1314.0
1269.0
1195.0
1100.0
1001.0
920.0
875.0
863.0
869.0
880.0
893.0
898.0
901.0
899.0
895.0
890.0
887.0
883.0
883.0
882.0
879.0
872.0
870.0
866.0
864.0
865.0
866.0
868.0
870.0
869.0
866.0
865.0
864.0
862.0
861.0
859.0
859.0
862.0
862.0
864.0
866.0
865.0
865.0
865.0
864.0
864.0
862.0
865.0
864.0
862.0
861.0
863.0
864.0
861.0
860.0
859.0
857.0
856.0
854.0
853.0
852.0
849.0
850.0
848.0
847.0
847.0
847.0
843.0
841.0
838.0
836.0
833.0
831.0
828.0
828.0
827.0
824.0
820.0
815.0
810.0
805.0
801.0
798.0
794.0
793.0
788.0
784.0
787.0
786.0
783.0
783.0
777.0
777.0
775.0
773.0
772.0
776.0
782.0
785.0
789.0
793.0
800.0
805.0
813.0
817.0
823.0
831.0
835.0
842.0
847.0
855.0
864.0
869.0
875.0
879.0
881.0
881.0
881.0
882.0
883.0
883.0
887.0
890.0
891.0
894.0
896.0
896.0
896.0
893.0
893.0
893.0
897.0
898.0
903.0
905.0
907.0
909.0
907.0
905.0
901.0
900.0
898.0
898.0
897.0
898.0
899.0
901.0
903.0
904.0
904.0
904.0
905.0
901.0
898.0
899.0
901.0
903.0
905.0
907.0
912.0
912.0
913.0
914.0
914.0
911.0
909.0
910.0
909.0
909.0
910.0
913.0
913.0
912.0
909.0
911.0
910.0
906.0
905.0
905.0
904.0
905.0
907.0
906.0
910.0
909.0
911.0
911.0
908.0
906.0
900.0
900.0
901.0
900.0
900.0
901.0
904.0
907.0
908.0
908.0
905.0
901.0
897.0
894.0
888.0
894.0
908.0
937.0
974.0
1023.0
1074.0
1136.0
1197.0
1252.0
1298.0
1333.0
1346.0
1346.0
1333.0
1304.0
1248.0
1166.0
1064.0
970.0
903.0
872.0
868.0
878.0
894.0
905.0
910.0
909.0
907.0
901.0
899.0
898.0
895.0
893.0
890.0
888.0
886.0
886.0
886.0
886.0
884.0
884.0
881.0
877.0
873.0
870.0
866.0
866.0
864.0
863.0
861.0
863.0
864.0
863.0
863.0
866.0
865.0
862.0
862.0
858.0
857.0
856.0
859.0
859.0
859.0
859.0
855.0
858.0
858.0
854.0
851.0
847.0
846.0
845.0
846.0
849.0
846.0
849.0
849.0
846.0
841.0
841.0
840.0
836.0
835.0
832.0
831.0
829.0
825.0
824.0
818.0
818.0
813.0
807.0
803.0
799.0
796.0
794.0
795.0
796.0
796.0
798.0
798.0
800.0
800.0
802.0
806.0
809.0
811.0
819.0
827.0
837.0
845.0
852.0
859.0
862.0
867.0
871.0
874.0
876.0
878.0
882.0
883.0
890.0
891.0
895.0
895.0
897.0
897.0
895.0
895.0
897.0
893.0
894.0
896.0
897.0
899.0
902.0
901.0
900.0
899.0
896.0
897.0
895.0
892.0
892.0
893.0
894.0
895.0
897.0
897.0
897.0
897.0
898.0
898.0
897.0
898.0
901.0
901.0
901.0
905.0
906.0
906.0
906.0
909.0
909.0
908.0
906.0
907.0
907.0
909.0
909.0
911.0
912.0
910.0
908.0
908.0
904.0
903.0
902.0
902.0
902.0
903.0
905.0
908.0
907.0
910.0
909.0
911.0
907.0
905.0
905.0
904.0
903.0
903.0
901.0
902.0
901.0
902.0
901.0
900.0
899.0
895.0
895.0
893.0
894.0
897.0
899.0
899.0
902.0
900.0
898.0
897.0
892.0
886.0
886.0
886.0
884.0
886.0
886.0
891.0
896.0
897.0
899.0
903.0
905.0
904.0
906.0
905.0
908.0
910.0
911.0
912.0
914.0
914.0
914.0
914.0
913.0
911.0
910.0
909.0
910.0
911.0
911.0
914.0
918.0
918.0
914.0
915.0
911.0
910.0
915.0
912.0
913.0
914.0
918.0
918.0
921.0
921.0
920.0
921.0
914.0
914.0
916.0
914.0
911.0
907.0
905.0
906.0
916.0
933.0
962.0
1000.0
1044.0
1093.0
1145.0
1203.0
1255.0
1300.0
1329.0
1340.0
1346.0
1336.0
1315.0
1279.0
1223.0
1142.0
1048.0
962.0
901.0
875.0
870.0
877.0
891.0
897.0
903.0
903.0
897.0
892.0
887.0
885.0
884.0
884.0
884.0
886.0
886.0
885.0
883.0
880.0
878.0
876.0
875.0
876.0
872.0
873.0
874.0
875.0
875.0
871.0
870.0
867.0
868.0
867.0
867.0
866.0
865.0
866.0
864.0
863.0
862.0
862.0
860.0
859.0
859.0
856.0
852.0
852.0
852.0
851.0
849.0
848.0
849.0
841.0
843.0
841.0
834.0
835.0
834.0
833.0
832.0
833.0
834.0
833.0
836.0
835.0
834.0
834.0
830.0
827.0
825.0
822.0
817.0
814.0
813.0
812.0
811.0
810.0
806.0
804.0
801.0
797.0
793.0
791.0
788.0
789.0
789.0
787.0
790.0
789.0
790.0
792.0
794.0
795.0
799.0
803.0
809.0
818.0
825.0
834.0
838.0
847.0
851.0
856.0
864.0
866.0
872.0
873.0
877.0
882.0
885.0
890.0
892.0
893.0
893.0
891.0
894.0
895.0
893.0
895.0
896.0
897.0
897.0
901.0
905.0
905.0
909.0
909.0
908.0
908.0
908.0
909.0
907.0
909.0
912.0
912.0
912.0
914.0
914.0
912.0
909.0
910.0
909.0
910.0
910.0
911.0
912.0
912.0
911.0
914.0
915.0
914.0
915.0
913.0
914.0
915.0
916.0
919.0
921.0
920.0
920.0
919.0
916.0
914.0
911.0
910.0
908.0
906.0
905.0
905.0
907.0
908.0
910.0
910.0
911.0
913.0
912.0
910.0
909.0
908.0
911.0
910.0
915.0
916.0
919.0
919.0
922.0
918.0
917.0
914.0
913.0
912.0
914.0
916.0
915.0
913.0
917.0
913.0
913.0
914.0
914.0
911.0
911.0
912.0
911.0
910.0
908.0
912.0
914.0
914.0
914.0
912.0
914.0
911.0
909.0
908.0
908.0
909.0
911.0
912.0
911.0
912.0
912.0
910.0
908.0
905.0
903.0
901.0
902.0
901.0
902.0
899.0
902.0
899.0
897.0
898.0
895.0
893.0
894.0
895.0
900.0
901.0
902.0
904.0
909.0
908.0
907.0
903.0
901.0
899.0
900.0
907.0
920.0
946.0
981.0
1020.0
1064.0
1115.0
1167.0
1219.0
1265.0
1302.0
1319.0
1326.0
1321.0
1309.0
1284.0
1246.0
1188.0
1112.0
1028.0
959.0
913.0
889.0
882.0
886.0
893.0
898.0
899.0
901.0
899.0
893.0
891.0
886.0
883.0
879.0
879.0
876.0
873.0
872.0
872.0
872.0
867.0
865.0
863.0
863.0
861.0
861.0
861.0
862.0
864.0
865.0
868.0
870.0
870.0
871.0
868.0
866.0
865.0
864.0
863.0
860.0
861.0
859.0
859.0
858.0
858.0
856.0
856.0
854.0
849.0
850.0
847.0
845.0
847.0
844.0
844.0
846.0
846.0
847.0
844.0
842.0
840.0
836.0
834.0
832.0
830.0
830.0
828.0
826.0
826.0
824.0
826.0
822.0
818.0
812.0
807.0
803.0
799.0
796.0
793.0
793.0
790.0
788.0
784.0
782.0
779.0
776.0
778.0
776.0
777.0
781.0
783.0
785.0
787.0
792.0
793.0
794.0
798.0
803.0
810.0
816.0
824.0
830.0
837.0
842.0
848.0
850.0
856.0
859.0
859.0
864.0
867.0
869.0
873.0
874.0
877.0
878.0
883.0
886.0
887.0
887.0
887.0
888.0
886.0
886.0
885.0
888.0
887.0
888.0
890.0
892.0
889.0
887.0
885.0
883.0
883.0
883.0
884.0
886.0
889.0
890.0
894.0
896.0
899.0
898.0
899.0
901.0
901.0
901.0
902.0
903.0
903.0
904.0
904.0
902.0
903.0
902.0
900.0
898.0
898.0
898.0
897.0
899.0
899.0
900.0
901.0
900.0
897.0
899.0
895.0
893.0
888.0
888.0
891.0
890.0
890.0
893.0
891.0
891.0
891.0
891.0
889.0
885.0
882.0
881.0
882.0
882.0
884.0
887.0
886.0
888.0
888.0
889.0
888.0
888.0
887.0
888.0
889.0
893.0
893.0
897.0
900.0
902.0
901.0
901.0
901.0
902.0
902.0
902.0
903.0
904.0
905.0
906.0
905.0
907.0
903.0
904.0
903.0
902.0
901.0
902.0
902.0
904.0
903.0
905.0
905.0
905.0
903.0
901.0
899.0
896.0
892.0
889.0
886.0
885.0
888.0
902.0
921.0
950.0
987.0
1031.0
1081.0
1135.0
1187.0
1233.0
1270.0
1289.0
1295.0
1286.0
1268.0
1233.0
1176.0
1103.0
1021.0
946.0
897.0
874.0
871.0
877.0
885.0
894.0
898.0
893.0
891.0
888.0
884.0
883.0
880.0
880.0
879.0
880.0
879.0
878.0
878.0
878.0
877.0
876.0
874.0
873.0
870.0
869.0
868.0
865.0
867.0
866.0
865.0
866.0
864.0
860.0
858.0
855.0
851.0
848.0
847.0
847.0
845.0
846.0
846.0
846.0
843.0
842.0
839.0
837.0
834.0
833.0
833.0
834.0
833.0
833.0
834.0
834.0
835.0
832.0
832.0
829.0
828.0
824.0
826.0
828.0
828.0
827.0
828.0
827.0
825.0
821.0
818.0
817.0
813.0
809.0
807.0
807.0
803.0
801.0
801.0
801.0
798.0
794.0
790.0
786.0
782.0
778.0
778.0
778.0
781.0
780.0
780.0
783.0
784.0
787.0
791.0
794.0
799.0
804.0
810.0
816.0
826.0
834.0
840.0
847.0
852.0
856.0
858.0
861.0
861.0
866.0
868.0
872.0
875.0
879.0
884.0
886.0
888.0
887.0
888.0
888.0
888.0
890.0
889.0
889.0
894.0
897.0
899.0
898.0
900.0
900.0
898.0
896.0
896.0
896.0
898.0
896.0
895.0
901.0
901.0
901.0
900.0
900.0
898.0
896.0
895.0
895.0
895.0
896.0
898.0
898.0
902.0
901.0
904.0
901.0
898.0
893.0
892.0
892.0
894.0
896.0
897.0
895.0
898.0
901.0
900.0
898.0
899.0
901.0
900.0
898.0
900.0
901.0
903.0
904.0
905.0
909.0
906.0
906.0
904.0
900.0
898.0
898.0
898.0
898.0
899.0
898.0
900.0
899.0
897.0
896.0
894.0
894.0
894.0
893.0
893.0
894.0
895.0
894.0
894.0
894.0
895.0
895.0
892.0
890.0
888.0
886.0
886.0
889.0
894.0
896.0
898.0
896.0
898.0
899.0
896.0
897.0
900.0
897.0
897.0
896.0
898.0
900.0
900.0
902.0
903.0
901.0
901.0
901.0
900.0
900.0
902.0
903.0
903.0
906.0
908.0
907.0
904.0
905.0
901.0
898.0
899.0
897.0
898.0
900.0
899.0
904.0
903.0
903.0
902.0
902.0
897.0
896.0
894.0
891.0
886.0
891.0
892.0
893.0
894.0
896.0
894.0
893.0
892.0
889.0
888.0
888.0
888.0
888.0
891.0
892.0
893.0
895.0
897.0
897.0
896.0
897.0
899.0
898.0
899.0
901.0
901.0
901.0
899.0
898.0
897.0
898.0
910.0
929.0
961.0
1000.0
1045.0
1095.0
1153.0
1209.0
1256.0
1295.0
1317.0
1324.0
1319.0
1304.0
1274.0
1222.0
1156.0
1074.0
996.0
932.0
894.0
881.0
883.0
889.0
895.0
900.0
899.0
897.0
891.0
887.0
883.0
882.0
882.0
880.0
879.0
878.0
875.0
871.0
868.0
865.0
865.0
862.0
862.0
860.0
864.0
865.0
862.0
864.0
860.0
858.0
855.0
851.0
849.0
847.0
847.0
843.0
844.0
843.0
838.0
839.0
836.0
833.0
831.0
833.0
835.0
835.0
837.0
838.0
838.0
842.0
836.0
835.0
833.0
833.0
831.0
827.0
825.0
826.0
827.0
827.0
828.0
826.0
824.0
822.0
816.0
814.0
810.0
806.0
802.0
800.0
797.0
795.0
792.0
788.0
786.0
784.0
779.0
775.0
772.0
771.0
770.0
771.0
769.0
768.0
772.0
771.0
771.0
772.0
773.0
778.0
778.0
786.0
791.0
802.0
810.0
818.0
826.0
834.0
836.0
845.0
847.0
855.0
856.0
859.0
861.0
868.0
