# Simple Text Format
# Sampling Rate (Hz):= 360.00
# Resolution:= 12
# Labels:= ECG
944.0
938.0
933.0
932.0
941.0
961.0
992.0
1032.0
1078.0
1132.0
1189.0
1247.0
1298.0
1340.0
1363.0
1374.0
1376.0
1367.0
1351.0
1320.0
1263.0
1180.0
1081.0
987.0
927.0
899.0
894.0
902.0
916.0
922.0
924.0
924.0
920.0
917.0
915.0
911.0
908.0
908.0
905.0
908.0
905.0
905.0
902.0
903.0
902.0
903.0
900.0
902.0
903.0
903.0
902.0
902.0
903.0
902.0
903.0
904.0
903.0
903.0
903.0
901.0
900.0
899.0
899.0
899.0
897.0
899.0
900.0
900.0
902.0
902.0
901.0
900.0
899.0
895.0
893.0
893.0
890.0
889.0
887.0
886.0
883.0
880.0
877.0
870.0
867.0
862.0
860.0
856.0
852.0
850.0
852.0
851.0
849.0
847.0
843.0
840.0
838.0
834.0
831.0
830.0
826.0
824.0
821.0
818.0
817.0
814.0
810.0
809.0
810.0
806.0
806.0
804.0
807.0
805.0
811.0
815.0
819.0
826.0
831.0
838.0
842.0
850.0
857.0
863.0
872.0
879.0
885.0
894.0
899.0
906.0
912.0
916.0
920.0
922.0
923.0
924.0
931.0
930.0
929.0
932.0
934.0
931.0
929.0
926.0
927.0
924.0
922.0
922.0
924.0
923.0
927.0
928.0
932.0
935.0
938.0
940.0
939.0
936.0
934.0
933.0
933.0
933.0
936.0
937.0
936.0
939.0
941.0
940.0
939.0
937.0
936.0
938.0
937.0
939.0
941.0
939.0
939.0
941.0
941.0
941.0
939.0
940.0
938.0
939.0
941.0
941.0
946.0
946.0
947.0
946.0
946.0
943.0
941.0
941.0
938.0
938.0
937.0
938.0
938.0
939.0
941.0
938.0
935.0
936.0
934.0
933.0
930.0
932.0
931.0
932.0
933.0
937.0
937.0
939.0
938.0
937.0
937.0
938.0
935.0
937.0
938.0
941.0
941.0
942.0
942.0
943.0
943.0
939.0
933.0
931.0
931.0
941.0
964.0
998.0
1039.0
1087.0
1140.0
1196.0
1252.0
1300.0
1337.0
1358.0
1367.0
1363.0
1348.0
1321.0
1273.0
1203.0
1113.0
1026.0
957.0
919.0
907.0
909.0
918.0
924.0
927.0
927.0
925.0
922.0
918.0
916.0
916.0
913.0
911.0
911.0
909.0
909.0
909.0
907.0
907.0
906.0
908.0
905.0
904.0
903.0
900.0
901.0
899.0
899.0
898.0
896.0
899.0
900.0
901.0
900.0
898.0
895.0
894.0
891.0
890.0
891.0
890.0
891.0
890.0
889.0
892.0
892.0
890.0
888.0
885.0
883.0
879.0
879.0
878.0
878.0
880.0
881.0
883.0
880.0
878.0
871.0
873.0
868.0
864.0
864.0
861.0
860.0
859.0
858.0
856.0
856.0
853.0
851.0
847.0
844.0
840.0
839.0
835.0
833.0
831.0
828.0
827.0
824.0
822.0
818.0
815.0
813.0
812.0
811.0
811.0
818.0
824.0
827.0
834.0
838.0
845.0
848.0
856.0
863.0
869.0
876.0
882.0
888.0
894.0
899.0
903.0
905.0
908.0
912.0
909.0
913.0
912.0
915.0
919.0
922.0
924.0
925.0
928.0
928.0
928.0
928.0
928.0
926.0
926.0
926.0
927.0
930.0
930.0
932.0
934.0
935.0
934.0
933.0
930.0
929.0
928.0
930.0
930.0
933.0
933.0
933.0
935.0
936.0
936.0
935.0
933.0
932.0
929.0
929.0
927.0
928.0
925.0
927.0
929.0
930.0
928.0
927.0
928.0
927.0
927.0
927.0
927.0
929.0
930.0
934.0
937.0
937.0
937.0
938.0
937.0
936.0
934.0
934.0
937.0
937.0
939.0
939.0
937.0
941.0
940.0
940.0
936.0
935.0
934.0
935.0
935.0
935.0
938.0
936.0
936.0
934.0
934.0
932.0
929.0
928.0
926.0
926.0
925.0
925.0
926.0
925.0
927.0
928.0
926.0
924.0
922.0
920.0
919.0
920.0
921.0
925.0
925.0
927.0
929.0
929.0
931.0
927.0
927.0
925.0
922.0
922.0
922.0
924.0
925.0
925.0
930.0
931.0
932.0
932.0
930.0
931.0
930.0
929.0
929.0
933.0
934.0
934.0
936.0
936.0
934.0
934.0
932.0
931.0
928.0
929.0
928.0
927.0
929.0
928.0
930.0
930.0
926.0
927.0
926.0
928.0
928.0
929.0
929.0
930.0
931.0
931.0
931.0
929.0
929.0
930.0
928.0
928.0
926.0
926.0
926.0
927.0
928.0
931.0
933.0
931.0
929.0
929.0
928.0
927.0
925.0
930.0
931.0
931.0
938.0
936.0
940.0
942.0
943.0
941.0
941.0
942.0
939.0
941.0
942.0
942.0
944.0
941.0
939.0
933.0
930.0
927.0
939.0
961.0
995.0
1034.0
1085.0
1142.0
1203.0
1262.0
1310.0
1340.0
1356.0
1355.0
1343.0
1316.0
1270.0
1202.0
1111.0
1014.0
939.0
896.0
883.0
887.0
898.0
910.0
917.0
917.0
916.0
908.0
903.0
902.0
903.0
903.0
903.0
899.0
902.0
899.0
895.0
895.0
892.0
889.0
892.0
892.0
896.0
897.0
897.0
898.0
898.0
893.0
894.0
891.0
888.0
887.0
888.0
887.0
886.0
885.0
887.0
885.0
884.0
885.0
880.0
875.0
872.0
873.0
872.0
873.0
875.0
875.0
878.0
875.0
873.0
870.0
868.0
865.0
865.0
862.0
860.0
859.0
858.0
854.0
857.0
855.0
853.0
851.0
847.0
842.0
838.0
835.0
833.0
831.0
831.0
829.0
827.0
823.0
820.0
819.0
812.0
810.0
808.0
805.0
803.0
803.0
802.0
799.0
799.0
798.0
796.0
795.0
793.0
792.0
792.0
795.0
796.0
801.0
808.0
815.0
823.0
829.0
835.0
841.0
847.0
853.0
861.0
867.0
874.0
881.0
889.0
894.0
899.0
905.0
906.0
908.0
908.0
906.0
907.0
909.0
909.0
914.0
915.0
916.0
919.0
922.0
921.0
922.0
921.0
919.0
922.0
921.0
920.0
922.0
923.0
922.0
925.0
923.0
923.0
922.0
920.0
921.0
919.0
921.0
923.0
925.0
927.0
931.0
934.0
935.0
934.0
933.0
934.0
933.0
932.0
933.0
934.0
936.0
941.0
941.0
943.0
942.0
943.0
943.0
942.0
940.0
940.0
940.0
939.0
941.0
944.0
944.0
944.0
944.0
943.0
942.0
939.0
934.0
933.0
930.0
930.0
931.0
931.0
934.0
932.0
933.0
929.0
929.0
928.0
925.0
924.0
924.0
925.0
926.0
929.0
932.0
934.0
934.0
933.0
934.0
932.0
932.0
933.0
931.0
932.0
934.0
936.0
938.0
938.0
938.0
938.0
936.0
934.0
934.0
933.0
932.0
932.0
935.0
935.0
938.0
938.0
941.0
939.0
940.0
937.0
936.0
934.0
935.0
935.0
937.0
938.0
939.0
940.0
939.0
939.0
938.0
936.0
932.0
932.0
932.0
931.0
931.0
933.0
931.0
933.0
932.0
929.0
923.0
916.0
907.0
906.0
909.0
921.0
941.0
975.0
1017.0
1068.0
1124.0
1188.0
1245.0
1295.0
1331.0
1352.0
1355.0
1345.0
1324.0
1286.0
1219.0
1126.0
1026.0
947.0
903.0
887.0
893.0
907.0
923.0
931.0
934.0
931.0
926.0
920.0
915.0
914.0
912.0
912.0
910.0
908.0
906.0
905.0
904.0
901.0
903.0
903.0
904.0
903.0
901.0
901.0
900.0
899.0
897.0
895.0
895.0
893.0
893.0
893.0
889.0
888.0
885.0
881.0
878.0
876.0
876.0
877.0
878.0
879.0
880.0
882.0
879.0
877.0
874.0
870.0
872.0
869.0
869.0
870.0
870.0
872.0
870.0
872.0
872.0
870.0
867.0
862.0
859.0
858.0
858.0
857.0
857.0
860.0
858.0
858.0
855.0
855.0
852.0
846.0
843.0
841.0
839.0
836.0
836.0
833.0
831.0
829.0
829.0
825.0
823.0
820.0
818.0
815.0
814.0
811.0
813.0
814.0
817.0
820.0
821.0
826.0
827.0
833.0
836.0
841.0
846.0
852.0
862.0
868.0
874.0
882.0
886.0
890.0
892.0
894.0
896.0
898.0
901.0
903.0
906.0
910.0
913.0
915.0
920.0
918.0
919.0
918.0
918.0
917.0
920.0
920.0
921.0
922.0
923.0
924.0
926.0
924.0
927.0
924.0
924.0
925.0
927.0
926.0
926.0
928.0
929.0
930.0
928.0
927.0
927.0
925.0
920.0
920.0
919.0
919.0
921.0
924.0
924.0
925.0
928.0
926.0
927.0
921.0
921.0
920.0
921.0
920.0
921.0
924.0
927.0
929.0
930.0
929.0
928.0
928.0
927.0
925.0
925.0
926.0
926.0
927.0
928.0
932.0
929.0
931.0
933.0
933.0
932.0
932.0
933.0
932.0
932.0
934.0
934.0
935.0
933.0
928.0
926.0
923.0
924.0
921.0
922.0
922.0
921.0
923.0
925.0
924.0
926.0
924.0
924.0
923.0
918.0
918.0
919.0
916.0
920.0
923.0
927.0
928.0
926.0
924.0
922.0
920.0
921.0
918.0
919.0
919.0
919.0
924.0
925.0
926.0
925.0
926.0
925.0
924.0
923.0
921.0
921.0
920.0
924.0
925.0
925.0
929.0
926.0
927.0
926.0
925.0
925.0
926.0
927.0
926.0
927.0
928.0
927.0
930.0
925.0
924.0
922.0
920.0
916.0
914.0
911.0
909.0
910.0
911.0
909.0
911.0
911.0
911.0
909.0
909.0
908.0
908.0
909.0
912.0
912.0
914.0
920.0
920.0
920.0
918.0
919.0
915.0
917.0
915.0
916.0
915.0
917.0
920.0
922.0
926.0
925.0
926.0
924.0
924.0
922.0
922.0
924.0
925.0
928.0
932.0
931.0
933.0
931.0
930.0
929.0
928.0
922.0
923.0
920.0
921.0
921.0
922.0
923.0
925.0
927.0
926.0
925.0
920.0
920.0
922.0
917.0
916.0
918.0
920.0
918.0
919.0
917.0
913.0
914.0
910.0
904.0
899.0
899.0
911.0
933.0
968.0
1009.0
1063.0
1118.0
1178.0
1238.0
1289.0
1323.0
1342.0
1343.0
1333.0
1313.0
1277.0
1213.0
1124.0
1030.0
945.0
895.0
874.0
875.0
885.0
898.0
905.0
911.0
911.0
906.0
904.0
898.0
899.0
897.0
895.0
892.0
889.0
889.0
889.0
891.0
892.0
893.0
895.0
893.0
892.0
891.0
889.0
886.0
883.0
880.0
880.0
880.0
881.0
881.0
877.0
880.0
878.0
878.0
876.0
875.0
874.0
870.0
869.0
867.0
866.0
865.0
864.0
862.0
861.0
861.0
858.0
856.0
853.0
853.0
853.0
852.0
852.0
852.0
851.0
850.0
850.0
847.0
844.0
841.0
839.0
833.0
832.0
830.0
830.0
829.0
831.0
828.0
828.0
826.0
824.0
823.0
820.0
818.0
816.0
814.0
813.0
811.0
810.0
805.0
802.0
798.0
793.0
792.0
787.0
783.0
783.0
782.0
780.0
778.0
779.0
780.0
780.0
782.0
783.0
783.0
785.0
788.0
794.0
800.0
809.0
813.0
822.0
826.0
834.0
840.0
844.0
848.0
855.0
860.0
865.0
869.0
877.0
884.0
888.0
891.0
895.0
897.0
898.0
898.0
898.0
901.0
905.0
908.0
910.0
915.0
916.0
916.0
919.0
919.0
917.0
915.0
916.0
914.0
918.0
921.0
922.0
923.0
927.0
924.0
923.0
923.0
921.0
919.0
920.0
920.0
922.0
924.0
926.0
924.0
924.0
922.0
921.0
920.0
918.0
917.0
915.0
918.0
918.0
919.0
922.0
925.0
925.0
927.0
925.0
923.0
922.0
921.0
920.0
915.0
916.0
919.0
922.0
922.0
924.0
924.0
921.0
920.0
921.0
920.0
919.0
919.0
922.0
922.0
922.0
924.0
922.0
924.0
922.0
922.0
922.0
920.0
921.0
920.0
922.0
921.0
922.0
923.0
922.0
925.0
924.0
925.0
921.0
917.0
916.0
914.0
912.0
911.0
913.0
912.0
914.0
914.0
913.0
913.0
909.0
909.0
909.0
909.0
908.0
909.0
908.0
909.0
907.0
911.0
908.0
911.0
911.0
909.0
908.0
910.0
908.0
910.0
910.0
914.0
915.0
914.0
918.0
920.0
920.0
919.0
918.0
914.0
913.0
909.0
910.0
922.0
942.0
978.0
1019.0
1072.0
1131.0
1195.0
1252.0
1302.0
1337.0
1351.0
1348.0
1328.0
1290.0
1222.0
1122.0
1012.0
919.0
867.0
852.0
862.0
879.0
895.0
904.0
909.0
906.0
899.0
892.0
888.0
884.0
886.0
884.0
884.0
886.0
884.0
888.0
888.0
888.0
887.0
886.0
882.0
882.0
881.0
878.0
876.0
875.0
875.0
875.0
877.0
880.0
880.0
878.0
877.0
876.0
875.0
875.0
875.0
873.0
875.0
875.0
874.0
875.0
875.0
874.0
874.0
870.0
869.0
865.0
866.0
863.0
863.0
861.0
862.0
861.0
859.0
856.0
853.0
851.0
847.0
846.0
844.0
843.0
839.0
839.0
837.0
836.0
833.0
827.0
825.0
820.0
819.0
817.0
812.0
809.0
808.0
806.0
804.0
803.0
799.0
796.0
792.0
788.0
783.0
780.0
779.0
776.0
779.0
781.0
784.0
793.0
795.0
800.0
807.0
808.0
814.0
817.0
826.0
834.0
842.0
850.0
857.0
864.0
872.0
875.0
881.0
883.0
885.0
888.0
888.0
891.0
894.0
897.0
899.0
903.0
906.0
906.0
907.0
907.0
905.0
904.0
902.0
903.0
903.0
905.0
908.0
911.0
910.0
908.0
908.0
907.0
904.0
902.0
899.0
901.0
900.0
902.0
905.0
906.0
905.0
903.0
902.0
900.0
901.0
896.0
898.0
903.0
906.0
908.0
909.0
910.0
910.0
910.0
909.0
911.0
910.0
909.0
908.0
907.0
908.0
911.0
913.0
915.0
917.0
915.0
916.0
913.0
912.0
912.0
909.0
908.0
909.0
910.0
911.0
912.0
912.0
910.0
908.0
906.0
908.0
905.0
907.0
906.0
907.0
908.0
905.0
905.0
903.0
902.0
901.0
899.0
898.0
898.0
896.0
897.0
899.0
902.0
902.0
905.0
908.0
906.0
908.0
904.0
906.0
903.0
903.0
906.0
909.0
911.0
916.0
918.0
919.0
917.0
917.0
916.0
914.0
912.0
913.0
915.0
916.0
919.0
920.0
921.0
917.0
912.0
906.0
900.0
892.0
897.0
904.0
929.0
960.0
1005.0
1055.0
1110.0
1171.0
1232.0
1281.0
1314.0
1329.0
1329.0
1315.0
1290.0
1238.0
1162.0
1065.0
968.0
898.0
863.0
854.0
862.0
882.0
894.0
898.0
897.0
894.0
892.0
888.0
886.0
886.0
884.0
883.0
884.0
881.0
882.0
883.0
883.0
881.0
885.0
883.0
885.0
886.0
883.0
881.0
881.0
878.0
875.0
874.0
870.0
869.0
870.0
869.0
868.0
867.0
867.0
867.0
864.0
861.0
857.0
855.0
855.0
855.0
855.0
852.0
854.0
855.0
849.0
847.0
847.0
847.0
843.0
839.0
842.0
840.0
840.0
841.0
840.0
841.0
838.0
836.0
831.0
828.0
825.0
823.0
819.0
819.0
818.0
817.0
817.0
816.0
814.0
811.0
808.0
805.0
799.0
796.0
793.0
792.0
793.0
793.0
792.0
792.0
790.0
790.0
787.0
787.0
785.0
786.0
788.0
792.0
794.0
802.0
808.0
818.0
821.0
827.0
833.0
840.0
841.0
844.0
847.0
855.0
861.0
866.0
870.0
875.0
875.0
876.0
879.0
881.0
883.0
888.0
889.0
888.0
895.0
896.0
896.0
898.0
898.0
899.0
896.0
894.0
894.0
894.0
894.0
896.0
898.0
899.0
904.0
904.0
907.0
904.0
903.0
903.0
902.0
902.0
903.0
903.0
908.0
910.0
914.0
914.0
913.0
914.0
915.0
913.0
911.0
909.0
909.0
908.0
909.0
908.0
913.0
914.0
915.0
914.0
912.0
909.0
907.0
908.0
907.0
906.0
909.0
908.0
909.0
909.0
907.0
906.0
907.0
906.0
909.0
906.0
908.0
907.0
905.0
903.0
901.0
903.0
903.0
903.0
902.0
901.0
902.0
903.0
901.0
899.0
902.0
906.0
909.0
911.0
912.0
914.0
911.0
911.0
912.0
915.0
917.0
916.0
919.0
918.0
917.0
918.0
914.0
914.0
910.0
908.0
907.0
904.0
904.0
906.0
903.0
904.0
903.0
903.0
904.0
903.0
901.0
902.0
899.0
899.0
900.0
900.0
900.0
902.0
899.0
899.0
901.0
902.0
900.0
898.0
897.0
896.0
897.0
897.0
900.0
900.0
903.0
900.0
906.0
909.0
907.0
908.0
908.0
905.0
905.0
902.0
900.0
911.0
929.0
960.0
998.0
1048.0
1105.0
1163.0
1223.0
1275.0
1312.0
1334.0
1335.0
1331.0
1314.0
1284.0
1231.0
1150.0
1050.0
962.0
897.0
869.0
866.0
876.0
887.0
898.0
903.0
905.0
900.0
894.0
886.0
882.0
879.0
877.0
875.0
875.0
874.0
872.0
869.0
868.0
866.0
865.0
863.0
863.0
860.0
856.0
856.0
857.0
859.0
860.0
862.0
862.0
861.0
863.0
860.0
859.0
857.0
857.0
859.0
859.0
859.0
863.0
864.0
866.0
862.0
860.0
858.0
857.0
856.0
853.0
853.0
852.0
851.0
851.0
851.0
850.0
847.0
845.0
841.0
840.0
838.0
835.0
832.0
831.0
830.0
828.0
827.0
826.0
822.0
819.0
813.0
809.0
806.0
801.0
798.0
795.0
794.0
791.0
790.0
786.0
785.0
783.0
781.0
778.0
775.0
773.0
773.0
770.0
774.0
775.0
779.0
783.0
788.0
792.0
798.0
803.0
808.0
812.0
821.0
826.0
837.0
842.0
850.0
856.0
862.0
869.0
872.0
876.0
877.0
880.0
885.0
888.0
892.0
893.0
894.0
898.0
897.0
896.0
894.0
893.0
892.0
890.0
893.0
894.0
895.0
894.0
895.0
894.0
893.0
892.0
892.0
889.0
892.0
892.0
893.0
894.0
897.0
899.0
903.0
905.0
904.0
904.0
903.0
903.0
902.0
905.0
905.0
902.0
905.0
905.0
905.0
908.0
910.0
909.0
911.0
911.0
910.0
910.0
913.0
912.0
915.0
917.0
918.0
918.0
919.0
918.0
913.0
915.0
913.0
913.0
910.0
911.0
910.0
910.0
909.0
908.0
905.0
902.0
900.0
900.0
896.0
897.0
898.0
897.0
898.0
898.0
900.0
901.0
900.0
902.0
902.0
899.0
897.0
897.0
897.0
896.0
899.0
899.0
903.0
901.0
899.0
901.0
902.0
900.0
902.0
899.0
903.0
902.0
906.0
908.0
908.0
909.0
912.0
912.0
911.0
911.0
908.0
908.0
909.0
909.0
910.0
911.0
911.0
913.0
909.0
909.0
911.0
907.0
904.0
905.0
905.0
904.0
902.0
898.0
894.0
893.0
890.0
901.0
920.0
949.0
986.0
1032.0
1086.0
1139.0
1202.0
1252.0
1293.0
1315.0
1318.0
1307.0
1282.0
1237.0
1164.0
1071.0
977.0
903.0
866.0
853.0
860.0
873.0
886.0
890.0
891.0
883.0
880.0
874.0
873.0
874.0
877.0
878.0
880.0
880.0
879.0
876.0
877.0
874.0
872.0
871.0
870.0
870.0
871.0
872.0
866.0
866.0
865.0
865.0
864.0
863.0
858.0
857.0
856.0
856.0
856.0
856.0
856.0
856.0
853.0
853.0
848.0
847.0
844.0
842.0
841.0
839.0
841.0
841.0
842.0
842.0
839.0
839.0
836.0
834.0
832.0
831.0
832.0
829.0
827.0
827.0
831.0
829.0
828.0
827.0
824.0
822.0
817.0
813.0
811.0
809.0
807.0
803.0
804.0
804.0
799.0
798.0
795.0
791.0
788.0
784.0
782.0
781.0
780.0
778.0
781.0
780.0
778.0
781.0
782.0
784.0
788.0
791.0
797.0
802.0
809.0
815.0
823.0
832.0
837.0
841.0
846.0
851.0
853.0
856.0
862.0
867.0
867.0
872.0
879.0
886.0
886.0
889.0
888.0
888.0
885.0
886.0
887.0
890.0
892.0
892.0
894.0
897.0
898.0
897.0
895.0
892.0
893.0
893.0
892.0
895.0
895.0
896.0
898.0
899.0
898.0
897.0
896.0
894.0
895.0
895.0
893.0
894.0
897.0
897.0
900.0
899.0
899.0
900.0
897.0
897.0
895.0
893.0
896.0
896.0
898.0
901.0
902.0
902.0
904.0
905.0
904.0
900.0
902.0
900.0
902.0
901.0
905.0
902.0
906.0
907.0
908.0
908.0
905.0
901.0
900.0
901.0
902.0
900.0
901.0
901.0
902.0
907.0
907.0
906.0
906.0
904.0
903.0
900.0
898.0
895.0
897.0
895.0
895.0
899.0
900.0
899.0
899.0
900.0
899.0
900.0
902.0
901.0
903.0
902.0
903.0
905.0
902.0
902.0
901.0
900.0
898.0
898.0
899.0
898.0
901.0
901.0
904.0
905.0
904.0
902.0
903.0
901.0
900.0
899.0
898.0
900.0
902.0
903.0
903.0
904.0
905.0
905.0
903.0
903.0
903.0
901.0
900.0
900.0
899.0
899.0
899.0
901.0
900.0
901.0
901.0
900.0
897.0
896.0
894.0
891.0
888.0
884.0
888.0
902.0
925.0
961.0
1004.0
1057.0
1109.0
1170.0
1229.0
1277.0
1309.0
1323.0
1328.0
1314.0
1287.0
1244.0
1176.0
1084.0
987.0
911.0
868.0
851.0
859.0
873.0
888.0
896.0
899.0
896.0
888.0
881.0
877.0
874.0
875.0
875.0
876.0
875.0
874.0
875.0
873.0
870.0
869.0
864.0
861.0
861.0
862.0
862.0
862.0
861.0
861.0
860.0
857.0
857.0
856.0
852.0
852.0
849.0
850.0
847.0
848.0
844.0
845.0
846.0
843.0
843.0
841.0
838.0
836.0
832.0
830.0
829.0
830.0
831.0
832.0
832.0
828.0
827.0
828.0
822.0
821.0
823.0
821.0
821.0
821.0
822.0
822.0
823.0
824.0
824.0
823.0
819.0
815.0
812.0
809.0
807.0
802.0
801.0
799.0
801.0
797.0
793.0
791.0
787.0
782.0
780.0
776.0
778.0
779.0
777.0
780.0
783.0
786.0
787.0
791.0
794.0
798.0
803.0
809.0
817.0
826.0
834.0
841.0
844.0
851.0
857.0
863.0
866.0
867.0
871.0
872.0
876.0
880.0
884.0
887.0
888.0
890.0
890.0
888.0
890.0
888.0
885.0
886.0
888.0
888.0
888.0
887.0
887.0
886.0
884.0
885.0
884.0
884.0
886.0
891.0
892.0
895.0
895.0
900.0
904.0
902.0
905.0
905.0
906.0
903.0
903.0
902.0
901.0
906.0
904.0
906.0
906.0
906.0
903.0
902.0
901.0
902.0
903.0
902.0
903.0
903.0
901.0
903.0
904.0
903.0
903.0
902.0
901.0
901.0
898.0
896.0
896.0
899.0
897.0
897.0
898.0
896.0
893.0
890.0
889.0
883.0
881.0
883.0
884.0
884.0
884.0
885.0
887.0
889.0
893.0
889.0
889.0
893.0
893.0
896.0
896.0
898.0
899.0
901.0
901.0
901.0
901.0
899.0
896.0
896.0
895.0
894.0
896.0
897.0
896.0
898.0
899.0
900.0
898.0
896.0
892.0
892.0
890.0
889.0
890.0
892.0
893.0
893.0
895.0
895.0
894.0
895.0
894.0
893.0
888.0
886.0
886.0
887.0
888.0
889.0
886.0
883.0
883.0
881.0
879.0
880.0
879.0
881.0
883.0
886.0
888.0
893.0
897.0
898.0
900.0
901.0
902.0
899.0
898.0
901.0
901.0
902.0
901.0
905.0
909.0
909.0
910.0
910.0
907.0
906.0
906.0
904.0
906.0
908.0
906.0
909.0
909.0
909.0
908.0
904.0
901.0
899.0
899.0
900.0
902.0
903.0
900.0
900.0
900.0
898.0
895.0
899.0
914.0
939.0
972.0
1014.0
1061.0
1112.0
1165.0
1214.0
1256.0
1281.0
1297.0
1297.0
1287.0
1265.0
1229.0
1172.0
1096.0
1009.0
931.0
885.0
864.0
865.0
873.0
884.0
893.0
896.0
892.0
888.0
883.0
879.0
880.0
880.0
881.0
880.0
880.0
878.0
877.0
874.0
870.0
870.0
870.0
867.0
868.0
868.0
869.0
867.0
869.0
866.0
865.0
862.0
857.0
855.0
852.0
855.0
853.0
851.0
851.0
849.0
844.0
843.0
838.0
836.0
834.0
833.0
833.0
833.0
834.0
832.0
834.0
833.0
831.0
830.0
828.0
827.0
826.0
826.0
825.0
826.0
825.0
826.0
825.0
826.0
824.0
821.0
818.0
814.0
812.0
807.0
806.0
804.0
805.0
802.0
801.0
799.0
796.0
793.0
785.0
782.0
779.0
778.0
777.0
776.0
776.0
778.0
778.0
778.0
777.0
780.0
779.0
782.0
785.0
791.0
795.0
804.0
810.0
818.0
825.0
829.0
836.0
840.0
844.0
848.0
854.0
858.0
862.0
867.0
871.0
871.0
877.0
879.0
882.0
881.0
881.0
882.0
883.0
885.0
888.0
890.0
892.0
891.0
894.0
892.0
893.0
892.0
893.0
891.0
890.0
891.0
891.0
893.0
894.0
895.0
896.0
897.0
898.0
898.0
896.0
890.0
890.0
888.0
892.0
891.0
894.0
894.0
895.0
894.0
894.0
895.0
896.0
895.0
895.0
895.0
898.0
900.0
902.0
903.0
902.0
902.0
904.0
898.0
899.0
897.0
894.0
894.0
894.0
897.0
898.0
900.0
902.0
902.0
903.0
902.0
899.0
897.0
895.0
898.0
899.0
902.0
903.0
903.0
904.0
903.0
904.0
903.0
901.0
900.0
900.0
901.0
902.0
900.0
901.0
902.0
904.0
906.0
904.0
903.0
902.0
898.0
896.0
894.0
894.0
894.0
897.0
895.0
899.0
896.0
895.0
896.0
895.0
894.0
893.0
894.0
894.0
896.0
896.0
895.0
897.0
896.0
894.0
894.0
892.0
889.0
887.0
888.0
889.0
889.0
889.0
893.0
896.0
898.0
899.0
899.0
902.0
900.0
903.0
905.0
906.0
906.0
907.0
911.0
912.0
913.0
913.0
914.0
913.0
911.0
910.0
910.0
910.0
911.0
908.0
907.0
908.0
915.0
930.0
959.0
993.0
1033.0
1077.0
1129.0
1179.0
1226.0
1266.0
1291.0
1301.0
1298.0
1284.0
1260.0
1219.0
1154.0
1074.0
987.0
921.0
884.0
874.0
876.0
886.0
894.0
901.0
900.0
897.0
890.0
885.0
881.0
874.0
875.0
873.0
872.0
869.0
866.0
860.0
857.0
853.0
852.0
851.0
851.0
852.0
855.0
857.0
858.0
861.0
863.0
864.0
864.0
864.0
863.0
862.0
859.0
858.0
859.0
861.0
861.0
864.0
862.0
862.0
858.0
856.0
856.0
855.0
853.0
854.0
854.0
854.0
853.0
854.0
853.0
851.0
847.0
846.0
847.0
845.0
844.0
843.0
841.0
842.0
843.0
843.0
841.0
840.0
839.0
835.0
831.0
827.0
823.0
822.0
819.0
817.0
816.0
816.0
812.0
805.0
800.0
793.0
788.0
781.0
780.0
777.0
773.0
771.0
771.0
772.0
773.0
769.0
775.0
773.0
776.0
777.0
779.0
783.0
790.0
795.0
803.0
811.0
819.0
825.0
831.0
835.0
837.0
840.0
847.0
852.0
859.0
866.0
870.0
874.0
879.0
880.0
883.0
882.0
882.0
883.0
883.0
885.0
887.0
889.0
888.0
893.0
894.0
895.0
892.0
891.0
887.0
889.0
889.0
888.0
888.0
892.0
894.0
892.0
893.0
893.0
889.0
886.0
885.0
882.0
882.0
882.0
884.0
888.0
891.0
895.0
896.0
897.0
899.0
897.0
900.0
902.0
903.0
904.0
909.0
909.0
908.0
912.0
911.0
914.0
912.0
912.0
910.0
910.0
907.0
910.0
910.0
911.0
912.0
912.0
911.0
914.0
912.0
908.0
907.0
905.0
904.0
905.0
906.0
905.0
904.0
905.0
906.0
904.0
903.0
900.0
899.0
898.0
899.0
896.0
897.0
896.0
898.0
897.0
898.0
895.0
894.0
888.0
886.0
884.0
880.0
879.0
879.0
880.0
881.0
883.0
888.0
888.0
889.0
886.0
889.0
889.0
891.0
893.0
896.0
899.0
900.0
905.0
905.0
905.0
904.0
902.0
901.0
901.0
902.0
904.0
904.0
905.0
906.0
908.0
909.0
907.0
905.0
904.0
903.0
901.0
902.0
902.0
901.0
903.0
903.0
904.0
904.0
904.0
904.0
897.0
897.0
898.0
899.0
899.0
902.0
901.0
901.0
901.0
901.0
898.0
893.0
889.0
890.0
897.0
915.0
943.0
983.0
1027.0
1076.0
1133.0
1185.0
1232.0
1272.0
1293.0
1301.0
1293.0
1279.0
1253.0
1213.0
1152.0
1074.0
994.0
928.0
888.0
874.0
873.0
883.0
887.0
895.0
893.0
892.0
889.0
887.0
886.0
884.0
883.0
881.0
878.0
876.0
875.0
871.0
871.0
870.0
869.0
870.0
869.0
867.0
865.0
862.0
861.0
859.0
855.0
854.0
855.0
853.0
852.0
854.0
853.0
853.0
850.0
847.0
846.0
843.0
839.0
840.0
837.0
836.0
834.0
834.0
832.0
830.0
827.0
827.0
828.0
825.0
825.0
826.0
828.0
829.0
829.0
828.0
830.0
829.0
829.0
828.0
827.0
824.0
822.0
820.0
818.0
819.0
817.0
817.0
817.0
815.0
810.0
809.0
805.0
800.0
798.0
794.0
791.0
791.0
788.0
787.0
787.0
784.0
777.0
775.0
773.0
770.0
765.0
765.0
765.0
765.0
768.0
770.0
774.0
777.0
780.0
783.0
786.0
788.0
792.0
796.0
800.0
805.0
811.0
817.0
824.0
830.0
833.0
838.0
838.0
841.0
845.0
849.0
853.0
861.0
865.0
869.0
873.0
876.0
874.0
876.0
879.0
875.0
874.0
877.0
878.0
882.0
884.0
886.0
886.0
890.0
887.0
889.0
887.0
886.0
885.0
885.0
887.0
886.0
888.0
887.0
889.0
893.0
893.0
892.0
889.0
890.0
890.0
891.0
891.0
892.0
894.0
896.0
897.0
896.0
895.0
892.0
889.0
888.0
885.0
884.0
882.0
881.0
880.0
882.0
882.0
882.0
879.0
878.0
880.0
878.0
878.0
883.0
885.0
884.0
887.0
884.0
886.0
885.0
883.0
882.0
881.0
881.0
881.0
880.0
881.0
879.0
880.0
882.0
885.0
883.0
883.0
882.0
881.0
881.0
880.0
879.0
882.0
885.0
886.0
888.0
887.0
888.0
886.0
885.0
886.0
889.0
886.0
886.0
887.0
888.0
890.0
892.0
893.0
892.0
890.0
890.0
887.0
885.0
879.0
879.0
887.0
906.0
932.0
968.0
1008.0
1055.0
1107.0
1162.0
1210.0
1251.0
1273.0
1287.0
1285.0
1270.0
1244.0
1197.0
1129.0
1041.0
954.0
