# Simple Text Format
# Sampling Rate (Hz):= 360.00
# Resolution:= 12
# Labels:= ECG
911.0
909.0
911.0
908.0
907.0
906.0
906.0
905.0
907.0
906.0
903.0
905.0
903.0
904.0
902.0
901.0
903.0
903.0
904.0
907.0
908.0
910.0
910.0
912.0
909.0
909.0
907.0
906.0
902.0
902.0
906.0
908.0
908.0
911.0
910.0
911.0
913.0
910.0
910.0
905.0
905.0
905.0
906.0
907.0
908.0
911.0
911.0
911.0
910.0
911.0
908.0
908.0
905.0
905.0
906.0
906.0
905.0
905.0
909.0
907.0
908.0
906.0
904.0
904.0
903.0
901.0
901.0
901.0
903.0
901.0
902.0
903.0
902.0
902.0
899.0
898.0
899.0
897.0
900.0
901.0
902.0
905.0
907.0
907.0
910.0
909.0
911.0
910.0
910.0
908.0
908.0
910.0
913.0
912.0
914.0
912.0
912.0
908.0
903.0
901.0
898.0
898.0
909.0
932.0
965.0
1003.0
1049.0
1097.0
1151.0
1202.0
1247.0
1277.0
1299.0
1304.0
1298.0
1280.0
1246.0
1183.0
1095.0
999.0
921.0
877.0
859.0
863.0
874.0
887.0
891.0
895.0
891.0
888.0
883.0
881.0
881.0
878.0
877.0
878.0
877.0
879.0
879.0
879.0
877.0
878.0
878.0
880.0
877.0
875.0
873.0
871.0
870.0
868.0
865.0
864.0
864.0
865.0
865.0
863.0
866.0
863.0
861.0
858.0
857.0
854.0
851.0
851.0
852.0
854.0
854.0
855.0
853.0
851.0
850.0
845.0
844.0
842.0
842.0
844.0
842.0
842.0
840.0
839.0
837.0
835.0
832.0
831.0
826.0
823.0
821.0
820.0
818.0
819.0
817.0
813.0
812.0
808.0
805.0
801.0
799.0
799.0
798.0
798.0
795.0
796.0
792.0
788.0
784.0
782.0
779.0
778.0
774.0
772.0
772.0
773.0
773.0
772.0
777.0
778.0
782.0
781.0
782.0
786.0
790.0
794.0
802.0
807.0
813.0
822.0
828.0
834.0
840.0
845.0
849.0
852.0
854.0
856.0
859.0
865.0
869.0
872.0
875.0
875.0
880.0
882.0
881.0
883.0
882.0
886.0
890.0
890.0
892.0
893.0
895.0
892.0
892.0
892.0
895.0
891.0
888.0
890.0
890.0
891.0
893.0
896.0
898.0
899.0
902.0
901.0
901.0
902.0
900.0
901.0
901.0
903.0
903.0
906.0
908.0
905.0
906.0
905.0
903.0
901.0
898.0
898.0
900.0
900.0
900.0
901.0
903.0
899.0
901.0
899.0
899.0
896.0
896.0
895.0
895.0
897.0
898.0
898.0
899.0
900.0
899.0
898.0
895.0
895.0
894.0
893.0
892.0
894.0
895.0
896.0
897.0
895.0
893.0
891.0
891.0
889.0
889.0
891.0
892.0
894.0
900.0
903.0
906.0
907.0
907.0
906.0
902.0
899.0
897.0
895.0
901.0
912.0
937.0
969.0
1011.0
1056.0
1107.0
1163.0
1214.0
1260.0
1287.0
1303.0
1307.0
1295.0
1273.0
1235.0
1174.0
1091.0
995.0
918.0
872.0
855.0
861.0
878.0
887.0
897.0
897.0
898.0
893.0
886.0
881.0
878.0
876.0
874.0
873.0
874.0
868.0
868.0
869.0
869.0
869.0
870.0
868.0
864.0
864.0
863.0
859.0
857.0
859.0
858.0
859.0
860.0
859.0
859.0
861.0
859.0
860.0
860.0
859.0
858.0
860.0
858.0
859.0
860.0
862.0
859.0
860.0
858.0
858.0
856.0
852.0
853.0
854.0
851.0
854.0
857.0
857.0
853.0
850.0
846.0
841.0
838.0
835.0
832.0
832.0
830.0
832.0
830.0
829.0
827.0
825.0
822.0
818.0
814.0
810.0
808.0
806.0
804.0
803.0
803.0
803.0
800.0
801.0
798.0
796.0
793.0
790.0
790.0
793.0
793.0
797.0
801.0
804.0
809.0
811.0
815.0
819.0
824.0
828.0
832.0
840.0
846.0
854.0
860.0
865.0
868.0
870.0
872.0
874.0
877.0
877.0
879.0
879.0
883.0
885.0
889.0
891.0
891.0
894.0
893.0
890.0
888.0
886.0
883.0
883.0
883.0
883.0
884.0
886.0
886.0
886.0
886.0
885.0
885.0
885.0
887.0
887.0
888.0
890.0
891.0
894.0
896.0
897.0
897.0
895.0
897.0
896.0
900.0
898.0
901.0
902.0
901.0
903.0
903.0
905.0
903.0
902.0
902.0
902.0
902.0
902.0
903.0
904.0
905.0
907.0
908.0
906.0
907.0
904.0
903.0
901.0
899.0
898.0
897.0
896.0
895.0
896.0
893.0
894.0
894.0
893.0
890.0
887.0
887.0
889.0
892.0
893.0
894.0
897.0
896.0
892.0
897.0
897.0
895.0
891.0
893.0
895.0
898.0
900.0
900.0
900.0
902.0
901.0
899.0
898.0
895.0
893.0
894.0
896.0
897.0
899.0
900.0
901.0
900.0
900.0
900.0
894.0
896.0
893.0
894.0
897.0
896.0
899.0
902.0
902.0
902.0
896.0
895.0
896.0
893.0
894.0
893.0
892.0
895.0
899.0
899.0
905.0
904.0
907.0
905.0
903.0
900.0
896.0
894.0
893.0
891.0
893.0
892.0
892.0
893.0
894.0
895.0
896.0
897.0
893.0
896.0
895.0
895.0
897.0
905.0
906.0
906.0
906.0
905.0
902.0
900.0
896.0
896.0
896.0
894.0
897.0
897.0
899.0
900.0
898.0
900.0
899.0
899.0
900.0
900.0
900.0
901.0
903.0
903.0
903.0
904.0
903.0
903.0
903.0
901.0
900.0
902.0
901.0
901.0
905.0
905.0
906.0
905.0
907.0
907.0
903.0
903.0
901.0
901.0
900.0
901.0
902.0
901.0
903.0
904.0
903.0
904.0
902.0
901.0
900.0
898.0
897.0
895.0
898.0
899.0
900.0
897.0
899.0
899.0
899.0
897.0
894.0
897.0
895.0
898.0
899.0
899.0
900.0
902.0
901.0
900.0
902.0
900.0
901.0
901.0
902.0
904.0
904.0
901.0
898.0
896.0
898.0
905.0
922.0
949.0
985.0
1029.0
1079.0
1135.0
1189.0
1235.0
1272.0
1293.0
1299.0
1295.0
1280.0
1260.0
1220.0
1159.0
1077.0
991.0
922.0
884.0
873.0
874.0
882.0
889.0
896.0
898.0
894.0
889.0
884.0
881.0
880.0
878.0
879.0
878.0
877.0
873.0
872.0
870.0
868.0
868.0
865.0
866.0
867.0
869.0
868.0
868.0
867.0
865.0
866.0
866.0
866.0
864.0
864.0
864.0
866.0
864.0
867.0
861.0
860.0
860.0
857.0
855.0
850.0
848.0
846.0
847.0
846.0
846.0
847.0
847.0
848.0
843.0
843.0
842.0
838.0
835.0
835.0
833.0
829.0
833.0
834.0
832.0
828.0
826.0
822.0
821.0
818.0
816.0
813.0
811.0
810.0
810.0
808.0
804.0
804.0
800.0
796.0
791.0
789.0
785.0
781.0
781.0
780.0
780.0
779.0
776.0
775.0
774.0
770.0
769.0
767.0
767.0
767.0
770.0
775.0
777.0
780.0
784.0
788.0
790.0
795.0
801.0
806.0
812.0
818.0
827.0
835.0
842.0
851.0
856.0
860.0
865.0
864.0
868.0
869.0
873.0
876.0
878.0
883.0
884.0
889.0
889.0
889.0
891.0
892.0
889.0
891.0
892.0
892.0
894.0
895.0
897.0
898.0
897.0
895.0
893.0
896.0
896.0
897.0
895.0
896.0
893.0
893.0
897.0
899.0
895.0
894.0
891.0
888.0
890.0
890.0
892.0
893.0
895.0
897.0
899.0
901.0
903.0
903.0
905.0
904.0
906.0
904.0
905.0
907.0
906.0
910.0
910.0
908.0
909.0
908.0
908.0
906.0
904.0
902.0
900.0
898.0
900.0
900.0
902.0
906.0
906.0
906.0
906.0
906.0
903.0
903.0
901.0
900.0
900.0
902.0
905.0
904.0
905.0
904.0
903.0
900.0
898.0
898.0
896.0
894.0
896.0
896.0
895.0
897.0
894.0
893.0
893.0
891.0
888.0
890.0
888.0
892.0
892.0
896.0
898.0
898.0
899.0
899.0
901.0
902.0
900.0
898.0
899.0
898.0
900.0
903.0
904.0
910.0
908.0
908.0
905.0
903.0
900.0
897.0
902.0
913.0
933.0
965.0
1005.0
1047.0
1096.0
1149.0
1200.0
1240.0
1265.0
1274.0
1271.0
1260.0
1234.0
1193.0
1127.0
1047.0
965.0
903.0
868.0
857.0
859.0
868.0
877.0
877.0
880.0
879.0
876.0
873.0
872.0
872.0
873.0
873.0
870.0
870.0
872.0
873.0
875.0
876.0
878.0
879.0
878.0
879.0
878.0
876.0
876.0
874.0
872.0
872.0
872.0
871.0
874.0
875.0
873.0
872.0
870.0
866.0
864.0
862.0
862.0
860.0
859.0
859.0
859.0
861.0
859.0
859.0
854.0
853.0
848.0
845.0
844.0
836.0
838.0
839.0
842.0
841.0
837.0
838.0
834.0
829.0
827.0
825.0
826.0
825.0
823.0
826.0
826.0
827.0
825.0
823.0
821.0
819.0
813.0
812.0
809.0
810.0
808.0
808.0
804.0
804.0
802.0
798.0
798.0
795.0
791.0
790.0
791.0
793.0
795.0
796.0
798.0
799.0
804.0
806.0
807.0
814.0
818.0
822.0
826.0
829.0
830.0
836.0
839.0
845.0
848.0
851.0
855.0
856.0
858.0
861.0
862.0
865.0
864.0
868.0
870.0
871.0
874.0
875.0
876.0
874.0
876.0
876.0
876.0
878.0
881.0
881.0
884.0
886.0
887.0
886.0
886.0
885.0
886.0
885.0
885.0
886.0
887.0
887.0
890.0
891.0
892.0
891.0
892.0
890.0
888.0
888.0
887.0
888.0
888.0
889.0
890.0
892.0
893.0
893.0
892.0
891.0
890.0
889.0
890.0
889.0
889.0
887.0
887.0
887.0
885.0
881.0
881.0
878.0
876.0
876.0
877.0
877.0
880.0
885.0
886.0
890.0
889.0
890.0
886.0
885.0
887.0
885.0
887.0
888.0
888.0
893.0
893.0
898.0
900.0
900.0
901.0
903.0
905.0
905.0
906.0
909.0
909.0
909.0
909.0
908.0
904.0
901.0
897.0
894.0
893.0
891.0
888.0
887.0
886.0
885.0
884.0
885.0
883.0
883.0
885.0
883.0
885.0
883.0
883.0
886.0
888.0
889.0
890.0
891.0
887.0
886.0
883.0
883.0
884.0
883.0
881.0
882.0
883.0
882.0
883.0
886.0
887.0
887.0
885.0
885.0
880.0
882.0
884.0
882.0
883.0
886.0
886.0
886.0
888.0
886.0
885.0
883.0
881.0
880.0
880.0
878.0
880.0
883.0
883.0
887.0
887.0
885.0
886.0
884.0
883.0
881.0
880.0
879.0
880.0
881.0
884.0
885.0
887.0
885.0
885.0
883.0
884.0
886.0
886.0
885.0
889.0
895.0
897.0
899.0
899.0
897.0
899.0
894.0
892.0
890.0
892.0
892.0
893.0
894.0
894.0
896.0
892.0
893.0
892.0
889.0
889.0
890.0
890.0
892.0
894.0
898.0
898.0
897.0
900.0
900.0
898.0
898.0
897.0
893.0
888.0
890.0
886.0
892.0
903.0
926.0
955.0
990.0
1033.0
1081.0
1129.0
1180.0
1225.0
1261.0
1281.0
1288.0
1282.0
1268.0
1240.0
1192.0
1123.0
1040.0
961.0
903.0
872.0
865.0
872.0
883.0
890.0
899.0
900.0
894.0
889.0
882.0
877.0
876.0
875.0
873.0
871.0
873.0
874.0
874.0
871.0
868.0
866.0
863.0
858.0
855.0
849.0
854.0
853.0
851.0
852.0
851.0
849.0
846.0
844.0
841.0
839.0
834.0
834.0
836.0
836.0
835.0
838.0
835.0
837.0
836.0
834.0
835.0
833.0
831.0
833.0
833.0
833.0
830.0
833.0
833.0
836.0
835.0
837.0
838.0
835.0
835.0
833.0
834.0
832.0
835.0
831.0
831.0
826.0
823.0
822.0
819.0
811.0
809.0
804.0
803.0
802.0
802.0
800.0
798.0
796.0
791.0
786.0
781.0
778.0
773.0
771.0
768.0
768.0
766.0
768.0
768.0
765.0
764.0
765.0
762.0
765.0
765.0
767.0
768.0
773.0
781.0
788.0
797.0
807.0
813.0
819.0
824.0
829.0
834.0
840.0
848.0
855.0
862.0
870.0
874.0
878.0
882.0
886.0
888.0
890.0
889.0
890.0
891.0
890.0
894.0
895.0
896.0
897.0
893.0
893.0
894.0
891.0
887.0
886.0
887.0
886.0
886.0
885.0
887.0
887.0
889.0
887.0
886.0
885.0
884.0
883.0
885.0
888.0
890.0
891.0
893.0
894.0
893.0
895.0
892.0
892.0
890.0
891.0
890.0
891.0
893.0
898.0
897.0
898.0
901.0
902.0
901.0
901.0
900.0
901.0
901.0
902.0
903.0
908.0
908.0
908.0
908.0
909.0
906.0
907.0
905.0
906.0
908.0
907.0
906.0
907.0
907.0
907.0
906.0
903.0
900.0
898.0
896.0
897.0
900.0
900.0
900.0
896.0
900.0
901.0
900.0
900.0
897.0
896.0
895.0
895.0
896.0
897.0
899.0
898.0
900.0
897.0
897.0
895.0
894.0
895.0
890.0
891.0
889.0
890.0
891.0
896.0
897.0
898.0
899.0
902.0
903.0
901.0
902.0
900.0
902.0
897.0
899.0
904.0
905.0
903.0
903.0
903.0
901.0
900.0
899.0
898.0
897.0
898.0
900.0
902.0
902.0
903.0
903.0
903.0
902.0
901.0
899.0
897.0
898.0
898.0
899.0
900.0
900.0
901.0
902.0
901.0
899.0
900.0
899.0
898.0
899.0
899.0
900.0
901.0
903.0
903.0
902.0
901.0
901.0
901.0
898.0
897.0
897.0
898.0
899.0
902.0
902.0
905.0
905.0
906.0
906.0
906.0
905.0
904.0
903.0
902.0
899.0
898.0
895.0
898.0
909.0
927.0
956.0
994.0
1039.0
1093.0
1149.0
1206.0
1252.0
1282.0
1296.0
1295.0
1281.0
1250.0
1200.0
1123.0
1030.0
948.0
890.0
863.0
861.0
873.0
889.0
899.0
907.0
903.0
896.0
884.0
880.0
877.0
881.0
878.0
880.0
880.0
882.0
879.0
880.0
876.0
875.0
871.0
868.0
868.0
867.0
869.0
870.0
870.0
871.0
871.0
870.0
868.0
869.0
867.0
867.0
865.0
866.0
867.0
867.0
869.0
871.0
867.0
868.0
869.0
867.0
865.0
863.0
864.0
863.0
860.0
864.0
865.0
865.0
864.0
863.0
861.0
856.0
852.0
850.0
850.0
848.0
848.0
848.0
846.0
841.0
841.0
833.0
833.0
826.0
826.0
822.0
819.0
817.0
817.0
814.0
813.0
810.0
810.0
807.0
804.0
800.0
795.0
790.0
788.0
788.0
791.0
789.0
790.0
791.0
789.0
787.0
787.0
789.0
789.0
789.0
792.0
797.0
801.0
810.0
817.0
825.0
833.0
840.0
845.0
846.0
853.0
858.0
864.0
869.0
874.0
877.0
883.0
886.0
890.0
892.0
893.0
893.0
895.0
896.0
895.0
897.0
897.0
898.0
899.0
902.0
900.0
898.0
899.0
897.0
892.0
893.0
894.0
898.0
899.0
901.0
902.0
903.0
905.0
905.0
903.0
903.0
902.0
904.0
904.0
905.0
906.0
908.0
910.0
909.0
910.0
911.0
912.0
910.0
910.0
907.0
906.0
908.0
907.0
908.0
910.0
910.0
910.0
911.0
911.0
911.0
911.0
909.0
909.0
910.0
911.0
914.0
913.0
915.0
914.0
911.0
911.0
910.0
907.0
907.0
905.0
903.0
904.0
904.0
906.0
907.0
908.0
908.0
908.0
906.0
905.0
904.0
906.0
905.0
906.0
909.0
909.0
912.0
912.0
910.0
911.0
909.0
902.0
903.0
905.0
904.0
904.0
904.0
906.0
907.0
907.0
908.0
909.0
905.0
904.0
902.0
901.0
898.0
899.0
903.0
904.0
903.0
902.0
901.0
902.0
903.0
903.0
902.0
902.0
903.0
905.0
903.0
906.0
908.0
907.0
905.0
905.0
902.0
901.0
900.0
900.0
902.0
901.0
903.0
904.0
905.0
907.0
908.0
907.0
907.0
905.0
907.0
908.0
909.0
912.0
913.0
916.0
917.0
913.0
911.0
909.0
910.0
916.0
934.0
961.0
1001.0
1050.0
1104.0
1160.0
1214.0
1258.0
1288.0
1304.0
1305.0
1294.0
1274.0
1236.0
1178.0
1097.0
1005.0
932.0
885.0
868.0
870.0
879.0
888.0
897.0
896.0
892.0
888.0
884.0
880.0
877.0
876.0
876.0
876.0
875.0
875.0
870.0
869.0
867.0
867.0
868.0
868.0
871.0
871.0
870.0
873.0
869.0
867.0
869.0
866.0
864.0
865.0
865.0
867.0
868.0
868.0
871.0
872.0
873.0
870.0
870.0
868.0
866.0
867.0
867.0
867.0
866.0
864.0
865.0
865.0
863.0
862.0
859.0
858.0
857.0
858.0
858.0
857.0
858.0
857.0
856.0
852.0
852.0
849.0
846.0
846.0
845.0
844.0
840.0
840.0
837.0
839.0
836.0
830.0
827.0
821.0
814.0
813.0
808.0
807.0
803.0
806.0
806.0
805.0
806.0
802.0
803.0
799.0
796.0
794.0
791.0
791.0
790.0
792.0
793.0
793.0
796.0
797.0
801.0
808.0
814.0
818.0
823.0
829.0
835.0
842.0
847.0
851.0
855.0
860.0
864.0
865.0
867.0
871.0
874.0
876.0
878.0
881.0
885.0
890.0
891.0
890.0
889.0
892.0
893.0
892.0
892.0
894.0
895.0
897.0
900.0
903.0
902.0
903.0
905.0
904.0
903.0
902.0
902.0
904.0
905.0
908.0
906.0
906.0
908.0
904.0
905.0
904.0
904.0
903.0
903.0
903.0
904.0
904.0
906.0
907.0
908.0
906.0
908.0
904.0
904.0
904.0
901.0
903.0
900.0
902.0
904.0
906.0
904.0
903.0
902.0
902.0
901.0
898.0
902.0
900.0
900.0
904.0
902.0
904.0
904.0
902.0
901.0
898.0
893.0
892.0
892.0
891.0
889.0
891.0
896.0
900.0
903.0
905.0
907.0
906.0
904.0
907.0
908.0
908.0
910.0
911.0
914.0
913.0
913.0
910.0
909.0
907.0
905.0
904.0
901.0
904.0
902.0
907.0
907.0
909.0
908.0
908.0
905.0
905.0
905.0
904.0
902.0
902.0
900.0
900.0
901.0
904.0
907.0
906.0
904.0
901.0
900.0
900.0
899.0
899.0
901.0
902.0
904.0
905.0
906.0
906.0
908.0
905.0
904.0
901.0
900.0
899.0
898.0
898.0
897.0
899.0
898.0
893.0
894.0
891.0
891.0
891.0
891.0
895.0
900.0
907.0
912.0
917.0
920.0
918.0
913.0
911.0
904.0
901.0
906.0
921.0
950.0
983.0
1028.0
1078.0
1132.0
1186.0
1234.0
1272.0
1295.0
1299.0
1293.0
1272.0
1235.0
1175.0
1092.0
1002.0
927.0
880.0
861.0
863.0
877.0
889.0
897.0
900.0
895.0
890.0
886.0
885.0
885.0
882.0
884.0
883.0
879.0
875.0
870.0
869.0
866.0
866.0
867.0
867.0
865.0
864.0
866.0
864.0
862.0
864.0
864.0
865.0
867.0
867.0
866.0
870.0
871.0
870.0
870.0
869.0
869.0
867.0
864.0
862.0
863.0
862.0
860.0
861.0
860.0
858.0
858.0
855.0
854.0
850.0
853.0
851.0
850.0
846.0
845.0
848.0
846.0
845.0
842.0
842.0
840.0
835.0
834.0
831.0
829.0
828.0
827.0
824.0
824.0
819.0
816.0
811.0
804.0
799.0
795.0
791.0
789.0
788.0
792.0
790.0
788.0
788.0
787.0
783.0
783.0
780.0
780.0
783.0
788.0
790.0
794.0
799.0
806.0
811.0
815.0
819.0
821.0
826.0
829.0
840.0
847.0
855.0
861.0
867.0
870.0
873.0
875.0
875.0
878.0
880.0
881.0
882.0
888.0
891.0
894.0
897.0
898.0
898.0
899.0
898.0
898.0
898.0
896.0
898.0
898.0
902.0
899.0
899.0
902.0
901.0
900.0
898.0
896.0
894.0
896.0
896.0
898.0
899.0
899.0
901.0
900.0
901.0
903.0
903.0
903.0
901.0
902.0
901.0
901.0
903.0
904.0
906.0
909.0
910.0
912.0
913.0
912.0
913.0
913.0
913.0
912.0
917.0
915.0
918.0
918.0
914.0
913.0
911.0
911.0
909.0
908.0
910.0
909.0
910.0
909.0
911.0
913.0
915.0
913.0
912.0
912.0
909.0
908.0
908.0
908.0
909.0
909.0
911.0
911.0
910.0
907.0
905.0
904.0
904.0
902.0
901.0
901.0
901.0
903.0
904.0
903.0
902.0
903.0
900.0
900.0
900.0
898.0
897.0
899.0
899.0
900.0
902.0
903.0
905.0
905.0
904.0
903.0
903.0
902.0
905.0
904.0
905.0
905.0
905.0
905.0
904.0
904.0
904.0
902.0
903.0
905.0
907.0
907.0
909.0
908.0
915.0
916.0
912.0
912.0
912.0
912.0
912.0
910.0
908.0
910.0
912.0
915.0
916.0
917.0
917.0
918.0
918.0
915.0
912.0
913.0
912.0
913.0
914.0
912.0
913.0
914.0
914.0
914.0
912.0
910.0
909.0
909.0
910.0
908.0
909.0
909.0
907.0
906.0
906.0
906.0
904.0
901.0
899.0
897.0
896.0
895.0
896.0
895.0
896.0
900.0
903.0
905.0
907.0
908.0
911.0
910.0
911.0
913.0
913.0
914.0
916.0
917.0
918.0
917.0
915.0
918.0
914.0
912.0
913.0
912.0
914.0
918.0
921.0
923.0
921.0
921.0
918.0
918.0
915.0
913.0
916.0
915.0
917.0
917.0
919.0
919.0
917.0
916.0
915.0
913.0
911.0
906.0
907.0
906.0
906.0
906.0
907.0
906.0
909.0
907.0
909.0
906.0
908.0
911.0
912.0
911.0
911.0
908.0
908.0
908.0
911.0
915.0
930.0
953.0
986.0
1027.0
1077.0
1130.0
1186.0
1239.0
1280.0
1305.0
1314.0
1316.0
1307.0
1287.0
1253.0
1194.0
1113.0
1020.0
942.0
898.0
879.0
886.0
898.0
909.0
917.0
918.0
913.0
904.0
898.0
894.0
891.0
897.0
896.0
898.0
897.0
890.0
886.0
883.0
881.0
880.0
878.0
877.0
877.0
875.0
876.0
874.0
872.0
869.0
865.0
861.0
859.0
856.0
858.0
856.0
858.0
861.0
862.0
865.0
870.0
870.0
871.0
871.0
871.0
867.0
866.0
869.0
869.0
872.0
871.0
871.0
866.0
868.0
862.0
862.0
860.0
857.0
858.0
856.0
856.0
856.0
855.0
854.0
853.0
851.0
849.0
847.0
840.0
841.0
836.0
834.0
833.0
830.0
828.0
825.0
819.0
816.0
814.0
811.0
805.0
801.0
796.0
793.0
789.0
787.0
786.0
783.0
785.0
782.0
778.0
777.0
776.0
776.0
778.0
782.0
787.0
794.0
802.0
811.0
817.0
824.0
831.0
838.0
846.0
852.0
859.0
865.0
873.0
879.0
884.0
890.0
895.0
896.0
900.0
901.0
903.0
905.0
907.0
910.0
912.0
911.0
916.0
917.0
919.0
918.0
917.0
914.0
914.0
912.0
912.0
912.0
914.0
913.0
911.0
912.0
911.0
913.0
908.0
906.0
901.0
899.0
897.0
895.0
896.0
897.0
901.0
903.0
900.0
904.0
903.0
905.0
905.0
906.0
909.0
910.0
914.0
918.0
920.0
922.0
921.0
921.0
920.0
919.0
920.0
919.0
920.0
920.0
921.0
925.0
923.0
926.0
925.0
924.0
927.0
923.0
922.0
921.0
923.0
922.0
924.0
923.0
924.0
924.0
925.0
924.0
919.0
918.0
913.0
911.0
911.0
910.0
909.0
907.0
908.0
908.0
907.0
905.0
902.0
901.0
897.0
897.0
900.0
903.0
905.0
909.0
912.0
914.0
915.0
913.0
915.0
911.0
913.0
912.0
914.0
911.0
914.0
911.0
914.0
917.0
916.0
916.0
915.0
915.0
913.0
913.0
913.0
914.0
915.0
917.0
918.0
918.0
918.0
917.0
915.0
914.0
914.0
913.0
914.0
913.0
915.0
916.0
917.0
917.0
915.0
914.0
911.0
910.0
908.0
906.0
908.0
906.0
907.0
905.0
907.0
908.0
906.0
904.0
901.0
897.0
895.0
892.0
890.0
892.0
891.0
893.0
893.0
895.0
894.0
895.0
898.0
901.0
902.0
902.0
906.0
907.0
910.0
911.0
913.0
915.0
912.0
913.0
914.0
914.0
914.0
915.0
917.0
917.0
920.0
921.0
924.0
923.0
923.0
925.0
923.0
921.0
920.0
916.0
914.0
911.0
909.0
915.0
924.0
946.0
977.0
1014.0
1058.0
1107.0
1158.0
1211.0
1258.0
1293.0
1313.0
1318.0
1310.0
1293.0
1260.0
1204.0
1126.0
1033.0
950.0
891.0
866.0
863.0
876.0
887.0
897.0
902.0
903.0
900.0
895.0
888.0
886.0
884.0
884.0
884.0
886.0
887.0
886.0
888.0
886.0
886.0
884.0
885.0
882.0
880.0
882.0
881.0
881.0
882.0
881.0
881.0
880.0
880.0
878.0
875.0
875.0
872.0
871.0
871.0
872.0
874.0
873.0
871.0
868.0
867.0
865.0
862.0
860.0
858.0
857.0
855.0
858.0
856.0
857.0
858.0
857.0
857.0
855.0
852.0
848.0
846.0
846.0
843.0
844.0
843.0
844.0
844.0
840.0
839.0
835.0
832.0
828.0
823.0
826.0
823.0
821.0
820.0
819.0
816.0
813.0
808.0
808.0
804.0
803.0
798.0
797.0
794.0
797.0
794.0
797.0
799.0
798.0
796.0
796.0
793.0
795.0
796.0
799.0
805.0
810.0
820.0
827.0
834.0
842.0
846.0
851.0
855.0
861.0
865.0
869.0
875.0
880.0
883.0
888.0
892.0
891.0
890.0
890.0
887.0
888.0
886.0
884.0
884.0
884.0
884.0
886.0
888.0
893.0
890.0
892.0
893.0
893.0
891.0
891.0
892.0
894.0
894.0
895.0
897.0
896.0
895.0
896.0
896.0
897.0
897.0
900.0
901.0
903.0
904.0
905.0
906.0
908.0
906.0
906.0
905.0
904.0
902.0
905.0
904.0
906.0
906.0
909.0
912.0
912.0
912.0
909.0
909.0
908.0
907.0
906.0
908.0
909.0
909.0
909.0
910.0
907.0
908.0
905.0
904.0
900.0
900.0
897.0
895.0
894.0
898.0
901.0
900.0
901.0
903.0
898.0
896.0
896.0
894.0
895.0
894.0
897.0
898.0
900.0
901.0
901.0
901.0
901.0
901.0
903.0
900.0
902.0
901.0
905.0
902.0
906.0
906.0
904.0
904.0
902.0
899.0
896.0
897.0
894.0
898.0
899.0
901.0
901.0
904.0
902.0
902.0
901.0
900.0
899.0
901.0
898.0
899.0
902.0
903.0
904.0
905.0
903.0
903.0
897.0
896.0
897.0
896.0
893.0
892.0
892.0
892.0
895.0
894.0
894.0
895.0
895.0
892.0
892.0
893.0
891.0
894.0
899.0
897.0
900.0
900.0
899.0
897.0
896.0
899.0
898.0
899.0
901.0
902.0
907.0
908.0
909.0
909.0
908.0
910.0
907.0
905.0
905.0
903.0
905.0
906.0
907.0
908.0
912.0
911.0
910.0
908.0
905.0
904.0
903.0
903.0
904.0
905.0
908.0
907.0
910.0
913.0
914.0
913.0
910.0
907.0
906.0
902.0
902.0
901.0
897.0
895.0
892.0
891.0
892.0
903.0
927.0
958.0
991.0
1036.0
1091.0
1147.0
1204.0
1252.0
1288.0
1308.0
1312.0
1300.0
1280.0
1253.0
1198.0
1125.0
1036.0
954.0
897.0
871.0
867.0
879.0
891.0
899.0
902.0
899.0
892.0
885.0
882.0
880.0
878.0
884.0
884.0
885.0
883.0
882.0
878.0
874.0
874.0
871.0
871.0
869.0
870.0
867.0
868.0
867.0
868.0
868.0
866.0
863.0
860.0
860.0
859.0
857.0
857.0
855.0
855.0
854.0
852.0
852.0
849.0
849.0
848.0
847.0
845.0
846.0
850.0
853.0
858.0
861.0
861.0
861.0
861.0
859.0
855.0
853.0
853.0
854.0
855.0
854.0
857.0
856.0
856.0
853.0
849.0
848.0
844.0
840.0
837.0
835.0
835.0
834.0
831.0
828.0
826.0
820.0
817.0
813.0
808.0
808.0
802.0
801.0
799.0
796.0
793.0
792.0
791.0
787.0
784.0
782.0
778.0
778.0
775.0
778.0
782.0
786.0
790.0
794.0
798.0
805.0
809.0
816.0
820.0
824.0
829.0
838.0
846.0
855.0
860.0
870.0
873.0
877.0
879.0
882.0
884.0
887.0
890.0
892.0
896.0
900.0
899.0
898.0
900.0
900.0
901.0
897.0
896.0
895.0
891.0
894.0
894.0
895.0
898.0
898.0
900.0
901.0
899.0
898.0
896.0
894.0
895.0
896.0
899.0
901.0
902.0
904.0
902.0
903.0
903.0
900.0
900.0
898.0
897.0
898.0
898.0
896.0
899.0
899.0
899.0
899.0
896.0
895.0
895.0
896.0
896.0
897.0
902.0
904.0
907.0
909.0
907.0
908.0
907.0
907.0
908.0
909.0
908.0
909.0
909.0
911.0
911.0
914.0
911.0
913.0
912.0
912.0
912.0
908.0
908.0
909.0
910.0
907.0
908.0
913.0
912.0
911.0
907.0
906.0
904.0
904.0
903.0
902.0
908.0
906.0
904.0
909.0
908.0
909.0
909.0
908.0
908.0
908.0
907.0
907.0
907.0
903.0
902.0
899.0
902.0
909.0
928.0
958.0
998.0
1038.0
1088.0
1146.0
1201.0
1251.0
1286.0
1307.0
1311.0
1300.0
1277.0
1235.0
1170.0
1084.0
994.0
920.0
882.0
871.0
877.0
897.0
909.0
915.0
915.0
904.0
899.0
891.0
886.0
888.0
890.0
892.0
893.0
889.0
888.0
883.0
882.0
880.0
876.0
873.0
873.0
873.0
874.0
872.0
874.0
874.0
872.0
871.0
868.0
865.0
862.0
863.0
861.0
861.0
860.0
860.0
861.0
862.0
861.0
860.0
857.0
856.0
855.0
855.0
856.0
855.0
859.0
860.0
863.0
864.0
867.0
866.0
865.0
865.0
861.0
859.0
860.0
857.0
859.0
860.0
860.0
861.0
858.0
858.0
856.0
853.0
849.0
846.0
845.0
843.0
844.0
843.0
842.0
843.0
841.0
837.0
835.0
830.0
828.0
823.0
821.0
818.0
817.0
815.0
816.0
813.0
813.0
812.0
811.0
811.0
811.0
814.0
820.0
821.0
826.0
830.0
835.0
842.0
846.0
852.0
854.0
857.0
860.0
862.0
867.0
870.0
877.0
881.0
887.0
891.0
894.0
896.0
896.0
896.0
896.0
893.0
897.0
896.0
901.0
903.0
904.0
908.0
908.0
908.0
906.0
907.0
903.0
904.0
902.0
905.0
906.0
906.0
909.0
910.0
909.0
910.0
909.0
908.0
906.0
904.0
904.0
903.0
904.0
907.0
909.0
911.0
