# Simple Text Format
# Sampling Rate (Hz):= 360.00
# Resolution:= 12
# Labels:= ECG
890.0
889.0
887.0
892.0
894.0
896.0
894.0
894.0
896.0
894.0
892.0
891.0
894.0
894.0
897.0
897.0
899.0
901.0
896.0
896.0
899.0
894.0
892.0
889.0
889.0
887.0
887.0
889.0
890.0
892.0
890.0
888.0
885.0
882.0
881.0
885.0
886.0
887.0
886.0
888.0
892.0
896.0
898.0
897.0
896.0
896.0
895.0
893.0
894.0
894.0
895.0
893.0
895.0
894.0
895.0
893.0
890.0
888.0
888.0
887.0
888.0
889.0
890.0
890.0
891.0
893.0
892.0
892.0
889.0
890.0
889.0
890.0
889.0
890.0
891.0
893.0
893.0
896.0
894.0
895.0
893.0
891.0
891.0
892.0
892.0
891.0
890.0
892.0
896.0
899.0
900.0
899.0
897.0
894.0
894.0
892.0
891.0
890.0
886.0
885.0
887.0
899.0
922.0
957.0
1000.0
1048.0
1106.0
1170.0
1231.0
1286.0
1324.0
1350.0
1357.0
1349.0
1331.0
1293.0
1232.0
1143.0
1038.0
938.0
873.0
844.0
842.0
854.0
874.0
888.0
893.0
891.0
885.0
883.0
875.0
872.0
873.0
873.0
875.0
874.0
873.0
873.0
870.0
870.0
865.0
864.0
862.0
858.0
859.0
855.0
856.0
852.0
856.0
855.0
855.0
854.0
852.0
852.0
849.0
848.0
849.0
851.0
853.0
854.0
853.0
856.0
857.0
857.0
855.0
855.0
853.0
852.0
854.0
851.0
853.0
855.0
854.0
854.0
855.0
855.0
848.0
847.0
844.0
841.0
840.0
838.0
837.0
835.0
836.0
834.0
834.0
830.0
828.0
824.0
820.0
816.0
813.0
813.0
810.0
810.0
807.0
808.0
802.0
799.0
793.0
788.0
785.0
779.0
778.0
774.0
772.0
770.0
768.0
766.0
765.0
763.0
762.0
762.0
764.0
765.0
772.0
778.0
785.0
792.0
802.0
808.0
814.0
820.0
826.0
828.0
834.0
839.0
846.0
853.0
858.0
865.0
870.0
875.0
875.0
874.0
881.0
883.0
881.0
883.0
883.0
885.0
886.0
888.0
890.0
892.0
893.0
894.0
892.0
890.0
890.0
888.0
889.0
888.0
888.0
890.0
893.0
894.0
894.0
895.0
893.0
894.0
894.0
894.0
895.0
895.0
894.0
892.0
889.0
891.0
888.0
889.0
888.0
887.0
886.0
887.0
889.0
891.0
894.0
894.0
896.0
898.0
897.0
895.0
896.0
892.0
891.0
891.0
894.0
894.0
896.0
896.0
898.0
898.0
900.0
897.0
897.0
897.0
895.0
894.0
897.0
897.0
897.0
898.0
899.0
899.0
899.0
897.0
895.0
897.0
897.0
896.0
896.0
894.0
895.0
897.0
899.0
899.0
899.0
896.0
898.0
894.0
894.0
894.0
894.0
895.0
897.0
897.0
898.0
897.0
896.0
894.0
891.0
891.0
892.0
893.0
896.0
896.0
897.0
899.0
902.0
901.0
899.0
900.0
898.0
898.0
896.0
896.0
895.0
896.0
896.0
897.0
898.0
897.0
897.0
897.0
896.0
894.0
893.0
896.0
892.0
892.0
895.0
894.0
895.0
895.0
895.0
894.0
894.0
893.0
891.0
891.0
892.0
893.0
897.0
897.0
900.0
900.0
902.0
900.0
898.0
899.0
897.0
894.0
897.0
895.0
895.0
898.0
902.0
900.0
898.0
897.0
895.0
894.0
891.0
888.0
888.0
887.0
891.0
894.0
895.0
896.0
896.0
897.0
897.0
897.0
897.0
897.0
898.0
899.0
899.0
898.0
902.0
905.0
905.0
902.0
903.0
900.0
899.0
901.0
902.0
902.0
903.0
903.0
902.0
906.0
904.0
901.0
901.0
898.0
899.0
897.0
900.0
903.0
906.0
910.0
916.0
913.0
913.0
910.0
907.0
903.0
898.0
893.0
887.0
883.0
885.0
898.0
922.0
961.0
1005.0
1062.0
1122.0
1186.0
1246.0
1301.0
1342.0
1365.0
1366.0
1354.0
1329.0
1281.0
1202.0
1095.0
984.0
898.0
853.0
843.0
853.0
868.0
885.0
894.0
896.0
893.0
888.0
883.0
879.0
876.0
875.0
876.0
876.0
875.0
873.0
873.0
875.0
875.0
874.0
874.0
872.0
868.0
870.0
869.0
868.0
869.0
869.0
868.0
870.0
868.0
866.0
865.0
862.0
859.0
856.0
854.0
854.0
853.0
854.0
856.0
855.0
853.0
850.0
851.0
848.0
843.0
843.0
839.0
839.0
837.0
839.0
837.0
838.0
839.0
838.0
838.0
836.0
835.0
832.0
831.0
827.0
826.0
824.0
821.0
823.0
821.0
822.0
823.0
818.0
815.0
813.0
806.0
805.0
803.0
803.0
804.0
802.0
800.0
796.0
792.0
791.0
788.0
784.0
779.0
779.0
778.0
779.0
777.0
782.0
784.0
786.0
790.0
793.0
796.0
801.0
807.0
813.0
821.0
830.0
837.0
845.0
850.0
854.0
859.0
864.0
867.0
870.0
875.0
877.0
880.0
884.0
887.0
891.0
891.0
892.0
894.0
894.0
896.0
895.0
894.0
895.0
896.0
899.0
899.0
901.0
903.0
903.0
901.0
901.0
900.0
899.0
899.0
899.0
900.0
903.0
908.0
910.0
913.0
912.0
908.0
907.0
906.0
905.0
904.0
904.0
902.0
905.0
906.0
905.0
905.0
904.0
902.0
898.0
897.0
894.0
895.0
895.0
896.0
897.0
897.0
902.0
904.0
907.0
906.0
905.0
904.0
902.0
903.0
905.0
905.0
905.0
908.0
909.0
907.0
907.0
908.0
906.0
906.0
902.0
901.0
900.0
901.0
902.0
903.0
905.0
906.0
903.0
907.0
904.0
902.0
902.0
906.0
904.0
906.0
909.0
910.0
912.0
909.0
909.0
911.0
907.0
906.0
902.0
900.0
899.0
899.0
901.0
898.0
895.0
895.0
893.0
892.0
891.0
891.0
889.0
887.0
890.0
890.0
891.0
892.0
894.0
896.0
897.0
899.0
899.0
899.0
897.0
896.0
897.0
895.0
896.0
896.0
898.0
896.0
897.0
896.0
896.0
895.0
896.0
892.0
894.0
893.0
895.0
897.0
900.0
903.0
902.0
904.0
903.0
902.0
902.0
900.0
901.0
898.0
895.0
892.0
887.0
890.0
900.0
920.0
956.0
997.0
1046.0
1105.0
1172.0
1239.0
1298.0
1341.0
1362.0
1364.0
1353.0
1329.0
1276.0
1195.0
1085.0
972.0
887.0
843.0
833.0
843.0
862.0
881.0
889.0
886.0
882.0
875.0
869.0
865.0
864.0
863.0
867.0
869.0
869.0
869.0
865.0
864.0
861.0
858.0
856.0
856.0
856.0
855.0
856.0
856.0
855.0
857.0
858.0
856.0
858.0
861.0
858.0
860.0
858.0
859.0
855.0
853.0
857.0
856.0
853.0
854.0
852.0
852.0
847.0
845.0
846.0
845.0
844.0
843.0
845.0
847.0
845.0
844.0
842.0
840.0
837.0
834.0
833.0
833.0
833.0
832.0
828.0
826.0
822.0
819.0
817.0
811.0
808.0
804.0
801.0
797.0
794.0
793.0
790.0
789.0
786.0
782.0
780.0
778.0
775.0
773.0
774.0
773.0
775.0
779.0
784.0
788.0
793.0
796.0
800.0
805.0
808.0
814.0
817.0
823.0
829.0
834.0
839.0
845.0
850.0
855.0
856.0
858.0
861.0
861.0
864.0
866.0
873.0
876.0
882.0
885.0
887.0
885.0
884.0
885.0
886.0
886.0
886.0
888.0
888.0
889.0
890.0
891.0
890.0
887.0
887.0
886.0
885.0
884.0
885.0
884.0
886.0
883.0
887.0
887.0
887.0
886.0
885.0
882.0
884.0
883.0
883.0
885.0
884.0
887.0
888.0
889.0
889.0
888.0
886.0
885.0
883.0
880.0
879.0
880.0
882.0
881.0
883.0
885.0
885.0
887.0
884.0
882.0
880.0
878.0
878.0
882.0
883.0
887.0
889.0
892.0
892.0
892.0
895.0
895.0
896.0
899.0
903.0
904.0
904.0
906.0
909.0
908.0
908.0
908.0
907.0
903.0
903.0
903.0
903.0
903.0
905.0
908.0
907.0
905.0
906.0
905.0
902.0
901.0
897.0
899.0
900.0
900.0
902.0
901.0
902.0
902.0
902.0
901.0
901.0
898.0
894.0
893.0
891.0
892.0
892.0
893.0
894.0
895.0
896.0
895.0
893.0
891.0
890.0
887.0
887.0
885.0
884.0
883.0
884.0
884.0
883.0
885.0
887.0
888.0
887.0
885.0
889.0
892.0
895.0
897.0
898.0
901.0
902.0
901.0
902.0
902.0
903.0
903.0
904.0
900.0
903.0
903.0
906.0
908.0
908.0
909.0
906.0
906.0
906.0
906.0
909.0
909.0
911.0
911.0
910.0
913.0
913.0
912.0
912.0
906.0
906.0
903.0
904.0
901.0
902.0
902.0
901.0
903.0
901.0
900.0
896.0
897.0
892.0
892.0
893.0
892.0
894.0
895.0
894.0
896.0
901.0
900.0
900.0
902.0
904.0
905.0
906.0
907.0
905.0
906.0
907.0
909.0
911.0
912.0
913.0
913.0
914.0
913.0
915.0
912.0
914.0
917.0
917.0
918.0
918.0
917.0
914.0
913.0
912.0
908.0
908.0
907.0
908.0
908.0
911.0
909.0
911.0
909.0
908.0
907.0
906.0
906.0
905.0
906.0
906.0
908.0
908.0
909.0
910.0
912.0
911.0
913.0
913.0
915.0
916.0
917.0
917.0
920.0
922.0
921.0
929.0
942.0
963.0
994.0
1031.0
1074.0
1122.0
1174.0
1221.0
1261.0
1291.0
1308.0
1310.0
1299.0
1276.0
1241.0
1189.0
1120.0
1047.0
985.0
942.0
918.0
911.0
914.0
917.0
921.0
921.0
916.0
912.0
909.0
904.0
899.0
901.0
901.0
903.0
903.0
904.0
904.0
899.0
897.0
894.0
891.0
890.0
889.0
889.0
892.0
895.0
895.0
894.0
894.0
893.0
894.0
892.0
891.0
889.0
891.0
890.0
889.0
890.0
890.0
891.0
888.0
885.0
883.0
881.0
877.0
878.0
877.0
877.0
875.0
874.0
878.0
875.0
875.0
873.0
873.0
868.0
867.0
866.0
867.0
866.0
866.0
866.0
865.0
862.0
861.0
857.0
855.0
853.0
849.0
851.0
850.0
851.0
848.0
848.0
849.0
842.0
841.0
839.0
834.0
831.0
826.0
823.0
824.0
823.0
820.0
818.0
821.0
818.0
817.0
815.0
814.0
813.0
812.0
814.0
815.0
816.0
820.0
821.0
824.0
825.0
830.0
831.0
837.0
839.0
845.0
849.0
856.0
864.0
869.0
877.0
885.0
889.0
895.0
898.0
901.0
903.0
904.0
908.0
910.0
913.0
917.0
919.0
922.0
924.0
922.0
923.0
924.0
922.0
924.0
925.0
927.0
932.0
936.0
938.0
940.0
940.0
941.0
942.0
938.0
938.0
937.0
936.0
940.0
940.0
944.0
945.0
949.0
950.0
952.0
950.0
951.0
951.0
951.0
950.0
949.0
951.0
952.0
954.0
955.0
955.0
955.0
952.0
953.0
951.0
953.0
953.0
953.0
956.0
961.0
962.0
963.0
965.0
968.0
964.0
964.0
961.0
960.0
960.0
960.0
961.0
962.0
963.0
965.0
967.0
967.0
967.0
966.0
963.0
965.0
969.0
972.0
979.0
987.0
999.0
1016.0
1041.0
1066.0
1100.0
1136.0
1170.0
1201.0
1231.0
1247.0
1256.0
1251.0
1237.0
1213.0
1173.0
1130.0
1083.0
1040.0
1007.0
987.0
976.0
971.0
969.0
970.0
970.0
968.0
965.0
957.0
954.0
951.0
948.0
945.0
941.0
940.0
939.0
940.0
940.0
940.0
939.0
938.0
936.0
934.0
932.0
929.0
928.0
928.0
926.0
928.0
928.0
930.0
925.0
924.0
922.0
923.0
923.0
920.0
916.0
917.0
919.0
919.0
920.0
921.0
919.0
917.0
917.0
915.0
913.0
912.0
912.0
909.0
912.0
914.0
916.0
916.0
917.0
917.0
913.0
909.0
905.0
903.0
903.0
903.0
904.0
902.0
902.0
903.0
899.0
899.0
895.0
893.0
888.0
886.0
884.0
883.0
882.0
882.0
884.0
882.0
882.0
879.0
878.0
876.0
873.0
874.0
876.0
875.0
879.0
881.0
883.0
888.0
891.0
891.0
893.0
896.0
901.0
902.0
909.0
912.0
917.0
920.0
922.0
927.0
930.0
931.0
933.0
933.0
936.0
935.0
936.0
940.0
943.0
945.0
947.0
949.0
950.0
950.0
949.0
951.0
949.0
950.0
951.0
952.0
954.0
957.0
956.0
960.0
959.0
958.0
960.0
959.0
956.0
956.0
958.0
958.0
960.0
960.0
962.0
963.0
964.0
965.0
964.0
963.0
962.0
960.0
960.0
958.0
961.0
962.0
963.0
965.0
965.0
963.0
961.0
959.0
960.0
956.0
958.0
958.0
959.0
960.0
959.0
961.0
961.0
960.0
961.0
959.0
957.0
955.0
957.0
956.0
957.0
959.0
960.0
960.0
960.0
957.0
956.0
956.0
956.0
954.0
955.0
955.0
957.0
958.0
961.0
963.0
963.0
966.0
963.0
963.0
962.0
961.0
964.0
963.0
965.0
961.0
964.0
967.0
966.0
966.0
961.0
964.0
962.0
963.0
962.0
963.0
964.0
964.0
964.0
964.0
964.0
964.0
963.0
962.0
961.0
960.0
959.0
959.0
960.0
962.0
963.0
962.0
963.0
964.0
960.0
960.0
960.0
959.0
959.0
959.0
960.0
961.0
961.0
963.0
964.0
963.0
962.0
960.0
959.0
959.0
959.0
960.0
959.0
963.0
963.0
966.0
967.0
966.0
966.0
964.0
964.0
964.0
962.0
964.0
967.0
966.0
969.0
968.0
970.0
970.0
968.0
967.0
969.0
969.0
969.0
970.0
971.0
972.0
974.0
976.0
976.0
975.0
974.0
971.0
972.0
970.0
969.0
972.0
970.0
971.0
973.0
973.0
976.0
980.0
980.0
980.0
981.0
982.0
985.0
990.0
996.0
1006.0
1017.0
1030.0
1046.0
1063.0
1082.0
1098.0
1119.0
1136.0
1153.0
1166.0
1173.0
1179.0
1177.0
1171.0
1154.0
1136.0
1114.0
1089.0
1065.0
1043.0
1027.0
1013.0
999.0
991.0
987.0
984.0
979.0
977.0
970.0
967.0
964.0
957.0
956.0
953.0
953.0
951.0
949.0
948.0
949.0
946.0
944.0
938.0
937.0
933.0
931.0
932.0
933.0
931.0
929.0
929.0
928.0
925.0
923.0
921.0
918.0
915.0
915.0
915.0
916.0
914.0
911.0
915.0
913.0
911.0
908.0
906.0
902.0
901.0
900.0
899.0
900.0
901.0
901.0
899.0
898.0
898.0
896.0
894.0
891.0
890.0
890.0
888.0
891.0
891.0
889.0
891.0
890.0
888.0
887.0
882.0
878.0
875.0
875.0
871.0
870.0
869.0
872.0
869.0
868.0
864.0
862.0
857.0
853.0
851.0
850.0
850.0
849.0
848.0
847.0
846.0
846.0
844.0
844.0
841.0
840.0
836.0
840.0
841.0
843.0
844.0
847.0
852.0
858.0
861.0
864.0
868.0
869.0
872.0
877.0
881.0
887.0
892.0
898.0
905.0
906.0
910.0
913.0
916.0
917.0
918.0
921.0
924.0
927.0
929.0
931.0
932.0
933.0
934.0
939.0
938.0
940.0
940.0
940.0
941.0
943.0
945.0
946.0
950.0
948.0
949.0
947.0
946.0
945.0
946.0
945.0
945.0
945.0
946.0
946.0
949.0
948.0
947.0
947.0
947.0
944.0
941.0
943.0
945.0
942.0
943.0
945.0
943.0
943.0
944.0
944.0
941.0
940.0
940.0
937.0
936.0
936.0
940.0
943.0
942.0
942.0
945.0
944.0
945.0
944.0
941.0
941.0
941.0
946.0
945.0
948.0
948.0
950.0
950.0
947.0
947.0
947.0
947.0
946.0
946.0
947.0
949.0
950.0
952.0
954.0
952.0
951.0
950.0
951.0
947.0
948.0
948.0
948.0
950.0
952.0
952.0
953.0
953.0
948.0
948.0
947.0
949.0
948.0
948.0
952.0
952.0
954.0
956.0
957.0
958.0
958.0
960.0
961.0
969.0
980.0
1000.0
1021.0
1049.0
1080.0
1114.0
1146.0
1176.0
1203.0
1220.0
1228.0
1228.0
1220.0
1203.0
1177.0
1140.0
1097.0
1053.0
1010.0
979.0
958.0
945.0
938.0
936.0
932.0
932.0
932.0
926.0
927.0
925.0
923.0
922.0
918.0
914.0
914.0
910.0
907.0
906.0
907.0
907.0
907.0
905.0
904.0
901.0
902.0
899.0
896.0
893.0
887.0
887.0
888.0
888.0
890.0
890.0
888.0
888.0
887.0
886.0
883.0
881.0
877.0
877.0
879.0
879.0
877.0
880.0
879.0
878.0
876.0
875.0
874.0
871.0
871.0
871.0
872.0
872.0
871.0
873.0
871.0
869.0
867.0
863.0
860.0
857.0
853.0
852.0
852.0
852.0
850.0
847.0
847.0
841.0
841.0
835.0
834.0
827.0
825.0
824.0
821.0
819.0
821.0
820.0
820.0
819.0
818.0
818.0
816.0
813.0
814.0
821.0
827.0
831.0
836.0
842.0
847.0
852.0
856.0
859.0
863.0
866.0
872.0
873.0
878.0
883.0
887.0
890.0
894.0
897.0
898.0
899.0
899.0
901.0
904.0
906.0
905.0
906.0
909.0
911.0
911.0
912.0
914.0
912.0
911.0
909.0
910.0
911.0
911.0
912.0
915.0
919.0
916.0
917.0
914.0
913.0
907.0
907.0
907.0
909.0
910.0
913.0
915.0
915.0
913.0
917.0
913.0
911.0
909.0
908.0
905.0
906.0
908.0
912.0
912.0
914.0
913.0
910.0
911.0
909.0
909.0
906.0
907.0
909.0
910.0
911.0
911.0
914.0
915.0
916.0
915.0
914.0
914.0
914.0
914.0
912.0
914.0
914.0
914.0
915.0
914.0
913.0
915.0
913.0
910.0
908.0
908.0
907.0
905.0
910.0
910.0
912.0
911.0
913.0
911.0
910.0
907.0
906.0
906.0
906.0
908.0
908.0
908.0
909.0
907.0
910.0
907.0
907.0
906.0
908.0
906.0
907.0
908.0
908.0
909.0
911.0
911.0
908.0
908.0
908.0
915.0
926.0
946.0
973.0
1008.0
1046.0
1088.0
1135.0
1175.0
1210.0
1236.0
1250.0
1254.0
1247.0
1231.0
1202.0
1161.0
1106.0
1048.0
988.0
943.0
912.0
900.0
899.0
900.0
901.0
903.0
902.0
899.0
898.0
895.0
892.0
892.0
892.0
890.0
886.0
884.0
881.0
879.0
876.0
875.0
876.0
875.0
874.0
872.0
869.0
868.0
867.0
865.0
863.0
863.0
860.0
864.0
864.0
866.0
868.0
866.0
867.0
865.0
864.0
862.0
861.0
860.0
862.0
860.0
861.0
861.0
862.0
864.0
863.0
864.0
862.0
862.0
859.0
860.0
859.0
858.0
857.0
859.0
857.0
854.0
854.0
850.0
846.0
843.0
841.0
839.0
836.0
834.0
832.0
828.0
827.0
824.0
821.0
817.0
812.0
807.0
804.0
798.0
794.0
792.0
789.0
788.0
787.0
788.0
786.0
780.0
779.0
776.0
773.0
774.0
776.0
779.0
784.0
787.0
795.0
802.0
807.0
813.0
820.0
826.0
835.0
840.0
845.0
850.0
858.0
863.0
867.0
873.0
879.0
883.0
886.0
888.0
890.0
892.0
894.0
898.0
901.0
900.0
902.0
902.0
904.0
904.0
901.0
900.0
898.0
895.0
898.0
901.0
900.0
902.0
905.0
903.0
900.0
899.0
896.0
893.0
893.0
896.0
895.0
897.0
897.0
897.0
900.0
897.0
897.0
897.0
895.0
896.0
895.0
896.0
896.0
899.0
900.0
905.0
906.0
906.0
908.0
907.0
905.0
904.0
904.0
902.0
902.0
904.0
903.0
905.0
906.0
907.0
908.0
908.0
910.0
908.0
906.0
908.0
910.0
911.0
910.0
915.0
912.0
911.0
915.0
914.0
912.0
911.0
908.0
907.0
906.0
905.0
908.0
910.0
907.0
908.0
906.0
907.0
905.0
905.0
902.0
901.0
903.0
905.0
907.0
907.0
907.0
908.0
906.0
905.0
904.0
901.0
902.0
901.0
897.0
898.0
897.0
899.0
901.0
899.0
901.0
899.0
896.0
894.0
891.0
890.0
888.0
888.0
889.0
890.0
891.0
893.0
892.0
893.0
896.0
895.0
893.0
894.0
895.0
899.0
902.0
905.0
907.0
908.0
908.0
908.0
909.0
907.0
905.0
905.0
905.0
908.0
908.0
911.0
910.0
910.0
909.0
907.0
904.0
902.0
902.0
902.0
899.0
901.0
911.0
930.0
962.0
994.0
1043.0
1097.0
1150.0
1198.0
1239.0
1266.0
1276.0
1276.0
1262.0
1237.0
1192.0
1124.0
1041.0
961.0
906.0
878.0
871.0
879.0
890.0
899.0
902.0
905.0
902.0
896.0
891.0
888.0
885.0
883.0
881.0
881.0
880.0
880.0
878.0
878.0
878.0
877.0
875.0
876.0
872.0
871.0
869.0
866.0
868.0
865.0
864.0
865.0
866.0
865.0
858.0
856.0
854.0
855.0
850.0
850.0
849.0
848.0
852.0
852.0
849.0
849.0
846.0
845.0
844.0
843.0
840.0
840.0
838.0
837.0
837.0
837.0
837.0
836.0
831.0
830.0
831.0
828.0
826.0
826.0
821.0
820.0
821.0
821.0
822.0
820.0
820.0
816.0
809.0
807.0
805.0
803.0
800.0
801.0
796.0
798.0
797.0
798.0
793.0
791.0
787.0
784.0
779.0
776.0
776.0
777.0
779.0
782.0
786.0
791.0
796.0
799.0
802.0
807.0
811.0
818.0
825.0
832.0
840.0
847.0
853.0
854.0
859.0
864.0
869.0
873.0
872.0
875.0
876.0
879.0
882.0
883.0
885.0
887.0
885.0
884.0
884.0
883.0
883.0
883.0
883.0
885.0
889.0
891.0
892.0
891.0
894.0
891.0
889.0
888.0
890.0
889.0
888.0
891.0
892.0
894.0
894.0
895.0
896.0
896.0
896.0
894.0
893.0
892.0
893.0
893.0
894.0
897.0
898.0
898.0
897.0
898.0
896.0
895.0
896.0
893.0
895.0
897.0
897.0
896.0
899.0
902.0
902.0
901.0
901.0
902.0
900.0
898.0
902.0
901.0
903.0
903.0
905.0
906.0
906.0
905.0
902.0
899.0
899.0
897.0
896.0
897.0
896.0
897.0
900.0
901.0
900.0
898.0
896.0
895.0
892.0
893.0
893.0
896.0
895.0
897.0
897.0
899.0
895.0
896.0
893.0
892.0
892.0
891.0
892.0
890.0
891.0
891.0
894.0
892.0
888.0
886.0
885.0
890.0
890.0
889.0
890.0
892.0
892.0
892.0
894.0
897.0
895.0
895.0
896.0
905.0
923.0
948.0
978.0
1020.0
1065.0
1112.0
1158.0
1199.0
1229.0
1243.0
1246.0
1238.0
1218.0
1185.0
1139.0
1082.0
1018.0
959.0
921.0
900.0
891.0
890.0
892.0
894.0
892.0
889.0
886.0
884.0
882.0
879.0
880.0
879.0
876.0
876.0
873.0
868.0
865.0
863.0
861.0
858.0
857.0
857.0
857.0
856.0
852.0
850.0
848.0
845.0
843.0
842.0
842.0
841.0
842.0
841.0
842.0
845.0
844.0
844.0
843.0
838.0
837.0
836.0
837.0
838.0
837.0
838.0
839.0
838.0
840.0
838.0
836.0
834.0
833.0
832.0
829.0
830.0
832.0
832.0
833.0
832.0
830.0
829.0
826.0
824.0
821.0
818.0
817.0
816.0
815.0
813.0
813.0
811.0
809.0
807.0
802.0
799.0
796.0
793.0
791.0
789.0
789.0
785.0
786.0
784.0
781.0
779.0
775.0
773.0
772.0
772.0
773.0
775.0
780.0
782.0
786.0
789.0
794.0
798.0
801.0
803.0
809.0
812.0
819.0
821.0
827.0
835.0
841.0
844.0
843.0
850.0
850.0
852.0
853.0
855.0
856.0
861.0
863.0
867.0
868.0
873.0
870.0
871.0
872.0
874.0
873.0
876.0
873.0
876.0
879.0
882.0
882.0
884.0
883.0
882.0
881.0
879.0
877.0
879.0
880.0
881.0
880.0
882.0
884.0
883.0
882.0
882.0
879.0
877.0
876.0
874.0
875.0
877.0
878.0
879.0
882.0
881.0
882.0
882.0
882.0
882.0
879.0
879.0
880.0
884.0
886.0
890.0
889.0
892.0
891.0
889.0
888.0
884.0
883.0
883.0
883.0
881.0
882.0
884.0
884.0
885.0
884.0
880.0
879.0
878.0
880.0
877.0
876.0
875.0
878.0
878.0
881.0
879.0
876.0
877.0
875.0
874.0
871.0
871.0
870.0
867.0
867.0
867.0
869.0
870.0
870.0
867.0
867.0
867.0
864.0
862.0
866.0
866.0
868.0
870.0
871.0
871.0
872.0
873.0
874.0
873.0
872.0
871.0
873.0
874.0
873.0
878.0
881.0
883.0
883.0
884.0
882.0
882.0
883.0
884.0
884.0
885.0
886.0
888.0
890.0
890.0
887.0
888.0
885.0
883.0
880.0
879.0
877.0
877.0
879.0
880.0
882.0
881.0
879.0
879.0
879.0
878.0
876.0
878.0
879.0
879.0
880.0
880.0
882.0
885.0
891.0
904.0
918.0
940.0
969.0
1006.0
1048.0
1095.0
1137.0
1178.0
1207.0
1224.0
1230.0
1220.0
1197.0
1161.0
1112.0
1053.0
989.0
937.0
902.0
882.0
874.0
873.0
878.0
877.0
875.0
872.0
867.0
867.0
864.0
865.0
865.0
866.0
867.0
866.0
867.0
863.0
863.0
857.0
853.0
850.0
850.0
846.0
848.0
848.0
847.0
846.0
844.0
838.0
835.0
837.0
832.0
830.0
829.0
828.0
829.0
828.0
827.0
827.0
826.0
823.0
820.0
821.0
819.0
818.0
817.0
816.0
814.0
814.0
814.0
811.0
811.0
812.0
811.0
809.0
808.0
807.0
803.0
803.0
805.0
805.0
804.0
802.0
801.0
796.0
794.0
788.0
785.0
781.0
782.0
781.0
781.0
782.0
777.0
774.0
773.0
772.0
769.0
766.0
764.0
762.0
758.0
758.0
758.0
759.0
758.0
760.0
760.0
763.0
762.0
766.0
767.0
768.0
774.0
779.0
785.0
790.0
796.0
800.0
807.0
810.0
813.0
815.0
818.0
823.0
827.0
831.0
836.0
837.0
843.0
847.0
849.0
851.0
852.0
852.0
851.0
853.0
852.0
858.0
859.0
861.0
865.0
866.0
866.0
867.0
867.0
866.0
865.0
864.0
867.0
866.0
869.0
869.0
871.0
873.0
874.0
873.0
872.0
872.0
871.0
870.0
870.0
872.0
874.0
876.0
878.0
876.0
875.0
877.0
874.0
874.0
872.0
871.0
869.0
868.0
870.0
871.0
870.0
871.0
870.0
868.0
863.0
863.0
860.0
860.0
860.0
863.0
865.0
870.0
870.0
871.0
871.0
870.0
870.0
867.0
864.0
865.0
865.0
864.0
869.0
869.0
870.0
870.0
871.0
871.0
872.0
870.0
869.0
867.0
867.0
869.0
869.0
873.0
873.0
872.0
872.0
873.0
872.0
874.0
872.0
871.0
872.0
873.0
874.0
875.0
876.0
878.0
874.0
877.0
874.0
873.0
870.0
869.0
870.0
869.0
872.0
871.0
870.0
873.0
871.0
868.0
869.0
867.0
866.0
866.0
866.0
867.0
866.0
869.0
870.0
870.0
869.0
867.0
866.0
864.0
863.0
860.0
862.0
862.0
864.0
866.0
868.0
872.0
869.0
871.0
872.0
869.0
868.0
869.0
870.0
870.0
871.0
871.0
874.0
877.0
878.0
876.0
876.0
874.0
873.0
872.0
877.0
873.0
874.0
878.0
875.0
876.0
872.0
876.0
873.0
873.0
870.0
867.0
868.0
868.0
865.0
868.0
867.0
867.0
869.0
866.0
866.0
866.0
865.0
869.0
870.0
872.0
874.0
875.0
875.0
875.0
874.0
875.0
877.0
876.0
874.0
875.0
876.0
878.0
882.0
881.0
881.0
882.0
882.0
882.0
883.0
882.0
880.0
878.0
881.0
882.0
885.0
888.0
889.0
890.0
890.0
891.0
889.0
884.0
886.0
897.0
914.0
941.0
979.0
1026.0
1076.0
1133.0
1181.0
1217.0
1244.0
1256.0
1248.0
1229.0
1193.0
1138.0
1065.0
991.0
928.0
885.0
865.0
858.0
862.0
865.0
867.0
870.0
868.0
864.0
861.0
858.0
859.0
859.0
857.0
857.0
854.0
851.0
849.0
847.0
847.0
847.0
849.0
849.0
851.0
853.0
851.0
850.0
848.0
847.0
845.0
846.0
844.0
842.0
841.0
842.0
843.0
841.0
841.0
840.0
835.0
834.0
831.0
830.0
827.0
828.0
826.0
827.0
827.0
827.0
825.0
823.0
820.0
819.0
819.0
815.0
815.0
814.0
814.0
813.0
814.0
814.0
811.0
807.0
806.0
806.0
802.0
801.0
799.0
796.0
796.0
794.0
794.0
794.0
788.0
786.0
782.0
782.0
775.0
773.0
772.0
772.0
769.0
769.0
767.0
763.0
764.0
764.0
764.0
764.0
767.0
767.0
772.0
776.0
781.0
788.0
795.0
799.0
804.0
812.0
814.0
818.0
822.0
828.0
832.0
836.0
841.0
846.0
851.0
853.0
856.0
857.0
858.0
860.0
858.0
860.0
861.0
860.0
865.0
866.0
869.0
871.0
870.0
870.0
869.0
866.0
866.0
867.0
866.0
865.0
867.0
869.0
874.0
874.0
873.0
874.0
874.0
872.0
873.0
873.0
873.0
874.0
875.0
877.0
879.0
883.0
885.0
885.0
885.0
884.0
886.0
886.0
886.0
887.0
890.0
892.0
896.0
898.0
896.0
897.0
898.0
898.0
897.0
897.0
895.0
898.0
900.0
900.0
902.0
903.0
904.0
901.0
900.0
897.0
896.0
894.0
893.0
896.0
895.0
897.0
897.0
897.0
897.0
894.0
894.0
890.0
888.0
887.0
888.0
887.0
888.0
888.0
889.0
890.0
887.0
888.0
888.0
885.0
882.0
881.0
881.0
882.0
883.0
884.0
884.0
885.0
887.0
886.0
884.0
885.0
881.0
879.0
879.0
878.0
878.0
881.0
883.0
887.0
888.0
887.0
888.0
890.0
890.0
888.0
891.0
892.0
891.0
892.0
895.0
894.0
892.0
896.0
894.0
891.0
892.0
893.0
892.0
893.0
897.0
897.0
899.0
902.0
900.0
900.0
899.0
897.0
894.0
892.0
893.0
894.0
893.0
898.0
908.0
921.0
943.0
973.0
1006.0
1048.0
1092.0
1136.0
1175.0
1203.0
1223.0
1227.0
1217.0
1192.0
1151.0
1094.0
1029.0
966.0
918.0
889.0
874.0
874.0
876.0
880.0
882.0
882.0
881.0
878.0
874.0
871.0
870.0
869.0
870.0
871.0
874.0
874.0
875.0
877.0
874.0
872.0
871.0
868.0
863.0
862.0
861.0
859.0
858.0
858.0
861.0
858.0
858.0
855.0
854.0
851.0
847.0
848.0
847.0
845.0
846.0
847.0
846.0
847.0
845.0
842.0
841.0
839.0
836.0
