# Simple Text Format
# Sampling Rate (Hz):= 360.00
# Resolution:= 12
# Labels:= ECG
870.0
867.0
864.0
863.0
864.0
866.0
867.0
870.0
871.0
873.0
873.0
875.0
872.0
871.0
872.0
872.0
875.0
878.0
881.0
881.0
886.0
887.0
888.0
887.0
884.0
884.0
883.0
886.0
888.0
888.0
889.0
891.0
890.0
890.0
889.0
886.0
887.0
884.0
886.0
882.0
884.0
887.0
891.0
890.0
889.0
888.0
886.0
882.0
881.0
879.0
880.0
880.0
879.0
878.0
878.0
881.0
880.0
880.0
880.0
879.0
879.0
879.0
879.0
878.0
876.0
878.0
879.0
881.0
884.0
882.0
883.0
885.0
886.0
884.0
886.0
884.0
884.0
886.0
888.0
894.0
893.0
894.0
891.0
890.0
889.0
886.0
888.0
887.0
887.0
888.0
890.0
893.0
893.0
893.0
890.0
890.0
890.0
888.0
890.0
890.0
887.0
888.0
889.0
889.0
886.0
885.0
882.0
880.0
879.0
877.0
880.0
880.0
881.0
884.0
886.0
886.0
882.0
879.0
877.0
875.0
878.0
875.0
879.0
883.0
886.0
889.0
888.0
889.0
890.0
893.0
890.0
889.0
890.0
889.0
890.0
890.0
892.0
894.0
894.0
896.0
896.0
898.0
898.0
900.0
898.0
897.0
898.0
896.0
897.0
898.0
898.0
897.0
888.0
883.0
877.0
880.0
889.0
914.0
950.0
995.0
1047.0
1106.0
1169.0
1232.0
1285.0
1323.0
1345.0
1350.0
1341.0
1319.0
1282.0
1220.0
1129.0
1031.0
943.0
886.0
860.0
856.0
868.0
881.0
890.0
892.0
888.0
881.0
875.0
871.0
871.0
870.0
871.0
870.0
869.0
865.0
862.0
859.0
856.0
854.0
854.0
854.0
855.0
857.0
855.0
854.0
854.0
850.0
848.0
845.0
845.0
842.0
842.0
840.0
841.0
842.0
842.0
843.0
842.0
844.0
843.0
841.0
841.0
840.0
841.0
841.0
841.0
844.0
844.0
841.0
842.0
839.0
840.0
838.0
838.0
838.0
840.0
842.0
842.0
841.0
842.0
843.0
838.0
833.0
832.0
827.0
825.0
829.0
827.0
824.0
822.0
820.0
819.0
815.0
810.0
805.0
800.0
799.0
795.0
791.0
789.0
788.0
787.0
786.0
781.0
780.0
776.0
775.0
770.0
771.0
771.0
772.0
773.0
774.0
779.0
781.0
787.0
790.0
793.0
793.0
800.0
805.0
812.0
818.0
824.0
830.0
839.0
846.0
851.0
857.0
863.0
866.0
868.0
873.0
877.0
881.0
884.0
888.0
893.0
898.0
901.0
904.0
904.0
908.0
907.0
907.0
907.0
906.0
905.0
906.0
906.0
906.0
906.0
905.0
903.0
902.0
902.0
902.0
904.0
906.0
906.0
905.0
904.0
907.0
908.0
908.0
908.0
906.0
905.0
903.0
901.0
901.0
899.0
898.0
899.0
903.0
902.0
903.0
904.0
903.0
901.0
898.0
899.0
899.0
904.0
908.0
910.0
911.0
911.0
907.0
908.0
907.0
908.0
906.0
905.0
905.0
905.0
903.0
907.0
910.0
911.0
909.0
912.0
910.0
905.0
906.0
908.0
906.0
906.0
906.0
904.0
904.0
902.0
901.0
902.0
900.0
898.0
898.0
897.0
897.0
900.0
903.0
905.0
909.0
909.0
909.0
908.0
908.0
909.0
909.0
909.0
910.0
910.0
911.0
910.0
912.0
911.0
911.0
911.0
907.0
905.0
903.0
900.0
898.0
896.0
896.0
896.0
905.0
923.0
950.0
992.0
1043.0
1101.0
1162.0
1227.0
1287.0
1327.0
1351.0
1358.0
1353.0
1333.0
1303.0
1248.0
1166.0
1068.0
966.0
895.0
858.0
855.0
863.0
880.0
894.0
898.0
900.0
896.0
892.0
883.0
879.0
876.0
877.0
877.0
879.0
881.0
882.0
880.0
875.0
878.0
876.0
875.0
876.0
875.0
875.0
875.0
875.0
876.0
878.0
877.0
877.0
874.0
872.0
870.0
868.0
863.0
861.0
860.0
864.0
866.0
868.0
866.0
865.0
862.0
861.0
857.0
854.0
853.0
853.0
851.0
853.0
853.0
853.0
852.0
851.0
848.0
846.0
842.0
841.0
839.0
840.0
839.0
841.0
839.0
838.0
839.0
835.0
833.0
831.0
829.0
825.0
821.0
817.0
817.0
816.0
812.0
812.0
815.0
812.0
813.0
804.0
804.0
801.0
799.0
802.0
799.0
803.0
803.0
804.0
803.0
800.0
801.0
799.0
800.0
802.0
803.0
810.0
814.0
818.0
825.0
834.0
841.0
844.0
847.0
852.0
854.0
859.0
863.0
869.0
873.0
877.0
881.0
883.0
883.0
883.0
887.0
887.0
887.0
888.0
890.0
894.0
897.0
899.0
900.0
904.0
906.0
903.0
903.0
900.0
901.0
899.0
899.0
898.0
898.0
901.0
899.0
903.0
901.0
904.0
903.0
901.0
901.0
900.0
901.0
899.0
899.0
901.0
901.0
902.0
903.0
902.0
902.0
900.0
900.0
895.0
895.0
896.0
901.0
903.0
905.0
904.0
903.0
906.0
905.0
904.0
904.0
905.0
900.0
901.0
901.0
902.0
903.0
905.0
906.0
907.0
908.0
908.0
908.0
910.0
913.0
915.0
916.0
920.0
921.0
922.0
921.0
921.0
918.0
915.0
912.0
912.0
910.0
911.0
912.0
913.0
913.0
916.0
915.0
914.0
914.0
912.0
910.0
909.0
909.0
907.0
909.0
912.0
911.0
913.0
911.0
911.0
908.0
907.0
908.0
907.0
905.0
910.0
912.0
913.0
913.0
914.0
912.0
907.0
902.0
899.0
907.0
925.0
957.0
1003.0
1056.0
1121.0
1188.0
1253.0
1306.0
1343.0
1360.0
1359.0
1348.0
1313.0
1261.0
1178.0
1071.0
970.0
897.0
864.0
858.0
870.0
885.0
898.0
901.0
902.0
899.0
891.0
884.0
884.0
885.0
885.0
886.0
886.0
882.0
882.0
881.0
877.0
873.0
872.0
870.0
872.0
872.0
872.0
872.0
871.0
870.0
868.0
867.0
866.0
864.0
864.0
864.0
863.0
861.0
863.0
863.0
861.0
862.0
860.0
859.0
858.0
853.0
854.0
852.0
855.0
857.0
859.0
858.0
857.0
856.0
851.0
850.0
847.0
844.0
843.0
844.0
841.0
839.0
837.0
840.0
838.0
835.0
833.0
830.0
827.0
823.0
822.0
822.0
821.0
821.0
819.0
817.0
812.0
808.0
802.0
801.0
798.0
793.0
789.0
790.0
788.0
786.0
786.0
787.0
785.0
786.0
787.0
788.0
790.0
791.0
795.0
801.0
807.0
814.0
822.0
830.0
836.0
844.0
848.0
855.0
859.0
861.0
864.0
870.0
875.0
879.0
882.0
885.0
887.0
891.0
889.0
890.0
891.0
892.0
892.0
895.0
896.0
894.0
897.0
899.0
898.0
898.0
899.0
901.0
900.0
899.0
901.0
905.0
907.0
908.0
907.0
911.0
908.0
908.0
905.0
906.0
902.0
899.0
903.0
903.0
905.0
907.0
909.0
911.0
911.0
911.0
909.0
909.0
909.0
909.0
908.0
907.0
907.0
907.0
910.0
909.0
910.0
907.0
906.0
907.0
906.0
905.0
907.0
908.0
905.0
906.0
908.0
908.0
908.0
908.0
907.0
906.0
908.0
907.0
908.0
909.0
909.0
912.0
913.0
914.0
912.0
914.0
913.0
912.0
909.0
910.0
911.0
911.0
914.0
911.0
914.0
912.0
911.0
907.0
905.0
900.0
899.0
901.0
901.0
903.0
904.0
907.0
908.0
910.0
909.0
908.0
907.0
906.0
901.0
898.0
901.0
899.0
900.0
899.0
902.0
899.0
903.0
903.0
903.0
905.0
904.0
903.0
901.0
905.0
907.0
908.0
912.0
913.0
913.0
912.0
909.0
906.0
907.0
908.0
908.0
911.0
913.0
910.0
909.0
910.0
906.0
903.0
902.0
902.0
900.0
899.0
899.0
902.0
902.0
902.0
904.0
905.0
904.0
905.0
900.0
902.0
899.0
895.0
895.0
894.0
894.0
893.0
896.0
895.0
896.0
897.0
898.0
899.0
897.0
898.0
900.0
899.0
899.0
903.0
906.0
907.0
910.0
912.0
913.0
912.0
911.0
910.0
913.0
914.0
914.0
914.0
915.0
915.0
915.0
912.0
912.0
911.0
912.0
911.0
912.0
914.0
914.0
912.0
913.0
916.0
916.0
911.0
910.0
905.0
898.0
897.0
893.0
895.0
904.0
928.0
966.0
1011.0
1063.0
1125.0
1191.0
1258.0
1310.0
1348.0
1368.0
1373.0
1362.0
1340.0
1296.0
1228.0
1131.0
1032.0
948.0
896.0
874.0
876.0
888.0
899.0
904.0
908.0
908.0
908.0
901.0
898.0
895.0
892.0
892.0
890.0
888.0
887.0
886.0
885.0
883.0
882.0
881.0
879.0
877.0
875.0
872.0
869.0
867.0
868.0
869.0
868.0
868.0
868.0
865.0
864.0
863.0
859.0
858.0
856.0
854.0
854.0
853.0
854.0
854.0
855.0
851.0
850.0
848.0
847.0
844.0
843.0
842.0
844.0
843.0
843.0
842.0
843.0
842.0
841.0
841.0
840.0
840.0
840.0
837.0
836.0
835.0
834.0
834.0
832.0
827.0
824.0
822.0
817.0
811.0
805.0
805.0
801.0
799.0
796.0
793.0
793.0
790.0
788.0
783.0
779.0
775.0
774.0
773.0
769.0
770.0
769.0
772.0
776.0
778.0
783.0
785.0
789.0
794.0
799.0
804.0
809.0
817.0
821.0
828.0
836.0
841.0
845.0
852.0
855.0
860.0
867.0
869.0
876.0
884.0
888.0
893.0
896.0
898.0
897.0
899.0
905.0
906.0
908.0
909.0
911.0
914.0
911.0
917.0
915.0
916.0
914.0
914.0
913.0
910.0
910.0
910.0
910.0
912.0
913.0
914.0
915.0
914.0
916.0
913.0
912.0
912.0
911.0
909.0
910.0
910.0
912.0
912.0
915.0
915.0
918.0
916.0
915.0
916.0
916.0
918.0
917.0
919.0
917.0
917.0
915.0
913.0
909.0
905.0
908.0
903.0
904.0
903.0
905.0
905.0
910.0
913.0
915.0
920.0
918.0
920.0
917.0
916.0
915.0
914.0
913.0
914.0
914.0
915.0
914.0
913.0
913.0
909.0
908.0
906.0
909.0
910.0
907.0
909.0
909.0
910.0
910.0
910.0
907.0
907.0
908.0
906.0
904.0
904.0
906.0
908.0
909.0
908.0
913.0
914.0
914.0
912.0
911.0
910.0
905.0
905.0
905.0
912.0
914.0
913.0
917.0
916.0
916.0
917.0
917.0
918.0
918.0
923.0
925.0
928.0
927.0
928.0
928.0
926.0
926.0
923.0
924.0
922.0
921.0
924.0
921.0
925.0
925.0
927.0
926.0
923.0
926.0
925.0
933.0
952.0
978.0
1016.0
1065.0
1120.0
1174.0
1232.0
1288.0
1326.0
1349.0
1356.0
1351.0
1330.0
1296.0
1242.0
1168.0
1077.0
991.0
925.0
892.0
883.0
889.0
898.0
906.0
910.0
912.0
909.0
902.0
899.0
896.0
897.0
896.0
893.0
892.0
889.0
885.0
882.0
882.0
882.0
881.0
882.0
882.0
882.0
882.0
882.0
885.0
882.0
882.0
878.0
876.0
877.0
873.0
875.0
878.0
882.0
887.0
887.0
886.0
882.0
880.0
880.0
879.0
880.0
880.0
881.0
882.0
880.0
878.0
875.0
874.0
870.0
869.0
866.0
861.0
861.0
861.0
860.0
860.0
859.0
858.0
856.0
854.0
850.0
848.0
842.0
839.0
840.0
838.0
835.0
833.0
832.0
831.0
827.0
826.0
820.0
817.0
816.0
813.0
812.0
805.0
807.0
806.0
806.0
804.0
802.0
802.0
802.0
802.0
802.0
802.0
810.0
814.0
821.0
830.0
838.0
847.0
854.0
862.0
870.0
876.0
878.0
887.0
892.0
898.0
905.0
910.0
916.0
916.0
919.0
924.0
923.0
923.0
921.0
922.0
922.0
921.0
925.0
925.0
926.0
927.0
927.0
926.0
925.0
925.0
922.0
920.0
921.0
923.0
921.0
921.0
921.0
921.0
920.0
923.0
922.0
923.0
921.0
920.0
922.0
924.0
924.0
923.0
924.0
925.0
926.0
927.0
924.0
925.0
925.0
924.0
924.0
924.0
924.0
927.0
929.0
930.0
934.0
935.0
935.0
940.0
938.0
938.0
940.0
942.0
942.0
943.0
946.0
947.0
947.0
945.0
943.0
941.0
941.0
940.0
939.0
939.0
941.0
940.0
940.0
941.0
940.0
943.0
938.0
935.0
931.0
930.0
927.0
928.0
930.0
931.0
932.0
935.0
934.0
934.0
931.0
932.0
929.0
929.0
930.0
929.0
929.0
932.0
931.0
934.0
937.0
934.0
934.0
931.0
933.0
933.0
931.0
932.0
936.0
939.0
939.0
943.0
943.0
945.0
945.0
945.0
944.0
945.0
944.0
945.0
945.0
947.0
949.0
950.0
949.0
952.0
951.0
951.0
950.0
948.0
949.0
949.0
953.0
950.0
953.0
951.0
952.0
951.0
945.0
942.0
935.0
933.0
939.0
957.0
995.0
1039.0
1094.0
1156.0
1218.0
1280.0
1330.0
1360.0
1376.0
1376.0
1363.0
1336.0
1289.0
1214.0
1119.0
1022.0
951.0
913.0
899.0
906.0
917.0
928.0
934.0
939.0
938.0
936.0
932.0
932.0
929.0
932.0
930.0
927.0
925.0
923.0
924.0
922.0
923.0
924.0
922.0
923.0
920.0
919.0
915.0
914.0
912.0
911.0
910.0
909.0
908.0
909.0
911.0
911.0
910.0
908.0
906.0
903.0
898.0
898.0
900.0
899.0
902.0
904.0
907.0
908.0
906.0
905.0
903.0
900.0
896.0
893.0
889.0
889.0
889.0
888.0
891.0
889.0
889.0
887.0
884.0
881.0
876.0
874.0
873.0
869.0
871.0
871.0
871.0
871.0
871.0
869.0
866.0
863.0
858.0
856.0
854.0
853.0
852.0
853.0
851.0
848.0
845.0
846.0
840.0
838.0
838.0
830.0
832.0
830.0
834.0
837.0
843.0
848.0
850.0
857.0
861.0
866.0
870.0
874.0
878.0
884.0
889.0
895.0
901.0
905.0
912.0
916.0
918.0
923.0
926.0
927.0
929.0
934.0
938.0
941.0
946.0
947.0
947.0
949.0
949.0
947.0
947.0
945.0
944.0
943.0
944.0
946.0
950.0
951.0
952.0
954.0
955.0
955.0
954.0
953.0
957.0
957.0
957.0
959.0
962.0
964.0
963.0
961.0
959.0
960.0
959.0
957.0
957.0
961.0
959.0
960.0
961.0
964.0
962.0
960.0
956.0
955.0
950.0
952.0
949.0
949.0
952.0
951.0
953.0
956.0
953.0
954.0
953.0
951.0
951.0
947.0
950.0
948.0
952.0
952.0
954.0
954.0
955.0
955.0
952.0
949.0
945.0
943.0
942.0
937.0
939.0
940.0
940.0
944.0
945.0
948.0
951.0
954.0
955.0
956.0
959.0
959.0
962.0
960.0
961.0
965.0
963.0
962.0
960.0
960.0
958.0
958.0
957.0
957.0
958.0
958.0
958.0
961.0
960.0
957.0
955.0
953.0
953.0
950.0
947.0
945.0
946.0
948.0
947.0
948.0
946.0
946.0
945.0
945.0
944.0
943.0
945.0
945.0
944.0
945.0
945.0
942.0
941.0
941.0
940.0
941.0
941.0
940.0
938.0
939.0
942.0
941.0
942.0
944.0
944.0
944.0
944.0
942.0
941.0
940.0
943.0
942.0
945.0
949.0
953.0
960.0
958.0
960.0
960.0
959.0
960.0
956.0
960.0
960.0
964.0
963.0
966.0
967.0
968.0
964.0
959.0
952.0
945.0
938.0
938.0
945.0
964.0
995.0
1036.0
1082.0
1139.0
1197.0
1258.0
1314.0
1351.0
1370.0
1376.0
1368.0
1348.0
1310.0
1249.0
1162.0
1062.0
977.0
922.0
901.0
897.0
903.0
914.0
918.0
920.0
920.0
920.0
918.0
916.0
915.0
916.0
917.0
919.0
919.0
921.0
918.0
918.0
923.0
924.0
921.0
923.0
925.0
922.0
921.0
918.0
919.0
916.0
916.0
916.0
914.0
914.0
917.0
921.0
920.0
919.0
917.0
914.0
911.0
907.0
907.0
909.0
909.0
908.0
910.0
907.0
903.0
902.0
900.0
896.0
895.0
895.0
893.0
893.0
892.0
892.0
890.0
887.0
885.0
881.0
878.0
874.0
870.0
868.0
866.0
864.0
864.0
858.0
860.0
855.0
851.0
852.0
848.0
846.0
844.0
844.0
842.0
841.0
841.0
840.0
838.0
837.0
834.0
831.0
827.0
824.0
821.0
820.0
818.0
817.0
818.0
819.0
819.0
819.0
823.0
825.0
826.0
829.0
833.0
839.0
843.0
853.0
860.0
868.0
874.0
879.0
883.0
885.0
890.0
891.0
893.0
896.0
900.0
906.0
907.0
912.0
915.0
918.0
916.0
916.0
920.0
919.0
920.0
921.0
919.0
921.0
923.0
925.0
923.0
924.0
923.0
919.0
920.0
922.0
921.0
923.0
927.0
931.0
931.0
933.0
933.0
937.0
936.0
939.0
940.0
941.0
940.0
942.0
940.0
943.0
945.0
948.0
946.0
947.0
947.0
948.0
946.0
944.0
942.0
943.0
944.0
945.0
944.0
946.0
946.0
945.0
944.0
942.0
940.0
939.0
937.0
936.0
938.0
937.0
939.0
940.0
942.0
940.0
939.0
940.0
937.0
934.0
933.0
931.0
931.0
928.0
926.0
928.0
927.0
927.0
928.0
926.0
924.0
923.0
921.0
923.0
919.0
923.0
923.0
925.0
926.0
929.0
933.0
933.0
935.0
933.0
934.0
934.0
934.0
935.0
938.0
937.0
938.0
938.0
938.0
936.0
934.0
934.0
931.0
931.0
931.0
932.0
932.0
933.0
932.0
930.0
928.0
930.0
930.0
924.0
923.0
924.0
927.0
926.0
926.0
927.0
926.0
922.0
919.0
917.0
912.0
912.0
909.0
909.0
911.0
912.0
914.0
916.0
917.0
919.0
917.0
917.0
919.0
921.0
919.0
921.0
920.0
922.0
926.0
927.0
931.0
932.0
933.0
933.0
932.0
931.0
930.0
928.0
930.0
931.0
934.0
936.0
938.0
938.0
939.0
939.0
936.0
934.0
936.0
936.0
936.0
934.0
932.0
934.0
935.0
934.0
931.0
930.0
927.0
924.0
921.0
923.0
922.0
918.0
917.0
917.0
918.0
917.0
915.0
914.0
911.0
907.0
907.0
905.0
904.0
903.0
907.0
908.0
910.0
909.0
911.0
909.0
910.0
911.0
911.0
910.0
914.0
913.0
915.0
917.0
920.0
921.0
922.0
923.0
921.0
917.0
915.0
918.0
918.0
918.0
916.0
914.0
915.0
924.0
944.0
977.0
1018.0
1065.0
1118.0
1177.0
1236.0
1287.0
1326.0
1350.0
1358.0
1352.0
1332.0
1298.0
1238.0
1152.0
1050.0
960.0
905.0
879.0
880.0
891.0
904.0
913.0
914.0
907.0
899.0
895.0
890.0
886.0
886.0
887.0
887.0
889.0
887.0
888.0
886.0
887.0
885.0
882.0
880.0
880.0
878.0
880.0
881.0
883.0
881.0
882.0
877.0
874.0
870.0
868.0
868.0
869.0
866.0
868.0
869.0
872.0
872.0
874.0
874.0
871.0
870.0
869.0
868.0
864.0
865.0
865.0
867.0
868.0
868.0
868.0
867.0
864.0
861.0
859.0
857.0
857.0
856.0
856.0
856.0
853.0
855.0
849.0
845.0
842.0
838.0
832.0
829.0
825.0
822.0
821.0
820.0
817.0
818.0
815.0
814.0
810.0
806.0
802.0
799.0
794.0
791.0
791.0
791.0
791.0
790.0
790.0
792.0
791.0
789.0
791.0
794.0
796.0
802.0
808.0
814.0
821.0
827.0
833.0
839.0
845.0
850.0
854.0
857.0
867.0
874.0
877.0
884.0
889.0
894.0
896.0
899.0
902.0
903.0
903.0
904.0
905.0
907.0
909.0
912.0
912.0
915.0
915.0
917.0
916.0
917.0
915.0
915.0
916.0
915.0
915.0
916.0
917.0
914.0
914.0
914.0
912.0
912.0
913.0
915.0
914.0
916.0
918.0
918.0
920.0
920.0
918.0
916.0
916.0
914.0
911.0
911.0
909.0
911.0
909.0
910.0
912.0
913.0
915.0
913.0
911.0
911.0
908.0
910.0
911.0
911.0
914.0
918.0
919.0
921.0
921.0
920.0
915.0
916.0
913.0
912.0
914.0
915.0
915.0
920.0
920.0
922.0
925.0
923.0
924.0
922.0
920.0
920.0
920.0
921.0
917.0
915.0
914.0
915.0
914.0
913.0
913.0
910.0
912.0
910.0
910.0
910.0
912.0
912.0
912.0
910.0
911.0
909.0
908.0
904.0
906.0
904.0
903.0
903.0
903.0
905.0
903.0
903.0
902.0
902.0
898.0
895.0
895.0
896.0
898.0
897.0
900.0
902.0
906.0
908.0
912.0
913.0
913.0
912.0
910.0
911.0
913.0
913.0
915.0
919.0
919.0
925.0
922.0
924.0
925.0
922.0
924.0
922.0
923.0
923.0
922.0
924.0
924.0
923.0
922.0
922.0
921.0
919.0
919.0
917.0
915.0
914.0
914.0
912.0
912.0
914.0
913.0
910.0
910.0
908.0
906.0
904.0
901.0
902.0
901.0
902.0
902.0
901.0
903.0
903.0
903.0
902.0
902.0
902.0
902.0
905.0
905.0
910.0
909.0
912.0
913.0
915.0
913.0
913.0
915.0
915.0
916.0
916.0
917.0
922.0
923.0
925.0
924.0
922.0
922.0
922.0
919.0
919.0
917.0
917.0
915.0
920.0
920.0
921.0
918.0
917.0
915.0
911.0
907.0
906.0
903.0
903.0
902.0
901.0
906.0
906.0
905.0
904.0
903.0
901.0
900.0
897.0
899.0
897.0
898.0
899.0
898.0
901.0
902.0
903.0
903.0
905.0
906.0
905.0
906.0
908.0
910.0
911.0
915.0
918.0
917.0
915.0
909.0
906.0
906.0
913.0
932.0
964.0
1005.0
1054.0
1111.0
1173.0
1233.0
1281.0
1319.0
1338.0
1341.0
1331.0
1304.0
1259.0
1194.0
1106.0
1019.0
943.0
898.0
883.0
885.0
895.0
904.0
909.0
908.0
906.0
904.0
901.0
895.0
895.0
893.0
893.0
892.0
889.0
886.0
885.0
882.0
881.0
882.0
882.0
880.0
882.0
883.0
881.0
878.0
876.0
873.0
870.0
867.0
866.0
867.0
865.0
864.0
869.0
867.0
866.0
864.0
865.0
862.0
862.0
859.0
858.0
860.0
860.0
858.0
859.0
860.0
859.0
857.0
856.0
855.0
854.0
853.0
851.0
850.0
850.0
850.0
852.0
851.0
850.0
843.0
842.0
838.0
837.0
834.0
832.0
831.0
829.0
828.0
828.0
828.0
827.0
823.0
818.0
817.0
813.0
810.0
803.0
801.0
798.0
797.0
793.0
790.0
787.0
785.0
783.0
779.0
778.0
779.0
779.0
779.0
782.0
785.0
788.0
791.0
797.0
800.0
806.0
810.0
816.0
822.0
829.0
837.0
847.0
853.0
859.0
866.0
872.0
875.0
878.0
881.0
884.0
888.0
890.0
893.0
897.0
900.0
904.0
907.0
907.0
905.0
904.0
902.0
899.0
898.0
899.0
898.0
903.0
904.0
908.0
909.0
908.0
908.0
904.0
902.0
900.0
898.0
896.0
897.0
897.0
900.0
902.0
902.0
902.0
902.0
899.0
900.0
901.0
903.0
900.0
902.0
905.0
907.0
909.0
908.0
908.0
908.0
908.0
909.0
911.0
911.0
913.0
914.0
917.0
917.0
921.0
921.0
919.0
921.0
920.0
918.0
917.0
915.0
916.0
917.0
923.0
921.0
923.0
922.0
922.0
917.0
914.0
916.0
914.0
914.0
913.0
912.0
913.0
912.0
915.0
915.0
913.0
912.0
910.0
905.0
903.0
903.0
905.0
905.0
904.0
908.0
909.0
907.0
907.0
907.0
909.0
908.0
904.0
905.0
907.0
910.0
909.0
908.0
911.0
914.0
911.0
913.0
910.0
913.0
911.0
911.0
913.0
912.0
913.0
914.0
917.0
916.0
915.0
914.0
911.0
909.0
908.0
906.0
907.0
910.0
910.0
912.0
912.0
912.0
906.0
902.0
900.0
904.0
918.0
946.0
979.0
1021.0
1071.0
1129.0
1189.0
1246.0
1295.0
1329.0
1347.0
1348.0
1339.0
1315.0
1274.0
1209.0
1118.0
1018.0
932.0
878.0
860.0
862.0
872.0
884.0
894.0
894.0
893.0
893.0
889.0
885.0
886.0
884.0
885.0
887.0
888.0
887.0
885.0
883.0
880.0
881.0
881.0
881.0
883.0
882.0
881.0
881.0
878.0
876.0
876.0
874.0
873.0
873.0
874.0
876.0
875.0
877.0
875.0
876.0
874.0
873.0
871.0
870.0
869.0
867.0
866.0
868.0
870.0
871.0
868.0
867.0
866.0
861.0
859.0
861.0
859.0
859.0
859.0
860.0
859.0
854.0
852.0
850.0
846.0
846.0
843.0
843.0
842.0
843.0
844.0
841.0
840.0
840.0
834.0
830.0
830.0
827.0
825.0
825.0
822.0
820.0
818.0
818.0
816.0
812.0
809.0
807.0
803.0
800.0
797.0
794.0
797.0
797.0
798.0
801.0
803.0
806.0
808.0
811.0
816.0
818.0
826.0
828.0
837.0
842.0
849.0
853.0
860.0
865.0
869.0
873.0
874.0
878.0
881.0
883.0
883.0
886.0
889.0
890.0
893.0
894.0
893.0
892.0
891.0
893.0
892.0
891.0
892.0
895.0
897.0
899.0
901.0
899.0
899.0
899.0
896.0
896.0
895.0
896.0
895.0
894.0
899.0
897.0
899.0
898.0
898.0
898.0
896.0
897.0
897.0
896.0
894.0
896.0
899.0
903.0
905.0
907.0
906.0
907.0
905.0
906.0
904.0
898.0
899.0
898.0
898.0
902.0
901.0
904.0
905.0
907.0
907.0
904.0
901.0
903.0
900.0
899.0
901.0
902.0
903.0
906.0
904.0
903.0
902.0
901.0
899.0
898.0
897.0
899.0
900.0
900.0
902.0
902.0
903.0
901.0
901.0
901.0
900.0
899.0
900.0
903.0
904.0
907.0
910.0
910.0
909.0
909.0
905.0
906.0
903.0
900.0
900.0
899.0
901.0
900.0
902.0
902.0
901.0
901.0
900.0
899.0
899.0
897.0
899.0
897.0
900.0
902.0
903.0
904.0
903.0
904.0
902.0
902.0
902.0
900.0
902.0
903.0
906.0
907.0
905.0
905.0
903.0
901.0
892.0
887.0
883.0
891.0
911.0
939.0
980.0
1028.0
1086.0
1149.0
1207.0
1264.0
1311.0
1338.0
1349.0
1343.0
1326.0
1290.0
1232.0
1151.0
1052.0
960.0
894.0
862.0
856.0
863.0
876.0
889.0
894.0
896.0
895.0
890.0
885.0
884.0
884.0
885.0
883.0
881.0
882.0
877.0
878.0
878.0
875.0
875.0
876.0
875.0
875.0
874.0
874.0
868.0
867.0
866.0
868.0
867.0
868.0
866.0
867.0
869.0
867.0
865.0
863.0
859.0
856.0
854.0
855.0
853.0
854.0
853.0
854.0
853.0
850.0
849.0
847.0
843.0
839.0
837.0
837.0
837.0
839.0
841.0
842.0
841.0
839.0
836.0
836.0
831.0
830.0
825.0
827.0
824.0
826.0
824.0
823.0
821.0
814.0
809.0
805.0
798.0
795.0
793.0
793.0
793.0
794.0
794.0
796.0
796.0
794.0
794.0
791.0
787.0
783.0
782.0
782.0
784.0
791.0
793.0
799.0
806.0
809.0
814.0
817.0
823.0
826.0
832.0
837.0
841.0
847.0
852.0
857.0
859.0
862.0
865.0
867.0
868.0
869.0
869.0
872.0
874.0
877.0
880.0
882.0
881.0
878.0
880.0
882.0
884.0
884.0
884.0
888.0
891.0
893.0
894.0
897.0
893.0
897.0
896.0
895.0
893.0
891.0
891.0
889.0
891.0
893.0
894.0
893.0
891.0
890.0
889.0
889.0
892.0
891.0
892.0
896.0
898.0
902.0
905.0
911.0
911.0
914.0
913.0
912.0
912.0
907.0
907.0
907.0
907.0
907.0
908.0
908.0
908.0
907.0
904.0
900.0
905.0
904.0
903.0
901.0
903.0
900.0
901.0
901.0
900.0
899.0
898.0
899.0
899.0
899.0
898.0
898.0
898.0
901.0
903.0
903.0
904.0
905.0
908.0
905.0
904.0
906.0
903.0
901.0
903.0
906.0
904.0
902.0
899.0
898.0
891.0
883.0
883.0
887.0
906.0
937.0
977.0
1024.0
1074.0
1128.0
1189.0
1247.0
1295.0
1335.0
1353.0
1356.0
1347.0
1329.0
1295.0
1239.0
1158.0
1063.0
973.0
906.0
874.0
867.0
873.0
883.0
891.0
896.0
895.0
890.0
885.0
884.0
882.0
880.0
878.0
876.0
875.0
871.0
871.0
869.0
865.0
865.0
864.0
866.0
867.0
866.0
864.0
863.0
861.0
858.0
857.0
859.0
859.0
860.0
860.0
862.0
862.0
857.0
857.0
854.0
850.0
846.0
843.0
842.0
840.0
841.0
840.0
840.0
840.0
844.0
844.0
841.0
838.0
836.0
838.0
837.0
838.0
838.0
837.0
837.0
835.0
830.0
828.0
825.0
822.0
819.0
815.0
814.0
815.0
812.0
810.0
810.0
809.0
807.0
806.0
801.0
799.0
794.0
792.0
790.0
788.0
789.0
787.0
790.0
792.0
791.0
796.0
795.0
797.0
803.0
806.0
815.0
821.0
831.0
839.0
844.0
848.0
848.0
852.0
851.0
853.0
859.0
861.0
864.0
870.0
875.0
879.0
884.0
884.0
887.0
887.0
887.0
888.0
887.0
885.0
885.0
885.0
885.0
886.0
887.0
887.0
885.0
883.0
885.0
885.0
884.0
886.0
887.0
888.0
889.0
892.0
893.0
897.0
894.0
896.0
894.0
892.0
893.0
893.0
891.0
891.0
893.0
893.0
895.0
896.0
897.0
896.0
896.0
893.0
895.0
893.0
894.0
894.0
894.0
892.0
892.0
891.0
892.0
893.0
891.0
889.0
889.0
888.0
888.0
891.0
893.0
894.0
896.0
898.0
894.0
894.0
893.0
891.0
892.0
890.0
894.0
895.0
897.0
898.0
899.0
900.0
898.0
899.0
898.0
895.0
893.0
894.0
894.0
897.0
898.0
900.0
902.0
904.0
903.0
900.0
900.0
898.0
893.0
895.0
893.0
894.0
894.0
897.0
900.0
903.0
903.0
903.0
900.0
899.0
895.0
896.0
895.0
897.0
896.0
894.0
897.0
898.0
897.0
897.0
896.0
894.0
896.0
895.0
894.0
895.0
895.0
896.0
898.0
896.0
896.0
895.0
894.0
894.0
894.0
894.0
895.0
895.0
898.0
898.0
898.0
901.0
901.0
898.0
896.0
894.0
895.0
892.0
893.0
895.0
895.0
895.0
900.0
902.0
900.0
901.0
901.0
899.0
897.0
898.0
896.0
896.0
900.0
904.0
904.0
907.0
902.0
903.0
900.0
898.0
896.0
904.0
924.0
956.0
993.0
1037.0
1091.0
1148.0
1203.0
1258.0
