# Simple Text Format
# Sampling Rate (Hz):= 360.00
# Resolution:= 12
# Labels:= ECG
897.0
899.0
900.0
904.0
905.0
905.0
903.0
900.0
899.0
895.0
893.0
893.0
895.0
896.0
898.0
901.0
900.0
902.0
899.0
898.0
898.0
899.0
898.0
899.0
900.0
901.0
903.0
904.0
905.0
906.0
904.0
903.0
901.0
902.0
902.0
901.0
899.0
904.0
905.0
901.0
901.0
902.0
903.0
902.0
901.0
899.0
900.0
897.0
897.0
900.0
899.0
903.0
902.0
896.0
898.0
895.0
894.0
891.0
892.0
891.0
890.0
892.0
893.0
896.0
897.0
896.0
895.0
893.0
893.0
892.0
890.0
892.0
890.0
890.0
892.0
893.0
893.0
893.0
896.0
891.0
891.0
892.0
892.0
893.0
895.0
894.0
896.0
898.0
902.0
901.0
901.0
895.0
895.0
897.0
894.0
895.0
898.0
897.0
898.0
901.0
899.0
898.0
896.0
895.0
895.0
893.0
894.0
894.0
894.0
895.0
896.0
897.0
898.0
896.0
896.0
893.0
893.0
893.0
890.0
890.0
892.0
895.0
895.0
896.0
897.0
895.0
893.0
893.0
889.0
889.0
887.0
885.0
885.0
887.0
887.0
889.0
890.0
887.0
888.0
887.0
880.0
880.0
882.0
883.0
881.0
883.0
884.0
886.0
889.0
888.0
888.0
888.0
886.0
887.0
888.0
890.0
890.0
892.0
891.0
893.0
888.0
891.0
889.0
887.0
889.0
888.0
890.0
892.0
894.0
897.0
898.0
896.0
898.0
895.0
891.0
889.0
888.0
888.0
891.0
893.0
894.0
894.0
896.0
897.0
898.0
897.0
896.0
892.0
892.0
886.0
888.0
887.0
887.0
888.0
890.0
893.0
894.0
893.0
891.0
889.0
886.0
883.0
880.0
882.0
882.0
881.0
882.0
881.0
883.0
883.0
884.0
884.0
883.0
881.0
883.0
885.0
884.0
887.0
889.0
891.0
892.0
891.0
891.0
891.0
891.0
894.0
895.0
898.0
899.0
900.0
900.0
900.0
901.0
901.0
899.0
899.0
896.0
895.0
898.0
899.0
900.0
900.0
900.0
902.0
900.0
900.0
903.0
900.0
893.0
889.0
884.0
879.0
880.0
894.0
919.0
954.0
997.0
1047.0
1100.0
1163.0
1221.0
1274.0
1317.0
1347.0
1359.0
1358.0
1348.0
1328.0
1288.0
1215.0
1120.0
1009.0
916.0
857.0
835.0
837.0
851.0
864.0
876.0
877.0
878.0
875.0
873.0
866.0
865.0
866.0
868.0
870.0
872.0
874.0
874.0
870.0
868.0
864.0
863.0
859.0
856.0
852.0
850.0
850.0
850.0
852.0
850.0
851.0
849.0
849.0
847.0
844.0
841.0
839.0
836.0
836.0
836.0
837.0
838.0
837.0
835.0
834.0
833.0
828.0
824.0
821.0
819.0
820.0
820.0
821.0
820.0
822.0
821.0
822.0
823.0
820.0
818.0
817.0
816.0
814.0
813.0
814.0
811.0
814.0
811.0
809.0
807.0
805.0
800.0
797.0
794.0
793.0
793.0
790.0
788.0
787.0
782.0
779.0
777.0
771.0
770.0
763.0
759.0
755.0
756.0
755.0
756.0
753.0
755.0
753.0
753.0
753.0
755.0
757.0
758.0
763.0
767.0
775.0
781.0
791.0
798.0
803.0
812.0
817.0
821.0
825.0
831.0
836.0
843.0
850.0
857.0
859.0
866.0
871.0
874.0
877.0
882.0
881.0
889.0
892.0
895.0
899.0
901.0
902.0
904.0
901.0
900.0
901.0
900.0
899.0
896.0
896.0
893.0
895.0
895.0
893.0
893.0
892.0
891.0
894.0
893.0
890.0
892.0
891.0
893.0
893.0
892.0
896.0
895.0
895.0
897.0
895.0
894.0
893.0
892.0
892.0
892.0
894.0
896.0
898.0
898.0
900.0
897.0
899.0
897.0
895.0
894.0
894.0
894.0
897.0
898.0
899.0
903.0
901.0
896.0
897.0
895.0
894.0
895.0
896.0
896.0
897.0
899.0
902.0
904.0
903.0
901.0
902.0
901.0
897.0
893.0
892.0
890.0
890.0
892.0
893.0
893.0
893.0
894.0
890.0
888.0
891.0
889.0
886.0
889.0
890.0
891.0
892.0
892.0
892.0
892.0
891.0
887.0
887.0
890.0
890.0
888.0
888.0
888.0
888.0
888.0
887.0
886.0
887.0
885.0
884.0
885.0
888.0
890.0
890.0
896.0
896.0
899.0
900.0
901.0
899.0
896.0
897.0
894.0
895.0
895.0
897.0
896.0
895.0
896.0
895.0
893.0
891.0
888.0
884.0
888.0
886.0
884.0
887.0
888.0
889.0
895.0
896.0
895.0
894.0
894.0
892.0
891.0
891.0
890.0
892.0
892.0
894.0
895.0
892.0
891.0
891.0
891.0
892.0
893.0
892.0
888.0
889.0
889.0
889.0
889.0
890.0
892.0
889.0
892.0
891.0
891.0
894.0
897.0
897.0
895.0
898.0
899.0
898.0
899.0
899.0
897.0
895.0
894.0
895.0
898.0
899.0
903.0
903.0
904.0
903.0
900.0
895.0
894.0
893.0
890.0
889.0
890.0
890.0
891.0
891.0
889.0
890.0
889.0
887.0
888.0
886.0
888.0
890.0
891.0
893.0
896.0
899.0
900.0
899.0
902.0
900.0
901.0
899.0
896.0
896.0
897.0
897.0
897.0
897.0
899.0
897.0
897.0
900.0
899.0
901.0
900.0
900.0
900.0
902.0
903.0
907.0
907.0
906.0
905.0
901.0
903.0
901.0
902.0
903.0
903.0
905.0
908.0
906.0
910.0
909.0
909.0
908.0
905.0
902.0
901.0
898.0
900.0
898.0
900.0
900.0
902.0
899.0
898.0
896.0
895.0
894.0
893.0
892.0
894.0
897.0
897.0
896.0
893.0
887.0
883.0
887.0
906.0
934.0
976.0
1030.0
1098.0
1172.0
1243.0
1302.0
1347.0
1369.0
1372.0
1357.0
1334.0
1280.0
1198.0
1089.0
982.0
905.0
866.0
859.0
867.0
884.0
901.0
906.0
904.0
898.0
891.0
881.0
880.0
878.0
876.0
878.0
881.0
876.0
877.0
869.0
865.0
862.0
857.0
855.0
857.0
857.0
857.0
857.0
860.0
858.0
856.0
856.0
855.0
851.0
849.0
848.0
848.0
849.0
847.0
845.0
846.0
844.0
844.0
845.0
842.0
842.0
843.0
843.0
842.0
845.0
844.0
842.0
842.0
838.0
837.0
834.0
832.0
831.0
829.0
828.0
829.0
832.0
833.0
835.0
834.0
834.0
831.0
827.0
824.0
820.0
813.0
812.0
808.0
808.0
805.0
804.0
805.0
798.0
797.0
790.0
787.0
779.0
775.0
770.0
765.0
765.0
762.0
763.0
758.0
754.0
752.0
750.0
747.0
746.0
745.0
747.0
748.0
753.0
757.0
767.0
773.0
782.0
788.0
795.0
801.0
811.0
820.0
826.0
834.0
841.0
844.0
851.0
855.0
859.0
862.0
865.0
869.0
872.0
879.0
882.0
887.0
887.0
891.0
893.0
893.0
891.0
891.0
891.0
895.0
893.0
891.0
890.0
893.0
892.0
896.0
896.0
897.0
897.0
897.0
893.0
893.0
892.0
892.0
891.0
891.0
891.0
894.0
897.0
898.0
896.0
895.0
894.0
893.0
893.0
892.0
889.0
892.0
894.0
895.0
896.0
895.0
896.0
896.0
894.0
896.0
894.0
894.0
896.0
897.0
900.0
903.0
906.0
910.0
906.0
908.0
905.0
905.0
903.0
904.0
905.0
903.0
903.0
905.0
908.0
908.0
906.0
907.0
906.0
905.0
904.0
901.0
900.0
900.0
901.0
901.0
901.0
903.0
905.0
904.0
903.0
901.0
903.0
900.0
900.0
902.0
903.0
903.0
907.0
907.0
908.0
906.0
904.0
903.0
902.0
902.0
901.0
901.0
902.0
900.0
899.0
898.0
897.0
896.0
893.0
893.0
892.0
892.0
893.0
894.0
897.0
898.0
899.0
901.0
899.0
900.0
899.0
898.0
897.0
896.0
898.0
896.0
897.0
897.0
899.0
899.0
899.0
899.0
896.0
896.0
895.0
894.0
896.0
898.0
898.0
899.0
900.0
900.0
897.0
898.0
900.0
898.0
898.0
896.0
899.0
900.0
902.0
902.0
903.0
905.0
904.0
903.0
903.0
898.0
898.0
902.0
900.0
902.0
903.0
903.0
905.0
899.0
897.0
891.0
885.0
886.0
898.0
920.0
953.0
995.0
1047.0
1104.0
1166.0
1228.0
1286.0
1333.0
1365.0
1377.0
1374.0
1357.0
1323.0
1268.0
1179.0
1073.0
970.0
895.0
859.0
853.0
861.0
876.0
888.0
896.0
896.0
891.0
887.0
882.0
879.0
881.0
881.0
880.0
880.0
876.0
874.0
872.0
870.0
867.0
867.0
867.0
866.0
866.0
863.0
863.0
859.0
861.0
857.0
856.0
857.0
857.0
860.0
860.0
861.0
863.0
862.0
860.0
858.0
857.0
854.0
854.0
851.0
851.0
852.0
854.0
855.0
854.0
855.0
857.0
854.0
853.0
852.0
848.0
848.0
849.0
847.0
847.0
845.0
843.0
841.0
841.0
840.0
839.0
838.0
836.0
834.0
835.0
833.0
829.0
827.0
823.0
819.0
816.0
811.0
807.0
803.0
799.0
797.0
793.0
792.0
791.0
787.0
785.0
782.0
777.0
774.0
770.0
768.0
769.0
770.0
771.0
773.0
778.0
785.0
789.0
795.0
800.0
806.0
809.0
816.0
819.0
828.0
834.0
843.0
851.0
856.0
861.0
866.0
867.0
870.0
870.0
870.0
872.0
875.0
876.0
880.0
884.0
887.0
890.0
889.0
894.0
895.0
895.0
893.0
894.0
892.0
893.0
892.0
896.0
897.0
898.0
897.0
897.0
896.0
893.0
892.0
890.0
891.0
891.0
895.0
896.0
898.0
900.0
901.0
899.0
899.0
898.0
898.0
898.0
896.0
897.0
901.0
903.0
903.0
906.0
906.0
906.0
908.0
907.0
906.0
907.0
905.0
902.0
900.0
901.0
900.0
900.0
899.0
898.0
895.0
897.0
897.0
896.0
897.0
899.0
898.0
901.0
903.0
903.0
904.0
902.0
902.0
902.0
899.0
898.0
898.0
900.0
901.0
902.0
902.0
901.0
903.0
900.0
900.0
900.0
898.0
898.0
898.0
897.0
899.0
900.0
902.0
901.0
900.0
901.0
899.0
900.0
897.0
896.0
896.0
896.0
897.0
896.0
901.0
902.0
903.0
901.0
898.0
897.0
898.0
897.0
898.0
896.0
898.0
901.0
901.0
900.0
898.0
893.0
893.0
893.0
894.0
892.0
898.0
901.0
901.0
902.0
903.0
903.0
902.0
903.0
904.0
903.0
906.0
903.0
903.0
903.0
901.0
900.0
903.0
901.0
900.0
902.0
901.0
900.0
898.0
896.0
897.0
897.0
896.0
898.0
901.0
903.0
901.0
901.0
900.0
897.0
896.0
897.0
894.0
897.0
899.0
901.0
903.0
905.0
905.0
904.0
902.0
902.0
899.0
896.0
897.0
897.0
898.0
897.0
897.0
896.0
894.0
897.0
896.0
896.0
896.0
899.0
899.0
902.0
905.0
907.0
908.0
907.0
906.0
901.0
897.0
902.0
920.0
951.0
992.0
1046.0
1104.0
1166.0
1230.0
1290.0
1336.0
1364.0
1376.0
1371.0
1352.0
1315.0
1254.0
1166.0
1064.0
967.0
899.0
865.0
857.0
867.0
883.0
892.0
898.0
898.0
893.0
887.0
883.0
884.0
882.0
884.0
884.0
883.0
880.0
878.0
872.0
871.0
870.0
867.0
868.0
868.0
864.0
864.0
861.0
860.0
856.0
856.0
853.0
852.0
855.0
855.0
855.0
857.0
860.0
859.0
858.0
860.0
857.0
853.0
851.0
849.0
846.0
846.0
848.0
850.0
852.0
851.0
850.0
849.0
847.0
845.0
843.0
840.0
840.0
839.0
841.0
840.0
841.0
839.0
836.0
833.0
827.0
826.0
821.0
817.0
818.0
816.0
814.0
812.0
810.0
810.0
805.0
803.0
801.0
794.0
792.0
788.0
786.0
782.0
779.0
774.0
772.0
774.0
771.0
771.0
770.0
770.0
768.0
768.0
771.0
778.0
783.0
788.0
794.0
801.0
807.0
812.0
820.0
825.0
830.0
837.0
841.0
850.0
856.0
860.0
867.0
874.0
879.0
881.0
883.0
882.0
881.0
883.0
884.0
887.0
890.0
890.0
892.0
895.0
895.0
897.0
894.0
892.0
892.0
892.0
891.0
892.0
893.0
895.0
898.0
897.0
898.0
899.0
897.0
895.0
897.0
895.0
895.0
895.0
895.0
899.0
901.0
903.0
905.0
907.0
909.0
910.0
911.0
910.0
912.0
912.0
912.0
912.0
913.0
915.0
914.0
915.0
915.0
915.0
915.0
914.0
913.0
915.0
915.0
917.0
918.0
920.0
918.0
917.0
915.0
917.0
916.0
917.0
911.0
913.0
914.0
916.0
917.0
918.0
917.0
915.0
915.0
913.0
911.0
907.0
902.0
899.0
900.0
899.0
900.0
902.0
903.0
903.0
904.0
903.0
901.0
902.0
902.0
904.0
904.0
905.0
910.0
912.0
915.0
915.0
915.0
915.0
913.0
911.0
910.0
908.0
908.0
905.0
908.0
909.0
908.0
911.0
910.0
910.0
908.0
907.0
908.0
906.0
910.0
908.0
907.0
909.0
908.0
909.0
906.0
906.0
904.0
902.0
904.0
904.0
905.0
906.0
907.0
908.0
907.0
904.0
899.0
899.0
898.0
894.0
894.0
895.0
895.0
894.0
897.0
902.0
903.0
907.0
907.0
907.0
908.0
909.0
909.0
911.0
914.0
915.0
918.0
920.0
920.0
921.0
920.0
918.0
916.0
916.0
916.0
922.0
924.0
921.0
925.0
925.0
920.0
919.0
911.0
909.0
907.0
914.0
937.0
973.0
1017.0
1070.0
1133.0
1203.0
1268.0
1325.0
1369.0
1390.0
1395.0
1385.0
1365.0
1329.0
1269.0
1175.0
1062.0
959.0
887.0
855.0
853.0
867.0
881.0
894.0
900.0
901.0
899.0
891.0
888.0
887.0
886.0
888.0
888.0
888.0
890.0
887.0
886.0
885.0
889.0
893.0
895.0
894.0
895.0
894.0
894.0
892.0
889.0
889.0
886.0
887.0
888.0
886.0
887.0
885.0
881.0
882.0
878.0
875.0
875.0
870.0
871.0
871.0
872.0
871.0
870.0
869.0
868.0
865.0
862.0
861.0
855.0
852.0
852.0
851.0
848.0
849.0
847.0
844.0
841.0
840.0
839.0
836.0
833.0
832.0
831.0
832.0
834.0
834.0
835.0
831.0
833.0
833.0
828.0
824.0
820.0
814.0
809.0
809.0
805.0
806.0
807.0
805.0
804.0
800.0
796.0
792.0
790.0
790.0
787.0
787.0
789.0
789.0
796.0
799.0
807.0
812.0
818.0
824.0
831.0
836.0
845.0
850.0
856.0
866.0
871.0
878.0
879.0
885.0
885.0
887.0
889.0
891.0
889.0
891.0
896.0
899.0
901.0
902.0
900.0
903.0
905.0
905.0
905.0
901.0
901.0
903.0
905.0
907.0
908.0
910.0
912.0
914.0
915.0
913.0
912.0
913.0
912.0
909.0
911.0
910.0
913.0
914.0
915.0
915.0
915.0
913.0
911.0
909.0
911.0
912.0
912.0
914.0
915.0
915.0
914.0
913.0
911.0
914.0
911.0
910.0
910.0
912.0
914.0
916.0
915.0
916.0
914.0
911.0
910.0
911.0
909.0
908.0
911.0
914.0
915.0
921.0
924.0
926.0
928.0
926.0
925.0
926.0
926.0
925.0
926.0
927.0
930.0
928.0
931.0
932.0
931.0
935.0
935.0
932.0
933.0
931.0
930.0
930.0
928.0
931.0
930.0
930.0
929.0
927.0
925.0
924.0
922.0
919.0
917.0
921.0
923.0
923.0
925.0
923.0
922.0
920.0
918.0
915.0
916.0
912.0
913.0
913.0
912.0
911.0
909.0
907.0
908.0
909.0
908.0
904.0
905.0
905.0
906.0
910.0
908.0
911.0
912.0
914.0
915.0
915.0
913.0
911.0
913.0
913.0
912.0
914.0
916.0
918.0
920.0
922.0
925.0
924.0
924.0
921.0
923.0
922.0
922.0
923.0
921.0
924.0
925.0
928.0
927.0
926.0
923.0
921.0
918.0
916.0
918.0
918.0
919.0
921.0
924.0
926.0
927.0
926.0
923.0
922.0
920.0
918.0
917.0
916.0
916.0
916.0
914.0
916.0
915.0
914.0
911.0
908.0
906.0
905.0
904.0
905.0
905.0
903.0
908.0
910.0
912.0
913.0
913.0
914.0
916.0
914.0
914.0
914.0
917.0
918.0
919.0
922.0
923.0
921.0
920.0
917.0
918.0
917.0
920.0
922.0
924.0
923.0
926.0
929.0
927.0
928.0
928.0
924.0
926.0
925.0
924.0
925.0
927.0
928.0
930.0
931.0
935.0
933.0
931.0
931.0
932.0
928.0
925.0
920.0
918.0
916.0
916.0
928.0
950.0
983.0
1021.0
1070.0
1123.0
1181.0
1239.0
1297.0
1344.0
1374.0
1389.0
1389.0
1377.0
1346.0
1296.0
1217.0
1112.0
1004.0
922.0
874.0
860.0
867.0
885.0
899.0
907.0
911.0
908.0
902.0
896.0
892.0
889.0
888.0
889.0
895.0
898.0
897.0
895.0
893.0
892.0
890.0
886.0
885.0
884.0
885.0
885.0
886.0
887.0
888.0
887.0
888.0
886.0
885.0
886.0
882.0
882.0
880.0
883.0
882.0
886.0
886.0
884.0
884.0
882.0
879.0
879.0
874.0
872.0
871.0
868.0
866.0
863.0
859.0
857.0
850.0
846.0
842.0
840.0
838.0
835.0
836.0
838.0
840.0
838.0
838.0
838.0
838.0
836.0
833.0
830.0
827.0
824.0
822.0
819.0
819.0
817.0
816.0
813.0
810.0
805.0
799.0
796.0
791.0
790.0
786.0
787.0
785.0
786.0
788.0
786.0
786.0
787.0
786.0
786.0
785.0
788.0
790.0
798.0
806.0
817.0
825.0
835.0
842.0
849.0
858.0
863.0
868.0
871.0
873.0
880.0
882.0
885.0
886.0
890.0
891.0
891.0
893.0
892.0
890.0
892.0
894.0
903.0
905.0
907.0
910.0
913.0
913.0
913.0
916.0
912.0
911.0
913.0
914.0
914.0
914.0
917.0
917.0
918.0
916.0
916.0
915.0
913.0
915.0
916.0
919.0
920.0
919.0
924.0
925.0
929.0
926.0
929.0
925.0
922.0
921.0
920.0
918.0
919.0
921.0
923.0
923.0
922.0
924.0
923.0
920.0
920.0
917.0
914.0
912.0
909.0
906.0
905.0
907.0
908.0
910.0
911.0
910.0
909.0
910.0
910.0
913.0
915.0
918.0
922.0
923.0
924.0
926.0
926.0
924.0
923.0
923.0
924.0
925.0
927.0
927.0
930.0
931.0
930.0
930.0
930.0
928.0
928.0
926.0
925.0
927.0
929.0
931.0
934.0
936.0
936.0
936.0
933.0
931.0
926.0
926.0
921.0
920.0
921.0
920.0
921.0
923.0
922.0
921.0
923.0
921.0
918.0
916.0
913.0
913.0
913.0
915.0
916.0
916.0
918.0
918.0
918.0
917.0
915.0
914.0
915.0
915.0
917.0
918.0
919.0
922.0
918.0
920.0
921.0
919.0
918.0
918.0
916.0
913.0
909.0
904.0
905.0
911.0
928.0
959.0
998.0
1045.0
1101.0
1163.0
1228.0
1291.0
1343.0
1381.0
1398.0
1402.0
1393.0
1369.0
1329.0
1264.0
1171.0
1063.0
969.0
906.0
878.0
880.0
892.0
910.0
920.0
922.0
919.0
913.0
908.0
904.0
899.0
898.0
899.0
898.0
899.0
902.0
904.0
902.0
900.0
899.0
898.0
897.0
895.0
894.0
893.0
894.0
895.0
897.0
898.0
896.0
892.0
889.0
889.0
883.0
881.0
881.0
885.0
884.0
885.0
884.0
883.0
881.0
878.0
874.0
872.0
871.0
867.0
868.0
869.0
871.0
872.0
871.0
870.0
871.0
870.0
865.0
861.0
859.0
855.0
852.0
853.0
852.0
855.0
857.0
856.0
852.0
851.0
849.0
846.0
843.0
843.0
842.0
842.0
840.0
837.0
838.0
836.0
832.0
826.0
822.0
819.0
817.0
812.0
810.0
806.0
805.0
803.0
803.0
801.0
802.0
801.0
801.0
803.0
807.0
809.0
815.0
821.0
831.0
837.0
845.0
853.0
858.0
863.0
862.0
866.0
869.0
873.0
875.0
884.0
888.0
892.0
894.0
900.0
901.0
903.0
902.0
903.0
904.0
903.0
902.0
905.0
908.0
916.0
922.0
925.0
928.0
931.0
931.0
931.0
930.0
928.0
926.0
928.0
930.0
933.0
931.0
933.0
932.0
929.0
926.0
922.0
922.0
918.0
913.0
915.0
912.0
913.0
912.0
909.0
912.0
912.0
910.0
909.0
910.0
908.0
909.0
909.0
912.0
912.0
911.0
914.0
912.0
912.0
912.0
915.0
918.0
919.0
919.0
924.0
924.0
925.0
927.0
927.0
926.0
926.0
926.0
925.0
925.0
926.0
928.0
931.0
933.0
935.0
940.0
937.0
937.0
935.0
932.0
928.0
923.0
920.0
930.0
951.0
986.0
1027.0
1078.0
1133.0
1193.0
1253.0
1307.0
1351.0
1380.0
1389.0
1384.0
1364.0
1327.0
1262.0
1169.0
1061.0
962.0
894.0
863.0
861.0
874.0
890.0
900.0
905.0
907.0
902.0
899.0
896.0
894.0
895.0
893.0
893.0
893.0
890.0
889.0
887.0
889.0
890.0
891.0
887.0
888.0
887.0
888.0
888.0
887.0
884.0
884.0
884.0
886.0
888.0
889.0
889.0
887.0
887.0
885.0
884.0
882.0
878.0
881.0
881.0
883.0
882.0
883.0
883.0
882.0
879.0
878.0
878.0
875.0
874.0
872.0
872.0
871.0
870.0
870.0
868.0
866.0
865.0
860.0
856.0
854.0
852.0
849.0
844.0
842.0
837.0
836.0
833.0
832.0
830.0
827.0
823.0
820.0
818.0
814.0
812.0
810.0
807.0
806.0
803.0
799.0
796.0
794.0
792.0
791.0
791.0
793.0
797.0
800.0
807.0
812.0
817.0
822.0
829.0
834.0
840.0
844.0
852.0
859.0
864.0
869.0
874.0
878.0
886.0
893.0
896.0
904.0
902.0
903.0
907.0
906.0
909.0
909.0
909.0
911.0
913.0
912.0
911.0
910.0
911.0
908.0
907.0
908.0
909.0
909.0
908.0
913.0
914.0
914.0
911.0
911.0
911.0
911.0
913.0
912.0
913.0
915.0
915.0
914.0
916.0
915.0
916.0
917.0
916.0
915.0
914.0
916.0
917.0
919.0
920.0
923.0
925.0
925.0
923.0
923.0
922.0
923.0
923.0
925.0
926.0
927.0
928.0
931.0
932.0
928.0
929.0
925.0
923.0
920.0
920.0
921.0
918.0
919.0
920.0
921.0
920.0
920.0
919.0
918.0
917.0
915.0
915.0
915.0
916.0
914.0
916.0
919.0
918.0
918.0
917.0
915.0
915.0
913.0
913.0
913.0
911.0
913.0
914.0
916.0
915.0
918.0
916.0
917.0
915.0
918.0
919.0
918.0
920.0
918.0
917.0
920.0
922.0
922.0
919.0
917.0
918.0
918.0
920.0
921.0
921.0
923.0
926.0
923.0
922.0
923.0
924.0
923.0
920.0
919.0
917.0
918.0
918.0
919.0
921.0
921.0
919.0
920.0
915.0
916.0
914.0
914.0
912.0
911.0
911.0
916.0
919.0
919.0
920.0
922.0
919.0
921.0
923.0
925.0
926.0
927.0
928.0
930.0
931.0
932.0
931.0
930.0
931.0
929.0
928.0
928.0
924.0
926.0
925.0
926.0
922.0
920.0
916.0
911.0
911.0
919.0
942.0
976.0
1016.0
1072.0
1133.0
1198.0
1263.0
1320.0
1361.0
1386.0
1392.0
1385.0
1365.0
1330.0
1270.0
1185.0
1078.0
978.0
910.0
877.0
874.0
882.0
897.0
906.0
911.0
910.0
906.0
900.0
897.0
893.0
892.0
894.0
894.0
896.0
897.0
894.0
896.0
890.0
885.0
886.0
884.0
887.0
888.0
888.0
890.0
889.0
891.0
888.0
885.0
881.0
880.0
878.0
877.0
879.0
877.0
878.0
875.0
875.0
876.0
874.0
871.0
871.0
869.0
872.0
871.0
871.0
872.0
873.0
871.0
871.0
868.0
867.0
863.0
861.0
860.0
861.0
859.0
859.0
862.0
862.0
861.0
855.0
850.0
847.0
843.0
838.0
834.0
835.0
832.0
829.0
828.0
825.0
825.0
819.0
817.0
815.0
809.0
806.0
803.0
799.0
799.0
793.0
792.0
793.0
793.0
793.0
789.0
791.0
789.0
787.0
788.0
790.0
795.0
800.0
807.0
815.0
824.0
830.0
834.0
844.0
849.0
854.0
863.0
869.0
876.0
880.0
886.0
892.0
897.0
898.0
902.0
903.0
906.0
907.0
908.0
910.0
911.0
916.0
918.0
916.0
916.0
914.0
914.0
914.0
910.0
908.0
910.0
909.0
909.0
911.0
913.0
915.0
917.0
913.0
911.0
914.0
913.0
914.0
913.0
910.0
913.0
916.0
918.0
921.0
924.0
923.0
925.0
921.0
919.0
920.0
917.0
919.0
922.0
924.0
928.0
931.0
933.0
933.0
934.0
935.0
935.0
934.0
931.0
933.0
933.0
935.0
936.0
936.0
938.0
936.0
935.0
933.0
931.0
929.0
923.0
923.0
923.0
922.0
923.0
924.0
925.0
926.0
925.0
926.0
924.0
921.0
921.0
920.0
921.0
920.0
922.0
920.0
921.0
919.0
919.0
916.0
914.0
911.0
913.0
912.0
911.0
911.0
910.0
914.0
911.0
911.0
913.0
911.0
909.0
911.0
911.0
912.0
915.0
918.0
918.0
923.0
924.0
923.0
923.0
923.0
924.0
922.0
921.0
923.0
923.0
924.0
927.0
927.0
927.0
925.0
924.0
922.0
922.0
920.0
917.0
919.0
919.0
920.0
918.0
918.0
917.0
916.0
916.0
919.0
917.0
914.0
917.0
916.0
914.0
913.0
914.0
913.0
912.0
910.0
910.0
906.0
906.0
903.0
902.0
902.0
902.0
903.0
907.0
907.0
908.0
909.0
910.0
907.0
908.0
904.0
905.0
908.0
908.0
910.0
912.0
914.0
914.0
914.0
915.0
913.0
910.0
910.0
911.0
911.0
913.0
916.0
916.0
918.0
919.0
918.0
918.0
918.0
920.0
917.0
915.0
918.0
920.0
921.0
922.0
926.0
927.0
926.0
926.0
926.0
925.0
921.0
920.0
916.0
914.0
910.0
907.0
910.0
920.0
942.0
979.0
1021.0
1074.0
1137.0
1202.0
1270.0
1326.0
1372.0
1392.0
1395.0
1382.0
1347.0
1285.0
1191.0
1076.0
969.0
899.0
866.0
860.0
873.0
888.0
901.0
909.0
908.0
904.0
894.0
888.0
883.0
881.0
880.0
879.0
883.0
884.0
886.0
886.0
884.0
885.0
883.0
882.0
882.0
880.0
879.0
878.0
883.0
883.0
883.0
881.0
879.0
877.0
876.0
876.0
874.0
873.0
870.0
871.0
872.0
872.0
875.0
874.0
871.0
868.0
865.0
864.0
861.0
860.0
860.0
860.0
859.0
861.0
861.0
859.0
857.0
854.0
852.0
849.0
843.0
839.0
836.0
837.0
832.0
832.0
832.0
830.0
825.0
824.0
819.0
814.0
810.0
804.0
802.0
799.0
798.0
796.0
795.0
792.0
786.0
784.0
780.0
777.0
772.0
770.0
765.0
764.0
767.0
767.0
767.0
768.0
767.0
769.0
773.0
776.0
781.0
787.0
795.0
801.0
813.0
822.0
832.0
841.0
849.0
859.0
864.0
873.0
878.0
884.0
889.0
894.0
897.0
899.0
900.0
903.0
903.0
901.0
899.0
898.0
897.0
898.0
898.0
900.0
900.0
903.0
903.0
903.0
901.0
903.0
902.0
901.0
901.0
902.0
903.0
907.0
908.0
911.0
914.0
915.0
914.0
915.0
917.0
914.0
911.0
911.0
911.0
911.0
911.0
913.0
913.0
914.0
911.0
912.0
913.0
912.0
907.0
904.0
907.0
907.0
908.0
911.0
912.0
913.0
912.0
914.0
912.0
913.0
911.0
911.0
911.0
914.0
918.0
920.0
921.0
922.0
921.0
922.0
918.0
920.0
920.0
916.0
915.0
914.0
914.0
914.0
916.0
917.0
917.0
917.0
913.0
913.0
911.0
911.0
910.0
909.0
909.0
908.0
912.0
915.0
916.0
915.0
913.0
912.0
913.0
909.0
908.0
908.0
909.0
911.0
912.0
914.0
911.0
910.0
910.0
908.0
905.0
904.0
904.0
903.0
902.0
901.0
901.0
904.0
903.0
902.0
900.0
901.0
900.0
901.0
902.0
905.0
906.0
909.0
913.0
912.0
912.0
910.0
913.0
910.0
909.0
909.0
910.0
908.0
908.0
908.0
908.0
908.0
909.0
905.0
906.0
905.0
903.0
901.0
902.0
901.0
902.0
903.0
904.0
905.0
906.0
906.0
906.0
904.0
903.0
902.0
903.0
903.0
902.0
902.0
902.0
906.0
905.0
903.0
902.0
905.0
905.0
908.0
911.0
913.0
915.0
918.0
919.0
920.0
918.0
921.0
920.0
920.0
917.0
914.0
912.0
910.0
910.0
912.0
913.0
920.0
920.0
922.0
921.0
917.0
917.0
916.0
915.0
914.0
916.0
917.0
916.0
917.0
915.0
917.0
913.0
913.0
911.0
911.0
911.0
911.0
910.0
910.0
913.0
912.0
912.0
913.0
911.0
912.0
909.0
907.0
907.0
906.0
906.0
907.0
907.0
909.0
909.0
910.0
909.0
908.0
908.0
910.0
911.0
912.0
914.0
917.0
917.0
915.0
917.0
918.0
916.0
914.0
911.0
909.0
909.0
910.0
911.0
911.0
912.0
911.0
909.0
910.0
910.0
910.0
910.0
910.0
913.0
913.0
919.0
919.0
919.0
922.0
922.0
922.0
918.0
916.0
914.0
915.0
915.0
914.0
915.0
916.0
917.0
916.0
918.0
915.0
915.0
915.0
913.0
911.0
913.0
915.0
916.0
916.0
918.0
919.0
918.0
917.0
917.0
914.0
915.0
917.0
919.0
920.0
923.0
925.0
928.0
928.0
929.0
926.0
926.0
925.0
923.0
922.0
920.0
917.0
914.0
909.0
914.0
932.0
960.0
999.0
1049.0
1106.0
1174.0
1241.0
1303.0
1350.0
1376.0
1386.0
1376.0
1345.0
1293.0
1211.0
1098.0
984.0
899.0
855.0
847.0
857.0
878.0
894.0
904.0
906.0
899.0
892.0
885.0
879.0
879.0
878.0
878.0
878.0
878.0
880.0
880.0
881.0
881.0
881.0
883.0
880.0
880.0
882.0
881.0
880.0
881.0
882.0
881.0
883.0
883.0
882.0
879.0
878.0
874.0
873.0
871.0
872.0
873.0
873.0
876.0
877.0
871.0
869.0
866.0
861.0
858.0
854.0
852.0
852.0
851.0
853.0
852.0
854.0
854.0
851.0
847.0
845.0
843.0
839.0
837.0
836.0
836.0
836.0
836.0
833.0
832.0
831.0
828.0
823.0
819.0
816.0
