# Simple Text Format
# Sampling Rate (Hz):= 360.00
# Resolution:= 12
# Labels:= ECG
802.0
805.0
807.0
810.0
814.0
820.0
824.0
831.0
837.0
843.0
852.0
859.0
865.0
873.0
877.0
880.0
882.0
885.0
884.0
887.0
891.0
895.0
899.0
903.0
903.0
907.0
911.0
912.0
910.0
910.0
908.0
908.0
910.0
910.0
912.0
912.0
913.0
913.0
913.0
912.0
912.0
910.0
910.0
910.0
911.0
907.0
909.0
910.0
911.0
913.0
915.0
915.0
915.0
912.0
914.0
912.0
913.0
915.0
915.0
915.0
920.0
920.0
922.0
923.0
924.0
926.0
926.0
922.0
925.0
925.0
924.0
924.0
925.0
924.0
926.0
927.0
927.0
923.0
923.0
921.0
921.0
921.0
919.0
920.0
920.0
919.0
921.0
922.0
924.0
922.0
922.0
921.0
918.0
915.0
914.0
916.0
917.0
919.0
919.0
920.0
919.0
920.0
918.0
918.0
916.0
916.0
917.0
919.0
923.0
923.0
921.0
920.0
920.0
919.0
919.0
919.0
917.0
918.0
919.0
921.0
923.0
924.0
927.0
927.0
928.0
926.0
924.0
923.0
923.0
922.0
922.0
924.0
926.0
927.0
927.0
927.0
926.0
924.0
921.0
921.0
918.0
918.0
920.0
921.0
922.0
923.0
924.0
926.0
926.0
927.0
926.0
925.0
921.0
921.0
919.0
920.0
919.0
919.0
922.0
919.0
921.0
920.0
918.0
916.0
914.0
913.0
914.0
915.0
918.0
918.0
920.0
925.0
924.0
923.0
922.0
922.0
916.0
911.0
907.0
906.0
915.0
934.0
965.0
1004.0
1052.0
1109.0
1168.0
1227.0
1277.0
1317.0
1342.0
1349.0
1346.0
1331.0
1305.0
1255.0
1178.0
1078.0
978.0
907.0
875.0
870.0
883.0
896.0
908.0
916.0
918.0
914.0
908.0
902.0
899.0
897.0
898.0
900.0
901.0
903.0
902.0
903.0
902.0
900.0
897.0
893.0
894.0
892.0
890.0
891.0
890.0
890.0
889.0
887.0
883.0
880.0
879.0
879.0
878.0
875.0
874.0
873.0
875.0
875.0
878.0
879.0
879.0
879.0
875.0
874.0
871.0
871.0
867.0
867.0
864.0
865.0
867.0
869.0
869.0
869.0
869.0
870.0
869.0
871.0
868.0
866.0
868.0
866.0
861.0
859.0
859.0
859.0
855.0
850.0
844.0
841.0
840.0
836.0
835.0
834.0
833.0
831.0
831.0
829.0
828.0
825.0
822.0
818.0
814.0
812.0
810.0
809.0
811.0
811.0
814.0
815.0
817.0
819.0
822.0
826.0
832.0
837.0
843.0
849.0
857.0
864.0
870.0
875.0
878.0
884.0
885.0
888.0
891.0
891.0
891.0
893.0
894.0
899.0
899.0
903.0
901.0
902.0
903.0
904.0
905.0
909.0
913.0
915.0
917.0
918.0
918.0
917.0
915.0
915.0
915.0
912.0
911.0
911.0
911.0
912.0
914.0
915.0
917.0
919.0
919.0
919.0
917.0
918.0
915.0
916.0
919.0
920.0
922.0
922.0
922.0
924.0
922.0
922.0
918.0
918.0
917.0
917.0
915.0
918.0
918.0
920.0
921.0
922.0
921.0
920.0
919.0
919.0
917.0
916.0
916.0
916.0
916.0
916.0
913.0
914.0
912.0
910.0
907.0
903.0
902.0
902.0
905.0
906.0
910.0
911.0
915.0
917.0
917.0
918.0
918.0
918.0
916.0
918.0
917.0
916.0
917.0
917.0
918.0
921.0
920.0
918.0
917.0
915.0
916.0
913.0
915.0
915.0
917.0
918.0
916.0
919.0
917.0
917.0
916.0
915.0
914.0
914.0
910.0
912.0
913.0
913.0
914.0
911.0
915.0
914.0
909.0
909.0
907.0
909.0
909.0
908.0
911.0
911.0
912.0
910.0
907.0
906.0
904.0
902.0
900.0
900.0
899.0
902.0
904.0
906.0
909.0
911.0
912.0
913.0
912.0
913.0
914.0
911.0
915.0
917.0
915.0
917.0
918.0
919.0
917.0
917.0
915.0
915.0
913.0
912.0
912.0
914.0
916.0
913.0
915.0
914.0
914.0
918.0
915.0
915.0
917.0
917.0
917.0
917.0
917.0
919.0
919.0
918.0
915.0
911.0
910.0
910.0
909.0
908.0
907.0
907.0
906.0
905.0
904.0
902.0
897.0
899.0
897.0
896.0
895.0
897.0
898.0
898.0
899.0
902.0
907.0
906.0
908.0
909.0
909.0
909.0
912.0
911.0
909.0
912.0
911.0
913.0
915.0
914.0
914.0
916.0
912.0
913.0
912.0
911.0
911.0
913.0
914.0
914.0
914.0
914.0
915.0
914.0
912.0
912.0
909.0
907.0
906.0
909.0
910.0
911.0
914.0
911.0
911.0
909.0
910.0
909.0
907.0
905.0
906.0
903.0
904.0
904.0
904.0
900.0
899.0
900.0
898.0
899.0
900.0
903.0
908.0
912.0
915.0
915.0
915.0
911.0
907.0
904.0
914.0
934.0
967.0
1012.0
1066.0
1129.0
1195.0
1254.0
1298.0
1326.0
1334.0
1327.0
1305.0
1270.0
1210.0
1120.0
1017.0
931.0
878.0
859.0
865.0
880.0
892.0
903.0
907.0
904.0
897.0
884.0
880.0
879.0
878.0
881.0
884.0
883.0
877.0
875.0
870.0
867.0
864.0
862.0
860.0
859.0
857.0
857.0
859.0
857.0
857.0
856.0
857.0
857.0
856.0
859.0
859.0
860.0
863.0
863.0
866.0
865.0
863.0
862.0
860.0
858.0
856.0
855.0
854.0
855.0
858.0
860.0
859.0
860.0
856.0
855.0
854.0
850.0
849.0
851.0
847.0
847.0
846.0
848.0
847.0
845.0
844.0
839.0
836.0
833.0
828.0
827.0
823.0
819.0
820.0
815.0
811.0
810.0
810.0
804.0
799.0
794.0
792.0
788.0
786.0
784.0
785.0
784.0
783.0
783.0
778.0
776.0
775.0
774.0
774.0
773.0
777.0
779.0
783.0
789.0
797.0
800.0
806.0
812.0
815.0
822.0
827.0
832.0
839.0
848.0
851.0
860.0
868.0
873.0
874.0
879.0
882.0
881.0
882.0
885.0
884.0
886.0
890.0
893.0
896.0
897.0
899.0
898.0
896.0
896.0
895.0
894.0
897.0
898.0
897.0
901.0
901.0
900.0
898.0
898.0
895.0
894.0
895.0
894.0
896.0
898.0
904.0
907.0
908.0
909.0
910.0
910.0
910.0
912.0
912.0
911.0
914.0
915.0
915.0
918.0
921.0
922.0
923.0
921.0
919.0
918.0
918.0
915.0
914.0
918.0
916.0
919.0
919.0
919.0
918.0
917.0
915.0
914.0
912.0
911.0
909.0
907.0
909.0
910.0
910.0
907.0
906.0
903.0
901.0
900.0
900.0
898.0
898.0
894.0
898.0
897.0
898.0
899.0
893.0
893.0
887.0
885.0
886.0
885.0
887.0
891.0
894.0
895.0
897.0
898.0
901.0
899.0
898.0
899.0
899.0
900.0
902.0
902.0
903.0
907.0
908.0
909.0
908.0
909.0
907.0
906.0
903.0
902.0
903.0
904.0
905.0
907.0
908.0
908.0
910.0
909.0
904.0
905.0
904.0
904.0
906.0
906.0
906.0
908.0
910.0
909.0
909.0
908.0
906.0
904.0
903.0
901.0
900.0
901.0
897.0
893.0
886.0
884.0
884.0
889.0
905.0
933.0
969.0
1015.0
1068.0
1126.0
1183.0
1239.0
1281.0
1302.0
1316.0
1311.0
1295.0
1264.0
1215.0
1138.0
1049.0
961.0
897.0
864.0
856.0
866.0
881.0
889.0
895.0
896.0
893.0
888.0
885.0
885.0
885.0
887.0
890.0
891.0
890.0
888.0
885.0
881.0
879.0
876.0
875.0
870.0
871.0
874.0
875.0
876.0
874.0
874.0
870.0
868.0
864.0
862.0
861.0
863.0
864.0
864.0
864.0
865.0
864.0
864.0
861.0
856.0
853.0
852.0
849.0
850.0
850.0
854.0
856.0
859.0
861.0
863.0
862.0
861.0
861.0
859.0
859.0
861.0
860.0
858.0
860.0
860.0
858.0
855.0
850.0
845.0
842.0
840.0
837.0
835.0
834.0
833.0
833.0
827.0
826.0
823.0
819.0
816.0
813.0
808.0
805.0
803.0
801.0
798.0
798.0
793.0
790.0
792.0
792.0
791.0
791.0
790.0
794.0
797.0
802.0
805.0
812.0
815.0
820.0
825.0
828.0
832.0
836.0
840.0
844.0
847.0
851.0
856.0
860.0
864.0
867.0
869.0
874.0
874.0
879.0
883.0
885.0
892.0
895.0
898.0
902.0
905.0
907.0
904.0
905.0
901.0
902.0
899.0
900.0
900.0
903.0
903.0
907.0
907.0
907.0
908.0
904.0
906.0
904.0
903.0
901.0
902.0
901.0
902.0
900.0
898.0
900.0
897.0
893.0
892.0
889.0
887.0
887.0
888.0
888.0
888.0
887.0
888.0
887.0
884.0
882.0
878.0
878.0
878.0
878.0
879.0
882.0
883.0
884.0
883.0
885.0
887.0
888.0
890.0
892.0
895.0
896.0
899.0
903.0
902.0
905.0
906.0
905.0
903.0
902.0
901.0
900.0
900.0
899.0
900.0
904.0
902.0
905.0
905.0
905.0
904.0
903.0
900.0
900.0
900.0
901.0
901.0
902.0
903.0
903.0
906.0
900.0
901.0
898.0
897.0
896.0
896.0
895.0
896.0
895.0
897.0
897.0
899.0
898.0
896.0
897.0
893.0
891.0
890.0
890.0
888.0
888.0
889.0
893.0
891.0
893.0
893.0
894.0
896.0
895.0
898.0
898.0
902.0
906.0
908.0
909.0
912.0
910.0
913.0
910.0
910.0
912.0
912.0
913.0
915.0
914.0
914.0
914.0
915.0
915.0
913.0
909.0
907.0
907.0
907.0
908.0
908.0
909.0
910.0
910.0
908.0
908.0
908.0
906.0
904.0
903.0
899.0
900.0
901.0
903.0
906.0
908.0
908.0
907.0
909.0
906.0
904.0
899.0
893.0
891.0
898.0
920.0
950.0
988.0
1031.0
1082.0
1134.0
1182.0
1226.0
1254.0
1271.0
1276.0
1270.0
1255.0
1229.0
1182.0
1114.0
1033.0
958.0
906.0
880.0
876.0
882.0
892.0
901.0
906.0
906.0
904.0
899.0
893.0
890.0
887.0
885.0
886.0
880.0
882.0
882.0
880.0
877.0
878.0
878.0
874.0
874.0
870.0
870.0
866.0
864.0
867.0
866.0
868.0
866.0
868.0
867.0
866.0
865.0
863.0
862.0
859.0
858.0
857.0
856.0
857.0
858.0
861.0
862.0
862.0
865.0
866.0
865.0
867.0
867.0
868.0
869.0
868.0
868.0
871.0
869.0
868.0
867.0
863.0
861.0
857.0
855.0
853.0
851.0
851.0
851.0
849.0
849.0
847.0
842.0
840.0
834.0
829.0
829.0
826.0
824.0
821.0
819.0
819.0
817.0
814.0
811.0
806.0
800.0
797.0
795.0
793.0
791.0
791.0
791.0
792.0
793.0
790.0
791.0
789.0
793.0
797.0
801.0
809.0
815.0
823.0
830.0
838.0
845.0
853.0
855.0
860.0
863.0
870.0
872.0
877.0
884.0
889.0
894.0
900.0
903.0
904.0
905.0
904.0
904.0
904.0
905.0
908.0
907.0
906.0
908.0
910.0
911.0
908.0
907.0
905.0
904.0
899.0
897.0
897.0
899.0
904.0
902.0
902.0
904.0
904.0
901.0
899.0
897.0
894.0
891.0
888.0
889.0
891.0
891.0
890.0
895.0
894.0
894.0
896.0
898.0
898.0
900.0
904.0
905.0
909.0
910.0
913.0
914.0
914.0
915.0
913.0
912.0
911.0
913.0
912.0
914.0
916.0
916.0
921.0
921.0
920.0
920.0
918.0
917.0
914.0
912.0
913.0
912.0
911.0
913.0
915.0
914.0
912.0
911.0
909.0
908.0
904.0
906.0
903.0
906.0
907.0
907.0
909.0
910.0
908.0
909.0
906.0
906.0
904.0
903.0
902.0
904.0
903.0
905.0
908.0
908.0
906.0
909.0
907.0
907.0
906.0
906.0
904.0
905.0
909.0
910.0
910.0
911.0
911.0
912.0
909.0
908.0
905.0
906.0
905.0
905.0
904.0
908.0
910.0
909.0
908.0
908.0
906.0
903.0
900.0
899.0
901.0
901.0
901.0
900.0
901.0
901.0
899.0
900.0
897.0
893.0
890.0
891.0
891.0
892.0
894.0
894.0
895.0
894.0
898.0
900.0
898.0
897.0
898.0
897.0
900.0
903.0
904.0
903.0
906.0
907.0
910.0
910.0
910.0
910.0
908.0
909.0
911.0
911.0
913.0
914.0
915.0
913.0
914.0
912.0
911.0
909.0
907.0
904.0
906.0
908.0
909.0
910.0
913.0
914.0
913.0
913.0
911.0
909.0
909.0
907.0
906.0
909.0
908.0
906.0
907.0
905.0
905.0
905.0
902.0
901.0
900.0
899.0
901.0
901.0
902.0
903.0
904.0
903.0
901.0
904.0
903.0
902.0
901.0
902.0
902.0
899.0
897.0
894.0
891.0
891.0
899.0
917.0
948.0
984.0
1028.0
1083.0
1138.0
1198.0
1253.0
1293.0
1319.0
1328.0
1323.0
1307.0
1276.0
1226.0
1147.0
1049.0
957.0
893.0
862.0
857.0
867.0
882.0
891.0
897.0
896.0
892.0
885.0
880.0
880.0
880.0
882.0
884.0
884.0
883.0
880.0
878.0
873.0
873.0
873.0
874.0
876.0
876.0
877.0
877.0
879.0
878.0
876.0
874.0
871.0
870.0
867.0
868.0
863.0
867.0
870.0
871.0
871.0
871.0
867.0
865.0
864.0
862.0
859.0
859.0
862.0
863.0
864.0
862.0
865.0
866.0
863.0
863.0
861.0
856.0
853.0
851.0
847.0
844.0
844.0
842.0
842.0
841.0
843.0
841.0
837.0
835.0
835.0
831.0
828.0
826.0
827.0
824.0
823.0
821.0
817.0
816.0
812.0
810.0
807.0
802.0
799.0
799.0
797.0
797.0
796.0
794.0
794.0
789.0
784.0
780.0
779.0
777.0
778.0
778.0
780.0
780.0
785.0
789.0
793.0
799.0
803.0
808.0
812.0
820.0
825.0
831.0
838.0
844.0
853.0
858.0
860.0
867.0
871.0
873.0
877.0
879.0
886.0
888.0
893.0
897.0
897.0
900.0
901.0
901.0
899.0
903.0
902.0
903.0
902.0
905.0
906.0
908.0
906.0
912.0
909.0
911.0
908.0
908.0
907.0
906.0
907.0
905.0
906.0
908.0
910.0
911.0
909.0
908.0
904.0
899.0
894.0
891.0
890.0
888.0
888.0
889.0
891.0
894.0
893.0
893.0
893.0
892.0
890.0
888.0
886.0
889.0
891.0
891.0
894.0
893.0
893.0
894.0
895.0
894.0
895.0
894.0
896.0
896.0
898.0
899.0
902.0
902.0
902.0
904.0
903.0
903.0
905.0
905.0
903.0
906.0
909.0
909.0
912.0
912.0
912.0
911.0
908.0
907.0
906.0
904.0
902.0
903.0
902.0
904.0
904.0
902.0
902.0
898.0
890.0
884.0
880.0
878.0
896.0
924.0
964.0
1010.0
1065.0
1120.0
1184.0
1242.0
1292.0
1322.0
1335.0
1334.0
1318.0
1290.0
1234.0
1152.0
1049.0
954.0
891.0
859.0
854.0
864.0
878.0
889.0
895.0
895.0
891.0
887.0
881.0
880.0
877.0
875.0
873.0
872.0
870.0
870.0
870.0
868.0
869.0
869.0
870.0
869.0
869.0
866.0
864.0
864.0
861.0
861.0
860.0
859.0
858.0
860.0
860.0
861.0
857.0
858.0
857.0
855.0
855.0
855.0
852.0
853.0
856.0
859.0
860.0
862.0
861.0
861.0
859.0
856.0
853.0
854.0
852.0
853.0
852.0
853.0
850.0
850.0
849.0
848.0
845.0
842.0
839.0
835.0
832.0
832.0
829.0
831.0
831.0
826.0
826.0
824.0
822.0
818.0
814.0
810.0
809.0
805.0
805.0
804.0
805.0
804.0
801.0
799.0
799.0
796.0
797.0
797.0
800.0
804.0
807.0
814.0
818.0
824.0
829.0
835.0
840.0
843.0
845.0
848.0
850.0
856.0
858.0
864.0
870.0
872.0
874.0
876.0
876.0
877.0
879.0
878.0
881.0
882.0
884.0
885.0
887.0
890.0
887.0
889.0
888.0
885.0
886.0
883.0
884.0
887.0
888.0
889.0
892.0
894.0
892.0
893.0
892.0
890.0
893.0
891.0
890.0
890.0
892.0
892.0
891.0
891.0
887.0
887.0
888.0
888.0
888.0
889.0
893.0
891.0
892.0
894.0
896.0
894.0
894.0
893.0
891.0
892.0
892.0
891.0
891.0
891.0
893.0
893.0
892.0
891.0
891.0
890.0
886.0
887.0
885.0
888.0
887.0
888.0
890.0
889.0
890.0
892.0
890.0
890.0
885.0
888.0
885.0
885.0
887.0
888.0
889.0
889.0
890.0
893.0
892.0
891.0
889.0
888.0
889.0
888.0
889.0
889.0
891.0
890.0
893.0
894.0
893.0
891.0
889.0
884.0
885.0
885.0
888.0
885.0
884.0
886.0
886.0
886.0
883.0
882.0
880.0
882.0
880.0
880.0
883.0
884.0
887.0
887.0
886.0
891.0
888.0
887.0
886.0
885.0
886.0
885.0
888.0
887.0
888.0
888.0
888.0
890.0
891.0
891.0
890.0
888.0
888.0
886.0
884.0
885.0
887.0
889.0
889.0
891.0
891.0
892.0
891.0
890.0
889.0
892.0
894.0
894.0
895.0
895.0
895.0
894.0
890.0
886.0
879.0
875.0
876.0
890.0
921.0
963.0
1017.0
1080.0
1146.0
1212.0
1268.0
1307.0
1328.0
1327.0
1314.0
1280.0
1224.0
1135.0
1030.0
936.0
870.0
842.0
841.0
857.0
875.0
883.0
889.0
887.0
881.0
876.0
873.0
874.0
874.0
876.0
877.0
876.0
871.0
872.0
868.0
865.0
865.0
863.0
865.0
862.0
863.0
866.0
865.0
860.0
855.0
855.0
854.0
850.0
849.0
849.0
848.0
848.0
849.0
848.0
845.0
844.0
843.0
840.0
838.0
836.0
837.0
837.0
836.0
839.0
840.0
842.0
840.0
836.0
838.0
837.0
837.0
838.0
836.0
836.0
837.0
835.0
834.0
832.0
831.0
830.0
827.0
824.0
820.0
815.0
813.0
813.0
813.0
812.0
811.0
810.0
805.0
802.0
800.0
795.0
791.0
789.0
787.0
785.0
786.0
784.0
783.0
783.0
781.0
781.0
778.0
775.0
776.0
774.0
778.0
780.0
788.0
792.0
801.0
807.0
814.0
819.0
822.0
827.0
833.0
838.0
846.0
853.0
862.0
870.0
876.0
882.0
887.0
886.0
888.0
888.0
888.0
888.0
890.0
890.0
892.0
896.0
898.0
897.0
894.0
894.0
891.0
890.0
889.0
888.0
889.0
892.0
893.0
895.0
898.0
898.0
897.0
894.0
894.0
893.0
893.0
893.0
895.0
897.0
899.0
901.0
903.0
902.0
899.0
899.0
896.0
894.0
892.0
890.0
890.0
892.0
893.0
893.0
896.0
893.0
894.0
894.0
894.0
894.0
896.0
898.0
900.0
903.0
903.0
906.0
907.0
910.0
909.0
908.0
907.0
906.0
906.0
903.0
903.0
901.0
903.0
903.0
902.0
904.0
903.0
903.0
901.0
899.0
899.0
900.0
900.0
902.0
901.0
903.0
902.0
905.0
903.0
905.0
902.0
900.0
900.0
899.0
901.0
899.0
901.0
903.0
902.0
904.0
904.0
902.0
898.0
899.0
896.0
896.0
894.0
893.0
894.0
894.0
892.0
894.0
891.0
892.0
891.0
893.0
893.0
895.0
895.0
898.0
901.0
904.0
905.0
908.0
907.0
907.0
909.0
907.0
906.0
904.0
905.0
908.0
908.0
906.0
908.0
907.0
907.0
910.0
911.0
907.0
902.0
897.0
889.0
886.0
891.0
905.0
931.0
969.0
1011.0
1060.0
1121.0
1178.0
1237.0
1283.0
1316.0
1332.0
1331.0
1321.0
1299.0
1258.0
1189.0
1092.0
990.0
906.0
860.0
843.0
849.0
863.0
879.0
889.0
893.0
891.0
887.0
882.0
876.0
874.0
870.0
871.0
871.0
872.0
867.0
868.0
868.0
866.0
863.0
862.0
860.0
859.0
857.0
858.0
859.0
858.0
863.0
865.0
869.0
871.0
870.0
867.0
866.0
863.0
863.0
863.0
863.0
862.0
864.0
864.0
863.0
861.0
860.0
859.0
857.0
855.0
854.0
853.0
852.0
850.0
852.0
851.0
853.0
851.0
850.0
848.0
846.0
844.0
842.0
841.0
838.0
839.0
838.0
838.0
839.0
838.0
835.0
833.0
829.0
826.0
822.0
819.0
817.0
815.0
812.0
810.0
811.0
808.0
807.0
803.0
800.0
797.0
791.0
784.0
782.0
783.0
781.0
782.0
783.0
783.0
784.0
784.0
785.0
787.0
790.0
794.0
801.0
806.0
812.0
819.0
826.0
835.0
840.0
844.0
849.0
852.0
855.0
859.0
862.0
868.0
873.0
878.0
881.0
886.0
885.0
888.0
888.0
888.0
887.0
885.0
886.0
886.0
888.0
888.0
890.0
893.0
890.0
888.0
889.0
887.0
884.0
885.0
884.0
885.0
885.0
888.0
890.0
891.0
888.0
890.0
887.0
886.0
884.0
882.0
883.0
882.0
887.0
889.0
892.0
896.0
896.0
897.0
897.0
898.0
898.0
899.0
896.0
897.0
901.0
901.0
902.0
904.0
905.0
903.0
903.0
903.0
900.0
901.0
900.0
900.0
903.0
904.0
905.0
905.0
906.0
904.0
903.0
899.0
898.0
898.0
899.0
901.0
903.0
902.0
904.0
906.0
904.0
901.0
900.0
897.0
897.0
894.0
894.0
896.0
898.0
898.0
898.0
900.0
899.0
899.0
896.0
896.0
893.0
893.0
892.0
892.0
893.0
892.0
892.0
893.0
894.0
894.0
893.0
893.0
890.0
890.0
892.0
895.0
898.0
901.0
903.0
903.0
905.0
902.0
903.0
901.0
899.0
896.0
897.0
897.0
898.0
899.0
902.0
902.0
902.0
899.0
901.0
898.0
896.0
896.0
896.0
896.0
897.0
895.0
896.0
898.0
897.0
898.0
896.0
894.0
892.0
893.0
893.0
892.0
894.0
894.0
897.0
898.0
895.0
895.0
892.0
888.0
887.0
887.0
886.0
886.0
889.0
890.0
892.0
892.0
891.0
890.0
890.0
888.0
884.0
885.0
885.0
887.0
893.0
895.0
899.0
902.0
904.0
903.0
906.0
906.0
907.0
907.0
909.0
908.0
907.0
905.0
899.0
894.0
892.0
892.0
902.0
924.0
958.0
998.0
1047.0
1108.0
1176.0
1238.0
1292.0
1329.0
1343.0
1343.0
1328.0
1302.0
1254.0
1176.0
1077.0
974.0
898.0
858.0
847.0
855.0
869.0
883.0
887.0
887.0
882.0
875.0
871.0
864.0
865.0
866.0
869.0
870.0
870.0
868.0
865.0
863.0
859.0
858.0
859.0
856.0
857.0
856.0
856.0
856.0
856.0
857.0
855.0
857.0
857.0
859.0
862.0
866.0
869.0
872.0
872.0
871.0
871.0
867.0
861.0
859.0
856.0
856.0
854.0
854.0
857.0
859.0
859.0
860.0
858.0
856.0
852.0
851.0
847.0
843.0
844.0
839.0
841.0
840.0
839.0
838.0
835.0
830.0
828.0
825.0
819.0
815.0
814.0
812.0
808.0
808.0
807.0
806.0
804.0
801.0
798.0
791.0
790.0
784.0
781.0
781.0
776.0
775.0
775.0
772.0
770.0
769.0
768.0
769.0
769.0
770.0
775.0
783.0
790.0
798.0
807.0
816.0
825.0
829.0
833.0
836.0
841.0
845.0
849.0
854.0
861.0
867.0
875.0
879.0
882.0
885.0
885.0
887.0
889.0
889.0
890.0
891.0
892.0
893.0
894.0
896.0
897.0
895.0
894.0
891.0
890.0
888.0
888.0
886.0
886.0
887.0
886.0
886.0
884.0
880.0
878.0
881.0
881.0
881.0
883.0
883.0
887.0
889.0
891.0
895.0
891.0
896.0
898.0
900.0
900.0
900.0
903.0
903.0
910.0
911.0
910.0
910.0
909.0
909.0
906.0
905.0
904.0
901.0
903.0
903.0
902.0
904.0
904.0
905.0
905.0
904.0
904.0
900.0
896.0
898.0
899.0
899.0
900.0
901.0
901.0
900.0
898.0
896.0
894.0
891.0
886.0
885.0
884.0
884.0
885.0
884.0
883.0
883.0
881.0
882.0
882.0
883.0
884.0
884.0
886.0
889.0
893.0
895.0
897.0
896.0
899.0
899.0
899.0
898.0
895.0
892.0
895.0
895.0
895.0
898.0
899.0
899.0
898.0
899.0
898.0
896.0
898.0
897.0
896.0
896.0
896.0
897.0
898.0
896.0
896.0
897.0
897.0
895.0
894.0
894.0
892.0
893.0
896.0
898.0
899.0
900.0
900.0
897.0
895.0
892.0
889.0
890.0
889.0
885.0
887.0
889.0
890.0
890.0
889.0
890.0
893.0
893.0
894.0
892.0
892.0
893.0
895.0
896.0
895.0
894.0
891.0
893.0
902.0
921.0
954.0
995.0
1041.0
1098.0
1160.0
1223.0
1278.0
1317.0
1336.0
1338.0
1324.0
1302.0
1252.0
1178.0
1079.0
977.0
899.0
854.0
844.0
856.0
873.0
886.0
893.0
892.0
890.0
882.0
878.0
876.0
876.0
876.0
878.0
881.0
880.0
876.0
872.0
869.0
867.0
863.0
861.0
860.0
859.0
859.0
858.0
859.0
860.0
860.0
858.0
858.0
858.0
856.0
857.0
857.0
857.0
860.0
859.0
862.0
863.0
862.0
861.0
859.0
857.0
855.0
856.0
852.0
851.0
854.0
854.0
854.0
854.0
851.0
850.0
847.0
844.0
844.0
840.0
841.0
841.0
839.0
839.0
841.0
835.0
835.0
831.0
828.0
824.0
822.0
817.0
813.0
812.0
809.0
806.0
805.0
800.0
796.0
792.0
787.0
782.0
779.0
780.0
779.0
779.0
781.0
784.0
784.0
787.0
790.0
795.0
795.0
801.0
808.0
814.0
820.0
830.0
836.0
845.0
851.0
852.0
857.0
859.0
864.0
867.0
868.0
872.0
872.0
874.0
878.0
882.0
885.0
887.0
888.0
888.0
888.0
888.0
887.0
889.0
889.0
893.0
896.0
898.0
901.0
899.0
901.0
898.0
898.0
898.0
895.0
894.0
896.0
894.0
895.0
897.0
896.0
901.0
901.0
900.0
899.0
904.0
905.0
907.0
908.0
909.0
912.0
910.0
911.0
910.0
909.0
909.0
911.0
908.0
909.0
908.0
908.0
908.0
910.0
912.0
910.0
907.0
907.0
903.0
899.0
900.0
911.0
937.0
981.0
1036.0
1097.0
1160.0
1225.0
1278.0
1317.0
1340.0
1343.0
1336.0
1313.0
1277.0
1208.0
1112.0
1008.0
919.0
867.0
851.0
857.0
870.0
885.0
895.0
898.0
896.0
891.0
889.0
887.0
888.0
891.0
888.0
889.0
888.0
890.0
892.0
888.0
892.0
888.0
891.0
890.0
891.0
893.0
893.0
889.0
888.0
886.0
883.0
882.0
881.0
879.0
877.0
875.0
876.0
877.0
876.0
875.0
873.0
870.0
868.0
867.0
866.0
866.0
866.0
867.0
868.0
868.0
866.0
865.0
861.0
859.0
854.0
853.0
854.0
852.0
853.0
850.0
851.0
850.0
848.0
846.0
843.0
838.0
836.0
835.0
835.0
836.0
838.0
837.0
837.0
838.0
837.0
840.0
836.0
834.0
834.0
833.0
832.0
834.0
832.0
832.0
834.0
832.0
833.0
833.0
834.0
835.0
837.0
837.0
840.0
846.0
851.0
856.0
863.0
867.0
870.0
873.0
878.0
880.0
881.0
883.0
885.0
886.0
888.0
891.0
895.0
898.0
900.0
904.0
903.0
905.0
904.0
901.0
902.0
904.0
905.0
905.0
907.0
911.0
912.0
911.0
911.0
910.0
908.0
907.0
907.0
911.0
910.0
914.0
917.0
921.0
921.0
922.0
923.0
923.0
921.0
922.0
923.0
924.0
924.0
925.0
926.0
929.0
929.0
930.0
929.0
926.0
928.0
926.0
928.0
927.0
930.0
930.0
931.0
930.0
929.0
927.0
927.0
925.0
921.0
919.0
916.0
917.0
916.0
921.0
920.0
922.0
922.0
922.0
920.0
921.0
920.0
916.0
916.0
917.0
918.0
919.0
919.0
921.0
920.0
919.0
920.0
916.0
914.0
916.0
917.0
920.0
924.0
924.0
926.0
926.0
927.0
929.0
929.0
930.0
930.0
931.0
932.0
932.0
931.0
931.0
933.0
932.0
932.0
929.0
931.0
931.0
929.0
927.0
929.0
929.0
932.0
930.0
931.0
932.0
934.0
933.0
932.0
935.0
932.0
932.0
930.0
930.0
928.0
929.0
930.0
932.0
932.0
932.0
930.0
928.0
927.0
924.0
925.0
924.0
924.0
926.0
926.0
929.0
930.0
928.0
926.0
922.0
922.0
920.0
923.0
925.0
924.0
923.0
926.0
928.0
927.0
922.0
923.0
923.0
922.0
924.0
928.0
932.0
936.0
941.0
944.0
947.0
948.0
949.0
947.0
945.0
941.0
941.0
941.0
943.0
946.0
948.0
948.0
952.0
951.0
949.0
948.0
948.0
947.0
945.0
947.0
947.0
947.0
950.0
952.0
952.0
952.0
954.0
952.0
951.0
947.0
946.0
943.0
940.0
936.0
931.0
932.0
944.0
964.0
995.0
1033.0
1081.0
1132.0
1187.0
1247.0
1298.0
1334.0
1355.0
1360.0
1351.0
1332.0
1295.0
1228.0
1135.0
1035.0
951.0
902.0
884.0
887.0
901.0
916.0
927.0
933.0
932.0
932.0
924.0
920.0
922.0
921.0
926.0
928.0
927.0
927.0
927.0
925.0
923.0
923.0
917.0
917.0
915.0
912.0
913.0
914.0
913.0
914.0
914.0
915.0
913.0
909.0
909.0
906.0
904.0
903.0
903.0
903.0
903.0
902.0
902.0
901.0
899.0
897.0
897.0
894.0
892.0
892.0
892.0
891.0
892.0
891.0
891.0
888.0
886.0
883.0
878.0
875.0
871.0
869.0
863.0
862.0
859.0
858.0
862.0
863.0
862.0
863.0
861.0
862.0
859.0
857.0
857.0
856.0
857.0
857.0
857.0
854.0
851.0
849.0
846.0
840.0
837.0
833.0
830.0
830.0
829.0
828.0
827.0
824.0
826.0
826.0
824.0
822.0
823.0
824.0
829.0
835.0
841.0
849.0
853.0
861.0
868.0
873.0
879.0
885.0
890.0
895.0
900.0
905.0
912.0
917.0
922.0
927.0
928.0
931.0
935.0
934.0
933.0
931.0
934.0
933.0
935.0
936.0
936.0
940.0
943.0
946.0
946.0
950.0
947.0
948.0
950.0
954.0
952.0
954.0
956.0
955.0
956.0
952.0
951.0
949.0
948.0
949.0
948.0
952.0
953.0
949.0
953.0
955.0
954.0
954.0
950.0
951.0
950.0
951.0
950.0
954.0
955.0
956.0
959.0
958.0
959.0
956.0
955.0
953.0
952.0
952.0
950.0
950.0
952.0
954.0
952.0
949.0
948.0
945.0
944.0
942.0
941.0
938.0
940.0
