# Simple Text Format
# Sampling Rate (Hz):= 360.00
# Resolution:= 12
# Labels:= ECG
987.0
990.0
992.0
992.0
992.0
989.0
987.0
989.0
991.0
994.0
990.0
991.0
987.0
988.0
985.0
991.0
991.0
990.0
988.0
988.0
991.0
992.0
990.0
988.0
986.0
988.0
987.0
993.0
995.0
992.0
992.0
992.0
996.0
1001.0
999.0
1001.0
1002.0
1010.0
1022.0
1036.0
1052.0
1068.0
1091.0
1122.0
1156.0
1190.0
1223.0
1250.0
1268.0
1272.0
1255.0
1216.0
1162.0
1103.0
1048.0
1005.0
987.0
988.0
995.0
1000.0
1002.0
1002.0
995.0
991.0
992.0
987.0
981.0
981.0
981.0
985.0
979.0
978.0
972.0
975.0
973.0
975.0
973.0
972.0
970.0
968.0
973.0
975.0
974.0
973.0
973.0
973.0
975.0
977.0
976.0
973.0
969.0
969.0
972.0
979.0
974.0
973.0
974.0
971.0
972.0
973.0
974.0
970.0
967.0
973.0
977.0
981.0
977.0
974.0
971.0
975.0
978.0
979.0
980.0
978.0
977.0
980.0
983.0
984.0
981.0
978.0
978.0
979.0
984.0
989.0
989.0
989.0
988.0
991.0
995.0
999.0
998.0
993.0
996.0
999.0
999.0
1003.0
1001.0
1002.0
999.0
1001.0
1003.0
1010.0
1013.0
1005.0
1006.0
1005.0
1013.0
1017.0
1015.0
1013.0
1009.0
1012.0
1013.0
1013.0
1011.0
1007.0
1000.0
1002.0
1003.0
1005.0
1002.0
998.0
996.0
991.0
994.0
993.0
991.0
986.0
983.0
984.0
987.0
990.0
989.0
983.0
981.0
983.0
983.0
991.0
987.0
987.0
986.0
986.0
988.0
988.0
989.0
988.0
986.0
990.0
992.0
994.0
994.0
989.0
987.0
987.0
992.0
994.0
992.0
988.0
987.0
988.0
989.0
992.0
993.0
989.0
985.0
986.0
990.0
993.0
991.0
987.0
983.0
983.0
986.0
990.0
987.0
985.0
985.0
982.0
985.0
986.0
985.0
981.0
979.0
980.0
984.0
989.0
985.0
982.0
978.0
977.0
978.0
983.0
983.0
981.0
982.0
983.0
984.0
989.0
986.0
981.0
980.0
981.0
987.0
987.0
988.0
985.0
981.0
984.0
987.0
991.0
988.0
985.0
984.0
986.0
986.0
988.0
987.0
982.0
978.0
977.0
978.0
983.0
983.0
981.0
979.0
982.0
981.0
982.0
980.0
978.0
979.0
982.0
984.0
985.0
985.0
984.0
981.0
983.0
986.0
989.0
988.0
987.0
986.0
987.0
986.0
987.0
989.0
985.0
985.0
984.0
991.0
993.0
990.0
987.0
983.0
985.0
987.0
986.0
988.0
982.0
986.0
986.0
986.0
988.0
987.0
985.0
982.0
980.0
985.0
988.0
989.0
985.0
985.0
981.0
985.0
987.0
984.0
985.0
982.0
983.0
989.0
993.0
989.0
985.0
983.0
985.0
987.0
990.0
990.0
989.0
989.0
992.0
993.0
996.0
997.0
995.0
992.0
995.0
996.0
1002.0
999.0
997.0
995.0
999.0
1001.0
1004.0
1006.0
1010.0
1010.0
1021.0
1035.0
1050.0
1069.0
1090.0
1116.0
1148.0
1181.0
1215.0
1243.0
1262.0
1261.0
1241.0
1203.0
1153.0
1101.0
1048.0
1006.0
978.0
975.0
986.0
994.0
996.0
992.0
995.0
992.0
995.0
989.0
983.0
981.0
982.0
985.0
987.0
981.0
982.0
979.0
978.0
982.0
985.0
982.0
978.0
976.0
978.0
978.0
981.0
977.0
973.0
972.0
974.0
975.0
975.0
975.0
970.0
967.0
968.0
970.0
973.0
974.0
973.0
972.0
975.0
975.0
978.0
976.0
972.0
971.0
975.0
977.0
983.0
983.0
979.0
977.0
976.0
980.0
983.0
984.0
979.0
981.0
983.0
987.0
992.0
990.0
990.0
985.0
992.0
994.0
996.0
995.0
996.0
996.0
998.0
1001.0
1002.0
1002.0
1000.0
1000.0
1002.0
1003.0
1005.0
1005.0
1001.0
999.0
1002.0
1009.0
1011.0
1012.0
1010.0
1010.0
1014.0
1017.0
1019.0
1021.0
1017.0
1018.0
1019.0
1024.0
1028.0
1025.0
1023.0
1020.0
1021.0
1021.0
1020.0
1019.0
1013.0
1014.0
1013.0
1012.0
1013.0
1006.0
1003.0
1002.0
1003.0
1005.0
1003.0
1002.0
999.0
995.0
1000.0
999.0
1000.0
998.0
995.0
992.0
993.0
997.0
999.0
997.0
992.0
994.0
994.0
997.0
999.0
1000.0
998.0
996.0
994.0
997.0
997.0
997.0
997.0
996.0
998.0
1000.0
1004.0
1004.0
999.0
998.0
998.0
1002.0
1003.0
1000.0
1001.0
999.0
999.0
999.0
1001.0
1000.0
997.0
997.0
994.0
997.0
999.0
1000.0
998.0
995.0
998.0
997.0
997.0
998.0
994.0
992.0
995.0
999.0
997.0
997.0
992.0
990.0
992.0
996.0
995.0
991.0
991.0
988.0
987.0
989.0
993.0
993.0
992.0
985.0
990.0
994.0
996.0
997.0
992.0
990.0
993.0
995.0
998.0
997.0
992.0
992.0
993.0
996.0
1000.0
998.0
996.0
997.0
997.0
1002.0
1012.0
1016.0
1025.0
1042.0
1066.0
1089.0
1125.0
1161.0
1195.0
1230.0
1261.0
1280.0
1275.0
1242.0
1195.0
1138.0
1086.0
1038.0
1002.0
983.0
984.0
990.0
999.0
1003.0
1002.0
998.0
993.0
986.0
982.0
984.0
984.0
981.0
977.0
975.0
976.0
977.0
976.0
973.0
970.0
966.0
970.0
974.0
972.0
971.0
968.0
968.0
968.0
968.0
973.0
970.0
966.0
964.0
963.0
966.0
971.0
968.0
965.0
964.0
964.0
963.0
966.0
970.0
969.0
966.0
966.0
971.0
975.0
971.0
970.0
969.0
971.0
974.0
976.0
976.0
976.0
976.0
980.0
984.0
987.0
983.0
982.0
983.0
983.0
988.0
991.0
991.0
989.0
984.0
989.0
990.0
997.0
995.0
994.0
992.0
994.0
998.0
1001.0
998.0
996.0
994.0
996.0
998.0
1004.0
1003.0
1003.0
1000.0
1001.0
1005.0
1006.0
1006.0
1006.0
1004.0
1003.0
1009.0
1009.0
1007.0
1003.0
1000.0
999.0
1001.0
1005.0
1001.0
995.0
992.0
996.0
996.0
994.0
992.0
988.0
985.0
986.0
989.0
989.0
988.0
984.0
983.0
982.0
985.0
988.0
986.0
984.0
984.0
984.0
984.0
987.0
983.0
981.0
982.0
981.0
982.0
985.0
986.0
983.0
982.0
985.0
984.0
987.0
986.0
983.0
983.0
986.0
986.0
987.0
987.0
983.0
978.0
983.0
984.0
984.0
984.0
978.0
977.0
978.0
983.0
983.0
981.0
980.0
977.0
979.0
983.0
982.0
979.0
979.0
978.0
976.0
980.0
982.0
980.0
979.0
981.0
978.0
985.0
988.0
985.0
983.0
982.0
982.0
984.0
984.0
984.0
982.0
984.0
984.0
983.0
984.0
982.0
979.0
979.0
982.0
982.0
984.0
984.0
979.0
980.0
980.0
981.0
981.0
981.0
977.0
973.0
975.0
979.0
979.0
975.0
973.0
971.0
973.0
972.0
973.0
971.0
968.0
968.0
973.0
975.0
972.0
970.0
970.0
968.0
970.0
977.0
976.0
978.0
973.0
973.0
975.0
977.0
979.0
976.0
974.0
973.0
975.0
978.0
982.0
982.0
979.0
978.0
977.0
978.0
981.0
980.0
978.0
975.0
979.0
980.0
982.0
979.0
978.0
976.0
979.0
980.0
981.0
978.0
977.0
975.0
979.0
981.0
978.0
977.0
981.0
978.0
980.0
981.0
982.0
980.0
975.0
974.0
975.0
980.0
982.0
980.0
978.0
980.0
979.0
981.0
982.0
979.0
975.0
974.0
977.0
982.0
984.0
986.0
982.0
979.0
981.0
982.0
983.0
983.0
981.0
982.0
982.0
984.0
985.0
983.0
977.0
974.0
976.0
980.0
982.0
981.0
978.0
975.0
977.0
980.0
983.0
983.0
979.0
975.0
977.0
982.0
982.0
981.0
977.0
977.0
978.0
980.0
985.0
983.0
981.0
980.0
984.0
985.0
987.0
983.0
980.0
979.0
984.0
986.0
990.0
989.0
984.0
982.0
984.0
986.0
991.0
987.0
988.0
984.0
982.0
987.0
989.0
984.0
982.0
981.0
984.0
987.0
989.0
986.0
984.0
982.0
982.0
984.0
985.0
983.0
982.0
980.0
981.0
984.0
987.0
985.0
985.0
981.0
986.0
986.0
989.0
984.0
984.0
984.0
988.0
987.0
990.0
988.0
986.0
985.0
988.0
992.0
993.0
992.0
991.0
990.0
991.0
990.0
991.0
992.0
990.0
991.0
993.0
996.0
996.0
997.0
990.0
992.0
994.0
997.0
999.0
1000.0
998.0
1001.0
1004.0
1013.0
1025.0
1032.0
1046.0
1060.0
1086.0
1112.0
1143.0
1165.0
1190.0
1215.0
1240.0
1253.0
1251.0
1230.0
1191.0
1142.0
1104.0
1068.0
1032.0
1002.0
987.0
987.0
995.0
998.0
1003.0
998.0
989.0
984.0
985.0
985.0
982.0
979.0
975.0
972.0
971.0
973.0
973.0
970.0
965.0
966.0
967.0
968.0
970.0
967.0
962.0
960.0
964.0
967.0
971.0
970.0
966.0
964.0
965.0
966.0
968.0
965.0
964.0
963.0
964.0
967.0
969.0
970.0
965.0
967.0
964.0
968.0
971.0
969.0
967.0
966.0
966.0
971.0
969.0
969.0
967.0
966.0
969.0
973.0
976.0
975.0
971.0
969.0
971.0
975.0
979.0
978.0
974.0
974.0
975.0
979.0
982.0
980.0
978.0
974.0
975.0
979.0
984.0
983.0
981.0
981.0
983.0
990.0
995.0
992.0
989.0
990.0
995.0
997.0
1001.0
1001.0
998.0
999.0
1003.0
1007.0
1006.0
1006.0
1007.0
1007.0
1010.0
1014.0
1014.0
1015.0
1011.0
1013.0
1016.0
1016.0
1017.0
1018.0
1014.0
1014.0
1013.0
1018.0
1016.0
1014.0
1009.0
1006.0
1001.0
1004.0
1005.0
1002.0
1002.0
998.0
995.0
997.0
999.0
996.0
993.0
991.0
990.0
992.0
995.0
989.0
990.0
987.0
985.0
987.0
992.0
988.0
986.0
983.0
985.0
988.0
990.0
988.0
982.0
979.0
981.0
982.0
985.0
983.0
983.0
982.0
979.0
984.0
987.0
985.0
979.0
978.0
981.0
985.0
985.0
983.0
981.0
978.0
981.0
987.0
987.0
981.0
980.0
978.0
978.0
983.0
984.0
984.0
983.0
983.0
985.0
985.0
988.0
986.0
984.0
982.0
982.0
986.0
989.0
987.0
986.0
985.0
986.0
986.0
984.0
982.0
981.0
978.0
978.0
982.0
986.0
984.0
979.0
977.0
980.0
982.0
982.0
982.0
977.0
975.0
978.0
979.0
978.0
974.0
972.0
972.0
972.0
974.0
976.0
975.0
971.0
967.0
972.0
973.0
972.0
969.0
967.0
968.0
972.0
975.0
978.0
974.0
972.0
971.0
971.0
975.0
978.0
975.0
971.0
974.0
974.0
978.0
982.0
982.0
976.0
976.0
979.0
985.0
985.0
985.0
982.0
981.0
984.0
990.0
992.0
996.0
1003.0
1009.0
1023.0
1044.0
1067.0
1091.0
1118.0
1152.0
1186.0
1221.0
1244.0
1250.0
1235.0
1203.0
1163.0
1116.0
1071.0
1024.0
979.0
957.0
953.0
963.0
972.0
974.0
974.0
976.0
976.0
975.0
974.0
968.0
964.0
961.0
961.0
961.0
961.0
964.0
955.0
953.0
958.0
960.0
961.0
957.0
955.0
954.0
956.0
957.0
959.0
960.0
958.0
956.0
957.0
960.0
959.0
958.0
956.0
956.0
959.0
963.0
963.0
960.0
957.0
958.0
957.0
959.0
960.0
957.0
956.0
957.0
958.0
958.0
959.0
959.0
953.0
953.0
958.0
962.0
959.0
959.0
959.0
960.0
961.0
965.0
967.0
968.0
966.0
967.0
971.0
976.0
976.0
974.0
973.0
972.0
975.0
976.0
980.0
981.0
982.0
979.0
978.0
983.0
985.0
985.0
979.0
981.0
983.0
990.0
991.0
990.0
986.0
985.0
988.0
993.0
995.0
994.0
993.0
993.0
997.0
996.0
996.0
995.0
991.0
989.0
990.0
993.0
998.0
994.0
991.0
985.0
986.0
989.0
986.0
985.0
981.0
979.0
978.0
980.0
979.0
973.0
971.0
967.0
969.0
972.0
971.0
972.0
968.0
967.0
972.0
972.0
971.0
972.0
970.0
968.0
971.0
972.0
976.0
975.0
969.0
968.0
968.0
971.0
975.0
972.0
970.0
968.0
970.0
973.0
975.0
974.0
973.0
972.0
974.0
977.0
978.0
977.0
973.0
974.0
976.0
981.0
981.0
980.0
974.0
974.0
975.0
975.0
979.0
978.0
973.0
973.0
974.0
975.0
975.0
972.0
968.0
972.0
970.0
973.0
974.0
972.0
969.0
969.0
969.0
970.0
971.0
970.0
969.0
969.0
971.0
972.0
972.0
968.0
967.0
967.0
969.0
969.0
970.0
968.0
962.0
961.0
966.0
971.0
967.0
965.0
962.0
962.0
962.0
969.0
967.0
968.0
963.0
963.0
966.0
967.0
970.0
970.0
968.0
967.0
969.0
974.0
973.0
970.0
966.0
966.0
965.0
967.0
969.0
965.0
964.0
965.0
966.0
967.0
968.0
964.0
961.0
961.0
961.0
967.0
968.0
967.0
962.0
965.0
966.0
968.0
968.0
965.0
963.0
964.0
969.0
970.0
969.0
967.0
964.0
964.0
965.0
967.0
970.0
966.0
966.0
966.0
969.0
972.0
967.0
970.0
967.0
964.0
966.0
968.0
972.0
968.0
967.0
964.0
964.0
968.0
965.0
966.0
963.0
964.0
964.0
965.0
970.0
967.0
963.0
962.0
966.0
969.0
970.0
966.0
965.0
965.0
969.0
972.0
970.0
968.0
965.0
965.0
968.0
970.0
970.0
969.0
964.0
967.0
966.0
968.0
970.0
969.0
961.0
962.0
961.0
967.0
969.0
971.0
965.0
967.0
972.0
976.0
976.0
976.0
972.0
973.0
975.0
977.0
981.0
978.0
976.0
977.0
981.0
987.0
992.0
997.0
1004.0
1015.0
1030.0
1049.0
1069.0
1091.0
1115.0
1141.0
1171.0
1204.0
1227.0
1237.0
1227.0
1205.0
1165.0
1126.0
1079.0
1035.0
997.0
980.0
978.0
985.0
988.0
986.0
978.0
973.0
972.0
971.0
970.0
967.0
963.0
960.0
959.0
961.0
959.0
960.0
955.0
955.0
957.0
960.0
959.0
956.0
952.0
952.0
954.0
952.0
954.0
952.0
951.0
955.0
954.0
955.0
956.0
951.0
947.0
947.0
950.0
951.0
953.0
952.0
950.0
952.0
953.0
955.0
957.0
956.0
955.0
955.0
958.0
959.0
960.0
960.0
956.0
958.0
957.0
965.0
966.0
961.0
963.0
961.0
964.0
965.0
969.0
968.0
964.0
963.0
963.0
971.0
973.0
973.0
971.0
972.0
975.0
975.0
976.0
973.0
969.0
975.0
978.0
981.0
981.0
982.0
978.0
979.0
982.0
987.0
991.0
989.0
986.0
987.0
990.0
994.0
997.0
996.0
996.0
995.0
995.0
1000.0
1000.0
997.0
996.0
994.0
996.0
996.0
997.0
992.0
989.0
987.0
990.0
987.0
986.0
984.0
978.0
977.0
978.0
980.0
980.0
977.0
974.0
976.0
976.0
977.0
980.0
975.0
973.0
972.0
974.0
975.0
976.0
973.0
970.0
969.0
971.0
974.0
974.0
973.0
971.0
971.0
972.0
973.0
969.0
967.0
967.0
967.0
970.0
972.0
973.0
972.0
964.0
966.0
969.0
971.0
973.0
970.0
970.0
970.0
972.0
973.0
973.0
972.0
969.0
968.0
968.0
975.0
970.0
971.0
971.0
969.0
969.0
973.0
975.0
971.0
964.0
970.0
969.0
975.0
974.0
970.0
968.0
966.0
967.0
971.0
970.0
966.0
965.0
964.0
966.0
969.0
965.0
963.0
959.0
962.0
962.0
968.0
969.0
968.0
964.0
961.0
960.0
965.0
970.0
969.0
967.0
966.0
969.0
973.0
974.0
970.0
969.0
968.0
971.0
976.0
978.0
976.0
977.0
975.0
979.0
987.0
988.0
993.0
1001.0
1014.0
1032.0
1056.0
1081.0
1114.0
1139.0
1173.0
1202.0
1224.0
1233.0
1217.0
1180.0
1133.0
1087.0
1041.0
996.0
967.0
955.0
960.0
969.0
975.0
974.0
971.0
964.0
962.0
961.0
962.0
963.0
958.0
954.0
951.0
955.0
956.0
955.0
957.0
952.0
951.0
950.0
954.0
951.0
949.0
946.0
951.0
953.0
957.0
956.0
951.0
947.0
944.0
947.0
949.0
947.0
946.0
944.0
942.0
944.0
948.0
948.0
942.0
942.0
943.0
945.0
948.0
950.0
946.0
944.0
946.0
948.0
950.0
951.0
950.0
947.0
946.0
948.0
953.0
953.0
955.0
953.0
956.0
958.0
964.0
964.0
959.0
958.0
960.0
963.0
968.0
969.0
969.0
966.0
969.0
971.0
972.0
975.0
971.0
969.0
971.0
973.0
977.0
979.0
972.0
973.0
974.0
976.0
978.0
980.0
980.0
979.0
980.0
984.0
985.0
986.0
982.0
980.0
979.0
983.0
981.0
982.0
978.0
973.0
970.0
970.0
970.0
966.0
966.0
961.0
957.0
961.0
964.0
960.0
959.0
955.0
952.0
953.0
958.0
955.0
956.0
953.0
956.0
957.0
960.0
959.0
960.0
956.0
955.0
960.0
961.0
961.0
960.0
958.0
956.0
958.0
959.0
959.0
958.0
957.0
955.0
958.0
962.0
961.0
957.0
957.0
955.0
958.0
960.0
961.0
962.0
960.0
956.0
957.0
960.0
961.0
959.0
958.0
957.0
958.0
962.0
962.0
962.0
958.0
958.0
961.0
960.0
961.0
961.0
955.0
957.0
959.0
961.0
959.0
957.0
954.0
953.0
952.0
957.0
959.0
956.0
954.0
951.0
950.0
954.0
953.0
955.0
951.0
952.0
953.0
955.0
954.0
951.0
951.0
949.0
948.0
953.0
952.0
955.0
952.0
954.0
956.0
957.0
959.0
955.0
952.0
954.0
956.0
956.0
955.0
955.0
953.0
954.0
953.0
956.0
958.0
956.0
954.0
950.0
954.0
957.0
956.0
956.0
950.0
954.0
959.0
960.0
963.0
961.0
958.0
956.0
957.0
960.0
962.0
959.0
961.0
961.0
967.0
973.0
975.0
976.0
976.0
983.0
996.0
1009.0
1028.0
1049.0
1069.0
1095.0
1127.0
1156.0
1178.0
1198.0
1202.0
1190.0
1167.0
1132.0
1087.0
1040.0
996.0
968.0
957.0
960.0
964.0
965.0
966.0
966.0
966.0
967.0
965.0
959.0
952.0
949.0
948.0
948.0
947.0
945.0
940.0
940.0
940.0
942.0
941.0
939.0
936.0
940.0
943.0
947.0
946.0
940.0
938.0
938.0
940.0
942.0
944.0
941.0
941.0
939.0
943.0
946.0
943.0
940.0
940.0
941.0
944.0
948.0
950.0
945.0
943.0
942.0
947.0
949.0
947.0
944.0
942.0
944.0
944.0
949.0
946.0
945.0
942.0
944.0
947.0
952.0
954.0
952.0
950.0
950.0
952.0
955.0
957.0
955.0
957.0
958.0
962.0
969.0
970.0
970.0
969.0
968.0
972.0
976.0
975.0
976.0
969.0
973.0
979.0
981.0
982.0
980.0
980.0
977.0
980.0
982.0
985.0
984.0
981.0
983.0
985.0
986.0
985.0
985.0
980.0
978.0
982.0
983.0
984.0
980.0
975.0
972.0
972.0
973.0
968.0
965.0
966.0
964.0
964.0
968.0
965.0
964.0
963.0
960.0
963.0
964.0
964.0
964.0
962.0
960.0
963.0
966.0
967.0
962.0
962.0
966.0
967.0
970.0
968.0
966.0
964.0
963.0
964.0
968.0
968.0
967.0
965.0
962.0
963.0
966.0
967.0
965.0
962.0
963.0
964.0
963.0
963.0
960.0
956.0
959.0
962.0
963.0
964.0
961.0
960.0
959.0
962.0
962.0
962.0
958.0
957.0
958.0
960.0
961.0
959.0
958.0
956.0
954.0
958.0
959.0
959.0
958.0
957.0
958.0
959.0
960.0
960.0
958.0
952.0
955.0
959.0
963.0
962.0
962.0
959.0
959.0
961.0
965.0
964.0
962.0
960.0
957.0
961.0
962.0
963.0
961.0
958.0
959.0
959.0
959.0
962.0
958.0
958.0
959.0
962.0
965.0
971.0
968.0
965.0
970.0
976.0
986.0
996.0
1007.0
1017.0
1039.0
1065.0
1096.0
1127.0
1155.0
1180.0
1205.0
1212.0
1201.0
1168.0
1118.0
1065.0
1017.0
981.0
964.0
960.0
963.0
960.0
965.0
965.0
967.0
964.0
959.0
953.0
951.0
953.0
955.0
950.0
947.0
944.0
944.0
947.0
944.0
943.0
941.0
937.0
939.0
939.0
941.0
941.0
936.0
932.0
933.0
934.0
938.0
938.0
937.0
935.0
934.0
938.0
938.0
939.0
935.0
934.0
936.0
942.0
946.0
947.0
943.0
941.0
941.0
941.0
944.0
944.0
944.0
940.0
941.0
942.0
945.0
944.0
942.0
941.0
943.0
946.0
947.0
950.0
949.0
948.0
949.0
953.0
954.0
955.0
952.0
953.0
954.0
958.0
959.0
956.0
958.0
959.0
959.0
963.0
964.0
965.0
964.0
961.0
964.0
967.0
966.0
964.0
961.0
959.0
963.0
967.0
966.0
968.0
965.0
963.0
963.0
970.0
972.0
972.0
971.0
968.0
970.0
972.0
973.0
969.0
967.0
964.0
964.0
964.0
967.0
967.0
961.0
957.0
957.0
960.0
961.0
960.0
960.0
958.0
956.0
957.0
962.0
960.0
958.0
954.0
953.0
955.0
957.0
958.0
959.0
959.0
957.0
959.0
960.0
958.0
955.0
953.0
951.0
956.0
960.0
960.0
955.0
953.0
952.0
956.0
958.0
957.0
959.0
954.0
956.0
957.0
957.0
959.0
958.0
956.0
960.0
962.0
965.0
966.0
962.0
959.0
959.0
958.0
963.0
962.0
959.0
958.0
957.0
961.0
960.0
961.0
960.0
958.0
956.0
958.0
960.0
959.0
955.0
954.0
953.0
956.0
957.0
953.0
953.0
951.0
951.0
953.0
958.0
953.0
953.0
952.0
952.0
955.0
958.0
959.0
957.0
953.0
951.0
954.0
957.0
957.0
957.0
954.0
952.0
959.0
960.0
958.0
960.0
956.0
956.0
958.0
959.0
959.0
961.0
958.0
958.0
959.0
962.0
960.0
960.0
959.0
960.0
960.0
964.0
963.0
960.0
956.0
957.0
955.0
961.0
960.0
961.0
958.0
960.0
961.0
962.0
961.0
960.0
959.0
963.0
966.0
970.0
973.0
971.0
969.0
970.0
976.0
990.0
1002.0
1015.0
1030.0
1054.0
1083.0
1118.0
1149.0
1181.0
1210.0
1230.0
1228.0
1207.0
1167.0
1113.0
1058.0
1010.0
976.0
966.0
965.0
970.0
969.0
973.0
973.0
972.0
968.0
963.0
955.0
954.0
955.0
956.0
954.0
950.0
945.0
944.0
943.0
945.0
948.0
944.0
945.0
944.0
945.0
946.0
945.0
944.0
943.0
944.0
949.0
952.0
952.0
947.0
944.0
946.0
949.0
952.0
954.0
952.0
947.0
948.0
950.0
952.0
952.0
953.0
953.0
951.0
954.0
958.0
958.0
956.0
953.0
953.0
954.0
956.0
955.0
954.0
954.0
953.0
954.0
957.0
959.0
956.0
955.0
953.0
958.0
961.0
962.0
960.0
953.0
957.0
961.0
965.0
968.0
967.0
964.0
963.0
969.0
973.0
976.0
972.0
970.0
972.0
978.0
983.0
985.0
986.0
990.0
988.0
989.0
995.0
993.0
993.0
989.0
988.0
993.0
997.0
996.0
989.0
985.0
986.0
987.0
987.0
984.0
979.0
979.0
977.0
976.0
977.0
971.0
973.0
967.0
968.0
970.0
972.0
971.0
966.0
963.0
964.0
967.0
967.0
967.0
967.0
964.0
965.0
967.0
972.0
969.0
970.0
967.0
969.0
973.0
974.0
974.0
973.0
972.0
969.0
970.0
976.0
977.0
974.0
972.0
973.0
977.0
980.0
979.0
974.0
969.0
969.0
969.0
969.0
968.0
963.0
962.0
960.0
966.0
964.0
967.0
965.0
963.0
963.0
965.0
969.0
969.0
966.0
962.0
962.0
965.0
967.0
965.0
963.0
963.0
963.0
964.0
969.0
967.0
965.0
962.0
961.0
967.0
969.0
970.0
968.0
968.0
969.0
970.0
974.0
969.0
966.0
964.0
965.0
966.0
968.0
970.0
969.0
963.0
961.0
962.0
967.0
968.0
963.0
960.0
961.0
964.0
965.0
963.0
963.0
958.0
960.0
959.0
963.0
962.0
965.0
960.0
960.0
963.0
965.0
965.0
962.0
961.0
960.0
961.0
966.0
965.0
964.0
962.0
964.0
967.0
971.0
973.0
972.0
969.0
972.0
972.0
976.0
979.0
974.0
973.0
975.0
979.0
988.0
992.0
998.0
1006.0
1017.0
1038.0
1066.0
1090.0
1116.0
1144.0
1175.0
1203.0
1224.0
1224.0
1195.0
1154.0
1103.0
1058.0
1013.0
978.0
960.0
958.0
966.0
969.0
976.0
975.0
972.0
967.0
962.0
963.0
964.0
960.0
955.0
953.0
950.0
951.0
955.0
954.0
951.0
947.0
946.0
949.0
951.0
949.0
947.0
947.0
946.0
948.0
950.0
947.0
946.0
947.0
944.0
945.0
949.0
948.0
948.0
947.0
945.0
946.0
946.0
946.0
946.0
944.0
944.0
947.0
948.0
948.0
948.0
945.0
944.0
947.0
952.0
952.0
949.0
950.0
950.0
954.0
956.0
956.0
954.0
952.0
952.0
956.0
958.0
959.0
959.0
956.0
957.0
959.0
962.0
961.0
962.0
961.0
963.0
964.0
971.0
970.0
968.0
967.0
967.0
970.0
974.0
972.0
972.0
969.0
969.0
974.0
977.0
977.0
973.0
974.0
975.0
977.0
982.0
982.0
975.0
975.0
976.0
978.0
979.0
981.0
979.0
978.0
977.0
980.0
981.0
979.0
972.0
971.0
970.0
970.0
971.0
969.0
969.0
966.0
966.0
967.0
970.0
967.0
962.0
960.0
958.0
960.0
964.0
963.0
962.0
960.0
958.0
962.0
965.0
966.0
963.0
961.0
964.0
967.0
967.0
961.0
958.0
961.0
960.0
963.0
968.0
970.0
964.0
962.0
962.0
966.0
966.0
967.0
967.0
963.0
964.0
965.0
968.0
965.0
964.0
963.0
962.0
964.0
961.0
964.0
960.0
960.0
961.0
962.0
965.0
964.0
960.0
960.0
959.0
962.0
964.0
963.0
963.0
961.0
959.0
961.0
962.0
962.0
958.0
957.0
956.0
957.0
957.0
957.0
953.0
949.0
952.0
957.0
959.0
958.0
955.0
957.0
955.0
958.0
964.0
965.0
960.0
958.0
957.0
961.0
966.0
965.0
963.0
957.0
956.0
960.0
961.0
958.0
954.0
954.0
953.0
957.0
960.0
960.0
956.0
954.0
955.0
957.0
961.0
961.0
959.0
955.0
954.0
956.0
960.0
958.0
956.0
954.0
956.0
958.0
964.0
962.0
958.0
954.0
954.0
958.0
962.0
962.0
958.0
961.0
961.0
961.0
963.0
965.0
965.0
970.0
981.0
992.0
1008.0
1025.0
1040.0
1061.0
1086.0
1115.0
1148.0
1177.0
1198.0
1210.0
1211.0
1190.0
1157.0
1114.0
1068.0
1024.0
988.0
971.0
968.0
968.0
970.0
974.0
972.0
972.0
970.0
965.0
961.0
958.0
955.0
959.0
958.0
957.0
954.0
950.0
946.0
949.0
951.0
952.0
949.0
946.0
945.0
948.0
949.0
948.0
944.0
939.0
939.0
942.0
949.0
947.0
948.0
945.0
944.0
946.0
950.0
947.0
946.0
945.0
946.0
951.0
950.0
951.0
949.0
944.0
946.0
949.0
953.0
951.0
951.0
949.0
945.0
952.0
951.0
952.0
954.0
952.0
953.0
954.0
961.0
961.0
958.0
959.0
958.0
962.0
965.0
964.0
962.0
963.0
965.0
969.0
974.0
972.0
972.0
970.0
970.0
973.0
976.0
978.0
977.0
975.0
977.0
980.0
982.0
982.0
980.0
978.0
982.0
985.0
990.0
987.0
988.0
985.0
987.0
992.0
997.0
995.0
993.0
991.0
993.0
993.0
997.0
997.0
990.0
988.0
988.0
988.0
992.0
990.0
990.0
985.0
982.0
981.0
986.0
981.0
976.0
976.0
978.0
979.0
983.0
978.0
973.0
969.0
969.0
972.0
977.0
974.0
972.0
970.0
970.0
971.0
970.0
970.0
969.0
966.0
968.0
968.0
972.0
973.0
970.0
966.0
967.0
968.0
972.0
970.0
972.0
964.0
968.0
974.0
976.0
978.0
977.0
975.0
975.0
977.0
980.0
979.0
976.0
977.0
977.0
980.0
978.0
980.0
978.0
976.0
977.0
977.0
980.0
980.0
976.0
974.0
976.0
979.0
979.0
976.0
973.0
971.0
972.0
973.0
976.0
975.0
976.0
970.0
970.0
973.0
976.0
975.0
973.0
968.0
971.0
972.0
975.0
972.0
970.0
967.0
967.0
971.0
974.0
976.0
973.0
971.0
972.0
975.0
976.0
975.0
971.0
969.0
971.0
974.0
977.0
976.0
972.0
972.0
973.0
973.0
974.0
974.0
973.0
970.0
971.0
973.0
981.0
981.0
977.0
974.0
980.0
983.0
984.0
980.0
980.0
974.0
975.0
980.0
986.0
985.0
985.0
983.0
991.0
1002.0
1016.0
1021.0
1037.0
1055.0
1079.0
1108.0
1136.0
1163.0
1185.0
1207.0
1220.0
1222.0
1206.0
1165.0
1121.0
1075.0
1030.0
996.0
980.0
975.0
976.0
979.0
985.0
987.0
988.0
984.0
975.0
972.0
970.0
971.0
972.0
969.0
967.0
963.0
961.0
963.0
966.0
962.0
963.0
960.0
962.0
959.0
963.0
959.0
957.0
956.0
955.0
960.0
961.0
962.0
959.0
960.0
959.0
959.0
961.0
962.0
961.0
956.0
960.0
961.0
961.0
962.0
957.0
955.0
956.0
957.0
958.0
961.0
958.0
957.0
959.0
963.0
961.0
960.0
960.0
956.0
962.0
966.0
970.0
967.0
964.0
963.0
966.0
970.0
971.0
969.0
966.0
966.0
968.0
973.0
975.0
974.0
972.0
971.0
971.0
975.0
980.0
981.0
977.0
978.0
979.0
983.0
986.0
984.0
982.0
980.0
982.0
986.0
987.0
987.0
986.0
987.0
988.0
991.0
994.0
994.0
991.0
991.0
993.0
992.0
995.0
995.0
995.0
992.0
987.0
993.0
995.0
994.0
991.0
989.0
985.0
989.0
990.0
989.0
985.0
982.0
981.0
981.0
984.0
983.0
979.0
977.0
981.0
980.0
981.0
981.0
978.0
976.0
975.0
974.0
977.0
976.0
975.0
971.0
971.0
975.0
979.0
979.0
977.0
972.0
973.0
975.0
977.0
976.0
976.0
973.0
976.0
975.0
979.0
979.0
977.0
972.0
973.0
975.0
979.0
977.0
974.0
974.0
972.0
973.0
981.0
980.0
978.0
971.0
976.0
978.0
980.0
978.0
976.0
972.0
973.0
976.0
978.0
974.0
973.0
972.0
