# Simple Text Format
# Sampling Rate (Hz):= 360.00
# Resolution:= 12
# Labels:= ECG
973.0
979.0
974.0
975.0
973.0
977.0
979.0
983.0
981.0
977.0
976.0
975.0
978.0
978.0
978.0
976.0
974.0
975.0
974.0
975.0
974.0
972.0
969.0
972.0
975.0
975.0
973.0
969.0
967.0
969.0
973.0
974.0
971.0
969.0
971.0
975.0
975.0
977.0
977.0
971.0
971.0
972.0
975.0
977.0
977.0
971.0
969.0
969.0
970.0
971.0
971.0
968.0
968.0
970.0
973.0
976.0
974.0
969.0
968.0
969.0
974.0
976.0
977.0
981.0
992.0
1006.0
1024.0
1046.0
1076.0
1109.0
1145.0
1191.0
1235.0
1280.0
1314.0
1322.0
1303.0
1256.0
1198.0
1126.0
1049.0
978.0
935.0
929.0
941.0
958.0
968.0
973.0
970.0
968.0
969.0
963.0
964.0
959.0
950.0
951.0
949.0
949.0
948.0
943.0
942.0
944.0
948.0
949.0
948.0
946.0
941.0
945.0
947.0
947.0
947.0
944.0
943.0
946.0
951.0
951.0
950.0
946.0
946.0
946.0
951.0
952.0
953.0
949.0
945.0
951.0
950.0
952.0
951.0
951.0
949.0
952.0
956.0
957.0
958.0
953.0
955.0
954.0
958.0
958.0
960.0
959.0
956.0
960.0
960.0
962.0
962.0
961.0
960.0
963.0
966.0
970.0
966.0
969.0
969.0
972.0
978.0
979.0
979.0
977.0
975.0
979.0
988.0
991.0
990.0
986.0
985.0
990.0
995.0
997.0
999.0
994.0
993.0
995.0
999.0
1002.0
1002.0
997.0
997.0
997.0
1000.0
1002.0
1001.0
996.0
995.0
990.0
995.0
996.0
993.0
992.0
987.0
985.0
986.0
987.0
984.0
978.0
971.0
971.0
973.0
974.0
971.0
970.0
968.0
967.0
967.0
967.0
964.0
961.0
958.0
960.0
962.0
966.0
966.0
964.0
963.0
963.0
965.0
965.0
966.0
962.0
963.0
966.0
970.0
971.0
972.0
969.0
967.0
967.0
970.0
972.0
972.0
971.0
969.0
970.0
972.0
974.0
971.0
964.0
965.0
967.0
970.0
972.0
971.0
971.0
966.0
967.0
970.0
969.0
966.0
965.0
964.0
963.0
966.0
968.0
967.0
963.0
960.0
960.0
963.0
960.0
959.0
957.0
954.0
958.0
964.0
965.0
967.0
958.0
959.0
960.0
963.0
963.0
961.0
958.0
960.0
963.0
964.0
967.0
963.0
962.0
961.0
960.0
965.0
965.0
965.0
965.0
962.0
965.0
966.0
966.0
964.0
962.0
961.0
963.0
966.0
967.0
964.0
960.0
960.0
959.0
961.0
964.0
963.0
960.0
958.0
961.0
964.0
963.0
962.0
963.0
962.0
964.0
967.0
967.0
966.0
964.0
961.0
966.0
965.0
968.0
968.0
966.0
968.0
974.0
984.0
998.0
1009.0
1024.0
1047.0
1085.0
1127.0
1171.0
1209.0
1244.0
1277.0
1299.0
1292.0
1253.0
1193.0
1124.0
1057.0
987.0
939.0
923.0
927.0
942.0
952.0
964.0
968.0
969.0
963.0
956.0
955.0
953.0
951.0
951.0
946.0
945.0
942.0
947.0
946.0
945.0
943.0
944.0
944.0
943.0
944.0
945.0
942.0
938.0
937.0
941.0
946.0
950.0
946.0
944.0
941.0
942.0
943.0
946.0
946.0
944.0
945.0
946.0
949.0
951.0
947.0
942.0
940.0
941.0
943.0
947.0
944.0
946.0
943.0
947.0
948.0
948.0
947.0
945.0
946.0
950.0
953.0
955.0
954.0
951.0
948.0
952.0
956.0
958.0
958.0
956.0
958.0
957.0
961.0
965.0
968.0
966.0
968.0
970.0
973.0
974.0
973.0
974.0
972.0
976.0
977.0
979.0
978.0
977.0
976.0
980.0
983.0
983.0
987.0
986.0
983.0
985.0
988.0
992.0
988.0
985.0
988.0
989.0
990.0
991.0
988.0
987.0
985.0
985.0
986.0
986.0
982.0
977.0
974.0
971.0
970.0
968.0
965.0
963.0
961.0
962.0
962.0
965.0
962.0
960.0
957.0
960.0
962.0
961.0
960.0
959.0
958.0
959.0
965.0
968.0
965.0
961.0
958.0
962.0
964.0
968.0
969.0
966.0
961.0
962.0
966.0
967.0
964.0
964.0
962.0
965.0
969.0
970.0
969.0
964.0
960.0
966.0
969.0
969.0
967.0
966.0
962.0
962.0
961.0
962.0
960.0
959.0
960.0
960.0
964.0
966.0
961.0
960.0
958.0
961.0
963.0
965.0
960.0
957.0
956.0
956.0
963.0
965.0
963.0
956.0
955.0
959.0
961.0
965.0
964.0
964.0
959.0
959.0
958.0
961.0
959.0
956.0
952.0
954.0
958.0
957.0
960.0
960.0
956.0
956.0
959.0
962.0
961.0
959.0
957.0
961.0
962.0
966.0
963.0
962.0
956.0
960.0
962.0
965.0
963.0
958.0
957.0
958.0
962.0
961.0
961.0
959.0
958.0
960.0
962.0
966.0
966.0
965.0
961.0
960.0
965.0
965.0
966.0
962.0
960.0
962.0
964.0
964.0
964.0
961.0
958.0
960.0
959.0
960.0
958.0
957.0
954.0
958.0
959.0
958.0
955.0
955.0
958.0
961.0
964.0
966.0
967.0
962.0
962.0
962.0
967.0
970.0
968.0
967.0
963.0
969.0
974.0
982.0
987.0
995.0
1008.0
1030.0
1056.0
1090.0
1126.0
1164.0
1202.0
1246.0
1281.0
1305.0
1296.0
1263.0
1212.0
1151.0
1097.0
1037.0
976.0
935.0
927.0
934.0
951.0
966.0
968.0
963.0
956.0
954.0
955.0
956.0
954.0
945.0
941.0
940.0
947.0
948.0
947.0
941.0
939.0
944.0
943.0
946.0
942.0
941.0
941.0
942.0
941.0
945.0
945.0
943.0
941.0
940.0
942.0
942.0
944.0
941.0
938.0
944.0
944.0
946.0
946.0
941.0
939.0
943.0
943.0
947.0
946.0
945.0
945.0
945.0
946.0
947.0
945.0
939.0
939.0
942.0
946.0
949.0
951.0
950.0
949.0
949.0
953.0
955.0
957.0
954.0
951.0
956.0
960.0
965.0
965.0
961.0
960.0
962.0
968.0
971.0
972.0
969.0
968.0
971.0
974.0
976.0
974.0
971.0
970.0
972.0
976.0
975.0
974.0
972.0
975.0
976.0
977.0
980.0
979.0
977.0
978.0
981.0
984.0
982.0
981.0
981.0
977.0
980.0
985.0
991.0
987.0
981.0
979.0
983.0
985.0
984.0
983.0
978.0
974.0
975.0
973.0
974.0
972.0
968.0
966.0
965.0
967.0
965.0
961.0
958.0
960.0
961.0
963.0
965.0
964.0
958.0
958.0
959.0
961.0
963.0
961.0
960.0
958.0
958.0
960.0
962.0
961.0
958.0
959.0
961.0
961.0
958.0
958.0
955.0
954.0
953.0
956.0
957.0
957.0
957.0
955.0
956.0
961.0
964.0
960.0
956.0
955.0
958.0
960.0
963.0
965.0
964.0
961.0
963.0
963.0
963.0
961.0
959.0
958.0
959.0
962.0
962.0
962.0
958.0
957.0
953.0
960.0
959.0
958.0
954.0
952.0
955.0
956.0
957.0
957.0
951.0
951.0
954.0
957.0
959.0
957.0
953.0
952.0
953.0
955.0
957.0
953.0
950.0
950.0
955.0
956.0
959.0
958.0
957.0
958.0
957.0
958.0
962.0
960.0
960.0
961.0
964.0
964.0
964.0
964.0
959.0
958.0
959.0
965.0
975.0
983.0
990.0
1002.0
1027.0
1053.0
1086.0
1126.0
1170.0
1214.0
1252.0
1295.0
1315.0
1299.0
1253.0
1190.0
1120.0
1050.0
986.0
936.0
914.0
919.0
935.0
949.0
962.0
960.0
954.0
949.0
948.0
946.0
947.0
944.0
940.0
940.0
940.0
940.0
944.0
943.0
942.0
941.0
940.0
941.0
942.0
942.0
937.0
936.0
936.0
939.0
939.0
937.0
937.0
934.0
936.0
938.0
939.0
937.0
933.0
931.0
933.0
936.0
938.0
939.0
932.0
935.0
935.0
936.0
939.0
939.0
934.0
935.0
939.0
945.0
946.0
945.0
943.0
941.0
945.0
947.0
949.0
947.0
948.0
948.0
950.0
954.0
957.0
960.0
960.0
960.0
963.0
971.0
972.0
970.0
969.0
967.0
968.0
972.0
972.0
973.0
973.0
972.0
972.0
975.0
976.0
974.0
974.0
970.0
973.0
978.0
983.0
983.0
982.0
977.0
979.0
983.0
984.0
983.0
982.0
981.0
981.0
982.0
984.0
980.0
975.0
973.0
976.0
979.0
977.0
973.0
968.0
967.0
965.0
968.0
967.0
963.0
961.0
961.0
959.0
961.0
960.0
960.0
956.0
950.0
953.0
959.0
957.0
955.0
951.0
951.0
951.0
953.0
956.0
952.0
949.0
949.0
949.0
953.0
953.0
956.0
957.0
957.0
958.0
963.0
962.0
962.0
961.0
961.0
961.0
967.0
966.0
965.0
962.0
957.0
958.0
959.0
965.0
959.0
955.0
952.0
959.0
962.0
961.0
959.0
952.0
956.0
958.0
959.0
962.0
958.0
956.0
954.0
954.0
956.0
958.0
956.0
954.0
954.0
956.0
956.0
957.0
960.0
952.0
950.0
954.0
957.0
958.0
957.0
954.0
956.0
956.0
960.0
958.0
958.0
953.0
953.0
957.0
960.0
960.0
960.0
954.0
956.0
956.0
958.0
959.0
957.0
954.0
951.0
954.0
957.0
960.0
956.0
954.0
950.0
953.0
958.0
961.0
961.0
960.0
958.0
959.0
964.0
964.0
972.0
979.0
991.0
1010.0
1033.0
1063.0
1095.0
1136.0
1176.0
1218.0
1264.0
1299.0
1314.0
1297.0
1247.0
1187.0
1123.0
1055.0
987.0
936.0
919.0
929.0
947.0
960.0
970.0
968.0
960.0
959.0
958.0
957.0
949.0
939.0
938.0
940.0
943.0
942.0
940.0
942.0
939.0
939.0
941.0
941.0
941.0
939.0
940.0
940.0
941.0
945.0
944.0
939.0
937.0
937.0
942.0
940.0
940.0
938.0
937.0
938.0
944.0
947.0
944.0
943.0
942.0
944.0
949.0
949.0
948.0
946.0
944.0
946.0
950.0
948.0
946.0
946.0
943.0
945.0
949.0
947.0
945.0
943.0
943.0
938.0
945.0
945.0
948.0
947.0
948.0
952.0
956.0
960.0
955.0
957.0
957.0
959.0
965.0
967.0
967.0
963.0
963.0
967.0
973.0
974.0
973.0
971.0
970.0
974.0
977.0
980.0
982.0
980.0
978.0
982.0
989.0
991.0
992.0
989.0
990.0
991.0
995.0
996.0
992.0
988.0
985.0
982.0
984.0
984.0
982.0
976.0
972.0
971.0
970.0
969.0
966.0
963.0
961.0
961.0
963.0
967.0
964.0
961.0
957.0
958.0
961.0
963.0
962.0
958.0
956.0
959.0
965.0
963.0
961.0
960.0
960.0
960.0
962.0
966.0
963.0
961.0
960.0
962.0
962.0
959.0
960.0
957.0
955.0
957.0
961.0
964.0
961.0
956.0
955.0
957.0
960.0
958.0
959.0
959.0
958.0
959.0
962.0
960.0
958.0
957.0
953.0
955.0
960.0
961.0
956.0
953.0
953.0
954.0
961.0
959.0
957.0
955.0
954.0
957.0
958.0
959.0
954.0
954.0
952.0
956.0
957.0
960.0
959.0
953.0
950.0
956.0
956.0
955.0
951.0
948.0
944.0
947.0
953.0
953.0
951.0
946.0
949.0
952.0
956.0
959.0
956.0
954.0
954.0
954.0
955.0
959.0
954.0
950.0
951.0
954.0
955.0
958.0
956.0
954.0
947.0
952.0
952.0
953.0
952.0
949.0
947.0
948.0
952.0
955.0
953.0
944.0
942.0
948.0
950.0
951.0
951.0
948.0
947.0
950.0
953.0
955.0
952.0
951.0
953.0
956.0
959.0
959.0
958.0
957.0
956.0
960.0
959.0
961.0
959.0
957.0
954.0
957.0
963.0
963.0
973.0
978.0
992.0
1009.0
1030.0
1061.0
1095.0
1131.0
1174.0
1216.0
1256.0
1283.0
1282.0
1253.0
1199.0
1138.0
1075.0
1014.0
951.0
918.0
917.0
936.0
954.0
963.0
963.0
957.0
944.0
945.0
947.0
943.0
941.0
938.0
939.0
941.0
942.0
943.0
939.0
935.0
935.0
933.0
936.0
936.0
936.0
932.0
932.0
935.0
937.0
938.0
936.0
932.0
929.0
929.0
932.0
937.0
936.0
935.0
934.0
936.0
939.0
937.0
937.0
935.0
934.0
936.0
938.0
939.0
940.0
940.0
937.0
941.0
938.0
940.0
941.0
939.0
939.0
944.0
943.0
943.0
944.0
943.0
940.0
944.0
946.0
947.0
942.0
944.0
946.0
943.0
950.0
951.0
950.0
947.0
950.0
952.0
951.0
955.0
956.0
953.0
951.0
954.0
957.0
956.0
963.0
961.0
960.0
966.0
969.0
972.0
971.0
971.0
970.0
971.0
979.0
979.0
984.0
981.0
977.0
981.0
981.0
982.0
981.0
980.0
980.0
979.0
978.0
979.0
975.0
969.0
970.0
966.0
968.0
968.0
963.0
960.0
954.0
955.0
954.0
955.0
953.0
951.0
948.0
948.0
950.0
952.0
952.0
950.0
949.0
952.0
952.0
952.0
952.0
954.0
954.0
955.0
960.0
961.0
959.0
956.0
957.0
958.0
957.0
961.0
961.0
959.0
956.0
961.0
956.0
961.0
957.0
956.0
955.0
959.0
960.0
962.0
961.0
957.0
953.0
956.0
959.0
960.0
958.0
954.0
952.0
955.0
956.0
954.0
954.0
950.0
952.0
955.0
957.0
959.0
956.0
955.0
954.0
956.0
955.0
956.0
952.0
954.0
952.0
954.0
957.0
957.0
955.0
953.0
951.0
955.0
954.0
954.0
953.0
952.0
950.0
953.0
958.0
957.0
952.0
952.0
950.0
954.0
956.0
957.0
954.0
952.0
950.0
951.0
952.0
957.0
956.0
953.0
950.0
951.0
954.0
955.0
951.0
949.0
948.0
952.0
955.0
956.0
955.0
953.0
948.0
953.0
955.0
957.0
957.0
955.0
955.0
956.0
955.0
956.0
953.0
952.0
951.0
954.0
957.0
956.0
954.0
953.0
950.0
954.0
958.0
959.0
956.0
956.0
954.0
955.0
956.0
956.0
955.0
952.0
953.0
956.0
957.0
958.0
959.0
955.0
954.0
956.0
957.0
960.0
959.0
957.0
955.0
958.0
961.0
960.0
955.0
952.0
950.0
954.0
957.0
959.0
958.0
957.0
955.0
956.0
955.0
955.0
957.0
952.0
950.0
955.0
957.0
954.0
958.0
956.0
956.0
958.0
959.0
962.0
960.0
958.0
958.0
959.0
963.0
965.0
964.0
960.0
960.0
962.0
964.0
968.0
970.0
972.0
984.0
1000.0
1023.0
1051.0
1083.0
1120.0
1162.0
1209.0
1255.0
1293.0
1316.0
1302.0
1255.0
1185.0
1117.0
1049.0
983.0
935.0
927.0
939.0
961.0
973.0
971.0
962.0
956.0
955.0
957.0
954.0
951.0
942.0
942.0
942.0
945.0
945.0
943.0
940.0
943.0
944.0
947.0
946.0
943.0
941.0
939.0
944.0
945.0
945.0
942.0
941.0
937.0
938.0
941.0
940.0
940.0
936.0
934.0
935.0
939.0
938.0
938.0
936.0
934.0
935.0
939.0
939.0
937.0
935.0
931.0
939.0
942.0
944.0
941.0
940.0
941.0
946.0
950.0
951.0
950.0
951.0
952.0
955.0
958.0
958.0
958.0
957.0
957.0
961.0
962.0
964.0
966.0
965.0
962.0
964.0
968.0
968.0
968.0
968.0
968.0
974.0
978.0
980.0
981.0
977.0
981.0
984.0
989.0
987.0
988.0
987.0
988.0
991.0
994.0
994.0
992.0
990.0
992.0
990.0
994.0
990.0
986.0
982.0
979.0
980.0
980.0
980.0
978.0
975.0
970.0
970.0
974.0
971.0
970.0
967.0
965.0
966.0
968.0
969.0
966.0
965.0
962.0
962.0
965.0
962.0
962.0
961.0
960.0
966.0
967.0
969.0
966.0
965.0
966.0
967.0
970.0
971.0
972.0
970.0
969.0
968.0
968.0
967.0
967.0
964.0
967.0
970.0
968.0
971.0
970.0
967.0
967.0
968.0
968.0
971.0
968.0
968.0
969.0
971.0
970.0
970.0
968.0
968.0
970.0
971.0
970.0
972.0
966.0
967.0
964.0
965.0
966.0
967.0
965.0
961.0
956.0
963.0
964.0
966.0
964.0
961.0
961.0
961.0
966.0
967.0
965.0
964.0
961.0
964.0
964.0
967.0
966.0
964.0
961.0
967.0
966.0
967.0
963.0
962.0
959.0
961.0
961.0
963.0
963.0
962.0
956.0
961.0
965.0
965.0
964.0
960.0
961.0
963.0
965.0
967.0
967.0
963.0
961.0
963.0
964.0
965.0
964.0
962.0
961.0
964.0
969.0
972.0
970.0
967.0
966.0
969.0
973.0
977.0
982.0
992.0
1004.0
1025.0
1053.0
1087.0
1129.0
1170.0
1215.0
1259.0
1299.0
1311.0
1288.0
1228.0
1158.0
1087.0
1022.0
958.0
924.0
922.0
937.0
953.0
970.0
978.0
973.0
965.0
960.0
964.0
963.0
961.0
958.0
953.0
952.0
952.0
954.0
955.0
952.0
952.0
952.0
956.0
958.0
957.0
952.0
949.0
946.0
951.0
954.0
956.0
954.0
951.0
951.0
951.0
957.0
957.0
954.0
951.0
952.0
957.0
957.0
958.0
950.0
949.0
948.0
950.0
954.0
962.0
965.0
962.0
963.0
964.0
965.0
966.0
966.0
965.0
967.0
971.0
972.0
975.0
977.0
978.0
978.0
983.0
985.0
987.0
990.0
988.0
989.0
990.0
995.0
994.0
993.0
991.0
993.0
995.0
998.0
1000.0
997.0
997.0
994.0
995.0
998.0
999.0
998.0
997.0
999.0
1001.0
1002.0
1005.0
1003.0
998.0
996.0
1000.0
1001.0
1002.0
998.0
995.0
992.0
993.0
988.0
992.0
988.0
987.0
988.0
988.0
988.0
984.0
980.0
976.0
973.0
975.0
978.0
976.0
979.0
974.0
973.0
971.0
974.0
974.0
974.0
971.0
970.0
972.0
971.0
973.0
970.0
964.0
964.0
966.0
971.0
970.0
967.0
967.0
967.0
970.0
971.0
973.0
973.0
968.0
968.0
970.0
974.0
977.0
973.0
970.0
966.0
969.0
971.0
972.0
973.0
970.0
969.0
968.0
971.0
970.0
965.0
964.0
965.0
966.0
968.0
968.0
965.0
960.0
961.0
963.0
966.0
960.0
958.0
958.0
958.0
960.0
961.0
962.0
961.0
957.0
956.0
958.0
961.0
965.0
960.0
956.0
951.0
958.0
962.0
961.0
962.0
962.0
962.0
961.0
965.0
966.0
961.0
961.0
962.0
965.0
966.0
964.0
967.0
962.0
963.0
962.0
963.0
967.0
964.0
961.0
961.0
965.0
969.0
972.0
969.0
965.0
966.0
965.0
970.0
970.0
969.0
966.0
966.0
968.0
968.0
969.0
969.0
970.0
981.0
994.0
1011.0
1033.0
1058.0
1098.0
1143.0
1190.0
1236.0
1279.0
1310.0
1314.0
1286.0
1235.0
1169.0
1093.0
1017.0
953.0
925.0
930.0
949.0
961.0
971.0
972.0
968.0
967.0
968.0
967.0
963.0
961.0
961.0
957.0
961.0
959.0
957.0
951.0
951.0
951.0
955.0
955.0
955.0
951.0
949.0
951.0
954.0
952.0
952.0
948.0
947.0
948.0
952.0
951.0
949.0
947.0
947.0
946.0
947.0
953.0
953.0
951.0
951.0
955.0
956.0
955.0
956.0
953.0
954.0
957.0
963.0
963.0
958.0
958.0
958.0
959.0
963.0
967.0
967.0
964.0
965.0
964.0
969.0
970.0
967.0
965.0
966.0
972.0
976.0
979.0
981.0
977.0
976.0
978.0
981.0
981.0
978.0
981.0
980.0
982.0
985.0
985.0
981.0
979.0
981.0
985.0
990.0
992.0
992.0
992.0
993.0
995.0
998.0
1000.0
997.0
994.0
995.0
999.0
1000.0
1003.0
998.0
994.0
990.0
992.0
993.0
991.0
987.0
984.0
981.0
983.0
979.0
980.0
977.0
972.0
970.0
970.0
971.0
970.0
967.0
965.0
966.0
967.0
967.0
967.0
965.0
962.0
963.0
969.0
970.0
972.0
967.0
963.0
966.0
969.0
970.0
969.0
971.0
968.0
967.0
973.0
976.0
975.0
971.0
971.0
974.0
974.0
979.0
979.0
974.0
973.0
972.0
973.0
975.0
974.0
973.0
970.0
969.0
973.0
976.0
976.0
971.0
969.0
964.0
965.0
969.0
968.0
964.0
963.0
961.0
964.0
965.0
965.0
961.0
958.0
959.0
961.0
962.0
965.0
962.0
959.0
958.0
959.0
962.0
960.0
960.0
959.0
958.0
958.0
962.0
963.0
963.0
961.0
956.0
958.0
963.0
962.0
962.0
959.0
959.0
960.0
963.0
963.0
961.0
953.0
957.0
960.0
961.0
960.0
957.0
956.0
955.0
960.0
963.0
962.0
960.0
954.0
957.0
960.0
962.0
961.0
957.0
952.0
953.0
956.0
960.0
962.0
960.0
957.0
957.0
958.0
960.0
958.0
957.0
955.0
955.0
957.0
961.0
959.0
960.0
952.0
955.0
956.0
959.0
959.0
958.0
955.0
954.0
957.0
960.0
958.0
956.0
957.0
958.0
960.0
964.0
964.0
963.0
959.0
957.0
960.0
961.0
961.0
959.0
957.0
959.0
961.0
961.0
962.0
960.0
956.0
955.0
957.0
960.0
962.0
960.0
959.0
958.0
955.0
955.0
958.0
956.0
953.0
952.0
956.0
959.0
961.0
957.0
956.0
955.0
959.0
960.0
961.0
960.0
957.0
955.0
959.0
962.0
962.0
960.0
956.0
957.0
961.0
963.0
966.0
962.0
959.0
961.0
962.0
965.0
966.0
964.0
961.0
961.0
965.0
966.0
967.0
967.0
965.0
963.0
965.0
967.0
968.0
966.0
963.0
961.0
966.0
965.0
965.0
963.0
959.0
959.0
960.0
963.0
963.0
963.0
961.0
962.0
963.0
965.0
964.0
962.0
957.0
954.0
957.0
964.0
963.0
961.0
958.0
959.0
962.0
965.0
961.0
961.0
957.0
955.0
958.0
963.0
963.0
959.0
958.0
957.0
960.0
963.0
963.0
963.0
963.0
964.0
966.0
971.0
971.0
966.0
965.0
964.0
965.0
968.0
972.0
970.0
964.0
966.0
968.0
970.0
971.0
969.0
967.0
965.0
969.0
973.0
971.0
969.0
967.0
965.0
969.0
973.0
973.0
972.0
969.0
970.0
972.0
973.0
976.0
977.0
988.0
998.0
1020.0
1042.0
1069.0
1100.0
1128.0
1162.0
1194.0
1230.0
1270.0
1305.0
1326.0
1316.0
1281.0
1225.0
1168.0
1111.0
1059.0
1006.0
971.0
955.0
956.0
967.0
979.0
979.0
977.0
972.0
966.0
959.0
958.0
954.0
953.0
954.0
950.0
953.0
947.0
946.0
949.0
948.0
946.0
946.0
941.0
940.0
944.0
945.0
947.0
944.0
941.0
942.0
942.0
943.0
942.0
943.0
942.0
944.0
944.0
948.0
950.0
946.0
945.0
941.0
950.0
951.0
949.0
948.0
948.0
948.0
952.0
953.0
952.0
953.0
951.0
950.0
952.0
955.0
954.0
953.0
952.0
952.0
950.0
954.0
957.0
956.0
955.0
955.0
959.0
961.0
960.0
960.0
957.0
959.0
961.0
966.0
969.0
971.0
971.0
975.0
981.0
985.0
983.0
983.0
984.0
984.0
989.0
991.0
990.0
991.0
990.0
990.0
990.0
994.0
993.0
992.0
990.0
993.0
996.0
1002.0
1001.0
1001.0
1000.0
1003.0
1005.0
1009.0
1008.0
1006.0
1005.0
1004.0
1008.0
1009.0
1009.0
1007.0
1004.0
1002.0
1003.0
1003.0
1000.0
997.0
988.0
987.0
991.0
991.0
989.0
985.0
980.0
977.0
975.0
978.0
975.0
976.0
973.0
970.0
974.0
975.0
974.0
971.0
971.0
969.0
970.0
973.0
973.0
973.0
971.0
970.0
972.0
974.0
973.0
971.0
969.0
966.0
971.0
973.0
974.0
972.0
967.0
969.0
971.0
972.0
974.0
973.0
971.0
974.0
976.0
977.0
974.0
971.0
967.0
970.0
972.0
974.0
972.0
970.0
966.0
966.0
969.0
970.0
968.0
965.0
962.0
962.0
967.0
965.0
965.0
963.0
962.0
960.0
963.0
965.0
964.0
960.0
959.0
960.0
963.0
967.0
966.0
964.0
961.0
961.0
963.0
966.0
968.0
968.0
967.0
965.0
967.0
972.0
970.0
965.0
964.0
960.0
962.0
966.0
967.0
965.0
963.0
964.0
965.0
967.0
965.0
960.0
959.0
959.0
960.0
961.0
959.0
958.0
954.0
953.0
955.0
957.0
957.0
954.0
952.0
954.0
956.0
963.0
962.0
960.0
956.0
958.0
963.0
963.0
964.0
965.0
961.0
962.0
959.0
962.0
963.0
961.0
957.0
956.0
958.0
962.0
962.0
961.0
957.0
956.0
959.0
963.0
962.0
960.0
956.0
957.0
960.0
959.0
960.0
957.0
957.0
954.0
958.0
959.0
959.0
955.0
952.0
951.0
953.0
958.0
959.0
959.0
953.0
953.0
955.0
962.0
964.0
963.0
961.0
961.0
964.0
965.0
964.0
963.0
961.0
959.0
963.0
967.0
965.0
962.0
961.0
961.0
963.0
966.0
965.0
962.0
961.0
960.0
962.0
966.0
966.0
963.0
961.0
961.0
964.0
966.0
965.0
962.0
958.0
958.0
961.0
963.0
965.0
963.0
958.0
959.0
958.0
958.0
960.0
961.0
960.0
956.0
961.0
966.0
966.0
967.0
963.0
962.0
966.0
969.0
969.0
967.0
967.0
965.0
968.0
972.0
975.0
981.0
992.0
1009.0
1033.0
1062.0
1093.0
1129.0
1166.0
1203.0
1248.0
1289.0
1316.0
1325.0
1299.0
1241.0
1176.0
1111.0
1043.0
981.0
944.0
934.0
943.0
960.0
974.0
973.0
967.0
962.0
961.0
962.0
957.0
950.0
948.0
945.0
945.0
950.0
949.0
946.0
941.0
940.0
943.0
946.0
941.0
937.0
938.0
937.0
941.0
944.0
943.0
942.0
941.0
940.0
943.0
947.0
945.0
945.0
939.0
940.0
945.0
949.0
948.0
944.0
941.0
941.0
940.0
944.0
945.0
944.0
939.0
941.0
942.0
948.0
947.0
946.0
944.0
945.0
950.0
954.0
955.0
953.0
948.0
949.0
950.0
953.0
956.0
958.0
957.0
961.0
963.0
968.0
968.0
966.0
964.0
965.0
969.0
972.0
976.0
974.0
974.0
975.0
979.0
981.0
983.0
982.0
983.0
982.0
987.0
989.0
987.0
985.0
984.0
982.0
987.0
987.0
988.0
985.0
987.0
986.0
987.0
991.0
992.0
990.0
989.0
989.0
988.0
989.0
987.0
984.0
985.0
984.0
987.0
987.0
986.0
981.0
977.0
978.0
982.0
981.0
980.0
973.0
974.0
970.0
971.0
971.0
971.0
967.0
963.0
961.0
963.0
962.0
964.0
962.0
960.0
957.0
960.0
963.0
962.0
960.0
960.0
955.0
958.0
964.0
959.0
957.0
957.0
956.0
959.0
961.0
962.0
958.0
956.0
956.0
959.0
957.0
956.0
959.0
956.0
957.0
957.0
963.0
963.0
961.0
959.0
959.0
963.0
966.0
966.0
965.0
961.0
960.0
965.0
967.0
969.0
967.0
963.0
964.0
964.0
965.0
963.0
961.0
961.0
961.0
958.0
964.0
961.0
955.0
952.0
954.0
956.0
960.0
955.0
955.0
953.0
951.0
953.0
956.0
959.0
955.0
953.0
955.0
957.0
953.0
954.0
952.0
950.0
952.0
952.0
957.0
957.0
952.0
953.0
955.0
956.0
960.0
956.0
956.0
955.0
959.0
960.0
962.0
961.0
961.0
955.0
958.0
957.0
961.0
958.0
955.0
953.0
952.0
952.0
956.0
959.0
956.0
950.0
951.0
954.0
957.0
957.0
957.0
955.0
955.0
957.0
960.0
957.0
955.0
952.0
950.0
953.0
957.0
958.0
957.0
955.0
953.0
955.0
959.0
960.0
957.0
956.0
960.0
966.0
971.0
970.0
968.0
966.0
973.0
982.0
999.0
1012.0
1037.0
1064.0
1099.0
1140.0
1185.0
1222.0
1260.0
1287.0
1293.0
1268.0
1219.0
1151.0
1077.0
1007.0
946.0
916.0
920.0
935.0
950.0
957.0
964.0
965.0
963.0
957.0
953.0
949.0
943.0
942.0
948.0
945.0
945.0
942.0
937.0
936.0
938.0
937.0
936.0
933.0
933.0
936.0
940.0
941.0
941.0
936.0
935.0
938.0
940.0
938.0
937.0
933.0
940.0
941.0
945.0
943.0
942.0
940.0
943.0
946.0
949.0
948.0
946.0
944.0
942.0
946.0
947.0
946.0
947.0
948.0
949.0
948.0
955.0
955.0
952.0
951.0
951.0
955.0
955.0
954.0
954.0
951.0
954.0
956.0
962.0
962.0
961.0
960.0
961.0
966.0
971.0
971.0
969.0
969.0
969.0
972.0
980.0
980.0
981.0
979.0
982.0
986.0
989.0
992.0
988.0
987.0
983.0
988.0
993.0
995.0
996.0
996.0
1000.0
1000.0
1001.0
1000.0
997.0
993.0
991.0
990.0
994.0
992.0
989.0
984.0
979.0
978.0
980.0
977.0
974.0
968.0
965.0
968.0
969.0
965.0
961.0
959.0
955.0
956.0
959.0
959.0
954.0
953.0
950.0
954.0
958.0
959.0
957.0
955.0
954.0
956.0
962.0
961.0
960.0
955.0
956.0
960.0
965.0
962.0
960.0
957.0
962.0
964.0
966.0
968.0
965.0
961.0
961.0
965.0
972.0
969.0
968.0
965.0
963.0
965.0
965.0
966.0
964.0
964.0
962.0
964.0
964.0
962.0
962.0
959.0
958.0
960.0
966.0
964.0
965.0
959.0
956.0
958.0
961.0
959.0
954.0
954.0
955.0
957.0
961.0
958.0
960.0
960.0
957.0
958.0
959.0
959.0
958.0
954.0
955.0
958.0
963.0
960.0
958.0
959.0
956.0
957.0
961.0
961.0
961.0
959.0
957.0
958.0
964.0
965.0
958.0
956.0
957.0
958.0
963.0
964.0
962.0
957.0
959.0
960.0
965.0
963.0
958.0
960.0
961.0
963.0
966.0
967.0
962.0
960.0
959.0
962.0
965.0
964.0
963.0
960.0
960.0
958.0
963.0
964.0
960.0
959.0
958.0
965.0
972.0
981.0
991.0
1002.0
1020.0
1044.0
1079.0
1114.0
1151.0
1187.0
1220.0
1260.0
1289.0
1296.0
1271.0
1221.0
1158.0
1097.0
1036.0
971.0
930.0
914.0
928.0
947.0
963.0
969.0
968.0
965.0
961.0
961.0
959.0
960.0
954.0
951.0
947.0
950.0
952.0
950.0
948.0
945.0
943.0
946.0
948.0
948.0
944.0
943.0
944.0
947.0
948.0
946.0
946.0
944.0
945.0
945.0
946.0
945.0
940.0
939.0
942.0
946.0
951.0
948.0
946.0
942.0
941.0
944.0
947.0
948.0
948.0
946.0
943.0
949.0
950.0
951.0
946.0
943.0
947.0
951.0
