# Simple Text Format
# Sampling Rate (Hz):= 360.00
# Resolution:= 12
# Labels:= ECG
1007.0
1004.0
1003.0
1002.0
1003.0
1002.0
1006.0
1000.0
1001.0
998.0
999.0
1002.0
1003.0
1005.0
1002.0
999.0
1000.0
1003.0
1001.0
1003.0
1000.0
999.0
996.0
1001.0
1002.0
1003.0
999.0
997.0
999.0
1001.0
1004.0
1003.0
997.0
997.0
1000.0
999.0
1003.0
1003.0
1001.0
1002.0
1002.0
1005.0
1005.0
1000.0
993.0
994.0
996.0
1001.0
1000.0
1001.0
997.0
997.0
999.0
1000.0
1002.0
1000.0
995.0
995.0
999.0
1001.0
1002.0
1000.0
998.0
994.0
997.0
999.0
995.0
994.0
991.0
991.0
989.0
990.0
994.0
989.0
988.0
989.0
991.0
992.0
995.0
992.0
992.0
989.0
994.0
996.0
991.0
991.0
988.0
988.0
988.0
995.0
995.0
996.0
992.0
991.0
990.0
993.0
996.0
995.0
992.0
988.0
990.0
991.0
996.0
996.0
996.0
993.0
994.0
996.0
994.0
990.0
990.0
989.0
990.0
993.0
995.0
993.0
987.0
984.0
986.0
990.0
991.0
987.0
985.0
984.0
988.0
990.0
992.0
989.0
988.0
991.0
986.0
990.0
988.0
989.0
987.0
987.0
989.0
993.0
994.0
991.0
992.0
986.0
993.0
992.0
996.0
995.0
992.0
990.0
992.0
998.0
1000.0
1002.0
995.0
995.0
996.0
996.0
998.0
997.0
994.0
992.0
994.0
993.0
997.0
994.0
992.0
988.0
992.0
994.0
996.0
989.0
987.0
986.0
987.0
987.0
991.0
989.0
988.0
987.0
987.0
990.0
995.0
993.0
990.0
992.0
992.0
992.0
998.0
998.0
999.0
997.0
994.0
996.0
1001.0
1003.0
1004.0
1009.0
1024.0
1034.0
1053.0
1071.0
1092.0
1119.0
1156.0
1201.0
1247.0
1289.0
1316.0
1323.0
1305.0
1262.0
1204.0
1142.0
1081.0
1024.0
986.0
974.0
980.0
989.0
995.0
1000.0
998.0
993.0
989.0
987.0
978.0
976.0
978.0
979.0
980.0
976.0
974.0
971.0
972.0
974.0
975.0
975.0
971.0
972.0
970.0
974.0
975.0
975.0
971.0
972.0
972.0
975.0
977.0
979.0
976.0
972.0
973.0
978.0
979.0
978.0
976.0
976.0
977.0
980.0
979.0
979.0
975.0
975.0
976.0
978.0
977.0
977.0
973.0
971.0
974.0
978.0
975.0
976.0
975.0
975.0
973.0
976.0
978.0
979.0
981.0
978.0
979.0
983.0
986.0
985.0
983.0
983.0
987.0
992.0
993.0
994.0
990.0
990.0
989.0
995.0
998.0
999.0
997.0
998.0
1000.0
1003.0
1006.0
1004.0
1005.0
1006.0
1009.0
1015.0
1014.0
1016.0
1015.0
1016.0
1014.0
1019.0
1022.0
1022.0
1016.0
1018.0
1019.0
1016.0
1018.0
1016.0
1013.0
1008.0
1010.0
1012.0
1009.0
1006.0
999.0
999.0
1000.0
1003.0
1004.0
999.0
993.0
992.0
995.0
990.0
995.0
991.0
990.0
991.0
992.0
992.0
994.0
993.0
991.0
991.0
991.0
996.0
996.0
993.0
992.0
992.0
994.0
1000.0
1000.0
997.0
995.0
994.0
1000.0
1003.0
1002.0
1001.0
998.0
996.0
996.0
999.0
1000.0
997.0
995.0
993.0
993.0
995.0
997.0
996.0
993.0
988.0
989.0
992.0
993.0
994.0
991.0
992.0
994.0
994.0
997.0
997.0
993.0
995.0
995.0
998.0
997.0
999.0
998.0
997.0
996.0
999.0
997.0
998.0
995.0
991.0
993.0
996.0
996.0
996.0
993.0
993.0
993.0
997.0
996.0
995.0
991.0
990.0
990.0
992.0
991.0
992.0
992.0
991.0
995.0
993.0
998.0
997.0
996.0
991.0
991.0
994.0
995.0
995.0
992.0
990.0
989.0
992.0
995.0
993.0
990.0
990.0
989.0
995.0
995.0
994.0
991.0
995.0
994.0
997.0
999.0
999.0
996.0
996.0
1000.0
1005.0
1008.0
1007.0
1012.0
1018.0
1031.0
1050.0
1069.0
1095.0
1124.0
1162.0
1205.0
1248.0
1289.0
1315.0
1324.0
1306.0
1267.0
1219.0
1157.0
1087.0
1025.0
985.0
971.0
978.0
990.0
995.0
998.0
998.0
1002.0
999.0
999.0
995.0
987.0
985.0
984.0
986.0
984.0
985.0
981.0
980.0
981.0
983.0
984.0
982.0
979.0
979.0
979.0
981.0
985.0
982.0
979.0
976.0
979.0
981.0
981.0
981.0
979.0
979.0
981.0
981.0
985.0
982.0
981.0
979.0
984.0
985.0
986.0
986.0
988.0
988.0
987.0
988.0
990.0
986.0
985.0
983.0
986.0
989.0
992.0
990.0
989.0
987.0
989.0
991.0
992.0
993.0
992.0
993.0
994.0
999.0
1000.0
1001.0
995.0
998.0
999.0
1004.0
1006.0
1004.0
1001.0
998.0
1000.0
1004.0
1005.0
1004.0
1001.0
1000.0
1003.0
1007.0
1013.0
1012.0
1009.0
1010.0
1017.0
1019.0
1023.0
1023.0
1020.0
1022.0
1025.0
1028.0
1033.0
1033.0
1029.0
1029.0
1032.0
1034.0
1032.0
1031.0
1029.0
1028.0
1028.0
1028.0
1025.0
1025.0
1020.0
1019.0
1019.0
1021.0
1018.0
1016.0
1008.0
1005.0
1005.0
1006.0
1006.0
1005.0
1001.0
998.0
999.0
997.0
997.0
994.0
993.0
989.0
992.0
992.0
997.0
996.0
994.0
995.0
998.0
1001.0
1003.0
1001.0
998.0
999.0
1001.0
1006.0
1008.0
1008.0
1004.0
1006.0
1003.0
1010.0
1012.0
1007.0
1004.0
1005.0
1006.0
1010.0
1009.0
1009.0
1008.0
1006.0
1007.0
1012.0
1010.0
1008.0
1004.0
1003.0
1004.0
1009.0
1004.0
1001.0
998.0
995.0
999.0
1000.0
1000.0
1000.0
994.0
993.0
995.0
997.0
998.0
996.0
994.0
993.0
995.0
996.0
998.0
998.0
996.0
995.0
998.0
999.0
1002.0
999.0
997.0
996.0
1000.0
1002.0
1003.0
999.0
998.0
998.0
1002.0
1005.0
1003.0
1002.0
1001.0
1000.0
1001.0
1007.0
1006.0
1004.0
1004.0
1002.0
1002.0
1003.0
1004.0
1001.0
997.0
994.0
998.0
1001.0
1004.0
999.0
997.0
995.0
996.0
999.0
998.0
995.0
994.0
990.0
994.0
995.0
997.0
999.0
995.0
995.0
995.0
1000.0
999.0
996.0
995.0
995.0
996.0
1000.0
999.0
995.0
994.0
995.0
997.0
999.0
1002.0
999.0
999.0
997.0
997.0
1001.0
1003.0
1002.0
1001.0
999.0
999.0
1002.0
1002.0
1002.0
1001.0
998.0
999.0
1000.0
1003.0
999.0
998.0
995.0
995.0
999.0
1000.0
999.0
997.0
996.0
995.0
1000.0
1002.0
997.0
995.0
992.0
996.0
1002.0
1003.0
1002.0
995.0
995.0
999.0
1004.0
1005.0
1001.0
999.0
996.0
999.0
1002.0
1003.0
1003.0
999.0
999.0
1002.0
1003.0
1005.0
1004.0
999.0
999.0
1003.0
1005.0
1007.0
1003.0
1002.0
999.0
1001.0
1001.0
1002.0
999.0
997.0
996.0
998.0
1001.0
1000.0
999.0
995.0
993.0
995.0
1001.0
1004.0
1000.0
998.0
999.0
999.0
1005.0
1005.0
1002.0
999.0
999.0
1003.0
1005.0
1006.0
1005.0
1000.0
998.0
998.0
1001.0
1004.0
1003.0
1001.0
1000.0
1004.0
1002.0
1007.0
1005.0
998.0
1000.0
1001.0
1008.0
1012.0
1008.0
1004.0
1001.0
1005.0
1007.0
1005.0
1003.0
1002.0
999.0
1000.0
1003.0
1004.0
1002.0
1000.0
999.0
999.0
999.0
1001.0
1001.0
997.0
997.0
998.0
1002.0
1001.0
1000.0
998.0
999.0
1001.0
1003.0
1003.0
1001.0
1001.0
1000.0
1001.0
1003.0
1007.0
1006.0
1004.0
1002.0
1005.0
1009.0
1009.0
1005.0
1005.0
1003.0
1004.0
1006.0
1009.0
1011.0
1008.0
1008.0
1013.0
1017.0
1018.0
1016.0
1013.0
1015.0
1023.0
1033.0
1049.0
1066.0
1084.0
1107.0
1137.0
1171.0
1206.0
1238.0
1269.0
1302.0
1323.0
1318.0
1282.0
1228.0
1174.0
1119.0
1072.0
1032.0
1007.0
998.0
1002.0
1013.0
1018.0
1019.0
1012.0
1008.0
1004.0
999.0
996.0
997.0
996.0
994.0
988.0
987.0
984.0
986.0
988.0
986.0
982.0
978.0
981.0
984.0
986.0
985.0
985.0
983.0
985.0
987.0
987.0
986.0
978.0
979.0
980.0
982.0
984.0
982.0
977.0
978.0
982.0
984.0
984.0
984.0
984.0
982.0
984.0
988.0
988.0
987.0
985.0
984.0
985.0
988.0
989.0
987.0
984.0
988.0
991.0
994.0
996.0
997.0
995.0
995.0
999.0
1003.0
1003.0
1001.0
999.0
1001.0
1003.0
1004.0
1003.0
1001.0
1002.0
1004.0
1006.0
1005.0
1010.0
1008.0
1009.0
1010.0
1014.0
1016.0
1015.0
1014.0
1013.0
1013.0
1018.0
1020.0
1020.0
1020.0
1018.0
1020.0
1022.0
1028.0
1029.0
1028.0
1024.0
1028.0
1029.0
1033.0
1037.0
1033.0
1032.0
1034.0
1038.0
1040.0
1041.0
1038.0
1036.0
1035.0
1037.0
1039.0
1034.0
1030.0
1027.0
1021.0
1022.0
1025.0
1025.0
1018.0
1014.0
1012.0
1010.0
1013.0
1011.0
1008.0
1003.0
1002.0
1007.0
1009.0
1010.0
1008.0
1006.0
1005.0
1006.0
1005.0
1006.0
999.0
998.0
998.0
997.0
999.0
999.0
997.0
994.0
993.0
995.0
1001.0
1001.0
997.0
993.0
994.0
998.0
999.0
1000.0
1001.0
993.0
992.0
997.0
1000.0
1001.0
1000.0
996.0
998.0
1000.0
1001.0
1006.0
1006.0
1001.0
1000.0
1003.0
1001.0
1006.0
1004.0
1002.0
1002.0
1003.0
1004.0
1004.0
1002.0
998.0
995.0
999.0
1002.0
1001.0
1000.0
999.0
998.0
998.0
1000.0
1000.0
999.0
994.0
992.0
994.0
995.0
995.0
991.0
986.0
987.0
986.0
992.0
992.0
990.0
985.0
985.0
986.0
991.0
992.0
987.0
986.0
987.0
990.0
992.0
992.0
992.0
990.0
990.0
994.0
996.0
996.0
995.0
988.0
988.0
989.0
995.0
997.0
991.0
988.0
988.0
991.0
994.0
994.0
991.0
990.0
989.0
991.0
995.0
997.0
995.0
990.0
985.0
988.0
994.0
991.0
990.0
987.0
985.0
984.0
988.0
993.0
990.0
986.0
984.0
986.0
991.0
992.0
991.0
987.0
986.0
990.0
989.0
991.0
991.0
988.0
989.0
992.0
995.0
996.0
993.0
990.0
989.0
993.0
997.0
997.0
996.0
992.0
988.0
989.0
992.0
994.0
993.0
991.0
991.0
993.0
994.0
993.0
994.0
992.0
992.0
992.0
994.0
996.0
995.0
988.0
990.0
992.0
993.0
991.0
990.0
985.0
986.0
986.0
992.0
987.0
989.0
983.0
985.0
987.0
989.0
991.0
995.0
993.0
993.0
995.0
998.0
997.0
996.0
991.0
992.0
993.0
999.0
1000.0
996.0
993.0
995.0
1001.0
1001.0
1002.0
1000.0
996.0
997.0
998.0
1000.0
999.0
998.0
995.0
996.0
998.0
1000.0
1002.0
998.0
995.0
992.0
994.0
998.0
999.0
998.0
992.0
989.0
991.0
991.0
995.0
992.0
988.0
989.0
991.0
993.0
996.0
993.0
991.0
989.0
992.0
994.0
998.0
996.0
991.0
993.0
999.0
1002.0
1002.0
1003.0
1003.0
1001.0
1005.0
1012.0
1012.0
1010.0
1013.0
1015.0
1024.0
1038.0
1053.0
1071.0
1093.0
1123.0
1159.0
1199.0
1235.0
1271.0
1304.0
1321.0
1316.0
1281.0
1224.0
1161.0
1101.0
1053.0
1014.0
997.0
993.0
1003.0
1006.0
1009.0
1008.0
1005.0
1003.0
995.0
990.0
987.0
989.0
990.0
988.0
980.0
980.0
976.0
981.0
983.0
981.0
980.0
979.0
977.0
979.0
982.0
983.0
981.0
980.0
977.0
982.0
980.0
980.0
979.0
980.0
978.0
979.0
982.0
984.0
982.0
977.0
981.0
983.0
985.0
986.0
984.0
984.0
979.0
984.0
988.0
989.0
985.0
984.0
984.0
990.0
991.0
993.0
991.0
991.0
991.0
992.0
996.0
1000.0
997.0
998.0
997.0
998.0
1000.0
1001.0
1001.0
1000.0
1003.0
1003.0
1008.0
1011.0
1005.0
1001.0
1001.0
1007.0
1012.0
1013.0
1009.0
1008.0
1009.0
1014.0
1020.0
1024.0
1024.0
1020.0
1019.0
1023.0
1026.0
1027.0
1029.0
1023.0
1024.0
1028.0
1033.0
1036.0
1036.0
1032.0
1031.0
1036.0
1039.0
1040.0
1037.0
1035.0
1033.0
1034.0
1033.0
1032.0
1029.0
1023.0
1016.0
1017.0
1021.0
1019.0
1015.0
1010.0
1008.0
1005.0
1007.0
1006.0
1003.0
1000.0
998.0
1000.0
1005.0
1001.0
1001.0
998.0
999.0
1000.0
1001.0
1000.0
1001.0
1001.0
996.0
999.0
1002.0
1004.0
1004.0
1000.0
1000.0
1003.0
1006.0
1005.0
1004.0
1001.0
1000.0
1002.0
1005.0
1010.0
1007.0
1004.0
1002.0
1003.0
1007.0
1005.0
1000.0
998.0
994.0
994.0
997.0
995.0
993.0
992.0
993.0
998.0
999.0
1000.0
998.0
991.0
994.0
995.0
1001.0
1001.0
997.0
994.0
992.0
993.0
998.0
997.0
995.0
996.0
994.0
996.0
997.0
998.0
996.0
996.0
996.0
999.0
1004.0
1003.0
999.0
996.0
995.0
997.0
998.0
999.0
992.0
992.0
990.0
995.0
998.0
1001.0
997.0
992.0
994.0
995.0
994.0
996.0
994.0
992.0
992.0
995.0
999.0
999.0
998.0
995.0
994.0
995.0
998.0
999.0
999.0
994.0
990.0
991.0
994.0
994.0
994.0
991.0
992.0
993.0
993.0
994.0
993.0
991.0
992.0
994.0
1000.0
998.0
995.0
992.0
990.0
992.0
996.0
997.0
998.0
992.0
991.0
991.0
994.0
994.0
992.0
988.0
988.0
990.0
995.0
995.0
993.0
994.0
995.0
991.0
995.0
995.0
991.0
992.0
992.0
995.0
995.0
1000.0
997.0
996.0
993.0
995.0
995.0
997.0
995.0
994.0
994.0
992.0
993.0
992.0
990.0
987.0
988.0
992.0
993.0
989.0
985.0
984.0
986.0
990.0
993.0
994.0
994.0
993.0
992.0
999.0
1003.0
1009.0
1017.0
1026.0
1038.0
1059.0
1089.0
1121.0
1156.0
1194.0
1237.0
1275.0
1302.0
1302.0
1268.0
1211.0
1147.0
1089.0
1035.0
996.0
979.0
981.0
994.0
1008.0
1010.0
1006.0
998.0
987.0
984.0
982.0
980.0
976.0
972.0
971.0
972.0
973.0
972.0
969.0
966.0
964.0
964.0
965.0
970.0
971.0
969.0
968.0
966.0
971.0
971.0
974.0
976.0
972.0
972.0
975.0
979.0
978.0
976.0
974.0
973.0
976.0
980.0
981.0
979.0
975.0
974.0
976.0
981.0
984.0
980.0
975.0
975.0
982.0
986.0
987.0
985.0
982.0
982.0
984.0
989.0
989.0
988.0
983.0
983.0
986.0
990.0
991.0
993.0
991.0
992.0
994.0
997.0
1002.0
1001.0
1001.0
1002.0
1003.0
1005.0
1006.0
1004.0
1002.0
1006.0
1009.0
1012.0
1012.0
1012.0
1008.0
1009.0
1017.0
1022.0
1023.0
1021.0
1018.0
1018.0
1025.0
1026.0
1026.0
1025.0
1022.0
1021.0
1021.0
1026.0
1022.0
1022.0
1017.0
1014.0
1017.0
1016.0
1010.0
1009.0
1006.0
1004.0
1007.0
1008.0
1006.0
1003.0
1000.0
1000.0
999.0
997.0
995.0
993.0
991.0
986.0
990.0
991.0
991.0
991.0
989.0
990.0
990.0
993.0
994.0
991.0
989.0
991.0
989.0
993.0
994.0
995.0
989.0
991.0
995.0
1000.0
1000.0
996.0
996.0
996.0
998.0
1002.0
1002.0
1001.0
996.0
996.0
999.0
1003.0
1002.0
999.0
994.0
996.0
999.0
1002.0
1000.0
998.0
991.0
995.0
997.0
999.0
998.0
998.0
994.0
993.0
989.0
994.0
992.0
990.0
990.0
989.0
995.0
995.0
994.0
989.0
989.0
988.0
991.0
990.0
991.0
989.0
987.0
987.0
990.0
995.0
994.0
992.0
990.0
989.0
993.0
993.0
997.0
996.0
994.0
992.0
995.0
997.0
1002.0
999.0
993.0
995.0
996.0
999.0
1002.0
1001.0
998.0
998.0
1000.0
1002.0
1003.0
1001.0
1000.0
999.0
1000.0
1002.0
1004.0
1006.0
1011.0
1024.0
1036.0
1051.0
1075.0
1103.0
1134.0
1170.0
1214.0
1258.0
1292.0
1310.0
1297.0
1266.0
1213.0
1156.0
1089.0
1026.0
978.0
961.0
969.0
985.0
992.0
995.0
996.0
995.0
995.0
992.0
987.0
989.0
986.0
986.0
985.0
988.0
987.0
984.0
981.0
981.0
981.0
983.0
982.0
981.0
976.0
973.0
977.0
978.0
978.0
977.0
976.0
974.0
979.0
982.0
983.0
976.0
976.0
978.0
984.0
986.0
982.0
984.0
981.0
981.0
985.0
984.0
987.0
985.0
981.0
983.0
982.0
982.0
988.0
985.0
982.0
987.0
989.0
992.0
994.0
991.0
994.0
993.0
997.0
1002.0
1000.0
997.0
997.0
999.0
1003.0
1006.0
1006.0
1006.0
1002.0
1004.0
1006.0
1010.0
1013.0
1010.0
1008.0
1011.0
1016.0
1022.0
1019.0
1019.0
1021.0
1019.0
1025.0
1028.0
1028.0
1026.0
1022.0
1021.0
1026.0
1026.0
1025.0
1023.0
1020.0
1023.0
1023.0
1024.0
1020.0
1015.0
1010.0
1008.0
1010.0
1012.0
1009.0
1008.0
1005.0
1004.0
1005.0
1006.0
1005.0
999.0
997.0
997.0
1002.0
1006.0
1004.0
1001.0
999.0
996.0
999.0
1003.0
1002.0
1001.0
996.0
999.0
1000.0
1002.0
999.0
999.0
997.0
997.0
1002.0
1003.0
1000.0
1002.0
998.0
999.0
1000.0
1004.0
1003.0
1001.0
1001.0
998.0
1000.0
1002.0
1000.0
1001.0
998.0
1001.0
1004.0
1008.0
1005.0
1003.0
997.0
993.0
998.0
1005.0
1005.0
1005.0
999.0
999.0
1000.0
1005.0
1001.0
1001.0
998.0
999.0
1002.0
1005.0
1001.0
1001.0
995.0
995.0
999.0
1004.0
1004.0
1001.0
997.0
997.0
997.0
1000.0
1003.0
1002.0
998.0
995.0
998.0
1003.0
1000.0
997.0
995.0
994.0
995.0
1001.0
999.0
1000.0
997.0
998.0
1002.0
1005.0
1000.0
999.0
997.0
998.0
1001.0
1001.0
1000.0
1000.0
999.0
999.0
1001.0
1003.0
1004.0
1002.0
999.0
998.0
1001.0
1006.0
1002.0
1003.0
999.0
999.0
999.0
1004.0
1004.0
1002.0
1001.0
1002.0
1005.0
1005.0
1004.0
1002.0
1001.0
1000.0
1001.0
1004.0
1005.0
1003.0
1001.0
1001.0
1003.0
1007.0
1009.0
1005.0
1000.0
1000.0
1002.0
1010.0
1011.0
1012.0
1012.0
1019.0
1032.0
1047.0
1063.0
1080.0
1105.0
1137.0
1175.0
1217.0
1258.0
1292.0
1311.0
1309.0
1285.0
1242.0
1183.0
1127.0
1070.0
1024.0
1002.0
1000.0
1008.0
1016.0
1015.0
1014.0
1014.0
1012.0
1006.0
1001.0
999.0
991.0
993.0
994.0
994.0
990.0
987.0
986.0
986.0
989.0
985.0
981.0
980.0
980.0
983.0
987.0
985.0
982.0
977.0
979.0
982.0
984.0
981.0
979.0
976.0
978.0
981.0
985.0
985.0
981.0
981.0
980.0
984.0
987.0
985.0
984.0
982.0
983.0
988.0
991.0
992.0
990.0
986.0
989.0
993.0
997.0
999.0
996.0
995.0
996.0
998.0
1000.0
1003.0
1002.0
1002.0
1001.0
1008.0
1007.0
1009.0
1011.0
1005.0
1007.0
1012.0
1013.0
1016.0
1016.0
1015.0
1015.0
1018.0
1021.0
1021.0
1020.0
1018.0
1019.0
1018.0
1026.0
1025.0
1023.0
1022.0
1026.0
1028.0
1033.0
1035.0
1033.0
1034.0
1033.0
1037.0
1041.0
1039.0
1037.0
1031.0
1035.0
1036.0
1038.0
1036.0
1032.0
1027.0
1026.0
1023.0
1023.0
1021.0
1020.0
1017.0
1018.0
1017.0
1017.0
1016.0
1011.0
1007.0
1007.0
1011.0
1011.0
1010.0
1009.0
1005.0
1005.0
1006.0
1012.0
1010.0
1008.0
1002.0
1003.0
1005.0
1009.0
1011.0
1009.0
1004.0
1005.0
1007.0
1007.0
1005.0
1007.0
1008.0
1009.0
1011.0
1014.0
1011.0
1012.0
1009.0
1008.0
1012.0
1015.0
1017.0
1011.0
1008.0
1009.0
1012.0
1011.0
1011.0
1006.0
1005.0
1004.0
1006.0
1011.0
1009.0
1006.0
1003.0
1001.0
1005.0
1011.0
1010.0
1009.0
1006.0
1004.0
1008.0
1010.0
1009.0
1010.0
1007.0
1007.0
1009.0
1009.0
1008.0
1006.0
1003.0
1002.0
1004.0
1009.0
1008.0
1008.0
1003.0
1003.0
1007.0
1011.0
1009.0
1005.0
1003.0
1005.0
1006.0
1007.0
1007.0
1001.0
1005.0
1004.0
1006.0
1007.0
1007.0
1005.0
999.0
1001.0
1003.0
1005.0
1006.0
1003.0
1001.0
1000.0
1001.0
1005.0
1002.0
1005.0
1001.0
1000.0
1002.0
1004.0
1004.0
998.0
998.0
997.0
998.0
1004.0
1003.0
999.0
996.0
996.0
996.0
1002.0
1004.0
1004.0
1005.0
1000.0
1006.0
1008.0
1008.0
1003.0
1003.0
1003.0
1005.0
1008.0
1006.0
1003.0
1000.0
999.0
999.0
1004.0
1003.0
1001.0
998.0
1000.0
1003.0
1005.0
1004.0
999.0
1002.0
1002.0
1005.0
1005.0
1007.0
1003.0
1000.0
1002.0
1006.0
1009.0
1009.0
1006.0
1001.0
1002.0
1005.0
1011.0
1010.0
1009.0
1010.0
1013.0
1017.0
1028.0
1039.0
1053.0
1068.0
1092.0
1120.0
1156.0
1191.0
1224.0
1253.0
1285.0
1306.0
1306.0
1277.0
1227.0
1170.0
1116.0
1072.0
1031.0
1009.0
1002.0
1005.0
1013.0
1019.0
1021.0
1015.0
1008.0
1001.0
997.0
997.0
999.0
991.0
987.0
985.0
985.0
985.0
986.0
984.0
980.0
980.0
977.0
981.0
984.0
983.0
979.0
977.0
976.0
983.0
982.0
980.0
979.0
977.0
979.0
981.0
985.0
983.0
983.0
979.0
979.0
982.0
987.0
985.0
983.0
981.0
980.0
985.0
989.0
991.0
986.0
983.0
984.0
985.0
987.0
989.0
986.0
985.0
987.0
990.0
993.0
992.0
991.0
985.0
990.0
993.0
997.0
995.0
993.0
993.0
993.0
996.0
1001.0
1002.0
998.0
999.0
1000.0
1002.0
1004.0
1008.0
1009.0
1008.0
1010.0
1012.0
1017.0
1017.0
1013.0
1015.0
1014.0
1018.0
1021.0
1020.0
1019.0
1016.0
1017.0
1022.0
1025.0
1029.0
1026.0
1025.0
1026.0
1029.0
1031.0
1030.0
1028.0
1026.0
1024.0
1027.0
1030.0
1027.0
1023.0
1020.0
1022.0
1021.0
1023.0
1019.0
1014.0
1009.0
1008.0
1009.0
1008.0
1009.0
1004.0
1002.0
1002.0
1006.0
1008.0
1002.0
1003.0
999.0
999.0
1001.0
1003.0
1003.0
1001.0
998.0
999.0
998.0
1001.0
998.0
994.0
995.0
996.0
1001.0
1006.0
1006.0
1002.0
1001.0
999.0
1002.0
1003.0
1005.0
1000.0
997.0
995.0
1000.0
1002.0
1003.0
998.0
996.0
996.0
1000.0
1002.0
1001.0
997.0
994.0
995.0
998.0
1001.0
999.0
997.0
996.0
996.0
997.0
1003.0
1003.0
999.0
998.0
997.0
997.0
1000.0
999.0
996.0
992.0
994.0
996.0
999.0
999.0
996.0
990.0
993.0
993.0
996.0
995.0
992.0
989.0
991.0
994.0
993.0
993.0
993.0
990.0
988.0
992.0
995.0
992.0
986.0
986.0
988.0
989.0
992.0
991.0
989.0
989.0
986.0
989.0
996.0
994.0
994.0
992.0
994.0
993.0
995.0
999.0
999.0
996.0
997.0
999.0
1001.0
1003.0
999.0
996.0
995.0
1000.0
1004.0
1003.0
1005.0
1006.0
1009.0
1023.0
1037.0
1049.0
1073.0
1094.0
1126.0
1163.0
1207.0
1242.0
1270.0
1286.0
1284.0
1256.0
1214.0
1159.0
1102.0
1046.0
1004.0
985.0
989.0
995.0
1001.0
1004.0
1002.0
999.0
1001.0
1000.0
995.0
989.0
987.0
986.0
988.0
987.0
979.0
978.0
978.0
979.0
981.0
981.0
975.0
974.0
974.0
977.0
979.0
977.0
974.0
974.0
972.0
975.0
980.0
978.0
979.0
976.0
972.0
975.0
977.0
976.0
974.0
971.0
971.0
974.0
977.0
975.0
976.0
974.0
975.0
977.0
980.0
981.0
980.0
977.0
976.0
978.0
983.0
985.0
984.0
985.0
984.0
987.0
990.0
990.0
987.0
988.0
990.0
995.0
995.0
997.0
995.0
995.0
995.0
1000.0
1003.0
1001.0
999.0
997.0
1002.0
1000.0
1005.0
1006.0
1005.0
1005.0
1005.0
1010.0
1013.0
1014.0
1012.0
1009.0
1012.0
1014.0
1020.0
1017.0
1017.0
1014.0
1016.0
1021.0
1023.0
1026.0
1023.0
1019.0
1018.0
1020.0
1020.0
1018.0
1013.0
1011.0
1011.0
1010.0
1011.0
1013.0
1009.0
1004.0
1001.0
1004.0
1008.0
1007.0
1004.0
999.0
1000.0
998.0
1000.0
1001.0
995.0
992.0
993.0
994.0
998.0
996.0
991.0
989.0
988.0
993.0
996.0
994.0
993.0
991.0
992.0
993.0
998.0
997.0
997.0
995.0
994.0
996.0
1000.0
1001.0
998.0
992.0
992.0
998.0
999.0
997.0
998.0
994.0
993.0
993.0
991.0
995.0
995.0
988.0
988.0
993.0
995.0
993.0
990.0
987.0
990.0
993.0
994.0
990.0
990.0
990.0
989.0
990.0
994.0
992.0
991.0
988.0
985.0
989.0
989.0
989.0
988.0
986.0
989.0
992.0
997.0
994.0
992.0
990.0
990.0
995.0
999.0
998.0
994.0
993.0
992.0
994.0
997.0
996.0
994.0
990.0
989.0
992.0
996.0
996.0
993.0
991.0
989.0
992.0
996.0
991.0
991.0
988.0
986.0
991.0
996.0
994.0
991.0
988.0
989.0
993.0
996.0
995.0
992.0
988.0
989.0
993.0
994.0
993.0
992.0
991.0
991.0
990.0
992.0
993.0
988.0
988.0
988.0
991.0
996.0
993.0
990.0
991.0
990.0
989.0
996.0
995.0
993.0
989.0
990.0
993.0
996.0
994.0
993.0
990.0
990.0
994.0
997.0
998.0
996.0
990.0
993.0
992.0
993.0
997.0
993.0
992.0
992.0
994.0
996.0
992.0
990.0
991.0
990.0
992.0
996.0
993.0
991.0
990.0
987.0
992.0
995.0
995.0
992.0
991.0
993.0
995.0
997.0
996.0
992.0
991.0
992.0
995.0
1001.0
999.0
995.0
991.0
993.0
993.0
1001.0
999.0
994.0
994.0
997.0
998.0
1003.0
998.0
999.0
999.0
999.0
1002.0
1006.0
1005.0
1005.0
1005.0
1007.0
1009.0
1011.0
1010.0
1009.0
1008.0
1014.0
1019.0
1032.0
1044.0
1053.0
1072.0
1094.0
1124.0
1155.0
1186.0
1210.0
1238.0
1268.0
1289.0
1293.0
1270.0
1229.0
1176.0
1127.0
1084.0
1044.0
1014.0
1000.0
996.0
1002.0
1012.0
1015.0
1010.0
1003.0
996.0
996.0
996.0
996.0
993.0
990.0
986.0
985.0
985.0
988.0
989.0
984.0
984.0
982.0
984.0
985.0
984.0
982.0
979.0
980.0
981.0
984.0
984.0
979.0
978.0
976.0
982.0
982.0
982.0
979.0
976.0
978.0
980.0
982.0
979.0
980.0
977.0
978.0
979.0
985.0
984.0
984.0
979.0
979.0
980.0
985.0
986.0
983.0
983.0
983.0
987.0
992.0
993.0
991.0
991.0
990.0
994.0
995.0
996.0
995.0
994.0
999.0
1002.0
1007.0
1007.0
1003.0
1001.0
1005.0
1007.0
1009.0
1010.0
1009.0
1010.0
1011.0
1011.0
1017.0
1015.0
1013.0
1012.0
1011.0
1015.0
1018.0
1016.0
1012.0
1013.0
1015.0
1018.0
1023.0
1026.0
1025.0
1025.0
1028.0
1029.0
1032.0
1035.0
1032.0
1032.0
1031.0
1033.0
1035.0
1035.0
1029.0
1028.0
1028.0
1029.0
1030.0
1032.0
1028.0
1023.0
1022.0
1024.0
1025.0
1022.0
1018.0
1013.0
1010.0
1011.0
1013.0
1012.0
1008.0
1007.0
1004.0
1004.0
1008.0
1006.0
999.0
998.0
998.0
999.0
999.0
1000.0
997.0
995.0
997.0
1000.0
1005.0
999.0
999.0
996.0
999.0
1001.0
1004.0
1003.0
1001.0
998.0
999.0
1002.0
1008.0
1004.0
1004.0
1002.0
1001.0
1005.0
1008.0
1007.0
1003.0
1001.0
1003.0
1004.0
1006.0
1004.0
1002.0
1000.0
1001.0
1005.0
1006.0
1005.0
1003.0
1000.0
999.0
997.0
1002.0
1000.0
999.0
998.0
993.0
997.0
998.0
998.0
997.0
994.0
994.0
994.0
997.0
994.0
992.0
990.0
990.0
991.0
993.0
991.0
988.0
988.0
987.0
992.0
997.0
995.0
993.0
988.0
990.0
992.0
996.0
994.0
993.0
991.0
994.0
994.0
999.0
996.0
996.0
993.0
995.0
999.0
1003.0
1000.0
996.0
994.0
995.0
998.0
1000.0
999.0
996.0
995.0
994.0
998.0
1001.0
1002.0
999.0
997.0
995.0
997.0
1002.0
1000.0
998.0
998.0
1000.0
1003.0
1004.0
1003.0
1004.0
1006.0
1009.0
1015.0
1025.0
1035.0
1043.0
1057.0
1078.0
1106.0
1137.0
1168.0
1200.0
1231.0
1258.0
1269.0
1256.0
1225.0
1177.0
1125.0
1074.0
1031.0
1003.0
990.0
987.0
991.0
996.0
1003.0
1008.0
1003.0
996.0
993.0
992.0
993.0
990.0
987.0
985.0
982.0
984.0
986.0
987.0
983.0
983.0
979.0
982.0
981.0
985.0
983.0
980.0
974.0
977.0
979.0
983.0
979.0
976.0
975.0
975.0
978.0
979.0
978.0
976.0
973.0
972.0
977.0
977.0
977.0
974.0
972.0
975.0
978.0
983.0
980.0
977.0
972.0
973.0
974.0
981.0
979.0
980.0
980.0
983.0
984.0
987.0
988.0
987.0
981.0
984.0
988.0
996.0
995.0
997.0
994.0
994.0
993.0
999.0
999.0
998.0
994.0
994.0
994.0
998.0
998.0
996.0
992.0
1000.0
1000.0
1005.0
1004.0
1003.0
1001.0
1001.0
1008.0
1010.0
1010.0
1009.0
1006.0
1008.0
1009.0
1012.0
1014.0
1012.0
1010.0
1015.0
1014.0
1017.0
1015.0
1013.0
1009.0
1011.0
1011.0
1011.0
1012.0
1009.0
1004.0
1004.0
1004.0
1007.0
1006.0
1001.0
998.0
997.0
1000.0
1001.0
1001.0
1001.0
996.0
998.0
999.0
997.0
999.0
998.0
995.0
995.0
993.0
998.0
998.0
997.0
994.0
994.0
995.0
999.0
999.0
998.0
995.0
996.0
997.0
997.0
997.0
993.0
992.0
993.0
998.0
999.0
996.0
997.0
995.0
995.0
995.0
994.0
994.0
993.0
992.0
992.0
996.0
999.0
998.0
998.0
996.0
998.0
1001.0
1000.0
1002.0
1000.0
997.0
998.0
1001.0
1002.0
1001.0
1000.0
997.0
996.0
1002.0
1002.0
1003.0
1001.0
997.0
996.0
997.0
999.0
996.0
996.0
994.0
997.0
997.0
1000.0
998.0
996.0
993.0
995.0
996.0
1001.0
998.0
996.0
993.0
995.0
994.0
997.0
1000.0
998.0
994.0
996.0
1002.0
1002.0
1001.0
998.0
999.0
1000.0
1004.0
1006.0
1002.0
1002.0
998.0
1002.0
1008.0
1011.0
1012.0
1012.0
1011.0
1016.0
1022.0
1032.0
1042.0
1050.0
1068.0
1089.0
1121.0
1155.0
1191.0
1222.0
1254.0
1279.0
1292.0
1287.0
1255.0
1211.0
1156.0
1096.0
1047.0
1010.0
989.0
989.0
994.0
1000.0
1005.0
1008.0
1006.0
1002.0
995.0
995.0
998.0
996.0
995.0
991.0
991.0
990.0
990.0
992.0
988.0
985.0
986.0
984.0
987.0
989.0
989.0
987.0
983.0
985.0
988.0
991.0
990.0
988.0
985.0
984.0
990.0
992.0
