# Simple Text Format
# Sampling Rate (Hz):= 360.00
# Resolution:= 12
# Labels:= ECG
976.0
978.0
982.0
979.0
975.0
969.0
974.0
979.0
980.0
977.0
973.0
973.0
973.0
977.0
981.0
980.0
978.0
975.0
976.0
980.0
982.0
979.0
978.0
977.0
976.0
978.0
978.0
976.0
975.0
974.0
978.0
983.0
986.0
986.0
983.0
979.0
980.0
983.0
985.0
987.0
987.0
985.0
985.0
988.0
991.0
990.0
990.0
990.0
991.0
994.0
996.0
993.0
997.0
1002.0
1011.0
1028.0
1049.0
1067.0
1088.0
1117.0
1149.0
1187.0
1227.0
1257.0
1279.0
1279.0
1261.0
1223.0
1174.0
1119.0
1066.0
1025.0
995.0
984.0
986.0
991.0
992.0
989.0
985.0
983.0
983.0
982.0
978.0
972.0
974.0
974.0
976.0
974.0
969.0
968.0
968.0
971.0
972.0
970.0
968.0
963.0
964.0
968.0
971.0
969.0
969.0
964.0
965.0
966.0
968.0
964.0
963.0
958.0
959.0
962.0
964.0
965.0
964.0
962.0
962.0
964.0
966.0
968.0
965.0
963.0
966.0
970.0
972.0
971.0
969.0
972.0
974.0
980.0
982.0
982.0
981.0
980.0
985.0
991.0
997.0
995.0
993.0
994.0
999.0
1003.0
1005.0
1005.0
1004.0
1003.0
1004.0
1008.0
1009.0
1009.0
1008.0
1008.0
1009.0
1012.0
1017.0
1014.0
1013.0
1013.0
1015.0
1016.0
1021.0
1017.0
1015.0
1012.0
1013.0
1015.0
1014.0
1011.0
1008.0
1003.0
1005.0
1005.0
1006.0
1001.0
996.0
995.0
995.0
996.0
994.0
992.0
988.0
982.0
985.0
984.0
985.0
983.0
982.0
978.0
979.0
979.0
979.0
979.0
978.0
976.0
976.0
979.0
982.0
981.0
979.0
974.0
976.0
981.0
985.0
985.0
984.0
976.0
979.0
983.0
984.0
984.0
986.0
981.0
983.0
985.0
987.0
985.0
985.0
984.0
985.0
988.0
990.0
988.0
988.0
988.0
989.0
990.0
993.0
991.0
988.0
988.0
987.0
991.0
994.0
992.0
989.0
989.0
989.0
989.0
992.0
988.0
986.0
987.0
987.0
989.0
992.0
990.0
985.0
985.0
986.0
988.0
990.0
990.0
988.0
985.0
986.0
990.0
990.0
990.0
988.0
985.0
987.0
989.0
990.0
990.0
986.0
983.0
981.0
987.0
990.0
988.0
984.0
981.0
984.0
984.0
987.0
986.0
982.0
980.0
981.0
982.0
987.0
984.0
981.0
978.0
982.0
984.0
986.0
984.0
980.0
979.0
981.0
982.0
981.0
980.0
978.0
978.0
979.0
982.0
985.0
983.0
980.0
982.0
980.0
985.0
984.0
983.0
983.0
981.0
982.0
985.0
986.0
982.0
982.0
980.0
979.0
982.0
981.0
985.0
982.0
979.0
978.0
978.0
983.0
981.0
979.0
978.0
978.0
980.0
984.0
981.0
979.0
978.0
979.0
982.0
983.0
982.0
979.0
979.0
981.0
983.0
984.0
982.0
980.0
979.0
982.0
987.0
986.0
986.0
983.0
984.0
985.0
990.0
992.0
989.0
986.0
982.0
984.0
987.0
987.0
987.0
985.0
982.0
982.0
984.0
985.0
984.0
981.0
977.0
975.0
980.0
985.0
981.0
980.0
978.0
976.0
979.0
982.0
982.0
978.0
975.0
978.0
980.0
983.0
981.0
981.0
980.0
980.0
983.0
984.0
980.0
977.0
975.0
977.0
986.0
988.0
985.0
979.0
973.0
975.0
983.0
992.0
993.0
991.0
987.0
988.0
992.0
993.0
991.0
988.0
987.0
988.0
989.0
991.0
991.0
986.0
986.0
989.0
987.0
990.0
988.0
985.0
984.0
988.0
988.0
987.0
986.0
984.0
984.0
984.0
987.0
987.0
985.0
982.0
980.0
981.0
986.0
986.0
985.0
985.0
983.0
983.0
988.0
988.0
987.0
982.0
981.0
983.0
987.0
987.0
986.0
984.0
981.0
987.0
989.0
991.0
989.0
987.0
988.0
989.0
991.0
992.0
989.0
988.0
987.0
988.0
992.0
991.0
994.0
990.0
987.0
990.0
991.0
991.0
991.0
990.0
988.0
988.0
990.0
990.0
990.0
987.0
984.0
988.0
991.0
992.0
992.0
989.0
987.0
989.0
991.0
994.0
995.0
992.0
990.0
992.0
995.0
999.0
997.0
994.0
994.0
998.0
1001.0
1004.0
1006.0
1013.0
1019.0
1038.0
1057.0
1081.0
1103.0
1129.0
1162.0
1200.0
1236.0
1272.0
1301.0
1306.0
1290.0
1254.0
1205.0
1151.0
1100.0
1047.0
1010.0
992.0
992.0
1000.0
1005.0
1001.0
994.0
989.0
985.0
985.0
979.0
977.0
974.0
977.0
976.0
973.0
971.0
966.0
964.0
966.0
967.0
970.0
969.0
963.0
963.0
962.0
968.0
968.0
972.0
967.0
966.0
970.0
971.0
971.0
970.0
967.0
967.0
969.0
973.0
971.0
969.0
970.0
967.0
972.0
974.0
977.0
974.0
971.0
971.0
973.0
975.0
976.0
975.0
974.0
973.0
978.0
979.0
979.0
980.0
978.0
976.0
980.0
986.0
987.0
987.0
985.0
987.0
990.0
996.0
999.0
1000.0
999.0
1001.0
1004.0
1006.0
1005.0
1006.0
1007.0
1006.0
1009.0
1011.0
1014.0
1014.0
1010.0
1012.0
1015.0
1019.0
1022.0
1020.0
1019.0
1018.0
1018.0
1019.0
1022.0
1019.0
1017.0
1018.0
1017.0
1019.0
1017.0
1015.0
1012.0
1009.0
1008.0
1007.0
1008.0
1005.0
1000.0
996.0
998.0
998.0
996.0
994.0
990.0
989.0
988.0
992.0
990.0
989.0
986.0
985.0
986.0
987.0
987.0
985.0
981.0
978.0
979.0
985.0
986.0
985.0
980.0
981.0
979.0
983.0
986.0
984.0
985.0
983.0
985.0
984.0
987.0
986.0
982.0
983.0
984.0
984.0
986.0
985.0
985.0
985.0
988.0
987.0
990.0
987.0
987.0
987.0
989.0
994.0
994.0
994.0
989.0
990.0
993.0
996.0
999.0
996.0
994.0
995.0
1000.0
1000.0
1002.0
1000.0
998.0
995.0
998.0
999.0
1001.0
994.0
994.0
992.0
992.0
993.0
994.0
991.0
991.0
990.0
993.0
995.0
996.0
993.0
986.0
985.0
987.0
988.0
990.0
989.0
984.0
986.0
986.0
989.0
988.0
989.0
985.0
982.0
986.0
989.0
989.0
986.0
985.0
988.0
987.0
990.0
989.0
988.0
985.0
985.0
984.0
988.0
991.0
988.0
985.0
982.0
984.0
986.0
986.0
984.0
983.0
981.0
984.0
986.0
984.0
985.0
981.0
978.0
979.0
983.0
983.0
981.0
978.0
977.0
979.0
983.0
983.0
982.0
979.0
980.0
982.0
984.0
987.0
982.0
981.0
981.0
984.0
984.0
986.0
984.0
983.0
982.0
983.0
986.0
987.0
986.0
985.0
984.0
986.0
989.0
985.0
984.0
977.0
981.0
983.0
986.0
987.0
984.0
981.0
981.0
982.0
983.0
981.0
979.0
978.0
978.0
980.0
981.0
982.0
984.0
981.0
978.0
982.0
982.0
983.0
983.0
979.0
979.0
983.0
986.0
988.0
987.0
983.0
982.0
985.0
985.0
985.0
984.0
985.0
983.0
984.0
987.0
986.0
986.0
983.0
983.0
985.0
987.0
990.0
985.0
986.0
985.0
987.0
989.0
989.0
988.0
984.0
984.0
986.0
989.0
992.0
991.0
987.0
986.0
989.0
993.0
993.0
993.0
989.0
989.0
988.0
992.0
992.0
992.0
990.0
992.0
995.0
997.0
996.0
995.0
991.0
992.0
995.0
1000.0
1001.0
1002.0
999.0
1000.0
1006.0
1015.0
1027.0
1039.0
1055.0
1075.0
1106.0
1141.0
1176.0
1210.0
1238.0
1269.0
1293.0
1299.0
1280.0
1234.0
1175.0
1117.0
1065.0
1018.0
988.0
978.0
979.0
989.0
995.0
992.0
987.0
984.0
980.0
977.0
978.0
979.0
978.0
975.0
973.0
974.0
975.0
978.0
979.0
979.0
973.0
973.0
976.0
975.0
975.0
975.0
970.0
971.0
970.0
972.0
972.0
972.0
968.0
967.0
971.0
974.0
970.0
970.0
968.0
969.0
968.0
971.0
972.0
972.0
968.0
966.0
969.0
971.0
973.0
972.0
970.0
970.0
974.0
979.0
979.0
977.0
975.0
976.0
978.0
981.0
987.0
985.0
985.0
985.0
988.0
994.0
994.0
996.0
993.0
994.0
1003.0
1006.0
1007.0
1003.0
1002.0
1004.0
1009.0
1013.0
1015.0
1012.0
1011.0
1013.0
1015.0
1017.0
1018.0
1017.0
1015.0
1018.0
1018.0
1022.0
1021.0
1019.0
1016.0
1016.0
1018.0
1019.0
1021.0
1016.0
1015.0
1013.0
1012.0
1011.0
1010.0
1006.0
1004.0
1003.0
1004.0
1005.0
1003.0
998.0
996.0
996.0
993.0
996.0
994.0
989.0
985.0
982.0
981.0
984.0
983.0
979.0
976.0
974.0
976.0
977.0
979.0
978.0
977.0
976.0
980.0
981.0
981.0
980.0
980.0
976.0
975.0
978.0
975.0
977.0
975.0
979.0
978.0
982.0
979.0
976.0
972.0
975.0
979.0
983.0
984.0
983.0
979.0
978.0
980.0
983.0
985.0
984.0
981.0
980.0
980.0
983.0
982.0
982.0
981.0
978.0
980.0
982.0
982.0
981.0
980.0
980.0
983.0
985.0
985.0
983.0
979.0
979.0
981.0
985.0
985.0
982.0
980.0
978.0
980.0
982.0
983.0
983.0
982.0
979.0
982.0
987.0
984.0
985.0
984.0
982.0
985.0
983.0
984.0
979.0
973.0
974.0
977.0
979.0
978.0
976.0
973.0
972.0
979.0
977.0
975.0
977.0
975.0
978.0
980.0
977.0
976.0
975.0
974.0
975.0
975.0
977.0
977.0
976.0
975.0
978.0
981.0
981.0
980.0
979.0
976.0
979.0
982.0
984.0
985.0
982.0
979.0
978.0
983.0
987.0
988.0
988.0
986.0
984.0
987.0
993.0
995.0
997.0
998.0
1005.0
1022.0
1043.0
1067.0
1095.0
1128.0
1166.0
1204.0
1243.0
1272.0
1284.0
1275.0
1243.0
1199.0
1146.0
1088.0
1027.0
976.0
948.0
943.0
954.0
966.0
974.0
977.0
977.0
978.0
978.0
974.0
968.0
961.0
959.0
961.0
963.0
961.0
958.0
956.0
957.0
957.0
960.0
957.0
957.0
955.0
958.0
959.0
965.0
964.0
961.0
960.0
959.0
963.0
964.0
967.0
964.0
961.0
960.0
961.0
965.0
962.0
959.0
954.0
955.0
959.0
961.0
961.0
959.0
957.0
962.0
964.0
966.0
969.0
970.0
966.0
967.0
965.0
971.0
972.0
972.0
971.0
974.0
976.0
981.0
980.0
981.0
980.0
982.0
988.0
991.0
994.0
996.0
993.0
996.0
1001.0
1005.0
1007.0
1007.0
1007.0
1009.0
1013.0
1014.0
1013.0
1013.0
1010.0
1015.0
1017.0
1020.0
1019.0
1015.0
1012.0
1007.0
1010.0
1015.0
1015.0
1010.0
1007.0
1005.0
1002.0
1006.0
1004.0
1000.0
996.0
995.0
994.0
996.0
992.0
988.0
986.0
984.0
986.0
983.0
981.0
977.0
973.0
975.0
975.0
978.0
977.0
974.0
970.0
969.0
971.0
974.0
974.0
973.0
972.0
974.0
975.0
975.0
974.0
971.0
969.0
968.0
971.0
975.0
975.0
974.0
973.0
976.0
980.0
983.0
986.0
984.0
981.0
981.0
985.0
988.0
989.0
990.0
986.0
989.0
987.0
990.0
989.0
989.0
986.0
987.0
991.0
992.0
992.0
990.0
988.0
984.0
989.0
991.0
989.0
986.0
981.0
983.0
984.0
987.0
982.0
977.0
975.0
976.0
979.0
980.0
979.0
976.0
973.0
977.0
980.0
983.0
982.0
978.0
974.0
977.0
983.0
985.0
982.0
981.0
979.0
979.0
981.0
984.0
984.0
983.0
983.0
980.0
985.0
990.0
991.0
985.0
980.0
979.0
979.0
985.0
984.0
979.0
979.0
981.0
982.0
983.0
981.0
979.0
978.0
978.0
982.0
982.0
986.0
987.0
987.0
987.0
986.0
987.0
991.0
989.0
986.0
987.0
990.0
996.0
1002.0
1010.0
1019.0
1035.0
1055.0
1080.0
1109.0
1140.0
1167.0
1205.0
1242.0
1275.0
1290.0
1283.0
1251.0
1206.0
1157.0
1110.0
1053.0
1001.0
962.0
950.0
958.0
972.0
976.0
975.0
979.0
981.0
982.0
983.0
979.0
974.0
974.0
971.0
971.0
972.0
972.0
969.0
964.0
962.0
965.0
969.0
967.0
961.0
962.0
961.0
962.0
967.0
966.0
962.0
957.0
958.0
960.0
966.0
966.0
963.0
962.0
963.0
965.0
968.0
968.0
962.0
960.0
958.0
964.0
966.0
968.0
968.0
965.0
965.0
967.0
970.0
971.0
970.0
970.0
971.0
974.0
978.0
978.0
974.0
973.0
973.0
977.0
980.0
985.0
985.0
983.0
984.0
986.0
988.0
991.0
990.0
990.0
989.0
992.0
995.0
997.0
996.0
995.0
995.0
996.0
1003.0
1008.0
1008.0
1005.0
1004.0
1010.0
1016.0
1013.0
1011.0
1009.0
1010.0
1013.0
1015.0
1018.0
1012.0
1008.0
1007.0
1011.0
1014.0
1013.0
1010.0
1005.0
1003.0
1006.0
1009.0
1008.0
1003.0
996.0
994.0
996.0
995.0
997.0
992.0
989.0
988.0
988.0
987.0
985.0
982.0
978.0
977.0
977.0
978.0
975.0
972.0
971.0
970.0
975.0
980.0
980.0
975.0
969.0
972.0
975.0
978.0
981.0
979.0
977.0
974.0
976.0
981.0
985.0
983.0
982.0
979.0
984.0
988.0
986.0
984.0
984.0
982.0
984.0
990.0
991.0
989.0
987.0
986.0
986.0
989.0
989.0
986.0
985.0
985.0
988.0
991.0
992.0
990.0
989.0
987.0
986.0
990.0
989.0
984.0
980.0
978.0
984.0
988.0
986.0
985.0
982.0
987.0
988.0
990.0
991.0
988.0
989.0
985.0
987.0
991.0
992.0
991.0
984.0
986.0
986.0
986.0
988.0
989.0
987.0
987.0
987.0
991.0
989.0
988.0
984.0
984.0
988.0
992.0
993.0
994.0
990.0
992.0
994.0
996.0
994.0
994.0
993.0
991.0
995.0
997.0
1002.0
1008.0
1016.0
1029.0
1051.0
1084.0
1111.0
1140.0
1173.0
1215.0
1258.0
1293.0
1303.0
1299.0
1274.0
1231.0
1181.0
1131.0
1072.0
1013.0
969.0
956.0
961.0
977.0
983.0
983.0
979.0
978.0
981.0
982.0
978.0
973.0
968.0
968.0
970.0
973.0
975.0
972.0
968.0
960.0
958.0
963.0
963.0
960.0
962.0
962.0
963.0
969.0
966.0
967.0
962.0
962.0
967.0
970.0
967.0
963.0
962.0
962.0
962.0
965.0
966.0
967.0
964.0
966.0
967.0
970.0
968.0
971.0
969.0
969.0
972.0
974.0
973.0
968.0
964.0
968.0
971.0
971.0
971.0
971.0
973.0
976.0
976.0
980.0
981.0
983.0
984.0
986.0
990.0
998.0
995.0
994.0
994.0
997.0
1004.0
1009.0
1008.0
1006.0
1006.0
1008.0
1013.0
1018.0
1015.0
1011.0
1010.0
1010.0
1015.0
1018.0
1018.0
1018.0
1018.0
1014.0
1013.0
1016.0
1017.0
1019.0
1014.0
1010.0
1009.0
1009.0
1009.0
1007.0
1004.0
1006.0
1006.0
1007.0
1004.0
999.0
998.0
992.0
992.0
989.0
985.0
984.0
983.0
983.0
985.0
984.0
985.0
981.0
975.0
979.0
983.0
988.0
988.0
985.0
981.0
979.0
978.0
980.0
983.0
983.0
978.0
976.0
979.0
983.0
980.0
981.0
982.0
984.0
987.0
988.0
988.0
986.0
986.0
988.0
990.0
994.0
996.0
995.0
992.0
983.0
985.0
988.0
991.0
989.0
987.0
990.0
993.0
993.0
989.0
990.0
990.0
990.0
995.0
999.0
996.0
991.0
987.0
990.0
993.0
998.0
998.0
993.0
986.0
988.0
993.0
996.0
996.0
990.0
987.0
989.0
992.0
995.0
991.0
985.0
988.0
991.0
992.0
992.0
992.0
992.0
992.0
993.0
992.0
993.0
992.0
991.0
987.0
989.0
991.0
994.0
993.0
987.0
986.0
985.0
990.0
994.0
990.0
984.0
983.0
985.0
988.0
991.0
987.0
983.0
985.0
982.0
986.0
987.0
985.0
983.0
986.0
985.0
986.0
994.0
993.0
990.0
986.0
983.0
987.0
989.0
991.0
987.0
985.0
988.0
990.0
993.0
993.0
990.0
991.0
986.0
990.0
997.0
993.0
990.0
989.0
990.0
992.0
998.0
998.0
998.0
995.0
998.0
1000.0
1003.0
999.0
996.0
994.0
1001.0
1004.0
1007.0
1012.0
1021.0
1031.0
1052.0
1077.0
1109.0
1141.0
1174.0
1212.0
1251.0
1283.0
1304.0
1301.0
1280.0
1235.0
1183.0
1133.0
1078.0
1022.0
980.0
967.0
970.0
982.0
992.0
994.0
994.0
988.0
985.0
986.0
989.0
987.0
982.0
977.0
976.0
977.0
976.0
974.0
972.0
970.0
973.0
974.0
977.0
974.0
971.0
971.0
970.0
973.0
971.0
971.0
969.0
965.0
967.0
965.0
969.0
964.0
964.0
963.0
965.0
970.0
971.0
971.0
972.0
968.0
968.0
971.0
975.0
975.0
973.0
970.0
971.0
976.0
980.0
979.0
978.0
975.0
981.0
987.0
993.0
991.0
987.0
988.0
986.0
993.0
998.0
1001.0
1000.0
999.0
1002.0
1006.0
1012.0
1013.0
1012.0
1012.0
1011.0
1010.0
1013.0
1012.0
1011.0
1010.0
1013.0
1015.0
1017.0
1012.0
1012.0
1009.0
1013.0
1012.0
1015.0
1013.0
1009.0
1006.0
1005.0
1009.0
1008.0
1006.0
997.0
994.0
993.0
997.0
997.0
995.0
988.0
983.0
983.0
986.0
987.0
984.0
980.0
979.0
981.0
980.0
980.0
982.0
978.0
973.0
973.0
979.0
982.0
981.0
980.0
976.0
976.0
977.0
982.0
986.0
983.0
981.0
975.0
975.0
979.0
981.0
981.0
979.0
984.0
984.0
986.0
986.0
984.0
985.0
988.0
989.0
992.0
994.0
991.0
989.0
990.0
991.0
993.0
992.0
990.0
987.0
988.0
992.0
996.0
992.0
989.0
989.0
991.0
994.0
996.0
993.0
991.0
992.0
993.0
995.0
996.0
992.0
991.0
990.0
990.0
994.0
998.0
996.0
995.0
992.0
992.0
993.0
995.0
996.0
994.0
993.0
991.0
995.0
1001.0
1010.0
1020.0
1029.0
1043.0
1073.0
1106.0
1141.0
1177.0
1217.0
1257.0
1288.0
1308.0
1304.0
1278.0
1232.0
1173.0
1113.0
1050.0
993.0
958.0
953.0
963.0
973.0
978.0
979.0
979.0
976.0
977.0
978.0
979.0
975.0
972.0
968.0
969.0
971.0
974.0
971.0
968.0
964.0
965.0
967.0
971.0
969.0
965.0
963.0
961.0
963.0
965.0
966.0
962.0
955.0
956.0
959.0
965.0
966.0
964.0
960.0
961.0
963.0
966.0
965.0
962.0
965.0
963.0
968.0
970.0
970.0
966.0
965.0
968.0
968.0
973.0
972.0
971.0
969.0
974.0
981.0
985.0
985.0
985.0
984.0
987.0
990.0
998.0
997.0
997.0
994.0
998.0
1003.0
1007.0
1008.0
1008.0
1007.0
1009.0
1009.0
1013.0
1017.0
1010.0
1009.0
1007.0
1012.0
1018.0
1015.0
1013.0
1011.0
1009.0
1012.0
1017.0
1015.0
1010.0
1010.0
1005.0
1005.0
1009.0
1005.0
999.0
995.0
996.0
997.0
996.0
991.0
986.0
983.0
984.0
988.0
988.0
988.0
986.0
985.0
985.0
988.0
990.0
988.0
987.0
984.0
983.0
983.0
989.0
988.0
981.0
979.0
982.0
984.0
986.0
985.0
983.0
980.0
986.0
986.0
989.0
987.0
986.0
982.0
982.0
986.0
988.0
986.0
984.0
983.0
985.0
988.0
991.0
988.0
984.0
978.0
980.0
985.0
989.0
988.0
986.0
984.0
987.0
987.0
990.0
989.0
987.0
985.0
987.0
990.0
993.0
993.0
985.0
986.0
989.0
989.0
991.0
993.0
990.0
986.0
987.0
991.0
995.0
998.0
995.0
993.0
990.0
991.0
994.0
994.0
993.0
991.0
993.0
994.0
996.0
992.0
991.0
987.0
987.0
988.0
991.0
994.0
993.0
989.0
993.0
996.0
1000.0
1001.0
1001.0
1006.0
1016.0
1031.0
1052.0
1074.0
1104.0
1135.0
1176.0
1217.0
1255.0
1280.0
1291.0
1289.0
1265.0
1226.0
1172.0
1107.0
1045.0
994.0
970.0
970.0
980.0
989.0
990.0
990.0
989.0
986.0
985.0
982.0
976.0
974.0
974.0
975.0
974.0
972.0
972.0
968.0
968.0
969.0
973.0
969.0
966.0
963.0
966.0
964.0
970.0
968.0
967.0
965.0
966.0
967.0
969.0
969.0
966.0
964.0
965.0
967.0
969.0
967.0
966.0
962.0
965.0
966.0
970.0
969.0
965.0
962.0
968.0
972.0
978.0
977.0
975.0
969.0
973.0
977.0
981.0
980.0
981.0
979.0
984.0
986.0
990.0
990.0
990.0
992.0
994.0
1000.0
1001.0
1001.0
1001.0
1002.0
1005.0
1009.0
1014.0
1014.0
1013.0
1011.0
1012.0
1015.0
1019.0
1016.0
1018.0
1014.0
1013.0
1013.0
1014.0
1013.0
1011.0
1009.0
1006.0
1009.0
1010.0
1006.0
999.0
998.0
996.0
997.0
997.0
999.0
993.0
989.0
987.0
985.0
989.0
988.0
985.0
980.0
979.0
980.0
986.0
984.0
981.0
982.0
984.0
987.0
988.0
986.0
987.0
986.0
984.0
987.0
991.0
989.0
990.0
985.0
984.0
989.0
991.0
990.0
989.0
986.0
986.0
990.0
990.0
991.0
987.0
984.0
986.0
987.0
991.0
988.0
983.0
983.0
982.0
985.0
987.0
984.0
983.0
984.0
986.0
987.0
992.0
990.0
988.0
985.0
986.0
990.0
994.0
992.0
990.0
985.0
986.0
989.0
992.0
991.0
989.0
987.0
989.0
992.0
992.0
992.0
993.0
992.0
993.0
993.0
996.0
991.0
991.0
990.0
988.0
992.0
991.0
990.0
987.0
985.0
983.0
987.0
990.0
990.0
985.0
983.0
985.0
988.0
990.0
990.0
986.0
981.0
979.0
983.0
984.0
984.0
978.0
976.0
977.0
982.0
984.0
984.0
984.0
980.0
981.0
984.0
987.0
985.0
983.0
985.0
987.0
989.0
993.0
993.0
990.0
990.0
990.0
993.0
997.0
994.0
994.0
994.0
997.0
1001.0
1002.0
1000.0
1003.0
1004.0
1008.0
1017.0
1029.0
1039.0
1053.0
1068.0
1095.0
1126.0
1160.0
1195.0
1226.0
1257.0
1285.0
1300.0
1294.0
1262.0
1205.0
1144.0
1086.0
1038.0
1004.0
985.0
983.0
990.0
996.0
994.0
995.0
987.0
983.0
980.0
979.0
978.0
979.0
976.0
972.0
969.0
970.0
974.0
972.0
973.0
970.0
967.0
966.0
969.0
970.0
967.0
966.0
963.0
965.0
966.0
967.0
966.0
964.0
961.0
963.0
964.0
966.0
966.0
963.0
963.0
964.0
966.0
966.0
965.0
961.0
958.0
962.0
964.0
968.0
968.0
967.0
964.0
966.0
970.0
972.0
975.0
972.0
972.0
974.0
981.0
984.0
982.0
983.0
982.0
984.0
988.0
991.0
992.0
995.0
995.0
998.0
1001.0
1005.0
1005.0
1003.0
1001.0
1006.0
1010.0
1014.0
1014.0
1012.0
1012.0
1013.0
1016.0
1018.0
1016.0
1016.0
1015.0
1013.0
1017.0
1017.0
1013.0
1011.0
1008.0
1010.0
1010.0
1011.0
1008.0
1005.0
1001.0
1002.0
1001.0
1002.0
1000.0
996.0
994.0
995.0
993.0
993.0
990.0
990.0
986.0
986.0
988.0
989.0
989.0
986.0
984.0
985.0
984.0
986.0
986.0
984.0
982.0
982.0
985.0
989.0
988.0
988.0
987.0
986.0
988.0
993.0
993.0
988.0
986.0
987.0
991.0
990.0
991.0
989.0
989.0
988.0
991.0
994.0
993.0
994.0
992.0
992.0
997.0
1000.0
1000.0
997.0
994.0
995.0
999.0
1002.0
1000.0
997.0
995.0
999.0
1004.0
1007.0
1006.0
1003.0
1004.0
1006.0
1009.0
1010.0
1004.0
1000.0
1001.0
1001.0
1005.0
1008.0
1006.0
1001.0
999.0
1003.0
1005.0
1006.0
1007.0
1006.0
1005.0
1011.0
1020.0
1031.0
1044.0
1060.0
1084.0
1118.0
1155.0
1202.0
1245.0
1280.0
1312.0
1332.0
1324.0
1293.0
1234.0
1174.0
1113.0
1062.0
1022.0
998.0
992.0
994.0
1000.0
1001.0
1003.0
1003.0
996.0
991.0
988.0
989.0
988.0
987.0
984.0
981.0
979.0
979.0
979.0
982.0
979.0
977.0
972.0
974.0
975.0
974.0
975.0
972.0
970.0
971.0
977.0
978.0
978.0
974.0
975.0
974.0
979.0
980.0
977.0
975.0
973.0
976.0
978.0
980.0
977.0
974.0
973.0
975.0
977.0
979.0
980.0
979.0
977.0
978.0
983.0
984.0
986.0
984.0
987.0
989.0
991.0
996.0
996.0
994.0
995.0
995.0
999.0
1001.0
1001.0
1001.0
1000.0
1004.0
1004.0
1006.0
1006.0
1005.0
1005.0
1006.0
1010.0
1011.0
1012.0
1007.0
1011.0
1013.0
1015.0
1015.0
1018.0
1015.0
1013.0
1015.0
1017.0
1018.0
1014.0
1011.0
1007.0
1006.0
1010.0
1011.0
1008.0
1004.0
999.0
999.0
997.0
996.0
995.0
989.0
985.0
990.0
994.0
998.0
994.0
991.0
986.0
989.0
991.0
993.0
994.0
989.0
987.0
989.0
993.0
993.0
992.0
990.0
987.0
988.0
992.0
991.0
992.0
987.0
987.0
989.0
990.0
994.0
992.0
991.0
992.0
994.0
995.0
995.0
993.0
990.0
989.0
992.0
994.0
992.0
991.0
990.0
990.0
990.0
993.0
993.0
991.0
990.0
988.0
990.0
992.0
995.0
991.0
988.0
988.0
990.0
994.0
997.0
995.0
990.0
990.0
991.0
994.0
994.0
993.0
990.0
986.0
989.0
992.0
995.0
992.0
990.0
988.0
989.0
993.0
994.0
992.0
989.0
987.0
986.0
992.0
995.0
991.0
989.0
989.0
992.0
993.0
995.0
994.0
992.0
990.0
993.0
997.0
998.0
995.0
993.0
992.0
992.0
993.0
995.0
994.0
992.0
990.0
991.0
996.0
997.0
997.0
996.0
994.0
998.0
1000.0
1001.0
1001.0
996.0
993.0
995.0
998.0
998.0
996.0
993.0
991.0
992.0
997.0
994.0
995.0
994.0
989.0
990.0
992.0
996.0
995.0
992.0
992.0
993.0
995.0
998.0
994.0
990.0
991.0
992.0
996.0
996.0
994.0
992.0
991.0
995.0
997.0
996.0
993.0
991.0
995.0
997.0
999.0
1003.0
1001.0
997.0
998.0
999.0
1002.0
1005.0
1006.0
1002.0
1002.0
1005.0
1007.0
1008.0
1008.0
1010.0
1009.0
1009.0
1013.0
1012.0
1014.0
1014.0
1016.0
1020.0
1028.0
1035.0
1048.0
1062.0
1081.0
1109.0
1140.0
1174.0
1206.0
1234.0
1267.0
1294.0
1314.0
1318.0
1302.0
1261.0
1207.0
1153.0
1105.0
1060.0
1021.0
999.0
999.0
1007.0
1015.0
1014.0
1006.0
1000.0
996.0
995.0
994.0
994.0
992.0
989.0
987.0
987.0
988.0
985.0
982.0
981.0
981.0
983.0
985.0
986.0
982.0
980.0
979.0
982.0
985.0
987.0
985.0
982.0
980.0
984.0
987.0
986.0
984.0
983.0
982.0
982.0
987.0
990.0
988.0
982.0
979.0
982.0
984.0
986.0
984.0
980.0
984.0
986.0
990.0
988.0
985.0
982.0
986.0
988.0
995.0
994.0
993.0
989.0
991.0
994.0
997.0
1001.0
1003.0
1001.0
1002.0
1006.0
1013.0
1011.0
1012.0
1013.0
1014.0
1020.0
1021.0
1023.0
1024.0
1023.0
1023.0
1025.0
1027.0
1030.0
1029.0
1027.0
1025.0
1028.0
1031.0
1034.0
1029.0
1027.0
1024.0
1027.0
1030.0
1030.0
1029.0
1024.0
1025.0
1027.0
1028.0
1026.0
1022.0
1021.0
1019.0
1017.0
1018.0
1019.0
1014.0
1013.0
1009.0
1006.0
1007.0
1007.0
1008.0
1004.0
1002.0
1004.0
1002.0
1005.0
1000.0
999.0
996.0
1001.0
1002.0
1000.0
999.0
998.0
996.0
997.0
996.0
999.0
1000.0
994.0
993.0
996.0
1001.0
1000.0
1001.0
996.0
996.0
998.0
1000.0
1001.0
998.0
993.0
998.0
1002.0
1003.0
1000.0
1000.0
996.0
998.0
1001.0
1006.0
1003.0
1002.0
995.0
994.0
1002.0
1004.0
1007.0
1005.0
1001.0
1000.0
1001.0
1004.0
1007.0
1006.0
1003.0
1000.0
1004.0
1006.0
1007.0
1006.0
1002.0
999.0
1001.0
1005.0
1005.0
1001.0
1000.0
997.0
1001.0
1004.0
1002.0
1003.0
1000.0
999.0
999.0
1000.0
1004.0
1001.0
999.0
992.0
997.0
1001.0
999.0
994.0
991.0
992.0
995.0
997.0
995.0
994.0
992.0
994.0
996.0
998.0
999.0
1002.0
1000.0
999.0
998.0
997.0
999.0
998.0
998.0
1000.0
1000.0
1005.0
1005.0
1001.0
998.0
996.0
1000.0
1002.0
1005.0
1004.0
1001.0
1001.0
1003.0
1006.0
1010.0
1008.0
1004.0
1004.0
1002.0
1002.0
1003.0
1003.0
1004.0
1005.0
1010.0
1011.0
1010.0
1009.0
1013.0
1020.0
1035.0
1052.0
1071.0
1091.0
1115.0
1145.0
1178.0
1213.0
1244.0
1270.0
1285.0
1287.0
1273.0
1242.0
1194.0
1140.0
1088.0
1033.0
997.0
982.0
986.0
995.0
997.0
1001.0
1002.0
1006.0
1001.0
999.0
996.0
995.0
996.0
993.0
993.0
991.0
989.0
986.0
984.0
986.0
988.0
987.0
985.0
983.0
983.0
985.0
987.0
985.0
980.0
978.0
979.0
980.0
981.0
980.0
977.0
979.0
983.0
980.0
978.0
974.0
974.0
973.0
975.0
979.0
979.0
977.0
978.0
977.0
979.0
980.0
982.0
981.0
982.0
981.0
988.0
993.0
996.0
993.0
988.0
990.0
995.0
1002.0
1005.0
1008.0
1006.0
1006.0
1008.0
1012.0
1013.0
1016.0
1014.0
1015.0
1018.0
1023.0
1026.0
1023.0
1023.0
1020.0
1019.0
1018.0
1020.0
1024.0
1023.0
1022.0
1024.0
1026.0
1029.0
1027.0
1023.0
1025.0
1030.0
1027.0
1025.0
1021.0
1018.0
1018.0
1021.0
1022.0
1020.0
1017.0
1013.0
1012.0
1016.0
1018.0
1017.0
1010.0
1007.0
1004.0
1007.0
1007.0
1003.0
1001.0
998.0
996.0
995.0
1000.0
999.0
997.0
993.0
991.0
993.0
996.0
999.0
995.0
991.0
990.0
993.0
996.0
992.0
991.0
989.0
992.0
994.0
997.0
998.0
993.0
995.0
993.0
991.0
991.0
994.0
995.0
991.0
992.0
994.0
998.0
999.0
998.0
996.0
993.0
996.0
996.0
995.0
995.0
993.0
997.0
1000.0
1007.0
1003.0
1001.0
999.0
1000.0
1003.0
1006.0
1006.0
1004.0
1005.0
1003.0
1008.0
1007.0
1007.0
1003.0
1002.0
999.0
1003.0
1007.0
1008.0
1006.0
1002.0
1001.0
1003.0
1004.0
1005.0
1000.0
993.0
993.0
995.0
1000.0
1002.0
999.0
997.0
996.0
995.0
998.0
999.0
995.0
994.0
994.0
999.0
1001.0
1003.0
1002.0
1004.0
1005.0
1007.0
1012.0
1014.0
1017.0
1024.0
1038.0
1051.0
1072.0
1095.0
1126.0
1157.0
1198.0
1242.0
