# Simple Text Format
# Sampling Rate (Hz):= 360.00
# Resolution:= 12
# Labels:= ECG
936.0
938.0
939.0
939.0
937.0
935.0
933.0
931.0
929.0
926.0
928.0
928.0
932.0
932.0
931.0
930.0
928.0
926.0
926.0
925.0
924.0
923.0
923.0
921.0
920.0
919.0
916.0
915.0
917.0
916.0
915.0
915.0
917.0
916.0
918.0
917.0
916.0
916.0
916.0
920.0
921.0
919.0
917.0
917.0
916.0
914.0
915.0
912.0
911.0
910.0
912.0
914.0
914.0
918.0
918.0
917.0
918.0
918.0
920.0
919.0
924.0
926.0
928.0
928.0
928.0
927.0
927.0
927.0
928.0
928.0
931.0
932.0
937.0
940.0
941.0
941.0
944.0
946.0
946.0
948.0
951.0
955.0
962.0
970.0
978.0
988.0
994.0
1002.0
1001.0
999.0
1000.0
997.0
990.0
991.0
989.0
987.0
986.0
986.0
985.0
985.0
982.0
981.0
980.0
979.0
979.0
977.0
977.0
975.0
973.0
975.0
974.0
976.0
979.0
979.0
981.0
980.0
983.0
983.0
987.0
991.0
994.0
999.0
1003.0
1004.0
1006.0
1008.0
1013.0
1015.0
1021.0
1027.0
1034.0
1041.0
1049.0
1059.0
1070.0
1078.0
1088.0
1094.0
1101.0
1105.0
1118.0
1133.0
1154.0
1183.0
1218.0
1255.0
1299.0
1342.0
1381.0
1411.0
1426.0
1420.0
1388.0
1337.0
1261.0
1159.0
1046.0
940.0
867.0
833.0
838.0
865.0
906.0
943.0
974.0
991.0
1000.0
1002.0
1002.0
1000.0
994.0
991.0
993.0
993.0
992.0
994.0
992.0
993.0
993.0
994.0
995.0
995.0
995.0
997.0
998.0
996.0
997.0
995.0
994.0
993.0
994.0
995.0
996.0
996.0
998.0
998.0
997.0
998.0
997.0
994.0
993.0
991.0
993.0
997.0
996.0
998.0
999.0
998.0
997.0
997.0
996.0
995.0
995.0
995.0
999.0
1001.0
1003.0
1006.0
1006.0
1006.0
1006.0
1008.0
1010.0
1010.0
1010.0
1013.0
1014.0
1016.0
1017.0
1018.0
1017.0
1020.0
1019.0
1019.0
1019.0
1020.0
1020.0
1021.0
1025.0
1029.0
1032.0
1037.0
1040.0
1042.0
1044.0
1040.0
1040.0
1036.0
1035.0
1031.0
1028.0
1031.0
1030.0
1031.0
1029.0
1029.0
1028.0
1027.0
1024.0
1021.0
1019.0
1016.0
1019.0
1018.0
1018.0
1020.0
1019.0
1021.0
1019.0
1020.0
1018.0
1017.0
1017.0
1013.0
1018.0
1017.0
1020.0
1021.0
1023.0
1020.0
1022.0
1024.0
1021.0
1021.0
1024.0
1024.0
1025.0
1027.0
1030.0
1030.0
1032.0
1032.0
1033.0
1032.0
1036.0
1034.0
1033.0
1036.0
1038.0
1037.0
1039.0
1036.0
1039.0
1041.0
1042.0
1042.0
1040.0
1039.0
1040.0
1041.0
1038.0
1042.0
1043.0
1045.0
1047.0
1047.0
1048.0
1045.0
1045.0
1043.0
1042.0
1043.0
1041.0
1042.0
1041.0
1043.0
1042.0
1045.0
1043.0
1042.0
1040.0
1038.0
1039.0
1037.0
1037.0
1039.0
1039.0
1040.0
1039.0
1038.0
1035.0
1032.0
1033.0
1029.0
1032.0
1034.0
1035.0
1034.0
1034.0
1037.0
1040.0
1041.0
1038.0
1038.0
1037.0
1037.0
1035.0
1033.0
1033.0
1035.0
1036.0
1038.0
1037.0
1040.0
1038.0
1039.0
1038.0
1038.0
1036.0
1038.0
1039.0
1041.0
1042.0
1044.0
1047.0
1047.0
1045.0
1046.0
1045.0
1044.0
1042.0
1044.0
1043.0
1046.0
1047.0
1047.0
1049.0
1052.0
1052.0
1053.0
1053.0
1052.0
1053.0
1055.0
1058.0
1062.0
1065.0
1070.0
1071.0
1073.0
1075.0
1076.0
1078.0
1080.0
1081.0
1081.0
1083.0
1085.0
1085.0
1085.0
1085.0
1082.0
1081.0
1077.0
1075.0
1070.0
1069.0
1066.0
1066.0
1066.0
1064.0
1065.0
1060.0
1058.0
1054.0
1049.0
1043.0
1041.0
1040.0
1040.0
1042.0
1044.0
1047.0
1046.0
1050.0
1053.0
1057.0
1058.0
1062.0
1062.0
1063.0
1064.0
1065.0
1071.0
1071.0
1080.0
1083.0
1088.0
1092.0
1097.0
1103.0
1107.0
1116.0
1121.0
1130.0
1139.0
1147.0
1157.0
1170.0
1187.0
1213.0
1244.0
1279.0
1314.0
1354.0
1391.0
1427.0
1454.0
1466.0
1458.0
1424.0
1363.0
1281.0
1185.0
1084.0
990.0
924.0
892.0
892.0
910.0
940.0
968.0
989.0
1009.0
1020.0
1026.0
1026.0
1026.0
1026.0
1027.0
1029.0
1029.0
1030.0
1029.0
1032.0
1032.0
1033.0
1032.0
1034.0
1033.0
1034.0
1034.0
1036.0
1036.0
1037.0
1039.0
1041.0
1041.0
1038.0
1038.0
1038.0
1038.0
1036.0
1037.0
1040.0
1042.0
1041.0
1042.0
1043.0
1044.0
1042.0
1042.0
1041.0
1039.0
1041.0
1040.0
1039.0
1042.0
1043.0
1042.0
1044.0
1046.0
1046.0
1046.0
1045.0
1044.0
1043.0
1046.0
1045.0
1046.0
1048.0
1049.0
1053.0
1053.0
1054.0
1054.0
1053.0
1052.0
1051.0
1049.0
1051.0
1052.0
1055.0
1057.0
1059.0
1059.0
1058.0
1059.0
1059.0
1059.0
1060.0
1061.0
1064.0
1066.0
1067.0
1069.0
1069.0
1070.0
1072.0
1071.0
1069.0
1066.0
1063.0
1061.0
1058.0
1061.0
1059.0
1058.0
1059.0
1055.0
1054.0
1056.0
1052.0
1050.0
1051.0
1051.0
1051.0
1048.0
1052.0
1049.0
1051.0
1054.0
1053.0
1054.0
1052.0
1052.0
1053.0
1053.0
1051.0
1052.0
1054.0
1056.0
1056.0
1057.0
1056.0
1056.0
1056.0
1056.0
1056.0
1061.0
1058.0
1059.0
1059.0
1061.0
1063.0
1065.0
1065.0
1065.0
1066.0
1064.0
1065.0
1065.0
1065.0
1064.0
1063.0
1068.0
1069.0
1071.0
1068.0
1068.0
1065.0
1062.0
1062.0
1063.0
1063.0
1065.0
1066.0
1066.0
1063.0
1064.0
1063.0
1063.0
1061.0
1061.0
1061.0
1061.0
1062.0
1061.0
1061.0
1060.0
1062.0
1060.0
1060.0
1059.0
1056.0
1053.0
1054.0
1054.0
1053.0
1053.0
1054.0
1056.0
1057.0
1059.0
1060.0
1057.0
1056.0
1054.0
1055.0
1053.0
1053.0
1054.0
1055.0
1053.0
1055.0
1056.0
1055.0
1056.0
1057.0
1058.0
1058.0
1055.0
1058.0
1058.0
1057.0
1062.0
1067.0
1070.0
1066.0
1062.0
1061.0
1058.0
1057.0
1061.0
1063.0
1068.0
1071.0
1074.0
1076.0
1075.0
1076.0
1076.0
1080.0
1082.0
1085.0
1084.0
1086.0
1086.0
1085.0
1082.0
1081.0
1078.0
1075.0
1076.0
1075.0
1072.0
1073.0
1070.0
1068.0
1070.0
1071.0
1073.0
1072.0
1070.0
1068.0
1065.0
1062.0
1055.0
1053.0
1057.0
1059.0
1063.0
1068.0
1071.0
1073.0
1076.0
1080.0
1080.0
1078.0
1080.0
1080.0
1081.0
1086.0
1090.0
1095.0
1101.0
1109.0
1113.0
1118.0
1124.0
1125.0
1128.0
1132.0
1136.0
1142.0
1151.0
1159.0
1170.0
1186.0
1204.0
1232.0
1264.0
1301.0
1345.0
1385.0
1419.0
1448.0
1461.0
1453.0
1422.0
1364.0
1284.0
1190.0
1084.0
989.0
924.0
893.0
899.0
930.0
967.0
1005.0
1035.0
1053.0
1062.0
1062.0
1056.0
1054.0
1049.0
1047.0
1047.0
1046.0
1050.0
1052.0
1055.0
1056.0
1056.0
1057.0
1054.0
1056.0
1057.0
1057.0
1061.0
1064.0
1065.0
1065.0
1065.0
1067.0
1069.0
1071.0
1072.0
1071.0
1074.0
1075.0
1074.0
1074.0
1071.0
1071.0
1070.0
1070.0
1070.0
1068.0
1065.0
1064.0
1063.0
1063.0
1064.0
1063.0
1064.0
1065.0
1066.0
1069.0
1069.0
1066.0
1071.0
1067.0
1068.0
1066.0
1067.0
1068.0
1069.0
1075.0
1077.0
1081.0
1084.0
1086.0
1085.0
1088.0
1086.0
1085.0
1085.0
1085.0
1083.0
1087.0
1090.0
1091.0
1090.0
1091.0
1091.0
1088.0
1087.0
1087.0
1083.0
1085.0
1085.0
1085.0
1085.0
1084.0
1086.0
1087.0
1085.0
1083.0
1080.0
1079.0
1077.0
1077.0
1076.0
1076.0
1076.0
1077.0
1077.0
1074.0
1073.0
1072.0
1070.0
1069.0
1067.0
1064.0
1064.0
1066.0
1066.0
1068.0
1067.0
1067.0
1067.0
1065.0
1066.0
1064.0
1063.0
1063.0
1061.0
1062.0
1061.0
1061.0
1062.0
1065.0
1065.0
1065.0
1064.0
1064.0
1062.0
1062.0
1061.0
1064.0
1066.0
1068.0
1068.0
1071.0
1069.0
1069.0
1068.0
1069.0
1063.0
1065.0
1066.0
1068.0
1068.0
1071.0
1070.0
1069.0
1068.0
1067.0
1066.0
1066.0
1063.0
1064.0
1066.0
1066.0
1069.0
1070.0
1070.0
1068.0
1068.0
1069.0
1069.0
1068.0
1066.0
1066.0
1068.0
1067.0
1066.0
1067.0
1068.0
1068.0
1067.0
1066.0
1066.0
1063.0
1062.0
1061.0
1061.0
1060.0
1062.0
1065.0
1064.0
1061.0
1061.0
1060.0
1061.0
1058.0
1059.0
1057.0
1058.0
1060.0
1059.0
1062.0
1060.0
1060.0
1062.0
1058.0
1055.0
1054.0
1054.0
1055.0
1057.0
1058.0
1059.0
1060.0
1061.0
1062.0
1060.0
1059.0
1057.0
1058.0
1056.0
1054.0
1060.0
1064.0
1068.0
1070.0
1073.0
1073.0
1075.0
1076.0
1074.0
1073.0
1073.0
1077.0
1081.0
1082.0
1086.0
1090.0
1089.0
1088.0
1084.0
1081.0
1079.0
1076.0
1075.0
1076.0
1075.0
1073.0
1072.0
1071.0
1070.0
1069.0
1070.0
1065.0
1061.0
1060.0
1059.0
1055.0
1056.0
1047.0
1049.0
1051.0
1053.0
1055.0
1056.0
1057.0
1060.0
1062.0
1064.0
1064.0
1069.0
1071.0
1073.0
1077.0
1081.0
1084.0
1084.0
1091.0
1090.0
1092.0
1101.0
1106.0
1116.0
1126.0
1137.0
1148.0
1158.0
1168.0
1177.0
1186.0
1199.0
1221.0
1244.0
1280.0
1322.0
1366.0
1410.0
1445.0
1472.0
1479.0
1466.0
1426.0
1358.0
1273.0
1172.0
1067.0
976.0
914.0
888.0
899.0
931.0
971.0
1009.0
1035.0
1052.0
1060.0
1060.0
1056.0
1050.0
1048.0
1048.0
1049.0
1050.0
1052.0
1053.0
1052.0
1054.0
1049.0
1048.0
1047.0
1051.0
1049.0
1050.0
1053.0
1051.0
1054.0
1055.0
1055.0
1054.0
1052.0
1052.0
1051.0
1051.0
1051.0
1055.0
1057.0
1057.0
1057.0
1055.0
1054.0
1054.0
1052.0
1051.0
1053.0
1052.0
1053.0
1054.0
1056.0
1059.0
1061.0
1060.0
1061.0
1062.0
1063.0
1063.0
1063.0
1065.0
1069.0
1072.0
1074.0
1077.0
1075.0
1077.0
1077.0
1076.0
1076.0
1076.0
1075.0
1078.0
1079.0
1081.0
1085.0
1087.0
1088.0
1089.0
1087.0
1087.0
1086.0
1085.0
1083.0
1086.0
1086.0
1085.0
1088.0
1087.0
1085.0
1082.0
1079.0
1074.0
1068.0
1071.0
1068.0
1067.0
1068.0
1066.0
1067.0
1066.0
1068.0
1063.0
1063.0
1060.0
1057.0
1055.0
1056.0
1057.0
1058.0
1058.0
1059.0
1057.0
1057.0
1057.0
1054.0
1053.0
1050.0
1049.0
1050.0
1051.0
1053.0
1054.0
1052.0
1053.0
1052.0
1051.0
1051.0
1050.0
1048.0
1050.0
1050.0
1051.0
1054.0
1055.0
1058.0
1058.0
1059.0
1057.0
1055.0
1055.0
1056.0
1056.0
1056.0
1060.0
1059.0
1061.0
1065.0
1063.0
1065.0
1064.0
1063.0
1063.0
1060.0
1062.0
1062.0
1063.0
1067.0
1067.0
1070.0
1062.0
1057.0
1052.0
1050.0
1049.0
1051.0
1052.0
1055.0
1058.0
1058.0
1059.0
1061.0
1059.0
1061.0
1058.0
1056.0
1055.0
1055.0
1053.0
1053.0
1055.0
1055.0
1054.0
1057.0
1059.0
1059.0
1058.0
1056.0
1053.0
1051.0
1051.0
1050.0
1052.0
1054.0
1051.0
1052.0
1054.0
1053.0
1053.0
1052.0
1050.0
1048.0
1050.0
1049.0
1050.0
1051.0
1052.0
1052.0
1052.0
1054.0
1054.0
1053.0
1052.0
1052.0
1051.0
1051.0
1050.0
1053.0
1054.0
1054.0
1057.0
1057.0
1059.0
1057.0
1056.0
1057.0
1058.0
1055.0
1055.0
1056.0
1053.0
1051.0
1050.0
1052.0
1055.0
1055.0
1057.0
1060.0
1061.0
1060.0
1060.0
1059.0
1062.0
1066.0
1069.0
1071.0
1075.0
1076.0
1080.0
1079.0
1077.0
1073.0
1072.0
1072.0
1072.0
1072.0
1070.0
1070.0
1066.0
1064.0
1061.0
1058.0
1058.0
1053.0
1053.0
1053.0
1050.0
1049.0
1048.0
1047.0
1042.0
1041.0
1038.0
1035.0
1038.0
1037.0
1040.0
1042.0
1044.0
1048.0
1050.0
1052.0
1051.0
1056.0
1055.0
1056.0
1058.0
1061.0
1064.0
1072.0
1075.0
1080.0
1087.0
1094.0
1100.0
1104.0
1109.0
1116.0
1125.0
1133.0
1140.0
1147.0
1159.0
1176.0
1196.0
1225.0
1259.0
1296.0
1337.0
1381.0
1414.0
1437.0
1446.0
1435.0
1397.0
1336.0
1257.0
1163.0
1065.0
970.0
902.0
870.0
874.0
903.0
945.0
984.0
1015.0
1031.0
1042.0
1041.0
1033.0
1025.0
1021.0
1017.0
1016.0
1019.0
1021.0
1023.0
1025.0
1025.0
1027.0
1026.0
1027.0
1025.0
1022.0
1023.0
1022.0
1018.0
1019.0
1021.0
1020.0
1021.0
1022.0
1024.0
1022.0
1021.0
1020.0
1017.0
1016.0
1014.0
1016.0
1017.0
1018.0
1019.0
1020.0
1021.0
1019.0
1018.0
1019.0
1019.0
1020.0
1020.0
1020.0
1020.0
1023.0
1024.0
1025.0
1025.0
1025.0
1024.0
1025.0
1025.0
1026.0
1029.0
1034.0
1036.0
1039.0
1041.0
1043.0
1044.0
1044.0
1041.0
1042.0
1042.0
1039.0
1040.0
1047.0
1047.0
1050.0
1051.0
1052.0
1055.0
1059.0
1059.0
1061.0
1064.0
1065.0
1060.0
1057.0
1053.0
1049.0
1045.0
1042.0
1042.0
1042.0
1042.0
1039.0
1033.0
1023.0
1016.0
1013.0
1013.0
1013.0
1018.0
1019.0
1023.0
1029.0
1027.0
1025.0
1027.0
1028.0
1027.0
1027.0
1027.0
1021.0
1020.0
1017.0
1017.0
1019.0
1022.0
1022.0
1021.0
1016.0
1011.0
1011.0
1008.0
1008.0
1011.0
1014.0
1016.0
1016.0
1017.0
1016.0
1015.0
1014.0
1014.0
1013.0
1012.0
1015.0
1017.0
1020.0
1019.0
1020.0
1019.0
1020.0
1017.0
1016.0
1016.0
1015.0
1015.0
1016.0
1021.0
1022.0
1022.0
1021.0
1022.0
1022.0
1019.0
1018.0
1018.0
1018.0
1018.0
1020.0
1020.0
1021.0
1022.0
1019.0
1019.0
1013.0
1015.0
1011.0
1008.0
1012.0
1012.0
1011.0
1013.0
1014.0
1013.0
1013.0
1011.0
1008.0
1008.0
1006.0
1006.0
1006.0
1005.0
1005.0
1010.0
1010.0
1007.0
1005.0
1003.0
1002.0
1003.0
1002.0
1002.0
1002.0
1003.0
1005.0
1006.0
1005.0
1003.0
1000.0
998.0
1000.0
999.0
998.0
1000.0
1002.0
1001.0
1000.0
1001.0
1001.0
1001.0
1002.0
1001.0
1001.0
1000.0
1000.0
1002.0
1002.0
1000.0
1001.0
1003.0
1002.0
1002.0
1004.0
1003.0
1001.0
1000.0
1000.0
998.0
999.0
1000.0
999.0
1002.0
1003.0
1000.0
1003.0
1001.0
1000.0
999.0
996.0
997.0
999.0
999.0
1000.0
1003.0
1002.0
1004.0
1002.0
1002.0
1000.0
999.0
997.0
996.0
997.0
998.0
999.0
1003.0
1006.0
1008.0
1009.0
1010.0
1010.0
1008.0
1008.0
1010.0
1011.0
1013.0
1016.0
1020.0
1022.0
1022.0
1024.0
1024.0
1022.0
1019.0
1016.0
1014.0
1012.0
1011.0
1012.0
1012.0
1013.0
1012.0
1010.0
1009.0
1008.0
1008.0
1007.0
1006.0
1006.0
1005.0
1002.0
1001.0
998.0
998.0
996.0
994.0
997.0
998.0
999.0
1001.0
1004.0
1006.0
1010.0
1013.0
1016.0
1021.0
1022.0
1024.0
1027.0
1029.0
1031.0
1035.0
1038.0
1045.0
1052.0
1058.0
1069.0
1076.0
1084.0
1089.0
1096.0
1101.0
1106.0
1111.0
1119.0
1135.0
1156.0
1181.0
1208.0
1242.0
1277.0
1313.0
1353.0
1382.0
1402.0
1405.0
1386.0
1345.0
1282.0
1204.0
1112.0
1012.0
925.0
864.0
843.0
853.0
889.0
931.0
967.0
990.0
1004.0
1006.0
1001.0
996.0
993.0
992.0
992.0
992.0
993.0
996.0
996.0
995.0
997.0
998.0
997.0
998.0
999.0
1000.0
998.0
1000.0
998.0
996.0
997.0
997.0
998.0
999.0
998.0
997.0
998.0
996.0
997.0
995.0
995.0
993.0
993.0
995.0
997.0
998.0
995.0
995.0
995.0
996.0
995.0
994.0
994.0
997.0
997.0
995.0
995.0
994.0
996.0
997.0
998.0
998.0
1000.0
1004.0
1008.0
1013.0
1019.0
1025.0
1025.0
1022.0
1018.0
1016.0
1016.0
1015.0
1016.0
1017.0
1020.0
1018.0
1020.0
1021.0
1022.0
1023.0
1025.0
1030.0
1030.0
1030.0
1032.0
1030.0
1031.0
1030.0
1030.0
1029.0
1029.0
1030.0
1028.0
1028.0
1026.0
1022.0
1019.0
1015.0
1013.0
1012.0
1011.0
1015.0
1014.0
1014.0
1013.0
1012.0
1011.0
1010.0
1009.0
1010.0
1013.0
1013.0
1013.0
1013.0
1015.0
1015.0
1011.0
1008.0
1004.0
999.0
995.0
990.0
990.0
992.0
992.0
994.0
996.0
997.0
1000.0
1001.0
1002.0
1003.0
1002.0
1002.0
1002.0
1001.0
1002.0
1003.0
1005.0
1007.0
1006.0
1007.0
1008.0
1007.0
1007.0
1008.0
1006.0
1007.0
1007.0
1009.0
1009.0
1009.0
1009.0
1013.0
1012.0
1012.0
1010.0
1010.0
1011.0
1011.0
1010.0
1014.0
1017.0
1019.0
1019.0
1014.0
1008.0
1003.0
996.0
995.0
994.0
994.0
998.0
1000.0
1001.0
1003.0
1005.0
1002.0
1003.0
1002.0
999.0
1000.0
997.0
999.0
1002.0
1002.0
1004.0
1004.0
1004.0
1004.0
1004.0
999.0
995.0
994.0
995.0
996.0
996.0
999.0
1001.0
1004.0
1003.0
1004.0
1003.0
1003.0
1000.0
996.0
994.0
991.0
994.0
994.0
996.0
996.0
998.0
999.0
999.0
998.0
996.0
996.0
995.0
992.0
994.0
997.0
998.0
1000.0
1000.0
1000.0
1002.0
1002.0
1002.0
998.0
999.0
998.0
997.0
997.0
997.0
999.0
997.0
996.0
995.0
993.0
994.0
993.0
992.0
990.0
990.0
990.0
991.0
992.0
994.0
994.0
991.0
991.0
987.0
987.0
986.0
982.0
983.0
984.0
987.0
990.0
992.0
993.0
992.0
990.0
989.0
989.0
989.0
988.0
992.0
994.0
998.0
999.0
1004.0
1003.0
1008.0
1008.0
1008.0
1010.0
1011.0
1012.0
1014.0
1018.0
1027.0
1027.0
1030.0
1034.0
1029.0
1026.0
1019.0
1015.0
1010.0
1009.0
1010.0
1007.0
1005.0
1000.0
999.0
997.0
995.0
994.0
992.0
988.0
985.0
979.0
972.0
973.0
972.0
972.0
974.0
977.0
980.0
982.0
981.0
981.0
984.0
985.0
987.0
992.0
997.0
1002.0
1004.0
1011.0
1014.0
1017.0
1017.0
1019.0
1025.0
1029.0
1035.0
1044.0
1054.0
1065.0
1072.0
1083.0
1091.0
1095.0
1102.0
1114.0
1132.0
1157.0
1189.0
1228.0
1272.0
1311.0
1352.0
1380.0
1394.0
1392.0
1365.0
1319.0
1250.0
1163.0
1065.0
965.0
882.0
829.0
813.0
832.0
871.0
911.0
946.0
971.0
987.0
989.0
985.0
980.0
975.0
973.0
973.0
975.0
978.0
977.0
978.0
979.0
980.0
979.0
979.0
980.0
979.0
981.0
986.0
984.0
984.0
984.0
981.0
979.0
979.0
978.0
979.0
978.0
978.0
979.0
981.0
981.0
981.0
980.0
982.0
979.0
978.0
978.0
978.0
978.0
978.0
981.0
981.0
981.0
982.0
983.0
983.0
983.0
981.0
981.0
984.0
985.0
984.0
989.0
991.0
994.0
995.0
997.0
1000.0
1000.0
1003.0
1005.0
1003.0
1004.0
1005.0
1005.0
1010.0
1010.0
1013.0
1014.0
1010.0
1013.0
1011.0
1013.0
1011.0
1015.0
1016.0
1020.0
1021.0
1021.0
1019.0
1018.0
1016.0
1015.0
1013.0
1013.0
1010.0
1009.0
1008.0
1009.0
1008.0
1008.0
1005.0
1004.0
1001.0
999.0
995.0
994.0
994.0
994.0
992.0
994.0
995.0
993.0
994.0
992.0
991.0
990.0
986.0
987.0
985.0
987.0
987.0
991.0
990.0
993.0
993.0
992.0
990.0
988.0
988.0
988.0
986.0
986.0
988.0
989.0
989.0
990.0
994.0
990.0
990.0
989.0
987.0
988.0
985.0
988.0
988.0
985.0
986.0
981.0
979.0
978.0
981.0
978.0
981.0
980.0
978.0
979.0
979.0
978.0
978.0
975.0
976.0
976.0
975.0
974.0
970.0
971.0
969.0
972.0
974.0
973.0
976.0
975.0
977.0
976.0
976.0
976.0
975.0
976.0
975.0
981.0
982.0
984.0
985.0
985.0
985.0
985.0
980.0
979.0
979.0
979.0
977.0
978.0
979.0
982.0
983.0
984.0
983.0
982.0
984.0
979.0
977.0
978.0
976.0
980.0
980.0
979.0
978.0
976.0
976.0
977.0
976.0
974.0
976.0
977.0
974.0
975.0
975.0
975.0
974.0
974.0
975.0
976.0
973.0
972.0
970.0
969.0
965.0
965.0
966.0
969.0
968.0
970.0
969.0
965.0
966.0
966.0
966.0
967.0
966.0
968.0
971.0
974.0
978.0
981.0
982.0
983.0
981.0
979.0
978.0
980.0
982.0
985.0
988.0
994.0
999.0
1003.0
1006.0
1007.0
1007.0
1011.0
1010.0
1013.0
1013.0
1018.0
1022.0
1024.0
1027.0
1026.0
1029.0
1032.0
1031.0
1032.0
1032.0
1031.0
1032.0
1036.0
1040.0
1042.0
1046.0
1048.0
1049.0
1046.0
1043.0
1041.0
1038.0
1034.0
1031.0
1029.0
1027.0
1026.0
1023.0
1020.0
1016.0
1012.0
1013.0
1011.0
1011.0
1005.0
1001.0
1000.0
998.0
998.0
998.0
999.0
998.0
998.0
998.0
997.0
996.0
997.0
995.0
995.0
996.0
995.0
994.0
992.0
993.0
991.0
988.0
988.0
988.0
987.0
989.0
990.0
993.0
994.0
996.0
998.0
1002.0
1000.0
1001.0
1004.0
1015.0
1033.0
1057.0
1094.0
1137.0
1184.0
1233.0
1277.0
1312.0
1328.0
1322.0
1284.0
1221.0
1136.0
1037.0
933.0
840.0
776.0
757.0
777.0
824.0
880.0
928.0
968.0
988.0
999.0
999.0
996.0
993.0
989.0
992.0
995.0
996.0
996.0
999.0
1002.0
1002.0
1003.0
1004.0
1006.0
1008.0
1009.0
1013.0
1013.0
1015.0
1016.0
1015.0
1016.0
1015.0
1013.0
1016.0
1018.0
1021.0
1023.0
1024.0
1029.0
1031.0
1032.0
1031.0
1034.0
1034.0
1035.0
1040.0
1045.0
1049.0
1052.0
1057.0
1061.0
1064.0
1065.0
1068.0
1073.0
1073.0
1075.0
1081.0
1085.0
1089.0
1094.0
1099.0
1100.0
1100.0
1103.0
1101.0
1100.0
1100.0
1098.0
1101.0
1101.0
1104.0
1105.0
1108.0
1107.0
1109.0
1108.0
1103.0
1103.0
1101.0
1098.0
1097.0
1098.0
1097.0
1099.0
1098.0
1099.0
1095.0
1091.0
1087.0
1083.0
1081.0
1075.0
1073.0
1069.0
1067.0
1066.0
1063.0
1059.0
1057.0
1051.0
1047.0
1045.0
1042.0
1040.0
1038.0
1036.0
1034.0
1034.0
1032.0
1029.0
1027.0
1029.0
1030.0
1029.0
1027.0
1025.0
1024.0
1026.0
1029.0
1032.0
1034.0
1035.0
1036.0
1036.0
1035.0
1033.0
1034.0
1036.0
1034.0
1036.0
1038.0
1040.0
1042.0
1045.0
1045.0
1045.0
1046.0
1046.0
1044.0
1044.0
1045.0
1046.0
1043.0
1046.0
1046.0
1047.0
1043.0
1042.0
1040.0
1036.0
1036.0
1036.0
1038.0
1037.0
1037.0
1040.0
1040.0
1038.0
1038.0
1033.0
1034.0
1031.0
1031.0
1031.0
1029.0
1030.0
1028.0
1029.0
1029.0
1027.0
1028.0
1025.0
1022.0
1017.0
1015.0
1014.0
1015.0
1019.0
1024.0
1027.0
1025.0
1020.0
1014.0
1005.0
998.0
995.0
995.0
997.0
1000.0
1004.0
1005.0
1007.0
1008.0
1008.0
1010.0
1010.0
1009.0
1012.0
1014.0
1015.0
1015.0
1015.0
1016.0
1017.0
1016.0
1017.0
1018.0
1017.0
1019.0
1022.0
1020.0
1019.0
1018.0
1020.0
1023.0
1025.0
1028.0
1032.0
1035.0
1036.0
1038.0
1044.0
1043.0
1043.0
1043.0
1042.0
1035.0
1028.0
1025.0
1022.0
1021.0
1021.0
1021.0
1020.0
1021.0
1021.0
1022.0
1027.0
1028.0
1029.0
1030.0
1031.0
1028.0
1027.0
1020.0
1011.0
1007.0
1003.0
1004.0
1008.0
1011.0
1014.0
1012.0
1016.0
1016.0
1015.0
1015.0
1013.0
1011.0
1011.0
1011.0
1012.0
1014.0
1020.0
1021.0
1027.0
1031.0
1035.0
1033.0
1035.0
1036.0
1037.0
1037.0
1042.0
1042.0
1045.0
1045.0
1046.0
1044.0
1040.0
1037.0
1035.0
1030.0
1030.0
1026.0
1024.0
1021.0
1022.0
1020.0
1022.0
1020.0
1020.0
1015.0
1009.0
1003.0
1002.0
999.0
1000.0
1000.0
1005.0
1008.0
1009.0
1009.0
1004.0
999.0
999.0
997.0
1000.0
1002.0
1003.0
1005.0
1006.0
1005.0
1007.0
1007.0
1007.0
1006.0
1005.0
1004.0
1007.0
1004.0
1006.0
1009.0
1010.0
1012.0
1015.0
1017.0
1023.0
1033.0
1051.0
1076.0
1107.0
1146.0
1189.0
1236.0
1276.0
1313.0
1328.0
1322.0
1287.0
1224.0
1142.0
1047.0
950.0
861.0
801.0
781.0
791.0
831.0
879.0
926.0
965.0
991.0
1009.0
1016.0
1018.0
1018.0
1016.0
1013.0
1010.0
1013.0
1015.0
1019.0
1022.0
1022.0
1024.0
1023.0
1023.0
1022.0
1023.0
1025.0
1027.0
1027.0
1029.0
1030.0
1030.0
1031.0
1033.0
1030.0
1030.0
1032.0
1033.0
1035.0
1037.0
1039.0
1043.0
1044.0
1045.0
1046.0
1048.0
1046.0
1050.0
1053.0
1054.0
1057.0
1060.0
1062.0
1063.0
1064.0
1069.0
1066.0
1067.0
1070.0
1072.0
1075.0
1076.0
1077.0
1078.0
1082.0
1084.0
1089.0
1093.0
1097.0
1098.0
1095.0
1092.0
1090.0
1089.0
1089.0
1092.0
1095.0
1096.0
1093.0
1092.0
1095.0
1093.0
1092.0
1091.0
1088.0
1090.0
1088.0
1088.0
1088.0
1088.0
1087.0
1084.0
1083.0
1078.0
1077.0
1072.0
1068.0
1063.0
1057.0
1055.0
1054.0
1053.0
1049.0
1045.0
1042.0
1035.0
1032.0
1029.0
1026.0
1023.0
1021.0
1018.0
1015.0
1012.0
1011.0
1009.0
1008.0
1007.0
1008.0
1008.0
1006.0
1008.0
1005.0
1007.0
1009.0
1011.0
1011.0
1014.0
1014.0
1014.0
1014.0
1013.0
1015.0
1015.0
1015.0
1020.0
1024.0
1025.0
1027.0
1026.0
1025.0
1023.0
1018.0
1019.0
1018.0
1018.0
1022.0
1026.0
1028.0
1029.0
1025.0
1020.0
1019.0
1016.0
1012.0
1011.0
1009.0
1008.0
1010.0
1008.0
1008.0
1005.0
1010.0
1013.0
1008.0
1009.0
1007.0
1002.0
1001.0
1002.0
1001.0
1003.0
1004.0
1005.0
1004.0
1001.0
1001.0
999.0
997.0
996.0
996.0
996.0
996.0
994.0
995.0
995.0
998.0
998.0
995.0
995.0
994.0
991.0
992.0
993.0
993.0
994.0
996.0
999.0
997.0
998.0
996.0
997.0
997.0
995.0
995.0
996.0
995.0
995.0
993.0
993.0
992.0
990.0
992.0
991.0
992.0
993.0
993.0
994.0
993.0
995.0
996.0
996.0
996.0
999.0
997.0
996.0
994.0
993.0
992.0
992.0
991.0
994.0
997.0
998.0
1000.0
1002.0
1001.0
1002.0
1001.0
1003.0
1003.0
1007.0
1010.0
1015.0
1021.0
1024.0
1027.0
1030.0
1028.0
1027.0
1023.0
1021.0
1018.0
1016.0
1015.0
1015.0
1013.0
1010.0
1009.0
1008.0
1005.0
1003.0
1000.0
999.0
998.0
1000.0
1001.0
998.0
995.0
990.0
984.0
980.0
976.0
975.0
975.0
975.0
977.0
980.0
985.0
986.0
990.0
992.0
995.0
992.0
987.0
984.0
983.0
980.0
983.0
983.0
984.0
985.0
986.0
987.0
991.0
990.0
990.0
990.0
992.0
997.0
1009.0
1028.0
1057.0
1092.0
1133.0
1176.0
1219.0
1261.0
1285.0
1293.0
1272.0
1227.0
1155.0
1063.0
965.0
868.0
796.0
767.0
776.0
815.0
868.0
922.0
967.0
997.0
1013.0
1020.0
1018.0
1012.0
1007.0
1005.0
1006.0
1007.0
1009.0
1010.0
1011.0
1009.0
1009.0
1010.0
1012.0
1014.0
1017.0
1018.0
1021.0
1022.0
1023.0
1023.0
1022.0
1023.0
1022.0
1024.0
1024.0
1025.0
1028.0
1029.0
1031.0
1033.0
1033.0
1036.0
1038.0
1039.0
1042.0
1042.0
1044.0
1047.0
1050.0
1055.0
1059.0
1059.0
1059.0
1060.0
1059.0
1061.0
1059.0
1062.0
1064.0
1067.0
1069.0
1074.0
1075.0
1077.0
1078.0
1077.0
1077.0
1079.0
1078.0
1079.0
1082.0
1081.0
1085.0
1084.0
1084.0
1082.0
1081.0
1080.0
1077.0
1075.0
1075.0
1076.0
1075.0
1075.0
1076.0
1073.0
1071.0
1066.0
1062.0
1056.0
1052.0
1047.0
1046.0
1043.0
1038.0
1036.0
1033.0
1029.0
1024.0
1021.0
1016.0
1012.0
1008.0
1007.0
1004.0
1001.0
999.0
1001.0
1000.0
1006.0
1006.0
1008.0
1008.0
1006.0
1007.0
1002.0
1000.0
1000.0
999.0
1000.0
1002.0
1000.0
1001.0
998.0
995.0
990.0
988.0
990.0
990.0
993.0
996.0
1000.0
1002.0
1002.0
1001.0
1002.0
1003.0
1002.0
1002.0
1000.0
1000.0
997.0
998.0
997.0
997.0
996.0
998.0
997.0
1002.0
1003.0
1003.0
1001.0
999.0
996.0
993.0
990.0
987.0
989.0
990.0
991.0
992.0
993.0
992.0
994.0
992.0
989.0
989.0
986.0
986.0
985.0
984.0
984.0
986.0
986.0
986.0
984.0
979.0
976.0
973.0
975.0
980.0
985.0
987.0
989.0
987.0
983.0
975.0
970.0
966.0
966.0
972.0
978.0
984.0
989.0
988.0
984.0
980.0
977.0
973.0
970.0
969.0
969.0
970.0
972.0
975.0
979.0
982.0
985.0
988.0
987.0
992.0
992.0
993.0
994.0
995.0
996.0
992.0
986.0
986.0
986.0
989.0
992.0
995.0
994.0
999.0
999.0
1003.0
1005.0
1005.0
1008.0
1008.0
1006.0
1002.0
997.0
996.0
993.0
994.0
993.0
991.0
990.0
990.0
988.0
987.0
985.0
984.0
979.0
975.0
970.0
967.0
965.0
966.0
968.0
970.0
971.0
972.0
974.0
972.0
971.0
968.0
970.0
970.0
970.0
974.0
973.0
976.0
977.0
979.0
979.0
979.0
977.0
981.0
982.0
982.0
983.0
984.0
985.0
988.0
990.0
994.0
994.0
1000.0
1011.0
1026.0
1049.0
1078.0
1112.0
1155.0
1199.0
1246.0
1288.0
1316.0
1332.0
1322.0
1282.0
1214.0
1119.0
1014.0
903.0
812.0
761.0
750.0
774.0
818.0
867.0
908.0
945.0
964.0
979.0
987.0
993.0
999.0
1007.0
1009.0
1009.0
1014.0
1015.0
1013.0
1015.0
1012.0
1013.0
1016.0
1017.0
1019.0
1022.0
1026.0
1029.0
1030.0
1033.0
1032.0
1031.0
1029.0
1029.0
1029.0
1027.0
1030.0
1033.0
1036.0
1037.0
1039.0
1040.0
1041.0
1043.0
1043.0
1043.0
1045.0
1047.0
1050.0
1055.0
1058.0
1061.0
1062.0
1064.0
1066.0
1070.0
1072.0
1074.0
1076.0
1078.0
1083.0
1087.0
1093.0
1097.0
1099.0
1103.0
1104.0
1105.0
1107.0
1110.0
1112.0
1114.0
1112.0
1112.0
1112.0
1113.0
1113.0
1114.0
1116.0
1113.0
1116.0
1114.0
1112.0
1109.0
1110.0
1109.0
1106.0
1107.0
1105.0
1103.0
1099.0
1094.0
1089.0
1083.0
1076.0
1072.0
1068.0
1065.0
1067.0
1066.0
1068.0
1067.0
1063.0
1052.0
1034.0
1020.0
1008.0
998.0
999.0
1000.0
1006.0
1010.0
1010.0
1010.0
1008.0
1009.0
1008.0
1009.0
1008.0
1010.0
1009.0
1012.0
1010.0
1011.0
1011.0
1010.0
1009.0
1006.0
1006.0
1005.0
1006.0
1004.0
1004.0
1005.0
1007.0
1007.0
1007.0
1005.0
999.0
998.0
996.0
999.0
1001.0
1002.0
1001.0
1001.0
1001.0
1002.0
1005.0
1009.0
1014.0
1014.0
1015.0
1013.0
1014.0
1011.0
1014.0
1015.0
1013.0
1014.0
1017.0
1019.0
1017.0
1017.0
1016.0
1014.0
1013.0
1014.0
1014.0
1017.0
1017.0
1020.0
1018.0
1019.0
1017.0
1015.0
1016.0
1013.0
1016.0
1018.0
1021.0
1025.0
1027.0
1032.0
1028.0
1024.0
1014.0
1004.0
998.0
994.0
998.0
