# Simple Text Format
# Sampling Rate (Hz):= 360.00
# Resolution:= 12
# Labels:= ECG
963.0
964.0
968.0
968.0
968.0
970.0
969.0
969.0
971.0
971.0
971.0
972.0
973.0
979.0
983.0
987.0
991.0
993.0
996.0
995.0
994.0
994.0
991.0
990.0
988.0
986.0
990.0
992.0
991.0
991.0
990.0
989.0
985.0
980.0
976.0
967.0
968.0
968.0
969.0
972.0
970.0
970.0
965.0
959.0
958.0
955.0
957.0
957.0
955.0
958.0
960.0
961.0
963.0
960.0
960.0
960.0
956.0
955.0
958.0
959.0
958.0
961.0
963.0
964.0
965.0
964.0
964.0
963.0
963.0
963.0
965.0
964.0
965.0
967.0
972.0
980.0
991.0
1009.0
1033.0
1066.0
1104.0
1149.0
1194.0
1237.0
1271.0
1288.0
1287.0
1256.0
1204.0
1124.0
1031.0
931.0
834.0
764.0
732.0
742.0
780.0
836.0
889.0
935.0
967.0
987.0
993.0
989.0
983.0
978.0
975.0
972.0
974.0
977.0
979.0
984.0
983.0
985.0
986.0
987.0
987.0
987.0
984.0
983.0
984.0
986.0
989.0
990.0
992.0
992.0
995.0
994.0
996.0
996.0
999.0
1001.0
1000.0
1003.0
1008.0
1007.0
1010.0
1012.0
1015.0
1017.0
1018.0
1022.0
1023.0
1023.0
1025.0
1028.0
1031.0
1033.0
1036.0
1040.0
1046.0
1044.0
1045.0
1046.0
1051.0
1052.0
1051.0
1056.0
1058.0
1063.0
1066.0
1067.0
1069.0
1069.0
1069.0
1069.0
1072.0
1070.0
1070.0
1071.0
1071.0
1071.0
1072.0
1072.0
1071.0
1068.0
1067.0
1063.0
1063.0
1061.0
1058.0
1059.0
1057.0
1053.0
1050.0
1046.0
1042.0
1037.0
1032.0
1026.0
1020.0
1015.0
1014.0
1009.0
1004.0
1003.0
1000.0
996.0
992.0
990.0
986.0
983.0
981.0
980.0
977.0
976.0
974.0
974.0
974.0
974.0
974.0
972.0
973.0
971.0
969.0
965.0
965.0
965.0
964.0
968.0
967.0
969.0
971.0
971.0
971.0
971.0
969.0
970.0
970.0
973.0
974.0
976.0
977.0
979.0
978.0
978.0
977.0
976.0
973.0
972.0
972.0
970.0
969.0
972.0
975.0
975.0
976.0
979.0
977.0
976.0
977.0
976.0
976.0
975.0
977.0
976.0
976.0
973.0
974.0
971.0
968.0
968.0
967.0
968.0
967.0
969.0
968.0
969.0
972.0
972.0
970.0
970.0
971.0
970.0
966.0
965.0
961.0
961.0
963.0
963.0
963.0
965.0
969.0
967.0
966.0
963.0
963.0
962.0
961.0
963.0
964.0
965.0
968.0
970.0
971.0
969.0
968.0
965.0
960.0
962.0
960.0
959.0
961.0
962.0
964.0
964.0
966.0
966.0
965.0
964.0
960.0
961.0
960.0
962.0
964.0
966.0
965.0
965.0
965.0
964.0
965.0
966.0
966.0
968.0
973.0
976.0
978.0
982.0
984.0
986.0
987.0
988.0
987.0
988.0
985.0
985.0
982.0
983.0
980.0
978.0
977.0
977.0
974.0
974.0
969.0
965.0
964.0
962.0
962.0
963.0
963.0
962.0
961.0
958.0
956.0
950.0
949.0
946.0
946.0
947.0
949.0
949.0
950.0
948.0
950.0
950.0
950.0
950.0
948.0
945.0
944.0
943.0
945.0
944.0
948.0
948.0
950.0
952.0
952.0
954.0
953.0
952.0
951.0
950.0
952.0
953.0
958.0
964.0
967.0
978.0
997.0
1018.0
1049.0
1083.0
1123.0
1171.0
1214.0
1256.0
1289.0
1302.0
1290.0
1245.0
1175.0
1084.0
980.0
878.0
790.0
742.0
734.0
756.0
798.0
844.0
885.0
921.0
946.0
962.0
971.0
975.0
974.0
974.0
971.0
970.0
970.0
972.0
974.0
977.0
981.0
983.0
984.0
985.0
984.0
983.0
984.0
985.0
986.0
988.0
991.0
995.0
998.0
997.0
997.0
995.0
994.0
994.0
995.0
997.0
1002.0
1005.0
1010.0
1014.0
1014.0
1014.0
1012.0
1014.0
1014.0
1016.0
1020.0
1024.0
1028.0
1029.0
1032.0
1035.0
1033.0
1037.0
1039.0
1039.0
1043.0
1044.0
1045.0
1046.0
1052.0
1056.0
1058.0
1062.0
1064.0
1069.0
1070.0
1070.0
1072.0
1073.0
1075.0
1073.0
1074.0
1073.0
1076.0
1076.0
1076.0
1078.0
1076.0
1077.0
1073.0
1072.0
1069.0
1068.0
1069.0
1067.0
1066.0
1063.0
1059.0
1053.0
1047.0
1039.0
1030.0
1028.0
1023.0
1020.0
1014.0
1008.0
1007.0
1003.0
999.0
993.0
988.0
985.0
981.0
977.0
975.0
976.0
979.0
977.0
977.0
978.0
976.0
974.0
970.0
971.0
970.0
974.0
977.0
978.0
979.0
979.0
979.0
981.0
981.0
980.0
979.0
978.0
977.0
975.0
975.0
976.0
974.0
977.0
980.0
984.0
986.0
988.0
985.0
984.0
980.0
981.0
981.0
982.0
982.0
985.0
984.0
984.0
986.0
984.0
985.0
982.0
982.0
980.0
978.0
978.0
979.0
981.0
981.0
985.0
982.0
980.0
979.0
977.0
974.0
975.0
972.0
974.0
976.0
976.0
974.0
975.0
975.0
973.0
973.0
970.0
970.0
968.0
969.0
970.0
969.0
969.0
969.0
968.0
969.0
967.0
969.0
968.0
971.0
968.0
967.0
968.0
969.0
968.0
970.0
971.0
972.0
971.0
970.0
969.0
967.0
969.0
967.0
964.0
968.0
969.0
970.0
969.0
972.0
972.0
971.0
968.0
967.0
966.0
967.0
967.0
968.0
972.0
975.0
977.0
979.0
982.0
982.0
979.0
981.0
981.0
983.0
986.0
989.0
993.0
995.0
998.0
997.0
995.0
993.0
992.0
986.0
985.0
984.0
986.0
986.0
985.0
984.0
975.0
977.0
978.0
975.0
975.0
973.0
973.0
970.0
968.0
965.0
963.0
962.0
963.0
963.0
965.0
966.0
966.0
969.0
970.0
970.0
971.0
975.0
979.0
980.0
984.0
988.0
989.0
994.0
997.0
1000.0
1001.0
1002.0
1009.0
1016.0
1023.0
1035.0
1047.0
1058.0
1065.0
1072.0
1077.0
1080.0
1084.0
1089.0
1097.0
1112.0
1133.0
1164.0
1200.0
1245.0
1285.0
1326.0
1358.0
1376.0
1373.0
1349.0
1301.0
1230.0
1136.0
1033.0
935.0
860.0
812.0
804.0
823.0
861.0
903.0
937.0
962.0
974.0
975.0
972.0
966.0
960.0
957.0
955.0
955.0
955.0
956.0
955.0
957.0
957.0
959.0
961.0
962.0
963.0
965.0
964.0
963.0
964.0
960.0
960.0
960.0
960.0
962.0
963.0
965.0
964.0
965.0
963.0
961.0
959.0
956.0
953.0
954.0
959.0
960.0
960.0
962.0
963.0
961.0
958.0
959.0
958.0
958.0
956.0
959.0
962.0
961.0
965.0
966.0
968.0
970.0
969.0
972.0
971.0
974.0
973.0
975.0
976.0
979.0
981.0
981.0
982.0
982.0
983.0
983.0
984.0
984.0
985.0
986.0
988.0
989.0
991.0
990.0
992.0
994.0
995.0
995.0
997.0
994.0
995.0
993.0
990.0
991.0
990.0
988.0
985.0
987.0
982.0
980.0
977.0
976.0
974.0
973.0
973.0
972.0
973.0
973.0
974.0
971.0
969.0
965.0
964.0
963.0
960.0
961.0
961.0
963.0
964.0
965.0
965.0
964.0
964.0
961.0
962.0
960.0
963.0
966.0
967.0
969.0
968.0
971.0
970.0
968.0
970.0
970.0
970.0
969.0
967.0
970.0
970.0
970.0
970.0
973.0
974.0
974.0
977.0
975.0
973.0
970.0
969.0
969.0
971.0
970.0
975.0
976.0
977.0
977.0
975.0
973.0
967.0
965.0
964.0
966.0
968.0
968.0
970.0
973.0
973.0
971.0
969.0
968.0
963.0
963.0
963.0
964.0
967.0
968.0
969.0
969.0
970.0
969.0
968.0
968.0
967.0
965.0
965.0
969.0
967.0
966.0
968.0
968.0
969.0
968.0
968.0
966.0
965.0
964.0
963.0
961.0
959.0
959.0
960.0
959.0
959.0
960.0
963.0
963.0
963.0
965.0
964.0
964.0
963.0
963.0
964.0
966.0
965.0
966.0
966.0
963.0
960.0
961.0
959.0
957.0
959.0
960.0
962.0
962.0
963.0
961.0
963.0
961.0
959.0
958.0
958.0
959.0
960.0
962.0
964.0
965.0
967.0
970.0
970.0
973.0
973.0
973.0
975.0
977.0
981.0
983.0
987.0
991.0
993.0
994.0
994.0
993.0
992.0
989.0
984.0
979.0
979.0
979.0
979.0
980.0
983.0
982.0
981.0
976.0
971.0
969.0
967.0
967.0
967.0
966.0
966.0
963.0
964.0
961.0
961.0
960.0
959.0
960.0
963.0
967.0
969.0
973.0
977.0
979.0
982.0
983.0
983.0
987.0
989.0
992.0
996.0
1002.0
1009.0
1016.0
1023.0
1028.0
1035.0
1045.0
1056.0
1064.0
1071.0
1078.0
1083.0
1087.0
1094.0
1102.0
1118.0
1137.0
1166.0
1200.0
1239.0
1281.0
1319.0
1352.0
1367.0
1368.0
1346.0
1302.0
1237.0
1149.0
1046.0
944.0
861.0
814.0
806.0
828.0
864.0
903.0
937.0
961.0
973.0
976.0
971.0
965.0
958.0
953.0
948.0
952.0
953.0
955.0
958.0
960.0
961.0
963.0
965.0
966.0
962.0
964.0
964.0
964.0
964.0
967.0
965.0
967.0
966.0
966.0
966.0
963.0
963.0
960.0
962.0
960.0
961.0
961.0
962.0
964.0
964.0
965.0
966.0
968.0
965.0
965.0
966.0
965.0
965.0
965.0
968.0
968.0
968.0
968.0
968.0
973.0
973.0
973.0
977.0
976.0
975.0
977.0
977.0
978.0
980.0
982.0
983.0
982.0
985.0
985.0
982.0
982.0
982.0
984.0
986.0
986.0
990.0
991.0
993.0
996.0
995.0
995.0
993.0
993.0
988.0
988.0
988.0
989.0
991.0
991.0
993.0
990.0
985.0
983.0
980.0
978.0
977.0
974.0
975.0
974.0
972.0
972.0
972.0
973.0
972.0
972.0
971.0
970.0
969.0
969.0
968.0
967.0
969.0
968.0
968.0
969.0
969.0
967.0
966.0
968.0
968.0
966.0
966.0
969.0
969.0
971.0
973.0
975.0
976.0
975.0
973.0
972.0
973.0
969.0
968.0
970.0
975.0
976.0
976.0
978.0
974.0
972.0
970.0
968.0
967.0
967.0
966.0
968.0
970.0
971.0
972.0
969.0
972.0
970.0
968.0
967.0
963.0
966.0
969.0
970.0
972.0
971.0
971.0
970.0
969.0
966.0
967.0
964.0
965.0
965.0
966.0
966.0
967.0
967.0
965.0
966.0
965.0
965.0
965.0
963.0
963.0
962.0
963.0
964.0
964.0
968.0
969.0
969.0
968.0
968.0
965.0
967.0
966.0
964.0
963.0
962.0
964.0
965.0
968.0
968.0
967.0
967.0
964.0
961.0
960.0
960.0
962.0
962.0
965.0
966.0
967.0
968.0
967.0
963.0
961.0
959.0
958.0
957.0
959.0
961.0
963.0
966.0
965.0
964.0
965.0
964.0
964.0
963.0
961.0
961.0
964.0
965.0
967.0
968.0
967.0
967.0
965.0
964.0
962.0
963.0
962.0
964.0
967.0
969.0
971.0
978.0
980.0
981.0
983.0
985.0
986.0
988.0
989.0
990.0
991.0
994.0
995.0
997.0
995.0
995.0
993.0
991.0
991.0
988.0
986.0
985.0
983.0
980.0
979.0
978.0
977.0
976.0
974.0
972.0
966.0
966.0
960.0
959.0
959.0
960.0
965.0
964.0
966.0
970.0
968.0
970.0
969.0
972.0
973.0
975.0
978.0
984.0
988.0
991.0
992.0
997.0
999.0
1001.0
1002.0
1012.0
1022.0
1030.0
1044.0
1052.0
1065.0
1073.0
1080.0
1085.0
1091.0
1093.0
1103.0
1117.0
1137.0
1166.0
1198.0
1240.0
1280.0
1319.0
1348.0
1364.0
1365.0
1349.0
1308.0
1251.0
1171.0
1078.0
980.0
894.0
831.0
806.0
813.0
843.0
878.0
912.0
940.0
953.0
962.0
960.0
960.0
958.0
955.0
954.0
952.0
956.0
957.0
958.0
955.0
956.0
955.0
955.0
955.0
956.0
958.0
961.0
963.0
965.0
964.0
961.0
959.0
958.0
956.0
956.0
959.0
961.0
962.0
964.0
964.0
965.0
963.0
960.0
958.0
959.0
956.0
959.0
960.0
963.0
964.0
964.0
966.0
961.0
961.0
961.0
961.0
963.0
964.0
965.0
968.0
969.0
971.0
974.0
974.0
974.0
975.0
974.0
975.0
975.0
973.0
975.0
977.0
980.0
982.0
984.0
984.0
985.0
986.0
987.0
985.0
986.0
984.0
984.0
984.0
988.0
987.0
992.0
994.0
997.0
1000.0
997.0
996.0
995.0
992.0
991.0
991.0
992.0
994.0
994.0
993.0
991.0
990.0
987.0
982.0
978.0
977.0
975.0
973.0
975.0
974.0
976.0
976.0
974.0
971.0
968.0
966.0
964.0
966.0
965.0
968.0
969.0
970.0
971.0
971.0
971.0
971.0
970.0
967.0
967.0
967.0
967.0
969.0
970.0
972.0
973.0
974.0
975.0
973.0
973.0
974.0
974.0
975.0
974.0
976.0
975.0
975.0
977.0
977.0
978.0
978.0
978.0
979.0
978.0
978.0
979.0
979.0
978.0
977.0
979.0
977.0
978.0
978.0
977.0
974.0
974.0
972.0
970.0
971.0
973.0
974.0
974.0
976.0
976.0
973.0
971.0
972.0
972.0
972.0
970.0
972.0
973.0
971.0
975.0
975.0
976.0
975.0
974.0
971.0
966.0
965.0
964.0
966.0
968.0
967.0
971.0
971.0
971.0
969.0
966.0
964.0
963.0
961.0
961.0
962.0
965.0
966.0
967.0
966.0
964.0
965.0
963.0
961.0
962.0
962.0
963.0
961.0
962.0
963.0
965.0
966.0
966.0
966.0
964.0
964.0
964.0
962.0
962.0
966.0
965.0
966.0
968.0
967.0
968.0
970.0
968.0
968.0
969.0
967.0
968.0
966.0
967.0
968.0
968.0
970.0
972.0
974.0
975.0
974.0
974.0
975.0
977.0
978.0
977.0
983.0
985.0
986.0
989.0
993.0
994.0
996.0
996.0
997.0
996.0
998.0
1000.0
999.0
999.0
999.0
999.0
995.0
994.0
989.0
986.0
983.0
981.0
979.0
976.0
976.0
979.0
978.0
974.0
973.0
969.0
965.0
961.0
958.0
958.0
958.0
959.0
963.0
962.0
964.0
964.0
961.0
957.0
960.0
955.0
957.0
958.0
959.0
962.0
964.0
966.0
967.0
967.0
967.0
964.0
962.0
963.0
963.0
963.0
965.0
966.0
967.0
972.0
974.0
980.0
987.0
1001.0
1022.0
1050.0
1084.0
1125.0
1175.0
1224.0
1271.0
1309.0
1324.0
1312.0
1269.0
1198.0
1104.0
998.0
892.0
801.0
745.0
735.0
759.0
803.0
856.0
900.0
933.0
956.0
967.0
973.0
978.0
980.0
981.0
981.0
979.0
982.0
982.0
987.0
987.0
986.0
984.0
986.0
988.0
989.0
993.0
994.0
996.0
998.0
997.0
1000.0
1001.0
1001.0
1004.0
1005.0
1007.0
1007.0
1008.0
1011.0
1014.0
1015.0
1016.0
1019.0
1021.0
1021.0
1021.0
1022.0
1021.0
1021.0
1022.0
1024.0
1028.0
1031.0
1034.0
1038.0
1041.0
1043.0
1044.0
1046.0
1047.0
1046.0
1052.0
1057.0
1062.0
1067.0
1071.0
1076.0
1079.0
1080.0
1081.0
1081.0
1083.0
1086.0
1086.0
1092.0
1092.0
1096.0
1098.0
1097.0
1095.0
1095.0
1093.0
1093.0
1093.0
1091.0
1089.0
1088.0
1086.0
1084.0
1081.0
1078.0
1075.0
1072.0
1063.0
1055.0
1048.0
1042.0
1036.0
1032.0
1028.0
1024.0
1020.0
1018.0
1013.0
1006.0
1003.0
996.0
995.0
993.0
989.0
988.0
987.0
988.0
988.0
989.0
987.0
985.0
984.0
983.0
982.0
981.0
981.0
984.0
987.0
988.0
986.0
986.0
984.0
985.0
986.0
981.0
981.0
981.0
982.0
982.0
983.0
984.0
984.0
983.0
982.0
979.0
979.0
978.0
976.0
977.0
979.0
980.0
981.0
984.0
983.0
981.0
984.0
983.0
983.0
982.0
982.0
977.0
976.0
977.0
976.0
979.0
978.0
981.0
981.0
980.0
977.0
974.0
973.0
971.0
968.0
968.0
969.0
969.0
971.0
973.0
974.0
972.0
971.0
970.0
966.0
966.0
966.0
967.0
968.0
969.0
972.0
972.0
973.0
971.0
969.0
966.0
965.0
969.0
967.0
970.0
972.0
975.0
972.0
973.0
973.0
971.0
970.0
969.0
965.0
966.0
965.0
967.0
967.0
972.0
974.0
977.0
976.0
980.0
981.0
985.0
988.0
989.0
991.0
992.0
994.0
995.0
1000.0
1001.0
1002.0
1003.0
1000.0
1001.0
999.0
999.0
999.0
999.0
998.0
998.0
997.0
998.0
997.0
994.0
987.0
979.0
973.0
970.0
967.0
966.0
965.0
968.0
968.0
969.0
969.0
967.0
966.0
964.0
967.0
968.0
971.0
975.0
979.0
983.0
986.0
989.0
992.0
994.0
999.0
1002.0
1004.0
1006.0
1011.0
1019.0
1023.0
1031.0
1037.0
1044.0
1052.0
1062.0
1072.0
1079.0
1085.0
1092.0
1096.0
1103.0
1110.0
1128.0
1151.0
1180.0
1216.0
1255.0
1300.0
1340.0
1375.0
1402.0
1417.0
1414.0
1388.0
1333.0
1256.0
1166.0
1067.0
967.0
886.0
838.0
822.0
830.0
860.0
891.0
922.0
945.0
961.0
969.0
976.0
975.0
970.0
968.0
965.0
963.0
966.0
964.0
968.0
970.0
969.0
970.0
971.0
972.0
967.0
968.0
969.0
968.0
969.0
973.0
972.0
976.0
975.0
978.0
976.0
976.0
973.0
973.0
976.0
977.0
977.0
981.0
981.0
983.0
983.0
980.0
981.0
978.0
978.0
977.0
976.0
974.0
975.0
976.0
975.0
976.0
978.0
980.0
981.0
979.0
981.0
982.0
986.0
987.0
989.0
992.0
993.0
995.0
993.0
994.0
997.0
998.0
997.0
998.0
999.0
997.0
997.0
999.0
1000.0
1002.0
1002.0
1004.0
1003.0
1008.0
1007.0
1005.0
1005.0
1006.0
1008.0
1010.0
1014.0
1015.0
1014.0
1011.0
1010.0
1005.0
1002.0
997.0
998.0
995.0
995.0
993.0
997.0
994.0
993.0
992.0
988.0
985.0
983.0
983.0
981.0
982.0
982.0
985.0
985.0
984.0
987.0
986.0
985.0
986.0
983.0
984.0
984.0
982.0
981.0
984.0
981.0
982.0
986.0
986.0
986.0
987.0
983.0
984.0
983.0
985.0
985.0
985.0
987.0
988.0
991.0
992.0
994.0
992.0
991.0
989.0
987.0
987.0
985.0
986.0
989.0
990.0
990.0
992.0
991.0
991.0
988.0
987.0
985.0
985.0
985.0
988.0
990.0
990.0
990.0
985.0
986.0
982.0
983.0
984.0
981.0
980.0
982.0
982.0
982.0
983.0
980.0
982.0
981.0
981.0
982.0
979.0
980.0
977.0
979.0
978.0
980.0
981.0
983.0
982.0
980.0
978.0
976.0
976.0
974.0
975.0
974.0
975.0
981.0
982.0
986.0
987.0
987.0
987.0
985.0
987.0
987.0
989.0
993.0
997.0
1001.0
1003.0
1006.0
1006.0
1007.0
1007.0
1007.0
1007.0
1006.0
1006.0
1008.0
1008.0
1009.0
1008.0
1003.0
1005.0
1003.0
1003.0
1002.0
1002.0
1000.0
997.0
995.0
991.0
989.0
986.0
986.0
985.0
982.0
979.0
977.0
978.0
975.0
977.0
981.0
987.0
989.0
988.0
988.0
988.0
989.0
991.0
994.0
996.0
1000.0
1004.0
1007.0
1011.0
1018.0
1024.0
1032.0
1039.0
1047.0
1054.0
1062.0
1070.0
1079.0
1086.0
1092.0
1101.0
1111.0
1122.0
1141.0
1167.0
1198.0
1232.0
1273.0
1315.0
1357.0
1387.0
1408.0
1408.0
1388.0
1342.0
1273.0
1182.0
1080.0
974.0
891.0
841.0
827.0
843.0
876.0
913.0
948.0
971.0
982.0
988.0
989.0
983.0
978.0
975.0
972.0
972.0
973.0
976.0
979.0
983.0
985.0
986.0
986.0
984.0
983.0
982.0
983.0
984.0
986.0
988.0
991.0
989.0
990.0
988.0
987.0
986.0
984.0
980.0
980.0
980.0
982.0
986.0
989.0
993.0
997.0
996.0
997.0
993.0
990.0
987.0
985.0
984.0
985.0
984.0
987.0
989.0
992.0
994.0
994.0
993.0
994.0
992.0
992.0
989.0
991.0
993.0
995.0
995.0
1001.0
1001.0
1008.0
1008.0
1010.0
1005.0
1005.0
1005.0
1005.0
1008.0
1013.0
1012.0
1012.0
1016.0
1016.0
1016.0
1017.0
1019.0
1019.0
1017.0
1016.0
1017.0
1020.0
1020.0
1020.0
1018.0
1014.0
1012.0
1012.0
1009.0
1007.0
1003.0
1003.0
1003.0
1001.0
1002.0
1000.0
999.0
998.0
997.0
994.0
991.0
992.0
990.0
988.0
992.0
991.0
996.0
996.0
994.0
995.0
994.0
992.0
992.0
992.0
992.0
993.0
994.0
992.0
995.0
994.0
996.0
994.0
996.0
997.0
997.0
995.0
993.0
995.0
997.0
1000.0
1002.0
999.0
1003.0
1006.0
1005.0
1003.0
1001.0
1000.0
997.0
997.0
998.0
1000.0
1001.0
1002.0
1003.0
1000.0
997.0
995.0
995.0
994.0
995.0
995.0
995.0
995.0
995.0
996.0
993.0
995.0
992.0
988.0
990.0
988.0
988.0
986.0
988.0
986.0
989.0
988.0
989.0
990.0
988.0
986.0
987.0
985.0
984.0
985.0
985.0
986.0
984.0
986.0
987.0
986.0
987.0
987.0
986.0
985.0
985.0
985.0
987.0
990.0
993.0
994.0
998.0
1002.0
1003.0
1007.0
1008.0
1011.0
1011.0
1013.0
1015.0
1016.0
1017.0
1019.0
1021.0
1021.0
1023.0
1021.0
1016.0
1012.0
1012.0
1010.0
1008.0
1009.0
1008.0
1009.0
1007.0
1002.0
1000.0
996.0
995.0
991.0
989.0
988.0
987.0
986.0
985.0
982.0
984.0
985.0
984.0
983.0
984.0
984.0
986.0
990.0
992.0
996.0
999.0
1002.0
1004.0
1008.0
1012.0
1014.0
1019.0
1021.0
1025.0
1031.0
1035.0
1042.0
1053.0
1059.0
1068.0
1079.0
1086.0
1094.0
1098.0
1103.0
1108.0
1124.0
1141.0
1173.0
1209.0
1256.0
1303.0
1347.0
1388.0
1418.0
1433.0
1427.0
1398.0
1346.0
1271.0
1183.0
1084.0
995.0
915.0
861.0
836.0
841.0
861.0
894.0
925.0
947.0
965.0
974.0
982.0
985.0
979.0
978.0
971.0
970.0
968.0
966.0
969.0
971.0
975.0
979.0
979.0
980.0
981.0
981.0
977.0
979.0
978.0
979.0
979.0
977.0
975.0
978.0
978.0
981.0
982.0
984.0
986.0
988.0
987.0
984.0
984.0
984.0
985.0
984.0
982.0
980.0
978.0
979.0
979.0
979.0
976.0
974.0
969.0
967.0
966.0
972.0
978.0
981.0
984.0
985.0
985.0
984.0
983.0
983.0
983.0
985.0
989.0
992.0
992.0
996.0
997.0
996.0
996.0
998.0
998.0
1002.0
1003.0
1005.0
1007.0
1008.0
1009.0
1013.0
1013.0
1017.0
1019.0
1019.0
1019.0
1017.0
1014.0
1011.0
1010.0
1008.0
1012.0
1010.0
1011.0
1007.0
1004.0
998.0
994.0
989.0
985.0
985.0
983.0
986.0
990.0
991.0
992.0
992.0
992.0
989.0
988.0
987.0
987.0
987.0
990.0
990.0
990.0
992.0
992.0
991.0
992.0
988.0
987.0
986.0
987.0
988.0
992.0
991.0
993.0
993.0
989.0
988.0
988.0
989.0
988.0
990.0
990.0
991.0
994.0
993.0
993.0
995.0
997.0
996.0
996.0
994.0
992.0
992.0
990.0
989.0
991.0
993.0
993.0
990.0
992.0
993.0
995.0
993.0
992.0
991.0
991.0
989.0
988.0
990.0
989.0
992.0
990.0
992.0
988.0
987.0
983.0
983.0
981.0
978.0
979.0
983.0
984.0
983.0
984.0
985.0
981.0
980.0
981.0
979.0
979.0
978.0
980.0
982.0
984.0
987.0
988.0
990.0
991.0
990.0
992.0
994.0
997.0
998.0
1001.0
1004.0
1004.0
1008.0
1011.0
1009.0
1010.0
1007.0
1006.0
1006.0
1005.0
1002.0
999.0
1001.0
999.0
998.0
996.0
995.0
992.0
987.0
986.0
985.0
985.0
982.0
981.0
977.0
975.0
975.0
972.0
970.0
973.0
971.0
969.0
969.0
968.0
970.0
974.0
975.0
978.0
985.0
986.0
990.0
991.0
994.0
994.0
997.0
998.0
1003.0
1007.0
1013.0
1021.0
1027.0
1033.0
1039.0
1046.0
1054.0
1061.0
1070.0
1075.0
1081.0
1090.0
1098.0
1109.0
1123.0
1145.0
1173.0
1208.0
1246.0
1288.0
1325.0
1357.0
1380.0
1384.0
1372.0
1334.0
1280.0
1207.0
1125.0
1033.0
947.0
879.0
838.0
827.0
845.0
874.0
907.0
938.0
961.0
971.0
978.0
976.0
971.0
966.0
962.0
961.0
961.0
962.0
962.0
966.0
967.0
968.0
969.0
969.0
972.0
972.0
970.0
969.0
969.0
970.0
970.0
973.0
975.0
975.0
978.0
975.0
973.0
973.0
969.0
969.0
968.0
971.0
970.0
973.0
974.0
974.0
975.0
974.0
974.0
973.0
973.0
973.0
974.0
975.0
978.0
979.0
982.0
982.0
982.0
982.0
982.0
980.0
985.0
985.0
986.0
988.0
988.0
991.0
993.0
994.0
995.0
994.0
996.0
997.0
999.0
1000.0
995.0
1000.0
1000.0
1005.0
1006.0
1007.0
1008.0
1010.0
1009.0
1009.0
1010.0
1007.0
1004.0
1006.0
1006.0
1008.0
1009.0
1006.0
1003.0
1001.0
999.0
996.0
993.0
990.0
988.0
987.0
989.0
988.0
987.0
985.0
981.0
981.0
981.0
981.0
979.0
978.0
977.0
979.0
979.0
981.0
982.0
980.0
983.0
979.0
979.0
976.0
978.0
975.0
975.0
975.0
977.0
977.0
978.0
979.0
977.0
979.0
979.0
979.0
977.0
975.0
973.0
975.0
977.0
978.0
978.0
979.0
984.0
981.0
981.0
979.0
977.0
976.0
976.0
975.0
977.0
980.0
979.0
981.0
982.0
981.0
979.0
975.0
974.0
973.0
973.0
971.0
972.0
972.0
973.0
972.0
973.0
973.0
969.0
967.0
969.0
972.0
972.0
973.0
971.0
971.0
974.0
973.0
975.0
975.0
974.0
973.0
972.0
970.0
971.0
969.0
971.0
970.0
972.0
972.0
973.0
972.0
972.0
972.0
968.0
969.0
969.0
970.0
971.0
971.0
974.0
976.0
979.0
979.0
979.0
979.0
978.0
982.0
982.0
985.0
988.0
993.0
994.0
996.0
998.0
995.0
997.0
995.0
995.0
991.0
992.0
992.0
992.0
994.0
993.0
991.0
988.0
988.0
982.0
979.0
978.0
977.0
974.0
972.0
973.0
973.0
969.0
968.0
967.0
968.0
964.0
964.0
964.0
967.0
966.0
971.0
974.0
976.0
981.0
983.0
986.0
986.0
991.0
991.0
994.0
1000.0
1004.0
1006.0
1016.0
1022.0
1029.0
1040.0
1048.0
1057.0
1063.0
1070.0
1073.0
1079.0
1086.0
1096.0
1110.0
1130.0
1158.0
1189.0
1223.0
1258.0
1292.0
1322.0
1338.0
1343.0
1332.0
1303.0
1256.0
1197.0
1122.0
1040.0
960.0
894.0
856.0
846.0
860.0
886.0
919.0
946.0
965.0
975.0
976.0
975.0
968.0
966.0
965.0
964.0
961.0
961.0
960.0
961.0
961.0
961.0
960.0
961.0
964.0
964.0
961.0
964.0
963.0
963.0
961.0
961.0
962.0
964.0
965.0
966.0
967.0
966.0
967.0
964.0
962.0
964.0
964.0
964.0
964.0
965.0
967.0
966.0
965.0
966.0
964.0
966.0
962.0
965.0
964.0
965.0
968.0
970.0
971.0
973.0
975.0
975.0
975.0
975.0
978.0
980.0
983.0
986.0
987.0
989.0
990.0
990.0
990.0
990.0
988.0
988.0
987.0
990.0
989.0
991.0
992.0
992.0
995.0
998.0
1000.0
1002.0
1002.0
1004.0
1001.0
999.0
999.0
999.0
1000.0
1000.0
998.0
999.0
997.0
997.0
994.0
990.0
988.0
985.0
983.0
981.0
980.0
981.0
983.0
985.0
983.0
983.0
981.0
979.0
976.0
974.0
971.0
972.0
974.0
975.0
976.0
978.0
978.0
977.0
973.0
972.0
972.0
972.0
971.0
972.0
973.0
974.0
975.0
974.0
974.0
977.0
975.0
976.0
975.0
976.0
975.0
976.0
976.0
977.0
978.0
980.0
982.0
981.0
980.0
980.0
978.0
979.0
976.0
977.0
977.0
976.0
979.0
979.0
980.0
980.0
980.0
981.0
977.0
978.0
975.0
977.0
976.0
979.0
980.0
981.0
979.0
979.0
978.0
977.0
976.0
974.0
974.0
974.0
975.0
977.0
977.0
977.0
976.0
977.0
977.0
972.0
971.0
972.0
970.0
973.0
974.0
976.0
980.0
981.0
979.0
979.0
978.0
975.0
976.0
975.0
976.0
976.0
979.0
977.0
979.0
977.0
978.0
979.0
977.0
976.0
976.0
974.0
973.0
972.0
974.0
977.0
980.0
981.0
983.0
986.0
987.0
987.0
987.0
989.0
992.0
993.0
995.0
1000.0
999.0
1005.0
1006.0
1008.0
1007.0
1007.0
1004.0
1004.0
1003.0
1003.0
1001.0
1002.0
1001.0
1002.0
999.0
995.0
992.0
989.0
986.0
985.0
981.0
980.0
983.0
980.0
975.0
973.0
974.0
974.0
973.0
972.0
973.0
974.0
976.0
978.0
981.0
984.0
985.0
988.0
991.0
992.0
993.0
995.0
998.0
1001.0
1004.0
1008.0
1013.0
1018.0
1024.0
1032.0
1041.0
1049.0
1054.0
1061.0
1066.0
1073.0
1076.0
1081.0
1087.0
1099.0
1111.0
1126.0
1151.0
1180.0
1212.0
1243.0
1277.0
1307.0
1325.0
1333.0
1324.0
1299.0
1257.0
1198.0
1127.0
1049.0
971.0
903.0
864.0
849.0
859.0
884.0
917.0
942.0
964.0
978.0
980.0
982.0
979.0
973.0
969.0
965.0
964.0
968.0
972.0
975.0
977.0
978.0
978.0
977.0
976.0
974.0
975.0
974.0
975.0
975.0
975.0
976.0
977.0
978.0
976.0
978.0
977.0
974.0
976.0
976.0
975.0
973.0
973.0
973.0
974.0
975.0
976.0
978.0
978.0
979.0
978.0
977.0
978.0
979.0
981.0
981.0
984.0
986.0
987.0
990.0
990.0
988.0
987.0
989.0
989.0
989.0
991.0
993.0
997.0
998.0
998.0
1000.0
1002.0
1001.0
997.0
999.0
997.0
1001.0
1003.0
1006.0
1007.0
1012.0
1010.0
1011.0
1011.0
1008.0
1010.0
1011.0
1013.0
1014.0
1014.0
1016.0
1015.0
1013.0
1012.0
1009.0
1007.0
1006.0
1001.0
1002.0
1000.0
999.0
998.0
996.0
994.0
996.0
992.0
990.0
993.0
990.0
988.0
986.0
984.0
984.0
984.0
984.0
983.0
983.0
984.0
984.0
985.0
984.0
983.0
983.0
980.0
979.0
982.0
985.0
984.0
986.0
987.0
988.0
985.0
984.0
984.0
983.0
982.0
982.0
984.0
986.0
987.0
988.0
989.0
989.0
988.0
988.0
984.0
982.0
984.0
982.0
984.0
989.0
990.0
991.0
990.0
991.0
989.0
989.0
