# Simple Text Format
# Sampling Rate (Hz):= 360.00
# Resolution:= 12
# Labels:= ECG
967.0
966.0
966.0
967.0
969.0
972.0
973.0
975.0
975.0
973.0
972.0
970.0
967.0
966.0
968.0
970.0
972.0
976.0
976.0
977.0
973.0
971.0
971.0
969.0
969.0
970.0
970.0
971.0
974.0
975.0
975.0
974.0
972.0
976.0
976.0
976.0
977.0
977.0
980.0
982.0
981.0
984.0
984.0
985.0
987.0
988.0
988.0
989.0
987.0
990.0
989.0
991.0
990.0
991.0
994.0
995.0
999.0
997.0
998.0
998.0
998.0
997.0
1000.0
1000.0
1001.0
999.0
1002.0
1002.0
1000.0
998.0
997.0
993.0
987.0
984.0
982.0
982.0
982.0
983.0
983.0
981.0
983.0
981.0
977.0
975.0
973.0
972.0
974.0
975.0
973.0
973.0
977.0
977.0
976.0
974.0
974.0
971.0
971.0
972.0
973.0
974.0
973.0
974.0
971.0
975.0
973.0
973.0
972.0
972.0
971.0
974.0
974.0
974.0
974.0
977.0
977.0
977.0
977.0
980.0
980.0
979.0
977.0
975.0
974.0
974.0
974.0
976.0
978.0
980.0
981.0
978.0
976.0
974.0
973.0
973.0
973.0
975.0
979.0
980.0
978.0
977.0
979.0
978.0
977.0
976.0
978.0
973.0
975.0
975.0
975.0
977.0
976.0
976.0
975.0
974.0
975.0
972.0
974.0
973.0
972.0
971.0
970.0
973.0
970.0
972.0
971.0
975.0
974.0
973.0
972.0
970.0
971.0
971.0
972.0
971.0
970.0
976.0
974.0
975.0
973.0
970.0
971.0
969.0
968.0
966.0
968.0
970.0
972.0
974.0
975.0
975.0
973.0
969.0
969.0
969.0
968.0
970.0
973.0
976.0
979.0
978.0
978.0
979.0
980.0
980.0
984.0
986.0
989.0
994.0
997.0
1000.0
1000.0
1005.0
1004.0
1002.0
999.0
999.0
999.0
996.0
998.0
997.0
996.0
994.0
990.0
986.0
984.0
979.0
978.0
979.0
979.0
977.0
972.0
970.0
968.0
967.0
967.0
968.0
971.0
970.0
970.0
970.0
972.0
972.0
975.0
977.0
982.0
988.0
990.0
997.0
997.0
1004.0
1004.0
1007.0
1009.0
1013.0
1020.0
1027.0
1035.0
1045.0
1054.0
1064.0
1073.0
1080.0
1084.0
1087.0
1091.0
1098.0
1105.0
1118.0
1138.0
1165.0
1196.0
1234.0
1277.0
1318.0
1354.0
1381.0
1398.0
1389.0
1361.0
1305.0
1227.0
1126.0
1025.0
933.0
866.0
835.0
828.0
846.0
875.0
902.0
929.0
954.0
967.0
975.0
979.0
976.0
972.0
970.0
966.0
964.0
963.0
967.0
967.0
967.0
970.0
972.0
975.0
975.0
975.0
975.0
974.0
973.0
969.0
969.0
972.0
972.0
974.0
976.0
980.0
983.0
981.0
979.0
981.0
978.0
977.0
976.0
978.0
979.0
980.0
981.0
983.0
983.0
983.0
982.0
980.0
979.0
982.0
983.0
984.0
988.0
986.0
986.0
987.0
988.0
990.0
991.0
994.0
995.0
996.0
995.0
996.0
997.0
998.0
997.0
999.0
1001.0
1002.0
1003.0
1004.0
1005.0
1005.0
1004.0
1004.0
1004.0
1007.0
1011.0
1013.0
1016.0
1016.0
1017.0
1017.0
1016.0
1016.0
1014.0
1014.0
1014.0
1013.0
1016.0
1015.0
1015.0
1014.0
1011.0
1009.0
1002.0
1000.0
997.0
995.0
994.0
995.0
996.0
998.0
997.0
995.0
994.0
992.0
990.0
987.0
986.0
987.0
988.0
990.0
990.0
993.0
993.0
990.0
989.0
990.0
990.0
990.0
991.0
990.0
991.0
993.0
995.0
993.0
992.0
993.0
994.0
993.0
994.0
994.0
993.0
990.0
989.0
987.0
988.0
988.0
990.0
991.0
992.0
993.0
990.0
989.0
987.0
987.0
988.0
993.0
993.0
996.0
996.0
998.0
999.0
999.0
998.0
997.0
995.0
990.0
992.0
994.0
995.0
994.0
995.0
994.0
996.0
993.0
989.0
988.0
985.0
985.0
986.0
988.0
989.0
991.0
991.0
988.0
984.0
982.0
981.0
981.0
982.0
984.0
982.0
987.0
988.0
991.0
989.0
986.0
988.0
986.0
986.0
986.0
986.0
986.0
987.0
988.0
988.0
990.0
988.0
988.0
988.0
989.0
987.0
987.0
986.0
983.0
985.0
985.0
987.0
988.0
991.0
991.0
989.0
991.0
988.0
989.0
988.0
987.0
987.0
987.0
991.0
993.0
994.0
994.0
994.0
991.0
991.0
989.0
984.0
985.0
987.0
990.0
995.0
996.0
997.0
998.0
999.0
998.0
999.0
1000.0
1003.0
1004.0
1008.0
1011.0
1012.0
1014.0
1018.0
1019.0
1018.0
1018.0
1016.0
1018.0
1017.0
1017.0
1017.0
1014.0
1016.0
1015.0
1011.0
1011.0
1008.0
1004.0
1004.0
1000.0
999.0
999.0
996.0
994.0
992.0
992.0
989.0
990.0
987.0
988.0
988.0
991.0
990.0
993.0
996.0
999.0
1000.0
1005.0
1008.0
1013.0
1017.0
1016.0
1019.0
1021.0
1026.0
1029.0
1036.0
1044.0
1050.0
1059.0
1069.0
1078.0
1087.0
1097.0
1100.0
1106.0
1111.0
1116.0
1125.0
1141.0
1162.0
1190.0
1223.0
1260.0
1297.0
1338.0
1364.0
1382.0
1384.0
1361.0
1317.0
1250.0
1162.0
1068.0
976.0
901.0
862.0
850.0
863.0
893.0
924.0
954.0
978.0
987.0
996.0
996.0
992.0
988.0
984.0
981.0
979.0
981.0
981.0
983.0
984.0
987.0
985.0
990.0
989.0
988.0
987.0
984.0
984.0
984.0
983.0
984.0
986.0
987.0
989.0
989.0
988.0
987.0
987.0
986.0
987.0
989.0
987.0
988.0
988.0
987.0
989.0
989.0
990.0
992.0
992.0
992.0
992.0
991.0
992.0
992.0
992.0
994.0
996.0
998.0
999.0
1003.0
1004.0
1004.0
1003.0
1002.0
1001.0
1001.0
1003.0
1006.0
1010.0
1012.0
1014.0
1015.0
1015.0
1013.0
1011.0
1012.0
1012.0
1014.0
1016.0
1015.0
1017.0
1019.0
1020.0
1023.0
1023.0
1018.0
1017.0
1016.0
1012.0
1010.0
1011.0
1010.0
1009.0
1010.0
1010.0
1009.0
1006.0
1005.0
1000.0
999.0
995.0
992.0
992.0
991.0
993.0
994.0
992.0
992.0
992.0
989.0
988.0
988.0
985.0
984.0
984.0
985.0
988.0
988.0
988.0
989.0
990.0
988.0
987.0
982.0
981.0
984.0
989.0
989.0
992.0
992.0
993.0
992.0
993.0
990.0
990.0
991.0
992.0
992.0
991.0
993.0
993.0
993.0
994.0
994.0
993.0
991.0
991.0
991.0
993.0
993.0
994.0
993.0
993.0
993.0
995.0
995.0
996.0
995.0
994.0
995.0
994.0
994.0
991.0
992.0
992.0
993.0
995.0
995.0
995.0
992.0
993.0
991.0
988.0
986.0
988.0
992.0
990.0
992.0
993.0
992.0
988.0
988.0
987.0
985.0
986.0
984.0
986.0
988.0
990.0
990.0
992.0
991.0
991.0
988.0
988.0
987.0
987.0
987.0
988.0
990.0
991.0
993.0
991.0
991.0
989.0
990.0
988.0
987.0
987.0
989.0
986.0
989.0
988.0
991.0
989.0
991.0
989.0
990.0
988.0
988.0
988.0
988.0
988.0
991.0
990.0
994.0
992.0
992.0
994.0
993.0
992.0
991.0
992.0
992.0
990.0
993.0
996.0
1000.0
1002.0
1004.0
1004.0
1005.0
1005.0
1008.0
1009.0
1008.0
1013.0
1018.0
1021.0
1022.0
1022.0
1021.0
1021.0
1018.0
1015.0
1013.0
1013.0
1010.0
1008.0
1008.0
1008.0
1004.0
1003.0
1002.0
1001.0
998.0
996.0
992.0
988.0
985.0
983.0
985.0
984.0
986.0
988.0
990.0
993.0
995.0
997.0
999.0
1001.0
1003.0
1004.0
1007.0
1009.0
1015.0
1018.0
1025.0
1029.0
1033.0
1036.0
1039.0
1047.0
1053.0
1064.0
1072.0
1083.0
1096.0
1106.0
1112.0
1117.0
1119.0
1125.0
1135.0
1152.0
1177.0
1205.0
1242.0
1282.0
1322.0
1354.0
1369.0
1369.0
1349.0
1306.0
1246.0
1171.0
1078.0
987.0
909.0
860.0
843.0
859.0
890.0
925.0
959.0
982.0
996.0
1002.0
1001.0
996.0
988.0
985.0
985.0
986.0
988.0
991.0
992.0
992.0
992.0
991.0
991.0
991.0
992.0
993.0
997.0
999.0
999.0
998.0
995.0
995.0
992.0
991.0
990.0
993.0
995.0
997.0
998.0
1001.0
999.0
998.0
997.0
996.0
993.0
994.0
995.0
996.0
999.0
999.0
1001.0
1001.0
1002.0
1000.0
1001.0
1001.0
1003.0
1002.0
1004.0
1006.0
1006.0
1008.0
1012.0
1014.0
1014.0
1015.0
1017.0
1017.0
1018.0
1019.0
1018.0
1020.0
1023.0
1024.0
1023.0
1026.0
1029.0
1028.0
1028.0
1030.0
1026.0
1029.0
1026.0
1030.0
1032.0
1034.0
1035.0
1033.0
1031.0
1031.0
1024.0
1020.0
1018.0
1016.0
1015.0
1014.0
1013.0
1012.0
1012.0
1012.0
1013.0
1009.0
1008.0
1005.0
1003.0
1001.0
999.0
998.0
1000.0
1002.0
1000.0
999.0
999.0
998.0
996.0
995.0
993.0
993.0
994.0
994.0
994.0
994.0
996.0
998.0
995.0
995.0
996.0
996.0
995.0
996.0
994.0
996.0
998.0
997.0
1001.0
1001.0
1002.0
1000.0
1001.0
1000.0
999.0
998.0
999.0
998.0
999.0
1000.0
1002.0
1003.0
1004.0
1003.0
1002.0
1002.0
998.0
995.0
996.0
1000.0
999.0
1001.0
1003.0
1001.0
1002.0
1002.0
999.0
1000.0
998.0
999.0
998.0
998.0
999.0
997.0
1000.0
999.0
998.0
999.0
996.0
998.0
996.0
994.0
994.0
993.0
993.0
994.0
995.0
996.0
994.0
995.0
993.0
993.0
991.0
993.0
989.0
990.0
992.0
993.0
994.0
994.0
997.0
996.0
995.0
993.0
991.0
988.0
989.0
990.0
988.0
993.0
994.0
998.0
996.0
994.0
992.0
992.0
989.0
988.0
989.0
989.0
988.0
993.0
991.0
992.0
995.0
995.0
992.0
990.0
990.0
988.0
986.0
990.0
993.0
991.0
995.0
994.0
992.0
990.0
993.0
991.0
992.0
991.0
992.0
991.0
991.0
993.0
994.0
994.0
996.0
994.0
996.0
995.0
994.0
994.0
994.0
995.0
996.0
998.0
1001.0
1007.0
1006.0
1007.0
1011.0
1011.0
1012.0
1011.0
1010.0
1014.0
1017.0
1019.0
1020.0
1022.0
1019.0
1021.0
1019.0
1018.0
1014.0
1013.0
1011.0
1010.0
1010.0
1009.0
1007.0
1004.0
1003.0
1001.0
1003.0
1001.0
997.0
996.0
992.0
992.0
992.0
992.0
997.0
996.0
996.0
997.0
998.0
998.0
998.0
1000.0
1002.0
1006.0
1011.0
1016.0
1020.0
1022.0
1026.0
1029.0
1031.0
1035.0
1039.0
1044.0
1049.0
1056.0
1067.0
1074.0
1084.0
1099.0
1108.0
1113.0
1120.0
1128.0
1134.0
1146.0
1160.0
1182.0
1208.0
1237.0
1266.0
1291.0
1311.0
1321.0
1316.0
1297.0
1267.0
1224.0
1170.0
1108.0
1042.0
981.0
932.0
904.0
899.0
911.0
930.0
955.0
975.0
990.0
996.0
1001.0
1000.0
997.0
994.0
995.0
994.0
995.0
992.0
994.0
992.0
990.0
992.0
993.0
995.0
996.0
997.0
997.0
998.0
999.0
997.0
998.0
997.0
996.0
996.0
997.0
998.0
999.0
999.0
1001.0
1002.0
1001.0
999.0
1000.0
998.0
997.0
994.0
994.0
996.0
996.0
1000.0
1001.0
1002.0
1002.0
1001.0
1002.0
999.0
1001.0
1000.0
1001.0
1004.0
1006.0
1008.0
1009.0
1012.0
1011.0
1012.0
1012.0
1011.0
1013.0
1013.0
1014.0
1017.0
1017.0
1021.0
1021.0
1022.0
1022.0
1023.0
1022.0
1020.0
1020.0
1018.0
1020.0
1023.0
1023.0
1026.0
1027.0
1028.0
1027.0
1028.0
1027.0
1024.0
1022.0
1020.0
1018.0
1017.0
1017.0
1016.0
1015.0
1013.0
1013.0
1007.0
1011.0
1006.0
1003.0
1003.0
1001.0
1003.0
1001.0
1002.0
1004.0
1005.0
1002.0
1001.0
999.0
997.0
997.0
996.0
995.0
997.0
999.0
1000.0
999.0
1001.0
997.0
997.0
997.0
995.0
994.0
996.0
996.0
995.0
996.0
996.0
1001.0
998.0
997.0
997.0
995.0
994.0
997.0
996.0
997.0
999.0
998.0
1000.0
1000.0
1000.0
997.0
998.0
1000.0
996.0
994.0
995.0
998.0
996.0
998.0
998.0
999.0
1000.0
999.0
995.0
996.0
994.0
994.0
994.0
994.0
995.0
993.0
997.0
999.0
999.0
997.0
996.0
993.0
992.0
991.0
988.0
988.0
988.0
990.0
992.0
994.0
993.0
993.0
992.0
991.0
991.0
989.0
988.0
989.0
988.0
989.0
990.0
989.0
990.0
991.0
989.0
990.0
990.0
988.0
986.0
988.0
988.0
986.0
989.0
991.0
992.0
990.0
989.0
989.0
988.0
987.0
987.0
987.0
988.0
985.0
988.0
990.0
990.0
990.0
988.0
990.0
989.0
987.0
986.0
987.0
987.0
988.0
989.0
991.0
987.0
987.0
986.0
987.0
986.0
986.0
986.0
987.0
988.0
988.0
991.0
990.0
988.0
991.0
989.0
989.0
987.0
987.0
986.0
987.0
988.0
987.0
988.0
989.0
989.0
987.0
990.0
990.0
989.0
990.0
991.0
991.0
994.0
997.0
998.0
1001.0
1004.0
1004.0
1006.0
1009.0
1010.0
1010.0
1010.0
1013.0
1014.0
1015.0
1017.0
1017.0
1018.0
1016.0
1014.0
1013.0
1009.0
1006.0
1002.0
998.0
996.0
996.0
997.0
995.0
997.0
995.0
992.0
987.0
983.0
980.0
979.0
980.0
980.0
981.0
982.0
986.0
986.0
982.0
980.0
980.0
979.0
979.0
979.0
980.0
981.0
981.0
983.0
984.0
987.0
986.0
987.0
984.0
986.0
987.0
987.0
987.0
989.0
991.0
993.0
995.0
998.0
1002.0
1009.0
1019.0
1032.0
1053.0
1081.0
1112.0
1147.0
1183.0
1217.0
1248.0
1269.0
1271.0
1254.0
1213.0
1159.0
1089.0
1015.0
941.0
881.0
840.0
825.0
832.0
859.0
886.0
917.0
944.0
962.0
977.0
987.0
993.0
999.0
1000.0
1003.0
1003.0
1003.0
1005.0
1007.0
1005.0
1006.0
1003.0
1009.0
1009.0
1010.0
1011.0
1011.0
1015.0
1016.0
1017.0
1017.0
1018.0
1016.0
1018.0
1017.0
1019.0
1021.0
1022.0
1023.0
1025.0
1026.0
1028.0
1028.0
1029.0
1032.0
1033.0
1034.0
1034.0
1038.0
1040.0
1041.0
1045.0
1047.0
1050.0
1049.0
1049.0
1053.0
1053.0
1055.0
1058.0
1060.0
1064.0
1070.0
1073.0
1077.0
1081.0
1082.0
1084.0
1084.0
1084.0
1085.0
1087.0
1093.0
1094.0
1100.0
1102.0
1102.0
1105.0
1103.0
1099.0
1099.0
1099.0
1099.0
1103.0
1102.0
1103.0
1104.0
1104.0
1101.0
1099.0
1093.0
1091.0
1085.0
1082.0
1077.0
1073.0
1069.0
1065.0
1060.0
1056.0
1049.0
1044.0
1038.0
1031.0
1025.0
1022.0
1017.0
1014.0
1012.0
1008.0
1006.0
1003.0
1003.0
1001.0
997.0
997.0
992.0
990.0
989.0
987.0
989.0
989.0
994.0
996.0
995.0
997.0
996.0
995.0
994.0
992.0
992.0
996.0
995.0
996.0
997.0
1001.0
1000.0
998.0
997.0
998.0
997.0
996.0
997.0
997.0
998.0
997.0
999.0
1000.0
1000.0
1000.0
999.0
997.0
996.0
996.0
995.0
994.0
995.0
995.0
995.0
996.0
997.0
995.0
994.0
993.0
993.0
992.0
990.0
990.0
989.0
988.0
990.0
991.0
990.0
992.0
990.0
988.0
987.0
985.0
985.0
982.0
982.0
987.0
987.0
989.0
989.0
988.0
987.0
985.0
983.0
983.0
980.0
982.0
981.0
981.0
982.0
984.0
986.0
988.0
985.0
979.0
979.0
980.0
982.0
983.0
984.0
987.0
987.0
988.0
988.0
987.0
987.0
986.0
983.0
982.0
982.0
982.0
984.0
986.0
987.0
987.0
985.0
989.0
986.0
987.0
984.0
983.0
986.0
985.0
985.0
983.0
985.0
990.0
990.0
992.0
993.0
992.0
996.0
997.0
997.0
998.0
1001.0
1004.0
1007.0
1012.0
1013.0
1014.0
1016.0
1016.0
1012.0
1011.0
1008.0
1009.0
1008.0
1009.0
1010.0
1009.0
1009.0
1006.0
1006.0
997.0
996.0
995.0
992.0
992.0
992.0
988.0
986.0
986.0
986.0
983.0
982.0
982.0
980.0
978.0
978.0
981.0
982.0
985.0
984.0
985.0
983.0
982.0
984.0
983.0
983.0
983.0
984.0
983.0
985.0
987.0
986.0
987.0
990.0
990.0
991.0
993.0
994.0
993.0
996.0
994.0
1003.0
1011.0
1026.0
1043.0
1069.0
1098.0
1130.0
1170.0
1207.0
1244.0
1273.0
1285.0
1279.0
1250.0
1198.0
1123.0
1038.0
949.0
874.0
820.0
799.0
807.0
836.0
874.0
912.0
947.0
971.0
988.0
997.0
1001.0
1002.0
1001.0
997.0
997.0
999.0
1000.0
1003.0
1007.0
1008.0
1012.0
1011.0
1011.0
1012.0
1013.0
1012.0
1014.0
1015.0
1014.0
1016.0
1017.0
1019.0
1021.0
1022.0
1025.0
1024.0
1023.0
1024.0
1024.0
1027.0
1025.0
1028.0
1029.0
1031.0
1034.0
1037.0
1039.0
1042.0
1041.0
1042.0
1043.0
1043.0
1044.0
1046.0
1050.0
1053.0
1058.0
1060.0
1064.0
1064.0
1064.0
1065.0
1066.0
1070.0
1071.0
1075.0
1079.0
1083.0
1088.0
1090.0
1094.0
1095.0
1093.0
1095.0
1094.0
1095.0
1097.0
1098.0
1101.0
1103.0
1103.0
1102.0
1102.0
1101.0
1100.0
1096.0
1096.0
1093.0
1089.0
1089.0
1089.0
1086.0
1083.0
1079.0
1075.0
1072.0
1063.0
1060.0
1055.0
1049.0
1043.0
1037.0
1034.0
1029.0
1027.0
1023.0
1021.0
1019.0
1013.0
1009.0
1005.0
1003.0
1001.0
999.0
1000.0
999.0
1000.0
999.0
998.0
997.0
995.0
994.0
993.0
991.0
990.0
993.0
995.0
997.0
999.0
998.0
998.0
996.0
994.0
996.0
993.0
994.0
995.0
997.0
1000.0
1001.0
1002.0
1003.0
1004.0
1003.0
1002.0
1001.0
1000.0
1000.0
999.0
1000.0
1000.0
1002.0
1002.0
1002.0
1004.0
1004.0
1003.0
1000.0
999.0
999.0
996.0
995.0
995.0
998.0
999.0
995.0
997.0
995.0
994.0
992.0
990.0
991.0
989.0
988.0
990.0
990.0
992.0
991.0
991.0
993.0
991.0
988.0
986.0
986.0
985.0
986.0
987.0
986.0
991.0
989.0
988.0
986.0
983.0
987.0
985.0
986.0
982.0
984.0
986.0
986.0
986.0
986.0
987.0
987.0
986.0
983.0
987.0
983.0
982.0
984.0
987.0
986.0
988.0
987.0
989.0
988.0
986.0
985.0
983.0
983.0
981.0
982.0
986.0
988.0
990.0
990.0
989.0
988.0
988.0
986.0
985.0
982.0
983.0
984.0
984.0
988.0
992.0
991.0
994.0
995.0
995.0
996.0
998.0
1001.0
1001.0
1005.0
1006.0
1010.0
1012.0
1012.0
1013.0
1013.0
1012.0
1009.0
1004.0
1006.0
1003.0
1000.0
999.0
998.0
999.0
997.0
996.0
994.0
993.0
991.0
988.0
985.0
984.0
982.0
981.0
981.0
986.0
987.0
987.0
987.0
986.0
986.0
988.0
990.0
991.0
995.0
1000.0
1004.0
1008.0
1011.0
1015.0
1018.0
1022.0
1022.0
1026.0
1032.0
1039.0
1046.0
1053.0
1064.0
1073.0
1080.0
1087.0
1095.0
1101.0
1106.0
1115.0
1126.0
1140.0
1162.0
1187.0
1219.0
1252.0
1287.0
1317.0
1336.0
1343.0
1334.0
1304.0
1257.0
1196.0
1122.0
1043.0
967.0
907.0
874.0
869.0
885.0
908.0
933.0
956.0
973.0
980.0
985.0
985.0
982.0
981.0
979.0
980.0
977.0
978.0
978.0
979.0
975.0
977.0
977.0
980.0
982.0
984.0
986.0
985.0
985.0
984.0
981.0
980.0
980.0
980.0
978.0
980.0
979.0
982.0
981.0
981.0
983.0
981.0
983.0
982.0
982.0
981.0
982.0
982.0
984.0
984.0
985.0
985.0
985.0
985.0
984.0
985.0
986.0
984.0
985.0
988.0
990.0
991.0
993.0
994.0
995.0
994.0
998.0
996.0
995.0
997.0
998.0
1001.0
1003.0
1006.0
1006.0
1007.0
1006.0
1005.0
1005.0
1004.0
1004.0
1005.0
1007.0
1012.0
1013.0
1014.0
1015.0
1017.0
1015.0
1016.0
1013.0
1011.0
1010.0
1008.0
1007.0
1008.0
1007.0
1010.0
1007.0
1006.0
1004.0
1001.0
1000.0
999.0
996.0
992.0
994.0
994.0
993.0
990.0
989.0
992.0
989.0
988.0
991.0
987.0
986.0
985.0
986.0
987.0
986.0
991.0
990.0
991.0
991.0
990.0
985.0
986.0
986.0
984.0
985.0
988.0
988.0
990.0
991.0
993.0
990.0
990.0
989.0
989.0
987.0
987.0
989.0
991.0
993.0
995.0
995.0
995.0
991.0
987.0
989.0
990.0
990.0
990.0
994.0
993.0
991.0
992.0
993.0
994.0
993.0
993.0
993.0
991.0
990.0
990.0
990.0
988.0
991.0
991.0
991.0
993.0
992.0
990.0
989.0
988.0
986.0
983.0
983.0
982.0
985.0
985.0
986.0
989.0
988.0
985.0
985.0
984.0
982.0
981.0
981.0
982.0
983.0
986.0
985.0
985.0
986.0
984.0
983.0
983.0
981.0
980.0
982.0
981.0
983.0
985.0
985.0
984.0
983.0
979.0
979.0
979.0
980.0
979.0
979.0
981.0
981.0
983.0
981.0
983.0
983.0
982.0
982.0
980.0
979.0
980.0
980.0
981.0
981.0
983.0
982.0
985.0
983.0
982.0
985.0
983.0
982.0
982.0
981.0
982.0
983.0
985.0
987.0
988.0
988.0
989.0
988.0
991.0
992.0
995.0
996.0
999.0
1001.0
1006.0
1006.0
1007.0
1009.0
1010.0
1008.0
1007.0
1007.0
1007.0
1008.0
1007.0
1008.0
1006.0
1005.0
999.0
995.0
995.0
995.0
991.0
990.0
989.0
988.0
984.0
985.0
981.0
982.0
983.0
982.0
985.0
982.0
985.0
987.0
988.0
994.0
995.0
998.0
1004.0
1009.0
1013.0
1016.0
1020.0
1023.0
1026.0
1031.0
1037.0
1044.0
1052.0
1062.0
1072.0
1079.0
1088.0
1095.0
1102.0
1107.0
1115.0
1125.0
1139.0
1159.0
1185.0
1218.0
1253.0
1288.0
1318.0
1340.0
1346.0
1334.0
1305.0
1261.0
1197.0
1125.0
1045.0
968.0
910.0
874.0
867.0
880.0
906.0
934.0
958.0
975.0
983.0
986.0
985.0
982.0
981.0
979.0
979.0
980.0
979.0
978.0
977.0
976.0
977.0
978.0
978.0
980.0
982.0
981.0
980.0
980.0
980.0
979.0
978.0
976.0
977.0
976.0
980.0
982.0
983.0
984.0
984.0
982.0
982.0
982.0
982.0
981.0
981.0
977.0
980.0
981.0
981.0
984.0
985.0
986.0
986.0
987.0
986.0
985.0
984.0
984.0
987.0
989.0
992.0
996.0
999.0
1000.0
1000.0
1000.0
998.0
996.0
999.0
1001.0
1003.0
1003.0
1006.0
1010.0
1013.0
1009.0
1007.0
1010.0
1008.0
1010.0
1009.0
1011.0
1013.0
1018.0
1018.0
1020.0
1020.0
1018.0
1016.0
1015.0
1014.0
1010.0
1009.0
1008.0
1007.0
1008.0
1005.0
1004.0
1002.0
999.0
998.0
996.0
994.0
991.0
990.0
989.0
988.0
990.0
990.0
992.0
990.0
990.0
988.0
988.0
985.0
985.0
984.0
982.0
983.0
986.0
987.0
987.0
988.0
989.0
988.0
985.0
984.0
985.0
986.0
988.0
987.0
989.0
990.0
991.0
990.0
992.0
993.0
991.0
990.0
991.0
992.0
991.0
993.0
994.0
995.0
996.0
996.0
995.0
994.0
995.0
993.0
992.0
991.0
995.0
993.0
994.0
996.0
996.0
998.0
995.0
997.0
994.0
992.0
989.0
991.0
990.0
988.0
988.0
988.0
992.0
993.0
991.0
991.0
990.0
987.0
987.0
986.0
984.0
985.0
984.0
988.0
990.0
991.0
989.0
987.0
985.0
986.0
984.0
983.0
985.0
986.0
987.0
988.0
989.0
986.0
986.0
985.0
986.0
984.0
984.0
983.0
984.0
986.0
986.0
985.0
986.0
987.0
987.0
986.0
984.0
984.0
984.0
980.0
980.0
981.0
981.0
982.0
985.0
985.0
986.0
985.0
984.0
983.0
984.0
983.0
981.0
984.0
982.0
984.0
986.0
988.0
988.0
986.0
985.0
985.0
982.0
982.0
982.0
984.0
986.0
987.0
989.0
989.0
989.0
989.0
990.0
988.0
990.0
992.0
992.0
998.0
1000.0
1003.0
1004.0
1005.0
1008.0
1007.0
1009.0
1007.0
1009.0
1009.0
1009.0
1012.0
1011.0
1011.0
1010.0
1009.0
1006.0
1004.0
1002.0
999.0
995.0
995.0
991.0
993.0
993.0
991.0
990.0
988.0
989.0
986.0
982.0
979.0
979.0
979.0
980.0
981.0
984.0
989.0
990.0
995.0
998.0
1000.0
1000.0
1004.0
1006.0
1008.0
1011.0
1017.0
1023.0
1027.0
1037.0
1041.0
1048.0
1052.0
1058.0
1064.0
1072.0
1083.0
1091.0
1099.0
1107.0
1115.0
1123.0
1135.0
1151.0
1172.0
1198.0
1227.0
1257.0
1281.0
1301.0
1308.0
1304.0
1283.0
1248.0
1200.0
1137.0
1068.0
998.0
941.0
903.0
886.0
891.0
908.0
933.0
957.0
974.0
986.0
987.0
984.0
979.0
975.0
969.0
970.0
969.0
969.0
972.0
974.0
977.0
977.0
976.0
975.0
976.0
973.0
973.0
972.0
974.0
975.0
977.0
978.0
979.0
980.0
980.0
977.0
974.0
974.0
974.0
974.0
974.0
977.0
978.0
979.0
980.0
979.0
981.0
978.0
979.0
979.0
978.0
978.0
978.0
979.0
980.0
982.0
984.0
984.0
983.0
985.0
983.0
984.0
984.0
984.0
987.0
988.0
987.0
991.0
993.0
995.0
996.0
995.0
997.0
996.0
995.0
996.0
996.0
995.0
999.0
1000.0
1002.0
1006.0
1006.0
1005.0
1004.0
1002.0
1003.0
1000.0
1003.0
1003.0
1006.0
1008.0
1009.0
1010.0
1010.0
1007.0
1005.0
1003.0
1000.0
998.0
996.0
997.0
998.0
998.0
998.0
995.0
996.0
992.0
991.0
987.0
989.0
987.0
987.0
986.0
988.0
989.0
988.0
987.0
987.0
985.0
984.0
984.0
984.0
983.0
981.0
982.0
984.0
987.0
986.0
986.0
987.0
987.0
987.0
986.0
986.0
984.0
986.0
987.0
988.0
988.0
987.0
987.0
987.0
990.0
989.0
989.0
988.0
986.0
987.0
984.0
985.0
985.0
991.0
992.0
991.0
990.0
988.0
988.0
985.0
986.0
984.0
984.0
985.0
986.0
986.0
987.0
986.0
985.0
984.0
982.0
983.0
983.0
984.0
984.0
985.0
984.0
986.0
988.0
986.0
985.0
982.0
982.0
982.0
982.0
979.0
982.0
982.0
983.0
983.0
984.0
983.0
981.0
982.0
980.0
982.0
980.0
981.0
981.0
981.0
982.0
980.0
981.0
981.0
980.0
979.0
980.0
978.0
980.0
978.0
980.0
980.0
979.0
980.0
981.0
979.0
981.0
979.0
978.0
976.0
977.0
976.0
979.0
980.0
982.0
983.0
984.0
984.0
980.0
979.0
977.0
978.0
977.0
976.0
980.0
979.0
981.0
986.0
985.0
986.0
982.0
980.0
978.0
979.0
977.0
979.0
978.0
982.0
983.0
982.0
985.0
984.0
980.0
980.0
981.0
978.0
980.0
981.0
984.0
984.0
987.0
989.0
990.0
991.0
994.0
994.0
993.0
995.0
997.0
998.0
1003.0
1001.0
1004.0
1007.0
1008.0
1005.0
1008.0
1005.0
1004.0
1003.0
1003.0
1000.0
999.0
998.0
1000.0
999.0
998.0
993.0
994.0
992.0
990.0
987.0
983.0
984.0
980.0
980.0
980.0
982.0
979.0
982.0
980.0
983.0
982.0
984.0
983.0
987.0
989.0
992.0
998.0
1002.0
1004.0
1008.0
1010.0
1012.0
1015.0
1017.0
1019.0
1024.0
1032.0
1040.0
1047.0
1056.0
1063.0
1072.0
1080.0
1086.0
1092.0
1100.0
1105.0
1113.0
1123.0
1138.0
1157.0
1180.0
1211.0
1244.0
1272.0
1299.0
1312.0
1311.0
1295.0
1263.0
1216.0
1157.0
1090.0
1019.0
951.0
903.0
873.0
871.0
885.0
911.0
939.0
960.0
978.0
986.0
987.0
985.0
981.0
977.0
974.0
972.0
972.0
973.0
973.0
974.0
976.0
977.0
978.0
979.0
980.0
982.0
979.0
977.0
977.0
977.0
976.0
977.0
978.0
980.0
979.0
984.0
981.0
982.0
980.0
980.0
978.0
976.0
977.0
977.0
978.0
979.0
980.0
982.0
981.0
980.0
980.0
977.0
978.0
977.0
976.0
976.0
975.0
980.0
980.0
980.0
981.0
982.0
983.0
983.0
984.0
984.0
985.0
985.0
986.0
985.0
988.0
990.0
992.0
994.0
995.0
996.0
995.0
996.0
992.0
995.0
995.0
997.0
999.0
1002.0
1004.0
1005.0
1004.0
1006.0
1005.0
1003.0
1004.0
1004.0
1004.0
1006.0
1008.0
1005.0
1005.0
1003.0
1002.0
999.0
995.0
992.0
992.0
990.0
990.0
990.0
990.0
990.0
988.0
988.0
985.0
983.0
979.0
982.0
981.0
980.0
980.0
981.0
982.0
980.0
980.0
981.0
980.0
981.0
979.0
979.0
977.0
976.0
976.0
979.0
979.0
981.0
983.0
985.0
984.0
982.0
982.0
981.0
980.0
981.0
981.0
982.0
984.0
985.0
984.0
985.0
985.0
984.0
982.0
981.0
981.0
980.0
982.0
984.0
985.0
987.0
984.0
985.0
983.0
983.0
982.0
984.0
984.0
985.0
985.0
984.0
984.0
984.0
984.0
982.0
980.0
981.0
980.0
978.0
978.0
977.0
976.0
976.0
975.0
977.0
977.0
977.0
977.0
975.0
972.0
972.0
970.0
970.0
971.0
970.0
970.0
972.0
972.0
973.0
973.0
970.0
969.0
967.0
967.0
969.0
971.0
973.0
975.0
975.0
974.0
975.0
974.0
973.0
969.0
971.0
970.0
969.0
970.0
971.0
974.0
975.0
973.0
973.0
973.0
972.0
972.0
972.0
970.0
970.0
970.0
972.0
972.0
975.0
972.0
977.0
975.0
975.0
973.0
972.0
972.0
970.0
972.0
972.0
974.0
974.0
973.0
974.0
975.0
974.0
970.0
971.0
969.0
968.0
969.0
970.0
972.0
976.0
973.0
978.0
975.0
975.0
974.0
977.0
976.0
979.0
986.0
989.0
992.0
994.0
994.0
996.0
1000.0
997.0
999.0
1001.0
997.0
994.0
997.0
997.0
999.0
996.0
996.0
994.0
992.0
987.0
985.0
984.0
980.0
979.0
977.0
978.0
976.0
975.0
972.0
971.0
971.0
971.0
969.0
969.0
969.0
967.0
968.0
969.0
970.0
971.0
972.0
974.0
972.0
973.0
971.0
966.0
967.0
965.0
966.0
970.0
972.0
977.0
976.0
978.0
979.0
976.0
977.0
978.0
979.0
981.0
987.0
993.0
1004.0
1020.0
1044.0
1074.0
1111.0
1153.0
1193.0
1235.0
1265.0
1280.0
1275.0
1246.0
1190.0
1121.0
1038.0
952.0
872.0
810.0
785.0
788.0
816.0
864.0
907.0
947.0
976.0
992.0
998.0
998.0
995.0
