# Simple Text Format
# Sampling Rate (Hz):= 360.00
# Resolution:= 12
# Labels:= ECG
977.0
976.0
976.0
976.0
978.0
979.0
979.0
980.0
980.0
981.0
981.0
983.0
984.0
989.0
988.0
990.0
991.0
992.0
991.0
992.0
992.0
992.0
995.0
996.0
1001.0
1003.0
1007.0
1008.0
1009.0
1008.0
1009.0
1010.0
1010.0
1014.0
1014.0
1018.0
1022.0
1025.0
1027.0
1029.0
1031.0
1033.0
1035.0
1037.0
1036.0
1038.0
1042.0
1042.0
1045.0
1046.0
1049.0
1050.0
1049.0
1048.0
1046.0
1045.0
1047.0
1046.0
1043.0
1042.0
1045.0
1045.0
1045.0
1043.0
1042.0
1038.0
1039.0
1034.0
1032.0
1029.0
1025.0
1022.0
1023.0
1020.0
1016.0
1015.0
1010.0
1004.0
998.0
994.0
989.0
985.0
984.0
984.0
980.0
977.0
978.0
975.0
973.0
972.0
968.0
967.0
967.0
968.0
965.0
966.0
967.0
966.0
966.0
967.0
966.0
966.0
965.0
964.0
967.0
965.0
967.0
969.0
970.0
970.0
973.0
974.0
974.0
973.0
972.0
971.0
967.0
968.0
970.0
971.0
969.0
974.0
974.0
975.0
976.0
974.0
969.0
966.0
965.0
966.0
968.0
970.0
970.0
973.0
972.0
971.0
969.0
967.0
966.0
963.0
964.0
962.0
961.0
963.0
966.0
966.0
964.0
963.0
960.0
960.0
958.0
957.0
960.0
958.0
960.0
960.0
962.0
963.0
960.0
960.0
957.0
957.0
957.0
954.0
957.0
956.0
956.0
957.0
957.0
957.0
959.0
956.0
958.0
955.0
954.0
951.0
955.0
954.0
956.0
955.0
956.0
956.0
958.0
959.0
958.0
957.0
957.0
956.0
955.0
953.0
954.0
955.0
957.0
959.0
958.0
959.0
956.0
956.0
955.0
956.0
957.0
956.0
955.0
957.0
957.0
959.0
960.0
960.0
959.0
957.0
957.0
955.0
954.0
954.0
955.0
957.0
957.0
960.0
959.0
959.0
959.0
955.0
955.0
955.0
954.0
955.0
958.0
959.0
959.0
961.0
960.0
961.0
960.0
959.0
961.0
962.0
961.0
961.0
963.0
968.0
971.0
969.0
973.0
975.0
977.0
976.0
978.0
982.0
983.0
983.0
984.0
984.0
983.0
987.0
985.0
984.0
985.0
980.0
978.0
975.0
971.0
969.0
964.0
966.0
962.0
964.0
965.0
964.0
963.0
961.0
957.0
954.0
950.0
948.0
947.0
948.0
949.0
951.0
953.0
953.0
954.0
951.0
951.0
950.0
949.0
948.0
948.0
952.0
952.0
954.0
953.0
956.0
956.0
955.0
953.0
954.0
956.0
956.0
958.0
962.0
965.0
967.0
969.0
975.0
979.0
989.0
999.0
1021.0
1044.0
1073.0
1106.0
1138.0
1168.0
1192.0
1204.0
1203.0
1183.0
1146.0
1098.0
1039.0
973.0
911.0
859.0
819.0
804.0
810.0
835.0
867.0
900.0
928.0
949.0
958.0
964.0
967.0
970.0
970.0
968.0
969.0
972.0
974.0
974.0
976.0
977.0
979.0
977.0
976.0
974.0
980.0
984.0
986.0
988.0
989.0
988.0
988.0
986.0
988.0
988.0
988.0
989.0
992.0
996.0
999.0
1002.0
1003.0
1002.0
1002.0
1003.0
1000.0
999.0
1002.0
1006.0
1011.0
1012.0
1015.0
1016.0
1016.0
1018.0
1019.0
1017.0
1021.0
1024.0
1025.0
1025.0
1030.0
1034.0
1037.0
1038.0
1042.0
1044.0
1045.0
1046.0
1044.0
1049.0
1050.0
1051.0
1051.0
1053.0
1054.0
1054.0
1055.0
1056.0
1055.0
1052.0
1049.0
1049.0
1046.0
1046.0
1045.0
1049.0
1050.0
1049.0
1049.0
1048.0
1044.0
1039.0
1034.0
1030.0
1025.0
1025.0
1023.0
1021.0
1019.0
1016.0
1013.0
1008.0
1002.0
999.0
994.0
988.0
988.0
986.0
985.0
986.0
984.0
982.0
983.0
979.0
976.0
973.0
970.0
972.0
973.0
973.0
974.0
977.0
974.0
973.0
974.0
971.0
970.0
969.0
970.0
973.0
972.0
973.0
974.0
975.0
976.0
977.0
979.0
977.0
978.0
979.0
979.0
978.0
977.0
976.0
977.0
977.0
978.0
978.0
979.0
981.0
978.0
978.0
977.0
976.0
973.0
974.0
974.0
974.0
974.0
974.0
974.0
974.0
971.0
970.0
970.0
967.0
967.0
965.0
966.0
969.0
969.0
969.0
971.0
971.0
968.0
966.0
963.0
965.0
962.0
962.0
963.0
965.0
966.0
966.0
967.0
966.0
966.0
964.0
963.0
963.0
961.0
963.0
962.0
963.0
963.0
962.0
964.0
965.0
964.0
962.0
960.0
962.0
961.0
960.0
960.0
961.0
959.0
963.0
962.0
964.0
963.0
963.0
961.0
962.0
957.0
959.0
958.0
962.0
960.0
962.0
962.0
963.0
962.0
958.0
959.0
960.0
960.0
960.0
960.0
960.0
960.0
962.0
961.0
961.0
965.0
964.0
963.0
962.0
961.0
963.0
962.0
961.0
959.0
961.0
960.0
962.0
961.0
962.0
959.0
961.0
960.0
961.0
961.0
962.0
968.0
969.0
970.0
972.0
971.0
973.0
973.0
974.0
972.0
975.0
976.0
982.0
983.0
984.0
984.0
987.0
988.0
985.0
984.0
982.0
984.0
982.0
982.0
981.0
977.0
979.0
974.0
974.0
971.0
968.0
965.0
961.0
959.0
958.0
957.0
953.0
955.0
955.0
956.0
953.0
954.0
952.0
952.0
952.0
949.0
951.0
951.0
953.0
953.0
954.0
955.0
956.0
955.0
953.0
952.0
950.0
951.0
953.0
954.0
957.0
960.0
963.0
963.0
965.0
966.0
964.0
963.0
966.0
974.0
983.0
999.0
1016.0
1037.0
1067.0
1098.0
1133.0
1168.0
1191.0
1208.0
1208.0
1191.0
1155.0
1104.0
1041.0
972.0
910.0
854.0
818.0
805.0
812.0
835.0
867.0
892.0
920.0
942.0
956.0
966.0
971.0
974.0
973.0
969.0
972.0
969.0
969.0
968.0
970.0
970.0
969.0
971.0
976.0
977.0
978.0
979.0
978.0
976.0
976.0
978.0
978.0
980.0
981.0
983.0
984.0
988.0
990.0
991.0
990.0
990.0
992.0
989.0
992.0
996.0
997.0
1000.0
1004.0
1005.0
1007.0
1005.0
1008.0
1009.0
1008.0
1010.0
1011.0
1016.0
1019.0
1021.0
1024.0
1025.0
1026.0
1025.0
1027.0
1027.0
1030.0
1031.0
1036.0
1038.0
1041.0
1046.0
1049.0
1048.0
1050.0
1049.0
1049.0
1050.0
1049.0
1051.0
1050.0
1050.0
1055.0
1055.0
1055.0
1055.0
1055.0
1055.0
1052.0
1050.0
1047.0
1048.0
1045.0
1047.0
1047.0
1046.0
1042.0
1041.0
1034.0
1030.0
1023.0
1020.0
1018.0
1012.0
1007.0
1005.0
1004.0
1000.0
999.0
994.0
994.0
989.0
986.0
981.0
976.0
974.0
972.0
971.0
971.0
973.0
973.0
974.0
973.0
971.0
971.0
969.0
966.0
966.0
966.0
968.0
970.0
970.0
973.0
972.0
973.0
973.0
969.0
967.0
971.0
968.0
968.0
972.0
973.0
975.0
975.0
975.0
973.0
971.0
973.0
972.0
970.0
972.0
971.0
974.0
976.0
975.0
974.0
973.0
973.0
975.0
973.0
975.0
974.0
971.0
969.0
969.0
971.0
973.0
972.0
971.0
972.0
973.0
969.0
968.0
966.0
964.0
961.0
962.0
964.0
965.0
967.0
966.0
969.0
968.0
966.0
967.0
963.0
962.0
960.0
962.0
964.0
963.0
966.0
967.0
966.0
963.0
961.0
961.0
961.0
960.0
960.0
959.0
961.0
962.0
962.0
963.0
963.0
964.0
964.0
963.0
964.0
961.0
961.0
963.0
962.0
963.0
964.0
963.0
967.0
968.0
968.0
967.0
968.0
966.0
964.0
970.0
971.0
976.0
982.0
983.0
986.0
988.0
986.0
989.0
990.0
989.0
990.0
990.0
990.0
994.0
993.0
990.0
988.0
985.0
985.0
982.0
980.0
977.0
974.0
973.0
972.0
974.0
975.0
971.0
967.0
964.0
961.0
955.0
955.0
954.0
955.0
955.0
957.0
958.0
960.0
960.0
960.0
958.0
958.0
958.0
957.0
956.0
958.0
958.0
959.0
959.0
957.0
958.0
958.0
963.0
962.0
962.0
965.0
964.0
966.0
968.0
971.0
976.0
982.0
995.0
1012.0
1032.0
1058.0
1088.0
1122.0
1157.0
1191.0
1215.0
1227.0
1217.0
1183.0
1127.0
1058.0
976.0
897.0
834.0
797.0
793.0
811.0
843.0
877.0
913.0
941.0
960.0
973.0
979.0
979.0
976.0
973.0
972.0
973.0
973.0
975.0
977.0
981.0
984.0
985.0
984.0
985.0
985.0
985.0
985.0
984.0
987.0
988.0
988.0
992.0
993.0
995.0
999.0
997.0
995.0
995.0
998.0
997.0
1000.0
1003.0
1003.0
1006.0
1010.0
1011.0
1013.0
1013.0
1016.0
1013.0
1014.0
1015.0
1018.0
1020.0
1026.0
1032.0
1032.0
1037.0
1037.0
1038.0
1039.0
1040.0
1043.0
1044.0
1048.0
1051.0
1054.0
1058.0
1061.0
1062.0
1062.0
1062.0
1063.0
1065.0
1062.0
1062.0
1062.0
1065.0
1062.0
1062.0
1063.0
1063.0
1063.0
1062.0
1061.0
1059.0
1059.0
1057.0
1055.0
1054.0
1052.0
1050.0
1046.0
1043.0
1039.0
1036.0
1032.0
1026.0
1020.0
1017.0
1011.0
1007.0
1006.0
1007.0
1003.0
1000.0
998.0
993.0
987.0
982.0
978.0
980.0
980.0
980.0
979.0
981.0
979.0
979.0
978.0
977.0
976.0
974.0
974.0
975.0
974.0
978.0
978.0
978.0
978.0
980.0
979.0
980.0
979.0
979.0
980.0
980.0
981.0
982.0
980.0
983.0
983.0
983.0
981.0
982.0
982.0
981.0
980.0
978.0
979.0
978.0
980.0
982.0
980.0
980.0
978.0
978.0
979.0
978.0
976.0
974.0
976.0
975.0
972.0
974.0
975.0
975.0
977.0
975.0
973.0
972.0
968.0
968.0
967.0
967.0
966.0
971.0
971.0
971.0
969.0
967.0
964.0
963.0
962.0
962.0
963.0
966.0
966.0
966.0
967.0
968.0
966.0
965.0
962.0
963.0
961.0
962.0
961.0
963.0
962.0
964.0
964.0
964.0
963.0
962.0
962.0
963.0
961.0
962.0
964.0
963.0
961.0
962.0
961.0
966.0
965.0
965.0
965.0
965.0
966.0
966.0
966.0
967.0
970.0
974.0
974.0
976.0
979.0
978.0
979.0
981.0
981.0
981.0
981.0
981.0
987.0
989.0
991.0
990.0
988.0
984.0
984.0
981.0
977.0
976.0
974.0
974.0
974.0
972.0
969.0
970.0
968.0
967.0
964.0
957.0
955.0
953.0
954.0
954.0
957.0
958.0
956.0
957.0
957.0
955.0
956.0
954.0
954.0
954.0
953.0
955.0
957.0
958.0
958.0
959.0
958.0
956.0
959.0
960.0
958.0
961.0
962.0
967.0
970.0
973.0
977.0
984.0
989.0
1000.0
1013.0
1034.0
1054.0
1080.0
1109.0
1140.0
1161.0
1178.0
1179.0
1167.0
1133.0
1088.0
1029.0
967.0
906.0
854.0
825.0
819.0
834.0
863.0
896.0
924.0
946.0
959.0
965.0
966.0
968.0
965.0
966.0
967.0
968.0
971.0
974.0
975.0
977.0
973.0
976.0
975.0
977.0
976.0
980.0
981.0
986.0
985.0
987.0
990.0
991.0
990.0
990.0
989.0
985.0
986.0
989.0
987.0
990.0
992.0
996.0
998.0
1000.0
1001.0
1002.0
999.0
1001.0
1001.0
1005.0
1007.0
1010.0
1014.0
1015.0
1018.0
1021.0
1019.0
1020.0
1022.0
1024.0
1024.0
1026.0
1033.0
1036.0
1041.0
1043.0
1044.0
1046.0
1041.0
1043.0
1042.0
1044.0
1044.0
1045.0
1050.0
1051.0
1053.0
1052.0
1052.0
1051.0
1051.0
1050.0
1047.0
1047.0
1044.0
1045.0
1044.0
1039.0
1041.0
1040.0
1039.0
1035.0
1030.0
1026.0
1024.0
1020.0
1015.0
1010.0
1009.0
1006.0
1003.0
1000.0
998.0
993.0
989.0
986.0
980.0
979.0
976.0
974.0
976.0
975.0
973.0
973.0
974.0
974.0
971.0
969.0
969.0
966.0
963.0
965.0
970.0
968.0
969.0
971.0
971.0
967.0
965.0
964.0
963.0
963.0
962.0
964.0
965.0
965.0
966.0
968.0
967.0
967.0
969.0
969.0
967.0
968.0
967.0
967.0
968.0
968.0
970.0
971.0
969.0
970.0
970.0
970.0
967.0
964.0
964.0
964.0
965.0
963.0
964.0
966.0
966.0
965.0
964.0
963.0
960.0
960.0
958.0
958.0
961.0
961.0
962.0
962.0
964.0
962.0
961.0
958.0
956.0
955.0
956.0
956.0
958.0
957.0
959.0
959.0
960.0
960.0
956.0
955.0
953.0
955.0
955.0
956.0
957.0
957.0
960.0
959.0
960.0
957.0
957.0
956.0
958.0
955.0
955.0
958.0
958.0
957.0
959.0
960.0
960.0
961.0
962.0
960.0
957.0
956.0
957.0
958.0
956.0
960.0
960.0
962.0
965.0
968.0
968.0
968.0
968.0
970.0
970.0
972.0
973.0
979.0
982.0
985.0
985.0
986.0
985.0
980.0
978.0
976.0
976.0
977.0
975.0
973.0
974.0
970.0
967.0
964.0
960.0
958.0
957.0
952.0
948.0
950.0
948.0
947.0
951.0
952.0
951.0
949.0
951.0
948.0
947.0
948.0
948.0
948.0
948.0
950.0
950.0
951.0
950.0
951.0
951.0
950.0
950.0
949.0
949.0
949.0
951.0
953.0
955.0
955.0
960.0
961.0
963.0
966.0
967.0
971.0
978.0
994.0
1016.0
1044.0
1078.0
1118.0
1157.0
1195.0
1225.0
1236.0
1231.0
1204.0
1155.0
1088.0
1011.0
931.0
857.0
799.0
768.0
769.0
790.0
829.0
867.0
903.0
934.0
951.0
967.0
970.0
972.0
971.0
970.0
970.0
970.0
967.0
968.0
973.0
971.0
974.0
976.0
976.0
979.0
981.0
980.0
981.0
981.0
980.0
980.0
982.0
981.0
983.0
984.0
988.0
987.0
987.0
989.0
991.0
993.0
991.0
992.0
991.0
994.0
994.0
998.0
999.0
1002.0
1004.0
1008.0
1010.0
1013.0
1014.0
1014.0
1016.0
1014.0
1018.0
1021.0
1025.0
1028.0
1032.0
1035.0
1038.0
1039.0
1038.0
1038.0
1040.0
1040.0
1042.0
1046.0
1049.0
1052.0
1053.0
1057.0
1057.0
1056.0
1053.0
1054.0
1051.0
1051.0
1051.0
1052.0
1053.0
1055.0
1055.0
1054.0
1054.0
1051.0
1049.0
1045.0
1042.0
1041.0
1039.0
1039.0
1034.0
1034.0
1029.0
1026.0
1023.0
1018.0
1013.0
1007.0
1006.0
1000.0
997.0
993.0
992.0
992.0
990.0
985.0
984.0
981.0
982.0
979.0
978.0
975.0
975.0
975.0
974.0
973.0
973.0
973.0
970.0
970.0
970.0
970.0
970.0
971.0
972.0
971.0
973.0
974.0
977.0
978.0
979.0
977.0
980.0
977.0
977.0
976.0
975.0
976.0
976.0
977.0
979.0
980.0
980.0
981.0
979.0
978.0
976.0
975.0
975.0
977.0
976.0
979.0
981.0
981.0
978.0
977.0
975.0
974.0
973.0
973.0
971.0
974.0
973.0
974.0
972.0
973.0
972.0
970.0
969.0
967.0
965.0
965.0
965.0
968.0
967.0
967.0
966.0
965.0
963.0
965.0
961.0
961.0
960.0
958.0
960.0
961.0
961.0
961.0
961.0
962.0
963.0
960.0
958.0
958.0
959.0
959.0
959.0
960.0
960.0
960.0
964.0
959.0
962.0
962.0
960.0
959.0
957.0
958.0
957.0
958.0
956.0
959.0
960.0
961.0
959.0
960.0
960.0
958.0
956.0
956.0
955.0
957.0
958.0
961.0
963.0
963.0
963.0
962.0
960.0
958.0
958.0
957.0
959.0
962.0
964.0
968.0
971.0
974.0
976.0
976.0
977.0
977.0
979.0
979.0
984.0
986.0
989.0
990.0
991.0
989.0
989.0
986.0
983.0
983.0
980.0
978.0
976.0
971.0
970.0
968.0
966.0
965.0
966.0
961.0
962.0
957.0
955.0
951.0
948.0
947.0
950.0
951.0
952.0
953.0
955.0
951.0
951.0
949.0
950.0
949.0
948.0
950.0
949.0
950.0
951.0
953.0
956.0
955.0
954.0
953.0
950.0
948.0
952.0
952.0
954.0
957.0
958.0
963.0
965.0
965.0
967.0
971.0
980.0
995.0
1020.0
1057.0
1094.0
1140.0
1183.0
1223.0
1252.0
1265.0
1253.0
1217.0
1157.0
1080.0
999.0
915.0
838.0
779.0
747.0
751.0
780.0
824.0
870.0
911.0
942.0
962.0
972.0
976.0
975.0
973.0
969.0
967.0
967.0
969.0
968.0
970.0
973.0
974.0
976.0
977.0
977.0
979.0
979.0
982.0
981.0
983.0
982.0
982.0
983.0
982.0
981.0
984.0
983.0
985.0
989.0
990.0
988.0
990.0
992.0
990.0
994.0
994.0
995.0
999.0
1001.0
1004.0
1008.0
1010.0
1013.0
1009.0
1009.0
1010.0
1011.0
1011.0
1016.0
1019.0
1024.0
1024.0
1029.0
1029.0
1035.0
1034.0
1035.0
1034.0
1037.0
1037.0
1039.0
1042.0
1046.0
1048.0
1051.0
1051.0
1051.0
1050.0
1048.0
1043.0
1045.0
1043.0
1041.0
1042.0
1043.0
1043.0
1042.0
1042.0
1041.0
1039.0
1034.0
1034.0
1035.0
1033.0
1031.0
1028.0
1028.0
1024.0
1019.0
1017.0
1011.0
1005.0
1005.0
1000.0
996.0
991.0
987.0
984.0
981.0
979.0
976.0
972.0
973.0
971.0
968.0
967.0
965.0
962.0
964.0
964.0
964.0
967.0
970.0
969.0
968.0
964.0
965.0
960.0
961.0
961.0
963.0
964.0
966.0
966.0
971.0
968.0
969.0
967.0
966.0
967.0
966.0
967.0
970.0
971.0
974.0
976.0
977.0
974.0
975.0
974.0
971.0
972.0
972.0
972.0
972.0
973.0
973.0
973.0
976.0
972.0
971.0
970.0
972.0
969.0
969.0
967.0
966.0
965.0
966.0
966.0
969.0
968.0
971.0
970.0
968.0
967.0
964.0
963.0
961.0
962.0
964.0
965.0
966.0
968.0
964.0
965.0
962.0
962.0
960.0
958.0
958.0
959.0
961.0
963.0
963.0
963.0
963.0
962.0
961.0
961.0
960.0
961.0
961.0
963.0
964.0
965.0
967.0
964.0
962.0
960.0
957.0
957.0
957.0
958.0
959.0
961.0
962.0
961.0
960.0
961.0
961.0
962.0
961.0
961.0
962.0
961.0
961.0
959.0
962.0
963.0
963.0
963.0
964.0
966.0
966.0
962.0
965.0
963.0
962.0
964.0
964.0
963.0
970.0
973.0
975.0
975.0
976.0
979.0
980.0
982.0
986.0
989.0
992.0
993.0
996.0
996.0
997.0
995.0
992.0
988.0
987.0
985.0
984.0
982.0
980.0
978.0
976.0
973.0
973.0
971.0
967.0
963.0
960.0
959.0
956.0
956.0
957.0
957.0
960.0
959.0
962.0
962.0
961.0
960.0
957.0
955.0
952.0
955.0
953.0
955.0
956.0
955.0
959.0
960.0
958.0
960.0
960.0
959.0
960.0
960.0
964.0
966.0
970.0
972.0
977.0
978.0
979.0
990.0
1008.0
1030.0
1064.0
1105.0
1148.0
1193.0
1231.0
1258.0
1267.0
1253.0
1212.0
1150.0
1073.0
991.0
908.0
839.0
787.0
766.0
782.0
812.0
854.0
896.0
931.0
958.0
972.0
982.0
983.0
981.0
979.0
979.0
978.0
979.0
982.0
982.0
983.0
982.0
984.0
981.0
984.0
983.0
985.0
988.0
988.0
990.0
995.0
994.0
992.0
993.0
995.0
995.0
992.0
995.0
997.0
1001.0
1003.0
1006.0
1005.0
1007.0
1006.0
1006.0
1005.0
1004.0
1004.0
1006.0
1009.0
1011.0
1017.0
1020.0
1019.0
1022.0
1021.0
1023.0
1024.0
1024.0
1027.0
1028.0
1032.0
1036.0
1040.0
1041.0
1043.0
1043.0
1043.0
1044.0
1043.0
1044.0
1045.0
1048.0
1050.0
1051.0
1051.0
1050.0
1049.0
1050.0
1046.0
1045.0
1044.0
1046.0
1045.0
1046.0
1045.0
1047.0
1047.0
1046.0
1046.0
1045.0
1044.0
1039.0
1037.0
1036.0
1031.0
1029.0
1022.0
1022.0
1020.0
1018.0
1017.0
1010.0
1006.0
1000.0
996.0
991.0
988.0
986.0
988.0
988.0
988.0
988.0
985.0
982.0
977.0
974.0
974.0
972.0
971.0
973.0
974.0
977.0
979.0
980.0
979.0
977.0
974.0
972.0
973.0
974.0
972.0
975.0
977.0
977.0
982.0
982.0
982.0
981.0
981.0
980.0
976.0
977.0
979.0
982.0
982.0
982.0
980.0
979.0
981.0
976.0
976.0
976.0
976.0
976.0
978.0
979.0
976.0
977.0
979.0
979.0
980.0
979.0
978.0
977.0
973.0
972.0
967.0
965.0
967.0
969.0
969.0
967.0
970.0
967.0
965.0
967.0
964.0
963.0
963.0
962.0
964.0
967.0
971.0
968.0
969.0
968.0
965.0
964.0
961.0
962.0
959.0
961.0
965.0
964.0
966.0
965.0
965.0
966.0
964.0
963.0
962.0
959.0
961.0
961.0
963.0
964.0
965.0
965.0
963.0
963.0
963.0
961.0
959.0
960.0
961.0
960.0
962.0
960.0
962.0
963.0
964.0
963.0
962.0
962.0
961.0
959.0
958.0
959.0
957.0
960.0
963.0
964.0
966.0
965.0
963.0
963.0
962.0
961.0
959.0
963.0
963.0
964.0
968.0
971.0
976.0
976.0
975.0
976.0
979.0
979.0
982.0
985.0
990.0
992.0
995.0
994.0
994.0
991.0
989.0
987.0
985.0
984.0
982.0
982.0
980.0
976.0
975.0
971.0
969.0
967.0
965.0
963.0
960.0
958.0
954.0
954.0
955.0
955.0
958.0
956.0
958.0
956.0
957.0
951.0
950.0
949.0
947.0
950.0
950.0
955.0
954.0
954.0
954.0
955.0
955.0
951.0
951.0
951.0
953.0
954.0
957.0
961.0
965.0
968.0
970.0
977.0
991.0
1011.0
1036.0
1066.0
1104.0
1145.0
1195.0
1235.0
1262.0
1266.0
1238.0
1179.0
1094.0
992.0
892.0
811.0
762.0
755.0
776.0
815.0
857.0
894.0
924.0
947.0
962.0
970.0
973.0
971.0
968.0
967.0
969.0
970.0
972.0
976.0
979.0
980.0
980.0
980.0
980.0
981.0
977.0
982.0
983.0
985.0
990.0
990.0
990.0
990.0
987.0
988.0
988.0
990.0
990.0
990.0
995.0
995.0
1002.0
1001.0
1004.0
1006.0
1003.0
1005.0
1006.0
1008.0
1010.0
1013.0
1015.0
1020.0
1022.0
1025.0
1027.0
1030.0
1032.0
1033.0
1037.0
1039.0
1040.0
1042.0
1044.0
1049.0
1051.0
1055.0
1057.0
1058.0
1058.0
1059.0
1057.0
1057.0
1058.0
1057.0
1059.0
1060.0
1061.0
1064.0
1063.0
1063.0
1060.0
1060.0
1056.0
1054.0
1053.0
1054.0
1055.0
1054.0
1052.0
1047.0
1042.0
1033.0
1028.0
1024.0
1018.0
1012.0
1007.0
1005.0
1003.0
996.0
993.0
990.0
987.0
984.0
982.0
976.0
976.0
973.0
971.0
970.0
970.0
969.0
969.0
967.0
969.0
969.0
969.0
969.0
968.0
968.0
966.0
964.0
968.0
969.0
971.0
971.0
975.0
972.0
972.0
970.0
970.0
971.0
970.0
970.0
972.0
976.0
978.0
977.0
980.0
979.0
977.0
975.0
972.0
973.0
973.0
973.0
974.0
977.0
979.0
980.0
979.0
976.0
974.0
971.0
969.0
972.0
968.0
971.0
971.0
972.0
972.0
970.0
970.0
971.0
969.0
968.0
966.0
965.0
964.0
965.0
964.0
965.0
966.0
967.0
965.0
961.0
960.0
961.0
963.0
962.0
962.0
959.0
960.0
959.0
959.0
961.0
962.0
965.0
963.0
960.0
956.0
956.0
952.0
952.0
953.0
957.0
959.0
959.0
961.0
960.0
959.0
960.0
958.0
955.0
957.0
956.0
958.0
960.0
959.0
963.0
964.0
964.0
967.0
967.0
969.0
969.0
973.0
972.0
976.0
976.0
981.0
983.0
984.0
984.0
986.0
985.0
982.0
984.0
984.0
984.0
983.0
982.0
981.0
980.0
978.0
974.0
970.0
967.0
964.0
963.0
962.0
962.0
960.0
960.0
959.0
955.0
954.0
949.0
949.0
948.0
946.0
946.0
947.0
947.0
949.0
950.0
950.0
953.0
953.0
955.0
952.0
952.0
950.0
949.0
948.0
949.0
950.0
951.0
954.0
958.0
956.0
959.0
958.0
955.0
956.0
954.0
955.0
962.0
967.0
978.0
997.0
1020.0
1049.0
1083.0
1124.0
1170.0
1215.0
1254.0
1280.0
1280.0
1250.0
1194.0
1110.0
1013.0
914.0
824.0
760.0
736.0
746.0
783.0
831.0
879.0
918.0
948.0
964.0
972.0
974.0
972.0
971.0
967.0
964.0
963.0
966.0
969.0
972.0
973.0
977.0
978.0
979.0
980.0
979.0
981.0
981.0
979.0
980.0
982.0
983.0
985.0
988.0
990.0
994.0
996.0
997.0
995.0
997.0
996.0
992.0
995.0
999.0
1003.0
1007.0
1009.0
1007.0
1010.0
1012.0
1012.0
1013.0
1014.0
1015.0
1021.0
1025.0
1027.0
1032.0
1034.0
1038.0
1041.0
1042.0
1046.0
1046.0
1049.0
1050.0
1051.0
1055.0
1057.0
1060.0
1066.0
1068.0
1070.0
1069.0
1069.0
1067.0
1066.0
1065.0
1066.0
1066.0
1070.0
1072.0
1070.0
1068.0
1065.0
1064.0
1061.0
1055.0
1048.0
1047.0
1045.0
1041.0
1038.0
1034.0
1029.0
1023.0
1020.0
1013.0
1005.0
1000.0
992.0
991.0
987.0
987.0
986.0
986.0
984.0
984.0
983.0
981.0
980.0
975.0
974.0
973.0
979.0
982.0
982.0
980.0
975.0
975.0
978.0
978.0
978.0
978.0
974.0
971.0
971.0
970.0
970.0
972.0
976.0
978.0
980.0
979.0
978.0
976.0
973.0
968.0
970.0
976.0
984.0
987.0
988.0
984.0
980.0
975.0
975.0
976.0
979.0
983.0
986.0
988.0
991.0
992.0
991.0
987.0
983.0
982.0
980.0
982.0
984.0
982.0
984.0
986.0
986.0
986.0
986.0
986.0
986.0
985.0
982.0
983.0
983.0
982.0
983.0
984.0
985.0
985.0
985.0
984.0
984.0
984.0
983.0
984.0
984.0
984.0
986.0
984.0
987.0
989.0
991.0
992.0
992.0
990.0
991.0
987.0
987.0
987.0
989.0
989.0
992.0
997.0
1001.0
1002.0
1004.0
1004.0
1001.0
1001.0
1002.0
1003.0
1006.0
1010.0
1012.0
1013.0
1013.0
1009.0
1004.0
1000.0
993.0
991.0
988.0
981.0
979.0
975.0
972.0
969.0
970.0
969.0
968.0
967.0
963.0
960.0
955.0
953.0
951.0
952.0
953.0
957.0
958.0
958.0
957.0
959.0
962.0
960.0
961.0
959.0
959.0
958.0
956.0
954.0
955.0
956.0
958.0
957.0
957.0
953.0
953.0
952.0
954.0
953.0
952.0
956.0
960.0
961.0
964.0
965.0
965.0
968.0
972.0
990.0
1013.0
1045.0
1082.0
1124.0
1172.0
1217.0
1260.0
1288.0
1299.0
1280.0
1235.0
1163.0
1073.0
972.0
872.0
791.0
743.0
736.0
762.0
804.0
850.0
896.0
931.0
954.0
971.0
979.0
979.0
979.0
975.0
978.0
976.0
976.0
976.0
975.0
973.0
974.0
975.0
979.0
980.0
983.0
984.0
986.0
986.0
986.0
986.0
984.0
985.0
987.0
990.0
989.0
993.0
993.0
994.0
994.0
994.0
994.0
992.0
996.0
998.0
998.0
999.0
999.0
1000.0
1002.0
1008.0
1011.0
1012.0
1016.0
1015.0
1016.0
1016.0
1018.0
1019.0
1024.0
1024.0
1028.0
1034.0
1038.0
1042.0
1044.0
1045.0
1045.0
1046.0
1045.0
1047.0
1052.0
1055.0
1062.0
1065.0
1068.0
1069.0
1067.0
1064.0
1063.0
1063.0
1065.0
1065.0
1068.0
1068.0
1070.0
1070.0
1069.0
1070.0
1066.0
1061.0
1057.0
1055.0
1053.0
1049.0
1046.0
1042.0
1039.0
1032.0
1027.0
1023.0
1012.0
1008.0
1003.0
995.0
993.0
989.0
987.0
983.0
983.0
980.0
976.0
974.0
973.0
968.0
969.0
967.0
965.0
964.0
963.0
963.0
964.0
964.0
964.0
964.0
963.0
962.0
962.0
960.0
960.0
957.0
958.0
963.0
964.0
966.0
968.0
969.0
970.0
968.0
967.0
967.0
967.0
966.0
971.0
973.0
976.0
980.0
980.0
978.0
973.0
967.0
966.0
965.0
967.0
968.0
970.0
970.0
975.0
974.0
972.0
971.0
971.0
964.0
966.0
966.0
963.0
964.0
967.0
968.0
970.0
969.0
967.0
966.0
965.0
964.0
962.0
961.0
960.0
958.0
960.0
961.0
961.0
963.0
963.0
964.0
963.0
959.0
957.0
953.0
951.0
952.0
953.0
955.0
958.0
963.0
967.0
971.0
974.0
975.0
973.0
970.0
965.0
965.0
969.0
974.0
980.0
984.0
986.0
988.0
986.0
984.0
982.0
984.0
982.0
983.0
983.0
978.0
976.0
975.0
972.0
971.0
968.0
965.0
964.0
963.0
960.0
958.0
956.0
954.0
949.0
948.0
948.0
947.0
947.0
946.0
948.0
947.0
947.0
945.0
945.0
948.0
946.0
948.0
948.0
947.0
948.0
947.0
947.0
944.0
944.0
944.0
943.0
947.0
951.0
954.0
957.0
953.0
953.0
954.0
954.0
955.0
956.0
962.0
975.0
991.0
1014.0
1045.0
1080.0
1123.0
1167.0
1214.0
1255.0
1286.0
1293.0
1281.0
1240.0
1172.0
1084.0
980.0
877.0
786.0
728.0
715.0
741.0
792.0
844.0
895.0
931.0
956.0
970.0
973.0
972.0
969.0
965.0
960.0
959.0
963.0
963.0
965.0
968.0
971.0
971.0
973.0
975.0
976.0
977.0
975.0
977.0
976.0
976.0
978.0
981.0
984.0
986.0
988.0
990.0
991.0
991.0
989.0
989.0
990.0
993.0
995.0
998.0
1002.0
1005.0
1009.0
1011.0
1012.0
1013.0
1013.0
1012.0
1017.0
1018.0
1016.0
1023.0
1027.0
1028.0
1032.0
1034.0
1037.0
1040.0
1043.0
1045.0
1048.0
1051.0
1054.0
1055.0
1058.0
1061.0
1063.0
1066.0
1066.0
1067.0
1067.0
1068.0
1065.0
1063.0
1064.0
1064.0
1066.0
1066.0
1066.0
1066.0
1065.0
1063.0
1062.0
1057.0
1051.0
1048.0
1043.0
1040.0
1034.0
1034.0
1030.0
1026.0
1024.0
1016.0
1010.0
1003.0
997.0
992.0
988.0
987.0
987.0
982.0
984.0
981.0
977.0
976.0
972.0
968.0
966.0
968.0
966.0
966.0
969.0
967.0
970.0
968.0
968.0
968.0
965.0
961.0
962.0
960.0
961.0
963.0
965.0
967.0
966.0
966.0
966.0
966.0
966.0
967.0
967.0
967.0
967.0
968.0
971.0
972.0
971.0
973.0
974.0
972.0
975.0
975.0
975.0
974.0
974.0
976.0
974.0
975.0
976.0
978.0
980.0
977.0
976.0
974.0
970.0
969.0
969.0
969.0
970.0
971.0
973.0
974.0
973.0
970.0
968.0
967.0
967.0
965.0
962.0
965.0
970.0
970.0
971.0
971.0
970.0
964.0
965.0
965.0
962.0
963.0
963.0
964.0
965.0
967.0
969.0
968.0
967.0
967.0
966.0
964.0
962.0
965.0
