# Simple Text Format
# Sampling Rate (Hz):= 360.00
# Resolution:= 12
# Labels:= ECG
969.0
973.0
970.0
971.0
971.0
969.0
968.0
968.0
971.0
973.0
975.0
973.0
973.0
973.0
971.0
969.0
966.0
965.0
966.0
968.0
969.0
971.0
972.0
973.0
973.0
973.0
970.0
971.0
969.0
969.0
971.0
971.0
974.0
976.0
976.0
978.0
978.0
979.0
978.0
979.0
983.0
987.0
989.0
989.0
990.0
992.0
994.0
994.0
996.0
997.0
997.0
995.0
994.0
991.0
987.0
985.0
985.0
985.0
984.0
982.0
982.0
978.0
977.0
976.0
972.0
968.0
968.0
967.0
966.0
964.0
966.0
964.0
965.0
965.0
960.0
963.0
963.0
964.0
968.0
973.0
978.0
982.0
985.0
988.0
995.0
997.0
998.0
1002.0
1005.0
1010.0
1015.0
1022.0
1029.0
1039.0
1048.0
1057.0
1068.0
1075.0
1081.0
1089.0
1096.0
1105.0
1121.0
1144.0
1171.0
1213.0
1254.0
1299.0
1339.0
1368.0
1378.0
1371.0
1347.0
1299.0
1234.0
1155.0
1064.0
971.0
887.0
826.0
801.0
810.0
840.0
880.0
922.0
951.0
967.0
972.0
971.0
963.0
960.0
951.0
950.0
952.0
952.0
953.0
954.0
958.0
959.0
961.0
962.0
964.0
964.0
963.0
965.0
964.0
961.0
961.0
962.0
964.0
961.0
964.0
965.0
966.0
966.0
964.0
965.0
965.0
962.0
965.0
964.0
962.0
961.0
963.0
962.0
962.0
963.0
961.0
965.0
965.0
965.0
964.0
966.0
964.0
964.0
965.0
968.0
970.0
973.0
975.0
976.0
975.0
976.0
979.0
980.0
977.0
978.0
978.0
981.0
986.0
989.0
990.0
991.0
988.0
989.0
989.0
989.0
988.0
987.0
991.0
994.0
994.0
996.0
997.0
999.0
996.0
993.0
994.0
993.0
991.0
990.0
986.0
987.0
988.0
987.0
984.0
981.0
977.0
974.0
973.0
973.0
967.0
968.0
969.0
969.0
968.0
967.0
967.0
966.0
967.0
966.0
965.0
963.0
961.0
961.0
961.0
962.0
963.0
962.0
964.0
964.0
963.0
962.0
963.0
963.0
962.0
962.0
961.0
960.0
963.0
961.0
963.0
965.0
964.0
962.0
960.0
960.0
958.0
957.0
956.0
959.0
962.0
964.0
963.0
964.0
963.0
962.0
958.0
958.0
957.0
957.0
959.0
962.0
962.0
963.0
962.0
964.0
963.0
961.0
956.0
954.0
951.0
952.0
955.0
959.0
961.0
961.0
963.0
963.0
958.0
955.0
954.0
957.0
958.0
957.0
958.0
959.0
959.0
957.0
958.0
957.0
958.0
957.0
956.0
955.0
954.0
953.0
953.0
952.0
954.0
955.0
955.0
956.0
955.0
956.0
953.0
953.0
951.0
951.0
951.0
952.0
953.0
955.0
956.0
956.0
955.0
956.0
952.0
952.0
951.0
948.0
948.0
948.0
948.0
955.0
954.0
955.0
955.0
951.0
951.0
949.0
950.0
950.0
949.0
953.0
954.0
955.0
956.0
955.0
955.0
953.0
950.0
949.0
949.0
945.0
949.0
949.0
949.0
953.0
953.0
954.0
952.0
951.0
950.0
949.0
951.0
949.0
949.0
951.0
952.0
953.0
952.0
951.0
953.0
952.0
953.0
951.0
953.0
953.0
954.0
956.0
956.0
960.0
961.0
965.0
964.0
969.0
968.0
968.0
971.0
969.0
971.0
976.0
976.0
977.0
979.0
981.0
980.0
977.0
973.0
971.0
967.0
965.0
966.0
966.0
965.0
964.0
962.0
962.0
957.0
957.0
953.0
952.0
949.0
947.0
944.0
943.0
944.0
942.0
947.0
947.0
946.0
947.0
947.0
949.0
949.0
950.0
954.0
957.0
964.0
966.0
970.0
975.0
977.0
981.0
985.0
989.0
994.0
1000.0
1007.0
1013.0
1023.0
1033.0
1039.0
1049.0
1054.0
1059.0
1063.0
1067.0
1079.0
1093.0
1119.0
1149.0
1188.0
1230.0
1274.0
1316.0
1348.0
1365.0
1366.0
1344.0
1296.0
1226.0
1141.0
1040.0
942.0
860.0
804.0
783.0
792.0
823.0
856.0
893.0
917.0
934.0
942.0
945.0
944.0
940.0
939.0
936.0
932.0
931.0
935.0
934.0
932.0
933.0
935.0
936.0
937.0
940.0
941.0
940.0
939.0
938.0
937.0
936.0
935.0
936.0
937.0
938.0
939.0
940.0
939.0
939.0
937.0
938.0
937.0
937.0
936.0
936.0
937.0
938.0
938.0
939.0
938.0
938.0
938.0
937.0
939.0
936.0
937.0
938.0
936.0
939.0
938.0
941.0
945.0
945.0
947.0
948.0
948.0
949.0
951.0
952.0
955.0
957.0
960.0
958.0
960.0
959.0
960.0
963.0
961.0
961.0
960.0
959.0
961.0
962.0
964.0
968.0
969.0
973.0
974.0
974.0
974.0
972.0
973.0
971.0
972.0
972.0
972.0
973.0
972.0
970.0
967.0
964.0
961.0
956.0
955.0
952.0
953.0
953.0
953.0
953.0
953.0
950.0
948.0
946.0
944.0
942.0
941.0
943.0
942.0
944.0
943.0
944.0
947.0
945.0
944.0
943.0
942.0
943.0
939.0
939.0
943.0
943.0
944.0
943.0
944.0
942.0
943.0
943.0
942.0
940.0
939.0
940.0
942.0
941.0
941.0
946.0
944.0
947.0
948.0
948.0
946.0
947.0
945.0
945.0
946.0
945.0
947.0
948.0
947.0
948.0
948.0
947.0
947.0
945.0
945.0
944.0
943.0
944.0
944.0
947.0
947.0
948.0
947.0
947.0
946.0
944.0
943.0
944.0
942.0
944.0
943.0
942.0
943.0
945.0
944.0
943.0
939.0
940.0
938.0
939.0
938.0
941.0
938.0
939.0
939.0
940.0
939.0
936.0
932.0
931.0
931.0
931.0
934.0
934.0
937.0
938.0
937.0
935.0
934.0
932.0
932.0
931.0
933.0
933.0
933.0
936.0
936.0
935.0
934.0
935.0
935.0
936.0
936.0
935.0
934.0
932.0
932.0
934.0
934.0
938.0
936.0
937.0
937.0
935.0
937.0
935.0
931.0
930.0
934.0
933.0
937.0
936.0
938.0
940.0
942.0
942.0
942.0
940.0
943.0
944.0
947.0
950.0
953.0
958.0
959.0
959.0
960.0
959.0
961.0
957.0
959.0
961.0
960.0
962.0
962.0
961.0
959.0
958.0
956.0
951.0
950.0
947.0
946.0
943.0
944.0
944.0
943.0
946.0
944.0
942.0
938.0
933.0
930.0
928.0
926.0
927.0
930.0
933.0
934.0
938.0
941.0
939.0
942.0
943.0
944.0
944.0
948.0
950.0
953.0
957.0
962.0
966.0
972.0
979.0
985.0
988.0
994.0
998.0
1004.0
1011.0
1020.0
1030.0
1037.0
1047.0
1051.0
1057.0
1066.0
1076.0
1089.0
1111.0
1140.0
1171.0
1210.0
1249.0
1287.0
1320.0
1343.0
1351.0
1343.0
1312.0
1261.0
1192.0
1109.0
1017.0
928.0
848.0
799.0
782.0
791.0
819.0
852.0
882.0
906.0
921.0
930.0
928.0
929.0
926.0
923.0
920.0
924.0
926.0
924.0
924.0
922.0
922.0
923.0
921.0
922.0
925.0
929.0
929.0
931.0
932.0
929.0
928.0
926.0
922.0
923.0
924.0
924.0
929.0
930.0
929.0
929.0
928.0
925.0
925.0
925.0
922.0
923.0
923.0
928.0
927.0
928.0
930.0
929.0
931.0
932.0
930.0
930.0
929.0
932.0
934.0
935.0
934.0
938.0
939.0
939.0
942.0
943.0
943.0
946.0
947.0
947.0
949.0
948.0
951.0
952.0
955.0
957.0
959.0
960.0
959.0
958.0
953.0
954.0
953.0
957.0
960.0
964.0
964.0
966.0
968.0
968.0
965.0
961.0
958.0
955.0
953.0
951.0
953.0
953.0
955.0
951.0
950.0
947.0
944.0
939.0
935.0
936.0
936.0
933.0
934.0
936.0
936.0
936.0
936.0
934.0
933.0
931.0
929.0
930.0
928.0
929.0
930.0
931.0
933.0
934.0
934.0
932.0
934.0
933.0
933.0
932.0
931.0
931.0
933.0
935.0
936.0
937.0
941.0
941.0
941.0
941.0
939.0
937.0
938.0
936.0
938.0
940.0
942.0
943.0
945.0
945.0
945.0
942.0
941.0
940.0
940.0
941.0
940.0
942.0
942.0
943.0
943.0
944.0
941.0
940.0
938.0
936.0
937.0
938.0
940.0
939.0
938.0
937.0
936.0
938.0
934.0
937.0
934.0
935.0
930.0
933.0
934.0
933.0
936.0
937.0
935.0
933.0
931.0
930.0
929.0
931.0
928.0
929.0
929.0
929.0
930.0
930.0
931.0
927.0
930.0
928.0
926.0
927.0
924.0
923.0
923.0
928.0
928.0
930.0
931.0
928.0
928.0
923.0
923.0
920.0
923.0
925.0
927.0
930.0
928.0
929.0
927.0
927.0
926.0
926.0
925.0
925.0
925.0
924.0
926.0
928.0
931.0
931.0
933.0
931.0
929.0
929.0
926.0
927.0
926.0
926.0
929.0
930.0
931.0
931.0
930.0
931.0
931.0
931.0
929.0
933.0
934.0
935.0
938.0
941.0
943.0
946.0
946.0
947.0
948.0
949.0
949.0
946.0
949.0
949.0
952.0
951.0
948.0
950.0
946.0
946.0
942.0
939.0
938.0
934.0
933.0
931.0
932.0
931.0
931.0
932.0
932.0
929.0
929.0
925.0
920.0
919.0
917.0
916.0
919.0
923.0
926.0
926.0
929.0
929.0
932.0
932.0
934.0
937.0
939.0
943.0
944.0
951.0
955.0
959.0
965.0
968.0
974.0
979.0
979.0
986.0
996.0
1004.0
1014.0
1024.0
1031.0
1041.0
1047.0
1053.0
1062.0
1076.0
1095.0
1118.0
1154.0
1191.0
1231.0
1267.0
1298.0
1315.0
1316.0
1297.0
1261.0
1207.0
1136.0
1060.0
976.0
900.0
834.0
797.0
784.0
796.0
825.0
856.0
885.0
905.0
918.0
924.0
924.0
918.0
913.0
912.0
911.0
915.0
916.0
919.0
919.0
920.0
915.0
916.0
915.0
917.0
920.0
917.0
922.0
924.0
923.0
924.0
925.0
923.0
923.0
920.0
918.0
920.0
920.0
921.0
922.0
927.0
926.0
926.0
926.0
922.0
922.0
918.0
919.0
921.0
923.0
923.0
924.0
925.0
927.0
927.0
925.0
925.0
924.0
927.0
927.0
928.0
929.0
930.0
932.0
934.0
937.0
937.0
937.0
936.0
940.0
942.0
942.0
938.0
942.0
944.0
943.0
950.0
949.0
952.0
950.0
950.0
950.0
950.0
949.0
951.0
952.0
954.0
957.0
960.0
963.0
962.0
962.0
960.0
957.0
955.0
952.0
951.0
951.0
947.0
948.0
950.0
950.0
949.0
945.0
942.0
937.0
936.0
933.0
933.0
936.0
935.0
936.0
937.0
935.0
933.0
935.0
933.0
931.0
931.0
930.0
930.0
930.0
931.0
930.0
932.0
933.0
932.0
931.0
928.0
931.0
931.0
931.0
930.0
931.0
930.0
928.0
928.0
931.0
932.0
935.0
935.0
934.0
934.0
931.0
930.0
932.0
934.0
934.0
935.0
936.0
937.0
937.0
934.0
934.0
935.0
934.0
934.0
935.0
933.0
933.0
937.0
938.0
939.0
937.0
937.0
937.0
935.0
934.0
932.0
936.0
936.0
937.0
939.0
939.0
937.0
936.0
934.0
933.0
933.0
932.0
931.0
931.0
931.0
932.0
933.0
935.0
934.0
934.0
930.0
928.0
925.0
928.0
926.0
927.0
924.0
927.0
927.0
925.0
926.0
925.0
924.0
922.0
921.0
919.0
918.0
920.0
920.0
922.0
924.0
924.0
923.0
924.0
923.0
925.0
924.0
924.0
923.0
922.0
926.0
926.0
929.0
931.0
932.0
929.0
926.0
926.0
924.0
926.0
925.0
926.0
929.0
931.0
932.0
932.0
931.0
930.0
929.0
932.0
930.0
930.0
928.0
928.0
927.0
929.0
930.0
929.0
928.0
928.0
927.0
926.0
925.0
921.0
922.0
926.0
927.0
926.0
927.0
930.0
931.0
936.0
936.0
935.0
937.0
937.0
939.0
942.0
943.0
947.0
951.0
954.0
955.0
954.0
952.0
949.0
948.0
945.0
942.0
940.0
942.0
938.0
938.0
936.0
932.0
931.0
929.0
928.0
927.0
925.0
926.0
924.0
922.0
921.0
921.0
921.0
922.0
923.0
924.0
926.0
927.0
927.0
931.0
936.0
939.0
942.0
942.0
946.0
949.0
955.0
960.0
965.0
970.0
976.0
980.0
986.0
996.0
1007.0
1019.0
1029.0
1036.0
1045.0
1049.0
1053.0
1066.0
1078.0
1100.0
1132.0
1171.0
1213.0
1261.0
1298.0
1323.0
1336.0
1324.0
1296.0
1245.0
1177.0
1094.0
1001.0
909.0
838.0
790.0
779.0
791.0
818.0
854.0
882.0
908.0
922.0
928.0
929.0
927.0
926.0
922.0
920.0
920.0
920.0
920.0
922.0
923.0
923.0
925.0
926.0
926.0
927.0
928.0
928.0
927.0
929.0
931.0
930.0
926.0
927.0
924.0
924.0
922.0
924.0
927.0
928.0
930.0
929.0
930.0
928.0
925.0
925.0
924.0
924.0
925.0
927.0
929.0
932.0
932.0
931.0
930.0
929.0
931.0
930.0
930.0
930.0
932.0
933.0
936.0
940.0
942.0
942.0
942.0
944.0
941.0
943.0
944.0
943.0
948.0
952.0
955.0
956.0
955.0
956.0
953.0
954.0
954.0
955.0
957.0
955.0
958.0
960.0
963.0
963.0
966.0
962.0
961.0
959.0
958.0
958.0
957.0
959.0
958.0
958.0
956.0
955.0
952.0
947.0
945.0
944.0
941.0
942.0
942.0
940.0
938.0
937.0
939.0
939.0
938.0
939.0
935.0
934.0
935.0
934.0
934.0
934.0
935.0
933.0
936.0
934.0
934.0
933.0
932.0
932.0
931.0
932.0
929.0
932.0
931.0
934.0
936.0
937.0
938.0
937.0
937.0
936.0
937.0
936.0
933.0
935.0
936.0
940.0
943.0
942.0
942.0
944.0
941.0
939.0
938.0
938.0
937.0
939.0
941.0
941.0
941.0
943.0
942.0
940.0
938.0
934.0
936.0
936.0
938.0
939.0
940.0
943.0
943.0
943.0
941.0
940.0
939.0
938.0
935.0
936.0
935.0
936.0
936.0
937.0
938.0
938.0
937.0
940.0
940.0
937.0
937.0
935.0
933.0
934.0
934.0
934.0
935.0
935.0
933.0
933.0
934.0
934.0
932.0
931.0
930.0
930.0
930.0
931.0
932.0
932.0
936.0
934.0
934.0
933.0
930.0
930.0
927.0
928.0
931.0
932.0
935.0
939.0
937.0
938.0
934.0
932.0
931.0
928.0
930.0
930.0
933.0
933.0
936.0
938.0
938.0
937.0
935.0
933.0
934.0
934.0
935.0
936.0
935.0
937.0
935.0
937.0
937.0
939.0
939.0
937.0
937.0
940.0
939.0
939.0
941.0
942.0
944.0
945.0
946.0
947.0
948.0
948.0
947.0
946.0
947.0
944.0
943.0
943.0
944.0
947.0
950.0
950.0
953.0
952.0
953.0
955.0
955.0
958.0
960.0
963.0
967.0
969.0
972.0
974.0
974.0
975.0
976.0
978.0
977.0
976.0
975.0
974.0
974.0
974.0
970.0
969.0
965.0
962.0
958.0
957.0
954.0
956.0
958.0
959.0
959.0
956.0
954.0
947.0
941.0
942.0
942.0
946.0
945.0
950.0
952.0
955.0
958.0
963.0
963.0
963.0
965.0
968.0
970.0
974.0
979.0
982.0
989.0
996.0
1003.0
1008.0
1018.0
1024.0
1034.0
1043.0
1051.0
1058.0
1065.0
1069.0
1076.0
1085.0
1100.0
1124.0
1152.0
1187.0
1221.0
1260.0
1294.0
1320.0
1330.0
1327.0
1303.0
1259.0
1201.0
1127.0
1040.0
948.0
866.0
806.0
781.0
790.0
822.0
864.0
903.0
935.0
953.0
961.0
958.0
954.0
944.0
938.0
931.0
931.0
932.0
938.0
938.0
942.0
944.0
944.0
944.0
940.0
939.0
936.0
938.0
939.0
938.0
939.0
941.0
942.0
943.0
943.0
944.0
942.0
937.0
939.0
937.0
937.0
937.0
937.0
937.0
940.0
939.0
941.0
942.0
941.0
938.0
937.0
934.0
933.0
934.0
932.0
932.0
933.0
937.0
940.0
939.0
941.0
941.0
943.0
944.0
943.0
943.0
945.0
945.0
945.0
946.0
951.0
954.0
952.0
952.0
953.0
951.0
952.0
952.0
955.0
953.0
957.0
959.0
961.0
963.0
963.0
962.0
960.0
961.0
962.0
959.0
963.0
963.0
963.0
965.0
965.0
965.0
965.0
961.0
957.0
954.0
950.0
948.0
950.0
951.0
951.0
952.0
950.0
947.0
944.0
939.0
937.0
934.0
937.0
934.0
938.0
938.0
940.0
940.0
941.0
939.0
939.0
937.0
936.0
936.0
936.0
935.0
938.0
937.0
939.0
938.0
938.0
938.0
939.0
938.0
940.0
938.0
939.0
940.0
942.0
942.0
945.0
946.0
947.0
946.0
946.0
942.0
943.0
942.0
945.0
944.0
947.0
945.0
947.0
950.0
950.0
948.0
948.0
949.0
944.0
940.0
944.0
941.0
942.0
944.0
946.0
947.0
948.0
951.0
949.0
947.0
944.0
944.0
943.0
943.0
944.0
947.0
946.0
947.0
945.0
949.0
946.0
943.0
942.0
942.0
940.0
939.0
942.0
942.0
945.0
944.0
943.0
943.0
942.0
938.0
937.0
937.0
938.0
938.0
941.0
943.0
941.0
943.0
944.0
942.0
942.0
941.0
940.0
940.0
938.0
936.0
936.0
936.0
939.0
940.0
941.0
943.0
945.0
943.0
941.0
939.0
937.0
936.0
936.0
940.0
942.0
944.0
944.0
944.0
941.0
939.0
938.0
937.0
937.0
936.0
938.0
939.0
939.0
942.0
944.0
945.0
944.0
942.0
942.0
939.0
938.0
937.0
941.0
941.0
942.0
942.0
943.0
944.0
941.0
940.0
938.0
937.0
938.0
937.0
939.0
940.0
940.0
941.0
942.0
943.0
942.0
941.0
943.0
942.0
942.0
940.0
942.0
939.0
940.0
943.0
947.0
951.0
955.0
954.0
956.0
954.0
958.0
959.0
962.0
965.0
969.0
974.0
975.0
972.0
970.0
967.0
963.0
957.0
955.0
952.0
953.0
954.0
955.0
954.0
953.0
953.0
951.0
948.0
945.0
939.0
935.0
931.0
930.0
931.0
932.0
936.0
935.0
938.0
938.0
939.0
941.0
941.0
944.0
946.0
949.0
955.0
958.0
962.0
965.0
969.0
974.0
977.0
982.0
988.0
993.0
998.0
1006.0
1017.0
1027.0
1037.0
1046.0
1056.0
1060.0
1068.0
1076.0
1090.0
1113.0
1142.0
1178.0
1216.0
1254.0
1283.0
1302.0
1305.0
1289.0
1253.0
1199.0
1128.0
1046.0
957.0
874.0
811.0
784.0
789.0
816.0
855.0
895.0
925.0
941.0
948.0
946.0
939.0
933.0
929.0
929.0
930.0
931.0
932.0
935.0
934.0
935.0
934.0
934.0
933.0
936.0
934.0
939.0
938.0
938.0
936.0
939.0
937.0
939.0
937.0
937.0
935.0
938.0
938.0
941.0
942.0
943.0
944.0
943.0
941.0
940.0
940.0
939.0
940.0
942.0
943.0
944.0
946.0
945.0
945.0
948.0
946.0
947.0
945.0
946.0
946.0
947.0
949.0
953.0
958.0
961.0
962.0
961.0
964.0
962.0
961.0
960.0
959.0
961.0
964.0
965.0
967.0
967.0
970.0
967.0
967.0
965.0
964.0
965.0
967.0
968.0
973.0
972.0
975.0
977.0
975.0
974.0
971.0
970.0
967.0
968.0
966.0
965.0
965.0
965.0
965.0
962.0
960.0
959.0
956.0
952.0
950.0
947.0
948.0
950.0
947.0
949.0
951.0
947.0
946.0
942.0
941.0
944.0
945.0
942.0
943.0
942.0
943.0
941.0
940.0
943.0
946.0
944.0
943.0
944.0
943.0
942.0
943.0
941.0
944.0
944.0
949.0
949.0
951.0
952.0
952.0
951.0
949.0
948.0
948.0
945.0
945.0
947.0
949.0
950.0
953.0
955.0
954.0
950.0
946.0
949.0
947.0
948.0
947.0
948.0
950.0
949.0
951.0
951.0
950.0
946.0
947.0
945.0
943.0
944.0
944.0
946.0
948.0
949.0
949.0
948.0
947.0
943.0
943.0
941.0
943.0
940.0
944.0
945.0
941.0
944.0
945.0
944.0
939.0
937.0
936.0
936.0
938.0
939.0
939.0
940.0
939.0
940.0
942.0
940.0
938.0
937.0
934.0
934.0
934.0
934.0
935.0
935.0
938.0
935.0
934.0
934.0
936.0
931.0
931.0
929.0
926.0
930.0
930.0
930.0
932.0
933.0
934.0
935.0
935.0
935.0
932.0
932.0
932.0
931.0
931.0
933.0
932.0
934.0
934.0
938.0
935.0
934.0
931.0
928.0
928.0
927.0
929.0
932.0
934.0
936.0
936.0
934.0
934.0
934.0
932.0
929.0
928.0
929.0
932.0
934.0
935.0
936.0
938.0
936.0
934.0
934.0
932.0
933.0
932.0
935.0
939.0
939.0
943.0
944.0
946.0
947.0
948.0
950.0
949.0
954.0
955.0
958.0
960.0
962.0
966.0
966.0
967.0
968.0
965.0
963.0
960.0
959.0
957.0
956.0
953.0
953.0
950.0
949.0
945.0
947.0
943.0
941.0
940.0
939.0
933.0
931.0
929.0
930.0
930.0
931.0
932.0
932.0
933.0
933.0
931.0
930.0
931.0
929.0
928.0
928.0
930.0
931.0
931.0
930.0
931.0
930.0
929.0
927.0
930.0
928.0
933.0
936.0
940.0
941.0
944.0
948.0
952.0
962.0
978.0
1005.0
1040.0
1081.0
1129.0
1174.0
1216.0
1240.0
1243.0
1219.0
1168.0
1095.0
1009.0
918.0
829.0
762.0
731.0
732.0
760.0
805.0
851.0
888.0
916.0
935.0
941.0
943.0
940.0
935.0
938.0
936.0
936.0
941.0
942.0
944.0
945.0
945.0
943.0
941.0
943.0
946.0
946.0
948.0
949.0
951.0
954.0
954.0
956.0
955.0
954.0
954.0
954.0
955.0
957.0
961.0
963.0
966.0
968.0
970.0
972.0
970.0
972.0
974.0
978.0
980.0
984.0
989.0
992.0
992.0
994.0
995.0
993.0
993.0
995.0
997.0
998.0
1001.0
1002.0
1004.0
1009.0
1013.0
1017.0
1016.0
1018.0
1020.0
1022.0
1021.0
1023.0
1024.0
1024.0
1026.0
1029.0
1030.0
1029.0
1029.0
1029.0
1025.0
1023.0
1023.0
1025.0
1026.0
1026.0
1025.0
1024.0
1024.0
1025.0
1025.0
1021.0
1020.0
1012.0
1009.0
1004.0
1001.0
999.0
995.0
995.0
992.0
989.0
985.0
980.0
975.0
970.0
964.0
961.0
958.0
956.0
952.0
955.0
954.0
956.0
952.0
952.0
949.0
948.0
946.0
946.0
947.0
949.0
952.0
958.0
958.0
964.0
961.0
963.0
962.0
960.0
959.0
959.0
959.0
958.0
960.0
961.0
964.0
962.0
961.0
959.0
957.0
956.0
954.0
958.0
958.0
958.0
961.0
962.0
962.0
960.0
958.0
957.0
955.0
954.0
954.0
954.0
954.0
954.0
954.0
953.0
953.0
953.0
953.0
953.0
951.0
952.0
951.0
949.0
951.0
953.0
954.0
956.0
954.0
948.0
949.0
944.0
946.0
945.0
945.0
946.0
946.0
947.0
947.0
949.0
950.0
952.0
950.0
951.0
951.0
949.0
950.0
947.0
948.0
950.0
950.0
953.0
953.0
954.0
957.0
955.0
953.0
952.0
949.0
948.0
949.0
952.0
952.0
955.0
958.0
959.0
960.0
959.0
960.0
958.0
957.0
956.0
956.0
958.0
960.0
962.0
966.0
967.0
968.0
965.0
964.0
962.0
965.0
965.0
969.0
971.0
973.0
976.0
975.0
978.0
976.0
979.0
976.0
978.0
978.0
979.0
979.0
982.0
986.0
989.0
990.0
993.0
993.0
989.0
991.0
994.0
994.0
993.0
992.0
995.0
994.0
996.0
996.0
995.0
994.0
993.0
993.0
993.0
989.0
989.0
988.0
989.0
990.0
992.0
993.0
996.0
995.0
994.0
994.0
991.0
986.0
983.0
982.0
980.0
977.0
976.0
974.0
971.0
967.0
966.0
960.0
955.0
951.0
947.0
947.0
945.0
942.0
941.0
937.0
934.0
932.0
929.0
927.0
925.0
927.0
926.0
925.0
927.0
927.0
930.0
931.0
930.0
929.0
929.0
925.0
926.0
927.0
926.0
926.0
927.0
927.0
930.0
932.0
932.0
933.0
931.0
931.0
932.0
933.0
938.0
947.0
963.0
989.0
1019.0
1058.0
1101.0
1146.0
1190.0
1225.0
1243.0
1238.0
1206.0
1144.0
1066.0
973.0
879.0
799.0
742.0
722.0
738.0
777.0
819.0
869.0
907.0
930.0
944.0
950.0
950.0
948.0
944.0
940.0
939.0
940.0
940.0
942.0
946.0
945.0
947.0
953.0
953.0
955.0
956.0
955.0
953.0
953.0
950.0
952.0
953.0
951.0
956.0
959.0
959.0
960.0
960.0
960.0
965.0
965.0
963.0
963.0
965.0
969.0
972.0
976.0
976.0
978.0
980.0
982.0
984.0
985.0
986.0
987.0
987.0
989.0
992.0
994.0
999.0
1003.0
1006.0
1007.0
1007.0
1009.0
1007.0
1008.0
1008.0
1011.0
1014.0
1015.0
1016.0
1018.0
1019.0
1020.0
1019.0
1020.0
1017.0
1015.0
1013.0
1014.0
1014.0
1013.0
1013.0
1017.0
1015.0
1016.0
1013.0
1011.0
1006.0
1004.0
1000.0
995.0
994.0
990.0
987.0
984.0
979.0
976.0
971.0
965.0
962.0
956.0
955.0
953.0
951.0
950.0
949.0
944.0
941.0
940.0
940.0
938.0
938.0
939.0
938.0
934.0
939.0
939.0
943.0
942.0
944.0
944.0
944.0
943.0
942.0
944.0
942.0
943.0
944.0
944.0
947.0
947.0
948.0
949.0
951.0
948.0
947.0
944.0
943.0
945.0
945.0
946.0
948.0
949.0
947.0
948.0
945.0
945.0
940.0
938.0
939.0
939.0
942.0
943.0
943.0
945.0
944.0
945.0
940.0
941.0
939.0
937.0
936.0
934.0
936.0
937.0
935.0
939.0
936.0
936.0
935.0
932.0
930.0
932.0
932.0
934.0
935.0
935.0
936.0
936.0
936.0
936.0
936.0
932.0
933.0
931.0
929.0
929.0
929.0
930.0
931.0
931.0
931.0
932.0
932.0
931.0
930.0
929.0
931.0
927.0
927.0
927.0
930.0
931.0
932.0
931.0
932.0
928.0
928.0
927.0
926.0
923.0
927.0
928.0
929.0
930.0
935.0
939.0
936.0
934.0
930.0
927.0
926.0
923.0
926.0
928.0
932.0
931.0
931.0
931.0
933.0
931.0
928.0
933.0
932.0
934.0
938.0
944.0
945.0
949.0
951.0
952.0
953.0
953.0
953.0
956.0
955.0
958.0
958.0
957.0
961.0
960.0
957.0
955.0
952.0
947.0
945.0
942.0
939.0
937.0
936.0
936.0
937.0
935.0
933.0
930.0
926.0
920.0
918.0
917.0
918.0
917.0
919.0
918.0
920.0
920.0
922.0
924.0
924.0
923.0
919.0
920.0
920.0
919.0
920.0
921.0
924.0
923.0
924.0
924.0
925.0
925.0
926.0
923.0
925.0
924.0
928.0
926.0
928.0
932.0
939.0
947.0
964.0
986.0
1011.0
1044.0
1082.0
1124.0
1167.0
1206.0
1235.0
1245.0
1230.0
1185.0
1116.0
1026.0
930.0
839.0
765.0
722.0
716.0
736.0
774.0
818.0
854.0
890.0
912.0
929.0
938.0
941.0
941.0
938.0
938.0
939.0
941.0
943.0
943.0
947.0
949.0
949.0
947.0
948.0
948.0
948.0
952.0
955.0
955.0
958.0
960.0
962.0
961.0
959.0
958.0
957.0
961.0
959.0
961.0
963.0
966.0
968.0
970.0
975.0
976.0
976.0
977.0
976.0
975.0
978.0
976.0
979.0
985.0
988.0
991.0
991.0
994.0
994.0
995.0
997.0
998.0
999.0
1003.0
1006.0
1009.0
1013.0
1019.0
1020.0
1022.0
1023.0
1021.0
1023.0
1023.0
1020.0
1019.0
1023.0
1024.0
1022.0
1025.0
1026.0
1026.0
1022.0
1021.0
1021.0
1018.0
1018.0
1018.0
1019.0
1019.0
1020.0
1019.0
1013.0
1010.0
1005.0
1000.0
995.0
992.0
986.0
983.0
980.0
974.0
971.0
970.0
966.0
960.0
958.0
954.0
948.0
947.0
943.0
944.0
941.0
942.0
939.0
940.0
941.0
941.0
944.0
945.0
944.0
942.0
942.0
940.0
940.0
942.0
947.0
948.0
948.0
945.0
946.0
944.0
942.0
943.0
943.0
944.0
947.0
948.0
950.0
953.0
952.0
950.0
947.0
946.0
944.0
945.0
945.0
948.0
948.0
949.0
951.0
949.0
948.0
948.0
946.0
944.0
943.0
945.0
945.0
945.0
943.0
941.0
943.0
940.0
940.0
940.0
940.0
938.0
938.0
939.0
938.0
936.0
937.0
936.0
935.0
935.0
938.0
936.0
936.0
935.0
933.0
935.0
933.0
931.0
931.0
931.0
932.0
934.0
936.0
935.0
932.0
929.0
928.0
929.0
928.0
929.0
932.0
933.0
936.0
936.0
932.0
931.0
929.0
929.0
926.0
926.0
926.0
930.0
931.0
932.0
932.0
934.0
932.0
931.0
927.0
929.0
930.0
927.0
929.0
932.0
934.0
938.0
936.0
938.0
938.0
940.0
941.0
943.0
946.0
947.0
949.0
951.0
954.0
955.0
959.0
961.0
962.0
961.0
960.0
958.0
957.0
956.0
952.0
953.0
952.0
952.0
950.0
947.0
946.0
945.0
942.0
940.0
937.0
934.0
934.0
926.0
924.0
924.0
923.0
925.0
925.0
925.0
926.0
925.0
925.0
924.0
925.0
924.0
925.0
924.0
928.0
927.0
927.0
924.0
922.0
922.0
922.0
921.0
923.0
924.0
928.0
929.0
932.0
932.0
934.0
935.0
937.0
937.0
945.0
954.0
972.0
996.0
1026.0
1064.0
1105.0
1150.0
1192.0
1229.0
1246.0
1240.0
1201.0
1141.0
1058.0
968.0
879.0
801.0
750.0
732.0
741.0
768.0
807.0
840.0
869.0
894.0
913.0
924.0
934.0
940.0
942.0
944.0
941.0
942.0
945.0
943.0
941.0
942.0
942.0
946.0
946.0
949.0
952.0
953.0
954.0
952.0
949.0
950.0
950.0
952.0
954.0
955.0
958.0
961.0
959.0
962.0
963.0
962.0
967.0
967.0
966.0
968.0
969.0
970.0
970.0
973.0
976.0
977.0
981.0
983.0
986.0
986.0
987.0
990.0
989.0
991.0
996.0
998.0
1002.0
1007.0
1012.0
1014.0
1017.0
1016.0
1016.0
1015.0
1014.0
1015.0
1018.0
1020.0
1023.0
1023.0
1027.0
1026.0
1025.0
1022.0
1021.0
1022.0
1020.0
1020.0
1021.0
1022.0
1020.0
1020.0
1021.0
1015.0
1014.0
1012.0
1008.0
1006.0
1004.0
1001.0
997.0
992.0
989.0
983.0
979.0
972.0
970.0
964.0
961.0
957.0
956.0
953.0
950.0
952.0
