# Simple Text Format
# Sampling Rate (Hz):= 360.00
# Resolution:= 12
# Labels:= ECG
1283.0
1245.0
1191.0
1124.0
1046.0
966.0
898.0
856.0
844.0
853.0
879.0
910.0
940.0
964.0
978.0
984.0
982.0
979.0
974.0
967.0
965.0
966.0
967.0
969.0
971.0
973.0
975.0
975.0
976.0
973.0
973.0
971.0
971.0
969.0
971.0
972.0
973.0
975.0
974.0
975.0
977.0
976.0
974.0
973.0
970.0
973.0
972.0
971.0
975.0
971.0
974.0
975.0
975.0
977.0
975.0
975.0
974.0
974.0
975.0
975.0
973.0
978.0
978.0
979.0
980.0
982.0
980.0
980.0
981.0
981.0
983.0
984.0
985.0
987.0
989.0
994.0
996.0
996.0
996.0
996.0
997.0
995.0
995.0
995.0
997.0
1000.0
1002.0
1003.0
1002.0
1003.0
1003.0
1003.0
1001.0
1001.0
999.0
999.0
1002.0
1002.0
1003.0
1006.0
1005.0
1006.0
1005.0
1000.0
997.0
995.0
992.0
990.0
989.0
987.0
991.0
990.0
990.0
987.0
986.0
983.0
982.0
981.0
979.0
978.0
979.0
979.0
981.0
982.0
981.0
980.0
979.0
977.0
979.0
979.0
979.0
978.0
979.0
977.0
978.0
979.0
981.0
982.0
981.0
981.0
979.0
977.0
978.0
976.0
977.0
977.0
980.0
980.0
983.0
985.0
984.0
983.0
983.0
983.0
980.0
982.0
983.0
985.0
987.0
987.0
989.0
988.0
987.0
985.0
984.0
984.0
983.0
981.0
979.0
982.0
984.0
987.0
986.0
987.0
985.0
983.0
981.0
981.0
981.0
979.0
981.0
983.0
985.0
983.0
984.0
983.0
983.0
980.0
980.0
978.0
978.0
979.0
978.0
978.0
980.0
979.0
980.0
979.0
979.0
979.0
977.0
976.0
975.0
973.0
974.0
975.0
975.0
977.0
978.0
979.0
977.0
976.0
974.0
973.0
974.0
972.0
972.0
973.0
973.0
976.0
977.0
978.0
978.0
974.0
975.0
974.0
974.0
973.0
974.0
975.0
978.0
981.0
979.0
981.0
979.0
976.0
973.0
973.0
974.0
974.0
974.0
975.0
975.0
978.0
978.0
978.0
975.0
975.0
974.0
972.0
971.0
973.0
972.0
974.0
975.0
976.0
978.0
977.0
977.0
975.0
974.0
973.0
973.0
973.0
972.0
973.0
974.0
974.0
974.0
977.0
975.0
974.0
975.0
975.0
973.0
970.0
971.0
973.0
975.0
975.0
976.0
979.0
979.0
977.0
977.0
975.0
974.0
975.0
978.0
981.0
983.0
986.0
986.0
986.0
988.0
986.0
988.0
990.0
992.0
992.0
996.0
999.0
1001.0
1003.0
1005.0
1005.0
1003.0
999.0
994.0
994.0
994.0
991.0
989.0
988.0
989.0
987.0
984.0
983.0
981.0
980.0
977.0
976.0
973.0
973.0
972.0
971.0
971.0
973.0
973.0
974.0
976.0
977.0
976.0
976.0
981.0
981.0
987.0
989.0
993.0
996.0
1002.0
1007.0
1012.0
1015.0
1017.0
1021.0
1024.0
1031.0
1038.0
1048.0
1059.0
1069.0
1078.0
1083.0
1090.0
1090.0
1098.0
1102.0
1116.0
1134.0
1160.0
1193.0
1227.0
1262.0
1294.0
1319.0
1331.0
1325.0
1304.0
1265.0
1209.0
1138.0
1062.0
983.0
917.0
875.0
855.0
857.0
877.0
897.0
920.0
941.0
958.0
968.0
976.0
976.0
976.0
973.0
972.0
972.0
969.0
967.0
971.0
968.0
971.0
973.0
973.0
973.0
974.0
977.0
976.0
975.0
975.0
975.0
976.0
975.0
974.0
974.0
975.0
974.0
974.0
975.0
976.0
977.0
975.0
979.0
974.0
971.0
971.0
970.0
970.0
971.0
974.0
976.0
979.0
978.0
979.0
977.0
976.0
974.0
973.0
974.0
975.0
976.0
979.0
980.0
986.0
984.0
986.0
986.0
982.0
983.0
983.0
983.0
985.0
987.0
990.0
991.0
992.0
991.0
990.0
991.0
990.0
989.0
988.0
989.0
991.0
993.0
995.0
997.0
997.0
997.0
998.0
999.0
999.0
998.0
998.0
996.0
995.0
998.0
999.0
1000.0
999.0
999.0
994.0
990.0
990.0
989.0
987.0
984.0
985.0
986.0
984.0
984.0
986.0
985.0
985.0
984.0
979.0
979.0
978.0
977.0
978.0
978.0
977.0
978.0
979.0
979.0
982.0
980.0
977.0
978.0
976.0
978.0
978.0
981.0
983.0
984.0
986.0
984.0
985.0
985.0
983.0
983.0
984.0
984.0
985.0
987.0
988.0
989.0
989.0
986.0
988.0
987.0
985.0
984.0
984.0
982.0
987.0
985.0
986.0
986.0
987.0
987.0
987.0
981.0
982.0
983.0
982.0
982.0
982.0
984.0
985.0
988.0
986.0
986.0
985.0
986.0
984.0
982.0
979.0
976.0
978.0
983.0
982.0
983.0
983.0
983.0
984.0
981.0
977.0
977.0
976.0
976.0
976.0
978.0
981.0
980.0
982.0
981.0
979.0
979.0
978.0
975.0
974.0
975.0
976.0
975.0
981.0
981.0
981.0
981.0
980.0
977.0
975.0
976.0
976.0
977.0
977.0
979.0
980.0
980.0
978.0
981.0
979.0
978.0
979.0
976.0
977.0
975.0
977.0
978.0
978.0
978.0
977.0
976.0
976.0
977.0
974.0
978.0
978.0
976.0
977.0
977.0
976.0
979.0
981.0
982.0
980.0
981.0
978.0
978.0
978.0
977.0
977.0
978.0
983.0
985.0
988.0
989.0
990.0
990.0
990.0
990.0
994.0
994.0
996.0
997.0
1002.0
1005.0
1007.0
1008.0
1005.0
1003.0
1004.0
998.0
994.0
996.0
995.0
994.0
992.0
993.0
992.0
989.0
989.0
987.0
986.0
985.0
985.0
980.0
980.0
979.0
977.0
978.0
977.0
978.0
977.0
979.0
980.0
978.0
979.0
980.0
984.0
987.0
991.0
995.0
999.0
1004.0
1003.0
1009.0
1011.0
1017.0
1022.0
1025.0
1031.0
1039.0
1046.0
1056.0
1066.0
1076.0
1083.0
1088.0
1091.0
1097.0
1109.0
1122.0
1142.0
1166.0
1198.0
1232.0
1269.0
1297.0
1318.0
1323.0
1307.0
1272.0
1219.0
1146.0
1068.0
989.0
920.0
876.0
859.0
867.0
890.0
915.0
940.0
962.0
976.0
981.0
982.0
980.0
977.0
975.0
975.0
975.0
977.0
975.0
976.0
977.0
975.0
973.0
972.0
976.0
979.0
981.0
982.0
980.0
983.0
980.0
979.0
979.0
978.0
977.0
980.0
980.0
982.0
984.0
984.0
984.0
983.0
981.0
980.0
980.0
978.0
980.0
980.0
981.0
982.0
983.0
983.0
983.0
984.0
984.0
982.0
983.0
984.0
984.0
985.0
988.0
989.0
989.0
993.0
994.0
995.0
995.0
996.0
992.0
995.0
997.0
998.0
1000.0
1000.0
1002.0
1004.0
1004.0
1006.0
1005.0
1004.0
1004.0
1001.0
999.0
1001.0
1001.0
1003.0
1005.0
1007.0
1009.0
1010.0
1011.0
1008.0
1006.0
1003.0
1001.0
1000.0
1001.0
1001.0
1001.0
999.0
997.0
996.0
993.0
990.0
988.0
986.0
983.0
984.0
986.0
986.0
986.0
985.0
985.0
981.0
983.0
980.0
978.0
977.0
976.0
977.0
979.0
979.0
982.0
982.0
981.0
981.0
978.0
975.0
977.0
977.0
975.0
976.0
979.0
980.0
981.0
983.0
984.0
983.0
983.0
984.0
983.0
982.0
982.0
983.0
984.0
983.0
985.0
986.0
988.0
989.0
988.0
986.0
985.0
987.0
985.0
983.0
984.0
985.0
986.0
985.0
987.0
987.0
984.0
984.0
982.0
982.0
980.0
981.0
980.0
979.0
982.0
985.0
985.0
986.0
984.0
981.0
979.0
977.0
978.0
980.0
980.0
980.0
982.0
984.0
982.0
981.0
981.0
980.0
976.0
979.0
978.0
980.0
979.0
979.0
982.0
982.0
981.0
979.0
976.0
976.0
976.0
976.0
978.0
976.0
977.0
977.0
979.0
978.0
978.0
979.0
978.0
977.0
976.0
976.0
975.0
976.0
976.0
977.0
976.0
979.0
979.0
979.0
979.0
979.0
977.0
976.0
972.0
974.0
974.0
976.0
977.0
979.0
979.0
977.0
981.0
976.0
973.0
973.0
974.0
974.0
976.0
977.0
980.0
979.0
978.0
980.0
980.0
978.0
976.0
978.0
978.0
978.0
977.0
979.0
983.0
981.0
980.0
980.0
980.0
982.0
982.0
983.0
985.0
988.0
990.0
993.0
994.0
997.0
1000.0
1002.0
1000.0
1003.0
1006.0
1005.0
1007.0
1008.0
1005.0
1006.0
1007.0
1005.0
1001.0
1004.0
998.0
997.0
994.0
988.0
989.0
989.0
987.0
988.0
990.0
988.0
989.0
987.0
983.0
979.0
974.0
973.0
971.0
972.0
976.0
977.0
982.0
985.0
985.0
988.0
988.0
989.0
990.0
993.0
996.0
1000.0
1004.0
1010.0
1014.0
1020.0
1024.0
1029.0
1032.0
1039.0
1048.0
1057.0
1066.0
1073.0
1084.0
1090.0
1095.0
1104.0
1113.0
1126.0
1145.0
1168.0
1197.0
1228.0
1259.0
1287.0
1308.0
1316.0
1308.0
1278.0
1235.0
1173.0
1093.0
1010.0
933.0
880.0
856.0
857.0
881.0
913.0
945.0
971.0
983.0
986.0
987.0
980.0
973.0
969.0
968.0
969.0
972.0
974.0
977.0
977.0
978.0
978.0
977.0
975.0
975.0
975.0
973.0
977.0
974.0
975.0
977.0
980.0
979.0
978.0
978.0
977.0
975.0
977.0
977.0
977.0
979.0
977.0
980.0
980.0
981.0
982.0
983.0
982.0
982.0
979.0
979.0
978.0
979.0
982.0
982.0
985.0
989.0
988.0
988.0
989.0
988.0
988.0
988.0
989.0
992.0
992.0
997.0
998.0
999.0
1000.0
999.0
999.0
998.0
995.0
995.0
997.0
999.0
1001.0
1004.0
1003.0
1006.0
1005.0
1005.0
1006.0
1004.0
1004.0
1005.0
1007.0
1008.0
1007.0
1007.0
1009.0
1007.0
1005.0
1002.0
999.0
999.0
998.0
995.0
994.0
993.0
992.0
992.0
992.0
988.0
987.0
987.0
986.0
986.0
985.0
983.0
984.0
984.0
983.0
984.0
983.0
983.0
984.0
984.0
982.0
981.0
979.0
978.0
976.0
980.0
979.0
983.0
982.0
985.0
984.0
987.0
984.0
981.0
982.0
979.0
980.0
981.0
983.0
986.0
989.0
985.0
986.0
987.0
987.0
984.0
983.0
978.0
980.0
984.0
987.0
988.0
988.0
988.0
991.0
988.0
988.0
984.0
985.0
982.0
984.0
984.0
983.0
984.0
984.0
984.0
985.0
987.0
985.0
985.0
982.0
982.0
983.0
986.0
986.0
987.0
986.0
984.0
985.0
984.0
982.0
982.0
980.0
982.0
982.0
983.0
983.0
982.0
980.0
983.0
984.0
981.0
980.0
980.0
978.0
980.0
980.0
978.0
978.0
979.0
979.0
981.0
981.0
976.0
978.0
976.0
976.0
975.0
976.0
976.0
977.0
975.0
977.0
979.0
979.0
977.0
976.0
975.0
974.0
974.0
974.0
977.0
978.0
979.0
980.0
982.0
982.0
980.0
981.0
979.0
975.0
975.0
975.0
976.0
976.0
981.0
981.0
984.0
983.0
983.0
980.0
977.0
975.0
975.0
977.0
977.0
978.0
979.0
981.0
983.0
981.0
978.0
978.0
977.0
975.0
975.0
974.0
977.0
978.0
980.0
978.0
977.0
979.0
976.0
978.0
978.0
975.0
978.0
978.0
980.0
980.0
981.0
981.0
983.0
982.0
983.0
986.0
987.0
985.0
986.0
989.0
992.0
996.0
997.0
1000.0
997.0
1005.0
1006.0
1006.0
1007.0
1008.0
1007.0
1006.0
1007.0
1005.0
1004.0
1003.0
1005.0
1006.0
1002.0
999.0
993.0
991.0
988.0
986.0
988.0
990.0
988.0
989.0
987.0
984.0
981.0
975.0
973.0
974.0
975.0
979.0
982.0
983.0
987.0
990.0
989.0
991.0
994.0
994.0
996.0
1002.0
1004.0
1010.0
1010.0
1016.0
1023.0
1029.0
1035.0
1041.0
1047.0
1056.0
1065.0
1071.0
1079.0
1087.0
1092.0
1097.0
1104.0
1114.0
1129.0
1147.0
1170.0
1197.0
1230.0
1263.0
1290.0
1304.0
1310.0
1296.0
1261.0
1208.0
1135.0
1052.0
968.0
899.0
859.0
847.0
862.0
892.0
925.0
956.0
977.0
989.0
992.0
992.0
984.0
976.0
972.0
973.0
975.0
978.0
980.0
982.0
984.0
985.0
986.0
985.0
981.0
981.0
981.0
982.0
984.0
983.0
984.0
983.0
982.0
985.0
987.0
985.0
988.0
989.0
985.0
985.0
983.0
984.0
983.0
986.0
988.0
988.0
988.0
989.0
989.0
987.0
987.0
987.0
985.0
986.0
987.0
990.0
994.0
995.0
999.0
1000.0
1000.0
999.0
995.0
996.0
996.0
997.0
999.0
1002.0
1005.0
1006.0
1003.0
1004.0
1004.0
1003.0
1003.0
1002.0
1002.0
1006.0
1005.0
1005.0
1007.0
1008.0
1008.0
1007.0
1007.0
1006.0
1010.0
1009.0
1010.0
1008.0
1008.0
1011.0
1010.0
1011.0
1008.0
1009.0
1008.0
1006.0
1005.0
1002.0
997.0
997.0
999.0
996.0
997.0
999.0
997.0
998.0
997.0
997.0
995.0
988.0
990.0
987.0
986.0
987.0
992.0
992.0
990.0
993.0
992.0
990.0
990.0
990.0
988.0
988.0
991.0
990.0
994.0
995.0
996.0
997.0
995.0
992.0
991.0
989.0
990.0
989.0
992.0
994.0
994.0
992.0
995.0
996.0
992.0
993.0
992.0
992.0
994.0
993.0
993.0
993.0
993.0
993.0
995.0
994.0
994.0
990.0
991.0
989.0
990.0
989.0
991.0
990.0
991.0
989.0
992.0
992.0
993.0
992.0
989.0
990.0
987.0
988.0
986.0
987.0
988.0
989.0
990.0
990.0
989.0
986.0
985.0
984.0
980.0
979.0
980.0
980.0
985.0
987.0
986.0
988.0
987.0
982.0
981.0
982.0
979.0
981.0
982.0
983.0
985.0
986.0
984.0
986.0
987.0
984.0
981.0
979.0
977.0
976.0
978.0
982.0
979.0
981.0
979.0
981.0
978.0
976.0
975.0
976.0
976.0
977.0
979.0
979.0
979.0
980.0
979.0
978.0
977.0
977.0
976.0
977.0
977.0
975.0
980.0
981.0
982.0
982.0
983.0
981.0
980.0
978.0
981.0
981.0
981.0
980.0
980.0
981.0
980.0
981.0
981.0
983.0
985.0
986.0
985.0
987.0
987.0
988.0
990.0
993.0
995.0
999.0
1000.0
1001.0
1004.0
1004.0
1006.0
1005.0
1006.0
1008.0
1009.0
1009.0
1010.0
1011.0
1010.0
1011.0
1008.0
1003.0
999.0
999.0
997.0
994.0
992.0
989.0
988.0
991.0
990.0
990.0
990.0
987.0
982.0
978.0
976.0
975.0
974.0
979.0
984.0
983.0
983.0
987.0
988.0
988.0
988.0
991.0
993.0
995.0
1000.0
1005.0
1008.0
1015.0
1016.0
1021.0
1022.0
1027.0
1032.0
1034.0
1041.0
1047.0
1060.0
1070.0
1078.0
1088.0
1091.0
1097.0
1100.0
1107.0
1120.0
1139.0
1161.0
1189.0
1224.0
1262.0
1301.0
1331.0
1352.0
1358.0
1338.0
1300.0
1241.0
1165.0
1078.0
987.0
910.0
858.0
840.0
850.0
875.0
909.0
939.0
963.0
979.0
985.0
990.0
983.0
982.0
978.0
981.0
982.0
980.0
984.0
984.0
984.0
984.0
982.0
982.0
982.0
985.0
985.0
987.0
989.0
987.0
987.0
985.0
986.0
987.0
986.0
986.0
985.0
984.0
986.0
988.0
991.0
988.0
989.0
986.0
987.0
987.0
987.0
987.0
987.0
988.0
988.0
987.0
989.0
992.0
993.0
993.0
994.0
992.0
993.0
992.0
991.0
993.0
994.0
994.0
999.0
1001.0
1004.0
1003.0
1002.0
1002.0
999.0
999.0
1000.0
1004.0
1003.0
1006.0
1009.0
1008.0
1008.0
1008.0
1005.0
1003.0
1003.0
1004.0
1004.0
1007.0
1008.0
1011.0
1014.0
1013.0
1013.0
1014.0
1011.0
1010.0
1006.0
1007.0
1007.0
1007.0
1006.0
1006.0
1006.0
1006.0
1003.0
998.0
999.0
996.0
994.0
993.0
993.0
993.0
993.0
989.0
991.0
990.0
990.0
992.0
991.0
990.0
987.0
989.0
988.0
986.0
986.0
986.0
988.0
988.0
990.0
992.0
993.0
991.0
992.0
991.0
989.0
991.0
990.0
992.0
994.0
995.0
998.0
997.0
997.0
993.0
992.0
993.0
990.0
992.0
995.0
995.0
997.0
997.0
995.0
995.0
994.0
996.0
995.0
995.0
993.0
995.0
997.0
997.0
1000.0
1000.0
1001.0
997.0
993.0
990.0
988.0
989.0
990.0
991.0
993.0
995.0
992.0
993.0
994.0
992.0
992.0
991.0
990.0
989.0
989.0
990.0
990.0
991.0
989.0
990.0
992.0
991.0
991.0
990.0
989.0
988.0
986.0
987.0
987.0
986.0
989.0
988.0
989.0
990.0
989.0
987.0
987.0
985.0
982.0
981.0
982.0
987.0
987.0
988.0
989.0
988.0
988.0
987.0
986.0
984.0
983.0
983.0
985.0
987.0
984.0
988.0
987.0
987.0
985.0
986.0
985.0
982.0
980.0
984.0
987.0
982.0
985.0
987.0
989.0
988.0
985.0
985.0
981.0
980.0
981.0
983.0
983.0
984.0
986.0
987.0
984.0
984.0
984.0
983.0
984.0
983.0
982.0
983.0
984.0
986.0
989.0
988.0
988.0
987.0
988.0
989.0
988.0
991.0
990.0
992.0
996.0
999.0
1001.0
1001.0
1004.0
1004.0
1005.0
1008.0
1009.0
1009.0
1010.0
1011.0
1010.0
1010.0
1010.0
1010.0
1009.0
1007.0
1006.0
1004.0
1002.0
999.0
996.0
994.0
992.0
992.0
993.0
993.0
994.0
992.0
988.0
987.0
981.0
978.0
976.0
977.0
978.0
980.0
983.0
986.0
987.0
990.0
992.0
992.0
994.0
993.0
996.0
1000.0
1005.0
1009.0
1012.0
1019.0
1024.0
1026.0
1026.0
1028.0
1034.0
1041.0
1048.0
1057.0
1069.0
1079.0
1088.0
1096.0
1099.0
1102.0
1103.0
1110.0
1123.0
1140.0
1166.0
1200.0
1236.0
1273.0
1306.0
1330.0
1341.0
1334.0
1311.0
1266.0
1204.0
1128.0
1043.0
959.0
890.0
846.0
831.0
843.0
872.0
908.0
939.0
965.0
982.0
990.0
989.0
987.0
982.0
977.0
976.0
979.0
978.0
983.0
984.0
983.0
980.0
980.0
979.0
980.0
979.0
981.0
984.0
986.0
987.0
987.0
986.0
983.0
982.0
981.0
981.0
982.0
982.0
984.0
986.0
986.0
987.0
985.0
984.0
982.0
982.0
978.0
978.0
977.0
980.0
983.0
986.0
987.0
986.0
985.0
984.0
984.0
984.0
983.0
983.0
984.0
988.0
989.0
992.0
991.0
994.0
994.0
993.0
992.0
991.0
993.0
994.0
997.0
1000.0
1000.0
1000.0
1003.0
1001.0
1005.0
1005.0
1004.0
1005.0
1002.0
1002.0
1003.0
1004.0
1006.0
1007.0
1009.0
1009.0
1009.0
1011.0
1008.0
1006.0
1004.0
1003.0
1002.0
1002.0
1002.0
1002.0
1003.0
1002.0
999.0
995.0
993.0
987.0
985.0
985.0
982.0
988.0
987.0
988.0
987.0
984.0
982.0
980.0
980.0
981.0
980.0
981.0
981.0
984.0
984.0
983.0
983.0
982.0
981.0
983.0
981.0
983.0
983.0
985.0
984.0
984.0
986.0
986.0
987.0
988.0
987.0
987.0
987.0
987.0
986.0
988.0
988.0
987.0
988.0
989.0
990.0
991.0
991.0
990.0
990.0
988.0
988.0
986.0
986.0
987.0
988.0
990.0
991.0
994.0
991.0
989.0
986.0
985.0
985.0
984.0
984.0
987.0
988.0
989.0
990.0
989.0
988.0
986.0
984.0
983.0
984.0
982.0
983.0
984.0
983.0
985.0
982.0
983.0
983.0
981.0
983.0
982.0
980.0
978.0
978.0
979.0
979.0
978.0
978.0
981.0
979.0
979.0
977.0
974.0
976.0
975.0
977.0
976.0
977.0
979.0
980.0
981.0
981.0
981.0
980.0
977.0
976.0
974.0
975.0
976.0
978.0
981.0
980.0
983.0
980.0
978.0
979.0
976.0
975.0
971.0
974.0
975.0
975.0
979.0
980.0
980.0
978.0
977.0
974.0
973.0
971.0
972.0
973.0
971.0
974.0
979.0
976.0
979.0
978.0
977.0
975.0
975.0
972.0
972.0
972.0
975.0
976.0
978.0
979.0
979.0
978.0
978.0
974.0
975.0
976.0
976.0
978.0
980.0
981.0
982.0
985.0
988.0
990.0
990.0
993.0
992.0
991.0
994.0
997.0
1000.0
1002.0
1003.0
1006.0
1007.0
1007.0
1006.0
1006.0
1000.0
997.0
995.0
992.0
992.0
991.0
991.0
989.0
989.0
988.0
988.0
983.0
982.0
980.0
974.0
973.0
971.0
970.0
971.0
972.0
974.0
974.0
976.0
974.0
976.0
975.0
979.0
983.0
986.0
991.0
993.0
997.0
1000.0
1002.0
1004.0
1007.0
1010.0
1013.0
1017.0
1023.0
1032.0
1038.0
1046.0
1057.0
1066.0
1072.0
1082.0
1084.0
1087.0
1091.0
1099.0
1111.0
1129.0
1152.0
1181.0
1216.0
1251.0
1286.0
1315.0
1330.0
1327.0
1307.0
1268.0
1214.0
1144.0
1058.0
969.0
891.0
840.0
824.0
836.0
866.0
901.0
936.0
964.0
978.0
984.0
981.0
979.0
975.0
971.0
967.0
965.0
968.0
967.0
967.0
968.0
967.0
968.0
970.0
974.0
975.0
975.0
974.0
975.0
974.0
973.0
971.0
969.0
972.0
973.0
976.0
976.0
977.0
977.0
976.0
972.0
971.0
970.0
970.0
970.0
973.0
974.0
975.0
975.0
975.0
978.0
977.0
978.0
979.0
979.0
979.0
979.0
981.0
980.0
984.0
984.0
988.0
990.0
989.0
992.0
993.0
992.0
993.0
991.0
992.0
994.0
996.0
998.0
1001.0
1003.0
1004.0
1003.0
1001.0
1000.0
999.0
1000.0
1000.0
1003.0
1005.0
1007.0
1007.0
1007.0
1007.0
1006.0
1004.0
1002.0
1000.0
1000.0
1002.0
1005.0
1003.0
1002.0
1001.0
1002.0
998.0
995.0
992.0
989.0
990.0
986.0
987.0
988.0
989.0
990.0
985.0
985.0
985.0
983.0
985.0
983.0
984.0
981.0
980.0
982.0
981.0
982.0
982.0
983.0
984.0
981.0
980.0
982.0
979.0
979.0
979.0
981.0
982.0
983.0
983.0
984.0
986.0
987.0
987.0
988.0
984.0
982.0
983.0
986.0
986.0
989.0
990.0
989.0
991.0
989.0
988.0
987.0
986.0
986.0
986.0
987.0
991.0
992.0
990.0
993.0
991.0
989.0
988.0
986.0
984.0
985.0
986.0
987.0
987.0
987.0
985.0
985.0
987.0
985.0
984.0
986.0
982.0
982.0
984.0
981.0
981.0
981.0
982.0
985.0
987.0
986.0
984.0
984.0
981.0
980.0
977.0
978.0
979.0
979.0
977.0
977.0
978.0
980.0
979.0
975.0
976.0
974.0
973.0
976.0
976.0
978.0
978.0
980.0
979.0
978.0
978.0
977.0
976.0
971.0
974.0
977.0
978.0
979.0
980.0
980.0
980.0
976.0
977.0
975.0
976.0
975.0
976.0
979.0
980.0
982.0
980.0
979.0
980.0
978.0
976.0
977.0
974.0
976.0
979.0
978.0
979.0
979.0
979.0
978.0
980.0
978.0
979.0
978.0
976.0
976.0
975.0
974.0
977.0
977.0
980.0
980.0
979.0
981.0
979.0
978.0
978.0
974.0
975.0
975.0
978.0
982.0
982.0
984.0
982.0
981.0
981.0
978.0
976.0
977.0
978.0
980.0
983.0
987.0
987.0
990.0
989.0
993.0
993.0
995.0
995.0
998.0
999.0
1002.0
1006.0
1006.0
1008.0
1010.0
1010.0
1007.0
1004.0
1003.0
1000.0
1001.0
999.0
997.0
995.0
990.0
988.0
989.0
988.0
988.0
987.0
981.0
979.0
972.0
968.0
967.0
970.0
974.0
978.0
982.0
981.0
984.0
984.0
983.0
984.0
982.0
988.0
993.0
997.0
1001.0
1007.0
1011.0
1015.0
1019.0
1021.0
1024.0
1028.0
1034.0
1045.0
1055.0
1068.0
1079.0
1087.0
1093.0
1097.0
1102.0
1106.0
1118.0
1134.0
1157.0
1189.0
1221.0
1255.0
1287.0
1310.0
1322.0
1313.0
1291.0
1250.0
1199.0
1132.0
1055.0
975.0
905.0
855.0
839.0
848.0
871.0
902.0
934.0
958.0
975.0
983.0
982.0
981.0
977.0
973.0
972.0
973.0
972.0
972.0
973.0
974.0
972.0
972.0
971.0
970.0
972.0
974.0
975.0
977.0
979.0
981.0
979.0
978.0
978.0
975.0
974.0
976.0
975.0
976.0
976.0
977.0
978.0
980.0
979.0
978.0
978.0
979.0
980.0
983.0
981.0
983.0
981.0
983.0
983.0
986.0
985.0
983.0
984.0
982.0
982.0
984.0
986.0
989.0
992.0
994.0
994.0
996.0
996.0
995.0
994.0
995.0
997.0
994.0
997.0
1001.0
999.0
999.0
1001.0
1000.0
1000.0
1002.0
1001.0
1002.0
999.0
999.0
1001.0
1000.0
1002.0
1005.0
1007.0
1005.0
1008.0
1004.0
1005.0
1004.0
1001.0
1000.0
1000.0
997.0
997.0
997.0
997.0
995.0
995.0
993.0
990.0
990.0
986.0
984.0
985.0
987.0
985.0
987.0
987.0
985.0
986.0
984.0
983.0
980.0
980.0
979.0
981.0
981.0
983.0
984.0
985.0
985.0
984.0
983.0
979.0
980.0
981.0
980.0
981.0
982.0
982.0
984.0
985.0
984.0
983.0
981.0
982.0
984.0
984.0
982.0
985.0
987.0
988.0
986.0
989.0
988.0
989.0
989.0
989.0
988.0
989.0
986.0
988.0
988.0
988.0
990.0
990.0
989.0
990.0
989.0
987.0
987.0
984.0
984.0
984.0
982.0
985.0
982.0
983.0
986.0
986.0
985.0
982.0
980.0
981.0
979.0
979.0
982.0
982.0
985.0
985.0
985.0
984.0
977.0
977.0
976.0
975.0
975.0
976.0
978.0
979.0
981.0
979.0
980.0
978.0
977.0
977.0
976.0
976.0
975.0
977.0
976.0
978.0
980.0
977.0
979.0
976.0
975.0
975.0
977.0
976.0
977.0
976.0
976.0
979.0
979.0
979.0
978.0
976.0
978.0
980.0
979.0
978.0
977.0
978.0
978.0
974.0
974.0
976.0
980.0
979.0
978.0
977.0
975.0
975.0
972.0
971.0
974.0
976.0
978.0
977.0
978.0
980.0
976.0
975.0
973.0
974.0
971.0
972.0
974.0
978.0
977.0
979.0
981.0
979.0
977.0
973.0
971.0
971.0
971.0
972.0
973.0
977.0
977.0
975.0
978.0
975.0
978.0
976.0
975.0
976.0
976.0
977.0
980.0
982.0
984.0
986.0
987.0
987.0
987.0
989.0
991.0
993.0
995.0
997.0
1000.0
1002.0
1007.0
1008.0
1007.0
1007.0
1007.0
1004.0
1005.0
1001.0
999.0
1001.0
999.0
999.0
997.0
992.0
990.0
989.0
986.0
982.0
982.0
980.0
975.0
969.0
968.0
967.0
968.0
967.0
968.0
971.0
971.0
969.0
969.0
969.0
967.0
964.0
965.0
969.0
971.0
969.0
972.0
973.0
972.0
971.0
971.0
967.0
968.0
969.0
972.0
973.0
977.0
978.0
980.0
979.0
978.0
977.0
977.0
978.0
986.0
999.0
1019.0
1046.0
1077.0
1114.0
1157.0
1200.0
1237.0
1270.0
1288.0
1287.0
1258.0
1207.0
1137.0
1053.0
967.0
882.0
816.0
781.0
776.0
799.0
835.0
880.0
915.0
951.0
972.0
986.0
993.0
993.0
994.0
990.0
989.0
987.0
987.0
987.0
988.0
991.0
994.0
993.0
996.0
996.0
998.0
997.0
997.0
996.0
997.0
999.0
995.0
999.0
997.0
1001.0
1003.0
1004.0
1006.0
1006.0
1008.0
1009.0
1007.0
1010.0
1007.0
1010.0
1014.0
1015.0
1020.0
1023.0
1024.0
1023.0
1027.0
1028.0
1025.0
1028.0
1029.0
1031.0
1035.0
1038.0
1042.0
1044.0
1047.0
1048.0
1051.0
1051.0
1053.0
1054.0
1056.0
1059.0
1059.0
1064.0
1066.0
1069.0
1069.0
1069.0
1070.0
1070.0
1070.0
1072.0
1070.0
1075.0
1075.0
1075.0
1076.0
1077.0
1076.0
1075.0
1075.0
1074.0
1070.0
1070.0
1068.0
1067.0
1065.0
1061.0
1057.0
1054.0
1054.0
1049.0
1046.0
1042.0
1033.0
1028.0
1025.0
1021.0
1018.0
1015.0
1013.0
1009.0
1007.0
1001.0
999.0
996.0
991.0
988.0
985.0
986.0
989.0
986.0
987.0
988.0
987.0
987.0
987.0
986.0
983.0
983.0
981.0
982.0
984.0
987.0
989.0
992.0
992.0
990.0
991.0
988.0
986.0
985.0
984.0
985.0
988.0
989.0
992.0
990.0
989.0
986.0
986.0
984.0
984.0
985.0
985.0
985.0
988.0
988.0
988.0
985.0
985.0
986.0
985.0
985.0
984.0
984.0
984.0
983.0
985.0
981.0
984.0
982.0
982.0
983.0
980.0
981.0
978.0
975.0
976.0
977.0
976.0
976.0
977.0
978.0
980.0
978.0
977.0
977.0
976.0
973.0
969.0
970.0
973.0
972.0
975.0
975.0
975.0
976.0
975.0
973.0
971.0
966.0
968.0
969.0
971.0
972.0
972.0
975.0
976.0
973.0
973.0
971.0
969.0
968.0
967.0
969.0
970.0
970.0
972.0
971.0
973.0
972.0
971.0
970.0
967.0
968.0
969.0
970.0
970.0
969.0
972.0
971.0
970.0
968.0
969.0
971.0
970.0
968.0
970.0
970.0
969.0
969.0
970.0
971.0
970.0
971.0
969.0
972.0
970.0
970.0
970.0
968.0
970.0
972.0
975.0
978.0
980.0
983.0
982.0
983.0
983.0
989.0
989.0
989.0
991.0
994.0
997.0
999.0
998.0
1000.0
997.0
993.0
991.0
991.0
989.0
989.0
988.0
988.0
989.0
987.0
987.0
981.0
981.0
978.0
975.0
972.0
966.0
967.0
964.0
966.0
965.0
963.0
964.0
965.0
964.0
962.0
961.0
963.0
962.0
962.0
965.0
965.0
965.0
961.0
965.0
968.0
966.0
965.0
966.0
964.0
965.0
965.0
969.0
967.0
970.0
973.0
976.0
978.0
979.0
984.0
994.0
1013.0
1037.0
1074.0
1118.0
1165.0
1213.0
1254.0
1283.0
1292.0
1274.0
1229.0
1160.0
1071.0
974.0
880.0
806.0
764.0
761.0
787.0
827.0
875.0
915.0
945.0
965.0
980.0
983.0
984.0
982.0
980.0
980.0
979.0
982.0
984.0
984.0
982.0
983.0
982.0
981.0
983.0
986.0
988.0
989.0
992.0
995.0
997.0
994.0
997.0
995.0
996.0
995.0
996.0
999.0
998.0
1003.0
1004.0
1005.0
1008.0
1007.0
1008.0
1005.0
1006.0
1009.0
1011.0
1015.0
1017.0
1021.0
1027.0
1027.0
1028.0
1030.0
1028.0
1029.0
1030.0
1033.0
1037.0
1043.0
1046.0
1049.0
1054.0
1054.0
1056.0
1056.0
1057.0
1060.0
1063.0
1062.0
1066.0
1068.0
1069.0
1069.0
1074.0
1073.0
1072.0
1071.0
1071.0
1070.0
1071.0
1068.0
1068.0
1067.0
1067.0
1065.0
1064.0
1063.0
1063.0
1060.0
1054.0
1051.0
