# Simple Text Format
# Sampling Rate (Hz):= 360.00
# Resolution:= 12
# Labels:= ECG
997.0
998.0
1000.0
999.0
1000.0
1000.0
999.0
1001.0
1003.0
1000.0
998.0
999.0
1000.0
1000.0
1000.0
999.0
993.0
990.0
987.0
985.0
984.0
982.0
980.0
979.0
981.0
982.0
981.0
980.0
978.0
977.0
974.0
973.0
972.0
971.0
974.0
975.0
976.0
975.0
975.0
975.0
973.0
970.0
970.0
969.0
968.0
970.0
971.0
975.0
974.0
975.0
974.0
974.0
974.0
975.0
972.0
972.0
972.0
973.0
973.0
974.0
975.0
976.0
975.0
978.0
978.0
977.0
978.0
973.0
973.0
972.0
975.0
976.0
977.0
979.0
978.0
976.0
977.0
976.0
974.0
975.0
973.0
972.0
973.0
974.0
977.0
976.0
980.0
978.0
973.0
973.0
972.0
971.0
970.0
971.0
973.0
974.0
975.0
975.0
973.0
973.0
970.0
967.0
967.0
968.0
970.0
970.0
969.0
968.0
971.0
970.0
971.0
968.0
971.0
969.0
969.0
968.0
965.0
966.0
967.0
965.0
967.0
968.0
969.0
970.0
969.0
969.0
967.0
967.0
962.0
963.0
965.0
965.0
967.0
968.0
969.0
970.0
971.0
968.0
966.0
965.0
965.0
965.0
967.0
970.0
971.0
972.0
972.0
971.0
970.0
968.0
965.0
965.0
963.0
967.0
968.0
971.0
970.0
972.0
970.0
969.0
968.0
970.0
970.0
969.0
969.0
971.0
969.0
969.0
974.0
975.0
975.0
977.0
978.0
979.0
983.0
984.0
987.0
986.0
989.0
992.0
994.0
995.0
998.0
1001.0
997.0
996.0
995.0
991.0
988.0
989.0
990.0
987.0
988.0
988.0
985.0
982.0
981.0
978.0
977.0
974.0
972.0
970.0
968.0
967.0
968.0
968.0
968.0
967.0
968.0
969.0
968.0
968.0
969.0
975.0
978.0
983.0
988.0
988.0
993.0
994.0
996.0
1001.0
1004.0
1007.0
1012.0
1018.0
1023.0
1034.0
1042.0
1053.0
1059.0
1067.0
1072.0
1078.0
1083.0
1086.0
1091.0
1101.0
1113.0
1134.0
1161.0
1195.0
1230.0
1271.0
1306.0
1333.0
1349.0
1345.0
1323.0
1282.0
1223.0
1147.0
1056.0
965.0
885.0
835.0
819.0
830.0
854.0
894.0
926.0
950.0
969.0
978.0
978.0
975.0
969.0
966.0
962.0
961.0
961.0
960.0
962.0
964.0
966.0
968.0
971.0
970.0
970.0
968.0
968.0
965.0
966.0
965.0
966.0
970.0
968.0
972.0
972.0
972.0
972.0
972.0
970.0
969.0
969.0
968.0
969.0
970.0
971.0
970.0
972.0
970.0
973.0
972.0
970.0
970.0
970.0
972.0
973.0
972.0
972.0
974.0
976.0
980.0
980.0
982.0
981.0
982.0
980.0
982.0
980.0
982.0
987.0
986.0
988.0
992.0
994.0
994.0
993.0
992.0
992.0
993.0
993.0
994.0
995.0
998.0
998.0
1001.0
1003.0
1003.0
998.0
1000.0
998.0
997.0
1000.0
1001.0
1000.0
1000.0
999.0
1000.0
998.0
996.0
992.0
988.0
987.0
984.0
982.0
984.0
981.0
980.0
980.0
980.0
979.0
976.0
975.0
974.0
975.0
973.0
973.0
970.0
974.0
971.0
973.0
973.0
973.0
973.0
975.0
975.0
974.0
972.0
971.0
974.0
971.0
970.0
971.0
974.0
976.0
975.0
976.0
973.0
975.0
971.0
972.0
972.0
975.0
977.0
978.0
979.0
983.0
982.0
981.0
980.0
977.0
977.0
977.0
977.0
978.0
976.0
980.0
982.0
980.0
981.0
979.0
976.0
976.0
976.0
974.0
975.0
978.0
979.0
979.0
979.0
979.0
978.0
977.0
976.0
975.0
973.0
973.0
975.0
975.0
977.0
977.0
976.0
977.0
975.0
975.0
975.0
974.0
973.0
972.0
970.0
970.0
971.0
972.0
973.0
974.0
975.0
975.0
973.0
971.0
966.0
966.0
966.0
967.0
971.0
973.0
974.0
973.0
973.0
975.0
973.0
967.0
968.0
967.0
969.0
973.0
972.0
975.0
976.0
978.0
974.0
974.0
973.0
970.0
971.0
968.0
970.0
973.0
973.0
976.0
977.0
975.0
974.0
972.0
969.0
968.0
968.0
971.0
971.0
973.0
973.0
975.0
972.0
975.0
975.0
974.0
974.0
973.0
969.0
969.0
971.0
972.0
970.0
972.0
974.0
975.0
976.0
977.0
976.0
973.0
971.0
970.0
971.0
973.0
974.0
980.0
982.0
983.0
986.0
988.0
986.0
988.0
989.0
990.0
991.0
994.0
999.0
1003.0
1005.0
1004.0
1004.0
1000.0
999.0
997.0
995.0
995.0
996.0
993.0
994.0
991.0
988.0
984.0
981.0
980.0
979.0
975.0
976.0
973.0
972.0
969.0
968.0
969.0
967.0
968.0
970.0
970.0
971.0
972.0
975.0
977.0
977.0
981.0
983.0
988.0
991.0
997.0
1000.0
1002.0
1007.0
1009.0
1013.0
1016.0
1020.0
1026.0
1034.0
1043.0
1052.0
1063.0
1074.0
1084.0
1088.0
1092.0
1094.0
1097.0
1108.0
1123.0
1147.0
1182.0
1216.0
1256.0
1293.0
1324.0
1341.0
1344.0
1331.0
1300.0
1251.0
1188.0
1112.0
1025.0
939.0
870.0
833.0
829.0
847.0
880.0
918.0
952.0
973.0
984.0
988.0
984.0
979.0
971.0
968.0
966.0
967.0
968.0
970.0
972.0
972.0
973.0
972.0
972.0
976.0
975.0
975.0
975.0
972.0
971.0
969.0
969.0
968.0
971.0
970.0
972.0
970.0
972.0
971.0
974.0
971.0
972.0
972.0
970.0
970.0
971.0
973.0
974.0
978.0
979.0
979.0
978.0
973.0
974.0
973.0
973.0
973.0
974.0
977.0
979.0
982.0
984.0
984.0
984.0
983.0
984.0
984.0
984.0
986.0
987.0
992.0
993.0
994.0
997.0
994.0
996.0
995.0
995.0
995.0
994.0
995.0
998.0
1000.0
1001.0
1000.0
1002.0
1002.0
1002.0
1003.0
1003.0
1003.0
1005.0
1004.0
1005.0
1004.0
1003.0
1002.0
1000.0
1000.0
1000.0
998.0
995.0
992.0
990.0
989.0
987.0
986.0
987.0
987.0
988.0
985.0
987.0
982.0
980.0
980.0
978.0
974.0
976.0
977.0
978.0
978.0
981.0
980.0
979.0
979.0
976.0
976.0
975.0
974.0
976.0
978.0
979.0
981.0
980.0
980.0
980.0
979.0
978.0
976.0
976.0
974.0
977.0
980.0
979.0
981.0
981.0
977.0
977.0
975.0
978.0
978.0
977.0
975.0
977.0
980.0
979.0
981.0
981.0
979.0
981.0
979.0
978.0
979.0
977.0
977.0
976.0
976.0
978.0
979.0
979.0
979.0
979.0
979.0
977.0
976.0
975.0
973.0
973.0
974.0
971.0
976.0
979.0
978.0
975.0
975.0
971.0
968.0
971.0
970.0
971.0
972.0
974.0
975.0
976.0
976.0
974.0
973.0
971.0
968.0
969.0
970.0
971.0
971.0
972.0
972.0
971.0
972.0
969.0
972.0
971.0
972.0
972.0
970.0
972.0
973.0
973.0
975.0
973.0
974.0
973.0
972.0
974.0
972.0
971.0
971.0
968.0
969.0
968.0
970.0
971.0
973.0
972.0
972.0
970.0
969.0
966.0
967.0
968.0
970.0
970.0
972.0
973.0
970.0
972.0
973.0
971.0
969.0
969.0
970.0
970.0
972.0
973.0
976.0
974.0
975.0
974.0
974.0
972.0
972.0
972.0
973.0
976.0
979.0
981.0
982.0
984.0
984.0
986.0
989.0
991.0
993.0
995.0
996.0
998.0
1000.0
1000.0
1000.0
1000.0
998.0
998.0
997.0
996.0
992.0
988.0
983.0
983.0
980.0
981.0
982.0
981.0
982.0
978.0
975.0
970.0
968.0
966.0
967.0
967.0
972.0
974.0
979.0
982.0
982.0
985.0
983.0
983.0
985.0
987.0
989.0
995.0
1001.0
1008.0
1013.0
1018.0
1023.0
1024.0
1031.0
1034.0
1045.0
1052.0
1062.0
1072.0
1086.0
1093.0
1098.0
1102.0
1106.0
1112.0
1126.0
1145.0
1173.0
1208.0
1243.0
1283.0
1320.0
1340.0
1345.0
1329.0
1294.0
1238.0
1165.0
1071.0
978.0
892.0
836.0
816.0
829.0
861.0
901.0
939.0
967.0
984.0
990.0
987.0
979.0
972.0
965.0
966.0
967.0
971.0
976.0
977.0
977.0
978.0
975.0
974.0
974.0
972.0
974.0
977.0
978.0
979.0
981.0
979.0
981.0
979.0
978.0
975.0
977.0
975.0
977.0
979.0
977.0
979.0
977.0
976.0
976.0
976.0
977.0
978.0
978.0
978.0
976.0
977.0
977.0
978.0
981.0
982.0
982.0
985.0
985.0
982.0
981.0
981.0
981.0
984.0
985.0
987.0
988.0
990.0
992.0
993.0
992.0
990.0
989.0
987.0
988.0
992.0
993.0
997.0
998.0
997.0
1001.0
998.0
998.0
995.0
995.0
996.0
995.0
995.0
999.0
1001.0
1003.0
1004.0
1003.0
1000.0
998.0
995.0
993.0
992.0
988.0
990.0
990.0
990.0
990.0
987.0
986.0
983.0
979.0
979.0
977.0
976.0
972.0
975.0
973.0
974.0
973.0
974.0
975.0
975.0
974.0
974.0
974.0
972.0
972.0
973.0
974.0
974.0
975.0
978.0
977.0
976.0
976.0
975.0
974.0
973.0
972.0
974.0
976.0
975.0
977.0
980.0
979.0
977.0
977.0
975.0
974.0
972.0
972.0
976.0
977.0
979.0
984.0
984.0
984.0
980.0
980.0
977.0
980.0
979.0
980.0
980.0
981.0
981.0
982.0
982.0
981.0
978.0
980.0
979.0
976.0
977.0
974.0
975.0
974.0
978.0
978.0
979.0
979.0
981.0
980.0
976.0
974.0
973.0
971.0
973.0
973.0
973.0
978.0
978.0
980.0
978.0
977.0
974.0
972.0
970.0
970.0
969.0
971.0
972.0
977.0
974.0
975.0
974.0
971.0
970.0
970.0
969.0
969.0
970.0
970.0
972.0
973.0
971.0
973.0
970.0
970.0
969.0
970.0
967.0
969.0
969.0
970.0
970.0
969.0
970.0
973.0
968.0
970.0
970.0
969.0
968.0
966.0
965.0
966.0
967.0
967.0
968.0
968.0
969.0
972.0
971.0
968.0
967.0
966.0
968.0
968.0
969.0
970.0
972.0
974.0
978.0
979.0
980.0
980.0
981.0
982.0
985.0
986.0
989.0
992.0
994.0
997.0
1000.0
997.0
995.0
992.0
991.0
993.0
993.0
995.0
992.0
990.0
985.0
983.0
979.0
977.0
977.0
975.0
975.0
970.0
969.0
969.0
967.0
966.0
965.0
966.0
968.0
967.0
968.0
965.0
963.0
964.0
964.0
965.0
965.0
968.0
968.0
970.0
970.0
970.0
970.0
967.0
964.0
966.0
967.0
967.0
971.0
974.0
976.0
977.0
977.0
977.0
978.0
979.0
986.0
998.0
1018.0
1045.0
1082.0
1126.0
1173.0
1219.0
1261.0
1290.0
1300.0
1285.0
1248.0
1180.0
1097.0
1001.0
904.0
821.0
770.0
762.0
784.0
829.0
884.0
930.0
966.0
988.0
998.0
999.0
996.0
992.0
986.0
986.0
986.0
988.0
988.0
987.0
989.0
990.0
992.0
992.0
994.0
997.0
1001.0
1003.0
1001.0
1000.0
997.0
998.0
998.0
998.0
1001.0
1006.0
1007.0
1011.0
1013.0
1012.0
1011.0
1012.0
1012.0
1013.0
1014.0
1014.0
1017.0
1021.0
1021.0
1025.0
1026.0
1029.0
1030.0
1033.0
1033.0
1035.0
1037.0
1035.0
1039.0
1044.0
1047.0
1047.0
1051.0
1053.0
1056.0
1057.0
1061.0
1059.0
1057.0
1059.0
1061.0
1061.0
1066.0
1067.0
1067.0
1070.0
1070.0
1069.0
1067.0
1064.0
1061.0
1061.0
1062.0
1062.0
1063.0
1062.0
1063.0
1061.0
1058.0
1053.0
1049.0
1043.0
1043.0
1037.0
1034.0
1032.0
1028.0
1025.0
1021.0
1016.0
1011.0
1006.0
1003.0
1001.0
998.0
993.0
991.0
990.0
986.0
987.0
986.0
985.0
985.0
982.0
979.0
981.0
980.0
977.0
979.0
980.0
982.0
983.0
983.0
985.0
985.0
984.0
980.0
983.0
983.0
982.0
981.0
985.0
987.0
990.0
990.0
991.0
986.0
986.0
984.0
984.0
983.0
981.0
984.0
986.0
986.0
987.0
987.0
986.0
985.0
981.0
984.0
982.0
982.0
981.0
981.0
983.0
979.0
981.0
980.0
980.0
981.0
979.0
977.0
975.0
974.0
972.0
976.0
977.0
976.0
976.0
976.0
978.0
976.0
978.0
976.0
974.0
975.0
970.0
970.0
970.0
969.0
971.0
973.0
977.0
975.0
973.0
970.0
970.0
968.0
967.0
968.0
969.0
968.0
968.0
968.0
970.0
969.0
965.0
966.0
966.0
965.0
963.0
964.0
968.0
968.0
970.0
969.0
967.0
966.0
967.0
965.0
963.0
962.0
963.0
965.0
962.0
966.0
965.0
966.0
965.0
966.0
963.0
963.0
964.0
965.0
964.0
963.0
962.0
964.0
965.0
966.0
968.0
966.0
967.0
967.0
965.0
965.0
963.0
965.0
965.0
966.0
968.0
973.0
979.0
980.0
979.0
981.0
980.0
981.0
981.0
982.0
988.0
993.0
996.0
998.0
996.0
997.0
994.0
992.0
987.0
987.0
986.0
984.0
985.0
984.0
981.0
976.0
974.0
972.0
971.0
967.0
962.0
960.0
957.0
957.0
959.0
959.0
958.0
960.0
959.0
960.0
959.0
957.0
956.0
957.0
955.0
955.0
956.0
956.0
958.0
959.0
961.0
962.0
960.0
961.0
961.0
960.0
961.0
960.0
959.0
959.0
963.0
963.0
969.0
969.0
968.0
972.0
978.0
992.0
1010.0
1039.0
1073.0
1113.0
1161.0
1211.0
1255.0
1286.0
1297.0
1278.0
1230.0
1158.0
1067.0
968.0
872.0
801.0
767.0
770.0
800.0
843.0
884.0
919.0
949.0
967.0
982.0
984.0
982.0
984.0
981.0
979.0
978.0
980.0
981.0
982.0
982.0
983.0
983.0
986.0
987.0
986.0
989.0
991.0
994.0
995.0
994.0
996.0
994.0
995.0
994.0
996.0
995.0
1000.0
1003.0
1005.0
1007.0
1008.0
1010.0
1007.0
1003.0
1006.0
1007.0
1011.0
1015.0
1019.0
1020.0
1023.0
1026.0
1029.0
1026.0
1029.0
1028.0
1028.0
1030.0
1034.0
1039.0
1041.0
1044.0
1046.0
1052.0
1054.0
1054.0
1054.0
1056.0
1059.0
1062.0
1066.0
1066.0
1069.0
1071.0
1073.0
1071.0
1073.0
1071.0
1070.0
1069.0
1070.0
1069.0
1068.0
1067.0
1067.0
1068.0
1066.0
1066.0
1063.0
1061.0
1060.0
1055.0
1050.0
1045.0
1037.0
1035.0
1031.0
1028.0
1023.0
1023.0
1018.0
1011.0
1004.0
998.0
991.0
987.0
987.0
987.0
985.0
984.0
982.0
979.0
975.0
976.0
971.0
971.0
969.0
972.0
973.0
972.0
971.0
977.0
977.0
979.0
978.0
976.0
977.0
976.0
976.0
976.0
976.0
974.0
977.0
978.0
978.0
979.0
981.0
980.0
980.0
978.0
978.0
978.0
978.0
978.0
979.0
978.0
979.0
979.0
977.0
978.0
976.0
978.0
977.0
974.0
973.0
970.0
974.0
975.0
977.0
977.0
977.0
976.0
974.0
972.0
969.0
969.0
968.0
971.0
974.0
973.0
974.0
973.0
974.0
973.0
969.0
966.0
967.0
968.0
966.0
969.0
970.0
972.0
973.0
969.0
969.0
968.0
967.0
966.0
962.0
963.0
965.0
967.0
966.0
968.0
969.0
969.0
968.0
964.0
966.0
964.0
966.0
963.0
965.0
965.0
965.0
966.0
967.0
966.0
964.0
964.0
966.0
966.0
964.0
963.0
962.0
963.0
964.0
965.0
967.0
967.0
967.0
967.0
967.0
965.0
967.0
967.0
968.0
970.0
972.0
974.0
976.0
980.0
982.0
983.0
984.0
984.0
984.0
985.0
988.0
991.0
992.0
993.0
995.0
994.0
993.0
990.0
988.0
985.0
984.0
983.0
980.0
978.0
978.0
977.0
976.0
975.0
972.0
969.0
966.0
964.0
959.0
956.0
956.0
957.0
957.0
962.0
962.0
961.0
961.0
961.0
958.0
957.0
957.0
956.0
959.0
959.0
960.0
960.0
962.0
963.0
961.0
962.0
962.0
964.0
962.0
963.0
965.0
965.0
965.0
967.0
969.0
969.0
973.0
973.0
974.0
977.0
984.0
996.0
1011.0
1039.0
1074.0
1115.0
1164.0
1210.0
1254.0
1286.0
1300.0
1290.0
1251.0
1183.0
1095.0
993.0
896.0
813.0
764.0
757.0
778.0
821.0
867.0
911.0
945.0
968.0
981.0
989.0
990.0
988.0
988.0
984.0
982.0
982.0
984.0
984.0
984.0
986.0
985.0
989.0
991.0
992.0
993.0
993.0
994.0
995.0
995.0
995.0
996.0
998.0
999.0
1001.0
1002.0
1002.0
1005.0
1006.0
1007.0
1010.0
1011.0
1010.0
1012.0
1013.0
1012.0
1016.0
1016.0
1020.0
1025.0
1027.0
1029.0
1031.0
1031.0
1032.0
1033.0
1034.0
1037.0
1040.0
1044.0
1048.0
1050.0
1053.0
1055.0
1056.0
1059.0
1059.0
1061.0
1062.0
1067.0
1070.0
1072.0
1071.0
1075.0
1074.0
1074.0
1074.0
1074.0
1072.0
1073.0
1069.0
1071.0
1070.0
1069.0
1069.0
1067.0
1068.0
1064.0
1061.0
1059.0
1055.0
1047.0
1043.0
1037.0
1033.0
1029.0
1024.0
1021.0
1018.0
1014.0
1009.0
1003.0
999.0
994.0
990.0
989.0
988.0
988.0
987.0
988.0
985.0
984.0
981.0
980.0
978.0
976.0
976.0
975.0
978.0
978.0
980.0
983.0
981.0
979.0
981.0
979.0
980.0
979.0
979.0
981.0
985.0
983.0
985.0
986.0
988.0
988.0
989.0
986.0
986.0
984.0
985.0
985.0
985.0
987.0
989.0
990.0
991.0
992.0
990.0
989.0
987.0
986.0
985.0
984.0
986.0
986.0
985.0
988.0
986.0
985.0
984.0
982.0
979.0
979.0
979.0
980.0
981.0
984.0
983.0
983.0
984.0
983.0
980.0
978.0
977.0
977.0
978.0
978.0
978.0
978.0
977.0
978.0
979.0
979.0
979.0
978.0
977.0
977.0
975.0
975.0
975.0
977.0
977.0
978.0
978.0
981.0
980.0
978.0
977.0
974.0
972.0
971.0
972.0
975.0
977.0
977.0
979.0
979.0
979.0
976.0
978.0
976.0
976.0
976.0
978.0
981.0
982.0
983.0
990.0
992.0
992.0
993.0
994.0
995.0
997.0
998.0
1001.0
1003.0
1006.0
1005.0
1007.0
1005.0
1004.0
1002.0
1000.0
999.0
996.0
993.0
997.0
993.0
991.0
990.0
990.0
987.0
987.0
984.0
984.0
982.0
976.0
974.0
971.0
971.0
972.0
976.0
977.0
981.0
983.0
982.0
984.0
985.0
983.0
985.0
990.0
994.0
999.0
1004.0
1008.0
1011.0
1017.0
1020.0
1021.0
1025.0
1031.0
1038.0
1046.0
1058.0
1070.0
1080.0
1085.0
1093.0
1095.0
1098.0
1102.0
1106.0
1121.0
1139.0
1169.0
1206.0
1245.0
1285.0
1322.0
1350.0
1367.0
1367.0
1343.0
1301.0
1235.0
1156.0
1068.0
984.0
905.0
849.0
827.0
837.0
859.0
894.0
925.0
950.0
969.0
977.0
983.0
981.0
976.0
974.0
974.0
972.0
971.0
972.0
972.0
972.0
973.0
973.0
974.0
975.0
976.0
978.0
979.0
981.0
980.0
980.0
978.0
978.0
976.0
975.0
976.0
978.0
979.0
982.0
982.0
983.0
983.0
980.0
975.0
973.0
974.0
976.0
978.0
979.0
981.0
984.0
982.0
982.0
983.0
983.0
981.0
979.0
977.0
980.0
981.0
983.0
985.0
986.0
986.0
985.0
984.0
985.0
987.0
985.0
987.0
989.0
991.0
992.0
993.0
995.0
996.0
994.0
992.0
993.0
997.0
997.0
998.0
997.0
1000.0
1001.0
1002.0
1004.0
1004.0
1006.0
1008.0
1008.0
1007.0
1008.0
1005.0
1006.0
1004.0
1005.0
1004.0
1007.0
1005.0
1006.0
1002.0
1002.0
997.0
992.0
991.0
988.0
985.0
986.0
986.0
987.0
988.0
987.0
986.0
986.0
984.0
982.0
980.0
979.0
980.0
981.0
985.0
985.0
986.0
986.0
983.0
982.0
979.0
979.0
979.0
980.0
981.0
983.0
982.0
985.0
987.0
986.0
984.0
984.0
984.0
985.0
984.0
983.0
986.0
986.0
988.0
990.0
986.0
987.0
989.0
989.0
988.0
987.0
985.0
986.0
987.0
989.0
989.0
990.0
988.0
989.0
988.0
988.0
988.0
986.0
984.0
981.0
985.0
986.0
986.0
989.0
991.0
992.0
990.0
987.0
986.0
984.0
979.0
979.0
981.0
982.0
982.0
984.0
986.0
985.0
984.0
983.0
981.0
980.0
978.0
980.0
983.0
983.0
983.0
982.0
984.0
981.0
979.0
979.0
978.0
979.0
981.0
978.0
980.0
978.0
981.0
982.0
982.0
982.0
985.0
983.0
982.0
979.0
982.0
978.0
979.0
979.0
982.0
983.0
982.0
984.0
984.0
982.0
986.0
985.0
984.0
985.0
991.0
991.0
997.0
1001.0
1004.0
1004.0
1005.0
1006.0
1005.0
1005.0
1004.0
1004.0
1004.0
1005.0
1006.0
1003.0
1002.0
1002.0
998.0
996.0
995.0
991.0
989.0
985.0
988.0
988.0
987.0
988.0
985.0
984.0
980.0
974.0
973.0
972.0
972.0
973.0
975.0
978.0
982.0
985.0
988.0
991.0
992.0
995.0
996.0
998.0
1001.0
1005.0
1009.0
1012.0
1017.0
1022.0
1028.0
1036.0
1043.0
1048.0
1055.0
1065.0
1073.0
1082.0
1089.0
1095.0
1102.0
1108.0
1113.0
1125.0
1140.0
1166.0
1195.0
1232.0
1272.0
1309.0
1348.0
1370.0
1384.0
1376.0
1346.0
1290.0
1211.0
1118.0
1023.0
938.0
876.0
843.0
838.0
855.0
881.0
910.0
934.0
956.0
969.0
976.0
980.0
979.0
978.0
974.0
972.0
974.0
974.0
977.0
978.0
978.0
980.0
980.0
981.0
982.0
980.0
978.0
979.0
981.0
979.0
980.0
982.0
981.0
984.0
982.0
982.0
981.0
980.0
977.0
979.0
978.0
980.0
982.0
987.0
985.0
984.0
985.0
983.0
980.0
981.0
982.0
982.0
983.0
986.0
988.0
988.0
988.0
988.0
985.0
986.0
984.0
986.0
987.0
989.0
993.0
994.0
996.0
995.0
998.0
997.0
996.0
994.0
993.0
994.0
995.0
995.0
998.0
1002.0
1004.0
1004.0
1003.0
1005.0
1006.0
1007.0
1006.0
1011.0
1011.0
1012.0
1012.0
1015.0
1015.0
1015.0
1016.0
1016.0
1015.0
1014.0
1012.0
1009.0
1008.0
1007.0
1003.0
1002.0
1002.0
1003.0
1002.0
1002.0
999.0
996.0
995.0
990.0
988.0
990.0
989.0
991.0
992.0
991.0
993.0
992.0
991.0
990.0
989.0
987.0
986.0
988.0
987.0
991.0
992.0
990.0
993.0
992.0
991.0
989.0
988.0
986.0
985.0
988.0
990.0
992.0
994.0
995.0
997.0
996.0
994.0
992.0
993.0
992.0
990.0
994.0
996.0
998.0
1000.0
1000.0
999.0
997.0
994.0
993.0
995.0
994.0
996.0
998.0
998.0
999.0
999.0
998.0
998.0
997.0
998.0
998.0
996.0
996.0
997.0
995.0
995.0
997.0
997.0
996.0
997.0
997.0
994.0
995.0
991.0
992.0
990.0
990.0
990.0
993.0
993.0
994.0
997.0
997.0
996.0
995.0
993.0
991.0
992.0
989.0
989.0
991.0
995.0
995.0
995.0
995.0
991.0
987.0
987.0
988.0
986.0
986.0
989.0
992.0
992.0
994.0
994.0
987.0
987.0
986.0
985.0
984.0
982.0
983.0
987.0
988.0
991.0
991.0
990.0
990.0
987.0
987.0
987.0
985.0
987.0
990.0
990.0
988.0
989.0
994.0
994.0
994.0
992.0
993.0
993.0
994.0
997.0
997.0
1000.0
1000.0
1004.0
1006.0
1006.0
1008.0
1010.0
1012.0
1014.0
1015.0
1014.0
1015.0
1015.0
1017.0
1016.0
1019.0
1016.0
1015.0
1016.0
1011.0
1005.0
1002.0
999.0
997.0
996.0
996.0
1000.0
998.0
994.0
991.0
985.0
983.0
983.0
981.0
983.0
986.0
990.0
991.0
994.0
997.0
999.0
1001.0
1001.0
1003.0
1006.0
1011.0
1014.0
1018.0
1023.0
1028.0
1034.0
1039.0
1046.0
1054.0
1060.0
1071.0
1080.0
1088.0
1094.0
1100.0
1103.0
1110.0
1116.0
1126.0
1141.0
1164.0
1193.0
1228.0
1268.0
1307.0
1341.0
1368.0
1381.0
1370.0
1344.0
1290.0
1217.0
1124.0
1026.0
932.0
862.0
828.0
827.0
848.0
886.0
926.0
958.0
980.0
992.0
995.0
991.0
983.0
979.0
977.0
974.0
976.0
979.0
984.0
983.0
984.0
986.0
985.0
982.0
985.0
982.0
983.0
982.0
983.0
984.0
984.0
987.0
984.0
986.0
986.0
986.0
986.0
985.0
985.0
981.0
982.0
985.0
984.0
988.0
988.0
988.0
989.0
986.0
985.0
983.0
985.0
982.0
985.0
986.0
989.0
992.0
993.0
990.0
993.0
992.0
992.0
993.0
993.0
995.0
996.0
999.0
1002.0
1003.0
1004.0
1007.0
1008.0
1007.0
1005.0
1007.0
1008.0
1007.0
1009.0
1010.0
1012.0
1016.0
1014.0
1015.0
1018.0
1019.0
1016.0
1015.0
1016.0
1016.0
1016.0
1016.0
1016.0
1015.0
1015.0
1016.0
1013.0
1010.0
1010.0
1006.0
1003.0
1000.0
997.0
999.0
1002.0
1001.0
1001.0
1000.0
1000.0
997.0
996.0
993.0
992.0
990.0
991.0
993.0
992.0
997.0
995.0
995.0
994.0
992.0
991.0
989.0
989.0
989.0
988.0
990.0
989.0
989.0
993.0
995.0
994.0
993.0
991.0
992.0
993.0
992.0
995.0
994.0
994.0
996.0
995.0
997.0
999.0
999.0
996.0
995.0
996.0
995.0
996.0
995.0
997.0
997.0
997.0
1000.0
999.0
998.0
998.0
996.0
996.0
994.0
997.0
996.0
997.0
998.0
1000.0
999.0
999.0
997.0
995.0
993.0
992.0
991.0
993.0
994.0
994.0
994.0
996.0
994.0
992.0
991.0
988.0
987.0
985.0
985.0
986.0
987.0
989.0
990.0
991.0
990.0
988.0
985.0
987.0
984.0
983.0
984.0
984.0
987.0
987.0
988.0
988.0
988.0
986.0
987.0
986.0
985.0
984.0
984.0
985.0
982.0
984.0
987.0
986.0
987.0
987.0
986.0
984.0
984.0
983.0
981.0
984.0
984.0
984.0
986.0
988.0
991.0
988.0
988.0
986.0
984.0
983.0
982.0
984.0
984.0
984.0
985.0
987.0
988.0
987.0
988.0
986.0
986.0
985.0
986.0
988.0
989.0
991.0
994.0
995.0
997.0
999.0
998.0
998.0
997.0
999.0
1001.0
1007.0
1009.0
1011.0
1014.0
1015.0
1014.0
1014.0
1013.0
1013.0
1010.0
1010.0
1008.0
1008.0
1008.0
1006.0
1004.0
1001.0
999.0
998.0
995.0
992.0
992.0
992.0
989.0
988.0
986.0
985.0
983.0
985.0
987.0
987.0
990.0
992.0
993.0
994.0
994.0
996.0
999.0
1005.0
1011.0
1016.0
1021.0
1023.0
1025.0
1028.0
1030.0
1035.0
1038.0
1045.0
1055.0
1065.0
1075.0
1085.0
1097.0
1105.0
1108.0
1113.0
1117.0
1123.0
1128.0
1142.0
1159.0
1182.0
1210.0
1239.0
1269.0
1300.0
1323.0
1334.0
1332.0
1313.0
1282.0
1236.0
1175.0
1107.0
1035.0
971.0
924.0
897.0
893.0
904.0
924.0
945.0
967.0
983.0
991.0
998.0
994.0
994.0
992.0
990.0
989.0
988.0
990.0
989.0
989.0
990.0
991.0
991.0
993.0
994.0
995.0
994.0
990.0
991.0
991.0
990.0
989.0
992.0
993.0
994.0
996.0
996.0
996.0
997.0
995.0
992.0
993.0
992.0
991.0
992.0
992.0
994.0
994.0
996.0
997.0
995.0
996.0
994.0
994.0
996.0
996.0
997.0
1000.0
1000.0
1002.0
1002.0
1003.0
1004.0
1009.0
1007.0
1006.0
1006.0
1006.0
1007.0
1007.0
1014.0
1012.0
1015.0
1016.0
1017.0
1018.0
1018.0
1016.0
1016.0
1015.0
1014.0
1018.0
1022.0
1024.0
1025.0
1027.0
1027.0
1025.0
1023.0
1022.0
1018.0
1016.0
1016.0
1018.0
1015.0
1015.0
1014.0
1011.0
1010.0
1008.0
1004.0
1002.0
1000.0
999.0
998.0
997.0
1001.0
999.0
999.0
999.0
998.0
998.0
996.0
994.0
993.0
993.0
993.0
995.0
994.0
996.0
995.0
997.0
997.0
994.0
997.0
995.0
995.0
992.0
994.0
997.0
997.0
999.0
1001.0
1001.0
1001.0
1000.0
999.0
997.0
997.0
996.0
996.0
997.0
995.0
996.0
1000.0
1002.0
1003.0
1001.0
999.0
996.0
995.0
995.0
997.0
998.0
1000.0
1001.0
1001.0
1002.0
1002.0
1001.0
997.0
995.0
995.0
995.0
997.0
995.0
997.0
1001.0
1001.0
1001.0
1001.0
999.0
998.0
995.0
994.0
992.0
997.0
997.0
997.0
998.0
997.0
996.0
996.0
994.0
997.0
996.0
995.0
992.0
994.0
993.0
995.0
995.0
996.0
997.0
996.0
995.0
995.0
989.0
988.0
987.0
987.0
988.0
989.0
994.0
994.0
995.0
996.0
995.0
993.0
989.0
990.0
989.0
990.0
991.0
992.0
994.0
995.0
994.0
995.0
994.0
992.0
992.0
990.0
990.0
993.0
992.0
994.0
994.0
994.0
994.0
992.0
993.0
992.0
993.0
993.0
993.0
992.0
992.0
992.0
993.0
994.0
995.0
994.0
995.0
995.0
994.0
993.0
992.0
990.0
989.0
990.0
994.0
995.0
997.0
993.0
995.0
995.0
995.0
994.0
995.0
999.0
1000.0
1005.0
1008.0
1012.0
1012.0
1015.0
1016.0
1017.0
1018.0
1017.0
1019.0
1019.0
1021.0
1022.0
1023.0
1023.0
1022.0
1022.0
1020.0
1015.0
1011.0
1007.0
1003.0
1004.0
1003.0
1004.0
1003.0
1001.0
1001.0
996.0
995.0
991.0
987.0
987.0
985.0
988.0
990.0
992.0
995.0
997.0
1000.0
1002.0
1004.0
1005.0
1009.0
1010.0
1013.0
1015.0
1020.0
1023.0
1027.0
1035.0
1038.0
1044.0
1052.0
1060.0
1067.0
1074.0
1083.0
1092.0
1102.0
1109.0
1115.0
1120.0
1122.0
1128.0
1143.0
1159.0
1184.0
1216.0
1251.0
1291.0
1326.0
1353.0
1373.0
1368.0
1341.0
1292.0
1221.0
1136.0
1039.0
948.0
877.0
841.0
838.0
858.0
893.0
930.0
960.0
983.0
997.0
1001.0
999.0
996.0
992.0
987.0
987.0
984.0
988.0
991.0
992.0
993.0
991.0
993.0
991.0
992.0
991.0
993.0
992.0
994.0
993.0
997.0
998.0
998.0
997.0
999.0
996.0
996.0
992.0
993.0
993.0
995.0
995.0
997.0
996.0
996.0
996.0
995.0
994.0
992.0
991.0
991.0
992.0
994.0
996.0
998.0
1000.0
999.0
997.0
996.0
996.0
993.0
993.0
994.0
1000.0
1002.0
1005.0
1007.0
1008.0
1008.0
1006.0
1007.0
1007.0
1009.0
1008.0
1010.0
1011.0
1014.0
1014.0
1017.0
1013.0
1014.0
1015.0
1015.0
1014.0
1016.0
1017.0
1015.0
