# Simple Text Format
# Sampling Rate (Hz):= 360.00
# Resolution:= 12
# Labels:= ECG
975.0
974.0
976.0
977.0
981.0
981.0
985.0
986.0
989.0
986.0
986.0
987.0
987.0
990.0
990.0
990.0
993.0
995.0
995.0
996.0
998.0
997.0
1000.0
1000.0
997.0
999.0
999.0
999.0
1000.0
1003.0
1005.0
1007.0
1009.0
1010.0
1009.0
1008.0
1004.0
1002.0
999.0
997.0
996.0
994.0
994.0
994.0
992.0
992.0
990.0
988.0
986.0
981.0
981.0
979.0
978.0
982.0
983.0
983.0
983.0
985.0
979.0
980.0
977.0
977.0
977.0
979.0
980.0
983.0
982.0
985.0
984.0
984.0
983.0
982.0
982.0
981.0
982.0
982.0
983.0
984.0
983.0
989.0
989.0
989.0
989.0
986.0
985.0
984.0
984.0
983.0
986.0
984.0
986.0
989.0
988.0
989.0
989.0
988.0
986.0
986.0
986.0
986.0
986.0
989.0
986.0
989.0
986.0
990.0
986.0
984.0
984.0
984.0
980.0
982.0
984.0
984.0
987.0
988.0
986.0
987.0
986.0
985.0
983.0
982.0
981.0
982.0
982.0
986.0
985.0
986.0
984.0
986.0
983.0
982.0
980.0
980.0
979.0
979.0
981.0
982.0
984.0
986.0
986.0
986.0
986.0
984.0
982.0
980.0
982.0
979.0
980.0
982.0
981.0
981.0
982.0
982.0
982.0
981.0
981.0
979.0
976.0
977.0
978.0
978.0
979.0
981.0
982.0
982.0
981.0
979.0
980.0
977.0
975.0
975.0
976.0
975.0
976.0
976.0
977.0
979.0
978.0
976.0
976.0
975.0
976.0
977.0
977.0
980.0
981.0
984.0
983.0
983.0
984.0
986.0
987.0
990.0
991.0
993.0
997.0
996.0
998.0
999.0
1001.0
1004.0
1007.0
1004.0
1009.0
1010.0
1010.0
1008.0
1008.0
1007.0
1007.0
1008.0
1008.0
1006.0
1003.0
1001.0
997.0
992.0
993.0
991.0
992.0
989.0
989.0
988.0
985.0
983.0
981.0
981.0
978.0
979.0
981.0
985.0
987.0
991.0
996.0
999.0
999.0
1001.0
1004.0
1006.0
1009.0
1014.0
1019.0
1024.0
1030.0
1036.0
1042.0
1050.0
1057.0
1064.0
1071.0
1080.0
1088.0
1094.0
1098.0
1101.0
1108.0
1119.0
1133.0
1155.0
1186.0
1222.0
1268.0
1311.0
1355.0
1388.0
1406.0
1407.0
1387.0
1344.0
1277.0
1195.0
1098.0
999.0
915.0
853.0
826.0
830.0
857.0
891.0
924.0
955.0
975.0
986.0
993.0
993.0
988.0
984.0
979.0
975.0
974.0
976.0
977.0
981.0
983.0
986.0
988.0
987.0
988.0
985.0
983.0
982.0
985.0
986.0
984.0
985.0
985.0
986.0
988.0
988.0
985.0
985.0
985.0
986.0
986.0
985.0
987.0
987.0
991.0
992.0
990.0
990.0
990.0
990.0
989.0
986.0
989.0
987.0
989.0
990.0
992.0
993.0
994.0
995.0
996.0
995.0
995.0
998.0
999.0
1000.0
1001.0
1004.0
1005.0
1009.0
1013.0
1014.0
1014.0
1012.0
1011.0
1011.0
1012.0
1010.0
1013.0
1014.0
1015.0
1018.0
1023.0
1027.0
1027.0
1027.0
1026.0
1024.0
1024.0
1023.0
1026.0
1028.0
1027.0
1026.0
1024.0
1023.0
1017.0
1014.0
1011.0
1009.0
1008.0
1007.0
1005.0
1007.0
1007.0
1007.0
1005.0
1004.0
1002.0
1002.0
1000.0
1001.0
999.0
1001.0
1000.0
997.0
999.0
1003.0
1002.0
1003.0
1004.0
1003.0
1001.0
1000.0
1000.0
998.0
1000.0
1000.0
1002.0
1004.0
1009.0
1009.0
1008.0
1010.0
1009.0
1007.0
1004.0
1004.0
1004.0
1005.0
1009.0
1011.0
1014.0
1014.0
1012.0
1012.0
1011.0
1009.0
1008.0
1005.0
1006.0
1010.0
1011.0
1011.0
1013.0
1013.0
1013.0
1011.0
1009.0
1007.0
1007.0
1008.0
1009.0
1009.0
1008.0
1009.0
1006.0
1011.0
1009.0
1006.0
1004.0
1005.0
1006.0
1003.0
1005.0
1005.0
1004.0
1005.0
1007.0
1005.0
1006.0
1004.0
1001.0
999.0
998.0
996.0
996.0
997.0
1000.0
1002.0
1002.0
1003.0
1003.0
1003.0
999.0
1001.0
1000.0
1000.0
1001.0
1002.0
1004.0
1007.0
1007.0
1008.0
1006.0
1002.0
1000.0
1000.0
1000.0
1001.0
1004.0
1005.0
1005.0
1006.0
1004.0
1007.0
1006.0
1006.0
1004.0
1003.0
1000.0
996.0
999.0
998.0
1001.0
1002.0
1002.0
1002.0
1003.0
1003.0
1001.0
1001.0
1003.0
1001.0
1000.0
1002.0
1002.0
1002.0
1005.0
1005.0
1005.0
1006.0
1005.0
1003.0
1002.0
1002.0
1001.0
1006.0
1007.0
1013.0
1015.0
1018.0
1018.0
1022.0
1021.0
1019.0
1020.0
1021.0
1023.0
1026.0
1028.0
1034.0
1035.0
1036.0
1031.0
1031.0
1027.0
1023.0
1021.0
1021.0
1020.0
1020.0
1020.0
1017.0
1014.0
1015.0
1011.0
1008.0
1005.0
1002.0
1004.0
1000.0
998.0
996.0
996.0
997.0
998.0
997.0
1001.0
1002.0
1001.0
1002.0
1007.0
1007.0
1008.0
1010.0
1012.0
1017.0
1019.0
1025.0
1031.0
1035.0
1039.0
1038.0
1043.0
1047.0
1055.0
1065.0
1075.0
1087.0
1096.0
1106.0
1113.0
1115.0
1122.0
1130.0
1143.0
1166.0
1194.0
1229.0
1270.0
1315.0
1355.0
1387.0
1405.0
1403.0
1383.0
1342.0
1283.0
1204.0
1115.0
1020.0
937.0
878.0
855.0
860.0
882.0
914.0
946.0
972.0
989.0
997.0
997.0
995.0
992.0
989.0
988.0
986.0
989.0
989.0
991.0
991.0
990.0
992.0
991.0
992.0
995.0
997.0
996.0
993.0
994.0
997.0
995.0
994.0
993.0
993.0
994.0
994.0
993.0
995.0
994.0
997.0
998.0
996.0
996.0
994.0
992.0
993.0
990.0
991.0
991.0
995.0
996.0
996.0
997.0
998.0
994.0
991.0
993.0
994.0
995.0
998.0
999.0
1004.0
1006.0
1011.0
1010.0
1009.0
1010.0
1008.0
1008.0
1009.0
1013.0
1016.0
1019.0
1021.0
1022.0
1023.0
1022.0
1023.0
1024.0
1025.0
1026.0
1026.0
1027.0
1031.0
1031.0
1030.0
1032.0
1036.0
1035.0
1035.0
1032.0
1032.0
1030.0
1030.0
1025.0
1023.0
1022.0
1018.0
1018.0
1017.0
1017.0
1014.0
1013.0
1011.0
1009.0
1005.0
1004.0
1006.0
1005.0
1006.0
1006.0
1008.0
1007.0
1007.0
1006.0
1003.0
1001.0
998.0
1000.0
1002.0
1004.0
1004.0
1007.0
1006.0
1004.0
1004.0
1001.0
999.0
1000.0
1000.0
1000.0
1003.0
1004.0
1004.0
1005.0
1002.0
1004.0
1004.0
1002.0
1000.0
999.0
1000.0
1001.0
1003.0
1004.0
1004.0
1005.0
1004.0
1005.0
1006.0
1004.0
1003.0
1001.0
1000.0
1000.0
999.0
1000.0
1002.0
1002.0
1003.0
1001.0
1001.0
1000.0
1000.0
1000.0
1001.0
1000.0
1001.0
1001.0
1003.0
1002.0
1001.0
1001.0
1001.0
1001.0
998.0
995.0
995.0
995.0
995.0
995.0
996.0
996.0
997.0
996.0
997.0
994.0
993.0
991.0
990.0
990.0
992.0
993.0
995.0
996.0
997.0
992.0
990.0
990.0
987.0
988.0
987.0
988.0
990.0
991.0
990.0
990.0
990.0
989.0
987.0
987.0
985.0
985.0
985.0
984.0
985.0
986.0
990.0
990.0
989.0
990.0
988.0
988.0
986.0
988.0
985.0
987.0
987.0
988.0
989.0
990.0
990.0
991.0
991.0
990.0
989.0
987.0
985.0
985.0
985.0
987.0
985.0
988.0
989.0
989.0
989.0
987.0
985.0
981.0
980.0
978.0
978.0
978.0
985.0
986.0
986.0
985.0
987.0
986.0
980.0
980.0
980.0
980.0
980.0
985.0
985.0
986.0
985.0
984.0
984.0
981.0
982.0
981.0
982.0
981.0
985.0
986.0
989.0
993.0
994.0
994.0
997.0
996.0
996.0
998.0
999.0
1002.0
1003.0
1007.0
1008.0
1012.0
1012.0
1012.0
1011.0
1009.0
1007.0
1005.0
1002.0
1002.0
1000.0
999.0
998.0
1000.0
997.0
996.0
995.0
992.0
988.0
986.0
984.0
981.0
984.0
982.0
981.0
978.0
980.0
980.0
979.0
981.0
981.0
981.0
982.0
985.0
985.0
990.0
994.0
997.0
999.0
1003.0
1005.0
1007.0
1006.0
1012.0
1015.0
1018.0
1023.0
1030.0
1038.0
1045.0
1051.0
1060.0
1070.0
1074.0
1079.0
1085.0
1091.0
1098.0
1108.0
1122.0
1143.0
1172.0
1200.0
1233.0
1269.0
1298.0
1323.0
1339.0
1343.0
1328.0
1299.0
1251.0
1189.0
1118.0
1039.0
965.0
903.0
862.0
851.0
860.0
883.0
914.0
940.0
961.0
974.0
979.0
980.0
975.0
970.0
967.0
964.0
963.0
966.0
968.0
970.0
968.0
971.0
972.0
970.0
972.0
973.0
972.0
972.0
969.0
969.0
969.0
968.0
968.0
969.0
968.0
973.0
971.0
971.0
972.0
970.0
970.0
968.0
966.0
966.0
966.0
968.0
970.0
972.0
972.0
973.0
970.0
969.0
967.0
968.0
966.0
969.0
970.0
972.0
973.0
978.0
977.0
978.0
976.0
975.0
976.0
975.0
978.0
980.0
983.0
986.0
987.0
988.0
989.0
990.0
990.0
989.0
989.0
990.0
991.0
992.0
996.0
995.0
999.0
998.0
1000.0
998.0
997.0
999.0
997.0
999.0
999.0
999.0
1002.0
999.0
999.0
997.0
999.0
998.0
995.0
993.0
991.0
988.0
985.0
984.0
984.0
986.0
983.0
980.0
982.0
982.0
980.0
980.0
977.0
977.0
975.0
974.0
975.0
976.0
975.0
973.0
976.0
975.0
976.0
972.0
971.0
971.0
969.0
970.0
970.0
968.0
973.0
972.0
974.0
973.0
973.0
972.0
969.0
965.0
968.0
971.0
972.0
975.0
976.0
975.0
975.0
976.0
974.0
974.0
972.0
975.0
973.0
976.0
978.0
980.0
979.0
979.0
979.0
980.0
976.0
976.0
976.0
975.0
974.0
975.0
975.0
976.0
978.0
975.0
975.0
976.0
973.0
970.0
971.0
972.0
969.0
971.0
974.0
972.0
973.0
972.0
969.0
970.0
967.0
965.0
968.0
967.0
968.0
967.0
968.0
968.0
969.0
969.0
969.0
968.0
967.0
966.0
967.0
966.0
961.0
963.0
963.0
964.0
966.0
966.0
968.0
964.0
966.0
964.0
963.0
960.0
962.0
961.0
962.0
964.0
967.0
965.0
967.0
968.0
964.0
962.0
960.0
960.0
960.0
960.0
961.0
964.0
966.0
965.0
966.0
965.0
963.0
959.0
959.0
958.0
961.0
961.0
962.0
961.0
964.0
964.0
962.0
962.0
963.0
961.0
960.0
960.0
960.0
961.0
961.0
960.0
961.0
962.0
963.0
959.0
958.0
959.0
959.0
959.0
959.0
962.0
960.0
961.0
964.0
963.0
963.0
963.0
962.0
963.0
961.0
959.0
957.0
957.0
959.0
959.0
961.0
964.0
964.0
963.0
962.0
960.0
960.0
958.0
958.0
958.0
959.0
960.0
964.0
963.0
966.0
966.0
964.0
964.0
965.0
963.0
965.0
969.0
975.0
976.0
979.0
982.0
983.0
984.0
982.0
985.0
985.0
986.0
986.0
987.0
986.0
986.0
985.0
984.0
983.0
983.0
980.0
976.0
974.0
971.0
969.0
969.0
970.0
970.0
970.0
967.0
966.0
964.0
963.0
961.0
960.0
958.0
959.0
963.0
966.0
968.0
973.0
975.0
978.0
980.0
981.0
982.0
985.0
986.0
989.0
997.0
1003.0
1009.0
1016.0
1020.0
1024.0
1029.0
1037.0
1042.0
1049.0
1057.0
1063.0
1074.0
1082.0
1090.0
1103.0
1116.0
1137.0
1161.0
1187.0
1216.0
1246.0
1269.0
1290.0
1298.0
1289.0
1266.0
1228.0
1176.0
1111.0
1041.0
968.0
913.0
877.0
863.0
866.0
881.0
903.0
924.0
941.0
952.0
956.0
956.0
954.0
951.0
952.0
950.0
949.0
950.0
952.0
954.0
957.0
958.0
959.0
958.0
954.0
954.0
955.0
954.0
955.0
956.0
955.0
956.0
961.0
961.0
962.0
961.0
959.0
961.0
958.0
957.0
956.0
959.0
962.0
961.0
961.0
964.0
964.0
961.0
963.0
960.0
961.0
960.0
959.0
960.0
958.0
958.0
962.0
962.0
964.0
965.0
965.0
966.0
966.0
968.0
967.0
967.0
971.0
972.0
975.0
976.0
980.0
981.0
977.0
979.0
976.0
975.0
976.0
976.0
981.0
984.0
986.0
988.0
989.0
988.0
988.0
985.0
988.0
987.0
987.0
987.0
992.0
991.0
990.0
989.0
990.0
986.0
982.0
978.0
975.0
977.0
975.0
975.0
976.0
975.0
974.0
972.0
975.0
970.0
968.0
968.0
966.0
965.0
965.0
964.0
966.0
966.0
963.0
963.0
966.0
965.0
965.0
963.0
963.0
964.0
964.0
964.0
966.0
967.0
966.0
966.0
964.0
964.0
964.0
967.0
967.0
968.0
967.0
970.0
970.0
969.0
971.0
969.0
968.0
968.0
971.0
971.0
969.0
969.0
969.0
970.0
968.0
971.0
974.0
973.0
973.0
973.0
973.0
971.0
969.0
969.0
967.0
970.0
970.0
970.0
970.0
970.0
972.0
972.0
971.0
969.0
967.0
968.0
965.0
968.0
967.0
970.0
971.0
971.0
971.0
967.0
965.0
965.0
963.0
963.0
963.0
963.0
964.0
965.0
964.0
962.0
962.0
963.0
962.0
961.0
961.0
961.0
962.0
962.0
964.0
962.0
961.0
961.0
962.0
961.0
960.0
959.0
959.0
957.0
958.0
957.0
959.0
960.0
958.0
960.0
962.0
963.0
960.0
960.0
958.0
957.0
956.0
956.0
959.0
959.0
961.0
960.0
963.0
962.0
958.0
958.0
955.0
952.0
955.0
954.0
955.0
957.0
960.0
954.0
956.0
956.0
955.0
956.0
956.0
955.0
955.0
955.0
958.0
958.0
957.0
959.0
958.0
960.0
958.0
954.0
953.0
954.0
956.0
953.0
955.0
956.0
955.0
958.0
956.0
958.0
955.0
957.0
958.0
956.0
956.0
955.0
955.0
957.0
959.0
962.0
963.0
966.0
969.0
970.0
970.0
970.0
970.0
970.0
972.0
977.0
979.0
983.0
984.0
981.0
985.0
983.0
981.0
978.0
976.0
976.0
975.0
972.0
975.0
974.0
972.0
970.0
965.0
964.0
959.0
961.0
959.0
959.0
961.0
959.0
957.0
958.0
956.0
954.0
955.0
955.0
957.0
957.0
959.0
961.0
963.0
964.0
967.0
971.0
973.0
976.0
977.0
982.0
984.0
987.0
992.0
997.0
1000.0
1009.0
1016.0
1024.0
1030.0
1038.0
1050.0
1057.0
1065.0
1069.0
1077.0
1089.0
1106.0
1129.0
1160.0
1192.0
1228.0
1261.0
1287.0
1305.0
1306.0
1290.0
1255.0
1204.0
1141.0
1067.0
990.0
919.0
870.0
842.0
841.0
857.0
880.0
908.0
926.0
941.0
949.0
951.0
953.0
951.0
948.0
946.0
943.0
942.0
941.0
942.0
941.0
943.0
945.0
946.0
947.0
947.0
949.0
949.0
949.0
949.0
948.0
948.0
949.0
949.0
950.0
950.0
953.0
954.0
957.0
954.0
954.0
953.0
952.0
950.0
950.0
950.0
951.0
951.0
956.0
957.0
958.0
957.0
956.0
954.0
956.0
957.0
957.0
961.0
960.0
965.0
968.0
969.0
970.0
971.0
970.0
966.0
966.0
968.0
970.0
971.0
977.0
977.0
978.0
980.0
983.0
983.0
983.0
981.0
983.0
981.0
982.0
983.0
983.0
982.0
984.0
987.0
989.0
990.0
989.0
986.0
984.0
980.0
980.0
975.0
976.0
977.0
977.0
976.0
975.0
972.0
971.0
966.0
967.0
963.0
963.0
964.0
966.0
967.0
969.0
968.0
967.0
963.0
960.0
958.0
960.0
957.0
958.0
959.0
960.0
961.0
963.0
962.0
963.0
963.0
961.0
961.0
959.0
961.0
960.0
962.0
957.0
961.0
960.0
962.0
965.0
965.0
965.0
965.0
962.0
965.0
964.0
961.0
964.0
966.0
968.0
968.0
970.0
970.0
967.0
967.0
965.0
965.0
964.0
966.0
967.0
964.0
969.0
965.0
968.0
969.0
968.0
967.0
966.0
964.0
965.0
964.0
967.0
967.0
967.0
969.0
967.0
969.0
965.0
964.0
963.0
962.0
961.0
962.0
962.0
963.0
966.0
966.0
965.0
965.0
964.0
962.0
959.0
959.0
960.0
960.0
961.0
963.0
964.0
964.0
964.0
962.0
963.0
961.0
959.0
958.0
959.0
961.0
961.0
962.0
963.0
965.0
964.0
965.0
963.0
961.0
957.0
955.0
959.0
961.0
960.0
960.0
961.0
963.0
964.0
965.0
963.0
962.0
960.0
959.0
960.0
960.0
961.0
961.0
965.0
962.0
962.0
962.0
962.0
961.0
960.0
960.0
961.0
959.0
959.0
960.0
959.0
962.0
962.0
961.0
961.0
961.0
957.0
960.0
961.0
960.0
961.0
960.0
961.0
961.0
961.0
961.0
959.0
960.0
959.0
959.0
961.0
962.0
962.0
964.0
966.0
967.0
969.0
972.0
973.0
972.0
974.0
975.0
974.0
976.0
981.0
984.0
984.0
988.0
992.0
990.0
991.0
992.0
991.0
990.0
989.0
987.0
987.0
985.0
982.0
984.0
982.0
980.0
979.0
975.0
971.0
967.0
967.0
969.0
969.0
968.0
969.0
967.0
966.0
963.0
960.0
959.0
960.0
962.0
962.0
964.0
970.0
972.0
976.0
978.0
983.0
986.0
991.0
992.0
993.0
998.0
1001.0
1006.0
1013.0
1018.0
1024.0
1033.0
1042.0
1050.0
1059.0
1069.0
1074.0
1080.0
1084.0
1093.0
1103.0
1118.0
1138.0
1162.0
1189.0
1216.0
1242.0
1266.0
1280.0
1286.0
1282.0
1258.0
1224.0
1176.0
1120.0
1053.0
988.0
927.0
884.0
866.0
870.0
885.0
906.0
928.0
946.0
959.0
962.0
965.0
962.0
959.0
955.0
953.0
952.0
954.0
955.0
954.0
956.0
957.0
959.0
960.0
960.0
959.0
957.0
958.0
959.0
957.0
956.0
958.0
959.0
960.0
962.0
963.0
963.0
963.0
963.0
961.0
959.0
957.0
957.0
955.0
956.0
960.0
962.0
962.0
963.0
967.0
965.0
964.0
964.0
963.0
962.0
961.0
966.0
970.0
972.0
975.0
974.0
977.0
976.0
974.0
975.0
975.0
976.0
979.0
983.0
984.0
989.0
991.0
990.0
991.0
990.0
990.0
989.0
990.0
990.0
992.0
992.0
994.0
991.0
994.0
995.0
995.0
997.0
996.0
993.0
989.0
989.0
989.0
989.0
988.0
989.0
988.0
986.0
985.0
984.0
982.0
979.0
978.0
974.0
973.0
973.0
973.0
973.0
972.0
973.0
972.0
971.0
969.0
967.0
965.0
965.0
963.0
967.0
967.0
971.0
969.0
972.0
971.0
969.0
968.0
964.0
964.0
964.0
964.0
965.0
967.0
969.0
971.0
972.0
973.0
972.0
970.0
970.0
969.0
968.0
967.0
968.0
970.0
974.0
974.0
976.0
977.0
976.0
977.0
975.0
974.0
975.0
974.0
971.0
975.0
974.0
976.0
977.0
973.0
972.0
972.0
970.0
967.0
968.0
969.0
972.0
974.0
973.0
973.0
972.0
972.0
972.0
971.0
968.0
968.0
966.0
966.0
966.0
966.0
968.0
968.0
968.0
969.0
967.0
965.0
964.0
961.0
961.0
959.0
961.0
963.0
967.0
968.0
969.0
967.0
968.0
967.0
962.0
962.0
964.0
963.0
966.0
969.0
968.0
969.0
969.0
967.0
965.0
964.0
962.0
961.0
964.0
962.0
963.0
964.0
966.0
965.0
964.0
965.0
967.0
965.0
966.0
966.0
966.0
965.0
965.0
965.0
969.0
966.0
970.0
968.0
965.0
965.0
963.0
965.0
964.0
964.0
964.0
964.0
965.0
967.0
968.0
966.0
970.0
968.0
965.0
964.0
963.0
961.0
959.0
962.0
964.0
967.0
967.0
968.0
966.0
963.0
963.0
964.0
963.0
963.0
964.0
964.0
969.0
970.0
972.0
974.0
973.0
972.0
972.0
971.0
976.0
978.0
979.0
983.0
986.0
989.0
991.0
992.0
992.0
992.0
992.0
991.0
994.0
993.0
993.0
994.0
991.0
993.0
991.0
987.0
985.0
984.0
980.0
980.0
977.0
979.0
979.0
975.0
975.0
975.0
974.0
973.0
972.0
968.0
967.0
967.0
967.0
968.0
969.0
971.0
974.0
979.0
981.0
983.0
986.0
986.0
987.0
990.0
992.0
996.0
1000.0
1006.0
1012.0
1017.0
1021.0
1027.0
1031.0
1039.0
1045.0
1052.0
1062.0
1066.0
1074.0
1087.0
1094.0
1107.0
1119.0
1142.0
1165.0
1193.0
1224.0
1259.0
1285.0
1310.0
1321.0
1317.0
1296.0
1256.0
1193.0
1122.0
1044.0
964.0
901.0
861.0
851.0
860.0
883.0
908.0
932.0
950.0
963.0
970.0
970.0
967.0
966.0
964.0
961.0
958.0
962.0
962.0
963.0
966.0
967.0
967.0
969.0
970.0
969.0
969.0
967.0
967.0
967.0
968.0
969.0
968.0
968.0
970.0
970.0
967.0
964.0
964.0
962.0
962.0
963.0
966.0
970.0
972.0
972.0
973.0
972.0
969.0
969.0
967.0
965.0
968.0
969.0
972.0
974.0
975.0
977.0
978.0
980.0
978.0
976.0
975.0
976.0
977.0
980.0
981.0
984.0
986.0
987.0
989.0
990.0
988.0
990.0
989.0
991.0
991.0
990.0
993.0
994.0
995.0
997.0
1000.0
1001.0
1001.0
1002.0
1000.0
999.0
999.0
998.0
998.0
1001.0
1003.0
1000.0
1000.0
997.0
995.0
993.0
989.0
984.0
985.0
984.0
986.0
987.0
986.0
986.0
985.0
982.0
978.0
977.0
976.0
975.0
973.0
976.0
980.0
978.0
979.0
980.0
980.0
979.0
974.0
972.0
977.0
976.0
976.0
978.0
979.0
980.0
983.0
982.0
983.0
980.0
980.0
979.0
980.0
978.0
977.0
980.0
981.0
979.0
986.0
986.0
985.0
984.0
986.0
984.0
979.0
980.0
981.0
981.0
984.0
984.0
984.0
985.0
988.0
986.0
984.0
985.0
983.0
981.0
981.0
982.0
982.0
985.0
984.0
985.0
984.0
986.0
980.0
981.0
979.0
977.0
978.0
979.0
977.0
980.0
983.0
984.0
982.0
981.0
978.0
977.0
974.0
974.0
971.0
973.0
975.0
978.0
980.0
978.0
978.0
975.0
978.0
976.0
974.0
972.0
972.0
972.0
972.0
971.0
976.0
976.0
976.0
976.0
972.0
970.0
972.0
972.0
972.0
972.0
972.0
973.0
975.0
975.0
977.0
976.0
976.0
974.0
972.0
972.0
968.0
969.0
970.0
974.0
976.0
976.0
977.0
978.0
975.0
976.0
975.0
972.0
973.0
973.0
975.0
976.0
980.0
980.0
985.0
983.0
980.0
980.0
977.0
977.0
976.0
980.0
981.0
985.0
988.0
990.0
990.0
991.0
991.0
992.0
992.0
995.0
995.0
1000.0
1004.0
1007.0
1007.0
1011.0
1010.0
1010.0
1009.0
1009.0
1007.0
1006.0
1005.0
1006.0
1005.0
1003.0
1003.0
999.0
1001.0
998.0
994.0
992.0
988.0
987.0
988.0
987.0
987.0
986.0
982.0
982.0
981.0
980.0
979.0
980.0
979.0
981.0
982.0
983.0
986.0
988.0
993.0
996.0
999.0
999.0
1002.0
1006.0
1007.0
1010.0
1012.0
1019.0
1022.0
1025.0
1035.0
1042.0
1048.0
1057.0
1063.0
1072.0
1077.0
1085.0
1091.0
1101.0
1109.0
1122.0
1137.0
1158.0
1184.0
1212.0
1240.0
1270.0
1295.0
1314.0
1324.0
1317.0
1298.0
1257.0
1204.0
1139.0
1066.0
991.0
930.0
887.0
871.0
874.0
891.0
914.0
939.0
958.0
972.0
979.0
980.0
976.0
973.0
969.0
971.0
970.0
968.0
972.0
973.0
975.0
976.0
976.0
977.0
978.0
976.0
978.0
976.0
975.0
974.0
975.0
977.0
978.0
980.0
981.0
980.0
981.0
981.0
979.0
976.0
976.0
974.0
974.0
978.0
978.0
980.0
984.0
983.0
984.0
982.0
982.0
981.0
978.0
979.0
981.0
984.0
986.0
989.0
990.0
992.0
991.0
992.0
992.0
992.0
990.0
993.0
993.0
998.0
997.0
1003.0
1002.0
1005.0
1003.0
1004.0
1002.0
1002.0
1004.0
1002.0
1000.0
1007.0
1007.0
1006.0
1006.0
1008.0
1008.0
1009.0
1010.0
1008.0
1008.0
1008.0
1008.0
1009.0
1008.0
1006.0
1008.0
1004.0
1006.0
1005.0
1000.0
998.0
996.0
993.0
993.0
994.0
993.0
992.0
993.0
991.0
989.0
989.0
986.0
982.0
982.0
981.0
983.0
984.0
987.0
989.0
990.0
989.0
990.0
987.0
985.0
981.0
982.0
983.0
983.0
986.0
989.0
988.0
989.0
990.0
986.0
983.0
985.0
984.0
986.0
984.0
986.0
988.0
987.0
989.0
989.0
989.0
989.0
991.0
989.0
987.0
987.0
987.0
989.0
989.0
988.0
990.0
992.0
992.0
992.0
988.0
988.0
987.0
985.0
982.0
984.0
983.0
988.0
990.0
990.0
990.0
988.0
985.0
983.0
982.0
982.0
981.0
982.0
982.0
983.0
984.0
987.0
986.0
987.0
983.0
982.0
982.0
982.0
980.0
981.0
981.0
985.0
985.0
985.0
988.0
987.0
986.0
984.0
982.0
983.0
982.0
982.0
983.0
985.0
986.0
987.0
988.0
987.0
986.0
985.0
983.0
981.0
981.0
982.0
984.0
984.0
988.0
988.0
985.0
984.0
984.0
984.0
982.0
982.0
983.0
986.0
983.0
986.0
986.0
984.0
982.0
985.0
986.0
983.0
985.0
984.0
983.0
983.0
985.0
984.0
983.0
983.0
985.0
987.0
987.0
986.0
984.0
984.0
983.0
987.0
986.0
988.0
990.0
993.0
996.0
997.0
999.0
1000.0
1000.0
1000.0
1001.0
1004.0
1003.0
1008.0
1008.0
1011.0
1011.0
1012.0
1011.0
1011.0
1006.0
1005.0
1003.0
1001.0
1003.0
1003.0
1003.0
1002.0
1001.0
1000.0
997.0
992.0
990.0
991.0
989.0
987.0
989.0
990.0
990.0
991.0
991.0
992.0
993.0
994.0
992.0
995.0
996.0
1000.0
1004.0
1009.0
1013.0
1016.0
1019.0
1021.0
1022.0
1025.0
1029.0
1034.0
1038.0
1044.0
1051.0
1058.0
1066.0
1074.0
1082.0
1089.0
1096.0
1103.0
1107.0
1116.0
1124.0
1136.0
1153.0
1176.0
1202.0
1228.0
1254.0
1282.0
1300.0
1310.0
1309.0
1297.0
1266.0
1222.0
1168.0
1107.0
1043.0
984.0
942.0
915.0
905.0
913.0
926.0
942.0
957.0
970.0
979.0
984.0
988.0
990.0
988.0
983.0
984.0
984.0
983.0
980.0
983.0
985.0
985.0
988.0
989.0
990.0
990.0
987.0
986.0
985.0
984.0
983.0
985.0
986.0
987.0
989.0
988.0
990.0
987.0
985.0
985.0
986.0
986.0
988.0
987.0
989.0
987.0
987.0
988.0
985.0
985.0
987.0
986.0
986.0
985.0
986.0
985.0
987.0
987.0
988.0
990.0
992.0
994.0
992.0
994.0
994.0
994.0
995.0
994.0
996.0
1000.0
1000.0
1002.0
1003.0
1006.0
1006.0
1007.0
1007.0
1005.0
1007.0
1008.0
1007.0
1009.0
1011.0
1013.0
1016.0
1017.0
1016.0
1014.0
1016.0
1015.0
1016.0
1016.0
1016.0
1016.0
1015.0
1015.0
1016.0
1015.0
1013.0
1011.0
1008.0
1005.0
1004.0
1002.0
1002.0
1004.0
1002.0
1002.0
1002.0
1001.0
999.0
997.0
993.0
992.0
994.0
993.0
993.0
994.0
995.0
998.0
996.0
994.0
996.0
996.0
996.0
993.0
993.0
995.0
994.0
994.0
994.0
997.0
996.0
996.0
998.0
999.0
999.0
996.0
994.0
993.0
994.0
993.0
996.0
999.0
1002.0
1003.0
1003.0
1001.0
999.0
998.0
998.0
999.0
998.0
1000.0
1002.0
1004.0
1004.0
1004.0
1001.0
1001.0
999.0
999.0
998.0
997.0
1000.0
1000.0
1000.0
1001.0
999.0
1000.0
999.0
996.0
997.0
995.0
992.0
991.0
991.0
994.0
992.0
995.0
995.0
996.0
995.0
995.0
994.0
992.0
991.0
990.0
990.0
991.0
991.0
993.0
993.0
994.0
989.0
991.0
986.0
988.0
986.0
984.0
985.0
985.0
986.0
989.0
991.0
988.0
990.0
989.0
988.0
985.0
987.0
985.0
985.0
988.0
989.0
990.0
991.0
990.0
988.0
988.0
988.0
986.0
987.0
987.0
988.0
989.0
990.0
992.0
991.0
993.0
995.0
995.0
993.0
996.0
999.0
997.0
999.0
1003.0
1004.0
1008.0
1010.0
1012.0
1013.0
1015.0
1017.0
1016.0
1015.0
1015.0
1015.0
1013.0
1011.0
1013.0
1011.0
1008.0
1007.0
1003.0
1001.0
996.0
994.0
995.0
993.0
992.0
993.0
997.0
998.0
994.0
992.0
990.0
986.0
983.0
984.0
982.0
986.0
992.0
995.0
998.0
1002.0
1003.0
1007.0
1006.0
1008.0
1009.0
1014.0
1016.0
1021.0
1027.0
1032.0
1036.0
1042.0
1046.0
1053.0
1056.0
1063.0
1073.0
1078.0
1086.0
1094.0
1100.0
1107.0
1115.0
1125.0
1138.0
1160.0
1187.0
1218.0
1252.0
1289.0
1326.0
1355.0
1374.0
1378.0
1363.0
1327.0
1268.0
1191.0
1104.0
1009.0
927.0
870.0
842.0
844.0
863.0
894.0
928.0
953.0
973.0
981.0
986.0
982.0
979.0
975.0
971.0
971.0
974.0
978.0
980.0
982.0
981.0
980.0
975.0
977.0
977.0
977.0
975.0
978.0
978.0
978.0
980.0
979.0
979.0
979.0
979.0
977.0
978.0
977.0
977.0
979.0
981.0
982.0
982.0
983.0
984.0
984.0
981.0
980.0
981.0
978.0
980.0
982.0
981.0
981.0
982.0
984.0
984.0
983.0
984.0
985.0
984.0
984.0
986.0
987.0
989.0
990.0
993.0
996.0
997.0
999.0
999.0
1002.0
1001.0
997.0
999.0
999.0
1000.0
1002.0
1005.0
1007.0
1008.0
1009.0
1008.0
1006.0
1005.0
1004.0
1005.0
1005.0
1007.0
1009.0
1010.0
1011.0
1011.0
1011.0
1010.0
1006.0
1003.0
1002.0
999.0
998.0
998.0
998.0
997.0
997.0
993.0
993.0
991.0
987.0
983.0
981.0
982.0
981.0
980.0
981.0
983.0
981.0
981.0
980.0
981.0
979.0
978.0
979.0
976.0
976.0
976.0
975.0
978.0
977.0
979.0
981.0
979.0
978.0
976.0
976.0
977.0
977.0
978.0
980.0
980.0
982.0
983.0
984.0
982.0
982.0
980.0
979.0
978.0
978.0
979.0
981.0
982.0
983.0
986.0
986.0
985.0
985.0
984.0
982.0
979.0
979.0
978.0
983.0
985.0
984.0
986.0
981.0
980.0
976.0
977.0
977.0
975.0
977.0
977.0
981.0
983.0
982.0
980.0
981.0
979.0
977.0
973.0
973.0
973.0
975.0
975.0
976.0
977.0
977.0
977.0
977.0
977.0
976.0
972.0
974.0
975.0
974.0
975.0
975.0
976.0
978.0
977.0
977.0
975.0
974.0
968.0
968.0
967.0
967.0
967.0
968.0
970.0
972.0
970.0
