# Simple Text Format
# Sampling Rate (Hz):= 360.00
# Resolution:= 12
# Labels:= ECG
915.0
927.0
934.0
936.0
935.0
938.0
938.0
936.0
935.0
936.0
937.0
939.0
940.0
938.0
934.0
935.0
933.0
936.0
937.0
935.0
936.0
935.0
934.0
935.0
935.0
936.0
935.0
934.0
932.0
935.0
939.0
939.0
937.0
936.0
934.0
938.0
939.0
939.0
936.0
934.0
934.0
938.0
938.0
939.0
938.0
933.0
937.0
937.0
939.0
939.0
937.0
936.0
934.0
936.0
938.0
937.0
937.0
933.0
932.0
935.0
938.0
939.0
936.0
933.0
934.0
934.0
936.0
937.0
937.0
936.0
936.0
937.0
937.0
935.0
932.0
933.0
932.0
933.0
935.0
936.0
934.0
934.0
931.0
934.0
932.0
933.0
930.0
928.0
927.0
929.0
933.0
934.0
936.0
933.0
933.0
934.0
935.0
937.0
937.0
937.0
935.0
939.0
943.0
946.0
947.0
947.0
949.0
951.0
955.0
955.0
955.0
954.0
953.0
956.0
957.0
957.0
957.0
957.0
957.0
958.0
960.0
960.0
956.0
955.0
951.0
954.0
957.0
956.0
954.0
954.0
951.0
953.0
955.0
955.0
955.0
955.0
955.0
958.0
957.0
956.0
954.0
952.0
951.0
951.0
955.0
953.0
952.0
950.0
949.0
949.0
949.0
948.0
946.0
946.0
944.0
948.0
950.0
948.0
947.0
946.0
945.0
946.0
946.0
943.0
942.0
943.0
942.0
946.0
947.0
950.0
947.0
946.0
944.0
947.0
946.0
947.0
946.0
944.0
943.0
947.0
948.0
948.0
948.0
946.0
945.0
947.0
949.0
949.0
950.0
946.0
942.0
946.0
947.0
946.0
943.0
941.0
944.0
946.0
950.0
950.0
950.0
949.0
946.0
948.0
951.0
950.0
952.0
950.0
950.0
956.0
957.0
958.0
958.0
956.0
958.0
959.0
962.0
962.0
963.0
963.0
964.0
965.0
971.0
971.0
971.0
969.0
969.0
969.0
972.0
972.0
970.0
967.0
966.0
967.0
969.0
972.0
970.0
971.0
967.0
965.0
961.0
961.0
956.0
953.0
947.0
944.0
947.0
946.0
945.0
943.0
940.0
939.0
942.0
943.0
944.0
944.0
942.0
943.0
945.0
946.0
943.0
941.0
941.0
940.0
938.0
941.0
940.0
937.0
938.0
939.0
937.0
932.0
925.0
920.0
914.0
907.0
901.0
908.0
923.0
946.0
973.0
1008.0
1054.0
1107.0
1155.0
1183.0
1188.0
1168.0
1114.0
1034.0
966.0
925.0
909.0
908.0
911.0
919.0
927.0
926.0
927.0
930.0
931.0
931.0
930.0
929.0
927.0
930.0
931.0
931.0
930.0
927.0
925.0
925.0
927.0
928.0
930.0
927.0
927.0
929.0
934.0
933.0
930.0
929.0
924.0
927.0
928.0
927.0
929.0
928.0
927.0
932.0
932.0
934.0
933.0
929.0
930.0
932.0
932.0
930.0
931.0
930.0
927.0
930.0
929.0
930.0
926.0
927.0
926.0
929.0
929.0
930.0
927.0
926.0
924.0
927.0
932.0
933.0
930.0
930.0
927.0
928.0
929.0
927.0
926.0
925.0
926.0
925.0
925.0
925.0
925.0
922.0
922.0
926.0
926.0
926.0
924.0
921.0
917.0
921.0
922.0
922.0
918.0
916.0
914.0
916.0
917.0
915.0
916.0
914.0
917.0
916.0
919.0
923.0
924.0
924.0
924.0
930.0
935.0
938.0
940.0
941.0
941.0
943.0
947.0
948.0
948.0
948.0
949.0
952.0
952.0
955.0
954.0
955.0
951.0
954.0
956.0
956.0
955.0
952.0
953.0
956.0
956.0
956.0
956.0
954.0
955.0
957.0
960.0
959.0
960.0
957.0
957.0
958.0
960.0
960.0
958.0
956.0
953.0
955.0
957.0
956.0
954.0
953.0
951.0
953.0
953.0
954.0
953.0
951.0
951.0
952.0
953.0
954.0
955.0
951.0
949.0
954.0
956.0
954.0
952.0
950.0
950.0
953.0
955.0
956.0
954.0
953.0
952.0
954.0
959.0
957.0
957.0
954.0
953.0
953.0
954.0
955.0
955.0
955.0
953.0
958.0
956.0
956.0
959.0
957.0
955.0
958.0
959.0
958.0
957.0
954.0
953.0
955.0
959.0
958.0
952.0
954.0
953.0
956.0
957.0
958.0
959.0
957.0
956.0
960.0
963.0
964.0
965.0
962.0
963.0
965.0
968.0
969.0
969.0
969.0
967.0
970.0
973.0
973.0
973.0
974.0
974.0
978.0
978.0
980.0
978.0
975.0
971.0
975.0
978.0
979.0
977.0
975.0
978.0
984.0
985.0
982.0
973.0
966.0
961.0
963.0
961.0
959.0
956.0
950.0
950.0
954.0
956.0
955.0
953.0
952.0
949.0
951.0
951.0
952.0
951.0
949.0
946.0
949.0
949.0
948.0
949.0
948.0
947.0
948.0
949.0
949.0
941.0
934.0
926.0
922.0
920.0
911.0
906.0
910.0
927.0
949.0
969.0
984.0
999.0
1016.0
1037.0
1072.0
1111.0
1155.0
1191.0
1207.0
1204.0
1162.0
1094.0
1011.0
947.0
920.0
921.0
933.0
941.0
943.0
942.0
940.0
939.0
941.0
943.0
940.0
941.0
940.0
936.0
939.0
938.0
938.0
939.0
938.0
936.0
936.0
938.0
940.0
937.0
936.0
937.0
940.0
942.0
941.0
941.0
940.0
940.0
942.0
941.0
941.0
940.0
937.0
937.0
935.0
940.0
940.0
937.0
935.0
938.0
939.0
939.0
939.0
936.0
936.0
935.0
937.0
936.0
940.0
937.0
937.0
935.0
940.0
940.0
941.0
939.0
937.0
937.0
939.0
939.0
941.0
938.0
937.0
935.0
938.0
938.0
937.0
937.0
935.0
934.0
935.0
937.0
935.0
935.0
932.0
931.0
932.0
935.0
933.0
932.0
931.0
930.0
932.0
932.0
934.0
934.0
935.0
933.0
934.0
936.0
937.0
938.0
936.0
935.0
936.0
936.0
937.0
937.0
936.0
935.0
941.0
945.0
949.0
950.0
948.0
951.0
953.0
957.0
958.0
958.0
959.0
958.0
960.0
963.0
964.0
964.0
964.0
962.0
965.0
966.0
967.0
967.0
962.0
963.0
962.0
965.0
964.0
964.0
962.0
960.0
962.0
965.0
963.0
963.0
962.0
960.0
961.0
962.0
963.0
961.0
959.0
957.0
959.0
962.0
961.0
961.0
959.0
958.0
960.0
961.0
962.0
960.0
958.0
954.0
956.0
956.0
958.0
956.0
956.0
955.0
956.0
956.0
956.0
953.0
953.0
953.0
955.0
958.0
957.0
957.0
955.0
953.0
956.0
956.0
957.0
955.0
953.0
952.0
952.0
955.0
954.0
956.0
953.0
953.0
954.0
958.0
954.0
955.0
954.0
954.0
956.0
959.0
960.0
959.0
960.0
960.0
964.0
967.0
968.0
967.0
967.0
968.0
970.0
973.0
973.0
974.0
974.0
976.0
977.0
981.0
981.0
980.0
976.0
973.0
974.0
975.0
978.0
977.0
975.0
975.0
979.0
985.0
987.0
981.0
976.0
968.0
968.0
967.0
966.0
963.0
960.0
957.0
956.0
954.0
953.0
952.0
951.0
951.0
950.0
951.0
951.0
950.0
948.0
945.0
947.0
949.0
948.0
947.0
945.0
944.0
947.0
951.0
952.0
950.0
947.0
946.0
948.0
944.0
937.0
929.0
924.0
919.0
913.0
904.0
910.0
925.0
950.0
978.0
1013.0
1055.0
1110.0
1161.0
1194.0
1207.0
1198.0
1156.0
1083.0
999.0
941.0
919.0
925.0
936.0
944.0
945.0
943.0
942.0
942.0
943.0
943.0
940.0
938.0
938.0
937.0
941.0
942.0
941.0
936.0
935.0
935.0
938.0
939.0
940.0
938.0
934.0
936.0
940.0
937.0
937.0
936.0
935.0
937.0
939.0
939.0
941.0
941.0
939.0
940.0
940.0
943.0
941.0
941.0
940.0
940.0
942.0
941.0
938.0
939.0
937.0
941.0
941.0
942.0
940.0
940.0
939.0
939.0
941.0
944.0
944.0
942.0
941.0
942.0
942.0
942.0
942.0
939.0
939.0
941.0
937.0
939.0
939.0
939.0
936.0
938.0
942.0
940.0
938.0
937.0
935.0
938.0
938.0
937.0
938.0
938.0
936.0
937.0
939.0
939.0
939.0
938.0
935.0
939.0
938.0
942.0
940.0
940.0
938.0
940.0
943.0
943.0
942.0
942.0
943.0
947.0
948.0
949.0
951.0
950.0
951.0
957.0
959.0
961.0
960.0
960.0
958.0
961.0
966.0
966.0
966.0
963.0
963.0
967.0
969.0
966.0
966.0
967.0
965.0
964.0
966.0
967.0
966.0
963.0
964.0
963.0
966.0
965.0
963.0
962.0
961.0
962.0
965.0
965.0
965.0
963.0
964.0
963.0
962.0
964.0
964.0
963.0
962.0
962.0
964.0
963.0
964.0
960.0
959.0
959.0
960.0
963.0
961.0
959.0
957.0
959.0
961.0
960.0
957.0
954.0
955.0
957.0
958.0
960.0
958.0
957.0
956.0
958.0
961.0
960.0
962.0
961.0
957.0
960.0
961.0
961.0
962.0
959.0
959.0
957.0
957.0
959.0
959.0
957.0
955.0
956.0
960.0
959.0
959.0
957.0
954.0
957.0
960.0
958.0
959.0
959.0
956.0
959.0
963.0
966.0
969.0
966.0
968.0
970.0
972.0
975.0
973.0
974.0
975.0
977.0
983.0
984.0
982.0
983.0
983.0
982.0
984.0
981.0
980.0
981.0
980.0
982.0
983.0
984.0
986.0
989.0
986.0
980.0
976.0
974.0
972.0
968.0
964.0
961.0
961.0
958.0
958.0
957.0
956.0
959.0
958.0
962.0
962.0
961.0
960.0
960.0
961.0
960.0
959.0
955.0
954.0
956.0
957.0
957.0
957.0
954.0
954.0
955.0
958.0
957.0
954.0
952.0
949.0
943.0
937.0
930.0
922.0
911.0
908.0
918.0
942.0
970.0
1001.0
1036.0
1081.0
1138.0
1183.0
1210.0
1211.0
1177.0
1105.0
1024.0
960.0
931.0
927.0
934.0
942.0
947.0
948.0
949.0
947.0
948.0
947.0
946.0
946.0
947.0
946.0
944.0
944.0
946.0
948.0
947.0
947.0
945.0
945.0
947.0
949.0
950.0
949.0
946.0
946.0
948.0
952.0
950.0
948.0
946.0
942.0
944.0
947.0
947.0
949.0
945.0
945.0
947.0
948.0
952.0
951.0
950.0
950.0
951.0
952.0
952.0
949.0
947.0
947.0
949.0
950.0
952.0
952.0
950.0
949.0
950.0
951.0
951.0
950.0
949.0
948.0
947.0
949.0
949.0
948.0
948.0
946.0
948.0
947.0
950.0
947.0
948.0
945.0
946.0
949.0
947.0
947.0
947.0
944.0
948.0
948.0
946.0
947.0
943.0
942.0
941.0
941.0
943.0
941.0
942.0
941.0
943.0
945.0
945.0
943.0
942.0
941.0
946.0
950.0
955.0
954.0
957.0
956.0
958.0
961.0
960.0
964.0
963.0
962.0
965.0
967.0
970.0
969.0
966.0
966.0
967.0
970.0
969.0
967.0
967.0
964.0
967.0
966.0
968.0
969.0
968.0
966.0
963.0
968.0
968.0
968.0
967.0
966.0
969.0
969.0
971.0
970.0
967.0
965.0
966.0
965.0
967.0
967.0
966.0
963.0
964.0
964.0
964.0
962.0
960.0
960.0
961.0
961.0
962.0
960.0
958.0
959.0
960.0
961.0
962.0
960.0
960.0
961.0
963.0
963.0
963.0
959.0
956.0
953.0
954.0
955.0
957.0
956.0
957.0
956.0
959.0
959.0
956.0
954.0
954.0
952.0
957.0
960.0
960.0
960.0
956.0
958.0
960.0
960.0
960.0
961.0
959.0
956.0
956.0
959.0
960.0
959.0
956.0
958.0
958.0
960.0
957.0
955.0
955.0
955.0
956.0
961.0
961.0
959.0
960.0
962.0
963.0
963.0
964.0
964.0
967.0
966.0
970.0
973.0
975.0
973.0
972.0
969.0
973.0
976.0
976.0
977.0
975.0
977.0
980.0
984.0
984.0
979.0
975.0
975.0
977.0
980.0
978.0
978.0
978.0
977.0
984.0
986.0
982.0
973.0
965.0
963.0
963.0
958.0
959.0
956.0
954.0
952.0
953.0
957.0
952.0
953.0
949.0
947.0
950.0
955.0
956.0
956.0
952.0
949.0
950.0
950.0
951.0
948.0
948.0
946.0
948.0
947.0
945.0
939.0
932.0
926.0
923.0
916.0
915.0
926.0
947.0
976.0
1010.0
1053.0
1110.0
1158.0
1192.0
1203.0
1185.0
1134.0
1058.0
995.0
954.0
930.0
919.0
915.0
913.0
912.0
914.0
920.0
929.0
933.0
937.0
935.0
934.0
936.0
939.0
941.0
941.0
939.0
936.0
936.0
942.0
940.0
941.0
941.0
940.0
939.0
941.0
944.0
941.0
940.0
940.0
937.0
937.0
937.0
938.0
937.0
937.0
935.0
940.0
935.0
937.0
940.0
935.0
936.0
938.0
940.0
942.0
939.0
939.0
937.0
940.0
939.0
939.0
940.0
938.0
936.0
939.0
939.0
939.0
937.0
936.0
935.0
938.0
942.0
942.0
942.0
941.0
938.0
940.0
944.0
943.0
940.0
936.0
934.0
937.0
934.0
938.0
934.0
931.0
927.0
928.0
929.0
930.0
928.0
929.0
924.0
924.0
926.0
924.0
924.0
921.0
918.0
920.0
923.0
925.0
927.0
928.0
928.0
931.0
933.0
940.0
940.0
943.0
944.0
950.0
952.0
955.0
955.0
957.0
957.0
960.0
962.0
963.0
962.0
960.0
959.0
963.0
967.0
968.0
967.0
965.0
965.0
967.0
967.0
966.0
967.0
965.0
963.0
965.0
967.0
965.0
968.0
964.0
964.0
964.0
965.0
966.0
963.0
963.0
962.0
963.0
966.0
966.0
965.0
962.0
961.0
962.0
964.0
966.0
965.0
963.0
961.0
964.0
967.0
965.0
963.0
961.0
958.0
959.0
963.0
962.0
962.0
961.0
961.0
962.0
963.0
963.0
964.0
963.0
963.0
963.0
966.0
965.0
967.0
965.0
964.0
962.0
965.0
965.0
966.0
965.0
961.0
964.0
965.0
966.0
964.0
962.0
961.0
963.0
963.0
964.0
965.0
963.0
963.0
965.0
966.0
967.0
967.0
966.0
964.0
967.0
967.0
968.0
965.0
963.0
965.0
966.0
972.0
974.0
971.0
970.0
970.0
973.0
978.0
979.0
978.0
976.0
978.0
982.0
986.0
989.0
987.0
985.0
985.0
990.0
989.0
989.0
986.0
982.0
983.0
983.0
986.0
987.0
985.0
986.0
987.0
990.0
987.0
983.0
976.0
973.0
969.0
967.0
964.0
964.0
963.0
960.0
959.0
960.0
964.0
964.0
962.0
961.0
958.0
957.0
959.0
958.0
958.0
958.0
954.0
956.0
957.0
957.0
958.0
955.0
953.0
949.0
946.0
939.0
932.0
928.0
919.0
918.0
930.0
956.0
989.0
1023.0
1069.0
1131.0
1186.0
1217.0
1222.0
1182.0
1102.0
1013.0
949.0
926.0
930.0
939.0
945.0
950.0
951.0
950.0
949.0
949.0
947.0
949.0
949.0
949.0
949.0
946.0
947.0
946.0
948.0
949.0
949.0
947.0
945.0
947.0
947.0
946.0
947.0
945.0
946.0
946.0
949.0
947.0
945.0
943.0
942.0
944.0
947.0
948.0
946.0
947.0
944.0
948.0
949.0
950.0
946.0
945.0
945.0
945.0
949.0
949.0
948.0
946.0
944.0
946.0
947.0
947.0
946.0
943.0
944.0
945.0
946.0
947.0
947.0
946.0
946.0
948.0
950.0
949.0
947.0
947.0
944.0
947.0
946.0
947.0
947.0
945.0
944.0
943.0
944.0
944.0
943.0
938.0
937.0
940.0
942.0
943.0
940.0
942.0
940.0
942.0
946.0
944.0
946.0
945.0
946.0
947.0
953.0
954.0
956.0
959.0
960.0
965.0
967.0
968.0
968.0
967.0
964.0
969.0
970.0
975.0
974.0
973.0
975.0
975.0
975.0
977.0
976.0
973.0
972.0
973.0
976.0
975.0
975.0
971.0
973.0
974.0
976.0
972.0
973.0
971.0
970.0
972.0
975.0
975.0
975.0
973.0
972.0
972.0
973.0
975.0
971.0
969.0
969.0
969.0
972.0
972.0
970.0
968.0
966.0
969.0
967.0
969.0
967.0
966.0
964.0
964.0
965.0
967.0
967.0
966.0
964.0
964.0
966.0
966.0
964.0
963.0
960.0
965.0
964.0
966.0
966.0
964.0
963.0
964.0
963.0
964.0
965.0
960.0
961.0
963.0
965.0
966.0
967.0
967.0
966.0
968.0
970.0
974.0
975.0
975.0
973.0
976.0
980.0
981.0
979.0
978.0
978.0
982.0
987.0
988.0
988.0
987.0
986.0
987.0
988.0
987.0
987.0
985.0
985.0
989.0
991.0
990.0
994.0
997.0
992.0
985.0
979.0
979.0
978.0
971.0
967.0
967.0
965.0
966.0
964.0
960.0
958.0
963.0
963.0
963.0
963.0
959.0
959.0
961.0
962.0
962.0
960.0
957.0
957.0
958.0
957.0
961.0
956.0
957.0
956.0
956.0
957.0
954.0
951.0
944.0
935.0
933.0
935.0
933.0
925.0
914.0
914.0
933.0
967.0
1001.0
1040.0
1090.0
1147.0
1197.0
1224.0
1217.0
1165.0
1079.0
986.0
933.0
926.0
940.0
952.0
953.0
947.0
947.0
951.0
953.0
951.0
949.0
946.0
947.0
946.0
948.0
947.0
945.0
943.0
943.0
944.0
946.0
946.0
946.0
944.0
945.0
946.0
947.0
948.0
946.0
947.0
948.0
950.0
951.0
949.0
949.0
947.0
949.0
950.0
950.0
949.0
949.0
946.0
948.0
948.0
950.0
950.0
947.0
945.0
947.0
948.0
949.0
948.0
947.0
947.0
950.0
951.0
952.0
954.0
950.0
951.0
953.0
953.0
953.0
953.0
951.0
948.0
950.0
949.0
951.0
949.0
949.0
945.0
948.0
949.0
949.0
949.0
946.0
945.0
946.0
947.0
948.0
947.0
945.0
945.0
947.0
948.0
950.0
948.0
951.0
948.0
952.0
955.0
956.0
958.0
959.0
958.0
961.0
965.0
967.0
968.0
966.0
966.0
968.0
973.0
974.0
974.0
974.0
973.0
974.0
977.0
979.0
976.0
975.0
973.0
973.0
974.0
974.0
975.0
973.0
971.0
973.0
974.0
974.0
973.0
973.0
969.0
971.0
973.0
972.0
971.0
968.0
968.0
973.0
974.0
976.0
974.0
973.0
971.0
970.0
971.0
973.0
972.0
970.0
969.0
972.0
971.0
970.0
969.0
966.0
966.0
966.0
968.0
970.0
967.0
966.0
962.0
961.0
963.0
962.0
962.0
963.0
962.0
961.0
965.0
965.0
965.0
964.0
962.0
965.0
963.0
964.0
964.0
964.0
962.0
963.0
965.0
966.0
965.0
963.0
964.0
962.0
967.0
968.0
967.0
967.0
965.0
967.0
971.0
973.0
973.0
973.0
973.0
976.0
979.0
979.0
981.0
979.0
977.0
980.0
982.0
986.0
988.0
987.0
988.0
989.0
990.0
990.0
990.0
985.0
981.0
985.0
990.0
991.0
988.0
988.0
991.0
997.0
998.0
1002.0
997.0
988.0
981.0
979.0
978.0
980.0
975.0
974.0
969.0
969.0
967.0
967.0
965.0
965.0
962.0
963.0
964.0
966.0
963.0
960.0
960.0
960.0
960.0
962.0
961.0
959.0
957.0
957.0
962.0
961.0
959.0
958.0
957.0
955.0
952.0
945.0
938.0
935.0
924.0
917.0
918.0
937.0
965.0
993.0
1031.0
1081.0
1139.0
1188.0
1217.0
1218.0
1183.0
1114.0
1032.0
967.0
932.0
932.0
943.0
953.0
956.0
954.0
952.0
954.0
953.0
952.0
954.0
955.0
952.0
951.0
948.0
951.0
953.0
954.0
952.0
951.0
949.0
950.0
952.0
952.0
951.0
950.0
948.0
950.0
953.0
953.0
951.0
951.0
949.0
950.0
952.0
954.0
952.0
951.0
949.0
950.0
953.0
955.0
955.0
953.0
952.0
953.0
957.0
956.0
954.0
955.0
953.0
955.0
957.0
956.0
954.0
953.0
949.0
951.0
951.0
953.0
953.0
950.0
950.0
950.0
952.0
955.0
954.0
952.0
951.0
950.0
952.0
954.0
951.0
948.0
948.0
948.0
949.0
949.0
949.0
947.0
946.0
949.0
949.0
951.0
948.0
949.0
947.0
950.0
949.0
953.0
952.0
951.0
950.0
949.0
952.0
953.0
953.0
954.0
954.0
957.0
960.0
964.0
965.0
965.0
966.0
971.0
971.0
975.0
974.0
972.0
971.0
974.0
974.0
977.0
974.0
974.0
971.0
971.0
976.0
977.0
974.0
973.0
971.0
973.0
975.0
976.0
976.0
975.0
970.0
974.0
976.0
978.0
975.0
972.0
971.0
972.0
974.0
978.0
976.0
973.0
968.0
970.0
974.0
975.0
973.0
972.0
972.0
971.0
971.0
970.0
969.0
969.0
964.0
968.0
969.0
970.0
969.0
968.0
968.0
965.0
966.0
967.0
966.0
966.0
962.0
964.0
966.0
967.0
968.0
968.0
966.0
968.0
968.0
968.0
967.0
963.0
958.0
961.0
964.0
965.0
963.0
963.0
962.0
961.0
961.0
964.0
964.0
962.0
959.0
960.0
962.0
963.0
964.0
962.0
964.0
961.0
967.0
965.0
965.0
966.0
961.0
962.0
964.0
964.0
966.0
966.0
963.0
963.0
963.0
964.0
964.0
962.0
961.0
965.0
969.0
973.0
973.0
973.0
972.0
973.0
977.0
978.0
981.0
976.0
976.0
978.0
981.0
981.0
982.0
980.0
978.0
984.0
985.0
986.0
986.0
984.0
980.0
982.0
985.0
986.0
986.0
985.0
986.0
989.0
988.0
982.0
977.0
973.0
969.0
965.0
962.0
963.0
961.0
960.0
956.0
957.0
959.0
961.0
960.0
959.0
955.0
954.0
957.0
957.0
956.0
958.0
958.0
959.0
958.0
962.0
963.0
959.0
956.0
958.0
959.0
959.0
959.0
957.0
954.0
953.0
954.0
954.0
948.0
938.0
931.0
929.0
922.0
916.0
921.0
934.0
956.0
987.0
1017.0
1057.0
1104.0
1148.0
1181.0
1200.0
1197.0
1155.0
1089.0
1022.0
972.0
943.0
935.0
937.0
944.0
945.0
945.0
946.0
949.0
951.0
950.0
950.0
948.0
948.0
947.0
948.0
945.0
943.0
947.0
948.0
949.0
950.0
949.0
948.0
944.0
948.0
949.0
952.0
953.0
952.0
950.0
950.0
951.0
950.0
949.0
947.0
945.0
946.0
946.0
949.0
949.0
946.0
945.0
947.0
946.0
947.0
945.0
947.0
947.0
948.0
949.0
948.0
948.0
948.0
946.0
947.0
952.0
953.0
953.0
950.0
947.0
948.0
951.0
951.0
949.0
947.0
944.0
947.0
947.0
949.0
948.0
949.0
944.0
946.0
945.0
947.0
948.0
944.0
940.0
945.0
947.0
949.0
948.0
943.0
938.0
940.0
942.0
941.0
942.0
938.0
932.0
933.0
936.0
937.0
939.0
938.0
935.0
932.0
934.0
936.0
938.0
940.0
942.0
946.0
947.0
951.0
955.0
955.0
957.0
960.0
966.0
966.0
967.0
963.0
961.0
963.0
968.0
971.0
973.0
972.0
970.0
972.0
973.0
975.0
971.0
970.0
968.0
969.0
968.0
971.0
972.0
972.0
970.0
970.0
970.0
973.0
973.0
971.0
970.0
971.0
969.0
970.0
968.0
969.0
968.0
970.0
971.0
972.0
967.0
966.0
963.0
966.0
967.0
966.0
969.0
965.0
964.0
962.0
968.0
968.0
969.0
964.0
961.0
962.0
962.0
964.0
963.0
963.0
961.0
961.0
965.0
965.0
963.0
960.0
958.0
959.0
962.0
963.0
961.0
960.0
958.0
959.0
962.0
963.0
964.0
963.0
961.0
964.0
964.0
966.0
965.0
964.0
963.0
964.0
964.0
965.0
966.0
964.0
960.0
962.0
965.0
966.0
966.0
965.0
961.0
962.0
964.0
962.0
964.0
961.0
961.0
962.0
964.0
964.0
965.0
964.0
966.0
966.0
969.0
970.0
974.0
972.0
968.0
971.0
975.0
981.0
979.0
978.0
977.0
980.0
983.0
986.0
987.0
986.0
984.0
987.0
988.0
987.0
986.0
983.0
983.0
986.0
989.0
991.0
988.0
988.0
988.0
991.0
989.0
984.0
980.0
977.0
973.0
971.0
969.0
969.0
966.0
963.0
960.0
962.0
963.0
963.0
965.0
962.0
961.0
962.0
964.0
965.0
963.0
960.0
959.0
960.0
961.0
961.0
959.0
959.0
956.0
957.0
959.0
962.0
959.0
957.0
954.0
952.0
947.0
942.0
937.0
930.0
924.0
917.0
915.0
922.0
937.0
955.0
976.0
1002.0
1028.0
1064.0
1110.0
1152.0
1184.0
1210.0
1220.0
1206.0
1156.0
1078.0
1002.0
954.0
934.0
933.0
938.0
943.0
947.0
949.0
951.0
948.0
950.0
949.0
948.0
948.0
948.0
949.0
949.0
949.0
947.0
948.0
949.0
950.0
949.0
947.0
947.0
947.0
951.0
951.0
948.0
947.0
945.0
947.0
948.0
950.0
949.0
943.0
942.0
943.0
947.0
947.0
947.0
945.0
942.0
945.0
945.0
948.0
947.0
947.0
945.0
947.0
949.0
950.0
949.0
948.0
945.0
947.0
947.0
948.0
947.0
947.0
945.0
947.0
946.0
949.0
947.0
945.0
944.0
944.0
947.0
949.0
948.0
946.0
945.0
946.0
946.0
948.0
948.0
947.0
947.0
945.0
945.0
948.0
944.0
943.0
939.0
939.0
940.0
941.0
941.0
938.0
938.0
936.0
936.0
939.0
938.0
937.0
935.0
937.0
937.0
940.0
941.0
943.0
944.0
948.0
952.0
954.0
957.0
959.0
959.0
962.0
963.0
969.0
968.0
965.0
965.0
969.0
970.0
973.0
973.0
971.0
968.0
970.0
971.0
975.0
974.0
972.0
969.0
973.0
973.0
974.0
976.0
973.0
971.0
971.0
972.0
973.0
974.0
976.0
973.0
973.0
975.0
973.0
973.0
972.0
970.0
970.0
969.0
973.0
975.0
972.0
967.0
971.0
969.0
969.0
969.0
967.0
965.0
966.0
966.0
966.0
966.0
965.0
963.0
966.0
965.0
967.0
967.0
967.0
965.0
965.0
967.0
964.0
964.0
965.0
961.0
962.0
965.0
964.0
963.0
962.0
961.0
961.0
960.0
964.0
963.0
961.0
959.0
961.0
964.0
964.0
964.0
962.0
962.0
964.0
966.0
969.0
969.0
969.0
969.0
970.0
973.0
977.0
977.0
975.0
974.0
976.0
979.0
983.0
983.0
985.0
984.0
986.0
986.0
986.0
982.0
981.0
982.0
983.0
984.0
986.0
990.0
993.0
991.0
987.0
984.0
979.0
974.0
972.0
972.0
971.0
971.0
968.0
966.0
963.0
958.0
956.0
959.0
960.0
960.0
960.0
956.0
957.0
958.0
959.0
958.0
955.0
955.0
952.0
956.0
956.0
956.0
953.0
949.0
952.0
953.0
955.0
953.0
949.0
946.0
938.0
932.0
929.0
921.0
911.0
907.0
920.0
941.0
969.0
992.0
1015.0
1041.0
1083.0
1134.0
1184.0
1221.0
1235.0
1218.0
1164.0
1078.0
994.0
943.0
929.0
935.0
944.0
951.0
950.0
947.0
945.0
944.0
945.0
947.0
949.0
946.0
945.0
942.0
942.0
944.0
945.0
943.0
944.0
941.0
942.0
945.0
944.0
944.0
942.0
940.0
942.0
943.0
943.0
942.0
941.0
939.0
941.0
943.0
943.0
944.0
941.0
941.0
942.0
942.0
946.0
946.0
944.0
943.0
943.0
944.0
947.0
947.0
943.0
939.0
942.0
943.0
945.0
944.0
941.0
939.0
940.0
942.0
946.0
944.0
942.0
939.0
943.0
943.0
945.0
945.0
941.0
941.0
941.0
943.0
944.0
947.0
944.0
942.0
944.0
946.0
945.0
944.0
944.0
941.0
942.0
942.0
944.0
944.0
942.0
939.0
941.0
940.0
941.0
941.0
940.0
940.0
939.0
943.0
944.0
943.0
942.0
941.0
945.0
949.0
951.0
954.0
955.0
954.0
957.0
960.0
964.0
964.0
964.0
963.0
964.0
966.0
967.0
966.0
966.0
966.0
966.0
968.0
969.0
969.0
967.0
967.0
968.0
971.0
970.0
970.0
967.0
967.0
966.0
969.0
972.0
969.0
967.0
965.0
966.0
966.0
970.0
967.0
965.0
962.0
962.0
962.0
964.0
964.0
963.0
960.0
962.0
963.0
966.0
964.0
960.0
959.0
960.0
961.0
962.0
961.0
960.0
956.0
958.0
961.0
961.0
959.0
960.0
957.0
958.0
960.0
962.0
960.0
959.0
957.0
958.0
959.0
960.0
961.0
958.0
956.0
956.0
959.0
961.0
959.0
957.0
956.0
956.0
958.0
960.0
960.0
957.0
957.0
956.0
957.0
960.0
959.0
958.0
958.0
960.0
963.0
963.0
963.0
965.0
969.0
967.0
973.0
974.0
975.0
975.0
974.0
975.0
977.0
978.0
982.0
979.0
979.0
981.0
984.0
985.0
985.0
982.0
980.0
981.0
981.0
985.0
984.0
983.0
984.0
988.0
993.0
991.0
981.0
975.0
970.0
969.0
968.0
964.0
957.0
956.0
953.0
953.0
957.0
959.0
958.0
954.0
954.0
955.0
956.0
957.0
957.0
956.0
951.0
952.0
953.0
955.0
953.0
954.0
950.0
953.0
951.0
951.0
952.0
953.0
949.0
951.0
948.0
944.0
936.0
927.0
920.0
915.0
908.0
917.0
941.0
971.0
1004.0
1044.0
1096.0
1151.0
1192.0
1213.0
1208.0
1170.0
1101.0
1020.0
954.0
927.0
928.0
938.0
947.0
948.0
948.0
945.0
942.0
943.0
946.0
945.0
945.0
944.0
943.0
942.0
944.0
945.0
945.0
944.0
941.0
942.0
944.0
944.0
945.0
944.0
943.0
942.0
942.0
944.0
946.0
944.0
941.0
943.0
942.0
945.0
945.0
942.0
941.0
941.0
943.0
945.0
946.0
944.0
942.0
942.0
943.0
946.0
946.0
942.0
943.0
942.0
945.0
947.0
945.0
944.0
941.0
944.0
945.0
947.0
945.0
944.0
943.0
941.0
943.0
944.0
944.0
943.0
940.0
942.0
943.0
946.0
944.0
942.0
939.0
941.0
943.0
943.0
939.0
938.0
937.0
937.0
939.0
941.0
942.0
941.0
939.0
939.0
944.0
942.0
942.0
938.0
940.0
941.0
947.0
948.0
950.0
947.0
947.0
948.0
952.0
953.0
956.0
956.0
955.0
956.0
961.0
964.0
964.0
965.0
962.0
966.0
967.0
969.0
968.0
966.0
966.0
968.0
971.0
970.0
970.0
969.0
967.0
967.0
966.0
966.0
967.0
964.0
963.0
964.0
966.0
967.0
965.0
965.0
964.0
965.0
966.0
966.0
966.0
965.0
963.0
962.0
