# Simple Text Format
# Sampling Rate (Hz):= 360.00
# Resolution:= 12
# Labels:= ECG
945.0
948.0
945.0
943.0
944.0
946.0
949.0
948.0
947.0
946.0
950.0
953.0
955.0
956.0
958.0
958.0
959.0
962.0
962.0
962.0
965.0
964.0
965.0
967.0
970.0
969.0
969.0
966.0
968.0
969.0
973.0
971.0
971.0
968.0
969.0
968.0
969.0
969.0
966.0
962.0
964.0
966.0
968.0
967.0
965.0
963.0
963.0
962.0
964.0
963.0
963.0
962.0
961.0
964.0
965.0
965.0
964.0
962.0
961.0
963.0
963.0
962.0
963.0
960.0
962.0
962.0
962.0
962.0
962.0
960.0
957.0
959.0
961.0
960.0
957.0
954.0
955.0
957.0
957.0
957.0
955.0
952.0
954.0
954.0
956.0
955.0
955.0
951.0
953.0
954.0
956.0
956.0
955.0
952.0
955.0
955.0
955.0
956.0
954.0
953.0
952.0
953.0
957.0
956.0
956.0
954.0
955.0
958.0
964.0
964.0
966.0
965.0
966.0
967.0
972.0
971.0
971.0
967.0
966.0
970.0
974.0
978.0
977.0
977.0
976.0
977.0
979.0
979.0
977.0
976.0
974.0
977.0
981.0
980.0
980.0
981.0
985.0
987.0
983.0
975.0
968.0
964.0
963.0
962.0
959.0
957.0
954.0
949.0
950.0
951.0
952.0
953.0
951.0
949.0
951.0
953.0
955.0
955.0
953.0
951.0
950.0
951.0
952.0
952.0
951.0
948.0
947.0
950.0
952.0
951.0
948.0
945.0
939.0
936.0
927.0
922.0
913.0
902.0
903.0
919.0
944.0
974.0
1008.0
1050.0
1104.0
1155.0
1186.0
1194.0
1167.0
1105.0
1024.0
961.0
929.0
923.0
927.0
930.0
932.0
933.0
936.0
938.0
936.0
934.0
933.0
933.0
936.0
933.0
933.0
930.0
932.0
935.0
937.0
938.0
936.0
937.0
935.0
937.0
939.0
938.0
937.0
934.0
934.0
936.0
937.0
938.0
932.0
932.0
932.0
933.0
933.0
935.0
933.0
930.0
931.0
933.0
933.0
933.0
931.0
931.0
929.0
934.0
934.0
934.0
933.0
931.0
932.0
933.0
935.0
938.0
936.0
934.0
931.0
935.0
937.0
934.0
931.0
931.0
932.0
933.0
935.0
935.0
931.0
931.0
929.0
932.0
930.0
929.0
930.0
929.0
930.0
930.0
933.0
932.0
930.0
927.0
927.0
928.0
931.0
928.0
924.0
924.0
925.0
925.0
927.0
927.0
927.0
928.0
929.0
931.0
933.0
933.0
933.0
934.0
935.0
939.0
942.0
941.0
944.0
945.0
946.0
950.0
952.0
949.0
948.0
947.0
949.0
952.0
958.0
956.0
954.0
953.0
954.0
956.0
957.0
958.0
955.0
951.0
954.0
956.0
959.0
957.0
956.0
954.0
954.0
957.0
958.0
955.0
954.0
953.0
953.0
955.0
959.0
956.0
955.0
952.0
952.0
954.0
955.0
956.0
952.0
950.0
950.0
947.0
952.0
951.0
949.0
948.0
949.0
952.0
956.0
952.0
951.0
949.0
947.0
949.0
951.0
951.0
948.0
947.0
943.0
948.0
949.0
948.0
946.0
943.0
945.0
946.0
947.0
947.0
948.0
946.0
946.0
947.0
946.0
947.0
944.0
942.0
946.0
947.0
952.0
953.0
951.0
949.0
948.0
952.0
954.0
951.0
949.0
947.0
946.0
949.0
952.0
953.0
952.0
950.0
949.0
949.0
951.0
949.0
948.0
946.0
949.0
954.0
957.0
961.0
960.0
959.0
960.0
964.0
966.0
967.0
967.0
967.0
967.0
970.0
974.0
977.0
975.0
971.0
968.0
967.0
969.0
969.0
968.0
969.0
970.0
975.0
978.0
977.0
971.0
965.0
957.0
956.0
956.0
953.0
949.0
946.0
950.0
948.0
951.0
950.0
949.0
949.0
945.0
948.0
950.0
950.0
947.0
941.0
940.0
943.0
945.0
941.0
940.0
938.0
938.0
938.0
940.0
939.0
939.0
939.0
939.0
939.0
940.0
937.0
928.0
922.0
917.0
912.0
906.0
904.0
910.0
932.0
958.0
993.0
1032.0
1082.0
1132.0
1170.0
1191.0
1181.0
1135.0
1053.0
979.0
931.0
915.0
912.0
919.0
927.0
929.0
929.0
928.0
932.0
933.0
933.0
928.0
929.0
928.0
930.0
932.0
927.0
928.0
926.0
927.0
928.0
929.0
929.0
930.0
928.0
927.0
931.0
933.0
931.0
932.0
928.0
926.0
927.0
931.0
929.0
927.0
927.0
926.0
930.0
931.0
930.0
927.0
925.0
926.0
928.0
931.0
928.0
928.0
926.0
924.0
930.0
931.0
933.0
933.0
930.0
932.0
934.0
933.0
933.0
930.0
932.0
929.0
930.0
932.0
930.0
928.0
926.0
925.0
925.0
927.0
928.0
927.0
927.0
927.0
928.0
931.0
930.0
928.0
927.0
924.0
926.0
927.0
926.0
923.0
920.0
919.0
921.0
923.0
922.0
920.0
920.0
919.0
921.0
925.0
923.0
924.0
925.0
927.0
934.0
938.0
941.0
945.0
946.0
950.0
954.0
955.0
956.0
960.0
960.0
961.0
961.0
962.0
965.0
963.0
961.0
960.0
964.0
966.0
964.0
961.0
961.0
961.0
962.0
964.0
964.0
963.0
963.0
962.0
965.0
967.0
968.0
964.0
962.0
963.0
963.0
964.0
965.0
963.0
962.0
961.0
962.0
965.0
960.0
959.0
959.0
958.0
961.0
962.0
962.0
959.0
957.0
957.0
958.0
960.0
957.0
957.0
954.0
956.0
957.0
960.0
958.0
959.0
958.0
958.0
959.0
961.0
960.0
959.0
956.0
956.0
958.0
959.0
956.0
956.0
954.0
955.0
955.0
958.0
958.0
958.0
954.0
955.0
958.0
958.0
960.0
960.0
958.0
958.0
960.0
963.0
962.0
957.0
960.0
960.0
962.0
964.0
965.0
967.0
966.0
967.0
970.0
973.0
973.0
973.0
974.0
972.0
976.0
979.0
979.0
981.0
977.0
978.0
981.0
985.0
988.0
984.0
983.0
984.0
982.0
984.0
985.0
983.0
982.0
983.0
986.0
991.0
991.0
989.0
982.0
974.0
973.0
970.0
969.0
964.0
960.0
960.0
959.0
960.0
960.0
957.0
958.0
956.0
956.0
960.0
957.0
957.0
955.0
954.0
955.0
957.0
956.0
954.0
952.0
954.0
955.0
957.0
955.0
953.0
946.0
941.0
937.0
933.0
926.0
917.0
911.0
917.0
942.0
973.0
1005.0
1041.0
1088.0
1145.0
1194.0
1223.0
1241.0
1252.0
1244.0
1213.0
1164.0
1109.0
1043.0
983.0
940.0
918.0
915.0
922.0
935.0
940.0
943.0
944.0
944.0
949.0
947.0
946.0
947.0
946.0
947.0
950.0
948.0
949.0
944.0
945.0
944.0
945.0
945.0
943.0
941.0
943.0
944.0
943.0
946.0
942.0
943.0
944.0
947.0
947.0
946.0
947.0
945.0
944.0
947.0
948.0
944.0
946.0
942.0
940.0
944.0
946.0
945.0
944.0
942.0
943.0
941.0
946.0
943.0
942.0
941.0
942.0
944.0
943.0
946.0
942.0
943.0
946.0
944.0
948.0
947.0
945.0
946.0
945.0
944.0
949.0
946.0
943.0
940.0
941.0
940.0
944.0
943.0
940.0
940.0
938.0
941.0
944.0
939.0
941.0
938.0
939.0
944.0
943.0
945.0
943.0
942.0
943.0
947.0
947.0
948.0
949.0
947.0
951.0
956.0
959.0
959.0
961.0
961.0
963.0
965.0
968.0
969.0
971.0
968.0
968.0
972.0
973.0
973.0
970.0
970.0
969.0
972.0
973.0
972.0
971.0
969.0
970.0
969.0
971.0
971.0
970.0
968.0
967.0
968.0
970.0
969.0
972.0
970.0
968.0
970.0
969.0
969.0
967.0
966.0
964.0
967.0
968.0
967.0
965.0
963.0
964.0
964.0
967.0
965.0
963.0
960.0
960.0
963.0
965.0
962.0
960.0
959.0
958.0
963.0
966.0
964.0
961.0
960.0
958.0
959.0
961.0
959.0
959.0
956.0
957.0
958.0
959.0
959.0
959.0
958.0
957.0
960.0
961.0
962.0
959.0
959.0
961.0
963.0
965.0
965.0
964.0
962.0
961.0
967.0
970.0
971.0
971.0
971.0
970.0
973.0
979.0
978.0
976.0
976.0
976.0
977.0
982.0
980.0
980.0
981.0
980.0
984.0
984.0
985.0
984.0
982.0
981.0
981.0
984.0
977.0
980.0
981.0
981.0
984.0
988.0
992.0
991.0
987.0
980.0
975.0
974.0
973.0
966.0
964.0
960.0
958.0
958.0
955.0
953.0
952.0
952.0
955.0
956.0
953.0
953.0
951.0
952.0
953.0
956.0
956.0
955.0
952.0
951.0
952.0
955.0
955.0
951.0
950.0
948.0
945.0
938.0
930.0
925.0
916.0
910.0
909.0
926.0
953.0
981.0
1015.0
1060.0
1116.0
1169.0
1202.0
1208.0
1184.0
1115.0
1031.0
962.0
925.0
917.0
924.0
932.0
942.0
945.0
943.0
941.0
938.0
937.0
942.0
943.0
941.0
939.0
937.0
938.0
938.0
941.0
940.0
937.0
939.0
939.0
942.0
942.0
943.0
942.0
940.0
941.0
940.0
941.0
941.0
938.0
940.0
939.0
939.0
942.0
941.0
941.0
938.0
940.0
941.0
944.0
943.0
941.0
941.0
939.0
940.0
944.0
942.0
941.0
941.0
937.0
937.0
940.0
938.0
940.0
940.0
937.0
938.0
941.0
938.0
936.0
937.0
936.0
936.0
939.0
940.0
938.0
939.0
938.0
940.0
941.0
943.0
940.0
938.0
937.0
941.0
941.0
939.0
939.0
937.0
934.0
937.0
938.0
938.0
936.0
935.0
932.0
935.0
938.0
939.0
939.0
938.0
939.0
944.0
946.0
948.0
951.0
951.0
953.0
958.0
960.0
959.0
958.0
959.0
961.0
962.0
965.0
964.0
962.0
963.0
962.0
965.0
964.0
966.0
964.0
962.0
961.0
963.0
966.0
966.0
966.0
965.0
964.0
967.0
966.0
965.0
963.0
960.0
959.0
961.0
963.0
963.0
960.0
959.0
958.0
959.0
962.0
959.0
956.0
956.0
954.0
957.0
959.0
961.0
959.0
957.0
954.0
956.0
959.0
957.0
956.0
955.0
954.0
954.0
958.0
955.0
953.0
952.0
951.0
950.0
953.0
952.0
952.0
949.0
948.0
951.0
954.0
954.0
954.0
954.0
954.0
955.0
957.0
955.0
953.0
954.0
954.0
956.0
958.0
956.0
956.0
955.0
953.0
954.0
955.0
955.0
954.0
954.0
956.0
960.0
964.0
962.0
964.0
965.0
964.0
967.0
972.0
970.0
970.0
971.0
972.0
976.0
977.0
977.0
978.0
975.0
973.0
974.0
974.0
971.0
971.0
971.0
973.0
975.0
979.0
978.0
977.0
982.0
983.0
981.0
975.0
970.0
969.0
965.0
959.0
957.0
954.0
951.0
949.0
949.0
951.0
950.0
952.0
949.0
951.0
947.0
947.0
947.0
951.0
950.0
948.0
947.0
945.0
947.0
950.0
951.0
950.0
948.0
947.0
947.0
949.0
945.0
942.0
929.0
923.0
920.0
915.0
904.0
908.0
925.0
953.0
983.0
1023.0
1071.0
1124.0
1160.0
1178.0
1175.0
1135.0
1066.0
994.0
938.0
916.0
915.0
927.0
936.0
939.0
937.0
935.0
938.0
943.0
940.0
938.0
936.0
934.0
934.0
936.0
934.0
932.0
930.0
929.0
931.0
933.0
931.0
930.0
931.0
930.0
935.0
936.0
937.0
934.0
934.0
932.0
934.0
933.0
931.0
930.0
930.0
930.0
931.0
933.0
931.0
932.0
930.0
931.0
931.0
934.0
932.0
927.0
930.0
929.0
929.0
931.0
931.0
932.0
934.0
932.0
936.0
936.0
936.0
934.0
933.0
932.0
932.0
933.0
932.0
931.0
931.0
931.0
931.0
935.0
934.0
931.0
928.0
927.0
931.0
928.0
928.0
927.0
924.0
926.0
926.0
928.0
929.0
926.0
925.0
925.0
929.0
929.0
928.0
924.0
923.0
925.0
929.0
931.0
928.0
929.0
931.0
932.0
937.0
939.0
940.0
941.0
939.0
939.0
944.0
948.0
948.0
947.0
947.0
947.0
951.0
955.0
954.0
953.0
952.0
953.0
954.0
955.0
952.0
953.0
952.0
950.0
954.0
954.0
953.0
949.0
951.0
950.0
950.0
954.0
952.0
949.0
948.0
947.0
949.0
950.0
951.0
947.0
945.0
944.0
945.0
949.0
948.0
949.0
947.0
948.0
948.0
947.0
945.0
944.0
945.0
943.0
946.0
946.0
942.0
940.0
942.0
939.0
942.0
943.0
943.0
942.0
941.0
940.0
943.0
945.0
943.0
941.0
940.0
939.0
942.0
945.0
945.0
945.0
943.0
942.0
941.0
939.0
940.0
938.0
938.0
937.0
939.0
939.0
940.0
941.0
941.0
940.0
941.0
943.0
942.0
943.0
941.0
942.0
945.0
945.0
944.0
943.0
942.0
941.0
944.0
945.0
947.0
948.0
947.0
945.0
950.0
951.0
950.0
952.0
952.0
952.0
957.0
962.0
963.0
962.0
964.0
961.0
965.0
962.0
962.0
959.0
958.0
961.0
963.0
963.0
962.0
963.0
961.0
958.0
956.0
958.0
955.0
953.0
951.0
948.0
948.0
946.0
942.0
938.0
936.0
934.0
933.0
936.0
935.0
936.0
933.0
934.0
936.0
937.0
938.0
936.0
932.0
935.0
935.0
936.0
933.0
932.0
928.0
930.0
930.0
932.0
931.0
925.0
914.0
911.0
906.0
899.0
892.0
892.0
908.0
938.0
967.0
1002.0
1047.0
1099.0
1141.0
1172.0
1180.0
1153.0
1089.0
1010.0
945.0
911.0
905.0
910.0
915.0
918.0
920.0
920.0
920.0
923.0
925.0
924.0
924.0
924.0
926.0
928.0
924.0
925.0
923.0
920.0
924.0
924.0
925.0
924.0
923.0
920.0
922.0
923.0
925.0
922.0
921.0
920.0
921.0
921.0
922.0
920.0
920.0
921.0
923.0
927.0
925.0
924.0
924.0
920.0
924.0
924.0
923.0
922.0
922.0
922.0
923.0
924.0
924.0
921.0
920.0
921.0
923.0
925.0
926.0
926.0
924.0
923.0
926.0
927.0
928.0
928.0
925.0
922.0
923.0
926.0
924.0
922.0
921.0
921.0
921.0
923.0
923.0
921.0
919.0
917.0
918.0
920.0
917.0
916.0
914.0
916.0
916.0
917.0
921.0
917.0
915.0
915.0
918.0
920.0
921.0
921.0
917.0
920.0
922.0
928.0
927.0
930.0
931.0
934.0
939.0
941.0
946.0
946.0
946.0
948.0
951.0
955.0
955.0
954.0
954.0
954.0
956.0
957.0
958.0
956.0
953.0
955.0
957.0
957.0
956.0
958.0
956.0
954.0
955.0
958.0
958.0
956.0
955.0
954.0
958.0
958.0
959.0
956.0
954.0
953.0
959.0
957.0
960.0
958.0
955.0
955.0
956.0
958.0
957.0
951.0
950.0
951.0
952.0
954.0
953.0
952.0
949.0
950.0
950.0
953.0
951.0
950.0
945.0
946.0
949.0
952.0
952.0
952.0
951.0
949.0
952.0
953.0
954.0
952.0
951.0
950.0
952.0
955.0
953.0
951.0
951.0
948.0
950.0
951.0
952.0
950.0
950.0
950.0
952.0
952.0
952.0
951.0
949.0
948.0
952.0
952.0
953.0
952.0
952.0
952.0
953.0
957.0
956.0
958.0
959.0
959.0
964.0
965.0
965.0
965.0
967.0
965.0
970.0
970.0
970.0
974.0
973.0
972.0
970.0
975.0
973.0
970.0
971.0
972.0
976.0
975.0
978.0
977.0
980.0
981.0
977.0
971.0
968.0
963.0
962.0
962.0
964.0
963.0
958.0
953.0
951.0
949.0
949.0
949.0
950.0
952.0
947.0
946.0
945.0
946.0
948.0
947.0
945.0
944.0
947.0
948.0
948.0
946.0
945.0
944.0
946.0
946.0
947.0
944.0
940.0
933.0
928.0
923.0
921.0
914.0
903.0
903.0
919.0
942.0
970.0
1001.0
1038.0
1090.0
1143.0
1181.0
1203.0
1203.0
1167.0
1097.0
1015.0
954.0
921.0
916.0
923.0
933.0
938.0
940.0
939.0
935.0
935.0
936.0
937.0
938.0
937.0
934.0
934.0
931.0
932.0
934.0
932.0
931.0
933.0
932.0
932.0
936.0
937.0
932.0
933.0
935.0
935.0
937.0
935.0
934.0
934.0
933.0
935.0
937.0
937.0
937.0
935.0
931.0
933.0
936.0
936.0
933.0
933.0
930.0
934.0
933.0
932.0
932.0
930.0
931.0
934.0
936.0
935.0
934.0
932.0
931.0
934.0
933.0
934.0
934.0
931.0
931.0
933.0
934.0
934.0
930.0
930.0
931.0
932.0
934.0
932.0
933.0
932.0
931.0
930.0
932.0
933.0
930.0
929.0
928.0
933.0
933.0
933.0
932.0
931.0
929.0
931.0
932.0
932.0
929.0
928.0
927.0
930.0
932.0
933.0
932.0
929.0
933.0
937.0
940.0
942.0
943.0
944.0
945.0
949.0
954.0
954.0
954.0
954.0
954.0
956.0
960.0
960.0
959.0
959.0
956.0
958.0
961.0
959.0
959.0
957.0
958.0
959.0
962.0
961.0
956.0
956.0
958.0
959.0
960.0
961.0
959.0
958.0
958.0
958.0
962.0
961.0
961.0
958.0
956.0
957.0
960.0
959.0
956.0
955.0
954.0
957.0
958.0
957.0
954.0
951.0
952.0
954.0
953.0
953.0
952.0
951.0
949.0
950.0
952.0
952.0
950.0
950.0
952.0
952.0
953.0
953.0
952.0
949.0
949.0
949.0
952.0
951.0
949.0
949.0
946.0
949.0
951.0
948.0
948.0
948.0
946.0
952.0
953.0
954.0
951.0
952.0
949.0
950.0
951.0
953.0
950.0
949.0
950.0
951.0
953.0
953.0
954.0
953.0
951.0
952.0
956.0
959.0
959.0
958.0
961.0
961.0
962.0
964.0
964.0
962.0
966.0
969.0
973.0
974.0
975.0
973.0
975.0
976.0
978.0
974.0
973.0
969.0
970.0
972.0
973.0
975.0
978.0
979.0
971.0
967.0
964.0
962.0
960.0
953.0
953.0
953.0
953.0
950.0
949.0
949.0
949.0
950.0
951.0
949.0
947.0
943.0
941.0
945.0
946.0
946.0
943.0
943.0
941.0
944.0
946.0
945.0
943.0
941.0
942.0
940.0
937.0
930.0
924.0
918.0
913.0
907.0
907.0
921.0
944.0
972.0
1005.0
1045.0
1096.0
1147.0
1185.0
1208.0
1215.0
1201.0
1161.0
1103.0
1042.0
992.0
953.0
924.0
907.0
899.0
899.0
902.0
909.0
920.0
928.0
931.0
931.0
928.0
927.0
931.0
931.0
933.0
930.0
930.0
928.0
930.0
932.0
931.0
931.0
929.0
928.0
928.0
931.0
931.0
930.0
928.0
927.0
928.0
930.0
930.0
927.0
926.0
927.0
929.0
930.0
929.0
929.0
928.0
927.0
932.0
933.0
933.0
930.0
930.0
931.0
932.0
932.0
931.0
929.0
928.0
930.0
929.0
933.0
932.0
929.0
929.0
927.0
930.0
933.0
934.0
933.0
930.0
930.0
931.0
931.0
932.0
932.0
927.0
929.0
929.0
929.0
930.0
929.0
927.0
927.0
930.0
933.0
930.0
928.0
926.0
928.0
930.0
931.0
933.0
931.0
928.0
926.0
929.0
929.0
931.0
929.0
925.0
926.0
929.0
930.0
929.0
928.0
929.0
928.0
930.0
933.0
935.0
933.0
934.0
934.0
939.0
939.0
942.0
946.0
944.0
947.0
950.0
953.0
955.0
954.0
954.0
954.0
958.0
956.0
957.0
955.0
953.0
954.0
955.0
957.0
957.0
959.0
953.0
953.0
955.0
957.0
956.0
955.0
955.0
952.0
954.0
956.0
956.0
957.0
953.0
953.0
955.0
956.0
957.0
954.0
952.0
952.0
952.0
953.0
953.0
951.0
948.0
949.0
951.0
951.0
952.0
949.0
947.0
947.0
947.0
948.0
948.0
946.0
944.0
942.0
945.0
947.0
946.0
946.0
945.0
946.0
945.0
948.0
947.0
944.0
946.0
944.0
947.0
945.0
945.0
943.0
941.0
944.0
944.0
946.0
946.0
944.0
942.0
940.0
942.0
944.0
943.0
944.0
943.0
941.0
943.0
946.0
948.0
946.0
946.0
944.0
947.0
948.0
950.0
949.0
948.0
946.0
946.0
950.0
951.0
951.0
952.0
955.0
958.0
961.0
962.0
962.0
962.0
960.0
961.0
966.0
965.0
968.0
966.0
968.0
971.0
972.0
971.0
969.0
965.0
964.0
969.0
974.0
973.0
972.0
970.0
975.0
977.0
975.0
969.0
960.0
960.0
953.0
954.0
953.0
952.0
950.0
948.0
946.0
947.0
948.0
947.0
946.0
944.0
943.0
944.0
943.0
944.0
943.0
939.0
938.0
938.0
941.0
939.0
939.0
937.0
938.0
939.0
941.0
941.0
940.0
937.0
936.0
936.0
934.0
932.0
925.0
917.0
914.0
909.0
901.0
899.0
905.0
925.0
950.0
979.0
1016.0
1063.0
1111.0
1147.0
1172.0
1180.0
1156.0
1102.0
1030.0
963.0
921.0
909.0
914.0
924.0
929.0
928.0
925.0
928.0
929.0
929.0
927.0
925.0
926.0
927.0
929.0
928.0
926.0
925.0
923.0
927.0
927.0
927.0
927.0
924.0
926.0
927.0
929.0
928.0
927.0
928.0
925.0
924.0
928.0
929.0
927.0
925.0
923.0
927.0
928.0
927.0
926.0
926.0
923.0
925.0
929.0
929.0
928.0
926.0
925.0
927.0
927.0
930.0
929.0
927.0
927.0
928.0
929.0
926.0
925.0
923.0
922.0
926.0
928.0
927.0
926.0
923.0
922.0
925.0
927.0
926.0
927.0
925.0
923.0
925.0
925.0
925.0
924.0
924.0
922.0
923.0
923.0
925.0
924.0
920.0
919.0
921.0
919.0
922.0
920.0
920.0
918.0
919.0
920.0
918.0
915.0
917.0
918.0
920.0
922.0
922.0
923.0
923.0
926.0
928.0
932.0
935.0
937.0
938.0
938.0
941.0
942.0
941.0
943.0
941.0
940.0
944.0
947.0
947.0
944.0
943.0
942.0
947.0
947.0
946.0
946.0
947.0
946.0
950.0
952.0
954.0
952.0
948.0
946.0
946.0
947.0
949.0
948.0
946.0
947.0
948.0
950.0
948.0
947.0
945.0
944.0
945.0
947.0
945.0
943.0
943.0
944.0
946.0
948.0
947.0
947.0
943.0
942.0
944.0
944.0
944.0
942.0
940.0
940.0
941.0
941.0
941.0
941.0
937.0
941.0
941.0
942.0
940.0
940.0
939.0
938.0
941.0
943.0
944.0
946.0
945.0
942.0
939.0
941.0
944.0
941.0
940.0
939.0
940.0
944.0
942.0
942.0
939.0
938.0
941.0
946.0
946.0
944.0
943.0
941.0
941.0
943.0
943.0
940.0
939.0
940.0
943.0
942.0
945.0
941.0
941.0
939.0
943.0
945.0
944.0
944.0
944.0
944.0
945.0
947.0
948.0
945.0
945.0
946.0
949.0
952.0
951.0
953.0
950.0
951.0
956.0
960.0
961.0
961.0
963.0
964.0
967.0
968.0
968.0
967.0
964.0
963.0
963.0
964.0
967.0
964.0
964.0
965.0
969.0
967.0
962.0
956.0
952.0
949.0
948.0
945.0
943.0
939.0
937.0
937.0
937.0
940.0
942.0
942.0
940.0
937.0
937.0
937.0
939.0
937.0
932.0
931.0
935.0
936.0
938.0
938.0
935.0
935.0
934.0
935.0
935.0
933.0
930.0
925.0
921.0
919.0
914.0
908.0
895.0
894.0
910.0
935.0
968.0
1008.0
1053.0
1112.0
1161.0
1187.0
1178.0
1124.0
1038.0
957.0
914.0
903.0
912.0
918.0
920.0
922.0
924.0
927.0
928.0
927.0
928.0
925.0
927.0
927.0
927.0
928.0
924.0
922.0
926.0
925.0
926.0
927.0
923.0
923.0
926.0
926.0
927.0
925.0
926.0
924.0
926.0
928.0
928.0
925.0
923.0
924.0
925.0
925.0
928.0
927.0
924.0
923.0
928.0
928.0
927.0
927.0
925.0
925.0
926.0
927.0
926.0
926.0
923.0
921.0
922.0
924.0
925.0
924.0
924.0
924.0
928.0
931.0
929.0
927.0
926.0
924.0
925.0
926.0
925.0
925.0
922.0
922.0
924.0
926.0
924.0
922.0
920.0
920.0
920.0
922.0
919.0
918.0
917.0
916.0
916.0
919.0
917.0
917.0
916.0
917.0
919.0
923.0
921.0
925.0
926.0
927.0
933.0
935.0
940.0
941.0
941.0
944.0
948.0
954.0
954.0
955.0
953.0
954.0
955.0
956.0
958.0
956.0
956.0
956.0
957.0
957.0
959.0
958.0
956.0
956.0
958.0
962.0
959.0
960.0
957.0
957.0
960.0
960.0
959.0
957.0
954.0
953.0
956.0
959.0
959.0
957.0
954.0
954.0
956.0
954.0
955.0
955.0
952.0
952.0
955.0
956.0
957.0
957.0
954.0
952.0
955.0
955.0
955.0
954.0
952.0
952.0
954.0
955.0
955.0
953.0
951.0
948.0
952.0
953.0
953.0
953.0
948.0
950.0
948.0
954.0
955.0
954.0
953.0
955.0
953.0
956.0
957.0
956.0
951.0
952.0
955.0
956.0
957.0
953.0
953.0
951.0
953.0
955.0
953.0
953.0
951.0
948.0
954.0
955.0
956.0
958.0
956.0
958.0
960.0
963.0
966.0
964.0
964.0
966.0
970.0
971.0
970.0
971.0
971.0
973.0
975.0
976.0
976.0
975.0
975.0
974.0
979.0
981.0
981.0
978.0
975.0
974.0
974.0
977.0
977.0
975.0
977.0
976.0
981.0
986.0
986.0
980.0
971.0
965.0
964.0
965.0
960.0
957.0
952.0
952.0
955.0
954.0
955.0
953.0
950.0
949.0
950.0
952.0
953.0
949.0
950.0
950.0
950.0
953.0
952.0
950.0
949.0
949.0
950.0
953.0
950.0
946.0
943.0
934.0
927.0
924.0
918.0
911.0
904.0
916.0
942.0
974.0
1011.0
1058.0
1114.0
1166.0
1201.0
1211.0
1182.0
1108.0
1014.0
939.0
915.0
923.0
938.0
943.0
941.0
937.0
939.0
942.0
943.0
941.0
939.0
936.0
938.0
942.0
940.0
939.0
939.0
937.0
940.0
942.0
941.0
939.0
939.0
938.0
939.0
942.0
942.0
938.0
939.0
937.0
937.0
940.0
939.0
939.0
937.0
937.0
939.0
940.0
939.0
938.0
938.0
935.0
937.0
939.0
941.0
939.0
937.0
940.0
942.0
943.0
942.0
942.0
939.0
938.0
939.0
939.0
940.0
938.0
937.0
935.0
939.0
939.0
941.0
937.0
935.0
935.0
939.0
937.0
939.0
937.0
934.0
934.0
938.0
938.0
938.0
936.0
934.0
935.0
936.0
938.0
936.0
937.0
933.0
934.0
936.0
937.0
938.0
939.0
937.0
938.0
942.0
944.0
945.0
948.0
947.0
949.0
952.0
954.0
956.0
954.0
954.0
955.0
961.0
965.0
964.0
965.0
962.0
964.0
965.0
968.0
967.0
967.0
961.0
963.0
964.0
968.0
965.0
965.0
964.0
961.0
963.0
965.0
966.0
966.0
965.0
964.0
964.0
965.0
963.0
962.0
963.0
962.0
962.0
963.0
961.0
961.0
960.0
959.0
959.0
962.0
960.0
960.0
956.0
957.0
957.0
959.0
958.0
959.0
955.0
955.0
958.0
957.0
961.0
958.0
956.0
958.0
959.0
957.0
956.0
957.0
954.0
952.0
954.0
956.0
957.0
956.0
956.0
954.0
954.0
957.0
957.0
957.0
953.0
952.0
955.0
957.0
959.0
957.0
955.0
955.0
957.0
960.0
959.0
958.0
957.0
960.0
962.0
964.0
965.0
963.0
963.0
967.0
968.0
973.0
973.0
973.0
973.0
973.0
976.0
980.0
983.0
981.0
981.0
980.0
981.0
983.0
982.0
977.0
979.0
978.0
981.0
985.0
987.0
988.0
985.0
976.0
973.0
973.0
967.0
969.0
962.0
956.0
957.0
959.0
956.0
955.0
955.0
956.0
957.0
958.0
957.0
956.0
953.0
952.0
953.0
954.0
954.0
953.0
951.0
949.0
953.0
954.0
954.0
953.0
950.0
948.0
947.0
943.0
935.0
926.0
920.0
912.0
908.0
918.0
942.0
967.0
985.0
1003.0
1030.0
1060.0
1096.0
1137.0
1166.0
1190.0
1210.0
1214.0
1180.0
1103.0
1012.0
944.0
918.0
922.0
936.0
942.0
942.0
939.0
940.0
942.0
944.0
941.0
938.0
939.0
940.0
941.0
941.0
939.0
937.0
934.0
939.0
939.0
937.0
938.0
937.0
936.0
937.0
938.0
938.0
937.0
937.0
934.0
938.0
939.0
940.0
938.0
938.0
939.0
942.0
943.0
944.0
942.0
942.0
941.0
943.0
944.0
943.0
940.0
939.0
935.0
938.0
940.0
942.0
938.0
938.0
935.0
940.0
940.0
940.0
941.0
938.0
937.0
941.0
942.0
943.0
941.0
939.0
938.0
940.0
940.0
940.0
939.0
936.0
934.0
936.0
939.0
937.0
937.0
932.0
932.0
935.0
936.0
937.0
935.0
935.0
934.0
938.0
939.0
939.0
939.0
939.0
939.0
937.0
939.0
938.0
938.0
937.0
938.0
943.0
944.0
949.0
950.0
949.0
949.0
955.0
957.0
957.0
958.0
958.0
960.0
961.0
960.0
960.0
963.0
960.0
960.0
963.0
964.0
964.0
964.0
961.0
960.0
962.0
961.0
963.0
963.0
961.0
960.0
962.0
962.0
961.0
958.0
955.0
955.0
958.0
958.0
960.0
959.0
958.0
957.0
958.0
960.0
961.0
960.0
959.0
956.0
960.0
958.0
958.0
955.0
953.0
951.0
954.0
953.0
954.0
954.0
950.0
949.0
949.0
955.0
951.0
950.0
950.0
948.0
949.0
953.0
952.0
950.0
948.0
948.0
951.0
951.0
952.0
954.0
952.0
948.0
952.0
953.0
952.0
950.0
947.0
947.0
949.0
952.0
954.0
949.0
949.0
950.0
952.0
955.0
956.0
956.0
952.0
950.0
954.0
954.0
953.0
954.0
953.0
954.0
955.0
958.0
960.0
959.0
960.0
960.0
964.0
966.0
968.0
967.0
967.0
968.0
970.0
972.0
973.0
975.0
973.0
974.0
976.0
978.0
976.0
972.0
970.0
973.0
973.0
975.0
978.0
977.0
979.0
980.0
974.0
971.0
967.0
963.0
958.0
954.0
953.0
955.0
953.0
949.0
948.0
948.0
949.0
948.0
951.0
952.0
947.0
944.0
948.0
949.0
947.0
948.0
945.0
945.0
946.0
948.0
947.0
948.0
948.0
946.0
949.0
949.0
949.0
947.0
942.0
933.0
927.0
924.0
917.0
907.0
902.0
909.0
931.0
963.0
998.0
1038.0
1085.0
1137.0
1179.0
1188.0
1171.0
1108.0
1028.0
956.0
919.0
