# Simple Text Format
# Sampling Rate (Hz):= 360.00
# Resolution:= 12
# Labels:= ECG
967.0
974.0
971.0
973.0
970.0
965.0
970.0
971.0
972.0
971.0
970.0
968.0
969.0
970.0
969.0
967.0
967.0
967.0
969.0
971.0
972.0
970.0
970.0
968.0
970.0
972.0
972.0
972.0
970.0
968.0
968.0
969.0
970.0
971.0
970.0
969.0
969.0
970.0
972.0
971.0
969.0
968.0
971.0
971.0
973.0
972.0
972.0
971.0
972.0
973.0
978.0
978.0
977.0
977.0
980.0
982.0
985.0
982.0
983.0
981.0
984.0
990.0
993.0
993.0
995.0
994.0
994.0
997.0
996.0
992.0
990.0
989.0
991.0
993.0
993.0
994.0
994.0
996.0
997.0
992.0
984.0
981.0
977.0
977.0
975.0
972.0
969.0
966.0
961.0
960.0
964.0
967.0
968.0
966.0
964.0
962.0
963.0
964.0
964.0
963.0
962.0
961.0
961.0
964.0
963.0
962.0
962.0
961.0
962.0
962.0
964.0
962.0
958.0
958.0
951.0
948.0
942.0
936.0
931.0
921.0
918.0
929.0
949.0
975.0
1005.0
1049.0
1107.0
1159.0
1187.0
1195.0
1164.0
1097.0
1019.0
960.0
931.0
926.0
934.0
943.0
949.0
950.0
951.0
952.0
952.0
949.0
950.0
949.0
951.0
952.0
954.0
951.0
955.0
954.0
954.0
953.0
951.0
950.0
951.0
952.0
955.0
955.0
952.0
950.0
955.0
952.0
957.0
953.0
954.0
950.0
954.0
953.0
951.0
952.0
952.0
951.0
952.0
954.0
955.0
953.0
952.0
949.0
950.0
952.0
953.0
953.0
952.0
950.0
950.0
952.0
951.0
952.0
951.0
948.0
950.0
953.0
955.0
955.0
954.0
952.0
953.0
953.0
955.0
953.0
953.0
952.0
951.0
951.0
953.0
953.0
951.0
948.0
949.0
949.0
951.0
949.0
947.0
945.0
949.0
950.0
949.0
951.0
948.0
945.0
946.0
948.0
947.0
945.0
946.0
945.0
947.0
950.0
953.0
953.0
955.0
955.0
960.0
964.0
968.0
968.0
968.0
967.0
967.0
971.0
972.0
970.0
967.0
967.0
971.0
974.0
976.0
973.0
973.0
971.0
972.0
976.0
977.0
974.0
973.0
972.0
973.0
973.0
972.0
972.0
971.0
969.0
971.0
970.0
968.0
971.0
969.0
968.0
969.0
970.0
971.0
971.0
970.0
971.0
970.0
972.0
971.0
970.0
969.0
968.0
969.0
971.0
968.0
968.0
965.0
964.0
964.0
965.0
964.0
964.0
965.0
964.0
966.0
965.0
965.0
966.0
966.0
964.0
965.0
963.0
962.0
962.0
962.0
959.0
962.0
963.0
965.0
965.0
964.0
961.0
961.0
963.0
967.0
964.0
962.0
959.0
961.0
961.0
964.0
962.0
961.0
960.0
961.0
961.0
964.0
963.0
963.0
960.0
961.0
963.0
966.0
969.0
967.0
963.0
964.0
965.0
970.0
969.0
968.0
965.0
968.0
973.0
975.0
975.0
976.0
980.0
980.0
985.0
986.0
985.0
985.0
983.0
988.0
990.0
990.0
989.0
985.0
987.0
989.0
986.0
984.0
985.0
987.0
987.0
985.0
980.0
980.0
976.0
972.0
967.0
965.0
966.0
965.0
964.0
961.0
960.0
960.0
964.0
967.0
969.0
965.0
962.0
961.0
960.0
960.0
960.0
959.0
956.0
956.0
958.0
959.0
961.0
960.0
960.0
961.0
961.0
960.0
956.0
955.0
949.0
942.0
938.0
936.0
927.0
921.0
919.0
933.0
963.0
995.0
1031.0
1078.0
1136.0
1189.0
1214.0
1211.0
1158.0
1078.0
1001.0
948.0
930.0
932.0
937.0
947.0
947.0
949.0
951.0
952.0
951.0
951.0
948.0
947.0
950.0
953.0
952.0
949.0
947.0
948.0
950.0
953.0
954.0
953.0
947.0
949.0
951.0
950.0
950.0
949.0
946.0
946.0
949.0
952.0
951.0
949.0
945.0
948.0
949.0
950.0
949.0
948.0
947.0
948.0
947.0
949.0
949.0
949.0
946.0
948.0
950.0
950.0
950.0
951.0
945.0
947.0
949.0
949.0
949.0
949.0
946.0
950.0
952.0
951.0
951.0
949.0
947.0
947.0
949.0
948.0
947.0
945.0
946.0
946.0
949.0
949.0
946.0
947.0
946.0
945.0
947.0
945.0
947.0
943.0
942.0
942.0
944.0
944.0
942.0
939.0
938.0
938.0
940.0
938.0
940.0
940.0
941.0
942.0
947.0
951.0
952.0
954.0
955.0
958.0
963.0
966.0
968.0
966.0
968.0
971.0
976.0
976.0
974.0
974.0
974.0
975.0
976.0
976.0
977.0
978.0
975.0
975.0
978.0
979.0
979.0
976.0
977.0
978.0
977.0
979.0
978.0
977.0
977.0
978.0
980.0
980.0
981.0
976.0
976.0
975.0
978.0
977.0
974.0
978.0
976.0
977.0
978.0
980.0
978.0
976.0
973.0
974.0
975.0
978.0
979.0
975.0
971.0
974.0
975.0
975.0
976.0
973.0
972.0
975.0
972.0
975.0
977.0
974.0
973.0
973.0
975.0
977.0
977.0
975.0
973.0
973.0
975.0
978.0
978.0
974.0
972.0
973.0
976.0
976.0
974.0
970.0
969.0
973.0
975.0
976.0
975.0
975.0
973.0
973.0
977.0
978.0
977.0
975.0
972.0
975.0
979.0
980.0
980.0
981.0
980.0
985.0
985.0
986.0
984.0
986.0
987.0
989.0
992.0
994.0
997.0
995.0
994.0
997.0
1000.0
1002.0
998.0
995.0
993.0
993.0
998.0
1001.0
998.0
996.0
999.0
1001.0
1005.0
1005.0
999.0
988.0
986.0
983.0
980.0
978.0
978.0
973.0
968.0
970.0
971.0
974.0
973.0
971.0
968.0
970.0
970.0
971.0
970.0
966.0
965.0
968.0
968.0
969.0
968.0
967.0
963.0
963.0
963.0
957.0
951.0
944.0
938.0
936.0
933.0
921.0
915.0
914.0
918.0
930.0
944.0
961.0
981.0
1007.0
1038.0
1085.0
1145.0
1195.0
1219.0
1216.0
1172.0
1090.0
1006.0
952.0
937.0
941.0
953.0
959.0
961.0
960.0
961.0
959.0
957.0
958.0
961.0
961.0
960.0
960.0
958.0
960.0
961.0
961.0
963.0
959.0
958.0
957.0
963.0
959.0
958.0
958.0
956.0
958.0
959.0
959.0
960.0
959.0
959.0
960.0
961.0
962.0
961.0
961.0
959.0
962.0
963.0
963.0
964.0
962.0
961.0
963.0
965.0
967.0
964.0
964.0
960.0
961.0
962.0
962.0
963.0
963.0
961.0
962.0
963.0
965.0
966.0
963.0
962.0
962.0
965.0
967.0
967.0
965.0
962.0
962.0
965.0
965.0
965.0
962.0
961.0
961.0
962.0
962.0
961.0
961.0
960.0
960.0
961.0
963.0
962.0
960.0
960.0
959.0
963.0
966.0
965.0
964.0
965.0
969.0
972.0
977.0
976.0
977.0
976.0
977.0
980.0
982.0
981.0
979.0
980.0
980.0
983.0
982.0
982.0
982.0
982.0
983.0
985.0
985.0
987.0
984.0
982.0
982.0
984.0
986.0
985.0
985.0
983.0
982.0
986.0
988.0
986.0
982.0
980.0
981.0
982.0
984.0
980.0
977.0
977.0
979.0
980.0
981.0
979.0
978.0
974.0
976.0
978.0
980.0
980.0
977.0
976.0
978.0
978.0
981.0
979.0
979.0
974.0
973.0
976.0
976.0
976.0
974.0
970.0
972.0
973.0
972.0
976.0
973.0
973.0
973.0
975.0
977.0
976.0
973.0
972.0
973.0
976.0
976.0
975.0
975.0
973.0
974.0
976.0
977.0
975.0
973.0
972.0
975.0
975.0
975.0
975.0
973.0
973.0
975.0
980.0
983.0
984.0
983.0
982.0
986.0
990.0
989.0
992.0
991.0
987.0
991.0
995.0
996.0
997.0
997.0
996.0
996.0
997.0
998.0
995.0
995.0
992.0
994.0
997.0
998.0
999.0
1003.0
1002.0
997.0
987.0
987.0
984.0
985.0
981.0
978.0
979.0
980.0
976.0
973.0
971.0
969.0
970.0
970.0
969.0
968.0
966.0
967.0
968.0
969.0
968.0
967.0
967.0
964.0
967.0
967.0
967.0
964.0
960.0
963.0
964.0
964.0
962.0
961.0
958.0
957.0
950.0
945.0
937.0
934.0
925.0
919.0
921.0
934.0
956.0
981.0
1006.0
1050.0
1107.0
1160.0
1190.0
1199.0
1174.0
1120.0
1045.0
982.0
940.0
927.0
931.0
944.0
953.0
957.0
957.0
956.0
953.0
956.0
956.0
957.0
955.0
955.0
952.0
956.0
955.0
956.0
956.0
955.0
953.0
954.0
957.0
959.0
958.0
956.0
956.0
957.0
956.0
956.0
955.0
954.0
954.0
955.0
956.0
959.0
958.0
955.0
955.0
954.0
956.0
956.0
957.0
956.0
952.0
952.0
954.0
957.0
955.0
955.0
953.0
952.0
953.0
957.0
955.0
955.0
952.0
955.0
955.0
955.0
954.0
955.0
953.0
956.0
957.0
960.0
958.0
955.0
953.0
955.0
955.0
958.0
957.0
956.0
953.0
955.0
955.0
955.0
956.0
953.0
952.0
951.0
953.0
953.0
953.0
950.0
950.0
953.0
954.0
953.0
953.0
953.0
951.0
953.0
957.0
958.0
956.0
954.0
955.0
955.0
956.0
957.0
959.0
959.0
960.0
963.0
964.0
965.0
967.0
966.0
967.0
968.0
971.0
971.0
972.0
974.0
973.0
972.0
976.0
978.0
974.0
973.0
973.0
976.0
976.0
977.0
977.0
975.0
972.0
975.0
975.0
975.0
974.0
973.0
970.0
972.0
973.0
974.0
972.0
970.0
967.0
968.0
968.0
971.0
972.0
968.0
969.0
970.0
972.0
973.0
973.0
970.0
966.0
968.0
969.0
969.0
970.0
968.0
968.0
970.0
970.0
966.0
970.0
966.0
963.0
965.0
965.0
969.0
966.0
966.0
963.0
964.0
964.0
965.0
965.0
963.0
961.0
962.0
964.0
966.0
965.0
962.0
958.0
964.0
965.0
966.0
964.0
964.0
962.0
963.0
965.0
967.0
966.0
964.0
961.0
959.0
964.0
966.0
965.0
963.0
960.0
963.0
963.0
964.0
963.0
962.0
963.0
964.0
966.0
969.0
971.0
969.0
970.0
970.0
972.0
977.0
976.0
974.0
974.0
976.0
980.0
982.0
981.0
978.0
978.0
980.0
981.0
983.0
983.0
985.0
984.0
987.0
989.0
992.0
989.0
985.0
983.0
984.0
988.0
986.0
985.0
985.0
988.0
989.0
991.0
986.0
980.0
974.0
970.0
970.0
967.0
966.0
963.0
961.0
959.0
961.0
961.0
963.0
962.0
961.0
959.0
956.0
960.0
959.0
958.0
958.0
957.0
959.0
960.0
961.0
959.0
959.0
957.0
957.0
959.0
959.0
956.0
955.0
951.0
954.0
955.0
954.0
951.0
942.0
932.0
928.0
927.0
924.0
914.0
912.0
923.0
944.0
971.0
998.0
1034.0
1082.0
1135.0
1174.0
1197.0
1196.0
1161.0
1092.0
1017.0
960.0
930.0
922.0
927.0
936.0
941.0
941.0
943.0
945.0
948.0
947.0
945.0
947.0
948.0
948.0
950.0
946.0
944.0
946.0
949.0
947.0
948.0
946.0
943.0
945.0
948.0
950.0
950.0
948.0
944.0
947.0
947.0
949.0
948.0
944.0
942.0
941.0
945.0
946.0
945.0
943.0
942.0
944.0
945.0
949.0
949.0
945.0
942.0
944.0
946.0
945.0
947.0
945.0
943.0
945.0
946.0
946.0
946.0
945.0
943.0
944.0
946.0
948.0
945.0
945.0
945.0
945.0
944.0
946.0
946.0
944.0
942.0
944.0
946.0
949.0
947.0
945.0
943.0
945.0
945.0
947.0
943.0
944.0
940.0
940.0
942.0
941.0
941.0
938.0
936.0
936.0
936.0
940.0
938.0
938.0
938.0
937.0
940.0
943.0
941.0
943.0
942.0
946.0
948.0
948.0
951.0
952.0
954.0
953.0
955.0
958.0
959.0
959.0
960.0
961.0
968.0
966.0
966.0
964.0
961.0
965.0
966.0
968.0
969.0
969.0
966.0
966.0
967.0
968.0
967.0
966.0
964.0
965.0
967.0
967.0
963.0
962.0
958.0
961.0
965.0
965.0
965.0
965.0
962.0
964.0
966.0
968.0
965.0
963.0
961.0
963.0
962.0
962.0
962.0
964.0
958.0
959.0
961.0
962.0
963.0
959.0
958.0
957.0
960.0
960.0
958.0
958.0
958.0
958.0
960.0
960.0
959.0
959.0
953.0
956.0
958.0
958.0
958.0
957.0
954.0
955.0
957.0
959.0
960.0
956.0
957.0
958.0
956.0
957.0
956.0
957.0
955.0
959.0
959.0
958.0
956.0
955.0
955.0
956.0
958.0
960.0
958.0
958.0
954.0
957.0
957.0
958.0
957.0
959.0
958.0
962.0
965.0
969.0
967.0
969.0
967.0
970.0
968.0
973.0
973.0
969.0
971.0
975.0
978.0
978.0
982.0
979.0
977.0
978.0
979.0
984.0
980.0
978.0
975.0
978.0
979.0
979.0
980.0
977.0
978.0
981.0
985.0
985.0
978.0
972.0
968.0
966.0
965.0
963.0
958.0
956.0
952.0
951.0
953.0
953.0
954.0
953.0
953.0
952.0
954.0
955.0
955.0
953.0
949.0
951.0
953.0
956.0
955.0
955.0
951.0
952.0
950.0
950.0
951.0
949.0
948.0
949.0
949.0
950.0
943.0
934.0
927.0
923.0
922.0
917.0
911.0
914.0
932.0
962.0
992.0
1030.0
1076.0
1130.0
1171.0
1202.0
1213.0
1190.0
1129.0
1050.0
977.0
938.0
922.0
927.0
933.0
940.0
939.0
940.0
942.0
945.0
944.0
943.0
941.0
942.0
941.0
944.0
944.0
941.0
941.0
941.0
943.0
942.0
944.0
942.0
942.0
943.0
944.0
947.0
947.0
943.0
942.0
942.0
944.0
944.0
943.0
941.0
941.0
943.0
944.0
946.0
944.0
943.0
941.0
940.0
943.0
945.0
944.0
945.0
942.0
943.0
945.0
945.0
947.0
944.0
939.0
942.0
945.0
945.0
947.0
944.0
944.0
943.0
943.0
945.0
946.0
946.0
943.0
945.0
947.0
948.0
947.0
945.0
943.0
944.0
946.0
948.0
949.0
942.0
944.0
943.0
944.0
943.0
942.0
942.0
937.0
940.0
941.0
941.0
938.0
938.0
935.0
939.0
939.0
942.0
942.0
941.0
940.0
942.0
946.0
950.0
952.0
952.0
955.0
958.0
965.0
965.0
966.0
966.0
967.0
967.0
971.0
972.0
971.0
970.0
970.0
969.0
972.0
974.0
974.0
971.0
972.0
972.0
975.0
977.0
975.0
974.0
973.0
974.0
975.0
976.0
975.0
974.0
974.0
975.0
977.0
977.0
976.0
973.0
972.0
973.0
972.0
974.0
975.0
973.0
971.0
972.0
974.0
975.0
973.0
971.0
970.0
972.0
971.0
973.0
973.0
972.0
970.0
970.0
973.0
973.0
971.0
970.0
968.0
968.0
970.0
971.0
969.0
969.0
965.0
965.0
969.0
970.0
968.0
967.0
967.0
969.0
968.0
970.0
970.0
971.0
970.0
968.0
971.0
969.0
969.0
968.0
967.0
966.0
969.0
970.0
969.0
968.0
964.0
968.0
971.0
973.0
975.0
974.0
974.0
976.0
980.0
984.0
985.0
985.0
983.0
986.0
989.0
992.0
993.0
993.0
993.0
992.0
994.0
997.0
994.0
992.0
989.0
991.0
994.0
994.0
993.0
993.0
997.0
998.0
997.0
992.0
986.0
982.0
979.0
978.0
979.0
978.0
977.0
975.0
972.0
970.0
969.0
971.0
970.0
968.0
967.0
967.0
968.0
966.0
967.0
964.0
964.0
962.0
962.0
963.0
962.0
962.0
960.0
959.0
963.0
963.0
964.0
964.0
959.0
961.0
959.0
953.0
946.0
939.0
933.0
928.0
922.0
919.0
932.0
948.0
967.0
990.0
1014.0
1049.0
1100.0
1146.0
1186.0
1212.0
1210.0
1172.0
1101.0
1018.0
958.0
931.0
930.0
942.0
952.0
955.0
951.0
954.0
955.0
955.0
959.0
957.0
954.0
954.0
957.0
958.0
956.0
957.0
954.0
953.0
956.0
958.0
956.0
956.0
952.0
955.0
953.0
957.0
955.0
956.0
952.0
954.0
956.0
959.0
958.0
955.0
955.0
956.0
957.0
959.0
959.0
957.0
957.0
954.0
957.0
958.0
957.0
955.0
953.0
954.0
956.0
956.0
958.0
955.0
954.0
952.0
956.0
959.0
956.0
955.0
957.0
958.0
960.0
962.0
960.0
959.0
958.0
960.0
960.0
961.0
960.0
959.0
958.0
958.0
958.0
959.0
959.0
958.0
956.0
957.0
959.0
960.0
959.0
959.0
955.0
957.0
958.0
961.0
958.0
957.0
956.0
958.0
961.0
962.0
964.0
960.0
959.0
960.0
962.0
966.0
966.0
965.0
966.0
967.0
969.0
972.0
973.0
971.0
970.0
973.0
974.0
977.0
979.0
978.0
974.0
977.0
977.0
981.0
981.0
978.0
977.0
979.0
979.0
981.0
981.0
978.0
976.0
977.0
979.0
980.0
978.0
977.0
975.0
974.0
976.0
978.0
977.0
974.0
974.0
975.0
977.0
977.0
977.0
973.0
972.0
973.0
975.0
976.0
976.0
972.0
970.0
972.0
972.0
973.0
973.0
970.0
967.0
967.0
967.0
971.0
969.0
969.0
967.0
970.0
966.0
970.0
969.0
968.0
966.0
967.0
968.0
970.0
971.0
968.0
969.0
968.0
970.0
972.0
971.0
970.0
969.0
970.0
970.0
970.0
970.0
969.0
969.0
969.0
971.0
971.0
969.0
967.0
968.0
968.0
970.0
971.0
971.0
969.0
970.0
972.0
976.0
979.0
978.0
978.0
977.0
982.0
985.0
986.0
985.0
985.0
986.0
989.0
992.0
995.0
995.0
994.0
994.0
994.0
995.0
995.0
992.0
992.0
990.0
992.0
993.0
997.0
998.0
1001.0
997.0
992.0
986.0
982.0
982.0
979.0
974.0
973.0
970.0
970.0
967.0
965.0
964.0
966.0
964.0
966.0
965.0
963.0
960.0
963.0
962.0
963.0
963.0
962.0
958.0
960.0
960.0
963.0
962.0
962.0
960.0
960.0
962.0
960.0
955.0
946.0
937.0
935.0
935.0
927.0
919.0
910.0
912.0
923.0
942.0
963.0
984.0
1011.0
1050.0
1108.0
1160.0
1194.0
1200.0
1182.0
1129.0
1053.0
984.0
943.0
926.0
930.0
940.0
950.0
952.0
954.0
954.0
955.0
952.0
954.0
955.0
957.0
956.0
954.0
952.0
953.0
953.0
955.0
955.0
953.0
949.0
953.0
954.0
956.0
955.0
955.0
953.0
955.0
955.0
956.0
955.0
956.0
952.0
954.0
955.0
954.0
953.0
952.0
951.0
953.0
954.0
956.0
955.0
952.0
952.0
952.0
953.0
956.0
954.0
953.0
953.0
955.0
956.0
958.0
959.0
957.0
955.0
958.0
957.0
957.0
955.0
955.0
952.0
952.0
956.0
957.0
957.0
956.0
957.0
958.0
960.0
961.0
960.0
957.0
955.0
956.0
959.0
959.0
957.0
955.0
953.0
955.0
955.0
958.0
957.0
956.0
951.0
955.0
955.0
957.0
954.0
955.0
952.0
955.0
956.0
957.0
958.0
959.0
954.0
960.0
963.0
964.0
965.0
969.0
968.0
973.0
975.0
975.0
977.0
976.0
973.0
970.0
976.0
976.0
976.0
972.0
973.0
973.0
972.0
977.0
973.0
975.0
974.0
973.0
973.0
976.0
973.0
971.0
970.0
973.0
971.0
974.0
974.0
972.0
971.0
972.0
974.0
972.0
974.0
972.0
970.0
969.0
971.0
972.0
973.0
970.0
968.0
966.0
966.0
965.0
968.0
965.0
966.0
965.0
966.0
967.0
965.0
964.0
962.0
963.0
965.0
965.0
964.0
963.0
960.0
960.0
963.0
963.0
962.0
963.0
960.0
962.0
963.0
965.0
964.0
962.0
961.0
963.0
963.0
963.0
964.0
960.0
960.0
961.0
964.0
966.0
966.0
964.0
963.0
963.0
964.0
964.0
967.0
964.0
964.0
966.0
970.0
974.0
976.0
974.0
972.0
976.0
977.0
980.0
979.0
979.0
979.0
983.0
984.0
988.0
988.0
986.0
982.0
983.0
980.0
984.0
985.0
984.0
985.0
986.0
990.0
992.0
992.0
988.0
981.0
975.0
970.0
971.0
968.0
963.0
958.0
957.0
958.0
959.0
961.0
958.0
957.0
959.0
955.0
956.0
957.0
957.0
955.0
956.0
957.0
960.0
958.0
956.0
955.0
953.0
955.0
956.0
957.0
955.0
953.0
954.0
955.0
956.0
944.0
938.0
931.0
927.0
919.0
911.0
917.0
934.0
958.0
989.0
1029.0
1078.0
1134.0
1177.0
1197.0
1194.0
1154.0
1084.0
1003.0
950.0
922.0
920.0
930.0
937.0
944.0
943.0
942.0
942.0
945.0
948.0
947.0
943.0
943.0
942.0
944.0
946.0
946.0
945.0
941.0
941.0
945.0
948.0
949.0
947.0
944.0
946.0
947.0
948.0
949.0
946.0
945.0
944.0
946.0
947.0
948.0
943.0
942.0
941.0
943.0
947.0
946.0
942.0
942.0
942.0
944.0
947.0
946.0
944.0
942.0
943.0
945.0
944.0
945.0
944.0
942.0
944.0
944.0
946.0
945.0
944.0
938.0
941.0
943.0
945.0
944.0
940.0
942.0
943.0
945.0
944.0
942.0
941.0
939.0
939.0
940.0
940.0
938.0
939.0
936.0
936.0
937.0
942.0
939.0
936.0
934.0
936.0
935.0
934.0
934.0
934.0
931.0
932.0
934.0
938.0
937.0
937.0
938.0
940.0
945.0
949.0
952.0
952.0
953.0
954.0
958.0
962.0
964.0
962.0
961.0
962.0
964.0
966.0
968.0
967.0
966.0
966.0
968.0
970.0
970.0
968.0
967.0
969.0
970.0
971.0
970.0
969.0
967.0
965.0
968.0
969.0
968.0
967.0
965.0
965.0
968.0
967.0
969.0
968.0
965.0
965.0
969.0
970.0
969.0
968.0
965.0
965.0
966.0
967.0
965.0
963.0
961.0
962.0
965.0
966.0
965.0
962.0
959.0
958.0
962.0
964.0
963.0
961.0
959.0
962.0
962.0
963.0
965.0
962.0
960.0
961.0
963.0
965.0
964.0
962.0
957.0
962.0
964.0
965.0
962.0
963.0
960.0
964.0
964.0
964.0
965.0
965.0
965.0
967.0
965.0
966.0
965.0
965.0
964.0
963.0
966.0
969.0
971.0
971.0
970.0
973.0
978.0
978.0
977.0
979.0
978.0
977.0
983.0
985.0
985.0
983.0
985.0
988.0
988.0
990.0
988.0
983.0
985.0
986.0
987.0
988.0
990.0
993.0
994.0
992.0
987.0
982.0
977.0
974.0
969.0
967.0
967.0
967.0
965.0
963.0
963.0
963.0
964.0
966.0
967.0
966.0
963.0
962.0
964.0
965.0
968.0
961.0
958.0
958.0
960.0
962.0
963.0
962.0
959.0
959.0
960.0
960.0
958.0
956.0
952.0
950.0
942.0
937.0
933.0
926.0
915.0
920.0
940.0
971.0
1000.0
1036.0
1085.0
1146.0
1190.0
1208.0
1198.0
1152.0
1072.0
993.0
942.0
929.0
935.0
944.0
950.0
951.0
952.0
954.0
951.0
951.0
952.0
951.0
952.0
956.0
954.0
953.0
950.0
952.0
952.0
955.0
954.0
953.0
950.0
951.0
954.0
956.0
958.0
956.0
952.0
953.0
953.0
956.0
956.0
956.0
951.0
954.0
953.0
953.0
955.0
954.0
952.0
954.0
954.0
958.0
956.0
955.0
954.0
955.0
958.0
957.0
956.0
954.0
953.0
952.0
955.0
956.0
957.0
955.0
955.0
955.0
955.0
957.0
956.0
954.0
953.0
954.0
956.0
959.0
957.0
957.0
958.0
958.0
959.0
960.0
961.0
960.0
957.0
957.0
958.0
960.0
959.0
957.0
957.0
957.0
958.0
960.0
958.0
954.0
951.0
955.0
956.0
959.0
957.0
954.0
955.0
958.0
960.0
962.0
966.0
963.0
964.0
967.0
969.0
974.0
973.0
972.0
974.0
974.0
977.0
976.0
977.0
976.0
976.0
976.0
978.0
980.0
979.0
980.0
978.0
977.0
980.0
984.0
983.0
981.0
981.0
977.0
980.0
983.0
981.0
980.0
980.0
980.0
980.0
983.0
981.0
980.0
980.0
980.0
982.0
981.0
981.0
977.0
976.0
976.0
978.0
980.0
979.0
977.0
974.0
977.0
977.0
981.0
978.0
979.0
975.0
976.0
978.0
979.0
979.0
976.0
974.0
974.0
974.0
975.0
977.0
975.0
972.0
974.0
973.0
974.0
972.0
973.0
970.0
970.0
972.0
973.0
973.0
974.0
971.0
970.0
973.0
978.0
975.0
973.0
972.0
972.0
974.0
976.0
976.0
975.0
974.0
974.0
976.0
979.0
976.0
977.0
976.0
978.0
979.0
982.0
984.0
983.0
982.0
986.0
989.0
991.0
992.0
992.0
990.0
994.0
995.0
1000.0
1000.0
998.0
1000.0
1000.0
1000.0
1003.0
1000.0
999.0
998.0
998.0
1000.0
999.0
997.0
998.0
996.0
1002.0
1005.0
1003.0
994.0
989.0
984.0
984.0
983.0
978.0
975.0
973.0
971.0
970.0
971.0
973.0
974.0
971.0
969.0
968.0
970.0
969.0
967.0
965.0
963.0
964.0
967.0
970.0
969.0
968.0
966.0
967.0
969.0
970.0
965.0
959.0
949.0
943.0
942.0
937.0
930.0
923.0
932.0
956.0
985.0
1014.0
1056.0
1107.0
1156.0
1195.0
1221.0
1228.0
1213.0
1177.0
1122.0
1059.0
1000.0
957.0
933.0
925.0
932.0
946.0
957.0
960.0
958.0
956.0
957.0
959.0
960.0
961.0
960.0
958.0
956.0
958.0
962.0
961.0
961.0
957.0
956.0
956.0
956.0
957.0
958.0
957.0
955.0
957.0
958.0
960.0
960.0
957.0
958.0
960.0
961.0
961.0
963.0
960.0
959.0
957.0
959.0
959.0
956.0
956.0
954.0
957.0
957.0
961.0
960.0
956.0
957.0
959.0
961.0
960.0
960.0
959.0
958.0
958.0
960.0
961.0
961.0
959.0
959.0
959.0
961.0
962.0
960.0
962.0
959.0
960.0
960.0
962.0
960.0
959.0
955.0
957.0
961.0
961.0
959.0
958.0
956.0
955.0
957.0
960.0
959.0
961.0
958.0
957.0
959.0
960.0
962.0
962.0
960.0
962.0
965.0
968.0
970.0
969.0
969.0
969.0
973.0
978.0
976.0
977.0
974.0
978.0
978.0
979.0
981.0
980.0
977.0
980.0
980.0
983.0
983.0
980.0
976.0
979.0
978.0
981.0
979.0
979.0
980.0
979.0
982.0
983.0
982.0
980.0
977.0
979.0
980.0
979.0
979.0
979.0
974.0
977.0
976.0
981.0
979.0
976.0
973.0
977.0
977.0
978.0
977.0
973.0
970.0
972.0
974.0
975.0
972.0
971.0
969.0
971.0
972.0
973.0
971.0
972.0
970.0
969.0
970.0
969.0
969.0
969.0
966.0
968.0
969.0
970.0
972.0
971.0
968.0
967.0
970.0
969.0
971.0
971.0
968.0
967.0
970.0
972.0
970.0
970.0
968.0
969.0
971.0
970.0
972.0
968.0
969.0
972.0
972.0
972.0
974.0
971.0
968.0
967.0
969.0
974.0
971.0
972.0
972.0
974.0
977.0
980.0
980.0
982.0
980.0
983.0
986.0
986.0
987.0
986.0
987.0
991.0
993.0
999.0
998.0
999.0
994.0
993.0
993.0
994.0
994.0
996.0
994.0
993.0
996.0
1000.0
1002.0
999.0
990.0
985.0
986.0
983.0
979.0
974.0
971.0
971.0
970.0
972.0
968.0
969.0
966.0
968.0
968.0
970.0
968.0
966.0
965.0
966.0
967.0
967.0
967.0
965.0
963.0
964.0
964.0
966.0
964.0
963.0
960.0
959.0
961.0
963.0
957.0
947.0
935.0
937.0
933.0
924.0
926.0
935.0
956.0
984.0
1014.0
1058.0
1113.0
1162.0
1191.0
1202.0
1181.0
1125.0
1051.0
986.0
946.0
930.0
931.0
943.0
953.0
955.0
950.0
950.0
955.0
956.0
953.0
953.0
954.0
954.0
957.0
958.0
957.0
957.0
955.0
953.0
956.0
957.0
958.0
955.0
953.0
953.0
954.0
954.0
952.0
951.0
951.0
950.0
952.0
956.0
954.0
955.0
950.0
951.0
953.0
958.0
956.0
956.0
955.0
953.0
955.0
957.0
957.0
954.0
950.0
952.0
953.0
954.0
954.0
951.0
948.0
951.0
952.0
952.0
955.0
953.0
948.0
950.0
953.0
954.0
956.0
956.0
952.0
953.0
955.0
956.0
956.0
955.0
951.0
952.0
951.0
955.0
954.0
953.0
949.0
951.0
950.0
952.0
947.0
944.0
944.0
943.0
944.0
947.0
945.0
943.0
941.0
945.0
945.0
949.0
949.0
950.0
949.0
952.0
957.0
959.0
962.0
962.0
962.0
965.0
966.0
969.0
970.0
969.0
967.0
969.0
973.0
977.0
977.0
976.0
974.0
977.0
980.0
981.0
980.0
979.0
975.0
978.0
979.0
981.0
981.0
980.0
977.0
977.0
978.0
980.0
978.0
978.0
978.0
977.0
978.0
978.0
977.0
975.0
972.0
973.0
976.0
978.0
977.0
975.0
973.0
976.0
976.0
977.0
976.0
976.0
972.0
974.0
976.0
977.0
973.0
972.0
971.0
970.0
971.0
975.0
975.0
971.0
970.0
972.0
972.0
975.0
974.0
973.0
969.0
970.0
973.0
975.0
973.0
971.0
971.0
971.0
973.0
976.0
976.0
974.0
972.0
972.0
975.0
974.0
976.0
974.0
972.0
973.0
975.0
974.0
976.0
975.0
972.0
971.0
972.0
973.0
976.0
973.0
971.0
972.0
976.0
978.0
978.0
980.0
980.0
984.0
987.0
988.0
989.0
989.0
988.0
990.0
990.0
995.0
997.0
997.0
997.0
999.0
1000.0
1002.0
1003.0
999.0
996.0
995.0
995.0
999.0
1000.0
1001.0
998.0
1000.0
1005.0
1008.0
1008.0
1002.0
993.0
988.0
989.0
987.0
985.0
981.0
978.0
975.0
976.0
976.0
974.0
973.0
972.0
972.0
973.0
976.0
972.0
973.0
970.0
970.0
973.0
975.0
975.0
970.0
971.0
971.0
971.0
972.0
974.0
973.0
971.0
969.0
972.0
968.0
962.0
953.0
946.0
944.0
939.0
932.0
930.0
938.0
958.0
985.0
1010.0
1041.0
1085.0
1130.0
1168.0
1194.0
1212.0
1228.0
1235.0
1218.0
1171.0
1101.0
1029.0
976.0
945.0
937.0
945.0
955.0
961.0
964.0
962.0
962.0
960.0
961.0
963.0
963.0
963.0
964.0
961.0
961.0
961.0
964.0
963.0
962.0
959.0
960.0
962.0
965.0
963.0
961.0
959.0
961.0
962.0
961.0
960.0
959.0
958.0
