# Simple Text Format
# Sampling Rate (Hz):= 360.00
# Resolution:= 12
# Labels:= ECG
964.0
965.0
966.0
964.0
960.0
963.0
963.0
963.0
962.0
957.0
957.0
957.0
958.0
960.0
959.0
957.0
956.0
956.0
959.0
957.0
958.0
957.0
954.0
956.0
957.0
957.0
956.0
956.0
954.0
958.0
957.0
958.0
959.0
954.0
953.0
954.0
953.0
954.0
955.0
955.0
955.0
954.0
956.0
954.0
954.0
952.0
950.0
953.0
956.0
957.0
957.0
955.0
954.0
956.0
957.0
957.0
956.0
953.0
952.0
955.0
955.0
956.0
959.0
957.0
958.0
962.0
965.0
969.0
966.0
964.0
964.0
966.0
967.0
966.0
968.0
967.0
966.0
969.0
974.0
976.0
977.0
978.0
976.0
976.0
975.0
976.0
976.0
977.0
977.0
977.0
978.0
982.0
983.0
979.0
967.0
964.0
963.0
962.0
959.0
954.0
950.0
950.0
948.0
953.0
953.0
951.0
950.0
950.0
949.0
951.0
950.0
949.0
945.0
946.0
947.0
949.0
952.0
948.0
945.0
948.0
950.0
951.0
950.0
942.0
935.0
928.0
924.0
920.0
911.0
908.0
920.0
946.0
978.0
1015.0
1062.0
1116.0
1160.0
1194.0
1215.0
1215.0
1191.0
1144.0
1081.0
1017.0
966.0
936.0
921.0
919.0
923.0
931.0
939.0
937.0
935.0
933.0
935.0
937.0
939.0
940.0
937.0
936.0
932.0
932.0
934.0
937.0
937.0
938.0
935.0
938.0
936.0
936.0
936.0
937.0
935.0
935.0
937.0
937.0
937.0
935.0
932.0
932.0
937.0
935.0
936.0
933.0
934.0
933.0
932.0
935.0
936.0
934.0
932.0
933.0
934.0
936.0
936.0
935.0
932.0
932.0
936.0
937.0
937.0
934.0
933.0
930.0
932.0
930.0
933.0
933.0
933.0
931.0
933.0
934.0
935.0
934.0
933.0
933.0
934.0
933.0
935.0
932.0
929.0
930.0
931.0
928.0
925.0
923.0
920.0
921.0
923.0
925.0
924.0
921.0
919.0
919.0
920.0
924.0
924.0
925.0
923.0
924.0
926.0
930.0
930.0
934.0
936.0
939.0
942.0
946.0
948.0
949.0
949.0
950.0
952.0
956.0
954.0
952.0
951.0
952.0
954.0
952.0
955.0
956.0
950.0
951.0
954.0
955.0
959.0
957.0
957.0
958.0
960.0
959.0
958.0
955.0
954.0
954.0
954.0
954.0
953.0
955.0
953.0
955.0
957.0
957.0
955.0
954.0
948.0
948.0
951.0
950.0
951.0
949.0
947.0
950.0
951.0
951.0
951.0
949.0
944.0
948.0
948.0
950.0
952.0
949.0
945.0
946.0
947.0
949.0
945.0
944.0
943.0
945.0
949.0
948.0
947.0
949.0
945.0
949.0
949.0
949.0
948.0
948.0
947.0
948.0
947.0
952.0
951.0
950.0
948.0
948.0
948.0
949.0
948.0
946.0
944.0
944.0
949.0
949.0
951.0
951.0
946.0
950.0
952.0
952.0
952.0
950.0
948.0
948.0
951.0
953.0
953.0
954.0
955.0
955.0
960.0
963.0
964.0
960.0
960.0
963.0
966.0
969.0
970.0
968.0
968.0
969.0
973.0
974.0
973.0
973.0
969.0
970.0
974.0
973.0
969.0
969.0
968.0
971.0
973.0
973.0
974.0
974.0
974.0
971.0
968.0
969.0
964.0
959.0
954.0
950.0
953.0
950.0
952.0
950.0
947.0
950.0
950.0
950.0
949.0
948.0
947.0
948.0
950.0
949.0
950.0
948.0
946.0
948.0
949.0
951.0
951.0
949.0
944.0
941.0
934.0
929.0
925.0
915.0
909.0
916.0
936.0
967.0
998.0
1034.0
1083.0
1137.0
1181.0
1203.0
1197.0
1148.0
1069.0
987.0
938.0
921.0
921.0
931.0
937.0
941.0
942.0
941.0
943.0
940.0
936.0
938.0
939.0
939.0
937.0
939.0
937.0
938.0
939.0
941.0
941.0
938.0
935.0
937.0
938.0
942.0
942.0
940.0
938.0
938.0
938.0
942.0
940.0
938.0
936.0
935.0
940.0
940.0
939.0
938.0
937.0
937.0
940.0
941.0
941.0
939.0
935.0
938.0
940.0
941.0
939.0
940.0
937.0
940.0
940.0
942.0
940.0
938.0
938.0
936.0
940.0
943.0
942.0
940.0
937.0
941.0
939.0
941.0
939.0
935.0
937.0
938.0
938.0
939.0
938.0
935.0
932.0
932.0
933.0
934.0
935.0
933.0
931.0
931.0
932.0
932.0
931.0
929.0
928.0
927.0
929.0
930.0
928.0
926.0
924.0
926.0
930.0
934.0
935.0
936.0
935.0
941.0
944.0
947.0
948.0
951.0
951.0
952.0
958.0
960.0
962.0
958.0
958.0
960.0
962.0
965.0
966.0
964.0
964.0
964.0
966.0
964.0
966.0
963.0
961.0
962.0
965.0
965.0
965.0
967.0
963.0
963.0
964.0
965.0
965.0
964.0
960.0
962.0
964.0
965.0
966.0
963.0
960.0
960.0
963.0
964.0
962.0
959.0
958.0
959.0
960.0
962.0
959.0
959.0
957.0
959.0
958.0
960.0
961.0
959.0
957.0
957.0
959.0
961.0
960.0
959.0
956.0
957.0
957.0
958.0
957.0
956.0
952.0
954.0
956.0
957.0
957.0
956.0
954.0
955.0
959.0
959.0
957.0
959.0
957.0
960.0
961.0
965.0
968.0
968.0
966.0
968.0
969.0
973.0
972.0
973.0
974.0
974.0
977.0
979.0
979.0
977.0
976.0
978.0
979.0
977.0
975.0
976.0
976.0
978.0
979.0
981.0
989.0
990.0
986.0
977.0
971.0
970.0
970.0
966.0
962.0
958.0
958.0
956.0
954.0
951.0
949.0
951.0
951.0
954.0
954.0
953.0
953.0
950.0
952.0
954.0
952.0
950.0
949.0
948.0
951.0
950.0
952.0
949.0
948.0
945.0
947.0
949.0
949.0
940.0
933.0
926.0
924.0
919.0
912.0
910.0
925.0
955.0
991.0
1027.0
1067.0
1119.0
1174.0
1212.0
1228.0
1205.0
1133.0
1037.0
954.0
918.0
921.0
936.0
944.0
943.0
939.0
937.0
940.0
939.0
938.0
937.0
936.0
935.0
939.0
940.0
936.0
937.0
936.0
935.0
937.0
938.0
938.0
934.0
932.0
934.0
937.0
939.0
937.0
934.0
931.0
935.0
937.0
938.0
938.0
935.0
932.0
933.0
936.0
940.0
939.0
936.0
935.0
938.0
936.0
936.0
938.0
937.0
934.0
934.0
936.0
936.0
936.0
933.0
933.0
931.0
933.0
931.0
934.0
934.0
933.0
934.0
936.0
936.0
935.0
934.0
930.0
934.0
934.0
935.0
937.0
933.0
934.0
934.0
935.0
935.0
935.0
934.0
929.0
929.0
931.0
931.0
933.0
930.0
929.0
931.0
931.0
932.0
934.0
934.0
932.0
934.0
936.0
939.0
942.0
941.0
942.0
945.0
948.0
951.0
952.0
951.0
951.0
952.0
954.0
956.0
955.0
953.0
952.0
953.0
955.0
957.0
958.0
956.0
954.0
956.0
958.0
956.0
958.0
956.0
955.0
954.0
957.0
958.0
959.0
957.0
954.0
955.0
957.0
956.0
954.0
951.0
952.0
951.0
951.0
953.0
954.0
950.0
951.0
951.0
952.0
954.0
954.0
952.0
950.0
949.0
950.0
952.0
953.0
952.0
948.0
948.0
950.0
952.0
950.0
948.0
945.0
947.0
948.0
949.0
946.0
945.0
944.0
944.0
945.0
948.0
946.0
945.0
945.0
945.0
946.0
947.0
947.0
945.0
944.0
943.0
946.0
948.0
947.0
946.0
944.0
945.0
945.0
948.0
948.0
946.0
943.0
945.0
947.0
948.0
948.0
947.0
948.0
949.0
953.0
957.0
958.0
957.0
959.0
961.0
959.0
964.0
965.0
964.0
962.0
966.0
968.0
968.0
971.0
971.0
969.0
969.0
970.0
970.0
966.0
964.0
961.0
966.0
965.0
969.0
971.0
974.0
971.0
966.0
961.0
960.0
957.0
954.0
948.0
948.0
947.0
945.0
945.0
943.0
942.0
944.0
945.0
943.0
943.0
942.0
939.0
940.0
942.0
944.0
941.0
939.0
938.0
938.0
939.0
940.0
940.0
942.0
940.0
938.0
940.0
942.0
939.0
936.0
929.0
919.0
915.0
913.0
907.0
897.0
906.0
929.0
962.0
993.0
1030.0
1077.0
1127.0
1171.0
1198.0
1199.0
1158.0
1082.0
992.0
932.0
909.0
915.0
925.0
932.0
933.0
931.0
934.0
934.0
935.0
934.0
931.0
929.0
932.0
931.0
932.0
931.0
928.0
928.0
931.0
931.0
931.0
929.0
927.0
929.0
932.0
934.0
935.0
933.0
930.0
929.0
932.0
931.0
931.0
931.0
929.0
931.0
932.0
933.0
932.0
931.0
929.0
928.0
929.0
933.0
932.0
929.0
928.0
929.0
930.0
933.0
933.0
932.0
929.0
930.0
932.0
932.0
930.0
929.0
928.0
928.0
931.0
931.0
931.0
931.0
930.0
929.0
930.0
932.0
933.0
931.0
931.0
930.0
931.0
932.0
930.0
928.0
925.0
928.0
928.0
931.0
931.0
926.0
923.0
924.0
927.0
927.0
928.0
924.0
923.0
923.0
926.0
929.0
929.0
929.0
930.0
931.0
936.0
937.0
938.0
935.0
933.0
936.0
941.0
947.0
946.0
946.0
947.0
948.0
950.0
952.0
954.0
952.0
951.0
952.0
954.0
957.0
957.0
955.0
951.0
955.0
955.0
957.0
959.0
955.0
954.0
954.0
958.0
957.0
954.0
953.0
951.0
951.0
955.0
956.0
955.0
954.0
952.0
953.0
955.0
955.0
954.0
951.0
953.0
951.0
953.0
955.0
952.0
953.0
951.0
951.0
953.0
950.0
951.0
950.0
945.0
946.0
949.0
951.0
951.0
951.0
946.0
947.0
949.0
951.0
949.0
948.0
944.0
944.0
947.0
949.0
949.0
944.0
944.0
945.0
948.0
950.0
951.0
951.0
949.0
948.0
947.0
946.0
946.0
947.0
944.0
945.0
946.0
949.0
948.0
945.0
945.0
947.0
950.0
949.0
949.0
948.0
948.0
949.0
949.0
952.0
954.0
955.0
954.0
958.0
961.0
962.0
961.0
960.0
957.0
958.0
961.0
964.0
967.0
969.0
967.0
971.0
971.0
970.0
968.0
967.0
964.0
967.0
970.0
975.0
975.0
971.0
968.0
973.0
974.0
976.0
970.0
961.0
958.0
955.0
954.0
951.0
947.0
943.0
940.0
943.0
945.0
945.0
944.0
943.0
944.0
943.0
944.0
943.0
943.0
942.0
941.0
941.0
943.0
944.0
944.0
939.0
938.0
937.0
941.0
942.0
942.0
941.0
938.0
935.0
930.0
928.0
922.0
914.0
910.0
899.0
895.0
900.0
914.0
929.0
945.0
962.0
985.0
1011.0
1042.0
1081.0
1119.0
1155.0
1182.0
1198.0
1186.0
1138.0
1064.0
991.0
939.0
919.0
915.0
919.0
924.0
930.0
929.0
930.0
931.0
931.0
928.0
928.0
928.0
931.0
932.0
931.0
929.0
931.0
930.0
930.0
931.0
932.0
928.0
929.0
929.0
929.0
932.0
928.0
924.0
926.0
927.0
931.0
932.0
927.0
927.0
929.0
931.0
933.0
930.0
928.0
926.0
926.0
922.0
924.0
928.0
929.0
926.0
930.0
929.0
933.0
936.0
934.0
928.0
926.0
926.0
927.0
929.0
926.0
926.0
924.0
930.0
929.0
931.0
930.0
927.0
926.0
928.0
927.0
925.0
926.0
925.0
925.0
926.0
931.0
930.0
927.0
924.0
925.0
927.0
929.0
924.0
923.0
922.0
921.0
923.0
918.0
918.0
915.0
914.0
912.0
916.0
920.0
921.0
919.0
918.0
918.0
919.0
922.0
925.0
927.0
925.0
930.0
931.0
934.0
933.0
932.0
932.0
935.0
937.0
943.0
946.0
946.0
946.0
949.0
952.0
955.0
951.0
950.0
948.0
950.0
953.0
955.0
955.0
954.0
953.0
952.0
954.0
954.0
954.0
954.0
955.0
956.0
952.0
954.0
952.0
948.0
948.0
950.0
957.0
956.0
958.0
955.0
953.0
951.0
953.0
953.0
954.0
954.0
949.0
947.0
951.0
954.0
954.0
949.0
949.0
948.0
947.0
949.0
950.0
951.0
951.0
951.0
952.0
953.0
950.0
947.0
943.0
945.0
943.0
948.0
948.0
942.0
941.0
947.0
950.0
952.0
949.0
948.0
945.0
944.0
949.0
950.0
947.0
945.0
943.0
943.0
944.0
947.0
950.0
951.0
950.0
951.0
951.0
952.0
951.0
948.0
948.0
950.0
951.0
953.0
951.0
947.0
945.0
945.0
951.0
955.0
956.0
955.0
952.0
955.0
955.0
957.0
962.0
958.0
958.0
961.0
963.0
969.0
967.0
967.0
965.0
965.0
969.0
973.0
973.0
976.0
974.0
972.0
972.0
972.0
970.0
971.0
971.0
972.0
969.0
972.0
974.0
977.0
973.0
969.0
966.0
963.0
962.0
957.0
953.0
951.0
952.0
952.0
948.0
948.0
947.0
948.0
950.0
953.0
950.0
949.0
947.0
947.0
947.0
950.0
948.0
946.0
943.0
943.0
944.0
949.0
949.0
946.0
946.0
946.0
945.0
948.0
946.0
942.0
933.0
927.0
926.0
921.0
916.0
911.0
915.0
932.0
956.0
980.0
1001.0
1022.0
1047.0
1080.0
1123.0
1164.0
1188.0
1211.0
1226.0
1225.0
1197.0
1138.0
1056.0
984.0
941.0
925.0
926.0
934.0
942.0
942.0
941.0
939.0
942.0
943.0
944.0
941.0
942.0
941.0
942.0
943.0
944.0
943.0
940.0
941.0
941.0
941.0
939.0
940.0
939.0
940.0
942.0
943.0
944.0
942.0
941.0
940.0
941.0
943.0
943.0
940.0
938.0
942.0
941.0
945.0
942.0
942.0
938.0
940.0
941.0
944.0
943.0
941.0
939.0
939.0
942.0
941.0
941.0
941.0
939.0
941.0
941.0
945.0
944.0
944.0
940.0
939.0
941.0
942.0
942.0
939.0
940.0
939.0
940.0
943.0
942.0
939.0
938.0
939.0
940.0
941.0
941.0
938.0
938.0
936.0
938.0
937.0
937.0
936.0
934.0
932.0
933.0
936.0
935.0
934.0
932.0
930.0
930.0
931.0
932.0
932.0
930.0
931.0
933.0
936.0
937.0
936.0
939.0
941.0
947.0
950.0
952.0
954.0
955.0
956.0
957.0
960.0
959.0
962.0
961.0
962.0
963.0
967.0
966.0
965.0
961.0
965.0
968.0
969.0
969.0
968.0
966.0
967.0
967.0
970.0
969.0
967.0
965.0
964.0
968.0
969.0
967.0
965.0
966.0
965.0
968.0
969.0
968.0
967.0
965.0
966.0
969.0
970.0
969.0
967.0
967.0
967.0
967.0
970.0
969.0
967.0
968.0
967.0
969.0
969.0
968.0
968.0
964.0
964.0
964.0
965.0
965.0
965.0
963.0
962.0
964.0
966.0
964.0
963.0
963.0
960.0
963.0
966.0
965.0
963.0
962.0
962.0
964.0
965.0
965.0
965.0
966.0
964.0
964.0
964.0
963.0
964.0
964.0
965.0
969.0
972.0
972.0
971.0
971.0
975.0
976.0
983.0
982.0
981.0
981.0
984.0
985.0
988.0
989.0
989.0
988.0
988.0
992.0
990.0
983.0
984.0
983.0
985.0
986.0
988.0
988.0
991.0
993.0
992.0
988.0
983.0
979.0
976.0
972.0
968.0
967.0
965.0
964.0
961.0
961.0
962.0
963.0
966.0
963.0
963.0
963.0
962.0
962.0
963.0
962.0
957.0
958.0
956.0
959.0
961.0
961.0
959.0
958.0
958.0
960.0
962.0
961.0
961.0
955.0
957.0
957.0
952.0
944.0
937.0
934.0
927.0
922.0
922.0
935.0
958.0
982.0
1017.0
1059.0
1112.0
1164.0
1202.0
1215.0
1192.0
1132.0
1053.0
976.0
932.0
926.0
937.0
949.0
955.0
954.0
953.0
951.0
952.0
955.0
955.0
955.0
954.0
952.0
952.0
954.0
954.0
952.0
953.0
951.0
951.0
953.0
954.0
954.0
952.0
954.0
952.0
953.0
956.0
956.0
954.0
954.0
953.0
954.0
957.0
956.0
956.0
954.0
953.0
952.0
958.0
958.0
955.0
951.0
950.0
954.0
956.0
954.0
954.0
953.0
952.0
954.0
955.0
954.0
954.0
951.0
952.0
954.0
956.0
955.0
954.0
952.0
952.0
955.0
957.0
956.0
956.0
954.0
953.0
955.0
958.0
958.0
953.0
954.0
952.0
953.0
956.0
954.0
953.0
950.0
951.0
952.0
955.0
955.0
952.0
950.0
950.0
954.0
955.0
954.0
953.0
950.0
951.0
953.0
957.0
956.0
957.0
956.0
956.0
958.0
964.0
964.0
965.0
962.0
963.0
966.0
970.0
970.0
970.0
969.0
969.0
973.0
974.0
973.0
973.0
969.0
971.0
972.0
975.0
973.0
973.0
971.0
973.0
973.0
974.0
976.0
976.0
971.0
972.0
973.0
975.0
973.0
973.0
973.0
972.0
973.0
972.0
971.0
970.0
969.0
968.0
971.0
971.0
971.0
970.0
971.0
968.0
970.0
973.0
970.0
971.0
970.0
970.0
969.0
973.0
971.0
970.0
968.0
967.0
970.0
971.0
969.0
967.0
965.0
964.0
967.0
969.0
970.0
967.0
965.0
963.0
966.0
969.0
967.0
967.0
965.0
964.0
966.0
967.0
967.0
968.0
966.0
965.0
967.0
971.0
969.0
970.0
967.0
968.0
972.0
975.0
975.0
974.0
973.0
975.0
981.0
983.0
986.0
983.0
982.0
984.0
987.0
991.0
993.0
992.0
994.0
991.0
994.0
993.0
991.0
990.0
989.0
990.0
992.0
994.0
997.0
997.0
988.0
980.0
980.0
979.0
976.0
972.0
967.0
964.0
963.0
964.0
965.0
965.0
967.0
965.0
967.0
971.0
969.0
967.0
965.0
965.0
964.0
964.0
963.0
963.0
960.0
959.0
960.0
963.0
961.0
959.0
958.0
958.0
960.0
963.0
956.0
950.0
942.0
935.0
929.0
925.0
925.0
942.0
967.0
999.0
1036.0
1089.0
1144.0
1182.0
1192.0
1167.0
1108.0
1030.0
957.0
921.0
922.0
936.0
947.0
954.0
952.0
952.0
951.0
952.0
954.0
955.0
954.0
953.0
952.0
948.0
951.0
951.0
951.0
950.0
948.0
949.0
952.0
953.0
952.0
950.0
946.0
948.0
947.0
950.0
950.0
952.0
948.0
948.0
951.0
951.0
951.0
949.0
947.0
948.0
948.0
950.0
947.0
948.0
947.0
948.0
950.0
952.0
952.0
950.0
950.0
948.0
951.0
953.0
950.0
949.0
946.0
947.0
947.0
948.0
949.0
949.0
946.0
948.0
951.0
952.0
950.0
949.0
947.0
946.0
947.0
947.0
947.0
947.0
946.0
946.0
947.0
950.0
947.0
944.0
943.0
941.0
944.0
945.0
944.0
944.0
943.0
943.0
944.0
948.0
947.0
946.0
944.0
942.0
944.0
949.0
946.0
949.0
949.0
952.0
955.0
960.0
960.0
960.0
959.0
960.0
962.0
964.0
964.0
966.0
961.0
960.0
964.0
967.0
967.0
966.0
965.0
962.0
961.0
962.0
963.0
963.0
962.0
960.0
962.0
964.0
963.0
963.0
961.0
962.0
963.0
964.0
964.0
961.0
960.0
958.0
959.0
962.0
961.0
957.0
956.0
956.0
960.0
963.0
961.0
958.0
955.0
954.0
953.0
956.0
957.0
954.0
953.0
952.0
955.0
957.0
956.0
957.0
955.0
953.0
951.0
953.0
953.0
955.0
954.0
954.0
954.0
956.0
956.0
954.0
951.0
951.0
951.0
954.0
953.0
952.0
953.0
958.0
961.0
964.0
964.0
962.0
962.0
962.0
965.0
969.0
970.0
971.0
971.0
973.0
975.0
976.0
975.0
975.0
973.0
975.0
975.0
976.0
976.0
975.0
975.0
974.0
976.0
977.0
979.0
979.0
982.0
980.0
979.0
974.0
973.0
966.0
964.0
958.0
955.0
950.0
949.0
948.0
948.0
946.0
951.0
952.0
953.0
953.0
949.0
944.0
944.0
946.0
950.0
948.0
945.0
945.0
947.0
949.0
948.0
947.0
943.0
941.0
936.0
930.0
926.0
920.0
910.0
907.0
919.0
945.0
975.0
1008.0
1054.0
1114.0
1169.0
1210.0
1224.0
1204.0
1150.0
1069.0
995.0
947.0
927.0
913.0
913.0
920.0
933.0
938.0
938.0
939.0
935.0
934.0
937.0
935.0
935.0
933.0
933.0
937.0
939.0
942.0
943.0
939.0
937.0
935.0
938.0
937.0
937.0
936.0
934.0
932.0
933.0
934.0
937.0
936.0
931.0
932.0
937.0
934.0
933.0
934.0
932.0
931.0
932.0
937.0
936.0
934.0
931.0
930.0
929.0
930.0
933.0
935.0
933.0
935.0
937.0
936.0
936.0
936.0
933.0
929.0
932.0
933.0
934.0
931.0
930.0
930.0
930.0
932.0
930.0
930.0
928.0
926.0
931.0
930.0
930.0
928.0
927.0
925.0
925.0
926.0
926.0
923.0
923.0
925.0
922.0
925.0
923.0
921.0
920.0
920.0
923.0
925.0
927.0
927.0
925.0
929.0
934.0
938.0
944.0
943.0
943.0
942.0
949.0
954.0
955.0
957.0
957.0
959.0
961.0
962.0
963.0
962.0
960.0
961.0
965.0
965.0
967.0
966.0
960.0
960.0
960.0
962.0
962.0
963.0
962.0
960.0
962.0
964.0
964.0
960.0
961.0
960.0
961.0
964.0
966.0
963.0
962.0
960.0
963.0
965.0
966.0
965.0
961.0
961.0
961.0
963.0
962.0
960.0
960.0
958.0
960.0
962.0
960.0
955.0
956.0
957.0
960.0
959.0
961.0
958.0
956.0
957.0
957.0
961.0
962.0
960.0
958.0
956.0
957.0
960.0
959.0
960.0
959.0
958.0
959.0
963.0
962.0
962.0
962.0
964.0
967.0
969.0
969.0
970.0
969.0
972.0
974.0
978.0
978.0
977.0
978.0
979.0
985.0
987.0
986.0
986.0
984.0
982.0
981.0
982.0
984.0
983.0
983.0
981.0
984.0
993.0
993.0
989.0
982.0
975.0
973.0
974.0
972.0
966.0
962.0
960.0
960.0
961.0
961.0
960.0
960.0
956.0
960.0
962.0
961.0
958.0
955.0
958.0
959.0
960.0
961.0
959.0
957.0
955.0
956.0
958.0
959.0
957.0
957.0
955.0
957.0
953.0
949.0
939.0
934.0
931.0
923.0
922.0
923.0
945.0
973.0
1007.0
1048.0
1097.0
1156.0
1201.0
1225.0
1219.0
1173.0
1089.0
996.0
935.0
920.0
931.0
947.0
955.0
952.0
949.0
948.0
948.0
950.0
951.0
951.0
946.0
946.0
946.0
948.0
950.0
947.0
946.0
946.0
947.0
949.0
948.0
948.0
946.0
947.0
945.0
948.0
951.0
950.0
950.0
948.0
948.0
947.0
951.0
948.0
947.0
944.0
945.0
949.0
950.0
950.0
949.0
947.0
949.0
948.0
952.0
951.0
950.0
950.0
947.0
948.0
951.0
954.0
951.0
948.0
947.0
949.0
953.0
953.0
951.0
948.0
946.0
945.0
951.0
952.0
950.0
947.0
948.0
947.0
950.0
949.0
947.0
945.0
944.0
949.0
951.0
949.0
949.0
948.0
944.0
949.0
950.0
950.0
949.0
948.0
947.0
949.0
951.0
951.0
951.0
948.0
948.0
954.0
959.0
959.0
961.0
960.0
961.0
966.0
969.0
970.0
968.0
970.0
972.0
973.0
976.0
976.0
974.0
973.0
972.0
976.0
975.0
975.0
974.0
973.0
974.0
974.0
974.0
976.0
975.0
974.0
972.0
974.0
975.0
975.0
974.0
973.0
969.0
976.0
978.0
976.0
976.0
973.0
972.0
976.0
974.0
973.0
971.0
968.0
969.0
971.0
973.0
971.0
969.0
965.0
967.0
970.0
971.0
970.0
970.0
969.0
967.0
971.0
971.0
973.0
971.0
969.0
967.0
970.0
971.0
970.0
970.0
970.0
969.0
975.0
977.0
979.0
979.0
979.0
982.0
985.0
986.0
988.0
990.0
987.0
989.0
992.0
997.0
996.0
994.0
994.0
993.0
995.0
992.0
993.0
990.0
989.0
985.0
988.0
992.0
993.0
991.0
991.0
992.0
995.0
1002.0
1003.0
995.0
985.0
982.0
980.0
983.0
980.0
974.0
971.0
968.0
969.0
968.0
969.0
970.0
966.0
966.0
966.0
966.0
963.0
963.0
964.0
962.0
964.0
965.0
965.0
965.0
963.0
962.0
963.0
965.0
965.0
962.0
962.0
959.0
956.0
949.0
944.0
939.0
930.0
922.0
922.0
935.0
958.0
980.0
998.0
1020.0
1051.0
1098.0
1151.0
1188.0
1213.0
1215.0
1185.0
1122.0
1038.0
968.0
934.0
931.0
945.0
958.0
961.0
960.0
957.0
957.0
958.0
961.0
960.0
957.0
953.0
954.0
956.0
958.0
957.0
958.0
956.0
956.0
955.0
960.0
960.0
956.0
957.0
955.0
956.0
960.0
958.0
958.0
955.0
954.0
954.0
958.0
957.0
955.0
953.0
953.0
953.0
954.0
957.0
956.0
955.0
956.0
955.0
956.0
956.0
956.0
956.0
957.0
956.0
958.0
957.0
957.0
953.0
954.0
957.0
960.0
958.0
956.0
955.0
956.0
958.0
959.0
960.0
958.0
956.0
956.0
959.0
958.0
957.0
958.0
955.0
954.0
956.0
957.0
959.0
957.0
954.0
956.0
956.0
958.0
957.0
957.0
954.0
953.0
957.0
959.0
957.0
954.0
954.0
953.0
957.0
958.0
960.0
961.0
960.0
961.0
964.0
970.0
968.0
969.0
967.0
967.0
971.0
972.0
974.0
974.0
972.0
971.0
974.0
977.0
975.0
974.0
971.0
971.0
971.0
973.0
971.0
971.0
970.0
970.0
970.0
973.0
971.0
970.0
970.0
969.0
971.0
972.0
972.0
970.0
971.0
968.0
969.0
973.0
970.0
968.0
966.0
965.0
968.0
969.0
968.0
967.0
966.0
965.0
968.0
969.0
970.0
967.0
968.0
966.0
965.0
968.0
965.0
966.0
965.0
964.0
964.0
966.0
967.0
963.0
958.0
962.0
964.0
965.0
965.0
965.0
963.0
961.0
964.0
964.0
966.0
965.0
967.0
969.0
970.0
975.0
976.0
976.0
976.0
976.0
977.0
980.0
980.0
980.0
981.0
982.0
985.0
988.0
989.0
987.0
985.0
982.0
982.0
986.0
986.0
987.0
987.0
986.0
991.0
996.0
999.0
997.0
993.0
985.0
981.0
979.0
977.0
974.0
968.0
964.0
962.0
964.0
960.0
959.0
957.0
957.0
959.0
963.0
961.0
959.0
956.0
956.0
958.0
961.0
959.0
956.0
955.0
954.0
953.0
954.0
953.0
954.0
953.0
951.0
953.0
956.0
953.0
945.0
937.0
931.0
930.0
926.0
919.0
920.0
935.0
959.0
988.0
1019.0
1065.0
1118.0
1159.0
1187.0
1195.0
1167.0
1102.0
1021.0
955.0
920.0
917.0
931.0
943.0
947.0
945.0
946.0
945.0
950.0
950.0
950.0
950.0
946.0
951.0
951.0
949.0
947.0
945.0
943.0
942.0
945.0
945.0
944.0
945.0
944.0
946.0
947.0
944.0
943.0
939.0
940.0
942.0
942.0
944.0
943.0
943.0
941.0
944.0
946.0
944.0
943.0
943.0
943.0
945.0
944.0
944.0
942.0
942.0
941.0
943.0
946.0
945.0
942.0
940.0
942.0
942.0
940.0
942.0
941.0
939.0
939.0
939.0
941.0
940.0
941.0
939.0
941.0
942.0
942.0
943.0
943.0
942.0
942.0
942.0
945.0
944.0
942.0
941.0
942.0
942.0
945.0
943.0
942.0
941.0
940.0
939.0
941.0
941.0
943.0
939.0
936.0
937.0
940.0
939.0
939.0
938.0
937.0
939.0
937.0
937.0
938.0
939.0
942.0
945.0
948.0
948.0
948.0
946.0
949.0
953.0
955.0
955.0
956.0
956.0
956.0
957.0
959.0
959.0
957.0
956.0
952.0
955.0
958.0
959.0
960.0
957.0
956.0
956.0
958.0
959.0
958.0
956.0
954.0
955.0
955.0
957.0
953.0
952.0
953.0
953.0
957.0
957.0
956.0
949.0
947.0
949.0
952.0
952.0
951.0
949.0
949.0
951.0
954.0
953.0
951.0
949.0
947.0
949.0
951.0
950.0
949.0
947.0
946.0
947.0
950.0
947.0
947.0
944.0
945.0
947.0
948.0
946.0
942.0
941.0
942.0
944.0
945.0
944.0
945.0
945.0
946.0
950.0
956.0
956.0
954.0
952.0
954.0
954.0
956.0
957.0
959.0
955.0
957.0
962.0
965.0
966.0
966.0
967.0
965.0
968.0
969.0
967.0
964.0
966.0
965.0
968.0
968.0
970.0
970.0
972.0
975.0
973.0
963.0
958.0
954.0
952.0
949.0
945.0
944.0
943.0
937.0
934.0
936.0
940.0
940.0
941.0
943.0
943.0
941.0
939.0
942.0
941.0
937.0
938.0
937.0
940.0
940.0
941.0
938.0
935.0
936.0
937.0
941.0
936.0
934.0
933.0
923.0
919.0
917.0
914.0
907.0
898.0
903.0
921.0
948.0
971.0
1002.0
1040.0
1092.0
1148.0
1190.0
1218.0
1227.0
1218.0
1176.0
1121.0
1067.0
1014.0
971.0
942.0
916.0
905.0
901.0
904.0
916.0
921.0
925.0
925.0
927.0
928.0
929.0
929.0
926.0
927.0
929.0
929.0
927.0
925.0
923.0
924.0
929.0
930.0
926.0
926.0
928.0
928.0
930.0
928.0
925.0
923.0
924.0
927.0
930.0
930.0
929.0
926.0
924.0
924.0
925.0
924.0
925.0
924.0
923.0
926.0
926.0
927.0
925.0
926.0
925.0
927.0
926.0
927.0
927.0
926.0
924.0
927.0
929.0
927.0
926.0
925.0
925.0
928.0
929.0
927.0
924.0
923.0
923.0
926.0
925.0
925.0
921.0
921.0
923.0
923.0
925.0
923.0
920.0
917.0
915.0
915.0
915.0
918.0
915.0
916.0
914.0
913.0
914.0
916.0
914.0
911.0
908.0
910.0
910.0
911.0
912.0
911.0
913.0
916.0
920.0
923.0
925.0
928.0
927.0
932.0
936.0
938.0
938.0
935.0
938.0
945.0
947.0
951.0
949.0
949.0
949.0
951.0
952.0
953.0
952.0
950.0
949.0
950.0
951.0
953.0
951.0
950.0
951.0
954.0
955.0
955.0
953.0
952.0
948.0
953.0
958.0
957.0
956.0
953.0
951.0
952.0
954.0
954.0
952.0
950.0
950.0
953.0
954.0
954.0
951.0
951.0
951.0
952.0
954.0
954.0
949.0
947.0
945.0
948.0
949.0
948.0
947.0
946.0
944.0
946.0
948.0
946.0
945.0
944.0
944.0
947.0
949.0
948.0
946.0
945.0
945.0
947.0
948.0
947.0
947.0
945.0
944.0
948.0
951.0
952.0
952.0
954.0
953.0
