# Simple Text Format
# Sampling Rate (Hz):= 360.00
# Resolution:= 12
# Labels:= ECG
958.0
960.0
962.0
961.0
960.0
958.0
961.0
961.0
960.0
962.0
959.0
959.0
961.0
963.0
962.0
962.0
961.0
958.0
960.0
963.0
963.0
959.0
959.0
959.0
962.0
962.0
961.0
962.0
960.0
959.0
960.0
961.0
963.0
964.0
961.0
961.0
962.0
963.0
967.0
965.0
962.0
963.0
963.0
966.0
964.0
965.0
962.0
960.0
958.0
959.0
960.0
960.0
960.0
958.0
957.0
958.0
959.0
960.0
957.0
955.0
955.0
959.0
960.0
960.0
961.0
958.0
961.0
963.0
967.0
966.0
966.0
969.0
969.0
970.0
974.0
975.0
974.0
976.0
977.0
981.0
980.0
982.0
980.0
979.0
979.0
984.0
985.0
985.0
984.0
982.0
982.0
982.0
987.0
984.0
982.0
982.0
983.0
984.0
983.0
984.0
983.0
981.0
981.0
984.0
982.0
981.0
981.0
977.0
978.0
979.0
981.0
981.0
979.0
977.0
977.0
978.0
981.0
981.0
980.0
976.0
978.0
979.0
980.0
982.0
978.0
977.0
977.0
976.0
980.0
980.0
980.0
975.0
975.0
977.0
979.0
978.0
976.0
971.0
973.0
974.0
977.0
974.0
974.0
972.0
974.0
975.0
978.0
978.0
975.0
973.0
971.0
975.0
976.0
977.0
976.0
975.0
973.0
976.0
977.0
975.0
974.0
973.0
973.0
974.0
974.0
975.0
975.0
974.0
975.0
977.0
980.0
980.0
981.0
981.0
982.0
986.0
988.0
988.0
990.0
989.0
991.0
994.0
996.0
998.0
997.0
997.0
997.0
1002.0
1003.0
1004.0
999.0
997.0
993.0
996.0
998.0
1001.0
997.0
995.0
998.0
999.0
1006.0
1009.0
1007.0
1001.0
995.0
990.0
991.0
988.0
987.0
979.0
979.0
979.0
979.0
977.0
974.0
970.0
971.0
974.0
973.0
973.0
971.0
970.0
968.0
968.0
972.0
968.0
967.0
965.0
967.0
969.0
968.0
968.0
967.0
966.0
967.0
967.0
969.0
970.0
967.0
962.0
960.0
959.0
953.0
947.0
941.0
937.0
928.0
924.0
931.0
948.0
970.0
989.0
1020.0
1061.0
1116.0
1162.0
1188.0
1194.0
1175.0
1133.0
1069.0
1006.0
958.0
936.0
936.0
944.0
954.0
959.0
958.0
954.0
955.0
958.0
960.0
961.0
959.0
957.0
956.0
959.0
959.0
961.0
960.0
958.0
958.0
959.0
961.0
959.0
956.0
955.0
956.0
957.0
958.0
958.0
956.0
953.0
955.0
954.0
959.0
958.0
957.0
957.0
957.0
957.0
959.0
959.0
957.0
954.0
957.0
958.0
960.0
959.0
960.0
953.0
955.0
960.0
962.0
961.0
958.0
956.0
956.0
959.0
961.0
960.0
959.0
956.0
956.0
959.0
960.0
961.0
960.0
956.0
958.0
960.0
961.0
961.0
960.0
959.0
958.0
961.0
962.0
961.0
960.0
958.0
959.0
957.0
957.0
958.0
955.0
957.0
955.0
959.0
959.0
958.0
958.0
956.0
956.0
955.0
958.0
958.0
957.0
955.0
955.0
958.0
960.0
961.0
960.0
960.0
960.0
964.0
968.0
970.0
969.0
969.0
971.0
971.0
973.0
973.0
974.0
973.0
975.0
978.0
977.0
976.0
976.0
973.0
973.0
976.0
979.0
979.0
978.0
974.0
974.0
977.0
977.0
978.0
974.0
975.0
976.0
977.0
979.0
976.0
975.0
976.0
975.0
974.0
975.0
974.0
972.0
970.0
969.0
972.0
972.0
971.0
972.0
972.0
971.0
972.0
973.0
972.0
971.0
972.0
972.0
974.0
973.0
973.0
971.0
970.0
970.0
972.0
972.0
971.0
970.0
967.0
965.0
967.0
968.0
967.0
966.0
966.0
965.0
967.0
971.0
967.0
966.0
964.0
964.0
965.0
968.0
967.0
966.0
966.0
965.0
967.0
969.0
970.0
969.0
969.0
966.0
967.0
968.0
967.0
967.0
966.0
965.0
965.0
968.0
968.0
966.0
966.0
968.0
971.0
976.0
977.0
973.0
975.0
977.0
978.0
982.0
984.0
983.0
982.0
984.0
986.0
988.0
990.0
989.0
987.0
987.0
988.0
989.0
986.0
987.0
988.0
986.0
987.0
990.0
992.0
993.0
990.0
985.0
979.0
978.0
974.0
972.0
969.0
965.0
963.0
964.0
962.0
957.0
958.0
958.0
958.0
961.0
960.0
956.0
951.0
954.0
954.0
954.0
954.0
956.0
954.0
954.0
954.0
958.0
958.0
957.0
954.0
953.0
957.0
957.0
954.0
950.0
942.0
935.0
933.0
934.0
933.0
927.0
916.0
907.0
905.0
915.0
932.0
953.0
978.0
1016.0
1066.0
1120.0
1164.0
1183.0
1184.0
1149.0
1090.0
1028.0
972.0
940.0
928.0
929.0
939.0
945.0
947.0
945.0
944.0
948.0
948.0
948.0
948.0
946.0
941.0
942.0
944.0
947.0
945.0
947.0
947.0
947.0
948.0
951.0
950.0
948.0
944.0
945.0
945.0
947.0
947.0
944.0
944.0
943.0
944.0
945.0
945.0
941.0
941.0
939.0
942.0
943.0
944.0
942.0
940.0
943.0
944.0
946.0
946.0
944.0
942.0
944.0
943.0
946.0
945.0
944.0
941.0
941.0
945.0
949.0
946.0
947.0
943.0
943.0
943.0
946.0
945.0
943.0
944.0
945.0
945.0
947.0
946.0
943.0
942.0
940.0
941.0
944.0
942.0
941.0
937.0
936.0
938.0
938.0
938.0
938.0
938.0
936.0
938.0
938.0
938.0
936.0
934.0
935.0
939.0
943.0
943.0
944.0
946.0
945.0
949.0
953.0
955.0
956.0
956.0
958.0
961.0
963.0
967.0
968.0
965.0
966.0
968.0
970.0
970.0
968.0
966.0
965.0
965.0
968.0
966.0
964.0
963.0
967.0
968.0
971.0
967.0
967.0
966.0
964.0
966.0
967.0
967.0
966.0
963.0
963.0
963.0
966.0
966.0
963.0
962.0
964.0
964.0
967.0
966.0
964.0
963.0
962.0
961.0
962.0
962.0
958.0
959.0
957.0
960.0
960.0
959.0
960.0
956.0
955.0
958.0
962.0
961.0
959.0
957.0
956.0
959.0
962.0
960.0
960.0
958.0
958.0
959.0
959.0
959.0
959.0
959.0
957.0
961.0
962.0
962.0
959.0
960.0
959.0
960.0
963.0
962.0
959.0
958.0
957.0
961.0
966.0
965.0
964.0
964.0
966.0
969.0
970.0
972.0
973.0
972.0
970.0
975.0
977.0
979.0
979.0
980.0
980.0
983.0
987.0
986.0
985.0
985.0
982.0
983.0
984.0
988.0
986.0
983.0
985.0
990.0
992.0
988.0
979.0
974.0
971.0
968.0
967.0
964.0
963.0
959.0
959.0
959.0
962.0
962.0
960.0
957.0
957.0
958.0
960.0
959.0
957.0
956.0
957.0
958.0
960.0
959.0
958.0
957.0
955.0
957.0
956.0
952.0
943.0
933.0
931.0
928.0
921.0
919.0
929.0
950.0
980.0
1016.0
1062.0
1117.0
1168.0
1202.0
1207.0
1179.0
1113.0
1027.0
962.0
931.0
925.0
932.0
944.0
951.0
953.0
954.0
949.0
951.0
952.0
952.0
951.0
951.0
953.0
953.0
955.0
955.0
953.0
952.0
954.0
952.0
955.0
956.0
955.0
953.0
952.0
954.0
954.0
954.0
952.0
952.0
952.0
954.0
958.0
954.0
956.0
952.0
953.0
956.0
958.0
956.0
955.0
953.0
953.0
957.0
959.0
958.0
955.0
955.0
955.0
954.0
959.0
956.0
954.0
953.0
953.0
955.0
955.0
956.0
954.0
954.0
953.0
956.0
959.0
958.0
954.0
955.0
957.0
958.0
957.0
957.0
958.0
954.0
954.0
958.0
956.0
954.0
954.0
951.0
951.0
952.0
953.0
952.0
950.0
950.0
949.0
951.0
952.0
952.0
949.0
950.0
949.0
949.0
954.0
953.0
953.0
955.0
956.0
959.0
962.0
963.0
966.0
964.0
967.0
972.0
977.0
976.0
976.0
973.0
975.0
979.0
978.0
978.0
980.0
977.0
977.0
980.0
980.0
980.0
980.0
978.0
977.0
980.0
981.0
980.0
979.0
977.0
979.0
979.0
982.0
980.0
980.0
979.0
977.0
979.0
981.0
979.0
979.0
978.0
977.0
980.0
981.0
981.0
977.0
974.0
977.0
977.0
980.0
976.0
978.0
976.0
975.0
977.0
979.0
979.0
978.0
974.0
971.0
972.0
975.0
974.0
974.0
972.0
972.0
973.0
974.0
976.0
973.0
973.0
973.0
975.0
977.0
975.0
975.0
975.0
975.0
975.0
977.0
975.0
976.0
975.0
972.0
977.0
978.0
977.0
977.0
976.0
973.0
977.0
981.0
982.0
983.0
982.0
983.0
987.0
991.0
991.0
990.0
990.0
991.0
993.0
996.0
997.0
999.0
997.0
999.0
1001.0
1002.0
1000.0
995.0
995.0
994.0
998.0
1001.0
1001.0
1004.0
1008.0
1004.0
998.0
995.0
991.0
988.0
987.0
986.0
982.0
981.0
978.0
978.0
974.0
971.0
971.0
972.0
972.0
972.0
968.0
970.0
970.0
970.0
971.0
968.0
966.0
966.0
967.0
971.0
967.0
969.0
966.0
965.0
968.0
972.0
969.0
967.0
967.0
960.0
958.0
948.0
944.0
935.0
926.0
923.0
936.0
960.0
988.0
1019.0
1062.0
1117.0
1169.0
1200.0
1203.0
1171.0
1104.0
1021.0
966.0
942.0
943.0
950.0
956.0
961.0
962.0
964.0
962.0
960.0
961.0
957.0
960.0
963.0
962.0
962.0
960.0
959.0
963.0
963.0
962.0
961.0
961.0
960.0
964.0
962.0
962.0
962.0
961.0
960.0
963.0
965.0
963.0
963.0
959.0
961.0
961.0
962.0
963.0
961.0
961.0
962.0
964.0
966.0
963.0
961.0
961.0
962.0
964.0
965.0
966.0
964.0
961.0
962.0
964.0
965.0
964.0
962.0
960.0
960.0
965.0
965.0
964.0
964.0
962.0
962.0
966.0
968.0
967.0
965.0
963.0
963.0
964.0
968.0
967.0
965.0
964.0
964.0
966.0
967.0
964.0
965.0
960.0
961.0
962.0
962.0
963.0
962.0
961.0
960.0
962.0
963.0
963.0
961.0
962.0
962.0
966.0
968.0
969.0
969.0
969.0
968.0
974.0
974.0
977.0
976.0
976.0
977.0
981.0
983.0
983.0
982.0
981.0
981.0
983.0
984.0
983.0
983.0
981.0
981.0
981.0
983.0
982.0
982.0
981.0
981.0
981.0
985.0
983.0
982.0
981.0
980.0
983.0
986.0
983.0
982.0
979.0
978.0
980.0
981.0
982.0
979.0
979.0
977.0
978.0
979.0
978.0
980.0
977.0
976.0
977.0
979.0
979.0
975.0
975.0
975.0
975.0
978.0
977.0
973.0
972.0
971.0
974.0
975.0
975.0
973.0
972.0
974.0
973.0
976.0
976.0
972.0
971.0
972.0
975.0
976.0
977.0
974.0
972.0
971.0
973.0
976.0
975.0
973.0
972.0
971.0
974.0
974.0
974.0
974.0
971.0
972.0
974.0
978.0
978.0
975.0
976.0
978.0
982.0
986.0
986.0
987.0
987.0
986.0
985.0
989.0
992.0
993.0
991.0
995.0
997.0
999.0
997.0
993.0
990.0
990.0
993.0
996.0
996.0
994.0
998.0
1000.0
1000.0
994.0
986.0
982.0
978.0
975.0
973.0
972.0
972.0
969.0
968.0
964.0
964.0
968.0
967.0
967.0
967.0
963.0
966.0
966.0
967.0
965.0
963.0
960.0
963.0
966.0
963.0
963.0
960.0
960.0
963.0
961.0
963.0
959.0
955.0
949.0
942.0
938.0
935.0
924.0
913.0
915.0
933.0
956.0
984.0
1020.0
1067.0
1125.0
1167.0
1192.0
1188.0
1149.0
1078.0
1001.0
947.0
922.0
919.0
926.0
931.0
939.0
948.0
948.0
948.0
946.0
944.0
947.0
948.0
950.0
947.0
947.0
943.0
941.0
945.0
948.0
950.0
952.0
947.0
946.0
948.0
950.0
950.0
950.0
947.0
949.0
948.0
949.0
947.0
946.0
943.0
944.0
945.0
949.0
949.0
947.0
948.0
947.0
950.0
949.0
947.0
947.0
946.0
943.0
945.0
946.0
949.0
946.0
945.0
944.0
946.0
947.0
947.0
944.0
943.0
942.0
946.0
946.0
947.0
947.0
946.0
943.0
947.0
948.0
947.0
946.0
944.0
944.0
946.0
948.0
947.0
943.0
943.0
944.0
945.0
944.0
944.0
942.0
937.0
938.0
938.0
941.0
941.0
941.0
942.0
940.0
941.0
941.0
942.0
938.0
938.0
939.0
944.0
948.0
948.0
951.0
949.0
949.0
951.0
955.0
957.0
956.0
956.0
960.0
959.0
962.0
961.0
959.0
957.0
958.0
961.0
966.0
965.0
965.0
959.0
960.0
962.0
964.0
964.0
964.0
960.0
959.0
960.0
963.0
964.0
962.0
963.0
961.0
963.0
961.0
960.0
960.0
959.0
958.0
959.0
962.0
961.0
957.0
956.0
953.0
955.0
961.0
960.0
956.0
957.0
955.0
958.0
959.0
957.0
954.0
952.0
952.0
952.0
954.0
957.0
956.0
953.0
951.0
954.0
955.0
955.0
954.0
950.0
952.0
954.0
954.0
953.0
954.0
952.0
952.0
953.0
952.0
953.0
951.0
950.0
952.0
955.0
953.0
953.0
951.0
952.0
948.0
952.0
952.0
953.0
952.0
950.0
951.0
952.0
954.0
956.0
955.0
954.0
953.0
953.0
954.0
954.0
953.0
953.0
955.0
960.0
964.0
962.0
960.0
960.0
959.0
962.0
967.0
970.0
968.0
970.0
970.0
972.0
978.0
978.0
976.0
975.0
971.0
971.0
975.0
978.0
974.0
974.0
971.0
974.0
978.0
978.0
979.0
981.0
979.0
976.0
971.0
968.0
963.0
958.0
954.0
953.0
951.0
949.0
947.0
947.0
944.0
946.0
947.0
947.0
943.0
942.0
942.0
947.0
947.0
948.0
943.0
942.0
941.0
942.0
945.0
945.0
943.0
942.0
941.0
940.0
940.0
935.0
926.0
921.0
916.0
912.0
906.0
905.0
915.0
936.0
964.0
997.0
1038.0
1092.0
1143.0
1180.0
1195.0
1182.0
1136.0
1066.0
1002.0
956.0
931.0
916.0
911.0
910.0
916.0
922.0
929.0
932.0
935.0
934.0
934.0
931.0
932.0
935.0
935.0
937.0
934.0
932.0
934.0
935.0
936.0
934.0
934.0
930.0
930.0
932.0
935.0
933.0
930.0
931.0
930.0
932.0
934.0
934.0
932.0
930.0
930.0
931.0
931.0
934.0
932.0
930.0
930.0
931.0
934.0
932.0
932.0
932.0
930.0
931.0
937.0
933.0
931.0
929.0
929.0
931.0
932.0
932.0
931.0
931.0
930.0
931.0
933.0
932.0
933.0
931.0
931.0
932.0
935.0
935.0
931.0
930.0
931.0
930.0
934.0
932.0
931.0
928.0
927.0
929.0
930.0
928.0
927.0
924.0
923.0
925.0
926.0
926.0
925.0
924.0
924.0
926.0
927.0
928.0
925.0
923.0
924.0
925.0
926.0
927.0
927.0
927.0
928.0
934.0
936.0
938.0
939.0
940.0
943.0
945.0
950.0
949.0
950.0
949.0
950.0
954.0
955.0
958.0
957.0
956.0
958.0
958.0
961.0
960.0
961.0
959.0
958.0
961.0
961.0
961.0
960.0
959.0
958.0
960.0
960.0
963.0
960.0
959.0
957.0
961.0
963.0
961.0
961.0
960.0
961.0
963.0
966.0
965.0
964.0
962.0
961.0
964.0
963.0
963.0
961.0
960.0
958.0
959.0
961.0
962.0
960.0
958.0
958.0
958.0
964.0
960.0
961.0
960.0
959.0
961.0
962.0
962.0
963.0
960.0
959.0
958.0
961.0
962.0
960.0
959.0
957.0
960.0
961.0
960.0
958.0
957.0
958.0
960.0
962.0
963.0
963.0
960.0
961.0
962.0
965.0
965.0
964.0
963.0
962.0
964.0
965.0
966.0
964.0
963.0
964.0
967.0
968.0
971.0
970.0
971.0
970.0
975.0
975.0
978.0
975.0
976.0
976.0
978.0
982.0
984.0
984.0
983.0
984.0
987.0
990.0
990.0
989.0
988.0
987.0
988.0
988.0
988.0
985.0
984.0
984.0
987.0
989.0
990.0
990.0
992.0
991.0
986.0
981.0
976.0
974.0
970.0
967.0
967.0
965.0
964.0
960.0
958.0
961.0
962.0
963.0
961.0
959.0
960.0
958.0
959.0
961.0
958.0
958.0
957.0
956.0
957.0
960.0
956.0
957.0
957.0
955.0
957.0
959.0
956.0
949.0
940.0
933.0
933.0
928.0
922.0
917.0
926.0
944.0
972.0
1000.0
1037.0
1083.0
1135.0
1173.0
1199.0
1216.0
1227.0
1232.0
1216.0
1161.0
1082.0
1004.0
950.0
930.0
931.0
943.0
954.0
956.0
954.0
954.0
951.0
951.0
956.0
954.0
954.0
951.0
949.0
948.0
950.0
951.0
951.0
950.0
949.0
944.0
947.0
951.0
951.0
952.0
949.0
948.0
949.0
951.0
949.0
951.0
949.0
949.0
950.0
955.0
953.0
951.0
949.0
949.0
952.0
954.0
955.0
951.0
951.0
948.0
950.0
950.0
951.0
951.0
950.0
949.0
949.0
951.0
952.0
952.0
951.0
948.0
950.0
953.0
953.0
952.0
951.0
951.0
954.0
956.0
954.0
952.0
949.0
951.0
953.0
951.0
952.0
950.0
948.0
948.0
950.0
950.0
953.0
950.0
946.0
947.0
949.0
952.0
950.0
949.0
947.0
947.0
949.0
949.0
951.0
952.0
951.0
951.0
954.0
956.0
956.0
957.0
957.0
957.0
959.0
963.0
964.0
965.0
965.0
965.0
970.0
970.0
973.0
972.0
971.0
971.0
973.0
976.0
975.0
975.0
973.0
974.0
977.0
978.0
976.0
975.0
973.0
973.0
976.0
979.0
979.0
975.0
975.0
975.0
977.0
977.0
978.0
976.0
974.0
973.0
974.0
975.0
976.0
972.0
970.0
969.0
971.0
974.0
974.0
972.0
970.0
971.0
972.0
972.0
974.0
972.0
972.0
971.0
972.0
973.0
972.0
970.0
968.0
967.0
969.0
969.0
968.0
968.0
968.0
967.0
968.0
969.0
970.0
971.0
968.0
968.0
969.0
971.0
970.0
968.0
967.0
967.0
967.0
971.0
970.0
971.0
966.0
966.0
968.0
970.0
969.0
969.0
966.0
965.0
966.0
967.0
967.0
967.0
965.0
965.0
968.0
969.0
972.0
971.0
973.0
974.0
977.0
978.0
979.0
979.0
981.0
981.0
984.0
985.0
986.0
987.0
987.0
987.0
989.0
991.0
994.0
995.0
994.0
992.0
992.0
990.0
989.0
988.0
986.0
988.0
991.0
992.0
991.0
991.0
997.0
998.0
1000.0
991.0
983.0
980.0
977.0
977.0
975.0
973.0
970.0
966.0
965.0
964.0
965.0
967.0
965.0
964.0
962.0
960.0
963.0
962.0
963.0
960.0
960.0
955.0
960.0
961.0
962.0
960.0
958.0
957.0
961.0
963.0
959.0
956.0
952.0
944.0
938.0
937.0
938.0
934.0
927.0
915.0
910.0
912.0
922.0
940.0
957.0
983.0
1010.0
1043.0
1087.0
1140.0
1180.0
1205.0
1209.0
1183.0
1117.0
1030.0
963.0
928.0
924.0
936.0
947.0
948.0
949.0
947.0
947.0
951.0
951.0
950.0
948.0
946.0
949.0
950.0
950.0
945.0
944.0
946.0
945.0
947.0
947.0
946.0
944.0
943.0
945.0
948.0
948.0
946.0
944.0
945.0
947.0
949.0
948.0
946.0
945.0
945.0
947.0
949.0
949.0
947.0
946.0
944.0
945.0
947.0
949.0
946.0
944.0
946.0
946.0
949.0
949.0
948.0
947.0
947.0
948.0
949.0
950.0
948.0
946.0
947.0
949.0
952.0
951.0
949.0
949.0
947.0
949.0
947.0
947.0
944.0
945.0
944.0
944.0
947.0
946.0
947.0
944.0
943.0
946.0
947.0
946.0
944.0
944.0
944.0
946.0
949.0
947.0
948.0
947.0
946.0
947.0
948.0
950.0
948.0
947.0
950.0
952.0
957.0
959.0
959.0
959.0
961.0
963.0
965.0
968.0
968.0
969.0
967.0
973.0
973.0
973.0
973.0
972.0
971.0
973.0
976.0
974.0
974.0
970.0
969.0
972.0
974.0
972.0
971.0
970.0
970.0
969.0
971.0
971.0
970.0
968.0
969.0
968.0
970.0
970.0
969.0
967.0
968.0
969.0
970.0
968.0
966.0
965.0
964.0
966.0
968.0
967.0
965.0
963.0
960.0
961.0
964.0
964.0
962.0
961.0
958.0
961.0
962.0
963.0
959.0
961.0
960.0
961.0
962.0
961.0
960.0
959.0
956.0
960.0
962.0
963.0
959.0
956.0
956.0
959.0
962.0
960.0
960.0
960.0
961.0
960.0
960.0
962.0
962.0
960.0
959.0
963.0
963.0
965.0
961.0
962.0
961.0
961.0
963.0
965.0
962.0
958.0
959.0
961.0
963.0
963.0
964.0
965.0
966.0
972.0
973.0
973.0
975.0
974.0
977.0
976.0
978.0
982.0
981.0
983.0
981.0
985.0
989.0
988.0
987.0
985.0
983.0
983.0
985.0
986.0
985.0
985.0
985.0
988.0
991.0
993.0
986.0
977.0
973.0
972.0
973.0
969.0
965.0
962.0
959.0
957.0
959.0
961.0
961.0
960.0
957.0
959.0
960.0
961.0
957.0
955.0
956.0
957.0
960.0
960.0
958.0
958.0
954.0
953.0
953.0
957.0
952.0
952.0
952.0
952.0
955.0
954.0
948.0
940.0
931.0
929.0
926.0
916.0
909.0
916.0
938.0
966.0
997.0
1035.0
1085.0
1137.0
1174.0
1190.0
1183.0
1132.0
1056.0
985.0
937.0
922.0
927.0
937.0
941.0
942.0
942.0
945.0
946.0
947.0
944.0
944.0
943.0
942.0
945.0
943.0
945.0
943.0
943.0
944.0
943.0
945.0
943.0
942.0
942.0
945.0
946.0
947.0
946.0
946.0
942.0
944.0
943.0
944.0
941.0
943.0
942.0
945.0
946.0
947.0
944.0
943.0
939.0
944.0
948.0
944.0
943.0
940.0
939.0
942.0
944.0
945.0
944.0
943.0
943.0
944.0
947.0
947.0
944.0
944.0
942.0
948.0
950.0
948.0
946.0
944.0
944.0
945.0
947.0
946.0
944.0
941.0
944.0
946.0
947.0
947.0
947.0
945.0
943.0
945.0
946.0
948.0
946.0
944.0
942.0
942.0
945.0
942.0
942.0
939.0
940.0
940.0
944.0
943.0
943.0
941.0
941.0
943.0
945.0
947.0
946.0
945.0
945.0
950.0
952.0
954.0
954.0
955.0
955.0
959.0
960.0
960.0
960.0
960.0
961.0
962.0
966.0
966.0
967.0
964.0
963.0
961.0
965.0
966.0
965.0
963.0
963.0
965.0
967.0
965.0
965.0
962.0
961.0
965.0
966.0
967.0
965.0
964.0
962.0
962.0
964.0
963.0
963.0
962.0
962.0
961.0
962.0
962.0
962.0
961.0
959.0
961.0
964.0
963.0
960.0
959.0
959.0
960.0
961.0
959.0
959.0
955.0
956.0
958.0
958.0
956.0
956.0
955.0
955.0
957.0
958.0
957.0
956.0
954.0
952.0
956.0
957.0
957.0
955.0
954.0
953.0
955.0
956.0
956.0
956.0
956.0
953.0
952.0
952.0
954.0
955.0
955.0
954.0
954.0
957.0
958.0
958.0
954.0
956.0
959.0
958.0
957.0
957.0
955.0
956.0
956.0
959.0
958.0
955.0
954.0
955.0
956.0
958.0
956.0
957.0
954.0
954.0
957.0
960.0
963.0
964.0
963.0
963.0
967.0
969.0
970.0
967.0
967.0
967.0
969.0
972.0
973.0
976.0
976.0
972.0
975.0
977.0
979.0
979.0
978.0
975.0
977.0
977.0
978.0
978.0
976.0
977.0
980.0
983.0
984.0
979.0
969.0
965.0
963.0
963.0
960.0
953.0
951.0
951.0
950.0
952.0
952.0
953.0
950.0
951.0
949.0
951.0
951.0
950.0
947.0
946.0
947.0
950.0
949.0
949.0
947.0
944.0
947.0
948.0
945.0
947.0
944.0
943.0
942.0
937.0
929.0
925.0
921.0
913.0
903.0
898.0
900.0
910.0
926.0
948.0
973.0
1004.0
1045.0
1096.0
1145.0
1179.0
1198.0
1184.0
1135.0
1059.0
991.0
941.0
922.0
918.0
925.0
931.0
933.0
930.0
936.0
938.0
939.0
939.0
939.0
937.0
937.0
940.0
939.0
938.0
938.0
935.0
936.0
939.0
937.0
936.0
934.0
933.0
934.0
936.0
937.0
939.0
936.0
933.0
936.0
939.0
940.0
939.0
938.0
936.0
938.0
938.0
937.0
936.0
936.0
934.0
934.0
935.0
938.0
937.0
937.0
935.0
936.0
938.0
939.0
935.0
936.0
936.0
934.0
936.0
938.0
939.0
937.0
935.0
939.0
940.0
939.0
939.0
937.0
935.0
938.0
940.0
938.0
936.0
934.0
935.0
937.0
937.0
936.0
934.0
933.0
932.0
929.0
930.0
931.0
931.0
930.0
929.0
929.0
932.0
931.0
929.0
928.0
926.0
928.0
930.0
930.0
930.0
932.0
932.0
936.0
938.0
941.0
944.0
944.0
945.0
950.0
954.0
956.0
960.0
958.0
958.0
959.0
964.0
964.0
965.0
965.0
962.0
964.0
966.0
967.0
966.0
965.0
963.0
967.0
967.0
966.0
964.0
961.0
965.0
967.0
966.0
967.0
966.0
964.0
963.0
964.0
965.0
965.0
965.0
962.0
963.0
964.0
965.0
965.0
966.0
964.0
963.0
962.0
965.0
965.0
963.0
960.0
958.0
961.0
964.0
963.0
961.0
960.0
959.0
960.0
962.0
960.0
961.0
957.0
955.0
961.0
960.0
962.0
961.0
960.0
959.0
961.0
961.0
962.0
961.0
960.0
958.0
961.0
961.0
964.0
960.0
959.0
957.0
959.0
963.0
962.0
961.0
959.0
959.0
962.0
963.0
963.0
962.0
960.0
958.0
963.0
963.0
963.0
964.0
962.0
961.0
964.0
965.0
965.0
964.0
963.0
966.0
968.0
971.0
971.0
973.0
973.0
974.0
977.0
977.0
980.0
980.0
982.0
982.0
986.0
987.0
987.0
985.0
981.0
981.0
982.0
987.0
985.0
986.0
986.0
988.0
991.0
986.0
976.0
973.0
970.0
967.0
965.0
965.0
964.0
961.0
957.0
957.0
960.0
961.0
961.0
958.0
959.0
956.0
957.0
960.0
959.0
959.0
954.0
953.0
956.0
956.0
959.0
957.0
955.0
953.0
953.0
957.0
959.0
958.0
952.0
950.0
946.0
940.0
932.0
928.0
918.0
911.0
910.0
926.0
953.0
984.0
1019.0
1067.0
1128.0
1182.0
1210.0
1209.0
1167.0
1086.0
1002.0
943.0
925.0
928.0
938.0
942.0
947.0
949.0
949.0
947.0
948.0
946.0
947.0
949.0
948.0
947.0
944.0
944.0
946.0
946.0
945.0
946.0
944.0
941.0
945.0
946.0
948.0
945.0
945.0
944.0
946.0
947.0
947.0
950.0
945.0
943.0
947.0
947.0
949.0
950.0
948.0
945.0
948.0
950.0
950.0
946.0
946.0
946.0
947.0
948.0
948.0
946.0
946.0
945.0
947.0
948.0
949.0
946.0
946.0
945.0
945.0
947.0
949.0
947.0
945.0
946.0
948.0
948.0
948.0
947.0
945.0
943.0
944.0
947.0
947.0
946.0
945.0
944.0
944.0
947.0
945.0
944.0
943.0
941.0
943.0
945.0
943.0
940.0
943.0
942.0
941.0
943.0
945.0
945.0
943.0
944.0
950.0
954.0
955.0
956.0
959.0
960.0
961.0
965.0
966.0
967.0
965.0
966.0
969.0
969.0
970.0
973.0
971.0
970.0
973.0
975.0
974.0
975.0
974.0
971.0
973.0
974.0
972.0
972.0
971.0
970.0
971.0
974.0
971.0
971.0
971.0
968.0
970.0
972.0
971.0
973.0
970.0
968.0
970.0
969.0
970.0
971.0
968.0
964.0
965.0
967.0
968.0
968.0
966.0
965.0
966.0
968.0
966.0
964.0
964.0
963.0
965.0
966.0
967.0
965.0
964.0
963.0
963.0
965.0
966.0
964.0
961.0
960.0
960.0
964.0
964.0
963.0
962.0
961.0
962.0
964.0
963.0
963.0
962.0
961.0
962.0
962.0
964.0
963.0
964.0
962.0
964.0
965.0
965.0
966.0
962.0
964.0
969.0
971.0
973.0
974.0
974.0
975.0
978.0
982.0
983.0
981.0
981.0
982.0
986.0
987.0
990.0
989.0
990.0
985.0
985.0
987.0
987.0
988.0
987.0
987.0
989.0
995.0
994.0
988.0
980.0
975.0
976.0
974.0
970.0
964.0
962.0
959.0
961.0
963.0
965.0
964.0
961.0
961.0
962.0
963.0
963.0
963.0
960.0
959.0
959.0
963.0
960.0
959.0
955.0
955.0
956.0
959.0
960.0
958.0
959.0
955.0
956.0
952.0
945.0
936.0
928.0
919.0
913.0
920.0
941.0
970.0
1000.0
1038.0
1093.0
1152.0
1195.0
1216.0
1207.0
1154.0
1069.0
990.0
939.0
924.0
932.0
942.0
950.0
951.0
952.0
951.0
947.0
948.0
950.0
950.0
952.0
951.0
947.0
948.0
949.0
950.0
950.0
949.0
947.0
944.0
947.0
947.0
949.0
946.0
947.0
943.0
947.0
948.0
950.0
950.0
949.0
948.0
949.0
950.0
951.0
947.0
947.0
948.0
950.0
951.0
952.0
950.0
949.0
945.0
947.0
949.0
950.0
948.0
947.0
944.0
947.0
949.0
950.0
947.0
945.0
946.0
948.0
949.0
949.0
948.0
948.0
948.0
950.0
952.0
953.0
953.0
951.0
949.0
949.0
950.0
953.0
948.0
950.0
949.0
949.0
951.0
950.0
948.0
947.0
946.0
947.0
944.0
948.0
946.0
946.0
945.0
948.0
949.0
949.0
950.0
952.0
950.0
952.0
956.0
959.0
958.0
960.0
960.0
964.0
967.0
970.0
970.0
972.0
969.0
972.0
972.0
978.0
973.0
974.0
973.0
973.0
976.0
977.0
977.0
974.0
974.0
975.0
977.0
978.0
975.0
976.0
974.0
974.0
976.0
977.0
976.0
972.0
970.0
972.0
974.0
976.0
978.0
973.0
970.0
971.0
974.0
975.0
972.0
971.0
970.0
972.0
973.0
972.0
970.0
970.0
970.0
970.0
971.0
972.0
972.0
969.0
968.0
971.0
972.0
972.0
970.0
970.0
967.0
966.0
968.0
969.0
968.0
967.0
966.0
968.0
970.0
970.0
970.0
967.0
967.0
967.0
972.0
971.0
970.0
967.0
967.0
968.0
971.0
972.0
970.0
969.0
965.0
966.0
967.0
965.0
970.0
966.0
965.0
967.0
970.0
970.0
969.0
969.0
967.0
970.0
975.0
975.0
978.0
978.0
