# Simple Text Format
# Sampling Rate (Hz):= 360.00
# Resolution:= 12
# Labels:= ECG
832.0
838.0
838.0
834.0
836.0
838.0
839.0
843.0
841.0
843.0
847.0
850.0
852.0
854.0
855.0
855.0
857.0
859.0
859.0
858.0
858.0
859.0
861.0
865.0
862.0
862.0
859.0
855.0
854.0
854.0
857.0
851.0
845.0
844.0
843.0
846.0
846.0
845.0
839.0
836.0
833.0
836.0
835.0
835.0
833.0
832.0
835.0
834.0
833.0
831.0
830.0
830.0
829.0
830.0
830.0
831.0
830.0
829.0
827.0
831.0
832.0
831.0
829.0
825.0
826.0
828.0
828.0
829.0
830.0
828.0
829.0
832.0
836.0
836.0
833.0
832.0
832.0
834.0
834.0
834.0
832.0
829.0
829.0
831.0
833.0
831.0
829.0
828.0
831.0
833.0
834.0
835.0
836.0
835.0
836.0
837.0
836.0
834.0
832.0
832.0
836.0
838.0
838.0
840.0
840.0
839.0
840.0
840.0
840.0
840.0
843.0
841.0
842.0
840.0
837.0
835.0
836.0
834.0
837.0
837.0
835.0
833.0
835.0
832.0
832.0
832.0
832.0
833.0
833.0
829.0
831.0
832.0
836.0
840.0
837.0
835.0
835.0
835.0
835.0
836.0
835.0
837.0
838.0
838.0
838.0
836.0
836.0
837.0
840.0
844.0
846.0
843.0
840.0
840.0
842.0
844.0
848.0
852.0
854.0
854.0
857.0
862.0
870.0
874.0
872.0
866.0
863.0
867.0
866.0
866.0
860.0
852.0
849.0
848.0
850.0
850.0
849.0
845.0
847.0
847.0
845.0
839.0
836.0
835.0
839.0
840.0
841.0
836.0
827.0
821.0
825.0
830.0
833.0
831.0
828.0
825.0
828.0
831.0
831.0
833.0
833.0
830.0
830.0
832.0
833.0
833.0
831.0
824.0
823.0
822.0
841.0
877.0
924.0
982.0
1051.0
1122.0
1169.0
1166.0
1112.0
1038.0
974.0
922.0
894.0
878.0
864.0
847.0
845.0
845.0
844.0
837.0
831.0
824.0
819.0
819.0
821.0
822.0
820.0
819.0
821.0
820.0
822.0
819.0
820.0
819.0
823.0
827.0
827.0
825.0
821.0
819.0
821.0
825.0
824.0
825.0
817.0
820.0
820.0
823.0
826.0
824.0
822.0
821.0
825.0
828.0
826.0
827.0
829.0
828.0
826.0
824.0
826.0
820.0
820.0
818.0
820.0
824.0
825.0
826.0
824.0
825.0
828.0
829.0
831.0
830.0
828.0
825.0
828.0
832.0
833.0
834.0
834.0
834.0
838.0
839.0
845.0
845.0
845.0
840.0
840.0
844.0
848.0
848.0
846.0
848.0
853.0
858.0
862.0
864.0
863.0
859.0
862.0
866.0
867.0
870.0
874.0
875.0
876.0
876.0
876.0
875.0
877.0
879.0
882.0
885.0
885.0
883.0
881.0
873.0
872.0
875.0
875.0
873.0
872.0
870.0
868.0
865.0
865.0
862.0
860.0
861.0
858.0
859.0
858.0
858.0
858.0
861.0
861.0
859.0
857.0
852.0
847.0
845.0
845.0
847.0
849.0
850.0
850.0
850.0
847.0
844.0
840.0
843.0
845.0
844.0
842.0
844.0
842.0
844.0
850.0
846.0
848.0
850.0
853.0
849.0
844.0
845.0
846.0
850.0
852.0
853.0
847.0
846.0
849.0
849.0
851.0
850.0
845.0
846.0
850.0
855.0
856.0
851.0
854.0
854.0
855.0
856.0
858.0
857.0
857.0
854.0
854.0
854.0
859.0
858.0
856.0
854.0
857.0
860.0
863.0
863.0
861.0
860.0
861.0
860.0
858.0
858.0
857.0
859.0
862.0
867.0
866.0
861.0
858.0
856.0
859.0
860.0
859.0
858.0
855.0
853.0
854.0
857.0
860.0
862.0
862.0
860.0
860.0
861.0
859.0
858.0
861.0
862.0
861.0
863.0
864.0
862.0
864.0
861.0
863.0
864.0
865.0
865.0
863.0
857.0
860.0
865.0
866.0
868.0
867.0
863.0
868.0
869.0
871.0
872.0
874.0
870.0
870.0
872.0
874.0
877.0
879.0
877.0
883.0
888.0
893.0
901.0
902.0
901.0
900.0
901.0
902.0
901.0
900.0
897.0
896.0
896.0
894.0
891.0
887.0
890.0
889.0
891.0
889.0
881.0
879.0
878.0
877.0
877.0
880.0
877.0
874.0
873.0
872.0
874.0
876.0
878.0
876.0
874.0
872.0
874.0
876.0
872.0
871.0
872.0
876.0
881.0
879.0
873.0
870.0
864.0
862.0
867.0
882.0
909.0
948.0
1001.0
1071.0
1145.0
1202.0
1220.0
1182.0
1115.0
1052.0
996.0
957.0
945.0
940.0
928.0
917.0
913.0
908.0
899.0
890.0
879.0
872.0
870.0
869.0
867.0
865.0
861.0
862.0
862.0
866.0
867.0
869.0
865.0
866.0
867.0
869.0
870.0
868.0
865.0
866.0
869.0
869.0
868.0
865.0
862.0
864.0
865.0
870.0
870.0
867.0
867.0
867.0
871.0
872.0
872.0
870.0
867.0
866.0
867.0
869.0
868.0
870.0
870.0
870.0
871.0
871.0
867.0
865.0
864.0
867.0
869.0
873.0
873.0
872.0
869.0
872.0
873.0
877.0
878.0
877.0
877.0
877.0
881.0
883.0
883.0
882.0
881.0
884.0
888.0
891.0
893.0
893.0
892.0
894.0
898.0
903.0
903.0
904.0
900.0
904.0
910.0
915.0
915.0
915.0
914.0
916.0
919.0
921.0
921.0
922.0
922.0
921.0
926.0
927.0
925.0
925.0
921.0
921.0
923.0
921.0
919.0
915.0
914.0
912.0
913.0
914.0
912.0
908.0
906.0
905.0
907.0
906.0
904.0
906.0
906.0
904.0
902.0
900.0
897.0
895.0
892.0
897.0
899.0
899.0
901.0
898.0
896.0
896.0
899.0
901.0
902.0
898.0
896.0
897.0
901.0
903.0
905.0
903.0
900.0
898.0
898.0
900.0
901.0
899.0
897.0
902.0
905.0
906.0
906.0
903.0
901.0
905.0
907.0
907.0
904.0
903.0
904.0
906.0
907.0
908.0
909.0
905.0
904.0
902.0
905.0
905.0
907.0
905.0
903.0
906.0
908.0
908.0
911.0
908.0
907.0
906.0
904.0
903.0
905.0
902.0
900.0
900.0
903.0
904.0
905.0
902.0
902.0
902.0
904.0
907.0
904.0
904.0
900.0
902.0
902.0
905.0
903.0
902.0
903.0
904.0
906.0
906.0
909.0
906.0
906.0
904.0
906.0
907.0
911.0
906.0
904.0
905.0
907.0
907.0
903.0
900.0
901.0
901.0
906.0
910.0
911.0
908.0
905.0
908.0
908.0
912.0
911.0
907.0
904.0
908.0
912.0
915.0
917.0
918.0
917.0
916.0
911.0
912.0
915.0
919.0
924.0
934.0
939.0
944.0
941.0
936.0
931.0
933.0
932.0
931.0
932.0
931.0
930.0
929.0
927.0
928.0
925.0
921.0
917.0
915.0
918.0
918.0
921.0
918.0
911.0
911.0
914.0
914.0
909.0
903.0
899.0
901.0
908.0
913.0
910.0
909.0
906.0
906.0
910.0
912.0
909.0
905.0
902.0
900.0
895.0
896.0
900.0
912.0
938.0
986.0
1043.0
1111.0
1183.0
1234.0
1230.0
1185.0
1125.0
1071.0
1019.0
990.0
985.0
983.0
976.0
962.0
949.0
936.0
925.0
916.0
910.0
908.0
904.0
899.0
894.0
893.0
895.0
896.0
895.0
893.0
891.0
890.0
894.0
891.0
891.0
888.0
885.0
890.0
893.0
897.0
893.0
893.0
889.0
891.0
891.0
895.0
892.0
891.0
890.0
890.0
893.0
895.0
896.0
893.0
889.0
894.0
895.0
895.0
892.0
894.0
894.0
893.0
893.0
895.0
896.0
896.0
894.0
896.0
899.0
902.0
898.0
896.0
893.0
894.0
897.0
901.0
903.0
904.0
904.0
901.0
899.0
903.0
905.0
906.0
905.0
909.0
912.0
916.0
919.0
920.0
917.0
917.0
920.0
926.0
931.0
932.0
930.0
928.0
931.0
936.0
938.0
935.0
934.0
936.0
941.0
947.0
947.0
946.0
943.0
946.0
947.0
947.0
946.0
944.0
942.0
940.0
940.0
938.0
937.0
933.0
929.0
928.0
933.0
933.0
931.0
926.0
923.0
922.0
921.0
921.0
922.0
922.0
918.0
914.0
916.0
919.0
917.0
920.0
918.0
918.0
917.0
919.0
920.0
917.0
916.0
917.0
917.0
917.0
918.0
917.0
918.0
922.0
920.0
922.0
922.0
917.0
915.0
916.0
919.0
923.0
924.0
922.0
917.0
916.0
918.0
922.0
923.0
922.0
919.0
921.0
924.0
924.0
923.0
922.0
922.0
924.0
925.0
924.0
923.0
924.0
927.0
926.0
923.0
923.0
920.0
920.0
920.0
924.0
929.0
929.0
925.0
919.0
919.0
920.0
919.0
922.0
925.0
927.0
923.0
924.0
924.0
925.0
926.0
928.0
928.0
929.0
927.0
927.0
922.0
918.0
910.0
915.0
922.0
931.0
933.0
928.0
921.0
921.0
925.0
924.0
923.0
925.0
922.0
922.0
924.0
927.0
929.0
928.0
925.0
922.0
925.0
931.0
932.0
929.0
927.0
931.0
932.0
931.0
931.0
927.0
924.0
926.0
927.0
929.0
932.0
934.0
931.0
930.0
934.0
935.0
937.0
936.0
935.0
936.0
940.0
950.0
960.0
965.0
958.0
956.0
958.0
959.0
960.0
952.0
952.0
952.0
953.0
950.0
948.0
943.0
940.0
940.0
939.0
941.0
935.0
934.0
932.0
932.0
934.0
931.0
928.0
929.0
930.0
929.0
927.0
927.0
926.0
927.0
926.0
927.0
928.0
930.0
927.0
926.0
923.0
921.0
924.0
925.0
924.0
922.0
919.0
919.0
920.0
937.0
969.0
1008.0
1057.0
1125.0
1198.0
1237.0
1214.0
1153.0
1092.0
1047.0
1022.0
1014.0
1006.0
993.0
981.0
970.0
957.0
947.0
937.0
926.0
918.0
915.0
917.0
919.0
921.0
921.0
918.0
917.0
915.0
912.0
911.0
911.0
910.0
910.0
915.0
917.0
915.0
913.0
911.0
912.0
915.0
917.0
914.0
915.0
915.0
916.0
915.0
918.0
918.0
918.0
916.0
914.0
918.0
922.0
920.0
916.0
914.0
917.0
919.0
922.0
922.0
920.0
917.0
920.0
920.0
922.0
923.0
923.0
922.0
923.0
922.0
924.0
922.0
925.0
924.0
927.0
927.0
927.0
926.0
930.0
931.0
932.0
932.0
934.0
936.0
939.0
942.0
946.0
946.0
947.0
948.0
947.0
947.0
947.0
948.0
952.0
955.0
958.0
961.0
966.0
968.0
973.0
974.0
977.0
974.0
969.0
971.0
975.0
979.0
976.0
969.0
965.0
964.0
969.0
976.0
976.0
974.0
967.0
965.0
960.0
955.0
948.0
948.0
954.0
956.0
958.0
953.0
951.0
950.0
947.0
947.0
949.0
952.0
949.0
945.0
942.0
942.0
941.0
945.0
946.0
944.0
946.0
943.0
945.0
943.0
940.0
934.0
934.0
938.0
943.0
945.0
950.0
947.0
948.0
943.0
941.0
939.0
943.0
946.0
948.0
948.0
945.0
943.0
940.0
937.0
935.0
937.0
940.0
944.0
943.0
942.0
944.0
947.0
946.0
946.0
945.0
944.0
947.0
946.0
946.0
952.0
949.0
944.0
941.0
941.0
944.0
945.0
947.0
942.0
947.0
948.0
949.0
950.0
950.0
951.0
947.0
948.0
947.0
947.0
944.0
942.0
942.0
948.0
951.0
950.0
947.0
948.0
954.0
963.0
962.0
948.0
936.0
930.0
934.0
939.0
946.0
949.0
955.0
964.0
958.0
948.0
942.0
943.0
948.0
947.0
939.0
939.0
947.0
954.0
957.0
954.0
952.0
951.0
950.0
949.0
949.0
950.0
951.0
954.0
956.0
950.0
943.0
939.0
946.0
957.0
960.0
949.0
942.0
939.0
944.0
950.0
954.0
958.0
958.0
955.0
949.0
944.0
946.0
952.0
960.0
972.0
981.0
989.0
995.0
984.0
975.0
970.0
972.0
980.0
986.0
987.0
991.0
992.0
987.0
982.0
970.0
955.0
947.0
950.0
958.0
961.0
966.0
976.0
989.0
985.0
958.0
940.0
950.0
976.0
980.0
953.0
918.0
910.0
926.0
944.0
950.0
947.0
947.0
946.0
946.0
942.0
937.0
935.0
938.0
937.0
938.0
938.0
936.0
954.0
984.0
1031.0
1092.0
1173.0
1234.0
1246.0
1198.0
1135.0
1087.0
1057.0
1047.0
1042.0
1032.0
1019.0
1006.0
990.0
974.0
961.0
952.0
948.0
944.0
941.0
935.0
932.0
933.0
933.0
936.0
935.0
929.0
926.0
927.0
928.0
931.0
930.0
930.0
927.0
929.0
931.0
934.0
938.0
937.0
934.0
929.0
929.0
927.0
926.0
923.0
921.0
920.0
926.0
930.0
932.0
930.0
929.0
928.0
932.0
935.0
935.0
933.0
933.0
932.0
930.0
932.0
930.0
925.0
924.0
928.0
934.0
938.0
935.0
935.0
936.0
935.0
936.0
939.0
938.0
938.0
938.0
936.0
937.0
939.0
940.0
940.0
941.0
944.0
944.0
948.0
945.0
949.0
948.0
951.0
954.0
960.0
959.0
958.0
957.0
955.0
958.0
966.0
966.0
968.0
967.0
969.0
974.0
975.0
975.0
973.0
970.0
971.0
977.0
980.0
980.0
984.0
982.0
987.0
991.0
991.0
986.0
982.0
979.0
978.0
979.0
979.0
979.0
974.0
972.0
971.0
973.0
977.0
974.0
973.0
970.0
966.0
967.0
967.0
968.0
968.0
965.0
966.0
966.0
967.0
965.0
963.0
961.0
961.0
966.0
969.0
969.0
969.0
969.0
966.0
963.0
966.0
967.0
964.0
961.0
963.0
966.0
970.0
970.0
968.0
967.0
970.0
973.0
972.0
969.0
969.0
969.0
969.0
972.0
975.0
975.0
971.0
966.0
965.0
967.0
969.0
971.0
971.0
972.0
972.0
974.0
976.0
979.0
983.0
985.0
978.0
976.0
969.0
967.0
971.0
971.0
969.0
971.0
976.0
975.0
976.0
974.0
974.0
979.0
983.0
982.0
981.0
976.0
973.0
972.0
974.0
971.0
971.0
967.0
968.0
970.0
973.0
977.0
985.0
989.0
988.0
984.0
982.0
978.0
981.0
974.0
970.0
966.0
967.0
968.0
969.0
970.0
970.0
973.0
974.0
976.0
975.0
971.0
972.0
976.0
984.0
984.0
980.0
976.0
973.0
976.0
976.0
977.0
977.0
978.0
974.0
975.0
978.0
977.0
976.0
975.0
974.0
977.0
978.0
978.0
979.0
974.0
975.0
979.0
980.0
981.0
984.0
981.0
979.0
978.0
979.0
981.0
984.0
989.0
991.0
997.0
1003.0
1007.0
1008.0
1008.0
1004.0
1002.0
1010.0
1010.0
1008.0
1003.0
1000.0
1001.0
1002.0
999.0
997.0
991.0
989.0
987.0
988.0
984.0
984.0
980.0
979.0
977.0
980.0
980.0
978.0
979.0
974.0
976.0
979.0
975.0
975.0
979.0
979.0
984.0
985.0
980.0
976.0
969.0
966.0
964.0
964.0
963.0
964.0
963.0
957.0
956.0
957.0
967.0
993.0
1020.0
1054.0
1102.0
1161.0
1219.0
1239.0
1216.0
1166.0
1127.0
1101.0
1085.0
1074.0
1069.0
1056.0
1041.0
1029.0
1026.0
1015.0
1003.0
991.0
984.0
977.0
970.0
960.0
959.0
960.0
960.0
962.0
961.0
960.0
959.0
956.0
957.0
961.0
960.0
958.0
956.0
953.0
955.0
960.0
960.0
958.0
959.0
953.0
955.0
954.0
953.0
954.0
956.0
953.0
955.0
958.0
957.0
955.0
953.0
955.0
955.0
958.0
956.0
954.0
953.0
954.0
959.0
962.0
956.0
955.0
954.0
954.0
957.0
961.0
959.0
958.0
956.0
957.0
957.0
960.0
959.0
959.0
958.0
959.0
960.0
961.0
961.0
959.0
960.0
960.0
961.0
967.0
965.0
964.0
967.0
968.0
971.0
972.0
971.0
969.0
969.0
973.0
978.0
981.0
981.0
979.0
978.0
979.0
980.0
986.0
988.0
988.0
986.0
986.0
987.0
990.0
993.0
994.0
991.0
991.0
994.0
998.0
999.0
998.0
996.0
993.0
993.0
996.0
995.0
1000.0
997.0
992.0
993.0
992.0
989.0
987.0
983.0
983.0
985.0
986.0
986.0
985.0
982.0
978.0
979.0
982.0
983.0
983.0
981.0
979.0
981.0
982.0
980.0
980.0
975.0
977.0
980.0
983.0
980.0
976.0
973.0
972.0
978.0
979.0
979.0
977.0
974.0
974.0
979.0
982.0
983.0
982.0
977.0
975.0
977.0
980.0
981.0
981.0
978.0
979.0
979.0
977.0
977.0
977.0
976.0
978.0
980.0
982.0
982.0
982.0
980.0
979.0
978.0
980.0
980.0
982.0
980.0
979.0
981.0
982.0
980.0
982.0
981.0
979.0
980.0
979.0
979.0
977.0
975.0
976.0
980.0
984.0
978.0
975.0
977.0
975.0
977.0
977.0
976.0
974.0
973.0
974.0
978.0
980.0
979.0
977.0
978.0
976.0
978.0
980.0
979.0
979.0
974.0
973.0
975.0
976.0
976.0
975.0
971.0
970.0
974.0
976.0
975.0
977.0
974.0
973.0
974.0
978.0
977.0
975.0
978.0
977.0
978.0
978.0
978.0
975.0
973.0
971.0
971.0
976.0
976.0
975.0
976.0
976.0
977.0
976.0
977.0
979.0
979.0
979.0
981.0
984.0
986.0
982.0
979.0
977.0
981.0
987.0
992.0
995.0
1000.0
1007.0
1010.0
1008.0
1007.0
1003.0
1004.0
999.0
1002.0
1003.0
999.0
997.0
993.0
993.0
994.0
994.0
993.0
988.0
984.0
980.0
980.0
981.0
979.0
976.0
975.0
972.0
971.0
973.0
974.0
973.0
970.0
967.0
968.0
971.0
971.0
969.0
968.0
968.0
970.0
969.0
972.0
971.0
968.0
966.0
965.0
961.0
959.0
956.0
956.0
970.0
999.0
1032.0
1069.0
1122.0
1184.0
1238.0
1251.0
1211.0
1154.0
1107.0
1075.0
1056.0
1051.0
1041.0
1026.0
1014.0
1012.0
1007.0
997.0
988.0
978.0
970.0
961.0
959.0
961.0
963.0
961.0
958.0
955.0
955.0
956.0
956.0
956.0
954.0
954.0
954.0
955.0
958.0
958.0
955.0
953.0
950.0
951.0
954.0
953.0
954.0
953.0
955.0
954.0
955.0
955.0
952.0
952.0
948.0
953.0
956.0
957.0
957.0
953.0
951.0
953.0
954.0
954.0
954.0
955.0
954.0
955.0
954.0
953.0
952.0
953.0
954.0
954.0
954.0
954.0
955.0
956.0
956.0
958.0
962.0
962.0
962.0
958.0
957.0
959.0
965.0
966.0
964.0
963.0
965.0
967.0
970.0
971.0
971.0
970.0
971.0
973.0
977.0
979.0
979.0
978.0
980.0
984.0
984.0
985.0
985.0
988.0
989.0
991.0
994.0
995.0
995.0
995.0
998.0
996.0
998.0
999.0
1001.0
999.0
1001.0
1004.0
1005.0
1004.0
1000.0
999.0
994.0
997.0
999.0
999.0
996.0
991.0
988.0
987.0
988.0
989.0
987.0
986.0
984.0
984.0
984.0
984.0
980.0
975.0
973.0
978.0
979.0
981.0
976.0
975.0
972.0
973.0
975.0
975.0
973.0
974.0
975.0
978.0
979.0
977.0
975.0
972.0
970.0
970.0
976.0
975.0
975.0
976.0
974.0
976.0
979.0
980.0
977.0
974.0
969.0
970.0
974.0
975.0
975.0
972.0
970.0
973.0
974.0
976.0
977.0
976.0
975.0
977.0
981.0
982.0
982.0
979.0
974.0
976.0
975.0
974.0
974.0
974.0
973.0
974.0
974.0
977.0
980.0
978.0
980.0
979.0
981.0
978.0
975.0
972.0
972.0
975.0
980.0
979.0
976.0
972.0
971.0
970.0
971.0
972.0
972.0
971.0
972.0
976.0
976.0
973.0
971.0
970.0
972.0
974.0
976.0
975.0
974.0
967.0
968.0
971.0
972.0
974.0
974.0
973.0
973.0
975.0
972.0
970.0
971.0
971.0
972.0
975.0
976.0
973.0
972.0
971.0
966.0
968.0
970.0
974.0
975.0
972.0
969.0
972.0
972.0
971.0
971.0
970.0
971.0
975.0
976.0
974.0
973.0
975.0
972.0
972.0
970.0
967.0
970.0
973.0
975.0
975.0
977.0
973.0
971.0
973.0
979.0
986.0
993.0
1002.0
1005.0
1004.0
1000.0
1000.0
1001.0
1000.0
996.0
993.0
992.0
990.0
993.0
992.0
991.0
988.0
985.0
984.0
979.0
976.0
972.0
971.0
968.0
969.0
967.0
969.0
969.0
968.0
968.0
969.0
968.0
967.0
961.0
960.0
960.0
969.0
972.0
972.0
971.0
965.0
960.0
958.0
961.0
959.0
954.0
950.0
953.0
970.0
1001.0
1042.0
1087.0
1148.0
1212.0
1243.0
1222.0
1164.0
1114.0
1080.0
1065.0
1064.0
1057.0
1040.0
1025.0
1013.0
1007.0
997.0
988.0
979.0
964.0
951.0
944.0
945.0
948.0
949.0
947.0
947.0
945.0
947.0
944.0
941.0
938.0
936.0
939.0
944.0
941.0
938.0
935.0
933.0
931.0
934.0
939.0
941.0
936.0
937.0
937.0
940.0
943.0
939.0
939.0
934.0
931.0
931.0
933.0
934.0
935.0
935.0
938.0
938.0
940.0
940.0
936.0
932.0
926.0
927.0
933.0
934.0
936.0
935.0
936.0
937.0
943.0
942.0
941.0
939.0
937.0
937.0
937.0
938.0
940.0
945.0
947.0
954.0
949.0
947.0
944.0
944.0
952.0
962.0
969.0
968.0
967.0
967.0
961.0
957.0
950.0
951.0
955.0
961.0
961.0
965.0
970.0
972.0
968.0
962.0
963.0
970.0
973.0
971.0
968.0
972.0
976.0
978.0
977.0
976.0
977.0
978.0
981.0
981.0
980.0
970.0
960.0
952.0
957.0
972.0
981.0
983.0
977.0
961.0
953.0
949.0
958.0
965.0
963.0
958.0
946.0
940.0
937.0
946.0
954.0
953.0
948.0
939.0
937.0
935.0
938.0
944.0
945.0
945.0
944.0
950.0
954.0
949.0
940.0
934.0
929.0
927.0
928.0
930.0
936.0
944.0
950.0
952.0
954.0
954.0
958.0
955.0
939.0
923.0
917.0
920.0
932.0
945.0
952.0
952.0
947.0
943.0
929.0
926.0
932.0
945.0
956.0
958.0
954.0
939.0
924.0
921.0
936.0
945.0
942.0
937.0
934.0
936.0
940.0
937.0
939.0
951.0
953.0
944.0
928.0
921.0
930.0
938.0
942.0
932.0
926.0
925.0
934.0
941.0
942.0
932.0
929.0
931.0
931.0
931.0
932.0
930.0
930.0
929.0
930.0
933.0
936.0
939.0
939.0
932.0
931.0
932.0
931.0
929.0
931.0
929.0
932.0
933.0
935.0
940.0
940.0
935.0
931.0
930.0
934.0
933.0
934.0
937.0
934.0
928.0
923.0
927.0
935.0
937.0
935.0
928.0
927.0
930.0
932.0
934.0
934.0
932.0
930.0
935.0
936.0
937.0
933.0
929.0
927.0
928.0
931.0
936.0
941.0
950.0
959.0
964.0
965.0
963.0
962.0
961.0
960.0
958.0
953.0
953.0
952.0
955.0
952.0
948.0
949.0
954.0
950.0
940.0
930.0
926.0
930.0
933.0
935.0
935.0
932.0
928.0
926.0
927.0
928.0
931.0
931.0
927.0
929.0
931.0
933.0
932.0
927.0
921.0
920.0
918.0
915.0
917.0
921.0
926.0
925.0
917.0
909.0
916.0
938.0
973.0
1014.0
1070.0
1137.0
1185.0
1191.0
1144.0
1080.0
1034.0
1010.0
998.0
998.0
983.0
963.0
952.0
947.0
943.0
937.0
925.0
918.0
914.0
911.0
910.0
909.0
910.0
910.0
907.0
903.0
903.0
907.0
910.0
907.0
901.0
896.0
899.0
907.0
905.0
901.0
895.0
896.0
902.0
907.0
909.0
905.0
903.0
901.0
903.0
906.0
905.0
900.0
895.0
894.0
900.0
905.0
905.0
901.0
895.0
898.0
902.0
906.0
907.0
902.0
900.0
902.0
910.0
910.0
909.0
902.0
899.0
899.0
901.0
903.0
907.0
910.0
908.0
907.0
908.0
912.0
912.0
910.0
911.0
911.0
911.0
913.0
915.0
916.0
917.0
919.0
925.0
927.0
929.0
927.0
926.0
924.0
923.0
921.0
925.0
927.0
932.0
935.0
938.0
938.0
937.0
941.0
940.0
940.0
938.0
944.0
947.0
950.0
949.0
948.0
948.0
947.0
947.0
941.0
938.0
939.0
944.0
950.0
949.0
946.0
943.0
939.0
937.0
935.0
938.0
938.0
935.0
925.0
927.0
930.0
931.0
932.0
934.0
931.0
932.0
933.0
933.0
930.0
929.0
926.0
924.0
923.0
926.0
932.0
937.0
933.0
934.0
933.0
933.0
931.0
929.0
926.0
926.0
926.0
926.0
922.0
923.0
928.0
931.0
934.0
931.0
925.0
925.0
924.0
930.0
936.0
938.0
940.0
939.0
934.0
927.0
927.0
926.0
930.0
932.0
933.0
934.0
932.0
937.0
937.0
934.0
933.0
934.0
937.0
938.0
935.0
931.0
931.0
935.0
939.0
942.0
939.0
932.0
929.0
933.0
937.0
938.0
938.0
940.0
938.0
937.0
936.0
936.0
937.0
939.0
932.0
929.0
932.0
938.0
941.0
939.0
935.0
937.0
936.0
939.0
934.0
935.0
936.0
941.0
942.0
939.0
934.0
931.0
933.0
941.0
941.0
942.0
938.0
940.0
940.0
943.0
939.0
938.0
935.0
935.0
939.0
944.0
946.0
943.0
936.0
931.0
934.0
940.0
946.0
946.0
944.0
942.0
938.0
941.0
943.0
947.0
947.0
949.0
950.0
951.0
950.0
947.0
947.0
951.0
953.0
960.0
968.0
973.0
976.0
971.0
972.0
974.0
979.0
977.0
968.0
962.0
959.0
964.0
966.0
965.0
961.0
955.0
953.0
953.0
953.0
951.0
946.0
942.0
941.0
942.0
946.0
946.0
944.0
945.0
948.0
948.0
946.0
943.0
940.0
941.0
937.0
940.0
945.0
946.0
945.0
944.0
939.0
938.0
937.0
934.0
930.0
929.0
939.0
971.0
1010.0
1058.0
1124.0
1191.0
1225.0
1202.0
1147.0
1094.0
1054.0
1032.0
1026.0
1017.0
1002.0
992.0
985.0
978.0
968.0
955.0
946.0
943.0
941.0
939.0
936.0
935.0
935.0
934.0
932.0
934.0
935.0
936.0
934.0
932.0
929.0
929.0
927.0
929.0
930.0
930.0
929.0
927.0
931.0
933.0
935.0
940.0
934.0
929.0
926.0
926.0
932.0
934.0
934.0
936.0
936.0
937.0
935.0
931.0
933.0
937.0
938.0
933.0
930.0
928.0
930.0
928.0
928.0
931.0
932.0
934.0
937.0
937.0
937.0
939.0
938.0
940.0
941.0
943.0
943.0
947.0
947.0
941.0
939.0
938.0
941.0
947.0
949.0
948.0
948.0
952.0
956.0
957.0
963.0
961.0
964.0
963.0
961.0
960.0
959.0
962.0
965.0
966.0
967.0
971.0
975.0
973.0
973.0
977.0
977.0
981.0
978.0
978.0
979.0
982.0
979.0
978.0
977.0
978.0
977.0
975.0
970.0
971.0
974.0
973.0
972.0
969.0
967.0
967.0
968.0
971.0
970.0
972.0
969.0
968.0
962.0
962.0
960.0
955.0
950.0
950.0
951.0
954.0
956.0
957.0
957.0
959.0
959.0
959.0
956.0
957.0
953.0
956.0
959.0
960.0
962.0
963.0
959.0
956.0
956.0
955.0
959.0
960.0
960.0
965.0
961.0
960.0
951.0
952.0
953.0
955.0
961.0
965.0
965.0
965.0
963.0
962.0
961.0
961.0
958.0
957.0
958.0
960.0
957.0
958.0
960.0
966.0
966.0
966.0
963.0
960.0
960.0
961.0
961.0
963.0
958.0
960.0
962.0
964.0
960.0
955.0
958.0
960.0
959.0
960.0
960.0
964.0
966.0
964.0
958.0
958.0
960.0
962.0
964.0
966.0
963.0
961.0
959.0
965.0
971.0
968.0
961.0
955.0
956.0
962.0
967.0
968.0
965.0
965.0
963.0
961.0
961.0
960.0
960.0
957.0
956.0
963.0
966.0
969.0
972.0
973.0
967.0
958.0
952.0
957.0
961.0
962.0
960.0
960.0
964.0
963.0
960.0
965.0
965.0
961.0
957.0
957.0
960.0
965.0
966.0
962.0
963.0
962.0
961.0
963.0
964.0
967.0
967.0
972.0
977.0
982.0
985.0
990.0
994.0
990.0
986.0
985.0
987.0
989.0
986.0
990.0
989.0
987.0
981.0
979.0
978.0
975.0
972.0
970.0
969.0
966.0
966.0
968.0
969.0
967.0
963.0
964.0
962.0
960.0
959.0
959.0
960.0
968.0
974.0
973.0
967.0
958.0
956.0
955.0
956.0
957.0
960.0
959.0
949.0
940.0
940.0
942.0
952.0
974.0
1003.0
1041.0
1103.0
1173.0
1226.0
1231.0
1181.0
1124.0
1082.0
1063.0
1055.0
1059.0
1054.0
1042.0
1030.0
1018.0
1002.0
982.0
971.0
968.0
964.0
960.0
951.0
946.0
942.0
943.0
948.0
952.0
948.0
945.0
941.0
941.0
947.0
948.0
943.0
934.0
927.0
928.0
935.0
940.0
942.0
940.0
941.0
943.0
943.0
945.0
944.0
941.0
939.0
945.0
948.0
946.0
940.0
935.0
932.0
932.0
932.0
935.0
939.0
944.0
944.0
943.0
940.0
937.0
933.0
934.0
937.0
942.0
944.0
943.0
940.0
937.0
938.0
938.0
941.0
940.0
942.0
944.0
943.0
947.0
949.0
950.0
954.0
950.0
943.0
941.0
945.0
949.0
948.0
952.0
952.0
959.0
965.0
964.0
961.0
956.0
955.0
957.0
956.0
960.0
962.0
961.0
967.0
972.0
973.0
970.0
969.0
968.0
972.0
978.0
978.0
981.0
979.0
980.0
976.0
976.0
975.0
975.0
973.0
971.0
971.0
969.0
968.0
969.0
967.0
965.0
959.0
961.0
962.0
960.0
961.0
960.0
957.0
954.0
954.0
953.0
954.0
953.0
951.0
954.0
956.0
958.0
958.0
957.0
954.0
955.0
956.0
957.0
955.0
953.0
950.0
950.0
952.0
955.0
952.0
947.0
946.0
951.0
953.0
953.0
953.0
955.0
951.0
954.0
955.0
957.0
959.0
961.0
958.0
958.0
954.0
955.0
953.0
950.0
943.0
948.0
952.0
954.0
954.0
951.0
949.0
953.0
956.0
959.0
957.0
955.0
955.0
959.0
967.0
967.0
963.0
954.0
946.0
947.0
950.0
952.0
954.0
954.0
953.0
952.0
953.0
952.0
952.0
952.0
951.0
952.0
957.0
958.0
958.0
950.0
943.0
944.0
947.0
952.0
952.0
951.0
951.0
952.0
956.0
958.0
956.0
954.0
952.0
954.0
953.0
954.0
949.0
945.0
944.0
948.0
