# Simple Text Format
# Sampling Rate (Hz):= 360.00
# Resolution:= 12
# Labels:= ECG
943.0
937.0
934.0
938.0
943.0
944.0
950.0
953.0
952.0
951.0
950.0
948.0
946.0
944.0
946.0
947.0
945.0
945.0
943.0
941.0
938.0
943.0
949.0
954.0
950.0
942.0
938.0
942.0
946.0
949.0
955.0
959.0
958.0
955.0
951.0
952.0
952.0
960.0
962.0
965.0
969.0
974.0
977.0
971.0
967.0
975.0
983.0
982.0
972.0
961.0
962.0
965.0
966.0
961.0
958.0
953.0
953.0
955.0
951.0
939.0
931.0
933.0
940.0
943.0
939.0
931.0
923.0
927.0
934.0
935.0
933.0
932.0
930.0
926.0
921.0
916.0
914.0
922.0
932.0
934.0
927.0
917.0
914.0
910.0
910.0
918.0
945.0
995.0
1055.0
1126.0
1200.0
1250.0
1244.0
1192.0
1123.0
1052.0
996.0
967.0
956.0
947.0
934.0
929.0
929.0
933.0
936.0
933.0
923.0
914.0
911.0
909.0
903.0
902.0
902.0
909.0
912.0
908.0
904.0
904.0
903.0
908.0
907.0
905.0
899.0
897.0
896.0
898.0
906.0
911.0
908.0
904.0
898.0
897.0
902.0
905.0
903.0
905.0
909.0
908.0
899.0
892.0
899.0
907.0
907.0
907.0
904.0
904.0
902.0
909.0
911.0
908.0
906.0
903.0
904.0
905.0
907.0
906.0
901.0
902.0
906.0
909.0
910.0
912.0
914.0
918.0
915.0
911.0
909.0
911.0
915.0
923.0
923.0
921.0
920.0
922.0
925.0
929.0
931.0
939.0
940.0
936.0
936.0
943.0
947.0
947.0
949.0
953.0
958.0
960.0
960.0
960.0
962.0
958.0
956.0
958.0
961.0
970.0
974.0
973.0
965.0
960.0
956.0
957.0
959.0
956.0
951.0
943.0
942.0
945.0
948.0
947.0
945.0
943.0
938.0
939.0
935.0
929.0
921.0
918.0
919.0
919.0
917.0
925.0
926.0
923.0
914.0
906.0
909.0
915.0
918.0
921.0
915.0
911.0
920.0
923.0
920.0
913.0
907.0
910.0
914.0
917.0
913.0
907.0
901.0
905.0
916.0
923.0
930.0
924.0
906.0
901.0
909.0
919.0
921.0
918.0
914.0
915.0
921.0
919.0
918.0
917.0
915.0
918.0
922.0
927.0
926.0
927.0
927.0
924.0
920.0
917.0
919.0
920.0
917.0
919.0
921.0
918.0
915.0
914.0
910.0
915.0
921.0
921.0
920.0
916.0
911.0
920.0
929.0
932.0
927.0
915.0
906.0
908.0
917.0
922.0
920.0
918.0
917.0
919.0
918.0
917.0
914.0
912.0
911.0
917.0
917.0
917.0
918.0
922.0
923.0
926.0
927.0
920.0
916.0
917.0
924.0
929.0
931.0
926.0
921.0
918.0
916.0
914.0
917.0
926.0
932.0
935.0
934.0
933.0
934.0
936.0
935.0
940.0
946.0
951.0
960.0
971.0
972.0
963.0
956.0
956.0
956.0
958.0
953.0
950.0
949.0
945.0
940.0
942.0
949.0
953.0
950.0
939.0
932.0
923.0
917.0
924.0
929.0
929.0
927.0
925.0
921.0
922.0
920.0
917.0
913.0
915.0
920.0
922.0
926.0
923.0
917.0
914.0
914.0
913.0
910.0
903.0
898.0
903.0
925.0
964.0
1016.0
1081.0
1154.0
1228.0
1274.0
1273.0
1217.0
1130.0
1061.0
1015.0
989.0
971.0
950.0
937.0
937.0
935.0
927.0
919.0
916.0
921.0
924.0
924.0
922.0
916.0
910.0
906.0
905.0
912.0
913.0
912.0
910.0
912.0
914.0
915.0
911.0
905.0
902.0
904.0
910.0
915.0
915.0
915.0
916.0
920.0
922.0
923.0
924.0
920.0
916.0
914.0
913.0
917.0
920.0
920.0
917.0
917.0
921.0
917.0
914.0
909.0
901.0
910.0
927.0
932.0
928.0
923.0
919.0
922.0
922.0
920.0
926.0
931.0
921.0
915.0
927.0
953.0
963.0
944.0
927.0
934.0
956.0
965.0
955.0
948.0
938.0
933.0
944.0
955.0
958.0
963.0
962.0
956.0
951.0
955.0
964.0
970.0
981.0
994.0
994.0
981.0
972.0
976.0
993.0
1001.0
1004.0
1006.0
1001.0
993.0
981.0
969.0
975.0
999.0
1011.0
1003.0
993.0
994.0
998.0
989.0
970.0
955.0
956.0
964.0
961.0
960.0
956.0
947.0
931.0
936.0
962.0
984.0
981.0
955.0
935.0
934.0
946.0
954.0
955.0
952.0
950.0
947.0
939.0
934.0
930.0
927.0
915.0
914.0
936.0
971.0
978.0
960.0
954.0
950.0
940.0
937.0
940.0
940.0
934.0
925.0
930.0
942.0
950.0
945.0
944.0
954.0
965.0
970.0
962.0
947.0
938.0
936.0
937.0
944.0
952.0
957.0
954.0
945.0
938.0
940.0
952.0
957.0
954.0
942.0
929.0
932.0
947.0
961.0
960.0
951.0
944.0
943.0
946.0
952.0
958.0
955.0
941.0
945.0
964.0
967.0
950.0
935.0
932.0
952.0
964.0
961.0
939.0
917.0
925.0
962.0
995.0
989.0
959.0
933.0
921.0
935.0
963.0
983.0
974.0
956.0
949.0
939.0
926.0
923.0
947.0
978.0
991.0
981.0
965.0
948.0
937.0
940.0
944.0
944.0
947.0
959.0
971.0
980.0
987.0
999.0
1005.0
998.0
976.0
957.0
961.0
980.0
996.0
1000.0
992.0
978.0
968.0
962.0
961.0
961.0
955.0
945.0
946.0
961.0
972.0
966.0
950.0
940.0
941.0
935.0
928.0
940.0
967.0
975.0
962.0
944.0
937.0
942.0
946.0
951.0
954.0
949.0
942.0
941.0
946.0
951.0
949.0
934.0
917.0
911.0
913.0
926.0
961.0
1011.0
1074.0
1149.0
1233.0
1299.0
1315.0
1270.0
1189.0
1110.0
1047.0
1026.0
1027.0
1005.0
955.0
933.0
959.0
986.0
982.0
962.0
946.0
937.0
928.0
917.0
921.0
934.0
938.0
930.0
923.0
932.0
948.0
956.0
954.0
939.0
925.0
919.0
937.0
950.0
949.0
935.0
923.0
918.0
924.0
925.0
909.0
904.0
913.0
938.0
951.0
950.0
933.0
922.0
922.0
923.0
931.0
936.0
934.0
923.0
928.0
951.0
966.0
948.0
920.0
914.0
928.0
946.0
947.0
931.0
928.0
948.0
957.0
947.0
934.0
934.0
931.0
932.0
933.0
944.0
950.0
946.0
937.0
931.0
949.0
971.0
981.0
974.0
969.0
973.0
977.0
968.0
956.0
957.0
967.0
982.0
991.0
988.0
979.0
976.0
979.0
984.0
983.0
992.0
1001.0
1003.0
1001.0
1000.0
993.0
994.0
1009.0
1019.0
1016.0
1015.0
1017.0
1009.0
1001.0
985.0
968.0
970.0
993.0
1014.0
1017.0
1000.0
983.0
962.0
955.0
957.0
970.0
974.0
967.0
965.0
970.0
973.0
968.0
958.0
950.0
946.0
938.0
935.0
942.0
959.0
965.0
969.0
969.0
962.0
957.0
948.0
940.0
934.0
935.0
936.0
936.0
945.0
952.0
959.0
956.0
949.0
951.0
962.0
966.0
965.0
959.0
959.0
963.0
962.0
956.0
951.0
949.0
950.0
952.0
958.0
962.0
958.0
948.0
945.0
955.0
967.0
966.0
962.0
957.0
950.0
948.0
951.0
960.0
966.0
960.0
954.0
955.0
953.0
950.0
948.0
950.0
956.0
964.0
962.0
955.0
957.0
965.0
969.0
967.0
958.0
954.0
957.0
966.0
964.0
957.0
954.0
953.0
962.0
968.0
966.0
957.0
953.0
955.0
952.0
950.0
948.0
949.0
954.0
961.0
961.0
963.0
969.0
963.0
947.0
944.0
958.0
970.0
970.0
969.0
965.0
963.0
962.0
957.0
953.0
953.0
964.0
979.0
994.0
994.0
987.0
989.0
989.0
983.0
977.0
981.0
982.0
980.0
983.0
984.0
980.0
968.0
961.0
968.0
986.0
989.0
981.0
971.0
964.0
963.0
965.0
956.0
946.0
943.0
952.0
961.0
957.0
949.0
949.0
949.0
955.0
960.0
960.0
957.0
952.0
945.0
938.0
941.0
948.0
952.0
954.0
952.0
942.0
935.0
941.0
947.0
946.0
937.0
928.0
939.0
966.0
1009.0
1062.0
1123.0
1194.0
1263.0
1310.0
1308.0
1259.0
1188.0
1119.0
1071.0
1050.0
1032.0
999.0
970.0
967.0
977.0
977.0
967.0
957.0
951.0
946.0
952.0
960.0
962.0
952.0
945.0
944.0
951.0
955.0
954.0
951.0
948.0
948.0
944.0
946.0
945.0
944.0
945.0
948.0
948.0
944.0
945.0
950.0
956.0
958.0
954.0
945.0
933.0
929.0
936.0
945.0
953.0
955.0
957.0
955.0
959.0
952.0
937.0
929.0
941.0
962.0
966.0
961.0
959.0
956.0
953.0
948.0
946.0
946.0
938.0
938.0
954.0
973.0
973.0
960.0
960.0
966.0
968.0
967.0
958.0
948.0
945.0
953.0
965.0
968.0
961.0
961.0
968.0
973.0
973.0
976.0
978.0
979.0
981.0
977.0
976.0
982.0
991.0
995.0
999.0
999.0
993.0
993.0
1003.0
1006.0
1005.0
1012.0
1024.0
1023.0
1011.0
1005.0
1008.0
1020.0
1032.0
1035.0
1028.0
1023.0
1024.0
1023.0
1022.0
1018.0
1011.0
1001.0
997.0
1004.0
1011.0
1003.0
983.0
978.0
988.0
990.0
986.0
980.0
974.0
969.0
966.0
967.0
974.0
971.0
963.0
961.0
969.0
977.0
970.0
956.0
953.0
961.0
965.0
963.0
959.0
960.0
963.0
972.0
964.0
950.0
951.0
957.0
960.0
961.0
962.0
960.0
953.0
953.0
963.0
968.0
966.0
964.0
958.0
960.0
966.0
973.0
976.0
975.0
969.0
961.0
957.0
963.0
969.0
963.0
956.0
967.0
986.0
988.0
975.0
967.0
960.0
959.0
968.0
976.0
978.0
976.0
971.0
960.0
954.0
966.0
980.0
982.0
975.0
966.0
963.0
968.0
974.0
976.0
970.0
958.0
949.0
949.0
962.0
982.0
996.0
993.0
978.0
966.0
970.0
979.0
982.0
983.0
974.0
962.0
956.0
964.0
976.0
987.0
987.0
970.0
962.0
968.0
984.0
993.0
989.0
980.0
987.0
992.0
991.0
979.0
970.0
976.0
993.0
1002.0
1014.0
1018.0
1021.0
1015.0
1007.0
1001.0
995.0
995.0
1008.0
1011.0
1009.0
997.0
991.0
999.0
1011.0
1010.0
1004.0
996.0
984.0
976.0
967.0
967.0
975.0
983.0
979.0
977.0
976.0
977.0
987.0
991.0
980.0
967.0
962.0
966.0
978.0
996.0
998.0
978.0
953.0
954.0
987.0
1014.0
1008.0
987.0
969.0
960.0
962.0
972.0
989.0
1010.0
1047.0
1102.0
1171.0
1247.0
1312.0
1342.0
1325.0
1263.0
1189.0
1121.0
1067.0
1051.0
1050.0
1034.0
1003.0
987.0
981.0
974.0
971.0
973.0
975.0
965.0
950.0
947.0
947.0
947.0
947.0
951.0
954.0
956.0
954.0
950.0
946.0
943.0
948.0
958.0
957.0
951.0
950.0
957.0
956.0
949.0
933.0
924.0
926.0
939.0
947.0
958.0
956.0
949.0
949.0
947.0
943.0
941.0
934.0
934.0
940.0
957.0
970.0
971.0
953.0
943.0
944.0
951.0
950.0
949.0
947.0
951.0
955.0
958.0
962.0
969.0
964.0
957.0
950.0
949.0
951.0
955.0
958.0
956.0
952.0
953.0
961.0
974.0
977.0
973.0
971.0
975.0
975.0
976.0
972.0
969.0
974.0
978.0
978.0
976.0
982.0
987.0
989.0
987.0
979.0
979.0
996.0
1006.0
1014.0
1024.0
1027.0
1020.0
1006.0
998.0
1009.0
1022.0
1024.0
1025.0
1025.0
1025.0
1029.0
1039.0
1037.0
1027.0
1019.0
1020.0
1029.0
1031.0
1026.0
1017.0
1015.0
1012.0
1008.0
1009.0
1003.0
999.0
992.0
987.0
981.0
981.0
981.0
979.0
977.0
979.0
979.0
973.0
970.0
972.0
976.0
976.0
968.0
963.0
962.0
964.0
960.0
958.0
964.0
968.0
972.0
972.0
965.0
955.0
957.0
961.0
964.0
964.0
965.0
961.0
958.0
962.0
978.0
985.0
982.0
974.0
975.0
978.0
971.0
963.0
953.0
955.0
965.0
983.0
988.0
980.0
969.0
963.0
971.0
978.0
978.0
976.0
973.0
979.0
984.0
979.0
966.0
959.0
966.0
984.0
1001.0
994.0
978.0
975.0
980.0
982.0
983.0
985.0
981.0
976.0
976.0
977.0
985.0
988.0
988.0
990.0
984.0
983.0
982.0
978.0
969.0
965.0
971.0
981.0
986.0
980.0
972.0
967.0
967.0
966.0
968.0
968.0
970.0
977.0
988.0
998.0
998.0
994.0
991.0
993.0
986.0
980.0
988.0
995.0
993.0
987.0
990.0
1001.0
1019.0
1027.0
1020.0
1015.0
1010.0
1000.0
989.0
984.0
984.0
981.0
984.0
989.0
999.0
994.0
979.0
971.0
971.0
975.0
977.0
976.0
972.0
973.0
973.0
967.0
963.0
962.0
966.0
971.0
968.0
966.0
966.0
966.0
968.0
964.0
959.0
959.0
961.0
966.0
966.0
960.0
954.0
948.0
948.0
951.0
957.0
974.0
1012.0
1070.0
1135.0
1206.0
1273.0
1321.0
1326.0
1280.0
1202.0
1124.0
1061.0
1018.0
1007.0
997.0
987.0
979.0
976.0
974.0
969.0
958.0
951.0
951.0
956.0
957.0
948.0
946.0
947.0
952.0
949.0
943.0
944.0
944.0
944.0
941.0
938.0
939.0
939.0
941.0
945.0
951.0
948.0
944.0
937.0
931.0
931.0
939.0
942.0
941.0
940.0
941.0
942.0
941.0
941.0
938.0
931.0
923.0
930.0
949.0
963.0
961.0
952.0
948.0
946.0
944.0
944.0
939.0
943.0
947.0
953.0
959.0
962.0
957.0
948.0
940.0
943.0
957.0
960.0
957.0
954.0
955.0
959.0
961.0
962.0
961.0
958.0
959.0
965.0
975.0
980.0
982.0
979.0
975.0
975.0
976.0
976.0
983.0
995.0
1006.0
1011.0
1009.0
1004.0
1003.0
1010.0
1014.0
1016.0
1021.0
1018.0
1015.0
1012.0
1016.0
1025.0
1028.0
1026.0
1022.0
1020.0
1021.0
1027.0
1025.0
1021.0
1013.0
1011.0
1010.0
1006.0
1000.0
997.0
992.0
991.0
985.0
982.0
984.0
987.0
985.0
980.0
974.0
973.0
974.0
972.0
969.0
971.0
974.0
976.0
970.0
968.0
968.0
970.0
974.0
977.0
976.0
973.0
971.0
970.0
971.0
973.0
970.0
967.0
968.0
971.0
970.0
968.0
969.0
969.0
970.0
967.0
966.0
967.0
967.0
968.0
972.0
973.0
975.0
974.0
974.0
974.0
974.0
973.0
971.0
971.0
972.0
973.0
975.0
975.0
974.0
974.0
974.0
973.0
972.0
974.0
973.0
975.0
977.0
976.0
971.0
970.0
967.0
970.0
973.0
974.0
975.0
976.0
976.0
976.0
978.0
975.0
974.0
972.0
972.0
972.0
975.0
981.0
976.0
971.0
972.0
972.0
972.0
971.0
971.0
975.0
978.0
974.0
977.0
974.0
974.0
975.0
978.0
980.0
978.0
981.0
982.0
983.0
981.0
983.0
989.0
995.0
1000.0
1002.0
1007.0
1014.0
1015.0
1013.0
1009.0
1006.0
1007.0
1005.0
1010.0
1008.0
1005.0
996.0
990.0
993.0
997.0
997.0
995.0
990.0
985.0
980.0
977.0
978.0
977.0
974.0
974.0
972.0
975.0
973.0
973.0
971.0
970.0
970.0
969.0
969.0
966.0
964.0
964.0
968.0
970.0
970.0
969.0
965.0
965.0
963.0
959.0
960.0
966.0
976.0
1008.0
1052.0
1107.0
1170.0
1239.0
1298.0
1323.0
1296.0
1229.0
1157.0
1087.0
1032.0
1011.0
1014.0
1009.0
997.0
991.0
985.0
982.0
979.0
975.0
966.0
957.0
952.0
952.0
956.0
961.0
957.0
952.0
951.0
949.0
947.0
950.0
952.0
951.0
951.0
947.0
943.0
948.0
951.0
948.0
947.0
946.0
944.0
948.0
948.0
947.0
945.0
943.0
943.0
945.0
948.0
950.0
948.0
945.0
947.0
947.0
947.0
946.0
946.0
946.0
948.0
948.0
949.0
950.0
949.0
949.0
949.0
948.0
949.0
949.0
950.0
952.0
949.0
951.0
951.0
953.0
953.0
953.0
956.0
956.0
958.0
957.0
955.0
955.0
960.0
961.0
963.0
963.0
964.0
965.0
969.0
971.0
973.0
972.0
971.0
975.0
977.0
984.0
986.0
986.0
984.0
985.0
992.0
997.0
998.0
1000.0
998.0
1001.0
1006.0
1009.0
1011.0
1009.0
1010.0
1011.0
1015.0
1017.0
1016.0
1015.0
1011.0
1009.0
1009.0
1009.0
1009.0
1003.0
1001.0
996.0
991.0
994.0
989.0
984.0
981.0
977.0
978.0
976.0
975.0
973.0
971.0
968.0
970.0
969.0
970.0
970.0
968.0
967.0
965.0
969.0
969.0
966.0
962.0
963.0
962.0
964.0
965.0
962.0
961.0
962.0
962.0
964.0
964.0
961.0
961.0
962.0
963.0
968.0
967.0
966.0
961.0
962.0
967.0
969.0
970.0
967.0
964.0
963.0
964.0
968.0
967.0
966.0
963.0
963.0
969.0
969.0
967.0
968.0
966.0
966.0
967.0
969.0
966.0
967.0
965.0
965.0
967.0
967.0
969.0
968.0
967.0
964.0
967.0
966.0
967.0
964.0
963.0
963.0
963.0
967.0
966.0
966.0
964.0
964.0
965.0
965.0
967.0
966.0
964.0
967.0
967.0
968.0
966.0
964.0
962.0
959.0
961.0
963.0
964.0
967.0
964.0
963.0
965.0
968.0
971.0
973.0
971.0
969.0
973.0
974.0
979.0
982.0
987.0
988.0
996.0
1003.0
1005.0
1000.0
995.0
993.0
995.0
998.0
996.0
993.0
987.0
985.0
985.0
985.0
984.0
982.0
977.0
973.0
972.0
974.0
970.0
966.0
962.0
959.0
960.0
961.0
958.0
959.0
954.0
952.0
954.0
956.0
953.0
952.0
951.0
950.0
951.0
952.0
950.0
949.0
951.0
952.0
955.0
955.0
949.0
945.0
944.0
949.0
961.0
989.0
1037.0
1093.0
1155.0
1224.0
1283.0
1295.0
1249.0
1174.0
1100.0
1035.0
994.0
985.0
983.0
972.0
968.0
966.0
963.0
962.0
953.0
942.0
938.0
935.0
933.0
934.0
934.0
934.0
932.0
930.0
928.0
928.0
926.0
925.0
927.0
928.0
930.0
930.0
927.0
927.0
927.0
925.0
928.0
927.0
927.0
927.0
926.0
926.0
927.0
932.0
930.0
928.0
927.0
927.0
929.0
929.0
927.0
927.0
925.0
922.0
927.0
930.0
931.0
934.0
931.0
930.0
930.0
931.0
931.0
928.0
928.0
924.0
931.0
934.0
940.0
939.0
934.0
930.0
934.0
940.0
944.0
944.0
942.0
939.0
945.0
950.0
955.0
953.0
950.0
950.0
957.0
964.0
968.0
970.0
968.0
970.0
970.0
975.0
975.0
978.0
983.0
985.0
988.0
988.0
990.0
994.0
994.0
995.0
995.0
993.0
989.0
992.0
995.0
992.0
992.0
991.0
987.0
982.0
979.0
977.0
975.0
974.0
971.0
964.0
967.0
962.0
959.0
959.0
960.0
957.0
955.0
951.0
955.0
958.0
957.0
955.0
957.0
955.0
954.0
952.0
951.0
951.0
952.0
955.0
954.0
953.0
951.0
949.0
950.0
951.0
955.0
957.0
956.0
955.0
952.0
949.0
953.0
958.0
961.0
959.0
953.0
953.0
957.0
960.0
960.0
957.0
951.0
951.0
955.0
955.0
954.0
957.0
957.0
958.0
959.0
958.0
960.0
958.0
955.0
954.0
958.0
960.0
962.0
959.0
956.0
954.0
960.0
964.0
963.0
959.0
960.0
958.0
956.0
961.0
964.0
961.0
960.0
957.0
958.0
955.0
959.0
962.0
961.0
959.0
957.0
960.0
962.0
963.0
961.0
956.0
961.0
962.0
962.0
963.0
963.0
961.0
964.0
966.0
969.0
966.0
966.0
968.0
973.0
978.0
981.0
984.0
989.0
990.0
997.0
1003.0
1004.0
999.0
993.0
993.0
994.0
992.0
988.0
984.0
982.0
980.0
982.0
980.0
981.0
976.0
974.0
970.0
965.0
964.0
963.0
962.0
958.0
953.0
955.0
958.0
964.0
960.0
955.0
948.0
948.0
949.0
950.0
947.0
947.0
949.0
952.0
955.0
955.0
952.0
947.0
938.0
941.0
944.0
951.0
973.0
1009.0
1056.0
1122.0
1185.0
1246.0
1278.0
1259.0
1194.0
1121.0
1065.0
1024.0
997.0
982.0
964.0
959.0
957.0
960.0
954.0
944.0
938.0
937.0
937.0
936.0
935.0
931.0
929.0
928.0
927.0
928.0
925.0
922.0
923.0
925.0
927.0
928.0
927.0
924.0
926.0
927.0
929.0
927.0
924.0
925.0
923.0
922.0
924.0
927.0
931.0
930.0
923.0
919.0
921.0
923.0
923.0
920.0
918.0
920.0
922.0
927.0
927.0
924.0
921.0
920.0
924.0
929.0
929.0
927.0
924.0
925.0
926.0
925.0
924.0
926.0
922.0
924.0
931.0
934.0
935.0
932.0
932.0
935.0
937.0
940.0
939.0
940.0
945.0
951.0
951.0
949.0
949.0
954.0
959.0
963.0
967.0
967.0
969.0
967.0
968.0
971.0
975.0
980.0
980.0
983.0
984.0
985.0
989.0
991.0
992.0
990.0
986.0
985.0
986.0
985.0
981.0
979.0
975.0
973.0
967.0
961.0
958.0
960.0
961.0
959.0
956.0
952.0
945.0
943.0
940.0
941.0
939.0
939.0
944.0
943.0
939.0
935.0
935.0
940.0
943.0
942.0
940.0
941.0
942.0
941.0
939.0
935.0
935.0
935.0
938.0
938.0
936.0
938.0
934.0
938.0
937.0
934.0
935.0
936.0
934.0
934.0
933.0
935.0
937.0
940.0
937.0
937.0
936.0
938.0
936.0
933.0
933.0
933.0
937.0
938.0
939.0
940.0
937.0
938.0
937.0
938.0
938.0
937.0
935.0
937.0
941.0
941.0
939.0
939.0
936.0
938.0
939.0
943.0
945.0
945.0
943.0
938.0
936.0
935.0
936.0
934.0
933.0
933.0
933.0
932.0
935.0
934.0
932.0
935.0
935.0
937.0
936.0
935.0
935.0
935.0
936.0
941.0
941.0
942.0
936.0
939.0
939.0
941.0
943.0
942.0
942.0
947.0
953.0
957.0
965.0
970.0
972.0
973.0
975.0
973.0
968.0
966.0
962.0
963.0
967.0
966.0
962.0
959.0
955.0
954.0
951.0
953.0
946.0
940.0
935.0
935.0
937.0
938.0
937.0
933.0
931.0
932.0
934.0
932.0
930.0
927.0
923.0
928.0
929.0
930.0
928.0
927.0
928.0
927.0
928.0
927.0
923.0
919.0
917.0
923.0
944.0
988.0
1041.0
1109.0
1183.0
1246.0
1271.0
1231.0
1153.0
1078.0
1019.0
982.0
973.0
964.0
958.0
953.0
947.0
944.0
941.0
935.0
928.0
923.0
917.0
918.0
919.0
920.0
914.0
913.0
911.0
912.0
918.0
921.0
920.0
918.0
915.0
917.0
919.0
917.0
915.0
914.0
912.0
916.0
918.0
920.0
918.0
915.0
914.0
918.0
920.0
923.0
925.0
922.0
917.0
915.0
921.0
922.0
921.0
922.0
922.0
926.0
924.0
922.0
922.0
923.0
923.0
922.0
926.0
929.0
929.0
926.0
924.0
929.0
928.0
931.0
931.0
928.0
929.0
929.0
932.0
934.0
936.0
936.0
934.0
935.0
938.0
944.0
945.0
945.0
945.0
948.0
953.0
958.0
961.0
963.0
959.0
962.0
965.0
969.0
973.0
975.0
973.0
975.0
979.0
982.0
982.0
983.0
981.0
985.0
989.0
993.0
997.0
997.0
990.0
989.0
992.0
997.0
997.0
994.0
988.0
986.0
983.0
979.0
973.0
970.0
968.0
967.0
960.0
960.0
960.0
955.0
951.0
951.0
950.0
953.0
948.0
944.0
943.0
950.0
951.0
952.0
946.0
942.0
937.0
935.0
936.0
935.0
938.0
939.0
942.0
947.0
953.0
947.0
939.0
930.0
929.0
937.0
944.0
949.0
952.0
949.0
941.0
936.0
942.0
945.0
947.0
944.0
942.0
951.0
954.0
952.0
950.0
945.0
941.0
942.0
948.0
954.0
960.0
961.0
955.0
950.0
948.0
951.0
962.0
970.0
964.0
956.0
952.0
954.0
959.0
963.0
959.0
955.0
956.0
960.0
962.0
966.0
959.0
956.0
956.0
961.0
962.0
962.0
960.0
962.0
962.0
961.0
955.0
956.0
959.0
963.0
963.0
961.0
958.0
957.0
955.0
960.0
959.0
956.0
958.0
959.0
958.0
964.0
966.0
970.0
965.0
961.0
959.0
965.0
970.0
979.0
978.0
970.0
968.0
977.0
992.0
1003.0
1004.0
1001.0
1000.0
999.0
994.0
998.0
1001.0
991.0
975.0
972.0
982.0
996.0
995.0
986.0
974.0
970.0
977.0
982.0
973.0
962.0
960.0
960.0
957.0
953.0
951.0
953.0
950.0
953.0
967.0
974.0
971.0
957.0
946.0
940.0
933.0
941.0
951.0
958.0
954.0
949.0
954.0
957.0
950.0
939.0
930.0
928.0
946.0
989.0
1046.0
1102.0
1159.0
1234.0
1297.0
1305.0
1250.0
1179.0
1111.0
1043.0
998.0
986.0
983.0
973.0
966.0
964.0
955.0
943.0
938.0
938.0
948.0
950.0
948.0
952.0
946.0
930.0
912.0
916.0
925.0
930.0
927.0
927.0
932.0
936.0
937.0
935.0
931.0
929.0
926.0
919.0
915.0
920.0
942.0
947.0
931.0
917.0
909.0
918.0
932.0
936.0
922.0
916.0
914.0
921.0
929.0
925.0
908.0
900.0
902.0
911.0
925.0
937.0
936.0
922.0
904.0
900.0
911.0
924.0
926.0
921.0
920.0
926.0
935.0
933.0
922.0
917.0
920.0
917.0
914.0
912.0
916.0
922.0
930.0
943.0
951.0
949.0
945.0
945.0
948.0
951.0
951.0
949.0
940.0
927.0
923.0
929.0
950.0
973.0
984.0
992.0
990.0
982.0
970.0
959.0
951.0
950.0
953.0
964.0
972.0
976.0
971.0
973.0
986.0
997.0
997.0
998.0
994.0
987.0
979.0
967.0
960.0
958.0
961.0
974.0
981.0
972.0
964.0
956.0
959.0
959.0
958.0
957.0
952.0
948.0
941.0
931.0
919.0
920.0
924.0
937.0
948.0
955.0
954.0
948.0
943.0
938.0
939.0
944.0
947.0
957.0
960.0
962.0
959.0
952.0
946.0
944.0
947.0
947.0
942.0
934.0
930.0
927.0
925.0
924.0
925.0
927.0
931.0
936.0
939.0
935.0
928.0
934.0
943.0
945.0
939.0
939.0
947.0
953.0
953.0
947.0
945.0
946.0
946.0
947.0
948.0
950.0
951.0
945.0
947.0
950.0
951.0
950.0
947.0
944.0
945.0
948.0
946.0
944.0
941.0
940.0
941.0
947.0
952.0
962.0
967.0
965.0
958.0
950.0
952.0
958.0
961.0
959.0
952.0
950.0
952.0
959.0
959.0
960.0
952.0
948.0
951.0
958.0
965.0
969.0
967.0
969.0
967.0
968.0
967.0
970.0
971.0
968.0
974.0
974.0
972.0
965.0
962.0
961.0
966.0
973.0
977.0
985.0
994.0
1002.0
1005.0
1001.0
994.0
996.0
991.0
990.0
989.0
991.0
995.0
993.0
989.0
987.0
985.0
982.0
979.0
975.0
971.0
969.0
970.0
976.0
972.0
967.0
962.0
963.0
970.0
971.0
967.0
965.0
957.0
956.0
963.0
966.0
966.0
965.0
966.0
970.0
970.0
969.0
966.0
965.0
960.0
958.0
960.0
967.0
988.0
1028.0
1076.0
1142.0
1215.0
1289.0
1325.0
1305.0
1237.0
1165.0
1101.0
1058.0
1038.0
1035.0
1023.0
1010.0
1009.0
1005.0
999.0
993.0
985.0
979.0
973.0
970.0
965.0
959.0
950.0
948.0
953.0
962.0
963.0
959.0
955.0
956.0
958.0
957.0
956.0
952.0
949.0
950.0
956.0
957.0
957.0
951.0
950.0
954.0
955.0
955.0
955.0
957.0
957.0
954.0
955.0
956.0
957.0
953.0
949.0
950.0
954.0
962.0
962.0
959.0
952.0
946.0
946.0
951.0
953.0
953.0
954.0
958.0
964.0
965.0
957.0
957.0
954.0
956.0
962.0
964.0
965.0
964.0
964.0
966.0
968.0
968.0
967.0
970.0
969.0
974.0
977.0
973.0
974.0
976.0
985.0
994.0
995.0
996.0
996.0
995.0
996.0
996.0
998.0
1004.0
1010.0
1011.0
1009.0
1011.0
1017.0
1025.0
1025.0
1019.0
1018.0
1024.0
1027.0
1033.0
1030.0
1029.0
1029.0
1031.0
1030.0
1031.0
1029.0
1027.0
1023.0
1018.0
1019.0
1021.0
1019.0
1015.0
1013.0
1011.0
1007.0
1004.0
1001.0
997.0
994.0
992.0
995.0
994.0
991.0
987.0
983.0
983.0
987.0
994.0
993.0
988.0
983.0
980.0
981.0
983.0
985.0
988.0
990.0
990.0
988.0
988.0
984.0
984.0
984.0
986.0
986.0
988.0
988.0
990.0
983.0
980.0
982.0
985.0
990.0
989.0
987.0
984.0
987.0
992.0
993.0
991.0
988.0
990.0
989.0
993.0
993.0
992.0
989.0
991.0
994.0
994.0
991.0
989.0
990.0
993.0
995.0
998.0
997.0
994.0
991.0
992.0
997.0
997.0
996.0
995.0
993.0
994.0
996.0
1001.0
1000.0
997.0
995.0
995.0
994.0
994.0
991.0
989.0
986.0
990.0
996.0
996.0
996.0
996.0
993.0
994.0
997.0
997.0
996.0
991.0
989.0
992.0
996.0
999.0
997.0
995.0
990.0
989.0
993.0
995.0
999.0
999.0
997.0
1000.0
998.0
1002.0
1002.0
1002.0
999.0
1001.0
1003.0
1008.0
1014.0
1012.0
1008.0
1010.0
1015.0
1020.0
1026.0
1030.0
1037.0
1040.0
1040.0
1037.0
1034.0
1033.0
1031.0
1030.0
1030.0
1030.0
1030.0
1028.0
1022.0
1020.0
1019.0
1019.0
1015.0
1012.0
1010.0
1006.0
999.0
997.0
998.0
999.0
997.0
995.0
995.0
994.0
991.0
991.0
987.0
984.0
987.0
990.0
992.0
989.0
986.0
987.0
988.0
993.0
991.0
987.0
980.0
983.0
986.0
984.0
977.0
974.0
984.0
1008.0
1047.0
1092.0
1144.0
1209.0
1278.0
1326.0
1327.0
1275.0
1206.0
1140.0
1082.0
1047.0
1041.0
1043.0
1034.0
1017.0
1010.0
1007.0
1006.0
997.0
986.0
975.0
972.0
979.0
987.0
984.0
978.0
970.0
965.0
967.0
971.0
977.0
974.0
971.0
971.0
971.0
971.0
970.0
969.0
970.0
969.0
973.0
977.0
976.0
971.0
966.0
965.0
968.0
974.0
975.0
970.0
966.0
967.0
966.0
969.0
971.0
973.0
972.0
968.0
965.0
968.0
975.0
977.0
974.0
968.0
964.0
969.0
973.0
975.0
974.0
971.0
973.0
971.0
