# Simple Text Format
# Sampling Rate (Hz):= 360.00
# Resolution:= 12
# Labels:= ECG
976.0
974.0
973.0
971.0
976.0
979.0
978.0
977.0
972.0
971.0
971.0
969.0
967.0
967.0
966.0
968.0
971.0
971.0
968.0
962.0
958.0
958.0
957.0
956.0
952.0
950.0
947.0
947.0
948.0
946.0
944.0
942.0
942.0
943.0
944.0
945.0
943.0
941.0
939.0
942.0
945.0
943.0
945.0
943.0
942.0
942.0
942.0
941.0
930.0
915.0
908.0
913.0
926.0
945.0
977.0
1029.0
1099.0
1178.0
1248.0
1309.0
1354.0
1377.0
1368.0
1317.0
1228.0
1119.0
1021.0
954.0
919.0
913.0
921.0
937.0
958.0
966.0
962.0
957.0
954.0
952.0
950.0
948.0
944.0
944.0
943.0
941.0
938.0
936.0
934.0
934.0
937.0
938.0
935.0
937.0
935.0
933.0
936.0
938.0
936.0
934.0
932.0
932.0
933.0
934.0
936.0
934.0
933.0
934.0
937.0
939.0
938.0
939.0
938.0
938.0
940.0
942.0
944.0
943.0
942.0
945.0
946.0
949.0
949.0
950.0
949.0
952.0
957.0
959.0
960.0
961.0
962.0
967.0
969.0
975.0
976.0
978.0
982.0
985.0
992.0
996.0
998.0
999.0
1003.0
1008.0
1013.0
1016.0
1020.0
1021.0
1022.0
1024.0
1030.0
1034.0
1038.0
1034.0
1035.0
1041.0
1045.0
1047.0
1047.0
1048.0
1047.0
1048.0
1052.0
1050.0
1048.0
1043.0
1039.0
1038.0
1036.0
1035.0
1030.0
1026.0
1022.0
1017.0
1013.0
1008.0
1003.0
997.0
993.0
991.0
988.0
986.0
983.0
978.0
976.0
978.0
977.0
974.0
973.0
968.0
968.0
968.0
966.0
967.0
967.0
966.0
965.0
963.0
964.0
967.0
967.0
965.0
962.0
965.0
969.0
968.0
969.0
969.0
968.0
968.0
969.0
972.0
970.0
968.0
968.0
973.0
973.0
975.0
972.0
973.0
971.0
972.0
976.0
975.0
975.0
975.0
974.0
976.0
977.0
980.0
978.0
976.0
975.0
975.0
978.0
978.0
977.0
977.0
974.0
973.0
977.0
977.0
975.0
973.0
973.0
973.0
975.0
974.0
975.0
972.0
971.0
970.0
972.0
972.0
971.0
969.0
968.0
967.0
970.0
965.0
968.0
966.0
966.0
967.0
966.0
967.0
963.0
962.0
960.0
960.0
962.0
961.0
961.0
960.0
959.0
960.0
960.0
958.0
960.0
958.0
958.0
958.0
960.0
961.0
960.0
958.0
957.0
957.0
957.0
961.0
956.0
956.0
958.0
962.0
963.0
966.0
969.0
971.0
971.0
971.0
973.0
974.0
976.0
975.0
977.0
979.0
980.0
981.0
979.0
978.0
981.0
984.0
980.0
980.0
978.0
974.0
968.0
969.0
970.0
971.0
971.0
974.0
972.0
972.0
970.0
967.0
963.0
956.0
955.0
955.0
956.0
954.0
951.0
947.0
947.0
949.0
946.0
945.0
945.0
945.0
942.0
942.0
946.0
947.0
944.0
944.0
943.0
944.0
946.0
946.0
947.0
944.0
943.0
946.0
944.0
943.0
936.0
925.0
914.0
905.0
907.0
916.0
930.0
948.0
986.0
1051.0
1129.0
1205.0
1276.0
1339.0
1386.0
1411.0
1410.0
1367.0
1284.0
1168.0
1057.0
975.0
935.0
923.0
924.0
934.0
949.0
966.0
972.0
969.0
957.0
951.0
952.0
952.0
951.0
950.0
946.0
939.0
937.0
939.0
940.0
937.0
936.0
934.0
930.0
933.0
936.0
934.0
934.0
930.0
931.0
932.0
934.0
933.0
934.0
932.0
930.0
934.0
936.0
938.0
935.0
933.0
932.0
936.0
940.0
940.0
938.0
937.0
936.0
939.0
941.0
941.0
943.0
942.0
942.0
946.0
946.0
951.0
950.0
951.0
950.0
952.0
956.0
958.0
961.0
962.0
962.0
967.0
973.0
973.0
977.0
981.0
983.0
987.0
992.0
997.0
1000.0
1004.0
1004.0
1010.0
1017.0
1017.0
1021.0
1024.0
1026.0
1030.0
1036.0
1039.0
1042.0
1042.0
1043.0
1048.0
1052.0
1053.0
1055.0
1056.0
1055.0
1058.0
1059.0
1062.0
1059.0
1056.0
1054.0
1055.0
1055.0
1054.0
1047.0
1041.0
1041.0
1036.0
1035.0
1031.0
1021.0
1016.0
1012.0
1008.0
1006.0
1002.0
996.0
990.0
985.0
983.0
983.0
983.0
979.0
975.0
971.0
973.0
972.0
973.0
972.0
972.0
968.0
968.0
971.0
967.0
969.0
967.0
966.0
967.0
968.0
970.0
968.0
967.0
966.0
968.0
967.0
971.0
969.0
970.0
968.0
971.0
973.0
974.0
973.0
974.0
973.0
974.0
974.0
976.0
975.0
975.0
974.0
977.0
975.0
978.0
978.0
977.0
976.0
976.0
980.0
980.0
979.0
978.0
978.0
977.0
976.0
980.0
978.0
978.0
977.0
978.0
979.0
979.0
977.0
976.0
974.0
975.0
978.0
976.0
975.0
971.0
974.0
974.0
974.0
974.0
973.0
970.0
968.0
972.0
971.0
971.0
969.0
968.0
966.0
967.0
968.0
968.0
965.0
963.0
965.0
964.0
966.0
966.0
962.0
962.0
960.0
962.0
963.0
964.0
964.0
962.0
960.0
963.0
964.0
964.0
962.0
960.0
961.0
961.0
965.0
965.0
965.0
966.0
968.0
973.0
978.0
980.0
978.0
977.0
977.0
980.0
982.0
983.0
985.0
984.0
983.0
983.0
986.0
987.0
986.0
984.0
982.0
981.0
978.0
976.0
974.0
972.0
974.0
977.0
979.0
978.0
973.0
969.0
966.0
964.0
963.0
962.0
958.0
955.0
953.0
951.0
953.0
951.0
948.0
945.0
944.0
948.0
950.0
947.0
948.0
945.0
944.0
946.0
947.0
950.0
947.0
948.0
947.0
947.0
948.0
948.0
946.0
941.0
931.0
920.0
913.0
912.0
920.0
930.0
948.0
984.0
1043.0
1117.0
1196.0
1275.0
1345.0
1393.0
1414.0
1401.0
1340.0
1236.0
1114.0
1018.0
960.0
934.0
928.0
931.0
947.0
961.0
973.0
970.0
963.0
958.0
954.0
951.0
953.0
952.0
947.0
943.0
938.0
940.0
939.0
938.0
935.0
935.0
934.0
936.0
937.0
936.0
935.0
935.0
935.0
935.0
936.0
936.0
936.0
934.0
933.0
937.0
938.0
939.0
938.0
938.0
937.0
938.0
941.0
942.0
940.0
941.0
940.0
943.0
944.0
945.0
946.0
947.0
946.0
949.0
952.0
954.0
954.0
957.0
956.0
960.0
963.0
963.0
966.0
969.0
971.0
976.0
979.0
983.0
987.0
989.0
991.0
998.0
1001.0
1008.0
1008.0
1012.0
1015.0
1019.0
1025.0
1029.0
1028.0
1032.0
1035.0
1038.0
1040.0
1046.0
1046.0
1047.0
1049.0
1053.0
1055.0
1055.0
1052.0
1053.0
1053.0
1053.0
1053.0
1050.0
1043.0
1039.0
1036.0
1032.0
1032.0
1029.0
1023.0
1016.0
1010.0
1008.0
1004.0
1000.0
994.0
990.0
986.0
985.0
985.0
982.0
980.0
975.0
971.0
970.0
971.0
969.0
968.0
963.0
963.0
965.0
967.0
965.0
965.0
965.0
964.0
962.0
965.0
966.0
965.0
964.0
962.0
964.0
965.0
968.0
965.0
967.0
965.0
967.0
969.0
967.0
965.0
964.0
965.0
969.0
969.0
972.0
971.0
967.0
966.0
970.0
971.0
969.0
970.0
969.0
969.0
971.0
970.0
972.0
969.0
970.0
968.0
972.0
970.0
972.0
969.0
966.0
964.0
966.0
970.0
968.0
964.0
963.0
962.0
964.0
968.0
967.0
965.0
964.0
961.0
963.0
964.0
964.0
962.0
961.0
957.0
958.0
960.0
959.0
958.0
956.0
956.0
954.0
956.0
956.0
956.0
954.0
952.0
954.0
955.0
954.0
955.0
953.0
951.0
952.0
955.0
955.0
952.0
952.0
951.0
952.0
952.0
953.0
955.0
954.0
953.0
955.0
961.0
966.0
966.0
967.0
967.0
968.0
971.0
969.0
970.0
968.0
972.0
973.0
975.0
975.0
977.0
978.0
977.0
978.0
977.0
976.0
969.0
968.0
963.0
962.0
967.0
970.0
970.0
970.0
966.0
965.0
961.0
959.0
954.0
953.0
951.0
951.0
952.0
950.0
946.0
944.0
939.0
942.0
942.0
943.0
943.0
941.0
939.0
941.0
943.0
943.0
941.0
940.0
942.0
944.0
945.0
944.0
942.0
941.0
937.0
931.0
923.0
911.0
908.0
910.0
923.0
944.0
976.0
1032.0
1106.0
1183.0
1255.0
1323.0
1369.0
1390.0
1377.0
1314.0
1211.0
1099.0
1009.0
949.0
922.0
915.0
919.0
936.0
956.0
966.0
965.0
958.0
949.0
948.0
949.0
950.0
944.0
941.0
936.0
938.0
938.0
939.0
938.0
934.0
932.0
934.0
934.0
934.0
935.0
935.0
931.0
933.0
935.0
938.0
936.0
933.0
930.0
932.0
934.0
934.0
934.0
934.0
933.0
937.0
941.0
940.0
941.0
939.0
937.0
939.0
942.0
941.0
942.0
943.0
942.0
946.0
948.0
951.0
951.0
950.0
949.0
953.0
959.0
963.0
964.0
965.0
966.0
972.0
976.0
979.0
981.0
982.0
984.0
991.0
999.0
1003.0
1005.0
1005.0
1006.0
1013.0
1019.0
1020.0
1024.0
1026.0
1027.0
1034.0
1035.0
1038.0
1038.0
1037.0
1036.0
1041.0
1047.0
1048.0
1047.0
1045.0
1042.0
1043.0
1041.0
1042.0
1037.0
1031.0
1026.0
1024.0
1019.0
1015.0
1012.0
1005.0
1001.0
999.0
997.0
992.0
988.0
983.0
979.0
977.0
980.0
977.0
977.0
972.0
969.0
968.0
971.0
970.0
967.0
965.0
966.0
968.0
968.0
969.0
966.0
968.0
965.0
967.0
972.0
970.0
969.0
966.0
966.0
969.0
972.0
973.0
974.0
971.0
973.0
973.0
978.0
974.0
974.0
974.0
973.0
977.0
977.0
978.0
978.0
976.0
974.0
976.0
975.0
977.0
976.0
975.0
974.0
977.0
979.0
976.0
974.0
973.0
973.0
975.0
977.0
975.0
975.0
972.0
973.0
974.0
972.0
973.0
970.0
969.0
969.0
969.0
971.0
969.0
967.0
965.0
964.0
965.0
966.0
965.0
967.0
964.0
962.0
963.0
964.0
965.0
961.0
959.0
958.0
960.0
961.0
961.0
961.0
959.0
957.0
958.0
958.0
960.0
960.0
957.0
956.0
958.0
959.0
958.0
960.0
955.0
955.0
956.0
962.0
961.0
962.0
960.0
962.0
968.0
971.0
973.0
974.0
972.0
972.0
973.0
976.0
976.0
978.0
980.0
979.0
978.0
981.0
983.0
984.0
980.0
980.0
978.0
976.0
975.0
972.0
968.0
964.0
969.0
973.0
973.0
976.0
972.0
966.0
963.0
964.0
962.0
960.0
956.0
953.0
954.0
955.0
953.0
950.0
947.0
945.0
946.0
949.0
946.0
946.0
943.0
943.0
946.0
947.0
948.0
946.0
946.0
946.0
947.0
950.0
948.0
947.0
944.0
941.0
939.0
934.0
921.0
911.0
917.0
930.0
948.0
979.0
1030.0
1103.0
1175.0
1245.0
1312.0
1361.0
1390.0
1391.0
1358.0
1283.0
1180.0
1077.0
989.0
933.0
911.0
915.0
933.0
956.0
969.0
966.0
958.0
953.0
952.0
952.0
953.0
949.0
944.0
940.0
943.0
944.0
941.0
941.0
937.0
937.0
939.0
940.0
940.0
938.0
937.0
937.0
938.0
939.0
938.0
939.0
936.0
935.0
937.0
940.0
940.0
938.0
939.0
938.0
939.0
942.0
942.0
943.0
941.0
941.0
944.0
946.0
947.0
946.0
947.0
944.0
949.0
950.0
953.0
954.0
955.0
954.0
960.0
963.0
964.0
969.0
969.0
970.0
975.0
978.0
983.0
985.0
986.0
990.0
993.0
999.0
1005.0
1008.0
1010.0
1011.0
1016.0
1021.0
1025.0
1028.0
1026.0
1031.0
1037.0
1040.0
1043.0
1044.0
1042.0
1043.0
1046.0
1050.0
1050.0
1050.0
1050.0
1049.0
1049.0
1049.0
1049.0
1043.0
1039.0
1037.0
1034.0
1032.0
1027.0
1020.0
1016.0
1011.0
1011.0
1006.0
1001.0
993.0
990.0
987.0
984.0
983.0
980.0
979.0
974.0
971.0
972.0
972.0
973.0
969.0
968.0
964.0
967.0
969.0
968.0
968.0
967.0
964.0
966.0
966.0
968.0
966.0
966.0
969.0
966.0
971.0
971.0
969.0
968.0
968.0
971.0
971.0
972.0
972.0
973.0
972.0
974.0
975.0
977.0
973.0
974.0
974.0
976.0
978.0
979.0
975.0
974.0
975.0
975.0
978.0
980.0
979.0
976.0
973.0
977.0
976.0
978.0
975.0
974.0
972.0
974.0
976.0
976.0
973.0
974.0
971.0
973.0
973.0
974.0
968.0
969.0
967.0
967.0
969.0
970.0
966.0
964.0
964.0
965.0
968.0
966.0
965.0
962.0
960.0
963.0
963.0
963.0
962.0
961.0
959.0
961.0
960.0
962.0
959.0
959.0
957.0
958.0
960.0
960.0
960.0
957.0
957.0
959.0
962.0
964.0
964.0
965.0
967.0
971.0
975.0
978.0
974.0
975.0
977.0
979.0
983.0
983.0
980.0
981.0
980.0
985.0
987.0
985.0
982.0
977.0
976.0
973.0
973.0
974.0
975.0
973.0
975.0
973.0
974.0
972.0
967.0
963.0
960.0
958.0
959.0
956.0
954.0
952.0
948.0
949.0
949.0
948.0
948.0
945.0
943.0
946.0
950.0
951.0
949.0
947.0
946.0
947.0
948.0
949.0
949.0
946.0
946.0
946.0
941.0
927.0
909.0
904.0
910.0
927.0
950.0
992.0
1059.0
1143.0
1232.0
1315.0
1382.0
1416.0
1417.0
1379.0
1292.0
1166.0
1044.0
959.0
923.0
917.0
927.0
948.0
970.0
974.0
970.0
957.0
954.0
954.0
956.0
953.0
949.0
946.0
943.0
940.0
944.0
942.0
940.0
939.0
937.0
937.0
938.0
940.0
940.0
936.0
934.0
937.0
937.0
939.0
937.0
939.0
937.0
936.0
942.0
943.0
943.0
940.0
939.0
939.0
945.0
942.0
944.0
944.0
945.0
947.0
951.0
953.0
955.0
952.0
954.0
955.0
960.0
961.0
961.0
963.0
965.0
970.0
974.0
977.0
978.0
981.0
982.0
990.0
996.0
1000.0
1003.0
1006.0
1010.0
1015.0
1019.0
1024.0
1024.0
1029.0
1031.0
1037.0
1040.0
1046.0
1047.0
1046.0
1048.0
1052.0
1056.0
1058.0
1057.0
1059.0
1059.0
1059.0
1059.0
1055.0
1055.0
1050.0
1048.0
1045.0
1042.0
1039.0
1034.0
1027.0
1023.0
1018.0
1016.0
1010.0
1004.0
998.0
993.0
992.0
988.0
985.0
986.0
980.0
977.0
978.0
977.0
976.0
970.0
971.0
972.0
970.0
970.0
970.0
969.0
967.0
968.0
970.0
971.0
970.0
970.0
970.0
969.0
970.0
973.0
972.0
971.0
971.0
971.0
973.0
975.0
977.0
976.0
974.0
975.0
976.0
979.0
979.0
978.0
978.0
977.0
981.0
982.0
982.0
982.0
980.0
976.0
979.0
983.0
983.0
982.0
978.0
977.0
981.0
982.0
982.0
979.0
979.0
977.0
979.0
981.0
979.0
978.0
978.0
978.0
976.0
978.0
978.0
977.0
972.0
971.0
974.0
975.0
973.0
973.0
970.0
969.0
970.0
971.0
969.0
970.0
968.0
968.0
968.0
968.0
967.0
970.0
968.0
964.0
967.0
967.0
967.0
964.0
963.0
962.0
962.0
965.0
964.0
963.0
964.0
960.0
965.0
965.0
965.0
965.0
963.0
962.0
965.0
967.0
971.0
972.0
974.0
974.0
977.0
980.0
980.0
979.0
978.0
981.0
987.0
989.0
988.0
988.0
985.0
988.0
989.0
991.0
988.0
985.0
979.0
976.0
975.0
976.0
978.0
978.0
977.0
972.0
971.0
974.0
970.0
965.0
964.0
959.0
959.0
957.0
957.0
955.0
951.0
950.0
950.0
953.0
953.0
952.0
950.0
948.0
949.0
951.0
952.0
950.0
949.0
946.0
949.0
951.0
953.0
949.0
945.0
934.0
921.0
913.0
912.0
923.0
940.0
970.0
1027.0
1108.0
1198.0
1279.0
1354.0
1406.0
1433.0
1421.0
1364.0
1260.0
1132.0
1017.0
945.0
920.0
926.0
935.0
954.0
971.0
979.0
973.0
966.0
961.0
959.0
958.0
956.0
956.0
952.0
948.0
945.0
944.0
945.0
946.0
943.0
944.0
944.0
942.0
944.0
946.0
944.0
942.0
940.0
940.0
944.0
944.0
944.0
942.0
942.0
942.0
943.0
945.0
947.0
946.0
948.0
947.0
948.0
951.0
952.0
950.0
951.0
951.0
953.0
956.0
957.0
957.0
961.0
959.0
962.0
966.0
966.0
967.0
969.0
973.0
974.0
980.0
984.0
987.0
989.0
988.0
996.0
1000.0
1006.0
1009.0
1009.0
1015.0
1022.0
1024.0
1028.0
1030.0
1031.0
1035.0
1038.0
1044.0
1045.0
1049.0
1048.0
1052.0
1055.0
1058.0
1059.0
1061.0
1058.0
1059.0
1060.0
1061.0
1064.0
1061.0
1056.0
1054.0
1052.0
1052.0
1048.0
1041.0
1037.0
1032.0
1028.0
1024.0
1020.0
1014.0
1010.0
1005.0
1003.0
998.0
997.0
994.0
990.0
985.0
986.0
984.0
982.0
982.0
980.0
977.0
978.0
980.0
979.0
978.0
973.0
976.0
976.0
977.0
978.0
979.0
978.0
975.0
978.0
978.0
978.0
980.0
979.0
979.0
983.0
981.0
983.0
981.0
981.0
977.0
978.0
982.0
986.0
988.0
982.0
983.0
982.0
987.0
986.0
983.0
985.0
985.0
985.0
987.0
988.0
988.0
985.0
985.0
984.0
989.0
989.0
986.0
983.0
979.0
982.0
982.0
984.0
981.0
979.0
978.0
980.0
981.0
980.0
981.0
977.0
977.0
978.0
978.0
978.0
976.0
974.0
971.0
973.0
975.0
975.0
973.0
973.0
972.0
972.0
973.0
969.0
967.0
968.0
965.0
968.0
967.0
968.0
969.0
968.0
967.0
966.0
969.0
968.0
966.0
967.0
966.0
969.0
970.0
968.0
966.0
966.0
966.0
966.0
970.0
968.0
968.0
967.0
968.0
970.0
973.0
978.0
978.0
979.0
981.0
983.0
987.0
986.0
986.0
986.0
986.0
989.0
993.0
990.0
989.0
989.0
989.0
992.0
993.0
989.0
989.0
985.0
981.0
981.0
982.0
982.0
982.0
984.0
984.0
981.0
981.0
978.0
973.0
971.0
969.0
968.0
966.0
967.0
966.0
964.0
961.0
960.0
960.0
960.0
960.0
959.0
957.0
960.0
960.0
960.0
958.0
956.0
954.0
958.0
961.0
961.0
960.0
959.0
955.0
959.0
960.0
962.0
957.0
949.0
935.0
928.0
928.0
936.0
946.0
961.0
988.0
1043.0
1111.0
1182.0
1250.0
1314.0
1366.0
1394.0
1395.0
1358.0
1279.0
1174.0
1075.0
1002.0
958.0
942.0
938.0
943.0
958.0
976.0
988.0
982.0
974.0
969.0
968.0
968.0
972.0
969.0
969.0
962.0
960.0
957.0
959.0
960.0
956.0
953.0
951.0
954.0
957.0
956.0
954.0
952.0
953.0
956.0
955.0
954.0
954.0
955.0
955.0
956.0
958.0
959.0
957.0
959.0
956.0
959.0
961.0
964.0
962.0
959.0
961.0
964.0
964.0
967.0
965.0
965.0
964.0
968.0
968.0
968.0
972.0
970.0
973.0
976.0
980.0
982.0
983.0
984.0
986.0
988.0
992.0
996.0
998.0
1001.0
1003.0
1009.0
1014.0
1015.0
1020.0
1020.0
1022.0
1026.0
1031.0
1035.0
1035.0
1037.0
1040.0
1044.0
1051.0
1054.0
1055.0
1058.0
1057.0
1059.0
1062.0
1063.0
1066.0
1063.0
1064.0
1067.0
1067.0
1066.0
1063.0
1063.0
1060.0
1058.0
1056.0
1054.0
1048.0
1046.0
1039.0
1038.0
1034.0
1030.0
1026.0
1018.0
1017.0
1017.0
1015.0
1009.0
1007.0
1005.0
999.0
1000.0
998.0
1000.0
996.0
994.0
994.0
995.0
994.0
996.0
994.0
992.0
992.0
994.0
994.0
995.0
994.0
992.0
993.0
994.0
998.0
996.0
998.0
997.0
996.0
999.0
997.0
999.0
999.0
997.0
998.0
1000.0
1002.0
1001.0
1001.0
1000.0
1001.0
1002.0
1006.0
1005.0
1004.0
1002.0
1002.0
1005.0
1006.0
1005.0
1005.0
1003.0
1002.0
1003.0
1004.0
1002.0
1003.0
1001.0
999.0
1001.0
1004.0
1003.0
1002.0
1000.0
998.0
998.0
999.0
995.0
995.0
994.0
995.0
993.0
997.0
994.0
993.0
991.0
989.0
990.0
993.0
994.0
991.0
987.0
987.0
988.0
990.0
991.0
990.0
986.0
985.0
987.0
988.0
991.0
988.0
985.0
983.0
986.0
989.0
989.0
985.0
986.0
985.0
987.0
988.0
988.0
987.0
988.0
985.0
990.0
992.0
993.0
994.0
998.0
998.0
1000.0
1005.0
1005.0
1003.0
1003.0
1003.0
1007.0
1010.0
1010.0
1009.0
1007.0
1009.0
1012.0
1013.0
1013.0
1010.0
1006.0
1004.0
1001.0
1003.0
1002.0
1002.0
1000.0
1003.0
1005.0
1005.0
1003.0
1001.0
997.0
991.0
991.0
992.0
992.0
988.0
983.0
981.0
984.0
984.0
982.0
979.0
979.0
976.0
977.0
980.0
980.0
977.0
977.0
977.0
979.0
978.0
981.0
980.0
978.0
977.0
977.0
978.0
979.0
979.0
974.0
974.0
975.0
975.0
968.0
955.0
945.0
941.0
948.0
960.0
973.0
996.0
1034.0
1095.0
1166.0
1233.0
1296.0
1357.0
1402.0
1420.0
1423.0
1392.0
1314.0
1210.0
1106.0
1025.0
977.0
959.0
956.0
963.0
976.0
994.0
1005.0
1004.0
1000.0
993.0
989.0
986.0
986.0
985.0
985.0
981.0
975.0
973.0
974.0
974.0
973.0
971.0
970.0
967.0
969.0
970.0
971.0
967.0
967.0
966.0
968.0
971.0
970.0
969.0
966.0
968.0
969.0
971.0
969.0
968.0
969.0
969.0
972.0
975.0
975.0
974.0
972.0
970.0
976.0
978.0
980.0
978.0
978.0
977.0
979.0
984.0
985.0
985.0
986.0
985.0
988.0
993.0
996.0
996.0
999.0
999.0
1004.0
1009.0
1012.0
1014.0
1016.0
1017.0
1022.0
1027.0
1032.0
1035.0
1037.0
1041.0
1046.0
1047.0
1050.0
1057.0
1057.0
1057.0
1060.0
1064.0
1068.0
1071.0
1071.0
1072.0
1076.0
1078.0
1079.0
1079.0
1078.0
1079.0
1080.0
1080.0
1082.0
1078.0
1074.0
1072.0
1069.0
1071.0
1066.0
1064.0
1058.0
1052.0
1048.0
1044.0
1041.0
1036.0
1028.0
1025.0
1021.0
1021.0
1014.0
1011.0
1009.0
1006.0
1006.0
1007.0
1007.0
1005.0
1002.0
999.0
1001.0
1002.0
1002.0
1000.0
1000.0
999.0
999.0
1000.0
1000.0
1002.0
997.0
994.0
999.0
1001.0
1002.0
1000.0
1001.0
1001.0
1002.0
1004.0
1001.0
1003.0
1001.0
1001.0
1002.0
1005.0
1006.0
1007.0
1008.0
1004.0
1005.0
1009.0
1007.0
1008.0
1007.0
1007.0
1009.0
1009.0
1009.0
1009.0
1008.0
1007.0
1009.0
1009.0
1010.0
1009.0
1008.0
1005.0
1006.0
1008.0
1007.0
1007.0
1006.0
1003.0
1004.0
1003.0
1003.0
1002.0
1001.0
1000.0
1000.0
1001.0
1001.0
999.0
998.0
996.0
996.0
999.0
999.0
994.0
995.0
994.0
995.0
996.0
995.0
994.0
991.0
992.0
991.0
993.0
992.0
992.0
989.0
987.0
989.0
993.0
992.0
989.0
988.0
988.0
989.0
991.0
991.0
989.0
989.0
986.0
987.0
989.0
989.0
988.0
986.0
985.0
986.0
988.0
988.0
986.0
986.0
986.0
987.0
990.0
988.0
988.0
986.0
987.0
989.0
991.0
990.0
993.0
993.0
996.0
1001.0
1004.0
1002.0
1000.0
1000.0
1002.0
1005.0
1009.0
1007.0
1010.0
1008.0
1008.0
1009.0
1011.0
1012.0
1013.0
1009.0
1006.0
1005.0
1004.0
1001.0
998.0
996.0
995.0
1001.0
1003.0
1005.0
1000.0
995.0
993.0
992.0
992.0
989.0
990.0
983.0
983.0
982.0
981.0
981.0
978.0
977.0
974.0
974.0
976.0
974.0
973.0
972.0
972.0
972.0
975.0
974.0
971.0
971.0
970.0
969.0
974.0
973.0
973.0
970.0
969.0
973.0
973.0
972.0
971.0
969.0
962.0
953.0
943.0
933.0
937.0
943.0
958.0
979.0
1021.0
1083.0
1161.0
1232.0
1298.0
1361.0
1406.0
1424.0
1422.0
1394.0
1324.0
1224.0
1121.0
1035.0
977.0
953.0
947.0
949.0
960.0
975.0
991.0
995.0
988.0
981.0
981.0
978.0
976.0
975.0
972.0
971.0
970.0
966.0
964.0
962.0
962.0
962.0
960.0
962.0
961.0
959.0
959.0
960.0
959.0
961.0
960.0
956.0
957.0
959.0
960.0
962.0
961.0
961.0
960.0
963.0
966.0
966.0
964.0
963.0
963.0
966.0
969.0
969.0
967.0
967.0
967.0
971.0
973.0
973.0
970.0
973.0
973.0
976.0
978.0
978.0
980.0
982.0
982.0
986.0
989.0
992.0
994.0
994.0
997.0
1003.0
1008.0
1010.0
1014.0
1015.0
1019.0
1023.0
1027.0
1033.0
1036.0
1037.0
1039.0
1045.0
1051.0
1053.0
1054.0
1056.0
1058.0
1064.0
1067.0
1069.0
1070.0
1068.0
1073.0
1072.0
1077.0
1077.0
1075.0
1074.0
1070.0
1071.0
1072.0
1069.0
1064.0
1062.0
1057.0
1053.0
1049.0
1045.0
1038.0
1032.0
1026.0
1023.0
1020.0
1015.0
1010.0
1002.0
1000.0
1001.0
1002.0
999.0
995.0
992.0
989.0
991.0
992.0
989.0
989.0
988.0
988.0
991.0
990.0
989.0
991.0
989.0
988.0
989.0
991.0
990.0
989.0
990.0
988.0
988.0
991.0
992.0
990.0
990.0
991.0
994.0
993.0
993.0
994.0
993.0
994.0
995.0
998.0
995.0
996.0
993.0
993.0
996.0
997.0
996.0
998.0
997.0
996.0
997.0
997.0
998.0
997.0
995.0
994.0
995.0
998.0
997.0
994.0
993.0
991.0
994.0
995.0
991.0
991.0
991.0
990.0
991.0
990.0
988.0
987.0
987.0
989.0
990.0
990.0
988.0
985.0
983.0
984.0
985.0
986.0
984.0
982.0
981.0
979.0
982.0
981.0
981.0
980.0
975.0
977.0
980.0
982.0
980.0
979.0
977.0
976.0
978.0
978.0
980.0
979.0
976.0
977.0
979.0
979.0
979.0
979.0
977.0
977.0
977.0
976.0
979.0
977.0
978.0
976.0
979.0
985.0
985.0
988.0
989.0
991.0
991.0
993.0
994.0
994.0
991.0
994.0
999.0
1002.0
998.0
1000.0
999.0
1000.0
1002.0
1004.0
1000.0
997.0
991.0
988.0
986.0
988.0
989.0
989.0
988.0
990.0
992.0
990.0
987.0
985.0
982.0
979.0
978.0
975.0
975.0
971.0
970.0
968.0
969.0
969.0
967.0
964.0
963.0
962.0
965.0
966.0
965.0
964.0
963.0
964.0
966.0
970.0
967.0
965.0
962.0
962.0
965.0
968.0
965.0
964.0
959.0
952.0
942.0
932.0
930.0
938.0
949.0
970.0
1003.0
1060.0
1131.0
1203.0
1270.0
1333.0
1381.0
1405.0
1403.0
1362.0
1275.0
1169.0
1067.0
993.0
955.0
942.0
939.0
948.0
969.0
986.0
986.0
981.0
973.0
970.0
972.0
975.0
972.0
969.0
964.0
964.0
963.0
962.0
962.0
960.0
956.0
955.0
954.0
956.0
956.0
956.0
954.0
954.0
956.0
958.0
958.0
956.0
955.0
955.0
958.0
960.0
958.0
955.0
956.0
957.0
960.0
960.0
959.0
962.0
958.0
959.0
963.0
964.0
963.0
963.0
962.0
964.0
967.0
969.0
969.0
969.0
970.0
974.0
976.0
977.0
983.0
984.0
985.0
986.0
991.0
996.0
998.0
1000.0
1002.0
1004.0
1008.0
1013.0
1018.0
1021.0
1022.0
1026.0
1030.0
1038.0
1040.0
1040.0
1041.0
1043.0
1050.0
1054.0
1054.0
1057.0
1058.0
1059.0
1063.0
1066.0
1069.0
1067.0
1063.0
1062.0
1061.0
1061.0
1058.0
1056.0
1050.0
1045.0
1043.0
1042.0
1035.0
1030.0
1025.0
1019.0
1012.0
1012.0
1006.0
1004.0
1001.0
999.0
995.0
993.0
993.0
990.0
987.0
983.0
987.0
988.0
989.0
989.0
988.0
985.0
986.0
988.0
987.0
987.0
985.0
983.0
986.0
989.0
988.0
988.0
985.0
984.0
986.0
989.0
989.0
989.0
988.0
988.0
990.0
990.0
992.0
992.0
990.0
989.0
992.0
992.0
993.0
991.0
992.0
991.0
993.0
995.0
992.0
992.0
989.0
989.0
989.0
991.0
992.0
988.0
988.0
990.0
989.0
990.0
991.0
988.0
985.0
985.0
987.0
987.0
986.0
985.0
984.0
982.0
982.0
984.0
983.0
983.0
981.0
980.0
978.0
982.0
980.0
978.0
975.0
975.0
976.0
978.0
980.0
978.0
975.0
973.0
975.0
974.0
975.0
973.0
973.0
971.0
972.0
973.0
972.0
969.0
971.0
970.0
973.0
973.0
972.0
972.0
970.0
969.0
971.0
973.0
973.0
973.0
972.0
975.0
978.0
985.0
987.0
986.0
986.0
982.0
987.0
992.0
993.0
994.0
995.0
990.0
990.0
992.0
992.0
993.0
993.0
989.0
989.0
989.0
986.0
982.0
982.0
979.0
985.0
989.0
989.0
985.0
980.0
975.0
974.0
975.0
972.0
972.0
966.0
965.0
964.0
967.0
963.0
960.0
958.0
957.0
957.0
960.0
960.0
959.0
958.0
957.0
957.0
959.0
958.0
959.0
957.0
958.0
960.0
962.0
961.0
959.0
959.0
954.0
950.0
945.0
931.0
921.0
923.0
932.0
949.0
972.0
1011.0
1073.0
1148.0
1228.0
1301.0
1363.0
1402.0
1415.0
1396.0
1329.0
1227.0
1115.0
1018.0
958.0
931.0
932.0
944.0
963.0
980.0
985.0
982.0
973.0
970.0
971.0
970.0
968.0
966.0
960.0
961.0
958.0
954.0
953.0
951.0
951.0
951.0
952.0
953.0
951.0
950.0
948.0
950.0
953.0
951.0
952.0
950.0
948.0
948.0
952.0
951.0
951.0
948.0
950.0
951.0
954.0
956.0
959.0
958.0
955.0
955.0
956.0
958.0
959.0
961.0
963.0
963.0
967.0
967.0
969.0
968.0
970.0
973.0
977.0
978.0
982.0
981.0
984.0
990.0
994.0
998.0
1002.0
1004.0
1007.0
1009.0
1016.0
1021.0
1024.0
1024.0
1028.0
1034.0
1039.0
1042.0
1042.0
1046.0
1043.0
1049.0
1053.0
1054.0
1059.0
1057.0
1058.0
1060.0
1064.0
1065.0
1062.0
1060.0
1059.0
1060.0
1061.0
1058.0
1054.0
1047.0
1042.0
1041.0
1034.0
1033.0
1023.0
1022.0
1015.0
1015.0
1011.0
1007.0
1002.0
999.0
995.0
992.0
994.0
990.0
986.0
988.0
983.0
983.0
984.0
983.0
982.0
980.0
978.0
982.0
985.0
985.0
983.0
980.0
978.0
981.0
981.0
981.0
983.0
981.0
980.0
982.0
985.0
986.0
983.0
982.0
983.0
984.0
987.0
986.0
988.0
985.0
986.0
988.0
991.0
991.0
989.0
988.0
986.0
989.0
992.0
993.0
