# Simple Text Format
# Sampling Rate (Hz):= 360.00
# Resolution:= 12
# Labels:= ECG
950.0
948.0
944.0
943.0
946.0
947.0
951.0
947.0
944.0
945.0
947.0
947.0
945.0
945.0
944.0
946.0
947.0
951.0
951.0
947.0
944.0
944.0
942.0
934.0
920.0
910.0
909.0
922.0
939.0
963.0
1006.0
1075.0
1157.0
1236.0
1309.0
1369.0
1401.0
1403.0
1363.0
1271.0
1155.0
1046.0
970.0
933.0
927.0
927.0
936.0
956.0
968.0
970.0
962.0
958.0
958.0
957.0
954.0
951.0
948.0
948.0
947.0
946.0
942.0
940.0
937.0
937.0
942.0
941.0
939.0
938.0
935.0
936.0
937.0
942.0
938.0
936.0
935.0
939.0
939.0
939.0
938.0
937.0
936.0
938.0
941.0
943.0
940.0
939.0
937.0
941.0
942.0
945.0
947.0
946.0
945.0
949.0
951.0
951.0
949.0
950.0
949.0
953.0
955.0
960.0
959.0
960.0
961.0
966.0
967.0
971.0
972.0
974.0
977.0
984.0
989.0
992.0
995.0
998.0
1001.0
1006.0
1009.0
1011.0
1013.0
1017.0
1020.0
1024.0
1029.0
1030.0
1031.0
1034.0
1034.0
1040.0
1044.0
1045.0
1047.0
1049.0
1048.0
1051.0
1053.0
1055.0
1052.0
1052.0
1050.0
1051.0
1051.0
1049.0
1045.0
1042.0
1036.0
1035.0
1030.0
1026.0
1025.0
1018.0
1014.0
1009.0
1007.0
999.0
995.0
990.0
985.0
984.0
983.0
982.0
978.0
977.0
972.0
972.0
972.0
970.0
968.0
967.0
966.0
967.0
968.0
969.0
968.0
966.0
964.0
966.0
967.0
969.0
968.0
965.0
964.0
966.0
967.0
968.0
967.0
962.0
964.0
966.0
969.0
970.0
970.0
969.0
969.0
972.0
972.0
972.0
972.0
973.0
973.0
974.0
975.0
975.0
973.0
973.0
972.0
975.0
976.0
974.0
975.0
973.0
970.0
974.0
975.0
976.0
971.0
971.0
971.0
973.0
974.0
973.0
971.0
968.0
967.0
968.0
968.0
967.0
966.0
967.0
965.0
965.0
967.0
965.0
963.0
963.0
962.0
963.0
963.0
963.0
961.0
960.0
956.0
957.0
957.0
960.0
958.0
959.0
958.0
958.0
956.0
957.0
957.0
955.0
955.0
955.0
957.0
957.0
957.0
955.0
953.0
953.0
955.0
955.0
954.0
953.0
953.0
955.0
955.0
956.0
954.0
953.0
951.0
954.0
955.0
957.0
959.0
953.0
957.0
963.0
966.0
970.0
970.0
970.0
970.0
971.0
975.0
977.0
977.0
976.0
976.0
975.0
976.0
979.0
979.0
978.0
976.0
975.0
976.0
974.0
969.0
965.0
963.0
969.0
970.0
974.0
976.0
972.0
966.0
965.0
964.0
962.0
958.0
957.0
956.0
954.0
955.0
953.0
952.0
950.0
946.0
943.0
946.0
949.0
947.0
944.0
947.0
947.0
948.0
949.0
947.0
949.0
945.0
946.0
948.0
950.0
950.0
948.0
949.0
949.0
950.0
950.0
949.0
942.0
935.0
925.0
918.0
920.0
929.0
940.0
955.0
988.0
1045.0
1114.0
1186.0
1250.0
1308.0
1358.0
1386.0
1385.0
1345.0
1261.0
1147.0
1046.0
974.0
939.0
927.0
926.0
933.0
952.0
968.0
971.0
965.0
958.0
954.0
954.0
957.0
958.0
956.0
950.0
946.0
948.0
948.0
950.0
949.0
944.0
942.0
944.0
944.0
945.0
943.0
943.0
943.0
945.0
945.0
943.0
944.0
943.0
941.0
943.0
946.0
947.0
947.0
944.0
944.0
946.0
949.0
950.0
949.0
948.0
948.0
949.0
952.0
956.0
954.0
957.0
957.0
958.0
961.0
964.0
962.0
965.0
966.0
970.0
973.0
973.0
974.0
975.0
977.0
982.0
986.0
991.0
994.0
995.0
997.0
1002.0
1005.0
1010.0
1010.0
1014.0
1016.0
1022.0
1025.0
1031.0
1030.0
1033.0
1035.0
1038.0
1044.0
1046.0
1048.0
1048.0
1049.0
1052.0
1054.0
1055.0
1055.0
1054.0
1051.0
1052.0
1051.0
1047.0
1046.0
1039.0
1033.0
1030.0
1030.0
1024.0
1020.0
1013.0
1007.0
1005.0
1001.0
999.0
996.0
992.0
989.0
986.0
988.0
986.0
983.0
981.0
979.0
981.0
981.0
978.0
981.0
978.0
977.0
976.0
976.0
978.0
979.0
979.0
977.0
979.0
978.0
980.0
979.0
979.0
975.0
979.0
981.0
983.0
984.0
982.0
978.0
982.0
985.0
987.0
988.0
987.0
982.0
986.0
987.0
988.0
987.0
985.0
987.0
989.0
992.0
991.0
991.0
986.0
985.0
984.0
989.0
989.0
987.0
987.0
984.0
986.0
986.0
985.0
984.0
984.0
982.0
983.0
985.0
985.0
983.0
983.0
977.0
978.0
977.0
979.0
980.0
978.0
976.0
977.0
976.0
977.0
975.0
976.0
971.0
972.0
972.0
975.0
974.0
971.0
969.0
970.0
970.0
973.0
973.0
972.0
972.0
971.0
973.0
972.0
970.0
968.0
968.0
969.0
973.0
974.0
973.0
970.0
967.0
968.0
971.0
973.0
971.0
969.0
970.0
970.0
973.0
975.0
976.0
977.0
979.0
982.0
985.0
989.0
988.0
986.0
986.0
988.0
993.0
994.0
993.0
989.0
988.0
991.0
993.0
994.0
992.0
987.0
985.0
982.0
984.0
982.0
983.0
981.0
981.0
985.0
984.0
983.0
978.0
976.0
973.0
974.0
976.0
973.0
968.0
966.0
964.0
964.0
966.0
963.0
962.0
962.0
961.0
963.0
964.0
966.0
964.0
962.0
961.0
965.0
965.0
968.0
967.0
963.0
960.0
963.0
964.0
964.0
963.0
961.0
959.0
957.0
950.0
938.0
931.0
935.0
944.0
960.0
986.0
1028.0
1091.0
1162.0
1228.0
1291.0
1346.0
1381.0
1394.0
1378.0
1319.0
1226.0
1125.0
1036.0
977.0
945.0
933.0
939.0
956.0
973.0
987.0
985.0
977.0
972.0
973.0
973.0
972.0
969.0
965.0
965.0
964.0
960.0
961.0
958.0
955.0
957.0
957.0
957.0
957.0
954.0
955.0
956.0
956.0
957.0
955.0
956.0
954.0
954.0
958.0
959.0
957.0
957.0
956.0
957.0
959.0
961.0
961.0
961.0
961.0
962.0
964.0
964.0
964.0
963.0
963.0
967.0
969.0
969.0
971.0
974.0
974.0
978.0
980.0
981.0
982.0
985.0
987.0
993.0
998.0
1001.0
1003.0
1004.0
1009.0
1013.0
1018.0
1022.0
1027.0
1027.0
1030.0
1037.0
1040.0
1042.0
1045.0
1046.0
1047.0
1052.0
1056.0
1057.0
1061.0
1060.0
1061.0
1062.0
1065.0
1065.0
1063.0
1060.0
1058.0
1058.0
1056.0
1055.0
1050.0
1048.0
1040.0
1036.0
1032.0
1029.0
1021.0
1019.0
1011.0
1009.0
1007.0
1005.0
1000.0
997.0
990.0
991.0
990.0
990.0
987.0
985.0
985.0
984.0
985.0
984.0
983.0
982.0
981.0
984.0
982.0
986.0
984.0
981.0
980.0
983.0
985.0
983.0
984.0
984.0
982.0
985.0
987.0
990.0
987.0
983.0
984.0
986.0
990.0
991.0
991.0
988.0
987.0
990.0
990.0
992.0
990.0
987.0
988.0
991.0
993.0
992.0
991.0
991.0
989.0
989.0
992.0
992.0
990.0
987.0
989.0
991.0
991.0
991.0
989.0
988.0
984.0
987.0
988.0
989.0
987.0
986.0
983.0
985.0
982.0
984.0
982.0
981.0
980.0
980.0
982.0
983.0
980.0
977.0
975.0
977.0
977.0
976.0
974.0
974.0
972.0
973.0
972.0
975.0
974.0
972.0
970.0
970.0
973.0
973.0
969.0
968.0
967.0
970.0
970.0
971.0
970.0
967.0
966.0
968.0
969.0
968.0
967.0
964.0
964.0
966.0
970.0
971.0
969.0
968.0
966.0
969.0
975.0
976.0
980.0
979.0
979.0
981.0
986.0
987.0
988.0
985.0
984.0
988.0
989.0
988.0
990.0
988.0
986.0
991.0
989.0
989.0
983.0
979.0
976.0
980.0
982.0
981.0
986.0
982.0
978.0
978.0
978.0
977.0
973.0
969.0
968.0
965.0
966.0
963.0
959.0
958.0
959.0
957.0
960.0
958.0
958.0
956.0
955.0
955.0
956.0
958.0
958.0
956.0
954.0
957.0
957.0
958.0
957.0
955.0
955.0
957.0
955.0
954.0
947.0
931.0
919.0
916.0
923.0
934.0
948.0
974.0
1022.0
1094.0
1173.0
1248.0
1312.0
1368.0
1400.0
1410.0
1382.0
1310.0
1201.0
1086.0
998.0
951.0
937.0
938.0
942.0
955.0
971.0
982.0
980.0
970.0
964.0
961.0
958.0
957.0
958.0
955.0
952.0
947.0
946.0
946.0
946.0
946.0
943.0
941.0
939.0
942.0
946.0
945.0
942.0
941.0
939.0
940.0
943.0
945.0
941.0
939.0
939.0
944.0
945.0
947.0
946.0
944.0
943.0
944.0
948.0
949.0
949.0
947.0
947.0
950.0
952.0
952.0
950.0
952.0
953.0
956.0
960.0
961.0
965.0
964.0
965.0
970.0
975.0
975.0
980.0
981.0
984.0
992.0
996.0
998.0
1001.0
1006.0
1010.0
1016.0
1021.0
1026.0
1029.0
1029.0
1031.0
1033.0
1039.0
1041.0
1043.0
1043.0
1045.0
1048.0
1048.0
1051.0
1052.0
1053.0
1049.0
1048.0
1049.0
1047.0
1044.0
1038.0
1032.0
1030.0
1028.0
1023.0
1018.0
1012.0
1006.0
1002.0
998.0
995.0
991.0
984.0
980.0
978.0
978.0
974.0
974.0
972.0
966.0
969.0
971.0
967.0
968.0
967.0
962.0
964.0
964.0
966.0
966.0
965.0
964.0
965.0
967.0
965.0
965.0
966.0
965.0
967.0
967.0
969.0
968.0
965.0
964.0
967.0
970.0
972.0
972.0
972.0
970.0
970.0
971.0
971.0
973.0
970.0
969.0
969.0
972.0
975.0
973.0
972.0
969.0
973.0
973.0
974.0
973.0
970.0
970.0
968.0
972.0
972.0
969.0
966.0
963.0
965.0
966.0
966.0
964.0
962.0
961.0
961.0
962.0
964.0
964.0
960.0
959.0
958.0
961.0
960.0
956.0
955.0
955.0
956.0
960.0
959.0
956.0
954.0
952.0
953.0
955.0
955.0
954.0
950.0
949.0
950.0
952.0
952.0
951.0
949.0
947.0
950.0
951.0
953.0
952.0
948.0
948.0
950.0
952.0
953.0
952.0
949.0
949.0
952.0
953.0
953.0
951.0
951.0
953.0
955.0
963.0
966.0
967.0
965.0
964.0
966.0
970.0
970.0
971.0
970.0
970.0
971.0
971.0
973.0
973.0
970.0
968.0
966.0
965.0
963.0
961.0
957.0
958.0
960.0
966.0
967.0
965.0
961.0
956.0
957.0
956.0
953.0
950.0
947.0
944.0
945.0
945.0
945.0
943.0
939.0
938.0
938.0
940.0
940.0
939.0
937.0
935.0
939.0
939.0
941.0
939.0
939.0
938.0
939.0
940.0
937.0
938.0
939.0
936.0
938.0
936.0
929.0
915.0
906.0
903.0
917.0
929.0
952.0
987.0
1050.0
1125.0
1202.0
1271.0
1329.0
1365.0
1378.0
1350.0
1279.0
1172.0
1060.0
975.0
934.0
916.0
916.0
928.0
948.0
963.0
962.0
955.0
945.0
944.0
944.0
943.0
944.0
938.0
940.0
939.0
937.0
934.0
931.0
929.0
933.0
933.0
932.0
934.0
930.0
930.0
928.0
929.0
932.0
931.0
931.0
930.0
931.0
932.0
934.0
934.0
933.0
932.0
932.0
932.0
936.0
938.0
937.0
936.0
938.0
939.0
940.0
938.0
937.0
940.0
943.0
948.0
949.0
949.0
950.0
951.0
955.0
961.0
966.0
966.0
970.0
971.0
976.0
980.0
982.0
986.0
987.0
992.0
1000.0
999.0
1005.0
1006.0
1009.0
1013.0
1017.0
1020.0
1023.0
1027.0
1027.0
1029.0
1029.0
1032.0
1037.0
1037.0
1037.0
1036.0
1039.0
1036.0
1036.0
1031.0
1027.0
1023.0
1022.0
1018.0
1017.0
1010.0
1006.0
997.0
995.0
992.0
987.0
984.0
980.0
974.0
972.0
974.0
972.0
969.0
964.0
962.0
962.0
966.0
964.0
964.0
960.0
958.0
959.0
960.0
961.0
961.0
959.0
958.0
957.0
958.0
959.0
960.0
957.0
955.0
959.0
959.0
962.0
961.0
961.0
960.0
963.0
965.0
965.0
966.0
964.0
963.0
965.0
968.0
968.0
967.0
967.0
967.0
966.0
967.0
969.0
968.0
970.0
967.0
968.0
969.0
971.0
968.0
970.0
967.0
971.0
967.0
969.0
967.0
964.0
963.0
964.0
964.0
966.0
963.0
961.0
959.0
962.0
963.0
961.0
961.0
959.0
958.0
959.0
958.0
958.0
956.0
954.0
953.0
954.0
952.0
953.0
953.0
952.0
950.0
953.0
952.0
951.0
950.0
949.0
951.0
954.0
955.0
953.0
952.0
947.0
947.0
947.0
948.0
950.0
949.0
948.0
947.0
948.0
948.0
950.0
948.0
948.0
944.0
949.0
950.0
951.0
951.0
951.0
951.0
953.0
956.0
961.0
963.0
964.0
963.0
964.0
966.0
966.0
969.0
966.0
967.0
969.0
969.0
971.0
973.0
972.0
969.0
969.0
968.0
968.0
965.0
962.0
959.0
961.0
963.0
964.0
966.0
963.0
962.0
959.0
957.0
955.0
955.0
953.0
949.0
948.0
945.0
946.0
946.0
945.0
942.0
942.0
943.0
942.0
944.0
940.0
937.0
937.0
941.0
941.0
940.0
938.0
938.0
940.0
942.0
943.0
940.0
938.0
939.0
938.0
940.0
942.0
935.0
926.0
914.0
913.0
915.0
929.0
942.0
963.0
1003.0
1068.0
1139.0
1206.0
1268.0
1318.0
1353.0
1368.0
1347.0
1285.0
1184.0
1077.0
999.0
947.0
925.0
919.0
920.0
934.0
953.0
964.0
963.0
958.0
953.0
948.0
947.0
948.0
948.0
946.0
943.0
940.0
937.0
937.0
937.0
938.0
935.0
934.0
933.0
934.0
936.0
936.0
935.0
935.0
933.0
936.0
936.0
936.0
937.0
936.0
935.0
938.0
938.0
938.0
937.0
937.0
935.0
936.0
941.0
942.0
941.0
943.0
941.0
943.0
944.0
945.0
948.0
946.0
947.0
952.0
952.0
954.0
954.0
955.0
955.0
958.0
962.0
965.0
968.0
969.0
971.0
976.0
979.0
984.0
985.0
986.0
991.0
995.0
1001.0
1006.0
1009.0
1011.0
1012.0
1016.0
1020.0
1023.0
1025.0
1027.0
1028.0
1032.0
1033.0
1036.0
1037.0
1038.0
1039.0
1040.0
1042.0
1041.0
1041.0
1041.0
1038.0
1038.0
1041.0
1038.0
1033.0
1029.0
1026.0
1025.0
1023.0
1020.0
1016.0
1009.0
1004.0
1001.0
997.0
995.0
991.0
986.0
982.0
979.0
978.0
976.0
973.0
970.0
968.0
967.0
966.0
968.0
965.0
963.0
962.0
963.0
963.0
964.0
963.0
960.0
958.0
961.0
962.0
962.0
964.0
963.0
961.0
960.0
964.0
963.0
964.0
964.0
962.0
965.0
967.0
966.0
966.0
965.0
966.0
967.0
970.0
969.0
971.0
969.0
968.0
972.0
971.0
976.0
970.0
970.0
968.0
972.0
971.0
973.0
973.0
972.0
970.0
973.0
974.0
974.0
973.0
972.0
970.0
970.0
973.0
973.0
971.0
971.0
969.0
972.0
970.0
971.0
969.0
969.0
967.0
968.0
971.0
971.0
968.0
967.0
963.0
964.0
966.0
966.0
965.0
961.0
960.0
964.0
964.0
964.0
962.0
959.0
957.0
957.0
960.0
960.0
958.0
957.0
955.0
955.0
956.0
958.0
956.0
955.0
952.0
951.0
954.0
958.0
955.0
955.0
953.0
953.0
955.0
955.0
956.0
954.0
955.0
955.0
953.0
953.0
953.0
951.0
952.0
952.0
955.0
954.0
953.0
954.0
956.0
959.0
963.0
966.0
965.0
968.0
967.0
970.0
971.0
972.0
971.0
972.0
973.0
976.0
978.0
976.0
974.0
972.0
974.0
977.0
980.0
979.0
974.0
971.0
967.0
966.0
968.0
967.0
967.0
970.0
968.0
970.0
968.0
966.0
963.0
958.0
957.0
956.0
955.0
955.0
952.0
949.0
946.0
947.0
948.0
945.0
945.0
940.0
940.0
941.0
942.0
943.0
943.0
939.0
940.0
940.0
940.0
941.0
941.0
941.0
940.0
945.0
945.0
945.0
945.0
942.0
938.0
936.0
931.0
923.0
909.0
904.0
908.0
920.0
938.0
962.0
1008.0
1074.0
1151.0
1229.0
1299.0
1357.0
1392.0
1401.0
1382.0
1324.0
1230.0
1124.0
1030.0
964.0
932.0
923.0
924.0
932.0
950.0
964.0
965.0
960.0
956.0
953.0
952.0
949.0
947.0
947.0
946.0
941.0
937.0
934.0
933.0
933.0
933.0
935.0
934.0
931.0
929.0
931.0
930.0
932.0
931.0
928.0
932.0
934.0
933.0
932.0
933.0
932.0
931.0
933.0
935.0
935.0
938.0
936.0
936.0
938.0
940.0
941.0
941.0
939.0
937.0
941.0
942.0
947.0
946.0
945.0
946.0
948.0
949.0
952.0
952.0
952.0
956.0
960.0
965.0
967.0
967.0
969.0
973.0
976.0
982.0
986.0
990.0
991.0
993.0
995.0
1002.0
1005.0
1008.0
1011.0
1015.0
1021.0
1026.0
1029.0
1032.0
1034.0
1035.0
1038.0
1041.0
1043.0
1046.0
1048.0
1047.0
1050.0
1051.0
1051.0
1048.0
1046.0
1045.0
1046.0
1044.0
1039.0
1036.0
1030.0
1028.0
1023.0
1017.0
1012.0
1009.0
1003.0
995.0
994.0
991.0
988.0
984.0
979.0
973.0
973.0
972.0
970.0
969.0
965.0
963.0
964.0
964.0
964.0
961.0
960.0
960.0
961.0
960.0
962.0
961.0
961.0
960.0
962.0
962.0
962.0
961.0
964.0
963.0
965.0
968.0
968.0
964.0
965.0
961.0
964.0
968.0
969.0
968.0
969.0
969.0
969.0
972.0
971.0
970.0
969.0
969.0
972.0
972.0
974.0
971.0
972.0
970.0
971.0
974.0
974.0
973.0
970.0
971.0
971.0
973.0
972.0
973.0
970.0
970.0
971.0
971.0
970.0
970.0
969.0
968.0
968.0
969.0
972.0
967.0
965.0
961.0
962.0
965.0
965.0
962.0
961.0
959.0
960.0
962.0
962.0
960.0
959.0
957.0
957.0
959.0
962.0
959.0
956.0
953.0
954.0
957.0
957.0
958.0
956.0
954.0
952.0
956.0
958.0
956.0
956.0
954.0
954.0
955.0
957.0
953.0
954.0
952.0
953.0
955.0
956.0
953.0
954.0
952.0
953.0
955.0
953.0
954.0
953.0
954.0
958.0
961.0
965.0
966.0
967.0
967.0
968.0
971.0
971.0
970.0
972.0
973.0
973.0
976.0
976.0
977.0
976.0
974.0
974.0
975.0
978.0
975.0
973.0
967.0
965.0
965.0
968.0
967.0
965.0
966.0
968.0
968.0
963.0
962.0
959.0
956.0
958.0
956.0
954.0
950.0
947.0
946.0
945.0
946.0
944.0
943.0
943.0
941.0
943.0
944.0
943.0
945.0
944.0
943.0
946.0
946.0
945.0
945.0
945.0
945.0
947.0
947.0
945.0
944.0
940.0
934.0
921.0
914.0
910.0
917.0
931.0
952.0
995.0
1060.0
1139.0
1218.0
1289.0
1343.0
1379.0
1390.0
1362.0
1288.0
1175.0
1058.0
974.0
934.0
923.0
923.0
930.0
940.0
958.0
966.0
962.0
956.0
952.0
946.0
951.0
952.0
952.0
948.0
945.0
939.0
938.0
939.0
939.0
936.0
933.0
935.0
935.0
935.0
933.0
935.0
933.0
932.0
934.0
935.0
936.0
936.0
936.0
935.0
935.0
935.0
936.0
935.0
935.0
933.0
938.0
942.0
940.0
942.0
939.0
938.0
941.0
943.0
943.0
946.0
945.0
946.0
947.0
950.0
952.0
955.0
953.0
956.0
958.0
963.0
965.0
966.0
970.0
971.0
974.0
977.0
982.0
985.0
987.0
990.0
993.0
999.0
1003.0
1006.0
1008.0
1012.0
1016.0
1022.0
1024.0
1029.0
1032.0
1031.0
1035.0
1039.0
1040.0
1041.0
1043.0
1043.0
1040.0
1046.0
1044.0
1040.0
1038.0
1036.0
1036.0
1036.0
1032.0
1028.0
1022.0
1013.0
1009.0
1005.0
1002.0
996.0
993.0
986.0
986.0
985.0
982.0
977.0
974.0
970.0
970.0
972.0
971.0
968.0
965.0
962.0
961.0
964.0
966.0
966.0
964.0
963.0
964.0
965.0
966.0
965.0
961.0
963.0
965.0
966.0
965.0
965.0
962.0
961.0
965.0
966.0
964.0
968.0
968.0
967.0
967.0
969.0
969.0
970.0
968.0
967.0
969.0
970.0
972.0
969.0
969.0
970.0
969.0
974.0
972.0
971.0
971.0
970.0
971.0
972.0
973.0
969.0
968.0
967.0
967.0
970.0
969.0
969.0
968.0
966.0
967.0
966.0
966.0
962.0
959.0
959.0
958.0
964.0
964.0
959.0
960.0
959.0
958.0
961.0
962.0
959.0
957.0
956.0
957.0
957.0
956.0
955.0
954.0
950.0
954.0
956.0
955.0
954.0
953.0
950.0
951.0
954.0
953.0
948.0
949.0
950.0
951.0
955.0
955.0
953.0
952.0
952.0
951.0
952.0
951.0
953.0
951.0
951.0
950.0
953.0
953.0
952.0
952.0
953.0
955.0
960.0
963.0
965.0
965.0
963.0
966.0
970.0
970.0
967.0
967.0
970.0
974.0
976.0
974.0
971.0
972.0
971.0
973.0
974.0
971.0
967.0
965.0
962.0
962.0
965.0
964.0
968.0
966.0
963.0
963.0
962.0
959.0
956.0
953.0
951.0
950.0
950.0
946.0
945.0
943.0
941.0
941.0
944.0
942.0
942.0
942.0
939.0
942.0
942.0
943.0
942.0
941.0
939.0
939.0
941.0
941.0
940.0
938.0
940.0
942.0
942.0
933.0
923.0
911.0
911.0
918.0
933.0
954.0
990.0
1048.0
1116.0
1192.0
1260.0
1320.0
1363.0
1379.0
1361.0
1304.0
1208.0
1106.0
1018.0
957.0
926.0
916.0
922.0
941.0
960.0
966.0
959.0
952.0
949.0
947.0
946.0
946.0
941.0
939.0
938.0
939.0
937.0
934.0
932.0
933.0
934.0
934.0
934.0
933.0
930.0
932.0
934.0
935.0
935.0
932.0
930.0
930.0
933.0
937.0
933.0
933.0
932.0
932.0
937.0
937.0
937.0
935.0
935.0
938.0
939.0
942.0
941.0
939.0
941.0
944.0
946.0
948.0
950.0
951.0
951.0
952.0
956.0
959.0
963.0
963.0
963.0
967.0
970.0
973.0
978.0
980.0
982.0
988.0
992.0
998.0
1000.0
999.0
1001.0
1006.0
1010.0
1015.0
1018.0
1017.0
1018.0
1023.0
1026.0
1029.0
1029.0
1029.0
1031.0
1035.0
1040.0
1039.0
1039.0
1036.0
1036.0
1037.0
1036.0
1034.0
1033.0
1026.0
1026.0
1023.0
1019.0
1018.0
1011.0
1006.0
998.0
996.0
994.0
992.0
987.0
983.0
979.0
974.0
976.0
975.0
971.0
968.0
966.0
967.0
969.0
969.0
967.0
964.0
963.0
960.0
965.0
964.0
964.0
961.0
960.0
962.0
963.0
963.0
964.0
962.0
962.0
962.0
967.0
966.0
964.0
965.0
964.0
966.0
968.0
968.0
968.0
967.0
968.0
969.0
972.0
972.0
972.0
967.0
968.0
969.0
971.0
973.0
974.0
974.0
972.0
973.0
974.0
974.0
972.0
972.0
967.0
968.0
970.0
972.0
971.0
971.0
967.0
969.0
973.0
969.0
968.0
969.0
967.0
967.0
969.0
969.0
970.0
967.0
964.0
967.0
966.0
966.0
965.0
964.0
961.0
963.0
962.0
961.0
958.0
958.0
957.0
957.0
957.0
960.0
959.0
957.0
955.0
956.0
957.0
956.0
954.0
953.0
952.0
952.0
954.0
957.0
955.0
952.0
951.0
952.0
955.0
955.0
952.0
953.0
952.0
952.0
956.0
956.0
959.0
958.0
960.0
962.0
968.0
970.0
969.0
968.0
969.0
972.0
974.0
975.0
976.0
973.0
973.0
973.0
979.0
979.0
977.0
973.0
972.0
970.0
969.0
967.0
962.0
966.0
965.0
968.0
970.0
969.0
963.0
958.0
954.0
954.0
951.0
950.0
951.0
950.0
946.0
944.0
944.0
942.0
942.0
941.0
939.0
941.0
942.0
942.0
942.0
940.0
938.0
939.0
942.0
942.0
943.0
941.0
938.0
939.0
939.0
933.0
917.0
903.0
901.0
912.0
927.0
944.0
979.0
1035.0
1110.0
1192.0
1268.0
1335.0
1386.0
1405.0
1392.0
1333.0
1231.0
1113.0
1008.0
942.0
917.0
917.0
932.0
950.0
965.0
967.0
956.0
951.0
949.0
950.0
948.0
943.0
940.0
938.0
936.0
937.0
933.0
933.0
932.0
933.0
934.0
934.0
928.0
932.0
931.0
931.0
933.0
932.0
933.0
932.0
930.0
930.0
933.0
934.0
934.0
934.0
933.0
933.0
937.0
940.0
937.0
937.0
937.0
940.0
945.0
944.0
942.0
943.0
942.0
946.0
948.0
951.0
953.0
954.0
952.0
956.0
962.0
964.0
967.0
969.0
970.0
975.0
984.0
986.0
990.0
992.0
994.0
1001.0
1003.0
1008.0
1012.0
1013.0
1017.0
1021.0
1029.0
1029.0
1032.0
1032.0
1032.0
1037.0
1040.0
1044.0
1042.0
1043.0
1042.0
1043.0
1046.0
1045.0
1041.0
1041.0
1038.0
1036.0
1037.0
1034.0
1030.0
1023.0
1018.0
1014.0
1012.0
1008.0
1002.0
996.0
991.0
988.0
986.0
984.0
977.0
973.0
969.0
970.0
971.0
970.0
967.0
965.0
962.0
961.0
963.0
963.0
963.0
961.0
961.0
961.0
963.0
962.0
963.0
960.0
959.0
960.0
965.0
966.0
965.0
961.0
961.0
964.0
966.0
966.0
964.0
963.0
963.0
965.0
967.0
969.0
968.0
969.0
964.0
965.0
967.0
966.0
968.0
968.0
966.0
969.0
972.0
973.0
972.0
970.0
967.0
971.0
971.0
974.0
971.0
969.0
968.0
969.0
969.0
970.0
969.0
966.0
965.0
969.0
968.0
968.0
967.0
963.0
963.0
962.0
964.0
965.0
962.0
963.0
961.0
960.0
962.0
963.0
962.0
959.0
957.0
960.0
961.0
960.0
958.0
957.0
954.0
954.0
959.0
957.0
956.0
954.0
952.0
953.0
956.0
954.0
953.0
949.0
950.0
953.0
955.0
955.0
953.0
952.0
950.0
950.0
954.0
953.0
953.0
952.0
950.0
952.0
953.0
955.0
955.0
956.0
959.0
964.0
967.0
970.0
968.0
968.0
967.0
970.0
974.0
977.0
978.0
976.0
974.0
977.0
979.0
979.0
977.0
976.0
971.0
971.0
969.0
968.0
967.0
967.0
967.0
970.0
970.0
967.0
964.0
958.0
954.0
954.0
953.0
953.0
950.0
948.0
946.0
946.0
948.0
946.0
944.0
943.0
939.0
944.0
945.0
946.0
946.0
943.0
943.0
944.0
944.0
944.0
943.0
943.0
940.0
941.0
946.0
945.0
942.0
930.0
917.0
909.0
909.0
919.0
931.0
948.0
982.0
1047.0
1121.0
1203.0
1277.0
1341.0
1386.0
1405.0
1387.0
1322.0
1213.0
1091.0
992.0
938.0
924.0
926.0
932.0
945.0
961.0
972.0
966.0
958.0
954.0
952.0
950.0
955.0
954.0
949.0
946.0
941.0
939.0
941.0
941.0
942.0
941.0
938.0
937.0
940.0
941.0
942.0
940.0
937.0
937.0
936.0
940.0
938.0
937.0
938.0
935.0
939.0
939.0
940.0
941.0
939.0
938.0
941.0
944.0
945.0
946.0
945.0
947.0
948.0
951.0
952.0
950.0
950.0
950.0
953.0
959.0
957.0
959.0
960.0
962.0
966.0
971.0
974.0
975.0
976.0
980.0
985.0
988.0
992.0
995.0
1000.0
1004.0
1007.0
1015.0
1016.0
1018.0
1022.0
1023.0
1029.0
1034.0
1035.0
1036.0
1040.0
1039.0
1044.0
1047.0
1050.0
1050.0
1052.0
1052.0
1053.0
1055.0
1056.0
1054.0
1050.0
1046.0
1049.0
1045.0
1042.0
1039.0
1032.0
1027.0
1025.0
1025.0
1019.0
1014.0
1009.0
1004.0
1003.0
1000.0
995.0
992.0
984.0
979.0
976.0
977.0
975.0
974.0
973.0
968.0
970.0
972.0
970.0
968.0
964.0
965.0
965.0
966.0
969.0
967.0
966.0
964.0
969.0
969.0
968.0
968.0
968.0
969.0
969.0
974.0
974.0
973.0
970.0
971.0
974.0
975.0
977.0
977.0
976.0
974.0
976.0
979.0
980.0
978.0
978.0
976.0
978.0
979.0
979.0
977.0
974.0
974.0
975.0
977.0
977.0
979.0
975.0
974.0
976.0
974.0
976.0
974.0
971.0
970.0
970.0
974.0
972.0
970.0
968.0
967.0
969.0
970.0
970.0
970.0
970.0
966.0
966.0
967.0
967.0
963.0
963.0
962.0
963.0
963.0
963.0
963.0
961.0
959.0
961.0
961.0
960.0
961.0
957.0
959.0
958.0
958.0
957.0
958.0
956.0
953.0
957.0
959.0
960.0
957.0
955.0
956.0
956.0
956.0
958.0
957.0
953.0
955.0
957.0
959.0
961.0
957.0
961.0
962.0
968.0
971.0
972.0
973.0
971.0
971.0
974.0
979.0
980.0
981.0
978.0
976.0
979.0
981.0
980.0
975.0
973.0
970.0
966.0
967.0
968.0
968.0
969.0
970.0
973.0
972.0
969.0
963.0
959.0
957.0
958.0
959.0
955.0
953.0
951.0
948.0
949.0
952.0
950.0
948.0
945.0
944.0
945.0
946.0
947.0
948.0
946.0
946.0
946.0
946.0
944.0
945.0
945.0
944.0
947.0
948.0
948.0
943.0
941.0
925.0
915.0
914.0
924.0
936.0
954.0
990.0
1055.0
1130.0
1205.0
1274.0
1334.0
1373.0
1385.0
1362.0
1288.0
1175.0
1059.0
975.0
932.0
922.0
924.0
939.0
957.0
966.0
969.0
962.0
958.0
955.0
954.0
951.0
950.0
950.0
949.0
946.0
942.0
936.0
940.0
942.0
943.0
941.0
938.0
938.0
940.0
941.0
944.0
940.0
938.0
938.0
939.0
941.0
940.0
939.0
939.0
941.0
941.0
942.0
942.0
942.0
943.0
942.0
943.0
946.0
946.0
948.0
946.0
945.0
948.0
951.0
954.0
955.0
957.0
955.0
957.0
960.0
962.0
963.0
964.0
964.0
969.0
973.0
976.0
978.0
979.0
980.0
985.0
989.0
994.0
997.0
999.0
1003.0
1006.0
1010.0
1016.0
1017.0
1018.0
1019.0
1025.0
1030.0
1031.0
1034.0
1034.0
1033.0
1036.0
1042.0
1046.0
1046.0
1049.0
1046.0
1048.0
1048.0
1048.0
1042.0
1043.0
1040.0
1039.0
1039.0
1037.0
1032.0
1029.0
1023.0
1019.0
1016.0
1012.0
1008.0
1002.0
997.0
993.0
992.0
992.0
988.0
985.0
979.0
979.0
980.0
981.0
979.0
975.0
973.0
975.0
975.0
974.0
974.0
972.0
969.0
972.0
971.0
973.0
974.0
971.0
972.0
971.0
973.0
970.0
970.0
973.0
973.0
974.0
976.0
975.0
974.0
971.0
973.0
975.0
976.0
979.0
