# Simple Text Format
# Sampling Rate (Hz):= 360.00
# Resolution:= 12
# Labels:= ECG
949.0
949.0
949.0
949.0
949.0
949.0
949.0
949.0
947.0
947.0
947.0
948.0
952.0
952.0
950.0
951.0
950.0
952.0
953.0
955.0
956.0
955.0
955.0
958.0
959.0
962.0
963.0
962.0
962.0
964.0
968.0
974.0
974.0
975.0
977.0
980.0
985.0
991.0
992.0
992.0
997.0
1000.0
1006.0
1012.0
1015.0
1017.0
1021.0
1024.0
1030.0
1036.0
1038.0
1039.0
1039.0
1044.0
1046.0
1051.0
1050.0
1053.0
1051.0
1056.0
1057.0
1059.0
1061.0
1059.0
1057.0
1058.0
1056.0
1054.0
1052.0
1048.0
1041.0
1040.0
1038.0
1035.0
1028.0
1023.0
1014.0
1011.0
1007.0
1005.0
999.0
995.0
991.0
989.0
987.0
983.0
981.0
980.0
978.0
975.0
976.0
975.0
975.0
971.0
971.0
971.0
972.0
973.0
970.0
971.0
969.0
971.0
969.0
971.0
970.0
971.0
968.0
967.0
969.0
972.0
974.0
971.0
970.0
971.0
976.0
975.0
974.0
974.0
973.0
976.0
978.0
979.0
978.0
976.0
976.0
976.0
980.0
980.0
980.0
979.0
976.0
977.0
981.0
980.0
978.0
978.0
977.0
977.0
980.0
981.0
978.0
976.0
974.0
975.0
976.0
976.0
977.0
974.0
973.0
973.0
974.0
975.0
973.0
970.0
970.0
971.0
972.0
973.0
970.0
968.0
966.0
967.0
967.0
966.0
966.0
966.0
964.0
965.0
964.0
964.0
963.0
964.0
960.0
961.0
961.0
964.0
962.0
962.0
959.0
959.0
960.0
960.0
962.0
959.0
959.0
960.0
961.0
965.0
969.0
968.0
968.0
971.0
973.0
975.0
976.0
977.0
975.0
976.0
977.0
981.0
981.0
981.0
978.0
980.0
982.0
983.0
981.0
981.0
975.0
973.0
974.0
972.0
970.0
970.0
970.0
973.0
974.0
973.0
972.0
965.0
961.0
960.0
959.0
958.0
956.0
953.0
948.0
947.0
948.0
948.0
945.0
942.0
943.0
942.0
943.0
944.0
946.0
943.0
940.0
942.0
944.0
944.0
945.0
943.0
942.0
943.0
944.0
943.0
943.0
940.0
935.0
929.0
916.0
908.0
906.0
914.0
927.0
946.0
982.0
1042.0
1118.0
1194.0
1262.0
1326.0
1374.0
1394.0
1384.0
1341.0
1252.0
1148.0
1050.0
977.0
936.0
920.0
919.0
927.0
943.0
958.0
965.0
960.0
952.0
949.0
949.0
948.0
948.0
945.0
940.0
938.0
937.0
938.0
937.0
934.0
931.0
932.0
934.0
935.0
932.0
931.0
927.0
930.0
933.0
931.0
932.0
930.0
929.0
931.0
929.0
929.0
930.0
931.0
927.0
930.0
932.0
933.0
936.0
932.0
930.0
934.0
938.0
937.0
937.0
937.0
936.0
939.0
942.0
945.0
946.0
944.0
944.0
946.0
950.0
955.0
956.0
956.0
955.0
960.0
966.0
969.0
972.0
973.0
976.0
982.0
987.0
992.0
997.0
998.0
999.0
1004.0
1010.0
1016.0
1016.0
1019.0
1023.0
1027.0
1031.0
1036.0
1035.0
1036.0
1038.0
1041.0
1045.0
1047.0
1046.0
1046.0
1043.0
1044.0
1043.0
1042.0
1041.0
1035.0
1033.0
1030.0
1027.0
1022.0
1018.0
1011.0
1006.0
1001.0
998.0
994.0
988.0
981.0
976.0
974.0
972.0
970.0
969.0
963.0
961.0
959.0
961.0
962.0
962.0
954.0
955.0
954.0
958.0
959.0
958.0
955.0
954.0
955.0
954.0
956.0
955.0
954.0
953.0
954.0
958.0
958.0
958.0
958.0
957.0
959.0
960.0
961.0
961.0
960.0
958.0
961.0
962.0
964.0
964.0
962.0
960.0
962.0
963.0
965.0
965.0
965.0
961.0
962.0
965.0
965.0
964.0
962.0
963.0
962.0
963.0
965.0
964.0
961.0
959.0
958.0
961.0
962.0
961.0
959.0
957.0
958.0
959.0
960.0
957.0
958.0
956.0
954.0
955.0
956.0
956.0
954.0
953.0
954.0
955.0
955.0
955.0
954.0
949.0
951.0
952.0
950.0
951.0
951.0
948.0
947.0
949.0
950.0
949.0
947.0
944.0
948.0
947.0
949.0
950.0
946.0
944.0
945.0
949.0
948.0
947.0
947.0
945.0
944.0
945.0
947.0
948.0
947.0
947.0
949.0
952.0
953.0
957.0
957.0
961.0
962.0
962.0
962.0
961.0
963.0
962.0
967.0
970.0
971.0
972.0
970.0
969.0
971.0
974.0
974.0
971.0
969.0
965.0
961.0
962.0
961.0
961.0
962.0
960.0
962.0
964.0
960.0
956.0
953.0
949.0
948.0
948.0
946.0
943.0
943.0
940.0
938.0
939.0
938.0
937.0
934.0
934.0
934.0
934.0
937.0
936.0
936.0
932.0
933.0
934.0
934.0
936.0
934.0
933.0
934.0
937.0
937.0
935.0
932.0
922.0
910.0
900.0
897.0
906.0
917.0
933.0
969.0
1033.0
1113.0
1199.0
1270.0
1331.0
1374.0
1392.0
1370.0
1297.0
1182.0
1063.0
972.0
927.0
914.0
916.0
923.0
940.0
953.0
956.0
949.0
945.0
941.0
941.0
941.0
943.0
938.0
933.0
929.0
925.0
925.0
927.0
927.0
927.0
922.0
921.0
920.0
924.0
925.0
924.0
926.0
922.0
924.0
925.0
927.0
925.0
925.0
922.0
924.0
926.0
928.0
926.0
929.0
925.0
930.0
930.0
930.0
932.0
931.0
933.0
935.0
937.0
942.0
943.0
942.0
942.0
944.0
948.0
953.0
956.0
958.0
958.0
965.0
969.0
971.0
975.0
978.0
981.0
986.0
991.0
998.0
1004.0
1004.0
1007.0
1011.0
1014.0
1020.0
1022.0
1023.0
1023.0
1029.0
1030.0
1038.0
1038.0
1036.0
1035.0
1038.0
1039.0
1039.0
1036.0
1033.0
1027.0
1027.0
1026.0
1023.0
1021.0
1009.0
1005.0
1001.0
999.0
996.0
991.0
983.0
978.0
974.0
972.0
970.0
968.0
963.0
960.0
959.0
960.0
957.0
958.0
953.0
952.0
953.0
955.0
955.0
954.0
954.0
953.0
955.0
956.0
955.0
955.0
954.0
953.0
954.0
956.0
958.0
957.0
957.0
955.0
956.0
957.0
959.0
958.0
956.0
956.0
959.0
958.0
960.0
961.0
959.0
957.0
957.0
959.0
962.0
962.0
960.0
957.0
960.0
960.0
961.0
962.0
957.0
959.0
957.0
961.0
958.0
960.0
957.0
957.0
958.0
959.0
961.0
961.0
960.0
955.0
957.0
958.0
957.0
957.0
955.0
954.0
954.0
953.0
954.0
953.0
951.0
949.0
951.0
950.0
952.0
951.0
947.0
947.0
948.0
950.0
949.0
949.0
947.0
945.0
946.0
947.0
945.0
945.0
943.0
942.0
942.0
943.0
944.0
944.0
942.0
942.0
942.0
943.0
943.0
943.0
944.0
944.0
944.0
947.0
947.0
948.0
943.0
943.0
945.0
945.0
947.0
951.0
950.0
954.0
957.0
958.0
960.0
961.0
958.0
957.0
960.0
962.0
966.0
966.0
963.0
961.0
964.0
968.0
966.0
966.0
964.0
960.0
959.0
955.0
955.0
956.0
954.0
955.0
956.0
960.0
959.0
956.0
951.0
947.0
946.0
948.0
947.0
945.0
941.0
938.0
938.0
935.0
935.0
933.0
933.0
933.0
935.0
937.0
937.0
934.0
931.0
930.0
932.0
934.0
935.0
936.0
935.0
933.0
933.0
934.0
935.0
934.0
933.0
929.0
921.0
910.0
904.0
907.0
917.0
930.0
952.0
990.0
1058.0
1131.0
1204.0
1267.0
1325.0
1361.0
1364.0
1325.0
1236.0
1122.0
1019.0
951.0
919.0
909.0
910.0
928.0
948.0
957.0
955.0
945.0
942.0
938.0
941.0
940.0
939.0
936.0
930.0
929.0
928.0
929.0
929.0
928.0
927.0
925.0
927.0
927.0
926.0
928.0
926.0
927.0
928.0
930.0
929.0
927.0
926.0
926.0
926.0
929.0
928.0
930.0
928.0
926.0
927.0
933.0
934.0
934.0
933.0
929.0
935.0
937.0
939.0
939.0
937.0
938.0
942.0
944.0
948.0
949.0
951.0
953.0
957.0
961.0
965.0
966.0
970.0
972.0
976.0
981.0
983.0
988.0
990.0
992.0
998.0
1003.0
1006.0
1010.0
1012.0
1013.0
1015.0
1019.0
1025.0
1026.0
1026.0
1027.0
1031.0
1032.0
1035.0
1036.0
1031.0
1030.0
1033.0
1031.0
1032.0
1030.0
1025.0
1022.0
1018.0
1016.0
1013.0
1005.0
1003.0
997.0
993.0
990.0
989.0
984.0
979.0
972.0
971.0
970.0
971.0
967.0
964.0
962.0
961.0
963.0
964.0
961.0
957.0
955.0
959.0
958.0
959.0
958.0
955.0
957.0
957.0
958.0
957.0
957.0
954.0
956.0
957.0
958.0
957.0
959.0
958.0
960.0
960.0
961.0
960.0
961.0
962.0
963.0
964.0
965.0
963.0
962.0
965.0
965.0
964.0
966.0
967.0
967.0
965.0
966.0
967.0
968.0
968.0
967.0
965.0
967.0
967.0
966.0
968.0
967.0
966.0
965.0
969.0
967.0
965.0
965.0
964.0
964.0
965.0
965.0
963.0
960.0
960.0
960.0
962.0
962.0
960.0
959.0
956.0
958.0
958.0
957.0
955.0
954.0
953.0
953.0
955.0
955.0
954.0
953.0
949.0
951.0
952.0
953.0
952.0
951.0
949.0
950.0
952.0
952.0
950.0
949.0
948.0
948.0
950.0
951.0
951.0
949.0
948.0
948.0
950.0
953.0
953.0
949.0
948.0
950.0
950.0
953.0
953.0
956.0
955.0
958.0
964.0
965.0
966.0
964.0
964.0
966.0
967.0
970.0
973.0
972.0
970.0
969.0
974.0
977.0
977.0
974.0
971.0
968.0
968.0
966.0
962.0
961.0
961.0
964.0
967.0
968.0
963.0
961.0
956.0
954.0
955.0
953.0
948.0
945.0
944.0
947.0
945.0
944.0
943.0
940.0
937.0
941.0
940.0
939.0
939.0
938.0
938.0
938.0
938.0
941.0
939.0
937.0
937.0
939.0
940.0
939.0
940.0
937.0
931.0
923.0
913.0
907.0
913.0
925.0
942.0
978.0
1039.0
1121.0
1204.0
1278.0
1337.0
1378.0
1388.0
1355.0
1273.0
1156.0
1041.0
957.0
916.0
912.0
921.0
939.0
954.0
959.0
958.0
951.0
946.0
944.0
945.0
942.0
940.0
937.0
936.0
934.0
933.0
932.0
933.0
934.0
932.0
928.0
928.0
931.0
931.0
932.0
931.0
931.0
930.0
931.0
930.0
930.0
930.0
930.0
928.0
930.0
934.0
934.0
933.0
933.0
933.0
932.0
935.0
938.0
937.0
939.0
938.0
939.0
943.0
944.0
947.0
947.0
949.0
949.0
951.0
956.0
957.0
959.0
961.0
966.0
971.0
975.0
980.0
981.0
982.0
987.0
993.0
998.0
1002.0
1006.0
1006.0
1012.0
1019.0
1022.0
1023.0
1027.0
1026.0
1033.0
1039.0
1040.0
1044.0
1041.0
1043.0
1046.0
1049.0
1048.0
1051.0
1048.0
1043.0
1043.0
1045.0
1044.0
1041.0
1035.0
1027.0
1026.0
1023.0
1020.0
1013.0
1009.0
1001.0
999.0
996.0
993.0
988.0
982.0
977.0
977.0
974.0
974.0
970.0
968.0
966.0
961.0
964.0
963.0
963.0
961.0
958.0
958.0
960.0
959.0
961.0
957.0
955.0
958.0
960.0
961.0
959.0
958.0
956.0
960.0
961.0
963.0
962.0
961.0
960.0
964.0
965.0
966.0
964.0
962.0
962.0
964.0
966.0
966.0
967.0
966.0
965.0
967.0
970.0
969.0
969.0
968.0
966.0
966.0
968.0
968.0
970.0
968.0
965.0
966.0
970.0
967.0
967.0
966.0
964.0
967.0
966.0
965.0
963.0
963.0
961.0
964.0
964.0
964.0
962.0
961.0
957.0
960.0
962.0
961.0
959.0
959.0
956.0
957.0
957.0
958.0
956.0
955.0
954.0
955.0
957.0
957.0
955.0
949.0
950.0
952.0
955.0
954.0
953.0
951.0
948.0
950.0
951.0
952.0
950.0
950.0
949.0
950.0
950.0
951.0
950.0
948.0
948.0
949.0
951.0
952.0
951.0
953.0
953.0
953.0
957.0
962.0
962.0
964.0
965.0
965.0
968.0
969.0
970.0
970.0
971.0
972.0
973.0
973.0
975.0
976.0
973.0
975.0
974.0
972.0
969.0
966.0
962.0
960.0
963.0
966.0
967.0
966.0
963.0
962.0
959.0
957.0
957.0
952.0
948.0
947.0
948.0
946.0
943.0
940.0
938.0
939.0
940.0
938.0
939.0
936.0
937.0
939.0
938.0
939.0
939.0
938.0
936.0
935.0
940.0
941.0
939.0
939.0
935.0
934.0
928.0
918.0
908.0
906.0
911.0
928.0
952.0
994.0
1060.0
1142.0
1221.0
1298.0
1357.0
1388.0
1389.0
1355.0
1267.0
1152.0
1042.0
968.0
928.0
918.0
923.0
939.0
955.0
965.0
961.0
950.0
944.0
946.0
947.0
947.0
942.0
938.0
935.0
935.0
937.0
937.0
933.0
931.0
930.0
931.0
933.0
933.0
933.0
931.0
928.0
929.0
931.0
931.0
931.0
932.0
929.0
930.0
931.0
934.0
934.0
932.0
930.0
933.0
935.0
936.0
937.0
937.0
936.0
935.0
938.0
942.0
942.0
942.0
943.0
944.0
948.0
951.0
952.0
953.0
955.0
958.0
963.0
964.0
967.0
970.0
972.0
978.0
980.0
984.0
987.0
992.0
994.0
1000.0
1005.0
1009.0
1014.0
1017.0
1017.0
1023.0
1029.0
1031.0
1034.0
1033.0
1036.0
1038.0
1042.0
1045.0
1047.0
1048.0
1046.0
1048.0
1048.0
1050.0
1050.0
1045.0
1041.0
1042.0
1040.0
1036.0
1031.0
1023.0
1019.0
1019.0
1015.0
1011.0
1003.0
995.0
991.0
988.0
985.0
980.0
976.0
974.0
970.0
968.0
968.0
969.0
967.0
963.0
960.0
960.0
962.0
961.0
962.0
959.0
954.0
954.0
958.0
959.0
959.0
956.0
955.0
958.0
958.0
958.0
960.0
956.0
956.0
959.0
963.0
961.0
963.0
962.0
961.0
963.0
964.0
965.0
964.0
964.0
962.0
964.0
966.0
969.0
967.0
965.0
964.0
965.0
970.0
969.0
969.0
965.0
965.0
966.0
969.0
967.0
970.0
966.0
966.0
967.0
969.0
970.0
967.0
966.0
963.0
965.0
965.0
966.0
966.0
963.0
962.0
962.0
964.0
961.0
962.0
960.0
958.0
960.0
958.0
962.0
959.0
957.0
955.0
957.0
956.0
958.0
956.0
954.0
953.0
953.0
957.0
957.0
955.0
954.0
951.0
951.0
951.0
955.0
952.0
952.0
951.0
950.0
951.0
954.0
954.0
950.0
950.0
952.0
955.0
954.0
952.0
950.0
949.0
952.0
952.0
954.0
955.0
953.0
954.0
958.0
961.0
966.0
966.0
965.0
965.0
966.0
970.0
972.0
973.0
971.0
970.0
973.0
975.0
975.0
974.0
975.0
974.0
976.0
976.0
974.0
970.0
969.0
965.0
962.0
964.0
968.0
968.0
968.0
968.0
966.0
964.0
962.0
959.0
954.0
954.0
951.0
951.0
950.0
948.0
948.0
944.0
943.0
941.0
941.0
940.0
939.0
935.0
936.0
940.0
939.0
939.0
938.0
938.0
940.0
942.0
941.0
937.0
941.0
940.0
941.0
941.0
942.0
942.0
940.0
934.0
930.0
918.0
908.0
905.0
912.0
921.0
938.0
967.0
1013.0
1078.0
1144.0
1211.0
1277.0
1339.0
1381.0
1399.0
1384.0
1335.0
1242.0
1134.0
1040.0
970.0
936.0
922.0
922.0
927.0
942.0
955.0
962.0
959.0
955.0
953.0
949.0
949.0
945.0
942.0
945.0
944.0
940.0
937.0
935.0
933.0
932.0
935.0
932.0
934.0
931.0
930.0
932.0
936.0
934.0
932.0
932.0
927.0
931.0
931.0
933.0
932.0
930.0
930.0
933.0
932.0
933.0
935.0
934.0
931.0
935.0
937.0
940.0
938.0
938.0
935.0
937.0
941.0
942.0
942.0
941.0
943.0
942.0
946.0
948.0
951.0
951.0
952.0
952.0
959.0
961.0
965.0
966.0
966.0
969.0
974.0
979.0
983.0
983.0
987.0
990.0
996.0
999.0
1000.0
1004.0
1005.0
1009.0
1016.0
1020.0
1023.0
1023.0
1023.0
1028.0
1033.0
1038.0
1040.0
1039.0
1041.0
1045.0
1048.0
1050.0
1049.0
1047.0
1047.0
1049.0
1049.0
1051.0
1047.0
1043.0
1040.0
1038.0
1037.0
1033.0
1027.0
1024.0
1015.0
1016.0
1010.0
1008.0
1004.0
996.0
992.0
987.0
987.0
985.0
982.0
979.0
973.0
975.0
972.0
971.0
969.0
967.0
963.0
966.0
965.0
967.0
963.0
959.0
959.0
958.0
962.0
961.0
962.0
959.0
959.0
959.0
960.0
959.0
959.0
960.0
960.0
962.0
964.0
965.0
961.0
964.0
962.0
962.0
964.0
966.0
966.0
966.0
963.0
967.0
968.0
969.0
969.0
969.0
968.0
967.0
970.0
970.0
970.0
969.0
968.0
970.0
970.0
970.0
970.0
970.0
968.0
969.0
971.0
971.0
970.0
968.0
967.0
968.0
967.0
967.0
968.0
966.0
964.0
965.0
968.0
968.0
969.0
964.0
962.0
964.0
965.0
964.0
964.0
962.0
960.0
960.0
962.0
963.0
960.0
961.0
956.0
958.0
960.0
959.0
958.0
958.0
956.0
957.0
956.0
958.0
956.0
956.0
951.0
954.0
953.0
955.0
953.0
951.0
952.0
951.0
952.0
953.0
953.0
952.0
949.0
951.0
950.0
952.0
953.0
950.0
949.0
952.0
952.0
954.0
954.0
950.0
949.0
951.0
952.0
952.0
952.0
952.0
951.0
954.0
959.0
961.0
963.0
964.0
963.0
965.0
967.0
969.0
967.0
969.0
969.0
973.0
976.0
975.0
976.0
974.0
975.0
977.0
977.0
975.0
973.0
967.0
962.0
961.0
962.0
966.0
966.0
966.0
963.0
962.0
960.0
958.0
954.0
953.0
950.0
951.0
950.0
947.0
945.0
943.0
942.0
942.0
944.0
944.0
942.0
938.0
936.0
939.0
938.0
939.0
941.0
939.0
940.0
941.0
944.0
943.0
942.0
941.0
941.0
943.0
944.0
942.0
940.0
929.0
918.0
912.0
912.0
923.0
936.0
961.0
1003.0
1068.0
1138.0
1206.0
1275.0
1331.0
1364.0
1378.0
1358.0
1291.0
1193.0
1094.0
1014.0
958.0
929.0
919.0
920.0
933.0
951.0
961.0
965.0
955.0
949.0
946.0
945.0
949.0
948.0
944.0
939.0
938.0
935.0
937.0
938.0
938.0
939.0
935.0
935.0
933.0
935.0
938.0
938.0
934.0
932.0
935.0
935.0
937.0
936.0
935.0
933.0
934.0
937.0
939.0
937.0
935.0
934.0
936.0
939.0
940.0
939.0
939.0
938.0
941.0
943.0
944.0
945.0
944.0
944.0
948.0
950.0
950.0
951.0
952.0
951.0
956.0
959.0
962.0
963.0
964.0
967.0
971.0
975.0
979.0
981.0
980.0
985.0
991.0
995.0
1000.0
1002.0
1002.0
1006.0
1011.0
1016.0
1020.0
1022.0
1025.0
1027.0
1032.0
1033.0
1038.0
1038.0
1037.0
1039.0
1039.0
1044.0
1047.0
1048.0
1045.0
1042.0
1044.0
1045.0
1043.0
1039.0
1036.0
1029.0
1026.0
1027.0
1023.0
1015.0
1008.0
1004.0
1001.0
1002.0
997.0
991.0
986.0
985.0
984.0
982.0
980.0
979.0
973.0
972.0
971.0
971.0
970.0
969.0
968.0
967.0
966.0
967.0
967.0
966.0
964.0
962.0
963.0
965.0
966.0
966.0
965.0
964.0
964.0
967.0
967.0
966.0
964.0
966.0
965.0
968.0
968.0
968.0
969.0
967.0
969.0
971.0
971.0
972.0
972.0
970.0
972.0
973.0
975.0
975.0
975.0
975.0
974.0
977.0
975.0
977.0
972.0
972.0
972.0
978.0
976.0
978.0
975.0
976.0
975.0
974.0
976.0
976.0
973.0
972.0
973.0
976.0
975.0
973.0
973.0
969.0
972.0
972.0
972.0
971.0
971.0
968.0
969.0
972.0
969.0
969.0
967.0
965.0
964.0
966.0
965.0
965.0
965.0
960.0
961.0
964.0
963.0
959.0
959.0
958.0
960.0
960.0
961.0
960.0
958.0
955.0
957.0
958.0
959.0
957.0
956.0
956.0
958.0
958.0
960.0
958.0
958.0
956.0
957.0
958.0
959.0
958.0
957.0
955.0
958.0
959.0
962.0
964.0
968.0
971.0
970.0
970.0
974.0
976.0
974.0
974.0
975.0
983.0
982.0
980.0
978.0
979.0
982.0
981.0
982.0
977.0
975.0
970.0
973.0
970.0
973.0
974.0
972.0
972.0
972.0
972.0
969.0
964.0
961.0
959.0
958.0
956.0
958.0
955.0
951.0
948.0
949.0
949.0
947.0
947.0
946.0
946.0
945.0
947.0
946.0
946.0
945.0
944.0
945.0
947.0
948.0
947.0
944.0
944.0
945.0
947.0
944.0
935.0
920.0
910.0
916.0
929.0
948.0
975.0
1023.0
1098.0
1182.0
1262.0
1327.0
1371.0
1389.0
1372.0
1308.0
1206.0
1093.0
1000.0
945.0
922.0
926.0
940.0
959.0
968.0
970.0
960.0
954.0
954.0
954.0
957.0
951.0
945.0
944.0
944.0
945.0
942.0
941.0
940.0
938.0
940.0
941.0
941.0
939.0
939.0
939.0
940.0
943.0
942.0
940.0
939.0
939.0
942.0
943.0
942.0
942.0
940.0
942.0
942.0
947.0
946.0
944.0
941.0
945.0
947.0
949.0
950.0
950.0
951.0
952.0
955.0
958.0
960.0
961.0
960.0
966.0
969.0
972.0
973.0
975.0
973.0
980.0
985.0
992.0
993.0
995.0
995.0
1002.0
1009.0
1012.0
1016.0
1018.0
1022.0
1026.0
1032.0
1035.0
1035.0
1037.0
1039.0
1042.0
1044.0
1046.0
1050.0
1050.0
1050.0
1051.0
1055.0
1054.0
1054.0
1051.0
1048.0
1047.0
1048.0
1046.0
1041.0
1035.0
1030.0
1029.0
1024.0
1020.0
1014.0
1008.0
1001.0
998.0
995.0
995.0
989.0
983.0
978.0
977.0
977.0
975.0
973.0
970.0
967.0
968.0
968.0
967.0
966.0
963.0
963.0
964.0
966.0
965.0
964.0
964.0
961.0
962.0
966.0
964.0
962.0
962.0
961.0
962.0
966.0
967.0
966.0
965.0
965.0
966.0
969.0
972.0
968.0
970.0
969.0
971.0
971.0
973.0
972.0
969.0
969.0
970.0
973.0
974.0
973.0
971.0
971.0
971.0
972.0
974.0
972.0
971.0
971.0
971.0
973.0
974.0
973.0
971.0
969.0
972.0
971.0
972.0
971.0
966.0
962.0
966.0
968.0
968.0
966.0
963.0
961.0
964.0
965.0
964.0
964.0
962.0
961.0
961.0
961.0
962.0
960.0
958.0
958.0
957.0
959.0
959.0
958.0
956.0
953.0
956.0
957.0
956.0
957.0
954.0
955.0
956.0
954.0
955.0
956.0
955.0
951.0
953.0
955.0
957.0
957.0
954.0
954.0
955.0
960.0
963.0
964.0
968.0
966.0
970.0
972.0
973.0
973.0
974.0
972.0
974.0
977.0
980.0
976.0
978.0
979.0
979.0
980.0
979.0
975.0
973.0
969.0
969.0
970.0
970.0
972.0
971.0
970.0
966.0
965.0
963.0
958.0
956.0
952.0
953.0
952.0
951.0
949.0
947.0
943.0
944.0
945.0
947.0
943.0
942.0
941.0
942.0
943.0
943.0
943.0
942.0
943.0
944.0
946.0
950.0
945.0
943.0
943.0
941.0
942.0
940.0
933.0
919.0
904.0
908.0
919.0
934.0
954.0
989.0
1047.0
1126.0
1205.0
1275.0
1336.0
1381.0
1395.0
1375.0
1304.0
1199.0
1084.0
993.0
946.0
928.0
927.0
933.0
943.0
958.0
968.0
965.0
960.0
956.0
954.0
949.0
949.0
950.0
947.0
946.0
943.0
939.0
935.0
938.0
936.0
936.0
935.0
936.0
934.0
936.0
938.0
937.0
937.0
936.0
933.0
936.0
938.0
939.0
937.0
938.0
937.0
938.0
941.0
942.0
943.0
942.0
938.0
940.0
942.0
946.0
945.0
947.0
947.0
949.0
949.0
953.0
952.0
953.0
952.0
955.0
958.0
961.0
962.0
963.0
966.0
969.0
974.0
977.0
980.0
981.0
984.0
990.0
996.0
998.0
1002.0
1005.0
1009.0
1012.0
1018.0
1022.0
1024.0
1027.0
1029.0
1034.0
1036.0
1043.0
1044.0
1045.0
1047.0
1051.0
1054.0
1054.0
1057.0
1057.0
1056.0
1057.0
1058.0
1056.0
1057.0
1054.0
1048.0
1049.0
1046.0
1044.0
1038.0
1032.0
1027.0
1024.0
1020.0
1016.0
1010.0
1004.0
998.0
995.0
993.0
992.0
988.0
983.0
978.0
980.0
978.0
975.0
973.0
972.0
971.0
972.0
971.0
970.0
969.0
968.0
968.0
969.0
970.0
970.0
967.0
969.0
968.0
969.0
969.0
970.0
969.0
967.0
968.0
971.0
975.0
975.0
975.0
975.0
973.0
973.0
974.0
978.0
976.0
978.0
974.0
978.0
978.0
981.0
980.0
979.0
974.0
978.0
982.0
983.0
980.0
980.0
978.0
979.0
985.0
985.0
983.0
980.0
977.0
979.0
980.0
978.0
977.0
976.0
975.0
975.0
977.0
977.0
976.0
971.0
973.0
971.0
973.0
974.0
970.0
967.0
969.0
967.0
971.0
969.0
965.0
964.0
962.0
967.0
967.0
967.0
966.0
964.0
961.0
963.0
963.0
966.0
963.0
963.0
960.0
960.0
961.0
964.0
962.0
961.0
959.0
961.0
963.0
963.0
964.0
963.0
963.0
964.0
968.0
969.0
974.0
976.0
974.0
974.0
978.0
978.0
978.0
980.0
981.0
983.0
985.0
984.0
984.0
984.0
985.0
986.0
986.0
983.0
981.0
975.0
972.0
973.0
976.0
976.0
977.0
977.0
973.0
972.0
970.0
970.0
966.0
962.0
962.0
960.0
960.0
960.0
958.0
955.0
954.0
950.0
955.0
954.0
953.0
953.0
951.0
950.0
954.0
953.0
951.0
951.0
948.0
952.0
955.0
953.0
950.0
953.0
950.0
951.0
951.0
946.0
932.0
919.0
913.0
921.0
935.0
953.0
981.0
1034.0
1104.0
1186.0
1258.0
1322.0
1370.0
1392.0
1386.0
1334.0
1238.0
1126.0
1028.0
965.0
937.0
932.0
934.0
943.0
961.0
977.0
975.0
970.0
965.0
965.0
964.0
961.0
958.0
957.0
957.0
955.0
950.0
951.0
949.0
948.0
949.0
949.0
949.0
947.0
943.0
946.0
947.0
949.0
947.0
947.0
944.0
948.0
948.0
949.0
948.0
948.0
948.0
951.0
951.0
955.0
952.0
952.0
951.0
950.0
955.0
956.0
954.0
956.0
953.0
957.0
959.0
963.0
962.0
961.0
962.0
966.0
970.0
972.0
972.0
971.0
974.0
980.0
982.0
986.0
988.0
989.0
989.0
995.0
999.0
1003.0
1009.0
1013.0
1014.0
1016.0
1022.0
1028.0
1030.0
1031.0
1033.0
1036.0
1041.0
1044.0
1047.0
1047.0
1048.0
1053.0
1054.0
1055.0
1057.0
1059.0
1057.0
1061.0
1060.0
1060.0
1060.0
1057.0
1054.0
1051.0
1050.0
1045.0
1040.0
1036.0
1028.0
1027.0
1023.0
1018.0
1014.0
1012.0
1004.0
1003.0
998.0
997.0
994.0
990.0
987.0
986.0
986.0
986.0
984.0
981.0
980.0
981.0
979.0
982.0
981.0
979.0
977.0
979.0
979.0
979.0
975.0
977.0
977.0
978.0
981.0
982.0
981.0
979.0
980.0
982.0
984.0
984.0
984.0
983.0
979.0
985.0
984.0
986.0
985.0
983.0
984.0
982.0
985.0
985.0
987.0
985.0
986.0
985.0
988.0
990.0
988.0
986.0
985.0
984.0
986.0
987.0
986.0
984.0
981.0
981.0
984.0
987.0
983.0
982.0
980.0
979.0
982.0
984.0
983.0
978.0
978.0
978.0
976.0
976.0
976.0
972.0
970.0
972.0
974.0
974.0
974.0
971.0
969.0
970.0
971.0
972.0
969.0
965.0
965.0
966.0
966.0
968.0
967.0
965.0
964.0
966.0
967.0
965.0
966.0
963.0
962.0
964.0
965.0
966.0
965.0
965.0
964.0
965.0
966.0
969.0
968.0
970.0
972.0
976.0
980.0
979.0
979.0
980.0
981.0
983.0
986.0
987.0
989.0
988.0
985.0
987.0
988.0
990.0
992.0
987.0
984.0
982.0
980.0
978.0
978.0
977.0
979.0
981.0
984.0
983.0
979.0
975.0
970.0
969.0
967.0
968.0
964.0
961.0
958.0
958.0
959.0
956.0
953.0
952.0
951.0
952.0
954.0
955.0
953.0
952.0
951.0
952.0
954.0
953.0
955.0
949.0
950.0
952.0
954.0
954.0
954.0
949.0
942.0
934.0
924.0
921.0
930.0
943.0
962.0
1001.0
1059.0
1131.0
1203.0
1267.0
1322.0
1365.0
1383.0
1375.0
1329.0
1245.0
1142.0
1048.0
981.0
942.0
924.0
923.0
934.0
956.0
974.0
977.0
970.0
965.0
959.0
960.0
960.0
960.0
956.0
955.0
949.0
949.0
949.0
950.0
949.0
946.0
944.0
943.0
944.0
946.0
946.0
942.0
942.0
945.0
945.0
946.0
946.0
944.0
940.0
943.0
946.0
946.0
946.0
945.0
943.0
948.0
948.0
951.0
948.0
947.0
945.0
948.0
952.0
952.0
952.0
952.0
953.0
954.0
956.0
958.0
958.0
957.0
958.0
961.0
965.0
968.0
968.0
967.0
969.0
973.0
978.0
980.0
984.0
986.0
987.0
991.0
997.0
1001.0
1005.0
1005.0
1006.0
1011.0
1015.0
1018.0
1021.0
1025.0
1027.0
1031.0
1035.0
1038.0
1042.0
1042.0
1043.0
1046.0
1048.0
1049.0
1050.0
1049.0
1049.0
1050.0
1051.0
1052.0
1048.0
1044.0
1041.0
1038.0
1037.0
1033.0
1027.0
1023.0
1015.0
1012.0
1008.0
1002.0
1000.0
993.0
989.0
988.0
985.0
984.0
981.0
977.0
973.0
975.0
976.0
973.0
973.0
968.0
969.0
968.0
971.0
971.0
971.0
967.0
967.0
966.0
969.0
967.0
966.0
965.0
964.0
966.0
970.0
970.0
971.0
970.0
968.0
973.0
974.0
977.0
974.0
973.0
973.0
976.0
980.0
980.0
978.0
977.0
976.0
977.0
979.0
979.0
979.0
977.0
977.0
977.0
980.0
977.0
979.0
977.0
975.0
976.0
977.0
979.0
976.0
975.0
971.0
974.0
973.0
974.0
973.0
971.0
969.0
970.0
970.0
971.0
969.0
967.0
966.0
965.0
967.0
967.0
966.0
963.0
964.0
962.0
963.0
961.0
963.0
960.0
957.0
960.0
962.0
962.0
961.0
957.0
955.0
957.0
960.0
962.0
958.0
957.0
954.0
956.0
959.0
960.0
956.0
958.0
954.0
957.0
960.0
962.0
962.0
963.0
965.0
969.0
974.0
972.0
973.0
971.0
969.0
971.0
978.0
980.0
979.0
977.0
975.0
980.0
981.0
981.0
981.0
976.0
974.0
972.0
969.0
969.0
966.0
965.0
968.0
971.0
972.0
