# Simple Text Format
# Sampling Rate (Hz):= 360.00
# Resolution:= 12
# Labels:= ECG
966.0
966.0
965.0
965.0
966.0
963.0
964.0
963.0
963.0
963.0
963.0
964.0
962.0
961.0
960.0
960.0
961.0
959.0
962.0
961.0
959.0
959.0
960.0
962.0
961.0
960.0
957.0
958.0
961.0
962.0
965.0
963.0
964.0
965.0
967.0
971.0
974.0
974.0
975.0
975.0
976.0
978.0
980.0
981.0
981.0
983.0
982.0
985.0
984.0
982.0
981.0
981.0
982.0
983.0
981.0
975.0
971.0
970.0
977.0
979.0
979.0
974.0
971.0
970.0
970.0
968.0
966.0
962.0
959.0
958.0
958.0
959.0
957.0
952.0
948.0
949.0
952.0
955.0
956.0
951.0
951.0
952.0
952.0
955.0
954.0
952.0
952.0
952.0
951.0
952.0
952.0
951.0
950.0
949.0
949.0
951.0
948.0
934.0
922.0
923.0
930.0
944.0
957.0
983.0
1026.0
1090.0
1158.0
1219.0
1277.0
1328.0
1359.0
1370.0
1353.0
1289.0
1196.0
1098.0
1016.0
959.0
933.0
923.0
929.0
944.0
965.0
974.0
971.0
962.0
962.0
959.0
957.0
957.0
958.0
956.0
953.0
951.0
949.0
949.0
949.0
950.0
947.0
944.0
944.0
947.0
948.0
948.0
948.0
944.0
941.0
945.0
948.0
947.0
948.0
947.0
943.0
942.0
944.0
946.0
947.0
947.0
948.0
949.0
952.0
953.0
952.0
951.0
951.0
950.0
953.0
956.0
956.0
954.0
955.0
957.0
961.0
965.0
965.0
967.0
965.0
967.0
971.0
974.0
980.0
983.0
982.0
984.0
989.0
996.0
995.0
996.0
999.0
1002.0
1004.0
1009.0
1016.0
1017.0
1020.0
1022.0
1027.0
1028.0
1032.0
1034.0
1030.0
1036.0
1041.0
1045.0
1043.0
1046.0
1047.0
1051.0
1049.0
1051.0
1052.0
1048.0
1045.0
1047.0
1046.0
1044.0
1041.0
1038.0
1033.0
1029.0
1027.0
1025.0
1021.0
1014.0
1011.0
1007.0
1006.0
1002.0
998.0
996.0
990.0
989.0
987.0
987.0
986.0
985.0
980.0
978.0
980.0
979.0
981.0
978.0
976.0
977.0
978.0
980.0
978.0
977.0
977.0
975.0
978.0
980.0
979.0
979.0
977.0
978.0
979.0
980.0
981.0
980.0
978.0
980.0
983.0
982.0
983.0
984.0
980.0
982.0
981.0
985.0
985.0
983.0
982.0
982.0
985.0
986.0
987.0
985.0
984.0
985.0
986.0
988.0
986.0
985.0
983.0
984.0
986.0
989.0
987.0
983.0
982.0
982.0
987.0
987.0
988.0
985.0
983.0
984.0
984.0
985.0
987.0
984.0
981.0
979.0
981.0
982.0
982.0
975.0
975.0
977.0
981.0
981.0
979.0
979.0
976.0
975.0
975.0
977.0
975.0
974.0
972.0
972.0
974.0
974.0
974.0
971.0
970.0
970.0
972.0
975.0
973.0
972.0
969.0
971.0
972.0
970.0
975.0
970.0
968.0
969.0
970.0
971.0
972.0
972.0
969.0
974.0
979.0
984.0
987.0
987.0
983.0
984.0
988.0
990.0
990.0
990.0
990.0
992.0
994.0
993.0
995.0
994.0
991.0
992.0
990.0
991.0
988.0
983.0
982.0
979.0
983.0
986.0
988.0
986.0
981.0
982.0
978.0
978.0
977.0
971.0
965.0
967.0
968.0
966.0
964.0
961.0
963.0
960.0
958.0
957.0
957.0
955.0
956.0
953.0
956.0
957.0
958.0
957.0
955.0
955.0
957.0
957.0
956.0
956.0
956.0
954.0
958.0
958.0
953.0
945.0
932.0
925.0
926.0
936.0
947.0
964.0
994.0
1048.0
1111.0
1176.0
1240.0
1301.0
1350.0
1381.0
1392.0
1375.0
1318.0
1227.0
1120.0
1028.0
964.0
933.0
921.0
922.0
938.0
961.0
977.0
979.0
973.0
965.0
961.0
962.0
963.0
964.0
963.0
958.0
952.0
949.0
951.0
949.0
950.0
948.0
947.0
948.0
950.0
950.0
951.0
948.0
946.0
947.0
950.0
950.0
949.0
945.0
945.0
945.0
948.0
952.0
950.0
948.0
947.0
949.0
951.0
953.0
954.0
951.0
950.0
952.0
956.0
958.0
957.0
956.0
956.0
957.0
961.0
963.0
963.0
961.0
961.0
966.0
969.0
974.0
974.0
976.0
978.0
979.0
985.0
988.0
990.0
992.0
996.0
1001.0
1006.0
1012.0
1013.0
1015.0
1018.0
1024.0
1027.0
1031.0
1035.0
1034.0
1037.0
1041.0
1045.0
1050.0
1051.0
1051.0
1053.0
1055.0
1059.0
1062.0
1062.0
1060.0
1058.0
1059.0
1058.0
1056.0
1054.0
1049.0
1046.0
1044.0
1039.0
1038.0
1030.0
1024.0
1019.0
1015.0
1012.0
1007.0
1003.0
999.0
993.0
990.0
990.0
987.0
984.0
982.0
981.0
980.0
980.0
980.0
980.0
977.0
975.0
976.0
976.0
976.0
976.0
974.0
972.0
975.0
976.0
977.0
977.0
975.0
975.0
976.0
978.0
979.0
980.0
980.0
978.0
978.0
981.0
983.0
982.0
981.0
981.0
979.0
981.0
982.0
982.0
982.0
980.0
982.0
985.0
984.0
984.0
984.0
982.0
983.0
985.0
985.0
985.0
984.0
984.0
980.0
983.0
984.0
984.0
983.0
978.0
980.0
983.0
982.0
982.0
979.0
978.0
977.0
976.0
979.0
979.0
976.0
975.0
973.0
973.0
975.0
976.0
974.0
969.0
973.0
973.0
975.0
972.0
971.0
967.0
969.0
971.0
972.0
973.0
970.0
968.0
968.0
971.0
971.0
972.0
968.0
965.0
968.0
970.0
972.0
970.0
967.0
967.0
968.0
972.0
975.0
975.0
977.0
978.0
979.0
982.0
985.0
983.0
983.0
984.0
988.0
989.0
992.0
989.0
990.0
989.0
991.0
992.0
991.0
989.0
985.0
983.0
981.0
980.0
982.0
983.0
983.0
983.0
983.0
980.0
980.0
975.0
972.0
967.0
967.0
964.0
964.0
963.0
961.0
958.0
957.0
958.0
958.0
957.0
955.0
955.0
955.0
956.0
958.0
956.0
956.0
955.0
957.0
956.0
958.0
961.0
954.0
954.0
954.0
954.0
949.0
936.0
922.0
917.0
926.0
941.0
961.0
999.0
1058.0
1132.0
1212.0
1283.0
1346.0
1391.0
1408.0
1384.0
1315.0
1204.0
1089.0
994.0
942.0
928.0
930.0
940.0
960.0
975.0
979.0
975.0
968.0
965.0
966.0
963.0
965.0
959.0
955.0
956.0
951.0
950.0
950.0
948.0
949.0
950.0
951.0
950.0
947.0
945.0
944.0
948.0
948.0
947.0
948.0
945.0
946.0
949.0
947.0
949.0
949.0
947.0
950.0
951.0
953.0
953.0
951.0
950.0
953.0
955.0
956.0
958.0
957.0
955.0
958.0
960.0
962.0
964.0
963.0
964.0
968.0
971.0
975.0
976.0
979.0
980.0
984.0
987.0
995.0
999.0
1000.0
1001.0
1007.0
1014.0
1018.0
1023.0
1026.0
1024.0
1030.0
1038.0
1040.0
1043.0
1044.0
1046.0
1049.0
1051.0
1057.0
1058.0
1058.0
1059.0
1061.0
1064.0
1066.0
1065.0
1064.0
1061.0
1062.0
1061.0
1059.0
1057.0
1050.0
1043.0
1040.0
1038.0
1033.0
1028.0
1022.0
1013.0
1010.0
1007.0
1005.0
999.0
994.0
991.0
989.0
987.0
987.0
985.0
981.0
979.0
980.0
978.0
979.0
980.0
977.0
973.0
976.0
977.0
978.0
977.0
977.0
976.0
976.0
975.0
982.0
979.0
979.0
978.0
978.0
980.0
983.0
984.0
981.0
981.0
979.0
981.0
984.0
983.0
984.0
981.0
984.0
987.0
988.0
988.0
985.0
984.0
985.0
984.0
986.0
984.0
982.0
980.0
981.0
983.0
984.0
982.0
982.0
979.0
978.0
980.0
982.0
979.0
978.0
978.0
977.0
976.0
975.0
976.0
975.0
972.0
973.0
974.0
974.0
971.0
968.0
968.0
968.0
969.0
969.0
967.0
967.0
966.0
967.0
966.0
967.0
968.0
968.0
965.0
965.0
965.0
967.0
963.0
963.0
964.0
966.0
967.0
971.0
970.0
973.0
974.0
978.0
981.0
982.0
983.0
982.0
981.0
983.0
987.0
991.0
992.0
988.0
988.0
989.0
992.0
993.0
989.0
986.0
980.0
980.0
978.0
976.0
979.0
979.0
978.0
979.0
979.0
976.0
975.0
972.0
967.0
966.0
965.0
965.0
961.0
961.0
958.0
954.0
955.0
954.0
955.0
951.0
950.0
951.0
949.0
953.0
953.0
954.0
951.0
952.0
954.0
954.0
953.0
952.0
951.0
952.0
953.0
951.0
942.0
928.0
914.0
911.0
917.0
933.0
952.0
981.0
1040.0
1121.0
1208.0
1288.0
1355.0
1401.0
1412.0
1396.0
1331.0
1220.0
1097.0
1001.0
943.0
926.0
929.0
940.0
958.0
972.0
974.0
969.0
962.0
959.0
960.0
955.0
954.0
953.0
952.0
950.0
945.0
945.0
941.0
941.0
942.0
944.0
944.0
943.0
941.0
941.0
942.0
944.0
943.0
942.0
939.0
939.0
942.0
944.0
943.0
942.0
941.0
946.0
947.0
948.0
947.0
947.0
945.0
948.0
948.0
949.0
949.0
950.0
952.0
955.0
958.0
960.0
961.0
963.0
963.0
966.0
968.0
973.0
976.0
977.0
979.0
984.0
988.0
995.0
999.0
998.0
1002.0
1009.0
1012.0
1017.0
1019.0
1023.0
1025.0
1028.0
1035.0
1039.0
1041.0
1042.0
1043.0
1045.0
1047.0
1052.0
1055.0
1055.0
1054.0
1053.0
1055.0
1057.0
1056.0
1053.0
1049.0
1046.0
1044.0
1041.0
1035.0
1033.0
1023.0
1020.0
1016.0
1014.0
1008.0
1002.0
994.0
992.0
988.0
990.0
985.0
983.0
977.0
977.0
979.0
980.0
979.0
975.0
973.0
973.0
973.0
977.0
973.0
975.0
971.0
975.0
975.0
976.0
976.0
973.0
974.0
973.0
975.0
977.0
976.0
978.0
975.0
976.0
977.0
979.0
979.0
978.0
976.0
977.0
980.0
983.0
983.0
979.0
978.0
979.0
982.0
983.0
983.0
982.0
981.0
982.0
982.0
983.0
982.0
981.0
976.0
979.0
977.0
979.0
978.0
977.0
976.0
975.0
976.0
977.0
977.0
975.0
974.0
973.0
974.0
975.0
976.0
974.0
970.0
972.0
971.0
972.0
969.0
971.0
968.0
968.0
970.0
971.0
970.0
968.0
966.0
965.0
967.0
968.0
965.0
964.0
961.0
961.0
964.0
966.0
964.0
965.0
962.0
965.0
965.0
967.0
967.0
964.0
961.0
963.0
965.0
968.0
966.0
966.0
965.0
967.0
973.0
979.0
980.0
981.0
977.0
978.0
979.0
980.0
982.0
983.0
983.0
986.0
986.0
983.0
986.0
986.0
986.0
984.0
985.0
986.0
982.0
977.0
972.0
970.0
974.0
978.0
979.0
980.0
976.0
974.0
971.0
969.0
966.0
965.0
962.0
963.0
962.0
963.0
959.0
957.0
953.0
952.0
953.0
954.0
954.0
953.0
951.0
952.0
955.0
957.0
954.0
954.0
950.0
955.0
956.0
956.0
957.0
954.0
952.0
953.0
954.0
950.0
941.0
925.0
918.0
923.0
935.0
951.0
977.0
1022.0
1090.0
1168.0
1246.0
1315.0
1359.0
1383.0
1374.0
1322.0
1230.0
1127.0
1034.0
967.0
931.0
926.0
934.0
955.0
972.0
977.0
969.0
963.0
960.0
961.0
961.0
958.0
953.0
952.0
951.0
950.0
949.0
947.0
945.0
944.0
947.0
946.0
947.0
943.0
942.0
944.0
947.0
949.0
949.0
944.0
944.0
944.0
948.0
948.0
946.0
946.0
944.0
947.0
948.0
949.0
950.0
947.0
945.0
952.0
953.0
955.0
956.0
951.0
950.0
954.0
957.0
959.0
960.0
963.0
964.0
967.0
969.0
973.0
975.0
977.0
977.0
980.0
989.0
992.0
992.0
997.0
998.0
1003.0
1008.0
1015.0
1018.0
1017.0
1020.0
1024.0
1027.0
1031.0
1034.0
1035.0
1035.0
1039.0
1042.0
1047.0
1047.0
1050.0
1047.0
1047.0
1047.0
1050.0
1049.0
1049.0
1042.0
1040.0
1041.0
1039.0
1036.0
1031.0
1024.0
1021.0
1019.0
1016.0
1011.0
1005.0
999.0
992.0
994.0
993.0
992.0
990.0
985.0
981.0
982.0
983.0
980.0
980.0
976.0
974.0
975.0
977.0
976.0
972.0
973.0
975.0
978.0
979.0
977.0
973.0
975.0
974.0
974.0
977.0
978.0
978.0
977.0
976.0
979.0
980.0
980.0
979.0
976.0
980.0
980.0
982.0
981.0
981.0
977.0
979.0
981.0
982.0
984.0
984.0
980.0
982.0
984.0
985.0
985.0
983.0
980.0
981.0
981.0
984.0
986.0
981.0
978.0
978.0
982.0
983.0
983.0
981.0
978.0
976.0
980.0
981.0
979.0
977.0
975.0
974.0
977.0
974.0
976.0
975.0
970.0
969.0
974.0
972.0
973.0
969.0
966.0
970.0
970.0
969.0
971.0
969.0
965.0
965.0
966.0
967.0
969.0
966.0
965.0
964.0
964.0
964.0
966.0
965.0
964.0
965.0
966.0
966.0
964.0
964.0
962.0
963.0
967.0
967.0
969.0
973.0
973.0
976.0
980.0
982.0
982.0
981.0
977.0
983.0
985.0
987.0
988.0
987.0
983.0
987.0
986.0
990.0
990.0
988.0
984.0
982.0
981.0
980.0
979.0
976.0
974.0
978.0
982.0
985.0
980.0
976.0
970.0
969.0
968.0
967.0
965.0
961.0
959.0
961.0
959.0
960.0
956.0
954.0
952.0
951.0
952.0
956.0
955.0
952.0
950.0
952.0
953.0
955.0
954.0
952.0
953.0
952.0
953.0
953.0
955.0
953.0
947.0
944.0
938.0
927.0
922.0
922.0
931.0
950.0
979.0
1029.0
1101.0
1177.0
1247.0
1312.0
1365.0
1390.0
1391.0
1350.0
1257.0
1139.0
1033.0
963.0
930.0
922.0
929.0
948.0
969.0
980.0
974.0
965.0
959.0
958.0
960.0
957.0
957.0
952.0
949.0
946.0
945.0
949.0
946.0
945.0
943.0
941.0
942.0
946.0
944.0
943.0
940.0
942.0
946.0
946.0
945.0
944.0
943.0
943.0
944.0
946.0
945.0
943.0
944.0
945.0
947.0
948.0
947.0
947.0
945.0
948.0
949.0
952.0
952.0
953.0
954.0
956.0
959.0
961.0
960.0
962.0
961.0
965.0
970.0
972.0
974.0
972.0
975.0
978.0
984.0
987.0
990.0
989.0
993.0
999.0
1005.0
1008.0
1011.0
1013.0
1015.0
1019.0
1025.0
1029.0
1030.0
1031.0
1033.0
1036.0
1040.0
1043.0
1043.0
1046.0
1044.0
1048.0
1052.0
1054.0
1056.0
1055.0
1054.0
1051.0
1052.0
1053.0
1050.0
1047.0
1045.0
1040.0
1041.0
1039.0
1034.0
1026.0
1019.0
1018.0
1013.0
1015.0
1010.0
1005.0
996.0
995.0
993.0
990.0
990.0
983.0
978.0
980.0
980.0
981.0
978.0
976.0
972.0
971.0
974.0
976.0
974.0
972.0
970.0
972.0
973.0
974.0
974.0
973.0
972.0
971.0
973.0
975.0
976.0
974.0
972.0
973.0
975.0
976.0
975.0
974.0
974.0
975.0
976.0
979.0
978.0
977.0
976.0
976.0
977.0
979.0
980.0
979.0
976.0
978.0
979.0
981.0
980.0
979.0
977.0
978.0
980.0
981.0
978.0
978.0
976.0
977.0
979.0
978.0
980.0
976.0
975.0
976.0
978.0
978.0
976.0
975.0
974.0
974.0
975.0
974.0
975.0
973.0
973.0
972.0
972.0
973.0
971.0
968.0
967.0
967.0
968.0
967.0
966.0
965.0
963.0
964.0
965.0
966.0
965.0
965.0
961.0
963.0
965.0
963.0
962.0
961.0
959.0
961.0
963.0
964.0
963.0
964.0
960.0
964.0
968.0
971.0
973.0
974.0
972.0
976.0
978.0
981.0
979.0
978.0
978.0
981.0
984.0
984.0
983.0
982.0
983.0
984.0
986.0
986.0
985.0
982.0
977.0
975.0
975.0
975.0
975.0
973.0
973.0
976.0
976.0
970.0
970.0
967.0
961.0
959.0
958.0
961.0
958.0
955.0
951.0
952.0
951.0
953.0
951.0
948.0
948.0
949.0
950.0
953.0
952.0
949.0
948.0
946.0
948.0
949.0
948.0
947.0
946.0
947.0
948.0
947.0
945.0
933.0
918.0
911.0
909.0
918.0
931.0
947.0
979.0
1041.0
1124.0
1208.0
1283.0
1350.0
1392.0
1409.0
1389.0
1329.0
1224.0
1104.0
1005.0
941.0
919.0
921.0
925.0
935.0
956.0
967.0
972.0
968.0
961.0
955.0
952.0
953.0
954.0
953.0
948.0
945.0
939.0
943.0
939.0
942.0
941.0
940.0
937.0
936.0
938.0
939.0
939.0
939.0
935.0
936.0
938.0
938.0
939.0
938.0
936.0
938.0
938.0
940.0
939.0
937.0
937.0
939.0
942.0
942.0
943.0
942.0
941.0
944.0
947.0
950.0
950.0
951.0
949.0
951.0
955.0
957.0
960.0
960.0
959.0
963.0
967.0
970.0
975.0
974.0
976.0
981.0
986.0
990.0
995.0
995.0
999.0
1005.0
1010.0
1016.0
1020.0
1019.0
1022.0
1026.0
1027.0
1034.0
1036.0
1037.0
1040.0
1043.0
1046.0
1049.0
1050.0
1051.0
1049.0
1054.0
1055.0
1055.0
1053.0
1050.0
1050.0
1048.0
1044.0
1043.0
1041.0
1037.0
1032.0
1028.0
1025.0
1021.0
1017.0
1009.0
1004.0
1000.0
997.0
996.0
993.0
987.0
982.0
981.0
981.0
980.0
977.0
976.0
971.0
971.0
972.0
973.0
971.0
971.0
967.0
968.0
969.0
970.0
969.0
968.0
966.0
966.0
969.0
973.0
972.0
971.0
970.0
970.0
973.0
975.0
976.0
976.0
974.0
973.0
974.0
975.0
977.0
975.0
975.0
977.0
976.0
980.0
977.0
977.0
976.0
977.0
981.0
979.0
978.0
980.0
978.0
979.0
980.0
982.0
980.0
980.0
979.0
982.0
981.0
982.0
980.0
978.0
976.0
976.0
977.0
976.0
975.0
973.0
970.0
971.0
975.0
975.0
974.0
973.0
969.0
971.0
972.0
971.0
970.0
971.0
967.0
966.0
966.0
966.0
967.0
964.0
964.0
964.0
965.0
965.0
964.0
963.0
960.0
964.0
963.0
964.0
964.0
961.0
961.0
960.0
960.0
963.0
965.0
962.0
959.0
961.0
960.0
962.0
962.0
964.0
966.0
969.0
974.0
976.0
975.0
974.0
974.0
977.0
981.0
982.0
984.0
983.0
981.0
982.0
982.0
984.0
985.0
984.0
981.0
981.0
982.0
980.0
976.0
971.0
969.0
972.0
975.0
977.0
978.0
975.0
972.0
970.0
969.0
969.0
965.0
962.0
956.0
959.0
959.0
957.0
955.0
956.0
950.0
951.0
953.0
954.0
951.0
950.0
950.0
951.0
952.0
956.0
953.0
950.0
949.0
949.0
951.0
953.0
953.0
951.0
946.0
940.0
929.0
921.0
917.0
926.0
935.0
952.0
986.0
1044.0
1116.0
1190.0
1259.0
1327.0
1374.0
1394.0
1387.0
1338.0
1245.0
1132.0
1030.0
965.0
934.0
926.0
930.0
947.0
970.0
979.0
979.0
970.0
963.0
958.0
961.0
964.0
959.0
955.0
951.0
951.0
951.0
950.0
950.0
947.0
946.0
947.0
949.0
950.0
950.0
948.0
945.0
946.0
949.0
949.0
949.0
946.0
947.0
948.0
948.0
950.0
949.0
950.0
946.0
948.0
952.0
954.0
952.0
953.0
950.0
954.0
954.0
956.0
956.0
955.0
956.0
960.0
962.0
964.0
965.0
964.0
964.0
969.0
973.0
975.0
978.0
979.0
980.0
983.0
987.0
994.0
995.0
995.0
998.0
1003.0
1009.0
1013.0
1015.0
1018.0
1019.0
1023.0
1029.0
1037.0
1036.0
1039.0
1040.0
1041.0
1045.0
1049.0
1053.0
1052.0
1053.0
1056.0
1058.0
1061.0
1060.0
1059.0
1058.0
1058.0
1057.0
1059.0
1053.0
1051.0
1042.0
1044.0
1041.0
1038.0
1033.0
1028.0
1021.0
1016.0
1015.0
1009.0
1004.0
1001.0
996.0
997.0
995.0
992.0
988.0
986.0
983.0
986.0
987.0
987.0
987.0
984.0
981.0
984.0
985.0
983.0
983.0
982.0
982.0
983.0
985.0
984.0
983.0
982.0
983.0
985.0
987.0
987.0
986.0
988.0
986.0
988.0
989.0
991.0
989.0
989.0
987.0
989.0
990.0
993.0
992.0
988.0
989.0
991.0
993.0
992.0
990.0
989.0
987.0
989.0
991.0
990.0
991.0
988.0
988.0
988.0
987.0
986.0
988.0
986.0
985.0
986.0
986.0
987.0
987.0
983.0
981.0
982.0
984.0
983.0
982.0
981.0
977.0
983.0
979.0
979.0
977.0
976.0
978.0
978.0
976.0
975.0
974.0
975.0
973.0
977.0
978.0
975.0
974.0
975.0
973.0
973.0
972.0
975.0
972.0
972.0
971.0
972.0
973.0
974.0
973.0
973.0
975.0
975.0
978.0
980.0
981.0
983.0
984.0
987.0
988.0
989.0
988.0
989.0
989.0
991.0
993.0
995.0
992.0
992.0
993.0
996.0
1000.0
998.0
996.0
993.0
988.0
989.0
988.0
986.0
983.0
986.0
987.0
991.0
992.0
989.0
982.0
979.0
976.0
976.0
976.0
978.0
974.0
971.0
967.0
968.0
968.0
967.0
965.0
965.0
961.0
962.0
963.0
963.0
964.0
962.0
962.0
964.0
965.0
967.0
965.0
962.0
960.0
962.0
962.0
964.0
961.0
960.0
952.0
943.0
937.0
936.0
941.0
951.0
966.0
996.0
1046.0
1110.0
1181.0
1242.0
1301.0
1353.0
1386.0
1388.0
1358.0
1289.0
1190.0
1093.0
1018.0
969.0
942.0
936.0
946.0
970.0
985.0
986.0
981.0
974.0
968.0
968.0
969.0
969.0
965.0
962.0
957.0
958.0
959.0
960.0
958.0
959.0
955.0
957.0
955.0
957.0
955.0
953.0
952.0
952.0
954.0
955.0
954.0
953.0
949.0
952.0
953.0
954.0
953.0
955.0
953.0
953.0
957.0
958.0
957.0
954.0
954.0
957.0
960.0
962.0
961.0
962.0
960.0
963.0
967.0
969.0
970.0
967.0
966.0
969.0
975.0
977.0
980.0
978.0
982.0
986.0
990.0
994.0
997.0
997.0
999.0
1005.0
1010.0
1013.0
1016.0
1017.0
1021.0
1024.0
1029.0
1034.0
1036.0
1036.0
1038.0
1042.0
1046.0
1048.0
1049.0
1051.0
1053.0
1054.0
1060.0
1060.0
1059.0
1061.0
1057.0
1058.0
1057.0
1054.0
1053.0
1051.0
1043.0
1042.0
1041.0
1038.0
1030.0
1028.0
1021.0
1021.0
1016.0
1015.0
1008.0
1004.0
999.0
997.0
996.0
994.0
990.0
987.0
985.0
985.0
985.0
983.0
985.0
982.0
980.0
982.0
983.0
984.0
980.0
979.0
977.0
979.0
983.0
984.0
984.0
984.0
982.0
982.0
983.0
985.0
985.0
983.0
982.0
984.0
987.0
988.0
989.0
988.0
984.0
988.0
989.0
990.0
990.0
989.0
988.0
990.0
992.0
992.0
991.0
991.0
989.0
990.0
992.0
992.0
992.0
989.0
989.0
987.0
988.0
989.0
991.0
988.0
985.0
988.0
987.0
989.0
987.0
987.0
982.0
982.0
987.0
987.0
986.0
982.0
982.0
983.0
982.0
984.0
982.0
977.0
976.0
976.0
977.0
978.0
976.0
976.0
973.0
972.0
976.0
975.0
974.0
971.0
970.0
970.0
973.0
975.0
974.0
971.0
970.0
972.0
972.0
973.0
972.0
968.0
968.0
970.0
973.0
973.0
976.0
977.0
978.0
979.0
984.0
985.0
985.0
983.0
982.0
985.0
987.0
991.0
992.0
989.0
987.0
989.0
992.0
994.0
993.0
990.0
984.0
985.0
984.0
982.0
983.0
980.0
980.0
983.0
985.0
983.0
981.0
976.0
969.0
970.0
967.0
963.0
963.0
960.0
960.0
960.0
959.0
958.0
956.0
951.0
953.0
953.0
955.0
956.0
956.0
953.0
950.0
952.0
955.0
954.0
953.0
951.0
951.0
951.0
953.0
953.0
949.0
939.0
924.0
914.0
915.0
922.0
935.0
949.0
982.0
1048.0
1130.0
1215.0
1293.0
1357.0
1401.0
1420.0
1406.0
1348.0
1244.0
1120.0
1010.0
944.0
919.0
922.0
940.0
960.0
975.0
976.0
971.0
965.0
962.0
958.0
957.0
956.0
954.0
952.0
946.0
944.0
942.0
942.0
944.0
942.0
942.0
938.0
938.0
940.0
940.0
938.0
940.0
939.0
938.0
938.0
939.0
939.0
939.0
940.0
936.0
938.0
939.0
944.0
943.0
944.0
941.0
944.0
945.0
948.0
947.0
948.0
946.0
949.0
953.0
954.0
955.0
956.0
956.0
960.0
964.0
968.0
968.0
971.0
969.0
976.0
981.0
984.0
989.0
991.0
992.0
998.0
1005.0
1009.0
1014.0
1016.0
1019.0
1024.0
1029.0
1034.0
1035.0
1038.0
1038.0
1044.0
1048.0
1055.0
1052.0
1053.0
1052.0
1054.0
1055.0
1055.0
1053.0
1054.0
1053.0
1050.0
1049.0
1045.0
1037.0
1032.0
1027.0
1024.0
1019.0
1013.0
1007.0
1002.0
995.0
993.0
989.0
987.0
985.0
981.0
975.0
976.0
977.0
974.0
971.0
971.0
967.0
967.0
968.0
970.0
969.0
967.0
967.0
967.0
968.0
970.0
969.0
969.0
967.0
969.0
974.0
972.0
971.0
971.0
968.0
968.0
972.0
973.0
974.0
973.0
972.0
975.0
975.0
976.0
976.0
976.0
970.0
974.0
978.0
978.0
978.0
976.0
975.0
975.0
977.0
977.0
975.0
972.0
972.0
970.0
974.0
974.0
973.0
972.0
970.0
971.0
971.0
973.0
972.0
969.0
968.0
968.0
971.0
972.0
970.0
966.0
964.0
966.0
968.0
966.0
968.0
965.0
964.0
963.0
963.0
965.0
964.0
961.0
959.0
962.0
961.0
963.0
961.0
957.0
955.0
955.0
957.0
960.0
959.0
958.0
954.0
957.0
957.0
958.0
957.0
955.0
954.0
954.0
958.0
960.0
960.0
962.0
960.0
965.0
971.0
974.0
973.0
971.0
972.0
974.0
976.0
976.0
977.0
978.0
977.0
979.0
981.0
984.0
983.0
980.0
975.0
972.0
973.0
972.0
969.0
967.0
968.0
973.0
974.0
973.0
969.0
965.0
958.0
959.0
958.0
957.0
952.0
949.0
947.0
948.0
947.0
947.0
943.0
941.0
939.0
942.0
944.0
944.0
940.0
940.0
937.0
941.0
944.0
944.0
943.0
941.0
938.0
941.0
941.0
939.0
931.0
917.0
904.0
899.0
906.0
918.0
938.0
968.0
1028.0
1110.0
1195.0
1272.0
1341.0
1395.0
1416.0
1407.0
1354.0
1245.0
1117.0
1000.0
930.0
912.0
916.0
931.0
950.0
966.0
964.0
957.0
954.0
951.0
949.0
946.0
940.0
939.0
937.0
935.0
932.0
931.0
928.0
931.0
931.0
930.0
931.0
929.0
927.0
931.0
932.0
932.0
930.0
927.0
927.0
930.0
931.0
932.0
932.0
933.0
931.0
934.0
936.0
937.0
935.0
934.0
935.0
937.0
941.0
942.0
942.0
939.0
941.0
946.0
949.0
950.0
952.0
956.0
957.0
962.0
967.0
969.0
973.0
973.0
977.0
981.0
985.0
991.0
994.0
998.0
1003.0
1008.0
1013.0
1019.0
1021.0
1025.0
1026.0
1028.0
1035.0
1040.0
1042.0
1044.0
1045.0
1048.0
1051.0
1051.0
1049.0
1049.0
1049.0
1047.0
1049.0
1045.0
1042.0
1037.0
1031.0
1027.0
1024.0
1020.0
1016.0
1008.0
1000.0
996.0
993.0
986.0
985.0
975.0
971.0
970.0
970.0
970.0
966.0
965.0
961.0
963.0
963.0
964.0
956.0
958.0
955.0
958.0
960.0
961.0
961.0
958.0
959.0
960.0
960.0
960.0
957.0
960.0
961.0
963.0
964.0
966.0
964.0
964.0
964.0
966.0
966.0
968.0
968.0
966.0
966.0
966.0
967.0
965.0
969.0
969.0
966.0
969.0
968.0
968.0
969.0
967.0
967.0
967.0
967.0
969.0
968.0
968.0
966.0
965.0
966.0
970.0
967.0
967.0
965.0
965.0
967.0
963.0
963.0
962.0
960.0
960.0
959.0
962.0
961.0
959.0
957.0
956.0
958.0
957.0
958.0
956.0
954.0
953.0
957.0
956.0
953.0
952.0
950.0
952.0
954.0
953.0
949.0
947.0
950.0
952.0
953.0
953.0
953.0
952.0
948.0
950.0
953.0
953.0
954.0
951.0
953.0
956.0
959.0
962.0
965.0
966.0
962.0
967.0
971.0
971.0
969.0
971.0
968.0
971.0
972.0
971.0
974.0
975.0
974.0
976.0
976.0
970.0
967.0
962.0
959.0
959.0
964.0
966.0
967.0
967.0
960.0
959.0
957.0
954.0
950.0
947.0
946.0
945.0
945.0
944.0
942.0
937.0
936.0
937.0
938.0
938.0
940.0
938.0
936.0
937.0
936.0
939.0
938.0
937.0
936.0
937.0
940.0
939.0
938.0
936.0
927.0
917.0
904.0
899.0
907.0
920.0
940.0
979.0
1046.0
1126.0
1207.0
1279.0
1341.0
1383.0
1396.0
1369.0
1292.0
1178.0
1058.0
971.0
926.0
913.0
915.0
928.0
949.0
963.0
963.0
955.0
947.0
944.0
943.0
945.0
944.0
940.0
936.0
932.0
930.0
931.0
933.0
932.0
933.0
931.0
929.0
932.0
932.0
935.0
932.0
930.0
929.0
932.0
930.0
930.0
931.0
930.0
931.0
934.0
934.0
933.0
931.0
934.0
935.0
937.0
938.0
936.0
938.0
939.0
939.0
942.0
947.0
947.0
948.0
948.0
949.0
954.0
953.0
957.0
957.0
958.0
961.0
969.0
973.0
975.0
979.0
982.0
982.0
985.0
992.0
998.0
1000.0
1002.0
1004.0
1010.0
1016.0
1018.0
1022.0
1024.0
1025.0
1029.0
1034.0
1035.0
1037.0
1038.0
1038.0
1041.0
1045.0
1048.0
1048.0
1045.0
1043.0
1043.0
1039.0
1038.0
1036.0
1033.0
1027.0
1025.0
1025.0
1017.0
1014.0
1005.0
1002.0
999.0
996.0
994.0
990.0
984.0
981.0
976.0
978.0
977.0
974.0
971.0
966.0
967.0
968.0
968.0
967.0
966.0
966.0
965.0
963.0
964.0
964.0
963.0
963.0
963.0
963.0
963.0
963.0
963.0
961.0
964.0
965.0
969.0
969.0
966.0
966.0
965.0
968.0
970.0
970.0
968.0
969.0
971.0
973.0
972.0
971.0
968.0
969.0
970.0
973.0
974.0
973.0
972.0
971.0
974.0
973.0
976.0
973.0
972.0
970.0
971.0
974.0
972.0
973.0
972.0
972.0
973.0
973.0
973.0
970.0
968.0
966.0
966.0
968.0
969.0
970.0
967.0
968.0
965.0
966.0
967.0
966.0
962.0
962.0
965.0
964.0
964.0
963.0
959.0
957.0
957.0
960.0
962.0
959.0
957.0
956.0
958.0
957.0
957.0
955.0
953.0
954.0
955.0
955.0
957.0
957.0
955.0
955.0
956.0
958.0
957.0
958.0
957.0
960.0
962.0
967.0
970.0
970.0
967.0
968.0
970.0
972.0
972.0
