# Simple Text Format
# Sampling Rate (Hz):= 360.00
# Resolution:= 12
# Labels:= ECG
968.0
965.0
962.0
957.0
958.0
960.0
958.0
954.0
950.0
948.0
949.0
947.0
947.0
944.0
943.0
940.0
943.0
946.0
947.0
944.0
941.0
942.0
943.0
946.0
944.0
944.0
944.0
943.0
945.0
946.0
945.0
943.0
936.0
924.0
913.0
905.0
908.0
918.0
930.0
950.0
992.0
1057.0
1127.0
1197.0
1259.0
1317.0
1365.0
1386.0
1380.0
1336.0
1254.0
1141.0
1041.0
969.0
935.0
922.0
924.0
937.0
955.0
969.0
968.0
960.0
954.0
952.0
951.0
950.0
952.0
946.0
941.0
938.0
939.0
940.0
937.0
938.0
934.0
934.0
935.0
935.0
936.0
934.0
932.0
930.0
931.0
934.0
935.0
935.0
936.0
933.0
935.0
938.0
935.0
936.0
935.0
934.0
937.0
938.0
939.0
939.0
935.0
935.0
940.0
942.0
944.0
942.0
943.0
943.0
945.0
948.0
950.0
950.0
951.0
952.0
957.0
959.0
959.0
962.0
964.0
964.0
968.0
972.0
976.0
977.0
978.0
983.0
988.0
993.0
997.0
996.0
997.0
1003.0
1008.0
1012.0
1018.0
1019.0
1023.0
1022.0
1028.0
1031.0
1034.0
1035.0
1037.0
1037.0
1041.0
1043.0
1046.0
1045.0
1043.0
1043.0
1045.0
1044.0
1041.0
1039.0
1034.0
1029.0
1028.0
1024.0
1021.0
1014.0
1011.0
1006.0
1002.0
999.0
994.0
989.0
984.0
979.0
977.0
976.0
973.0
970.0
967.0
964.0
966.0
964.0
964.0
962.0
962.0
959.0
962.0
963.0
962.0
959.0
960.0
958.0
958.0
960.0
962.0
961.0
959.0
959.0
962.0
963.0
965.0
964.0
962.0
961.0
964.0
965.0
967.0
966.0
965.0
965.0
965.0
966.0
968.0
966.0
964.0
966.0
968.0
970.0
968.0
969.0
969.0
968.0
967.0
970.0
970.0
969.0
966.0
964.0
965.0
966.0
966.0
965.0
962.0
964.0
966.0
969.0
970.0
968.0
965.0
963.0
963.0
964.0
962.0
962.0
958.0
960.0
961.0
961.0
960.0
957.0
957.0
956.0
956.0
958.0
957.0
956.0
954.0
952.0
952.0
955.0
955.0
950.0
952.0
951.0
952.0
955.0
953.0
951.0
949.0
947.0
950.0
950.0
951.0
949.0
949.0
948.0
948.0
948.0
949.0
950.0
948.0
948.0
951.0
954.0
954.0
956.0
957.0
957.0
961.0
963.0
962.0
965.0
965.0
963.0
966.0
970.0
974.0
970.0
969.0
968.0
972.0
975.0
973.0
970.0
967.0
963.0
961.0
962.0
962.0
960.0
962.0
962.0
963.0
961.0
960.0
955.0
952.0
949.0
949.0
950.0
947.0
944.0
942.0
939.0
942.0
943.0
940.0
938.0
936.0
935.0
939.0
939.0
939.0
938.0
936.0
936.0
936.0
939.0
938.0
941.0
938.0
937.0
937.0
938.0
938.0
938.0
936.0
934.0
930.0
922.0
911.0
908.0
911.0
922.0
940.0
966.0
1014.0
1080.0
1147.0
1210.0
1267.0
1314.0
1340.0
1348.0
1328.0
1274.0
1190.0
1101.0
1024.0
964.0
930.0
915.0
914.0
923.0
940.0
954.0
957.0
952.0
947.0
945.0
943.0
943.0
941.0
942.0
941.0
939.0
936.0
934.0
933.0
930.0
933.0
932.0
932.0
931.0
930.0
930.0
929.0
930.0
932.0
928.0
927.0
926.0
927.0
930.0
930.0
930.0
930.0
930.0
929.0
933.0
931.0
932.0
930.0
930.0
931.0
933.0
935.0
934.0
933.0
933.0
936.0
938.0
938.0
939.0
938.0
937.0
941.0
943.0
948.0
947.0
947.0
949.0
951.0
956.0
957.0
955.0
959.0
963.0
966.0
970.0
973.0
974.0
977.0
981.0
987.0
989.0
993.0
995.0
997.0
1001.0
1004.0
1010.0
1012.0
1014.0
1016.0
1018.0
1021.0
1025.0
1028.0
1030.0
1029.0
1030.0
1033.0
1035.0
1033.0
1033.0
1033.0
1029.0
1031.0
1031.0
1030.0
1026.0
1020.0
1017.0
1014.0
1014.0
1009.0
1004.0
999.0
991.0
993.0
990.0
986.0
980.0
977.0
975.0
977.0
974.0
972.0
970.0
967.0
965.0
965.0
966.0
965.0
966.0
962.0
962.0
962.0
961.0
963.0
963.0
959.0
957.0
958.0
959.0
962.0
961.0
961.0
958.0
960.0
963.0
962.0
964.0
962.0
961.0
965.0
966.0
967.0
965.0
965.0
964.0
965.0
968.0
968.0
967.0
967.0
966.0
969.0
968.0
970.0
972.0
971.0
969.0
970.0
973.0
975.0
972.0
969.0
970.0
970.0
972.0
971.0
969.0
969.0
968.0
969.0
972.0
972.0
971.0
967.0
965.0
965.0
969.0
968.0
966.0
962.0
960.0
960.0
965.0
965.0
963.0
961.0
961.0
960.0
960.0
962.0
958.0
955.0
956.0
955.0
957.0
957.0
955.0
950.0
953.0
952.0
953.0
954.0
953.0
950.0
950.0
950.0
953.0
952.0
950.0
949.0
948.0
950.0
951.0
951.0
950.0
947.0
944.0
948.0
949.0
950.0
949.0
947.0
944.0
946.0
948.0
946.0
947.0
945.0
944.0
949.0
950.0
955.0
954.0
957.0
959.0
961.0
962.0
962.0
962.0
962.0
961.0
966.0
968.0
968.0
967.0
967.0
966.0
970.0
972.0
972.0
970.0
966.0
966.0
964.0
965.0
961.0
958.0
958.0
957.0
962.0
963.0
961.0
957.0
952.0
953.0
951.0
948.0
948.0
945.0
941.0
939.0
941.0
940.0
938.0
935.0
935.0
933.0
934.0
936.0
935.0
932.0
932.0
929.0
931.0
933.0
935.0
931.0
931.0
932.0
933.0
935.0
935.0
933.0
932.0
932.0
933.0
933.0
931.0
926.0
914.0
899.0
895.0
898.0
905.0
917.0
928.0
952.0
995.0
1061.0
1130.0
1199.0
1262.0
1318.0
1362.0
1378.0
1365.0
1312.0
1222.0
1113.0
1019.0
958.0
926.0
917.0
915.0
920.0
935.0
953.0
960.0
956.0
947.0
944.0
941.0
943.0
941.0
940.0
936.0
935.0
931.0
932.0
928.0
929.0
926.0
926.0
927.0
927.0
924.0
926.0
924.0
923.0
923.0
925.0
925.0
925.0
923.0
921.0
925.0
926.0
924.0
925.0
924.0
924.0
926.0
927.0
927.0
927.0
926.0
926.0
929.0
931.0
930.0
930.0
930.0
929.0
931.0
934.0
935.0
935.0
935.0
936.0
937.0
941.0
943.0
944.0
942.0
944.0
947.0
951.0
955.0
955.0
956.0
959.0
964.0
967.0
971.0
972.0
972.0
976.0
982.0
985.0
989.0
992.0
996.0
995.0
1000.0
1004.0
1009.0
1011.0
1013.0
1016.0
1020.0
1022.0
1026.0
1027.0
1029.0
1029.0
1031.0
1033.0
1032.0
1035.0
1032.0
1033.0
1033.0
1034.0
1031.0
1029.0
1025.0
1017.0
1019.0
1014.0
1012.0
1008.0
1000.0
995.0
990.0
990.0
985.0
980.0
977.0
971.0
969.0
970.0
966.0
966.0
962.0
957.0
959.0
957.0
956.0
955.0
953.0
953.0
953.0
953.0
950.0
953.0
951.0
951.0
951.0
955.0
952.0
954.0
952.0
951.0
953.0
956.0
954.0
955.0
953.0
952.0
952.0
956.0
957.0
959.0
956.0
955.0
957.0
959.0
957.0
959.0
957.0
959.0
960.0
962.0
959.0
961.0
959.0
957.0
961.0
960.0
963.0
963.0
959.0
958.0
961.0
960.0
961.0
959.0
957.0
956.0
958.0
959.0
956.0
956.0
954.0
952.0
955.0
955.0
957.0
954.0
951.0
952.0
949.0
952.0
953.0
948.0
946.0
948.0
947.0
947.0
947.0
943.0
941.0
944.0
943.0
944.0
943.0
943.0
941.0
940.0
940.0
942.0
943.0
939.0
939.0
938.0
941.0
940.0
942.0
943.0
941.0
938.0
941.0
940.0
942.0
941.0
940.0
940.0
940.0
943.0
940.0
939.0
938.0
937.0
940.0
942.0
944.0
942.0
941.0
942.0
945.0
950.0
953.0
953.0
953.0
953.0
953.0
958.0
958.0
959.0
960.0
959.0
964.0
964.0
964.0
966.0
966.0
963.0
965.0
962.0
963.0
959.0
957.0
952.0
952.0
952.0
953.0
955.0
956.0
953.0
952.0
951.0
948.0
945.0
942.0
939.0
939.0
940.0
937.0
936.0
932.0
931.0
929.0
932.0
931.0
928.0
928.0
929.0
928.0
929.0
929.0
928.0
929.0
927.0
927.0
929.0
929.0
929.0
926.0
925.0
929.0
931.0
928.0
928.0
926.0
926.0
926.0
924.0
913.0
899.0
891.0
893.0
906.0
922.0
940.0
980.0
1039.0
1114.0
1189.0
1257.0
1317.0
1356.0
1374.0
1365.0
1317.0
1227.0
1114.0
1013.0
946.0
917.0
911.0
911.0
915.0
928.0
942.0
948.0
946.0
940.0
937.0
934.0
933.0
929.0
930.0
931.0
930.0
924.0
923.0
921.0
921.0
921.0
922.0
920.0
917.0
918.0
917.0
920.0
921.0
919.0
916.0
917.0
918.0
921.0
920.0
917.0
916.0
917.0
921.0
921.0
920.0
920.0
918.0
920.0
920.0
925.0
924.0
925.0
924.0
921.0
924.0
929.0
930.0
933.0
932.0
929.0
933.0
936.0
938.0
938.0
940.0
941.0
945.0
951.0
953.0
952.0
955.0
959.0
964.0
970.0
972.0
974.0
977.0
980.0
986.0
989.0
993.0
996.0
997.0
999.0
1004.0
1009.0
1009.0
1011.0
1015.0
1015.0
1021.0
1024.0
1025.0
1025.0
1026.0
1028.0
1029.0
1030.0
1028.0
1027.0
1025.0
1022.0
1021.0
1019.0
1016.0
1010.0
1004.0
1000.0
997.0
992.0
988.0
982.0
977.0
971.0
970.0
969.0
965.0
960.0
956.0
955.0
956.0
956.0
953.0
951.0
950.0
947.0
948.0
948.0
949.0
948.0
947.0
946.0
945.0
949.0
950.0
948.0
945.0
944.0
948.0
949.0
951.0
949.0
949.0
948.0
951.0
951.0
954.0
954.0
953.0
952.0
954.0
957.0
957.0
955.0
955.0
955.0
957.0
958.0
960.0
958.0
958.0
957.0
957.0
960.0
960.0
958.0
957.0
954.0
956.0
957.0
958.0
957.0
953.0
954.0
955.0
952.0
953.0
951.0
951.0
949.0
949.0
952.0
949.0
947.0
947.0
942.0
943.0
946.0
945.0
943.0
943.0
944.0
945.0
943.0
946.0
943.0
940.0
940.0
944.0
942.0
942.0
941.0
937.0
938.0
940.0
940.0
939.0
939.0
936.0
937.0
938.0
938.0
940.0
939.0
937.0
935.0
937.0
940.0
939.0
938.0
937.0
933.0
938.0
939.0
940.0
939.0
938.0
936.0
937.0
941.0
937.0
938.0
937.0
936.0
939.0
942.0
939.0
938.0
939.0
939.0
939.0
944.0
945.0
950.0
949.0
948.0
952.0
956.0
957.0
957.0
958.0
958.0
958.0
962.0
965.0
964.0
962.0
962.0
964.0
963.0
964.0
961.0
957.0
953.0
954.0
953.0
953.0
956.0
956.0
956.0
956.0
956.0
952.0
949.0
945.0
943.0
945.0
944.0
943.0
940.0
939.0
935.0
934.0
937.0
936.0
934.0
934.0
932.0
934.0
935.0
934.0
935.0
933.0
932.0
932.0
935.0
935.0
935.0
931.0
933.0
933.0
935.0
935.0
936.0
931.0
931.0
935.0
938.0
939.0
938.0
935.0
936.0
937.0
935.0
927.0
912.0
904.0
907.0
921.0
941.0
965.0
1016.0
1087.0
1169.0
1249.0
1319.0
1371.0
1390.0
1372.0
1305.0
1189.0
1076.0
981.0
933.0
919.0
917.0
926.0
946.0
961.0
963.0
955.0
948.0
948.0
948.0
950.0
947.0
943.0
938.0
933.0
939.0
936.0
935.0
936.0
933.0
934.0
938.0
938.0
935.0
934.0
933.0
936.0
937.0
939.0
938.0
936.0
936.0
937.0
940.0
942.0
941.0
938.0
938.0
942.0
944.0
947.0
944.0
945.0
944.0
947.0
950.0
952.0
952.0
952.0
951.0
957.0
960.0
963.0
963.0
963.0
965.0
968.0
974.0
978.0
979.0
982.0
983.0
989.0
993.0
999.0
1001.0
1003.0
1005.0
1012.0
1018.0
1023.0
1022.0
1027.0
1028.0
1032.0
1038.0
1040.0
1041.0
1043.0
1043.0
1045.0
1051.0
1052.0
1052.0
1051.0
1049.0
1050.0
1050.0
1051.0
1047.0
1042.0
1039.0
1039.0
1036.0
1033.0
1030.0
1023.0
1016.0
1012.0
1011.0
1006.0
1001.0
998.0
992.0
992.0
990.0
988.0
987.0
982.0
980.0
980.0
980.0
979.0
976.0
975.0
974.0
975.0
978.0
977.0
977.0
974.0
974.0
978.0
979.0
981.0
979.0
977.0
977.0
977.0
980.0
981.0
980.0
980.0
979.0
984.0
983.0
984.0
985.0
982.0
982.0
985.0
987.0
989.0
987.0
987.0
987.0
986.0
988.0
989.0
990.0
988.0
987.0
989.0
986.0
991.0
989.0
986.0
987.0
988.0
990.0
991.0
988.0
987.0
985.0
987.0
987.0
987.0
985.0
983.0
981.0
983.0
984.0
984.0
982.0
981.0
978.0
980.0
980.0
980.0
978.0
977.0
975.0
978.0
977.0
977.0
978.0
976.0
973.0
974.0
975.0
976.0
971.0
970.0
971.0
974.0
973.0
973.0
972.0
970.0
969.0
970.0
971.0
973.0
969.0
968.0
967.0
970.0
971.0
971.0
969.0
969.0
968.0
970.0
968.0
971.0
970.0
968.0
968.0
969.0
970.0
972.0
970.0
969.0
970.0
973.0
977.0
981.0
982.0
983.0
984.0
987.0
988.0
989.0
988.0
989.0
990.0
992.0
995.0
995.0
994.0
993.0
993.0
995.0
993.0
990.0
988.0
981.0
981.0
984.0
987.0
988.0
986.0
984.0
982.0
980.0
978.0
976.0
973.0
971.0
969.0
967.0
966.0
966.0
964.0
962.0
961.0
961.0
963.0
963.0
963.0
959.0
960.0
963.0
964.0
962.0
959.0
960.0
958.0
960.0
958.0
960.0
959.0
961.0
960.0
961.0
964.0
961.0
964.0
963.0
961.0
965.0
964.0
966.0
964.0
961.0
959.0
951.0
940.0
931.0
932.0
941.0
957.0
982.0
1033.0
1107.0
1191.0
1265.0
1330.0
1382.0
1402.0
1395.0
1336.0
1229.0
1105.0
1010.0
959.0
944.0
941.0
952.0
969.0
985.0
988.0
981.0
976.0
974.0
973.0
972.0
972.0
968.0
965.0
962.0
962.0
961.0
960.0
963.0
962.0
959.0
957.0
959.0
961.0
960.0
958.0
956.0
957.0
959.0
958.0
958.0
957.0
958.0
959.0
959.0
962.0
961.0
962.0
961.0
960.0
963.0
965.0
966.0
966.0
963.0
965.0
966.0
969.0
972.0
971.0
971.0
972.0
974.0
978.0
980.0
981.0
983.0
984.0
987.0
993.0
995.0
996.0
999.0
1002.0
1007.0
1011.0
1015.0
1017.0
1017.0
1021.0
1028.0
1033.0
1035.0
1034.0
1036.0
1037.0
1042.0
1044.0
1049.0
1050.0
1050.0
1050.0
1055.0
1057.0
1057.0
1057.0
1056.0
1054.0
1055.0
1057.0
1055.0
1047.0
1044.0
1041.0
1039.0
1038.0
1034.0
1028.0
1022.0
1017.0
1014.0
1012.0
1006.0
1002.0
996.0
992.0
991.0
992.0
990.0
987.0
984.0
980.0
980.0
980.0
979.0
980.0
974.0
974.0
975.0
978.0
979.0
976.0
973.0
972.0
973.0
975.0
976.0
974.0
974.0
972.0
975.0
976.0
975.0
975.0
973.0
973.0
977.0
981.0
980.0
981.0
976.0
976.0
981.0
981.0
980.0
977.0
978.0
978.0
980.0
981.0
982.0
980.0
979.0
978.0
980.0
981.0
983.0
979.0
979.0
982.0
979.0
981.0
981.0
979.0
976.0
976.0
979.0
979.0
979.0
978.0
976.0
975.0
973.0
975.0
975.0
975.0
972.0
973.0
973.0
974.0
972.0
970.0
969.0
966.0
968.0
966.0
967.0
967.0
961.0
960.0
962.0
965.0
965.0
963.0
959.0
958.0
959.0
958.0
962.0
960.0
958.0
956.0
959.0
960.0
959.0
957.0
954.0
954.0
953.0
957.0
955.0
955.0
953.0
951.0
955.0
956.0
957.0
954.0
953.0
951.0
951.0
955.0
955.0
952.0
950.0
948.0
949.0
953.0
953.0
950.0
950.0
950.0
953.0
957.0
958.0
958.0
959.0
962.0
965.0
969.0
969.0
968.0
966.0
968.0
970.0
971.0
971.0
972.0
971.0
970.0
970.0
969.0
966.0
963.0
958.0
956.0
958.0
961.0
964.0
964.0
962.0
956.0
955.0
955.0
953.0
952.0
948.0
945.0
945.0
948.0
945.0
943.0
940.0
937.0
937.0
941.0
939.0
937.0
937.0
935.0
938.0
938.0
939.0
939.0
936.0
932.0
936.0
935.0
936.0
935.0
933.0
931.0
932.0
936.0
935.0
936.0
936.0
935.0
937.0
938.0
938.0
937.0
933.0
931.0
925.0
916.0
906.0
903.0
911.0
922.0
941.0
971.0
1022.0
1091.0
1157.0
1219.0
1281.0
1329.0
1353.0
1355.0
1322.0
1245.0
1140.0
1039.0
973.0
935.0
915.0
906.0
909.0
928.0
946.0
953.0
949.0
943.0
943.0
944.0
946.0
942.0
936.0
932.0
931.0
931.0
929.0
932.0
928.0
927.0
927.0
929.0
930.0
928.0
924.0
925.0
927.0
929.0
929.0
928.0
926.0
926.0
925.0
929.0
929.0
929.0
927.0
928.0
928.0
929.0
930.0
930.0
930.0
928.0
930.0
933.0
933.0
931.0
932.0
934.0
935.0
938.0
938.0
939.0
938.0
936.0
943.0
947.0
946.0
948.0
947.0
948.0
952.0
957.0
956.0
958.0
962.0
963.0
969.0
972.0
975.0
979.0
981.0
980.0
986.0
991.0
993.0
996.0
996.0
997.0
1002.0
1006.0
1008.0
1011.0
1010.0
1012.0
1015.0
1020.0
1020.0
1019.0
1019.0
1019.0
1023.0
1023.0
1023.0
1020.0
1018.0
1016.0
1014.0
1014.0
1012.0
1007.0
1004.0
998.0
996.0
993.0
989.0
984.0
977.0
975.0
972.0
970.0
969.0
965.0
960.0
958.0
959.0
958.0
954.0
953.0
952.0
949.0
951.0
949.0
948.0
949.0
944.0
943.0
947.0
946.0
948.0
946.0
944.0
942.0
945.0
945.0
946.0
947.0
944.0
944.0
944.0
947.0
946.0
949.0
947.0
946.0
947.0
950.0
951.0
949.0
950.0
948.0
948.0
951.0
953.0
953.0
952.0
951.0
950.0
953.0
956.0
953.0
952.0
951.0
954.0
955.0
954.0
951.0
951.0
952.0
950.0
953.0
953.0
952.0
948.0
950.0
950.0
949.0
951.0
948.0
945.0
945.0
946.0
946.0
946.0
943.0
941.0
940.0
941.0
943.0
942.0
937.0
938.0
935.0
937.0
938.0
938.0
935.0
935.0
935.0
935.0
936.0
936.0
934.0
932.0
931.0
931.0
932.0
933.0
931.0
930.0
927.0
931.0
931.0
931.0
928.0
929.0
925.0
929.0
931.0
930.0
928.0
925.0
926.0
929.0
931.0
931.0
930.0
930.0
933.0
937.0
942.0
944.0
943.0
943.0
941.0
945.0
947.0
951.0
948.0
946.0
944.0
944.0
948.0
949.0
949.0
946.0
942.0
941.0
939.0
937.0
936.0
935.0
935.0
942.0
941.0
940.0
936.0
930.0
926.0
927.0
926.0
923.0
922.0
919.0
918.0
913.0
915.0
914.0
911.0
912.0
911.0
912.0
913.0
913.0
914.0
910.0
909.0
912.0
913.0
912.0
913.0
910.0
911.0
913.0
915.0
913.0
912.0
909.0
908.0
907.0
901.0
889.0
879.0
879.0
893.0
911.0
935.0
983.0
1051.0
1127.0
1202.0
1272.0
1323.0
1348.0
1344.0
1306.0
1222.0
1114.0
1015.0
943.0
901.0
889.0
891.0
899.0
917.0
931.0
934.0
928.0
921.0
920.0
920.0
918.0
916.0
913.0
910.0
908.0
909.0
908.0
905.0
902.0
897.0
901.0
904.0
903.0
902.0
900.0
900.0
902.0
904.0
904.0
902.0
901.0
902.0
901.0
904.0
905.0
903.0
903.0
903.0
904.0
906.0
906.0
906.0
903.0
905.0
905.0
909.0
910.0
911.0
909.0
910.0
912.0
916.0
914.0
915.0
916.0
915.0
920.0
920.0
924.0
924.0
925.0
926.0
929.0
934.0
935.0
940.0
941.0
941.0
950.0
954.0
958.0
958.0
962.0
964.0
968.0
975.0
979.0
983.0
983.0
986.0
990.0
995.0
996.0
999.0
1000.0
1001.0
1003.0
1006.0
1011.0
1009.0
1010.0
1011.0
1012.0
1014.0
1015.0
1012.0
1008.0
1008.0
1005.0
1007.0
1005.0
999.0
994.0
989.0
988.0
984.0
980.0
976.0
970.0
962.0
958.0
957.0
952.0
950.0
947.0
939.0
938.0
941.0
939.0
933.0
931.0
930.0
929.0
930.0
931.0
930.0
927.0
923.0
925.0
925.0
927.0
926.0
925.0
924.0
926.0
926.0
926.0
928.0
923.0
926.0
926.0
929.0
927.0
929.0
928.0
922.0
927.0
929.0
930.0
930.0
930.0
929.0
932.0
933.0
935.0
935.0
934.0
933.0
936.0
937.0
938.0
935.0
936.0
935.0
937.0
937.0
938.0
936.0
935.0
935.0
936.0
938.0
937.0
934.0
932.0
934.0
932.0
935.0
934.0
932.0
932.0
931.0
932.0
933.0
930.0
929.0
928.0
925.0
926.0
929.0
929.0
926.0
923.0
921.0
922.0
924.0
925.0
923.0
921.0
920.0
921.0
924.0
922.0
921.0
919.0
920.0
919.0
921.0
921.0
920.0
918.0
917.0
915.0
918.0
918.0
915.0
915.0
914.0
916.0
916.0
916.0
915.0
914.0
915.0
915.0
916.0
915.0
915.0
914.0
911.0
913.0
914.0
914.0
915.0
913.0
915.0
915.0
919.0
918.0
919.0
920.0
921.0
927.0
932.0
932.0
931.0
931.0
929.0
932.0
936.0
937.0
937.0
936.0
934.0
936.0
939.0
941.0
940.0
936.0
934.0
932.0
932.0
927.0
927.0
927.0
929.0
931.0
931.0
929.0
924.0
921.0
918.0
920.0
919.0
916.0
913.0
910.0
908.0
907.0
908.0
905.0
904.0
902.0
902.0
904.0
904.0
905.0
903.0
901.0
900.0
902.0
904.0
901.0
899.0
901.0
902.0
903.0
908.0
906.0
906.0
906.0
904.0
902.0
897.0
886.0
877.0
872.0
878.0
892.0
912.0
944.0
1004.0
1077.0
1155.0
1230.0
1297.0
1344.0
1361.0
1343.0
1273.0
1169.0
1058.0
969.0
911.0
893.0
885.0
888.0
895.0
912.0
925.0
927.0
921.0
916.0
915.0
914.0
914.0
913.0
910.0
906.0
908.0
905.0
904.0
902.0
899.0
904.0
903.0
903.0
901.0
900.0
898.0
900.0
903.0
902.0
902.0
899.0
898.0
900.0
901.0
900.0
900.0
900.0
898.0
899.0
902.0
904.0
901.0
901.0
903.0
904.0
907.0
907.0
906.0
906.0
906.0
908.0
909.0
911.0
912.0
911.0
912.0
914.0
920.0
921.0
919.0
919.0
922.0
927.0
931.0
934.0
935.0
936.0
938.0
944.0
947.0
948.0
951.0
956.0
959.0
963.0
969.0
971.0
975.0
977.0
980.0
987.0
990.0
991.0
993.0
994.0
996.0
999.0
1004.0
1005.0
1007.0
1008.0
1007.0
1010.0
1013.0
1015.0
1014.0
1013.0
1009.0
1011.0
1010.0
1008.0
1005.0
1000.0
996.0
996.0
993.0
990.0
983.0
977.0
972.0
969.0
964.0
961.0
955.0
952.0
948.0
945.0
947.0
941.0
939.0
936.0
933.0
934.0
936.0
933.0
931.0
929.0
928.0
930.0
930.0
929.0
928.0
927.0
927.0
930.0
930.0
930.0
929.0
927.0
928.0
929.0
931.0
932.0
931.0
928.0
927.0
930.0
933.0
935.0
933.0
931.0
932.0
933.0
937.0
936.0
936.0
934.0
934.0
936.0
936.0
936.0
934.0
935.0
935.0
938.0
938.0
940.0
939.0
939.0
937.0
940.0
939.0
938.0
937.0
937.0
936.0
937.0
940.0
941.0
937.0
936.0
935.0
935.0
935.0
935.0
935.0
932.0
930.0
932.0
933.0
932.0
931.0
929.0
928.0
931.0
932.0
930.0
928.0
928.0
925.0
928.0
929.0
929.0
925.0
925.0
923.0
923.0
924.0
924.0
923.0
922.0
923.0
924.0
924.0
927.0
923.0
920.0
919.0
922.0
923.0
922.0
922.0
919.0
918.0
920.0
922.0
923.0
923.0
921.0
921.0
923.0
921.0
922.0
921.0
921.0
919.0
923.0
926.0
924.0
923.0
924.0
922.0
924.0
926.0
929.0
930.0
928.0
929.0
933.0
937.0
936.0
939.0
940.0
937.0
941.0
944.0
943.0
946.0
946.0
946.0
946.0
946.0
947.0
947.0
946.0
943.0
945.0
945.0
942.0
940.0
937.0
936.0
936.0
942.0
943.0
945.0
941.0
941.0
937.0
937.0
935.0
932.0
928.0
923.0
923.0
924.0
923.0
924.0
920.0
918.0
918.0
919.0
919.0
916.0
915.0
914.0
917.0
918.0
918.0
918.0
916.0
915.0
915.0
919.0
918.0
917.0
917.0
915.0
919.0
921.0
921.0
919.0
914.0
914.0
909.0
904.0
896.0
888.0
891.0
902.0
916.0
932.0
965.0
1017.0
1084.0
1150.0
1211.0
1270.0
1320.0
1349.0
1357.0
1333.0
1268.0
1174.0
1072.0
990.0
936.0
906.0
897.0
903.0
911.0
927.0
940.0
940.0
937.0
935.0
933.0
930.0
925.0
923.0
927.0
926.0
925.0
921.0
916.0
917.0
917.0
918.0
918.0
917.0
915.0
912.0
915.0
916.0
916.0
914.0
914.0
910.0
914.0
916.0
917.0
914.0
916.0
915.0
916.0
919.0
919.0
918.0
916.0
916.0
918.0
924.0
923.0
921.0
921.0
922.0
923.0
926.0
925.0
926.0
925.0
926.0
928.0
932.0
933.0
936.0
936.0
935.0
938.0
944.0
945.0
947.0
948.0
949.0
952.0
959.0
961.0
964.0
967.0
970.0
974.0
981.0
983.0
984.0
986.0
990.0
997.0
999.0
1004.0
1006.0
1006.0
1008.0
1013.0
1017.0
1020.0
1021.0
1023.0
1022.0
1027.0
1030.0
1031.0
1029.0
1027.0
1026.0
1028.0
1029.0
1027.0
1024.0
1022.0
1018.0
1017.0
1014.0
1015.0
1009.0
1002.0
999.0
994.0
992.0
988.0
983.0
979.0
976.0
973.0
971.0
967.0
964.0
962.0
958.0
959.0
960.0
957.0
956.0
953.0
950.0
954.0
955.0
953.0
952.0
948.0
950.0
951.0
951.0
951.0
950.0
951.0
949.0
948.0
953.0
954.0
952.0
954.0
950.0
953.0
957.0
957.0
957.0
956.0
955.0
956.0
960.0
959.0
960.0
962.0
958.0
961.0
963.0
961.0
960.0
961.0
960.0
962.0
964.0
965.0
964.0
961.0
961.0
964.0
964.0
963.0
963.0
962.0
962.0
962.0
964.0
964.0
962.0
960.0
960.0
962.0
962.0
962.0
958.0
959.0
957.0
958.0
957.0
958.0
954.0
955.0
952.0
956.0
956.0
954.0
952.0
950.0
948.0
948.0
951.0
950.0
948.0
946.0
946.0
947.0
947.0
947.0
945.0
940.0
941.0
944.0
947.0
945.0
945.0
943.0
942.0
943.0
947.0
946.0
945.0
942.0
943.0
945.0
948.0
944.0
943.0
945.0
943.0
944.0
947.0
947.0
948.0
946.0
945.0
950.0
953.0
955.0
954.0
956.0
957.0
958.0
961.0
960.0
964.0
963.0
964.0
967.0
968.0
967.0
966.0
967.0
966.0
966.0
966.0
963.0
960.0
955.0
954.0
955.0
960.0
961.0
961.0
960.0
957.0
953.0
954.0
950.0
948.0
944.0
942.0
941.0
943.0
939.0
938.0
937.0
936.0
936.0
939.0
933.0
936.0
934.0
932.0
934.0
937.0
936.0
935.0
934.0
934.0
937.0
938.0
938.0
935.0
935.0
932.0
936.0
936.0
928.0
919.0
905.0
896.0
901.0
911.0
926.0
945.0
981.0
1042.0
1121.0
1197.0
1270.0
1336.0
1378.0
1396.0
1388.0
1339.0
1237.0
1121.0
1019.0
949.0
921.0
917.0
921.0
929.0
946.0
956.0
959.0
954.0
949.0
945.0
944.0
943.0
942.0
943.0
937.0
934.0
931.0
928.0
931.0
934.0
930.0
929.0
927.0
927.0
928.0
930.0
928.0
929.0
927.0
926.0
928.0
929.0
929.0
929.0
928.0
926.0
929.0
931.0
932.0
931.0
932.0
932.0
932.0
934.0
934.0
936.0
935.0
936.0
939.0
942.0
941.0
943.0
941.0
942.0
946.0
949.0
949.0
952.0
952.0
953.0
958.0
962.0
964.0
966.0
967.0
970.0
976.0
981.0
983.0
987.0
988.0
992.0
999.0
1005.0
1005.0
1009.0
1011.0
1013.0
1019.0
1023.0
1027.0
1029.0
1031.0
1031.0
1036.0
1041.0
1044.0
1044.0
1044.0
1045.0
1047.0
1051.0
1049.0
1047.0
1047.0
1045.0
1046.0
1045.0
1040.0
1033.0
1030.0
1025.0
1023.0
1021.0
1013.0
1008.0
999.0
995.0
992.0
990.0
984.0
982.0
977.0
975.0
972.0
971.0
968.0
966.0
966.0
964.0
964.0
965.0
965.0
962.0
961.0
961.0
961.0
965.0
963.0
962.0
962.0
961.0
963.0
966.0
963.0
963.0
961.0
961.0
961.0
966.0
963.0
963.0
965.0
964.0
966.0
970.0
968.0
968.0
968.0
966.0
970.0
972.0
970.0
970.0
969.0
970.0
969.0
974.0
974.0
970.0
967.0
968.0
971.0
973.0
970.0
967.0
967.0
967.0
970.0
974.0
970.0
968.0
965.0
962.0
965.0
968.0
964.0
964.0
962.0
962.0
962.0
963.0
962.0
960.0
960.0
956.0
959.0
960.0
956.0
955.0
952.0
952.0
953.0
955.0
955.0
954.0
954.0
952.0
950.0
955.0
952.0
951.0
950.0
949.0
951.0
952.0
951.0
953.0
948.0
949.0
950.0
951.0
952.0
951.0
950.0
949.0
952.0
953.0
951.0
952.0
948.0
949.0
951.0
954.0
953.0
955.0
958.0
961.0
962.0
967.0
966.0
968.0
966.0
967.0
971.0
976.0
974.0
973.0
972.0
973.0
977.0
977.0
974.0
972.0
969.0
966.0
964.0
963.0
964.0
966.0
965.0
966.0
969.0
967.0
960.0
954.0
952.0
949.0
953.0
952.0
947.0
948.0
943.0
942.0
944.0
945.0
943.0
940.0
939.0
939.0
940.0
942.0
941.0
939.0
938.0
936.0
940.0
945.0
942.0
941.0
940.0
939.0
940.0
943.0
941.0
932.0
919.0
909.0
907.0
918.0
933.0
953.0
990.0
1052.0
1132.0
1213.0
1282.0
1341.0
1381.0
1396.0
1376.0
1306.0
1191.0
1070.0
979.0
934.0
921.0
921.0
927.0
945.0
961.0
967.0
963.0
958.0
952.0
951.0
951.0
949.0
948.0
948.0
