# Simple Text Format
# Sampling Rate (Hz):= 360.00
# Resolution:= 12
# Labels:= ECG
942.0
940.0
939.0
941.0
937.0
935.0
931.0
932.0
930.0
930.0
931.0
931.0
932.0
931.0
927.0
927.0
930.0
930.0
927.0
928.0
928.0
929.0
931.0
931.0
930.0
929.0
927.0
929.0
932.0
933.0
931.0
932.0
930.0
932.0
936.0
937.0
935.0
936.0
936.0
942.0
945.0
946.0
947.0
947.0
946.0
952.0
958.0
960.0
962.0
964.0
966.0
970.0
975.0
978.0
981.0
984.0
988.0
994.0
996.0
1003.0
1003.0
1009.0
1007.0
1012.0
1018.0
1022.0
1022.0
1023.0
1023.0
1027.0
1030.0
1032.0
1032.0
1031.0
1035.0
1037.0
1039.0
1035.0
1035.0
1032.0
1028.0
1026.0
1026.0
1023.0
1018.0
1013.0
1008.0
1000.0
997.0
992.0
988.0
984.0
978.0
978.0
974.0
973.0
970.0
966.0
964.0
959.0
963.0
962.0
958.0
957.0
954.0
958.0
961.0
959.0
957.0
957.0
958.0
958.0
962.0
960.0
960.0
956.0
958.0
961.0
964.0
964.0
963.0
962.0
962.0
964.0
965.0
967.0
964.0
963.0
965.0
966.0
967.0
968.0
965.0
965.0
963.0
965.0
966.0
967.0
966.0
967.0
965.0
965.0
967.0
967.0
966.0
966.0
967.0
967.0
967.0
968.0
964.0
964.0
962.0
961.0
965.0
965.0
965.0
963.0
962.0
962.0
962.0
961.0
960.0
959.0
958.0
960.0
961.0
960.0
960.0
957.0
956.0
957.0
956.0
956.0
954.0
955.0
954.0
954.0
956.0
956.0
956.0
953.0
952.0
953.0
955.0
957.0
954.0
954.0
953.0
955.0
960.0
963.0
967.0
966.0
967.0
967.0
970.0
971.0
970.0
968.0
969.0
972.0
975.0
976.0
974.0
972.0
975.0
978.0
975.0
973.0
970.0
968.0
962.0
961.0
964.0
966.0
966.0
966.0
964.0
964.0
963.0
963.0
960.0
954.0
952.0
953.0
950.0
950.0
947.0
943.0
942.0
942.0
942.0
941.0
942.0
939.0
936.0
939.0
940.0
941.0
942.0
941.0
939.0
940.0
943.0
943.0
942.0
939.0
939.0
939.0
934.0
922.0
909.0
901.0
905.0
913.0
929.0
956.0
1004.0
1074.0
1152.0
1230.0
1302.0
1352.0
1373.0
1362.0
1310.0
1217.0
1104.0
1004.0
938.0
912.0
913.0
924.0
944.0
960.0
965.0
960.0
953.0
951.0
951.0
949.0
949.0
942.0
939.0
937.0
938.0
938.0
935.0
932.0
932.0
932.0
933.0
932.0
930.0
931.0
931.0
933.0
935.0
935.0
934.0
931.0
931.0
933.0
937.0
935.0
935.0
934.0
934.0
935.0
936.0
937.0
939.0
938.0
938.0
942.0
943.0
944.0
947.0
946.0
947.0
948.0
953.0
956.0
956.0
957.0
960.0
962.0
966.0
972.0
973.0
975.0
978.0
984.0
990.0
993.0
997.0
999.0
1003.0
1010.0
1015.0
1018.0
1020.0
1022.0
1021.0
1026.0
1031.0
1032.0
1036.0
1033.0
1036.0
1040.0
1039.0
1042.0
1041.0
1040.0
1039.0
1039.0
1037.0
1035.0
1031.0
1026.0
1022.0
1018.0
1014.0
1011.0
1004.0
998.0
993.0
991.0
987.0
986.0
980.0
974.0
972.0
971.0
969.0
967.0
966.0
962.0
961.0
960.0
961.0
961.0
961.0
959.0
959.0
961.0
962.0
961.0
958.0
958.0
957.0
961.0
964.0
963.0
960.0
962.0
960.0
958.0
962.0
965.0
967.0
965.0
964.0
964.0
963.0
966.0
967.0
966.0
964.0
967.0
970.0
971.0
969.0
964.0
965.0
966.0
969.0
969.0
968.0
967.0
965.0
967.0
968.0
968.0
964.0
967.0
966.0
967.0
969.0
966.0
963.0
962.0
959.0
961.0
964.0
964.0
960.0
959.0
956.0
961.0
960.0
960.0
959.0
954.0
957.0
955.0
958.0
957.0
956.0
955.0
953.0
953.0
956.0
956.0
958.0
955.0
954.0
954.0
957.0
953.0
950.0
952.0
953.0
953.0
954.0
953.0
953.0
953.0
956.0
958.0
960.0
966.0
968.0
966.0
966.0
967.0
968.0
968.0
969.0
969.0
971.0
971.0
973.0
972.0
972.0
973.0
970.0
971.0
973.0
971.0
967.0
964.0
960.0
960.0
964.0
965.0
965.0
963.0
957.0
956.0
956.0
953.0
951.0
946.0
942.0
944.0
944.0
941.0
939.0
938.0
936.0
936.0
936.0
937.0
938.0
936.0
931.0
936.0
938.0
938.0
938.0
937.0
934.0
936.0
938.0
939.0
937.0
932.0
927.0
919.0
906.0
899.0
899.0
905.0
920.0
947.0
990.0
1059.0
1139.0
1214.0
1285.0
1342.0
1370.0
1367.0
1328.0
1245.0
1128.0
1019.0
944.0
912.0
905.0
913.0
926.0
947.0
958.0
958.0
951.0
945.0
942.0
941.0
940.0
942.0
937.0
932.0
929.0
926.0
929.0
928.0
925.0
922.0
922.0
921.0
924.0
926.0
922.0
921.0
921.0
920.0
923.0
924.0
923.0
923.0
922.0
925.0
927.0
928.0
927.0
924.0
925.0
926.0
928.0
928.0
929.0
928.0
929.0
931.0
935.0
938.0
936.0
935.0
931.0
936.0
938.0
943.0
944.0
944.0
943.0
949.0
950.0
952.0
954.0
956.0
957.0
962.0
967.0
973.0
975.0
976.0
978.0
982.0
987.0
993.0
996.0
996.0
997.0
1005.0
1009.0
1010.0
1012.0
1014.0
1015.0
1019.0
1022.0
1025.0
1027.0
1027.0
1025.0
1029.0
1031.0
1033.0
1030.0
1030.0
1025.0
1026.0
1023.0
1023.0
1018.0
1011.0
1004.0
1002.0
1001.0
996.0
991.0
984.0
979.0
980.0
977.0
974.0
969.0
965.0
961.0
962.0
963.0
959.0
957.0
953.0
950.0
951.0
952.0
953.0
951.0
948.0
950.0
951.0
952.0
953.0
949.0
948.0
948.0
949.0
951.0
953.0
952.0
950.0
949.0
949.0
952.0
953.0
953.0
953.0
952.0
954.0
957.0
957.0
956.0
955.0
952.0
956.0
957.0
954.0
954.0
954.0
953.0
954.0
956.0
957.0
955.0
954.0
953.0
954.0
956.0
957.0
957.0
954.0
951.0
952.0
953.0
954.0
954.0
953.0
953.0
953.0
953.0
952.0
950.0
948.0
945.0
946.0
949.0
951.0
949.0
945.0
944.0
946.0
948.0
947.0
946.0
943.0
943.0
943.0
945.0
943.0
942.0
938.0
936.0
940.0
941.0
942.0
941.0
940.0
936.0
937.0
938.0
941.0
940.0
936.0
936.0
937.0
941.0
940.0
940.0
938.0
933.0
936.0
936.0
939.0
939.0
940.0
941.0
943.0
946.0
950.0
953.0
953.0
948.0
949.0
951.0
953.0
952.0
953.0
957.0
959.0
960.0
957.0
957.0
958.0
960.0
960.0
959.0
958.0
955.0
951.0
945.0
947.0
947.0
950.0
952.0
950.0
952.0
951.0
952.0
946.0
943.0
941.0
939.0
938.0
937.0
935.0
934.0
933.0
929.0
931.0
931.0
931.0
927.0
926.0
925.0
926.0
926.0
928.0
926.0
925.0
925.0
925.0
924.0
925.0
925.0
924.0
922.0
927.0
925.0
927.0
926.0
922.0
913.0
902.0
896.0
895.0
904.0
915.0
934.0
974.0
1035.0
1104.0
1169.0
1234.0
1292.0
1335.0
1354.0
1343.0
1291.0
1205.0
1103.0
1021.0
961.0
924.0
907.0
904.0
915.0
938.0
952.0
950.0
940.0
932.0
928.0
929.0
929.0
931.0
928.0
924.0
921.0
922.0
924.0
921.0
921.0
919.0
917.0
918.0
921.0
921.0
919.0
915.0
912.0
915.0
918.0
916.0
915.0
915.0
916.0
920.0
921.0
920.0
920.0
918.0
916.0
923.0
923.0
923.0
922.0
923.0
921.0
923.0
925.0
927.0
927.0
925.0
929.0
930.0
932.0
934.0
932.0
932.0
936.0
938.0
941.0
945.0
946.0
951.0
950.0
954.0
960.0
963.0
964.0
967.0
972.0
976.0
984.0
986.0
990.0
990.0
991.0
995.0
997.0
1002.0
1006.0
1004.0
1006.0
1011.0
1011.0
1016.0
1019.0
1020.0
1021.0
1021.0
1021.0
1022.0
1021.0
1018.0
1013.0
1011.0
1010.0
1010.0
1006.0
1002.0
998.0
996.0
994.0
988.0
984.0
978.0
974.0
972.0
970.0
967.0
962.0
957.0
956.0
954.0
956.0
953.0
954.0
951.0
949.0
948.0
949.0
947.0
946.0
944.0
948.0
948.0
950.0
949.0
948.0
949.0
947.0
949.0
949.0
949.0
949.0
948.0
946.0
950.0
952.0
952.0
954.0
952.0
951.0
953.0
955.0
954.0
952.0
950.0
950.0
955.0
952.0
954.0
953.0
953.0
954.0
955.0
957.0
956.0
954.0
953.0
953.0
955.0
954.0
955.0
954.0
951.0
949.0
951.0
954.0
953.0
951.0
951.0
949.0
950.0
951.0
952.0
950.0
949.0
947.0
946.0
946.0
945.0
946.0
946.0
946.0
945.0
947.0
946.0
946.0
943.0
943.0
944.0
943.0
942.0
940.0
940.0
938.0
940.0
940.0
942.0
940.0
938.0
935.0
939.0
940.0
939.0
940.0
937.0
936.0
937.0
939.0
937.0
936.0
935.0
934.0
937.0
938.0
942.0
941.0
941.0
942.0
946.0
948.0
951.0
952.0
949.0
949.0
952.0
955.0
955.0
955.0
954.0
953.0
957.0
961.0
960.0
961.0
956.0
956.0
956.0
957.0
954.0
953.0
948.0
946.0
947.0
950.0
954.0
953.0
953.0
947.0
947.0
945.0
943.0
942.0
940.0
936.0
933.0
936.0
934.0
933.0
928.0
927.0
927.0
929.0
928.0
929.0
927.0
926.0
925.0
928.0
927.0
926.0
926.0
925.0
927.0
930.0
930.0
929.0
926.0
924.0
928.0
928.0
925.0
921.0
909.0
899.0
892.0
899.0
907.0
921.0
939.0
977.0
1036.0
1104.0
1172.0
1238.0
1298.0
1345.0
1366.0
1361.0
1317.0
1228.0
1117.0
1014.0
941.0
909.0
901.0
906.0
920.0
937.0
951.0
953.0
949.0
943.0
937.0
934.0
935.0
936.0
933.0
929.0
926.0
923.0
923.0
923.0
924.0
922.0
918.0
918.0
917.0
920.0
919.0
919.0
919.0
918.0
918.0
923.0
921.0
922.0
921.0
921.0
922.0
920.0
923.0
924.0
923.0
922.0
923.0
922.0
922.0
924.0
923.0
923.0
926.0
928.0
929.0
930.0
930.0
929.0
933.0
937.0
937.0
939.0
940.0
940.0
944.0
947.0
949.0
951.0
952.0
954.0
960.0
963.0
969.0
971.0
974.0
974.0
982.0
984.0
988.0
992.0
994.0
995.0
1001.0
1007.0
1009.0
1009.0
1012.0
1011.0
1016.0
1020.0
1022.0
1026.0
1023.0
1026.0
1028.0
1028.0
1027.0
1028.0
1026.0
1026.0
1024.0
1022.0
1015.0
1014.0
1008.0
1003.0
998.0
992.0
990.0
985.0
979.0
972.0
972.0
970.0
968.0
961.0
959.0
955.0
955.0
953.0
953.0
950.0
950.0
948.0
949.0
950.0
949.0
948.0
945.0
946.0
947.0
948.0
949.0
949.0
947.0
946.0
949.0
950.0
950.0
952.0
949.0
948.0
952.0
952.0
954.0
955.0
952.0
952.0
954.0
955.0
956.0
956.0
953.0
951.0
954.0
957.0
957.0
957.0
953.0
955.0
953.0
959.0
959.0
953.0
954.0
953.0
956.0
957.0
958.0
955.0
951.0
950.0
953.0
954.0
956.0
955.0
954.0
951.0
953.0
953.0
954.0
952.0
950.0
949.0
951.0
950.0
954.0
949.0
949.0
945.0
946.0
947.0
948.0
945.0
946.0
942.0
943.0
945.0
945.0
945.0
941.0
942.0
942.0
945.0
942.0
942.0
941.0
941.0
941.0
942.0
942.0
942.0
939.0
940.0
942.0
942.0
943.0
944.0
942.0
941.0
942.0
943.0
944.0
945.0
947.0
950.0
951.0
956.0
958.0
956.0
957.0
954.0
956.0
961.0
962.0
965.0
961.0
961.0
965.0
966.0
966.0
968.0
967.0
965.0
963.0
964.0
963.0
959.0
953.0
950.0
952.0
955.0
957.0
956.0
956.0
952.0
952.0
948.0
949.0
947.0
941.0
940.0
939.0
940.0
940.0
939.0
935.0
933.0
934.0
937.0
933.0
932.0
932.0
933.0
931.0
935.0
934.0
933.0
931.0
931.0
931.0
934.0
933.0
933.0
932.0
932.0
934.0
931.0
929.0
917.0
904.0
895.0
900.0
911.0
925.0
952.0
994.0
1061.0
1144.0
1216.0
1283.0
1344.0
1380.0
1387.0
1364.0
1300.0
1192.0
1074.0
979.0
924.0
908.0
910.0
918.0
932.0
949.0
953.0
954.0
946.0
942.0
940.0
938.0
938.0
937.0
937.0
935.0
930.0
926.0
925.0
926.0
925.0
925.0
926.0
925.0
922.0
926.0
925.0
924.0
924.0
921.0
920.0
924.0
924.0
923.0
924.0
925.0
923.0
925.0
926.0
925.0
927.0
929.0
928.0
930.0
932.0
932.0
930.0
931.0
931.0
936.0
937.0
939.0
939.0
941.0
941.0
941.0
941.0
946.0
948.0
951.0
951.0
956.0
960.0
963.0
966.0
964.0
967.0
971.0
978.0
983.0
986.0
988.0
992.0
999.0
1002.0
1003.0
1008.0
1012.0
1013.0
1017.0
1022.0
1026.0
1028.0
1029.0
1031.0
1034.0
1038.0
1039.0
1040.0
1039.0
1042.0
1042.0
1040.0
1040.0
1039.0
1035.0
1030.0
1031.0
1028.0
1026.0
1022.0
1013.0
1009.0
1006.0
998.0
999.0
992.0
986.0
981.0
978.0
978.0
974.0
971.0
966.0
964.0
962.0
964.0
962.0
959.0
960.0
958.0
958.0
955.0
955.0
954.0
953.0
953.0
955.0
957.0
958.0
957.0
955.0
953.0
955.0
956.0
955.0
954.0
955.0
956.0
956.0
959.0
958.0
960.0
958.0
957.0
962.0
961.0
963.0
960.0
961.0
961.0
963.0
965.0
963.0
962.0
963.0
964.0
965.0
965.0
967.0
965.0
962.0
965.0
964.0
964.0
965.0
962.0
963.0
962.0
963.0
964.0
964.0
965.0
961.0
961.0
965.0
964.0
964.0
962.0
959.0
959.0
960.0
960.0
957.0
955.0
956.0
956.0
954.0
955.0
954.0
956.0
954.0
952.0
955.0
955.0
955.0
953.0
951.0
951.0
952.0
952.0
950.0
949.0
949.0
948.0
950.0
952.0
950.0
949.0
948.0
946.0
948.0
950.0
949.0
947.0
946.0
946.0
947.0
951.0
948.0
947.0
944.0
943.0
945.0
948.0
947.0
947.0
947.0
945.0
948.0
949.0
953.0
957.0
959.0
957.0
960.0
962.0
964.0
962.0
960.0
960.0
964.0
969.0
968.0
969.0
967.0
966.0
971.0
973.0
974.0
968.0
964.0
962.0
959.0
961.0
960.0
958.0
958.0
960.0
964.0
963.0
961.0
957.0
955.0
950.0
951.0
950.0
951.0
948.0
943.0
943.0
940.0
940.0
941.0
940.0
937.0
938.0
937.0
937.0
938.0
939.0
937.0
937.0
938.0
939.0
940.0
939.0
937.0
937.0
939.0
939.0
942.0
941.0
936.0
930.0
924.0
912.0
903.0
903.0
913.0
929.0
959.0
1014.0
1086.0
1169.0
1244.0
1313.0
1366.0
1390.0
1376.0
1308.0
1199.0
1080.0
988.0
933.0
915.0
912.0
921.0
942.0
958.0
960.0
953.0
947.0
944.0
943.0
942.0
941.0
941.0
938.0
935.0
933.0
929.0
931.0
934.0
933.0
934.0
931.0
930.0
933.0
932.0
929.0
931.0
930.0
931.0
934.0
933.0
933.0
931.0
930.0
932.0
935.0
935.0
934.0
936.0
936.0
936.0
937.0
941.0
938.0
939.0
940.0
942.0
944.0
946.0
946.0
947.0
947.0
948.0
952.0
954.0
956.0
957.0
960.0
966.0
969.0
973.0
976.0
978.0
978.0
984.0
990.0
996.0
999.0
1001.0
1002.0
1009.0
1011.0
1016.0
1016.0
1018.0
1022.0
1024.0
1032.0
1033.0
1033.0
1033.0
1032.0
1035.0
1039.0
1040.0
1041.0
1037.0
1036.0
1039.0
1039.0
1035.0
1033.0
1025.0
1022.0
1018.0
1018.0
1011.0
1004.0
1001.0
997.0
994.0
990.0
987.0
982.0
977.0
976.0
975.0
976.0
973.0
967.0
963.0
964.0
965.0
963.0
968.0
964.0
963.0
961.0
963.0
963.0
963.0
960.0
959.0
959.0
962.0
965.0
965.0
963.0
960.0
959.0
962.0
963.0
963.0
964.0
963.0
962.0
964.0
964.0
965.0
964.0
965.0
964.0
966.0
968.0
970.0
969.0
966.0
965.0
965.0
966.0
965.0
965.0
967.0
966.0
968.0
971.0
971.0
971.0
968.0
965.0
967.0
967.0
969.0
968.0
969.0
968.0
970.0
969.0
968.0
967.0
966.0
962.0
967.0
968.0
966.0
966.0
962.0
960.0
961.0
960.0
962.0
960.0
958.0
958.0
958.0
960.0
962.0
959.0
958.0
955.0
955.0
956.0
959.0
956.0
956.0
954.0
952.0
953.0
953.0
953.0
950.0
952.0
952.0
955.0
954.0
952.0
950.0
948.0
950.0
951.0
951.0
952.0
949.0
950.0
951.0
953.0
952.0
951.0
950.0
946.0
949.0
952.0
954.0
955.0
954.0
957.0
961.0
964.0
966.0
967.0
968.0
966.0
969.0
970.0
971.0
973.0
972.0
966.0
969.0
973.0
975.0
974.0
970.0
967.0
964.0
964.0
961.0
961.0
963.0
962.0
965.0
968.0
968.0
964.0
957.0
952.0
955.0
956.0
953.0
949.0
949.0
945.0
944.0
945.0
943.0
939.0
940.0
940.0
942.0
946.0
945.0
944.0
943.0
941.0
942.0
944.0
944.0
945.0
941.0
939.0
941.0
944.0
945.0
944.0
941.0
938.0
931.0
923.0
913.0
912.0
921.0
935.0
959.0
1001.0
1071.0
1144.0
1217.0
1289.0
1347.0
1378.0
1377.0
1334.0
1245.0
1132.0
1029.0
963.0
929.0
917.0
921.0
938.0
959.0
966.0
961.0
953.0
951.0
948.0
949.0
950.0
949.0
945.0
937.0
937.0
940.0
940.0
941.0
936.0
935.0
935.0
937.0
935.0
937.0
937.0
934.0
934.0
934.0
936.0
934.0
935.0
934.0
933.0
935.0
937.0
939.0
937.0
936.0
936.0
938.0
941.0
941.0
943.0
940.0
939.0
943.0
945.0
946.0
947.0
948.0
945.0
949.0
953.0
955.0
956.0
958.0
959.0
961.0
966.0
969.0
970.0
975.0
977.0
980.0
988.0
992.0
994.0
998.0
998.0
1002.0
1007.0
1013.0
1015.0
1016.0
1018.0
1022.0
1025.0
1029.0
1031.0
1031.0
1032.0
1037.0
1040.0
1043.0
1045.0
1046.0
1043.0
1046.0
1046.0
1045.0
1045.0
1042.0
1039.0
1038.0
1034.0
1032.0
1029.0
1024.0
1018.0
1014.0
1011.0
1008.0
1002.0
997.0
992.0
989.0
987.0
984.0
979.0
977.0
974.0
975.0
973.0
972.0
969.0
967.0
963.0
965.0
966.0
968.0
967.0
966.0
965.0
965.0
966.0
966.0
964.0
964.0
961.0
964.0
965.0
967.0
967.0
965.0
964.0
966.0
966.0
969.0
969.0
967.0
967.0
968.0
970.0
972.0
969.0
972.0
966.0
971.0
972.0
974.0
974.0
973.0
971.0
973.0
972.0
973.0
974.0
973.0
973.0
974.0
975.0
974.0
975.0
973.0
970.0
972.0
973.0
974.0
974.0
972.0
971.0
971.0
972.0
972.0
969.0
969.0
967.0
969.0
969.0
969.0
967.0
964.0
965.0
965.0
966.0
967.0
966.0
964.0
963.0
964.0
962.0
962.0
961.0
958.0
958.0
960.0
959.0
959.0
960.0
960.0
958.0
957.0
956.0
957.0
957.0
957.0
956.0
957.0
957.0
959.0
958.0
955.0
952.0
956.0
956.0
957.0
956.0
956.0
954.0
954.0
958.0
957.0
960.0
960.0
960.0
963.0
966.0
970.0
967.0
967.0
968.0
970.0
976.0
978.0
980.0
974.0
972.0
974.0
979.0
978.0
978.0
976.0
972.0
973.0
970.0
969.0
969.0
968.0
970.0
971.0
970.0
968.0
963.0
958.0
956.0
956.0
955.0
954.0
952.0
949.0
945.0
946.0
947.0
947.0
944.0
941.0
940.0
940.0
943.0
943.0
942.0
942.0
939.0
941.0
942.0
944.0
945.0
942.0
940.0
940.0
939.0
931.0
917.0
904.0
907.0
920.0
941.0
974.0
1033.0
1114.0
1198.0
1282.0
1352.0
1396.0
1403.0
1359.0
1264.0
1136.0
1022.0
952.0
922.0
918.0
927.0
944.0
961.0
969.0
959.0
952.0
949.0
949.0
950.0
948.0
946.0
938.0
936.0
935.0
934.0
933.0
932.0
934.0
932.0
933.0
934.0
935.0
932.0
931.0
930.0
932.0
933.0
933.0
935.0
932.0
931.0
933.0
935.0
936.0
934.0
935.0
935.0
938.0
939.0
939.0
941.0
938.0
939.0
939.0
943.0
946.0
946.0
944.0
946.0
949.0
952.0
954.0
956.0
957.0
961.0
963.0
967.0
971.0
974.0
975.0
979.0
982.0
987.0
995.0
997.0
998.0
1001.0
1005.0
1012.0
1016.0
1017.0
1022.0
1025.0
1029.0
1031.0
1038.0
1037.0
1038.0
1037.0
1043.0
1047.0
1048.0
1049.0
1050.0
1047.0
1046.0
1047.0
1046.0
1040.0
1036.0
1034.0
1031.0
1028.0
1024.0
1021.0
1014.0
1005.0
1004.0
1002.0
997.0
991.0
985.0
982.0
978.0
977.0
975.0
971.0
967.0
964.0
965.0
964.0
963.0
960.0
958.0
958.0
958.0
960.0
959.0
960.0
958.0
956.0
957.0
957.0
957.0
958.0
957.0
954.0
958.0
960.0
961.0
961.0
958.0
960.0
960.0
964.0
963.0
963.0
965.0
962.0
964.0
964.0
965.0
967.0
965.0
964.0
969.0
970.0
969.0
966.0
967.0
963.0
967.0
967.0
968.0
969.0
968.0
965.0
970.0
970.0
968.0
962.0
965.0
966.0
964.0
965.0
966.0
966.0
962.0
961.0
963.0
960.0
959.0
958.0
957.0
957.0
958.0
959.0
957.0
958.0
957.0
955.0
954.0
957.0
958.0
956.0
955.0
953.0
951.0
952.0
954.0
954.0
953.0
950.0
952.0
952.0
954.0
952.0
950.0
951.0
948.0
951.0
955.0
951.0
950.0
948.0
949.0
951.0
950.0
950.0
950.0
946.0
952.0
952.0
955.0
952.0
952.0
953.0
954.0
959.0
964.0
963.0
963.0
965.0
965.0
967.0
967.0
970.0
973.0
970.0
971.0
973.0
974.0
972.0
971.0
966.0
967.0
966.0
964.0
963.0
962.0
963.0
965.0
966.0
964.0
962.0
957.0
954.0
953.0
952.0
952.0
948.0
946.0
941.0
941.0
940.0
940.0
940.0
939.0
939.0
936.0
940.0
939.0
938.0
939.0
938.0
940.0
941.0
940.0
939.0
939.0
936.0
939.0
940.0
939.0
938.0
934.0
920.0
910.0
902.0
910.0
924.0
943.0
976.0
1038.0
1117.0
1201.0
1275.0
1333.0
1368.0
1373.0
1337.0
1257.0
1145.0
1039.0
966.0
930.0
921.0
927.0
940.0
953.0
957.0
955.0
951.0
948.0
945.0
942.0
940.0
941.0
939.0
936.0
937.0
933.0
928.0
929.0
930.0
929.0
930.0
928.0
927.0
927.0
930.0
931.0
928.0
924.0
923.0
927.0
929.0
931.0
930.0
928.0
929.0
928.0
930.0
930.0
932.0
933.0
934.0
933.0
935.0
937.0
937.0
936.0
938.0
941.0
942.0
946.0
946.0
946.0
948.0
950.0
954.0
955.0
958.0
961.0
963.0
964.0
970.0
972.0
975.0
978.0
982.0
985.0
988.0
994.0
998.0
1001.0
1002.0
1006.0
1012.0
1015.0
1019.0
1021.0
1022.0
1025.0
1030.0
1033.0
1035.0
1034.0
1033.0
1035.0
1038.0
1038.0
1039.0
1038.0
1039.0
1038.0
1038.0
1037.0
1033.0
1026.0
1024.0
1023.0
1021.0
1015.0
1012.0
1007.0
999.0
995.0
993.0
991.0
985.0
981.0
977.0
974.0
969.0
968.0
967.0
964.0
961.0
963.0
965.0
963.0
963.0
960.0
959.0
958.0
958.0
958.0
961.0
959.0
958.0
957.0
960.0
959.0
959.0
958.0
956.0
960.0
961.0
965.0
962.0
961.0
959.0
960.0
962.0
963.0
964.0
964.0
963.0
964.0
965.0
967.0
965.0
963.0
963.0
964.0
966.0
966.0
966.0
966.0
963.0
965.0
964.0
965.0
965.0
965.0
964.0
965.0
967.0
968.0
967.0
965.0
963.0
960.0
962.0
964.0
964.0
961.0
959.0
960.0
961.0
962.0
961.0
959.0
957.0
955.0
959.0
958.0
959.0
956.0
952.0
952.0
954.0
954.0
953.0
949.0
950.0
951.0
953.0
952.0
951.0
950.0
950.0
949.0
950.0
952.0
952.0
950.0
948.0
949.0
950.0
952.0
950.0
949.0
947.0
948.0
949.0
949.0
948.0
946.0
946.0
947.0
948.0
950.0
948.0
948.0
947.0
946.0
947.0
949.0
950.0
949.0
950.0
953.0
958.0
960.0
965.0
963.0
961.0
964.0
966.0
965.0
964.0
966.0
967.0
967.0
968.0
968.0
971.0
967.0
965.0
967.0
967.0
967.0
963.0
959.0
957.0
959.0
963.0
964.0
962.0
962.0
958.0
958.0
958.0
954.0
949.0
948.0
947.0
943.0
942.0
945.0
941.0
941.0
941.0
939.0
939.0
936.0
940.0
937.0
936.0
936.0
938.0
938.0
935.0
937.0
935.0
936.0
939.0
939.0
938.0
934.0
935.0
937.0
937.0
938.0
936.0
930.0
922.0
914.0
908.0
907.0
918.0
926.0
949.0
985.0
1045.0
1116.0
1188.0
1252.0
1307.0
1352.0
1372.0
1367.0
1319.0
1229.0
1125.0
1032.0
966.0
931.0
912.0
906.0
914.0
933.0
953.0
959.0
953.0
944.0
944.0
943.0
944.0
944.0
940.0
938.0
936.0
934.0
934.0
933.0
932.0
929.0
927.0
928.0
930.0
932.0
930.0
928.0
926.0
925.0
930.0
931.0
930.0
929.0
926.0
928.0
931.0
931.0
929.0
929.0
930.0
931.0
930.0
932.0
930.0
930.0
931.0
933.0
936.0
939.0
938.0
936.0
937.0
938.0
942.0
944.0
946.0
944.0
946.0
946.0
952.0
954.0
955.0
954.0
954.0
959.0
962.0
967.0
968.0
968.0
970.0
974.0
979.0
982.0
983.0
987.0
989.0
993.0
995.0
1001.0
1004.0
1005.0
1008.0
1013.0
1016.0
1018.0
1022.0
1022.0
1021.0
1026.0
1029.0
1032.0
1033.0
1031.0
1033.0
1035.0
1035.0
1037.0
1035.0
1037.0
1034.0
1035.0
1031.0
1028.0
1027.0
1023.0
1018.0
1014.0
1009.0
1008.0
1004.0
1000.0
994.0
990.0
990.0
987.0
982.0
982.0
973.0
977.0
972.0
972.0
966.0
965.0
960.0
963.0
963.0
962.0
960.0
961.0
958.0
959.0
960.0
960.0
959.0
958.0
957.0
959.0
959.0
961.0
958.0
956.0
957.0
957.0
960.0
961.0
960.0
958.0
957.0
960.0
961.0
962.0
963.0
960.0
959.0
960.0
961.0
965.0
963.0
964.0
963.0
963.0
967.0
966.0
966.0
964.0
964.0
965.0
967.0
967.0
965.0
964.0
965.0
966.0
969.0
966.0
968.0
966.0
963.0
968.0
968.0
968.0
969.0
965.0
965.0
965.0
963.0
963.0
964.0
962.0
962.0
962.0
962.0
962.0
961.0
959.0
958.0
961.0
961.0
960.0
957.0
955.0
954.0
954.0
954.0
955.0
956.0
955.0
952.0
954.0
955.0
957.0
952.0
950.0
948.0
949.0
948.0
952.0
952.0
953.0
952.0
951.0
952.0
952.0
951.0
948.0
946.0
948.0
951.0
953.0
953.0
951.0
949.0
949.0
947.0
950.0
951.0
950.0
952.0
952.0
955.0
959.0
958.0
959.0
958.0
964.0
969.0
967.0
969.0
967.0
967.0
969.0
970.0
974.0
973.0
972.0
973.0
973.0
976.0
973.0
974.0
969.0
965.0
965.0
965.0
964.0
966.0
964.0
963.0
966.0
964.0
963.0
959.0
957.0
955.0
954.0
954.0
950.0
948.0
948.0
944.0
945.0
945.0
944.0
942.0
942.0
941.0
941.0
945.0
945.0
945.0
943.0
942.0
944.0
943.0
946.0
944.0
943.0
941.0
943.0
944.0
944.0
943.0
940.0
933.0
923.0
914.0
914.0
923.0
931.0
944.0
975.0
1026.0
1095.0
1168.0
1233.0
1295.0
1349.0
1381.0
1386.0
1361.0
1293.0
1194.0
1089.0
1004.0
952.0
928.0
925.0
929.0
942.0
958.0
966.0
967.0
960.0
954.0
953.0
952.0
952.0
949.0
945.0
942.0
941.0
940.0
942.0
939.0
939.0
936.0
938.0
937.0
937.0
934.0
935.0
933.0
935.0
936.0
938.0
936.0
936.0
932.0
935.0
936.0
937.0
938.0
937.0
938.0
938.0
940.0
940.0
940.0
939.0
938.0
941.0
943.0
945.0
944.0
945.0
944.0
946.0
949.0
950.0
952.0
952.0
951.0
957.0
958.0
962.0
962.0
963.0
961.0
967.0
972.0
976.0
978.0
979.0
980.0
986.0
992.0
996.0
999.0
1000.0
1004.0
1008.0
1014.0
1019.0
1020.0
1022.0
1025.0
1027.0
1031.0
1036.0
1036.0
1037.0
1039.0
1041.0
1046.0
1049.0
1050.0
1050.0
1048.0
1050.0
1051.0
1055.0
1051.0
1050.0
1045.0
1045.0
1044.0
1042.0
1036.0
1028.0
1025.0
1021.0
1018.0
1018.0
1009.0
1005.0
1000.0
995.0
992.0
990.0
985.0
983.0
979.0
978.0
979.0
977.0
974.0
970.0
966.0
969.0
970.0
968.0
967.0
964.0
963.0
963.0
967.0
966.0
966.0
964.0
962.0
963.0
966.0
965.0
965.0
966.0
964.0
966.0
966.0
968.0
969.0
967.0
967.0
968.0
969.0
970.0
969.0
969.0
967.0
968.0
970.0
971.0
970.0
971.0
971.0
971.0
972.0
972.0
974.0
972.0
970.0
974.0
975.0
977.0
975.0
975.0
974.0
975.0
974.0
974.0
975.0
973.0
972.0
975.0
971.0
971.0
973.0
969.0
968.0
968.0
970.0
970.0
970.0
967.0
968.0
967.0
968.0
966.0
963.0
964.0
962.0
963.0
965.0
965.0
963.0
964.0
962.0
961.0
962.0
962.0
961.0
960.0
958.0
961.0
960.0
962.0
961.0
959.0
956.0
959.0
960.0
959.0
959.0
958.0
954.0
958.0
957.0
957.0
957.0
957.0
957.0
958.0
959.0
957.0
957.0
955.0
954.0
955.0
957.0
960.0
959.0
956.0
957.0
960.0
963.0
968.0
969.0
970.0
970.0
971.0
974.0
976.0
979.0
977.0
977.0
977.0
976.0
979.0
980.0
980.0
977.0
976.0
974.0
973.0
969.0
966.0
967.0
968.0
972.0
976.0
975.0
973.0
964.0
963.0
961.0
960.0
958.0
958.0
953.0
951.0
952.0
955.0
