# Simple Text Format
# Sampling Rate (Hz):= 360.00
# Resolution:= 12
# Labels:= ECG
984.0
988.0
986.0
975.0
971.0
967.0
971.0
977.0
978.0
973.0
965.0
964.0
965.0
971.0
974.0
974.0
974.0
972.0
973.0
975.0
974.0
966.0
960.0
959.0
961.0
967.0
967.0
965.0
963.0
962.0
959.0
963.0
965.0
966.0
967.0
967.0
966.0
961.0
957.0
954.0
956.0
956.0
957.0
961.0
963.0
960.0
957.0
958.0
959.0
964.0
962.0
957.0
956.0
957.0
963.0
967.0
967.0
965.0
960.0
961.0
962.0
974.0
974.0
974.0
975.0
983.0
990.0
995.0
995.0
994.0
997.0
1005.0
1024.0
1033.0
1033.0
1034.0
1028.0
1031.0
1031.0
1035.0
1037.0
1035.0
1028.0
1017.0
1005.0
1000.0
994.0
987.0
979.0
977.0
976.0
976.0
967.0
958.0
948.0
946.0
951.0
956.0
958.0
957.0
953.0
951.0
951.0
954.0
952.0
948.0
943.0
937.0
929.0
931.0
947.0
985.0
1052.0
1146.0
1247.0
1332.0
1387.0
1419.0
1435.0
1436.0
1417.0
1363.0
1257.0
1129.0
1001.0
873.0
874.0
919.0
945.0
939.0
930.0
933.0
940.0
943.0
935.0
935.0
938.0
943.0
948.0
947.0
939.0
929.0
919.0
921.0
927.0
933.0
933.0
931.0
931.0
933.0
938.0
941.0
940.0
940.0
938.0
938.0
941.0
946.0
944.0
939.0
940.0
937.0
933.0
930.0
932.0
940.0
943.0
944.0
945.0
949.0
950.0
951.0
947.0
947.0
947.0
948.0
951.0
951.0
952.0
954.0
961.0
966.0
966.0
970.0
972.0
972.0
974.0
978.0
977.0
980.0
981.0
982.0
986.0
986.0
992.0
993.0
996.0
1004.0
1007.0
1013.0
1019.0
1020.0
1020.0
1025.0
1033.0
1041.0
1046.0
1047.0
1050.0
1058.0
1064.0
1069.0
1068.0
1061.0
1060.0
1064.0
1076.0
1083.0
1083.0
1077.0
1072.0
1073.0
1072.0
1069.0
1065.0
1064.0
1062.0
1057.0
1055.0
1059.0
1049.0
1039.0
1030.0
1024.0
1026.0
1027.0
1023.0
1015.0
1006.0
1001.0
998.0
999.0
998.0
993.0
988.0
989.0
990.0
985.0
982.0
980.0
975.0
971.0
971.0
969.0
962.0
960.0
959.0
964.0
963.0
961.0
959.0
959.0
956.0
956.0
960.0
966.0
966.0
957.0
953.0
948.0
957.0
963.0
963.0
961.0
962.0
965.0
967.0
974.0
975.0
971.0
967.0
970.0
970.0
975.0
974.0
971.0
968.0
970.0
976.0
976.0
979.0
979.0
982.0
985.0
990.0
992.0
993.0
987.0
985.0
982.0
984.0
992.0
998.0
997.0
993.0
993.0
993.0
993.0
985.0
975.0
973.0
978.0
982.0
983.0
984.0
979.0
972.0
974.0
984.0
984.0
977.0
961.0
961.0
971.0
980.0
984.0
980.0
971.0
968.0
969.0
972.0
972.0
969.0
966.0
963.0
963.0
960.0
966.0
968.0
967.0
965.0
966.0
962.0
956.0
956.0
955.0
958.0
960.0
964.0
971.0
974.0
973.0
973.0
969.0
965.0
957.0
952.0
952.0
953.0
956.0
958.0
963.0
969.0
968.0
963.0
964.0
968.0
972.0
969.0
958.0
949.0
951.0
956.0
959.0
951.0
945.0
949.0
955.0
959.0
961.0
959.0
955.0
957.0
961.0
966.0
968.0
962.0
956.0
953.0
958.0
968.0
974.0
977.0
971.0
964.0
956.0
950.0
950.0
956.0
961.0
957.0
954.0
952.0
955.0
950.0
950.0
953.0
952.0
953.0
955.0
961.0
963.0
964.0
972.0
974.0
973.0
968.0
957.0
953.0
959.0
966.0
974.0
983.0
989.0
989.0
990.0
989.0
997.0
1010.0
1021.0
1030.0
1030.0
1027.0
1030.0
1030.0
1029.0
1030.0
1037.0
1042.0
1038.0
1025.0
1010.0
991.0
980.0
982.0
986.0
989.0
985.0
973.0
960.0
953.0
955.0
962.0
960.0
952.0
948.0
951.0
956.0
957.0
955.0
952.0
954.0
955.0
955.0
944.0
938.0
944.0
970.0
1017.0
1093.0
1183.0
1279.0
1360.0
1418.0
1444.0
1449.0
1438.0
1405.0
1334.0
1219.0
1091.0
963.0
896.0
911.0
940.0
949.0
943.0
943.0
954.0
956.0
956.0
954.0
945.0
931.0
920.0
926.0
932.0
933.0
935.0
936.0
938.0
941.0
941.0
940.0
942.0
939.0
934.0
929.0
927.0
925.0
930.0
944.0
947.0
945.0
937.0
935.0
937.0
931.0
924.0
921.0
923.0
927.0
925.0
922.0
924.0
934.0
947.0
953.0
949.0
943.0
929.0
924.0
935.0
950.0
958.0
963.0
962.0
960.0
954.0
946.0
941.0
947.0
955.0
963.0
965.0
968.0
976.0
976.0
975.0
973.0
965.0
959.0
967.0
981.0
991.0
994.0
997.0
1001.0
1006.0
1007.0
1001.0
1000.0
1000.0
1008.0
1024.0
1040.0
1040.0
1041.0
1035.0
1033.0
1041.0
1061.0
1070.0
1066.0
1049.0
1044.0
1058.0
1077.0
1084.0
1075.0
1070.0
1067.0
1066.0
1064.0
1069.0
1066.0
1060.0
1054.0
1049.0
1042.0
1038.0
1041.0
1049.0
1049.0
1042.0
1023.0
1002.0
988.0
992.0
1004.0
1006.0
1004.0
995.0
984.0
987.0
994.0
997.0
986.0
969.0
958.0
955.0
961.0
965.0
970.0
963.0
952.0
950.0
963.0
971.0
965.0
952.0
942.0
937.0
946.0
950.0
954.0
949.0
944.0
941.0
945.0
949.0
952.0
956.0
956.0
950.0
949.0
951.0
955.0
957.0
951.0
949.0
952.0
948.0
954.0
959.0
958.0
953.0
950.0
957.0
960.0
955.0
956.0
963.0
967.0
963.0
961.0
958.0
960.0
955.0
954.0
959.0
966.0
970.0
967.0
963.0
955.0
953.0
951.0
952.0
954.0
960.0
963.0
969.0
971.0
967.0
960.0
949.0
948.0
952.0
953.0
949.0
955.0
963.0
967.0
955.0
950.0
949.0
952.0
951.0
958.0
963.0
965.0
955.0
942.0
938.0
934.0
936.0
943.0
957.0
969.0
962.0
947.0
936.0
939.0
944.0
945.0
944.0
939.0
937.0
942.0
946.0
947.0
948.0
944.0
938.0
932.0
935.0
946.0
953.0
948.0
943.0
944.0
954.0
957.0
942.0
926.0
923.0
936.0
950.0
949.0
948.0
950.0
953.0
954.0
949.0
939.0
937.0
939.0
946.0
951.0
947.0
938.0
929.0
936.0
944.0
947.0
942.0
940.0
950.0
958.0
955.0
947.0
940.0
943.0
944.0
932.0
921.0
928.0
943.0
953.0
948.0
944.0
944.0
947.0
946.0
943.0
945.0
947.0
958.0
961.0
953.0
943.0
942.0
954.0
966.0
971.0
965.0
961.0
968.0
979.0
987.0
987.0
988.0
994.0
1003.0
1013.0
1022.0
1028.0
1027.0
1021.0
1018.0
1021.0
1024.0
1026.0
1019.0
1007.0
986.0
976.0
967.0
962.0
956.0
958.0
960.0
957.0
955.0
952.0
946.0
941.0
942.0
950.0
948.0
948.0
951.0
945.0
937.0
935.0
938.0
940.0
932.0
931.0
937.0
954.0
992.0
1070.0
1171.0
1271.0
1343.0
1401.0
1438.0
1457.0
1453.0
1434.0
1392.0
1317.0
1203.0
1075.0
947.0
857.0
892.0
935.0
950.0
942.0
934.0
934.0
938.0
946.0
947.0
943.0
931.0
922.0
920.0
925.0
937.0
935.0
926.0
924.0
924.0
930.0
938.0
942.0
937.0
933.0
931.0
934.0
941.0
946.0
943.0
940.0
934.0
932.0
937.0
946.0
945.0
940.0
942.0
946.0
938.0
922.0
914.0
923.0
937.0
947.0
947.0
954.0
957.0
955.0
947.0
946.0
952.0
973.0
975.0
956.0
932.0
924.0
942.0
960.0
974.0
975.0
966.0
955.0
957.0
969.0
977.0
974.0
971.0
978.0
991.0
1001.0
994.0
983.0
980.0
974.0
982.0
999.0
1009.0
1015.0
1017.0
1024.0
1033.0
1037.0
1036.0
1035.0
1032.0
1030.0
1034.0
1040.0
1046.0
1058.0
1069.0
1072.0
1072.0
1071.0
1064.0
1059.0
1066.0
1076.0
1079.0
1079.0
1066.0
1051.0
1045.0
1048.0
1052.0
1053.0
1047.0
1038.0
1028.0
1025.0
1022.0
1021.0
1021.0
1025.0
1026.0
1023.0
1015.0
1005.0
992.0
980.0
971.0
976.0
979.0
987.0
988.0
984.0
978.0
973.0
967.0
960.0
961.0
971.0
981.0
982.0
975.0
958.0
945.0
942.0
953.0
967.0
972.0
974.0
975.0
973.0
964.0
962.0
964.0
969.0
970.0
965.0
960.0
962.0
964.0
970.0
974.0
976.0
973.0
963.0
967.0
981.0
989.0
986.0
976.0
980.0
982.0
979.0
970.0
966.0
966.0
972.0
987.0
993.0
986.0
978.0
979.0
986.0
995.0
996.0
989.0
980.0
963.0
966.0
983.0
996.0
996.0
986.0
975.0
974.0
980.0
974.0
958.0
952.0
958.0
967.0
973.0
976.0
982.0
986.0
982.0
970.0
963.0
970.0
978.0
968.0
953.0
952.0
949.0
948.0
953.0
961.0
965.0
960.0
951.0
949.0
951.0
957.0
961.0
964.0
967.0
967.0
967.0
963.0
961.0
964.0
958.0
957.0
961.0
962.0
954.0
951.0
958.0
954.0
954.0
952.0
952.0
961.0
973.0
977.0
970.0
960.0
946.0
944.0
961.0
973.0
974.0
960.0
948.0
948.0
962.0
974.0
977.0
968.0
974.0
980.0
976.0
964.0
940.0
932.0
945.0
963.0
973.0
970.0
971.0
974.0
976.0
974.0
970.0
971.0
982.0
974.0
959.0
951.0
962.0
983.0
999.0
1001.0
994.0
996.0
1008.0
1029.0
1039.0
1041.0
1032.0
1028.0
1043.0
1053.0
1053.0
1045.0
1043.0
1047.0
1050.0
1052.0
1041.0
1020.0
992.0
971.0
981.0
997.0
994.0
973.0
964.0
975.0
989.0
994.0
978.0
957.0
951.0
966.0
982.0
981.0
971.0
959.0
953.0
946.0
945.0
941.0
954.0
993.0
1069.0
1178.0
1286.0
1362.0
1413.0
1438.0
1445.0
1439.0
1409.0
1339.0
1223.0
1095.0
967.0
905.0
923.0
958.0
981.0
983.0
977.0
967.0
961.0
956.0
957.0
959.0
949.0
944.0
950.0
961.0
966.0
966.0
955.0
948.0
947.0
952.0
963.0
958.0
954.0
949.0
944.0
941.0
943.0
942.0
943.0
945.0
951.0
955.0
956.0
957.0
959.0
958.0
953.0
962.0
975.0
976.0
969.0
962.0
968.0
974.0
969.0
968.0
970.0
977.0
978.0
976.0
977.0
981.0
983.0
975.0
969.0
971.0
974.0
975.0
982.0
989.0
994.0
1001.0
1007.0
1003.0
998.0
989.0
983.0
986.0
1004.0
1019.0
1017.0
1011.0
1017.0
1027.0
1032.0
1032.0
1033.0
1038.0
1035.0
1037.0
1042.0
1058.0
1068.0
1076.0
1078.0
1073.0
1070.0
1079.0
1091.0
1098.0
1087.0
1064.0
1048.0
1054.0
1076.0
1083.0
1085.0
1082.0
1080.0
1072.0
1063.0
1059.0
1057.0
1050.0
1041.0
1033.0
1026.0
1021.0
1018.0
1019.0
1020.0
1018.0
1019.0
1015.0
1008.0
1006.0
1005.0
1000.0
996.0
996.0
1002.0
1005.0
1003.0
995.0
1000.0
1005.0
1003.0
994.0
985.0
988.0
992.0
989.0
989.0
993.0
994.0
984.0
970.0
973.0
982.0
981.0
978.0
978.0
983.0
987.0
987.0
981.0
974.0
976.0
989.0
998.0
1002.0
1002.0
995.0
985.0
977.0
967.0
970.0
987.0
999.0
999.0
994.0
999.0
1005.0
1001.0
994.0
994.0
998.0
1004.0
996.0
978.0
963.0
969.0
983.0
985.0
984.0
992.0
995.0
993.0
987.0
988.0
993.0
984.0
975.0
976.0
987.0
996.0
998.0
994.0
979.0
965.0
960.0
960.0
957.0
959.0
962.0
960.0
955.0
962.0
961.0
953.0
950.0
955.0
963.0
961.0
955.0
945.0
941.0
951.0
954.0
956.0
959.0
966.0
967.0
962.0
956.0
949.0
937.0
938.0
944.0
954.0
944.0
938.0
939.0
952.0
961.0
955.0
941.0
928.0
927.0
943.0
948.0
947.0
940.0
939.0
941.0
945.0
943.0
942.0
945.0
943.0
933.0
922.0
926.0
935.0
939.0
941.0
945.0
946.0
938.0
935.0
936.0
942.0
950.0
954.0
960.0
961.0
961.0
969.0
976.0
984.0
992.0
1001.0
1004.0
1007.0
1009.0
1011.0
1014.0
1009.0
1004.0
1003.0
1000.0
995.0
981.0
971.0
958.0
954.0
952.0
951.0
955.0
956.0
952.0
939.0
925.0
922.0
927.0
928.0
927.0
926.0
927.0
927.0
927.0
927.0
920.0
911.0
914.0
949.0
1011.0
1099.0
1205.0
1303.0
1368.0
1396.0
1405.0
1396.0
1367.0
1298.0
1180.0
1052.0
924.0
829.0
859.0
895.0
903.0
895.0
887.0
886.0
886.0
887.0
890.0
897.0
897.0
896.0
890.0
887.0
889.0
897.0
896.0
885.0
881.0
877.0
879.0
885.0
891.0
890.0
890.0
892.0
896.0
900.0
895.0
886.0
886.0
889.0
890.0
889.0
894.0
901.0
902.0
903.0
899.0
893.0
889.0
889.0
886.0
889.0
897.0
903.0
905.0
904.0
903.0
906.0
910.0
917.0
920.0
923.0
923.0
924.0
926.0
926.0
923.0
922.0
924.0
930.0
940.0
945.0
945.0
944.0
943.0
946.0
950.0
957.0
967.0
978.0
979.0
976.0
973.0
972.0
976.0
990.0
1000.0
1005.0
1006.0
1010.0
1013.0
1018.0
1020.0
1019.0
1021.0
1028.0
1029.0
1024.0
1015.0
1017.0
1021.0
1021.0
1014.0
1006.0
999.0
997.0
1001.0
1001.0
999.0
988.0
971.0
960.0
958.0
957.0
959.0
959.0
956.0
951.0
937.0
930.0
928.0
934.0
936.0
938.0
939.0
933.0
924.0
914.0
913.0
918.0
924.0
927.0
923.0
920.0
924.0
928.0
927.0
920.0
918.0
925.0
924.0
916.0
912.0
920.0
931.0
933.0
928.0
919.0
914.0
921.0
929.0
932.0
934.0
936.0
941.0
943.0
941.0
939.0
939.0
947.0
954.0
959.0
954.0
948.0
942.0
941.0
945.0
954.0
951.0
947.0
943.0
946.0
954.0
961.0
958.0
944.0
925.0
918.0
929.0
940.0
942.0
940.0
936.0
932.0
932.0
928.0
929.0
929.0
925.0
924.0
923.0
931.0
931.0
931.0
931.0
931.0
939.0
947.0
946.0
937.0
921.0
917.0
919.0
928.0
928.0
927.0
927.0
926.0
931.0
933.0
935.0
933.0
932.0
935.0
938.0
942.0
940.0
933.0
928.0
932.0
937.0
942.0
938.0
937.0
935.0
934.0
929.0
930.0
934.0
936.0
932.0
926.0
928.0
928.0
930.0
931.0
938.0
945.0
950.0
952.0
947.0
941.0
937.0
948.0
961.0
970.0
975.0
973.0
975.0
988.0
1000.0
1005.0
1002.0
999.0
999.0
995.0
998.0
993.0
985.0
976.0
965.0
962.0
963.0
958.0
948.0
939.0
929.0
927.0
928.0
929.0
929.0
930.0
928.0
928.0
930.0
935.0
932.0
927.0
920.0
914.0
911.0
915.0
930.0
963.0
1026.0
1113.0
1217.0
1310.0
1373.0
1404.0
1413.0
1410.0
1385.0
1328.0
1222.0
1094.0
966.0
859.0
869.0
912.0
928.0
912.0
900.0
901.0
913.0
918.0
910.0
906.0
902.0
907.0
917.0
922.0
925.0
920.0
914.0
911.0
920.0
929.0
933.0
931.0
927.0
919.0
916.0
924.0
922.0
913.0
907.0
908.0
916.0
924.0
922.0
926.0
926.0
927.0
929.0
933.0
934.0
928.0
926.0
925.0
932.0
935.0
936.0
931.0
932.0
936.0
942.0
949.0
947.0
949.0
945.0
943.0
947.0
952.0
952.0
955.0
953.0
956.0
957.0
964.0
965.0
967.0
968.0
972.0
977.0
987.0
990.0
991.0
992.0
993.0
998.0
1003.0
1010.0
1013.0
1014.0
1018.0
1025.0
1028.0
1033.0
1038.0
1039.0
1043.0
1049.0
1049.0
1050.0
1049.0
1054.0
1056.0
1061.0
1066.0
1069.0
1071.0
1064.0
1048.0
1039.0
1037.0
1039.0
1039.0
1032.0
1028.0
1026.0
1025.0
1023.0
1014.0
1011.0
1011.0
1008.0
1002.0
995.0
989.0
982.0
977.0
975.0
974.0
973.0
969.0
962.0
959.0
962.0
966.0
967.0
961.0
957.0
958.0
958.0
961.0
959.0
956.0
950.0
946.0
947.0
949.0
947.0
949.0
946.0
948.0
956.0
962.0
959.0
961.0
961.0
965.0
968.0
968.0
971.0
967.0
966.0
967.0
968.0
969.0
970.0
972.0
971.0
973.0
977.0
981.0
979.0
978.0
969.0
963.0
965.0
978.0
982.0
979.0
975.0
978.0
977.0
980.0
981.0
978.0
971.0
969.0
974.0
978.0
980.0
976.0
965.0
960.0
962.0
963.0
964.0
961.0
958.0
952.0
959.0
962.0
960.0
957.0
956.0
956.0
958.0
959.0
961.0
957.0
949.0
948.0
947.0
948.0
949.0
950.0
952.0
953.0
950.0
944.0
942.0
942.0
943.0
946.0
944.0
942.0
942.0
940.0
936.0
937.0
936.0
940.0
942.0
941.0
938.0
937.0
935.0
940.0
939.0
938.0
937.0
938.0
942.0
944.0
942.0
934.0
935.0
939.0
944.0
943.0
940.0
936.0
937.0
941.0
946.0
950.0
955.0
959.0
961.0
965.0
968.0
969.0
975.0
984.0
987.0
998.0
1005.0
1011.0
1011.0
1008.0
1007.0
1009.0
1011.0
1011.0
1003.0
987.0
976.0
966.0
961.0
958.0
950.0
941.0
936.0
933.0
930.0
929.0
925.0
925.0
923.0
925.0
932.0
933.0
932.0
931.0
925.0
922.0
919.0
913.0
896.0
883.0
889.0
919.0
986.0
1086.0
1197.0
1290.0
1361.0
1399.0
1420.0
1423.0
1400.0
1339.0
1231.0
1103.0
975.0
848.0
851.0
888.0
910.0
903.0
901.0
902.0
908.0
909.0
909.0
906.0
898.0
895.0
894.0
896.0
901.0
902.0
902.0
906.0
905.0
903.0
899.0
894.0
889.0
885.0
885.0
883.0
878.0
884.0
889.0
898.0
900.0
901.0
900.0
894.0
891.0
893.0
898.0
897.0
900.0
902.0
902.0
896.0
896.0
893.0
896.0
902.0
908.0
911.0
909.0
904.0
900.0
903.0
908.0
911.0
909.0
913.0
910.0
914.0
920.0
923.0
923.0
921.0
926.0
931.0
938.0
947.0
952.0
951.0
939.0
933.0
935.0
943.0
953.0
958.0
962.0
967.0
972.0
979.0
982.0
986.0
988.0
993.0
999.0
1008.0
1012.0
1013.0
1013.0
1010.0
1013.0
1023.0
1027.0
1029.0
1024.0
1024.0
1025.0
1026.0
1027.0
1024.0
1021.0
1018.0
1016.0
1016.0
1006.0
1001.0
993.0
991.0
989.0
989.0
986.0
982.0
975.0
967.0
961.0
954.0
945.0
941.0
933.0
934.0
938.0
940.0
938.0
936.0
933.0
929.0
929.0
925.0
924.0
921.0
919.0
919.0
920.0
921.0
919.0
917.0
916.0
917.0
921.0
923.0
923.0
920.0
919.0
918.0
919.0
925.0
923.0
925.0
924.0
926.0
930.0
933.0
929.0
928.0
934.0
938.0
937.0
937.0
934.0
932.0
930.0
928.0
926.0
935.0
939.0
937.0
934.0
931.0
934.0
939.0
941.0
941.0
939.0
938.0
939.0
944.0
940.0
937.0
935.0
936.0
934.0
938.0
938.0
933.0
934.0
931.0
929.0
929.0
930.0
927.0
924.0
927.0
934.0
934.0
925.0
919.0
916.0
916.0
924.0
925.0
922.0
921.0
920.0
922.0
926.0
925.0
925.0
920.0
916.0
913.0
915.0
915.0
915.0
916.0
915.0
916.0
919.0
918.0
922.0
920.0
915.0
911.0
912.0
912.0
913.0
916.0
917.0
921.0
920.0
923.0
922.0
922.0
919.0
921.0
928.0
936.0
943.0
942.0
947.0
950.0
957.0
965.0
974.0
978.0
979.0
981.0
985.0
986.0
987.0
985.0
981.0
977.0
970.0
963.0
957.0
949.0
945.0
943.0
938.0
934.0
928.0
922.0
915.0
912.0
913.0
918.0
922.0
920.0
916.0
912.0
915.0
919.0
919.0
915.0
907.0
900.0
895.0
894.0
900.0
917.0
943.0
999.0
1083.0
1181.0
1272.0
1337.0
1377.0
1400.0
1416.0
1413.0
1384.0
1323.0
1223.0
1095.0
967.0
859.0
839.0
871.0
898.0
902.0
896.0
890.0
892.0
898.0
901.0
901.0
903.0
904.0
904.0
902.0
899.0
900.0
903.0
904.0
901.0
898.0
896.0
899.0
901.0
903.0
904.0
900.0
899.0
897.0
898.0
899.0
901.0
899.0
900.0
898.0
903.0
907.0
907.0
906.0
906.0
908.0
910.0
912.0
912.0
911.0
908.0
909.0
910.0
916.0
916.0
917.0
915.0
917.0
919.0
923.0
925.0
925.0
925.0
924.0
928.0
931.0
932.0
930.0
928.0
930.0
931.0
937.0
940.0
944.0
947.0
948.0
956.0
960.0
961.0
962.0
960.0
961.0
967.0
977.0
979.0
982.0
982.0
981.0
987.0
995.0
1003.0
1006.0
1006.0
1008.0
1012.0
1020.0
1026.0
1029.0
1031.0
1035.0
1038.0
1040.0
1040.0
1039.0
1039.0
1042.0
1044.0
1046.0
1045.0
1043.0
1038.0
1033.0
1032.0
1036.0
1031.0
1019.0
1009.0
1007.0
1005.0
1003.0
999.0
994.0
988.0
986.0
984.0
984.0
980.0
975.0
965.0
965.0
964.0
961.0
957.0
954.0
949.0
950.0
952.0
956.0
954.0
946.0
937.0
934.0
935.0
938.0
938.0
935.0
933.0
936.0
938.0
938.0
941.0
937.0
934.0
931.0
930.0
934.0
938.0
938.0
936.0
937.0
945.0
947.0
949.0
949.0
945.0
944.0
947.0
951.0
955.0
954.0
955.0
957.0
960.0
966.0
966.0
965.0
960.0
963.0
966.0
970.0
973.0
971.0
970.0
968.0
972.0
975.0
973.0
972.0
967.0
966.0
966.0
969.0
969.0
966.0
963.0
959.0
962.0
962.0
964.0
961.0
956.0
954.0
954.0
956.0
958.0
959.0
955.0
957.0
956.0
956.0
955.0
953.0
950.0
950.0
954.0
956.0
953.0
948.0
945.0
943.0
944.0
947.0
948.0
949.0
950.0
950.0
951.0
951.0
942.0
931.0
924.0
928.0
938.0
942.0
939.0
938.0
939.0
939.0
942.0
949.0
947.0
943.0
935.0
935.0
940.0
947.0
946.0
944.0
940.0
941.0
942.0
945.0
947.0
948.0
951.0
955.0
955.0
958.0
960.0
960.0
957.0
962.0
969.0
980.0
998.0
1012.0
1020.0
1018.0
1012.0
1010.0
1008.0
1010.0
1010.0
1013.0
1007.0
1000.0
987.0
973.0
964.0
958.0
959.0
957.0
948.0
940.0
935.0
933.0
935.0
939.0
941.0
940.0
935.0
937.0
941.0
941.0
940.0
939.0
933.0
922.0
913.0
909.0
902.0
908.0
936.0
993.0
1082.0
1194.0
1295.0
1369.0
1410.0
1431.0
1432.0
1422.0
1380.0
1301.0
1181.0
1053.0
925.0
847.0
866.0
908.0
921.0
917.0
916.0
917.0
919.0
916.0
914.0
914.0
910.0
914.0
913.0
908.0
907.0
907.0
910.0
911.0
909.0
909.0
908.0
907.0
910.0
910.0
912.0
907.0
904.0
901.0
901.0
909.0
912.0
912.0
911.0
911.0
910.0
911.0
915.0
912.0
913.0
916.0
916.0
922.0
916.0
910.0
912.0
917.0
921.0
926.0
924.0
924.0
922.0
922.0
924.0
924.0
924.0
925.0
924.0
927.0
931.0
935.0
938.0
934.0
937.0
939.0
944.0
949.0
952.0
954.0
954.0
955.0
960.0
969.0
972.0
971.0
971.0
973.0
980.0
988.0
991.0
990.0
992.0
995.0
1003.0
1013.0
1015.0
1018.0
1021.0
1025.0
1031.0
1038.0
1039.0
1040.0
1039.0
1043.0
1045.0
1050.0
1048.0
1041.0
1037.0
1038.0
1036.0
1036.0
1034.0
1026.0
1018.0
1020.0
1017.0
1016.0
1010.0
1006.0
1001.0
999.0
996.0
997.0
991.0
980.0
973.0
968.0
969.0
968.0
967.0
965.0
958.0
959.0
956.0
959.0
960.0
959.0
953.0
949.0
949.0
950.0
948.0
947.0
940.0
938.0
939.0
944.0
945.0
939.0
939.0
940.0
946.0
949.0
949.0
947.0
941.0
939.0
939.0
943.0
947.0
945.0
942.0
945.0
946.0
951.0
953.0
953.0
952.0
955.0
954.0
956.0
954.0
955.0
954.0
952.0
953.0
957.0
957.0
956.0
954.0
955.0
959.0
961.0
961.0
962.0
958.0
959.0
963.0
967.0
964.0
962.0
962.0
962.0
961.0
957.0
955.0
955.0
954.0
957.0
956.0
959.0
958.0
952.0
946.0
950.0
951.0
956.0
954.0
950.0
946.0
947.0
951.0
954.0
955.0
948.0
937.0
936.0
940.0
945.0
943.0
940.0
940.0
933.0
937.0
942.0
943.0
943.0
939.0
938.0
935.0
938.0
937.0
938.0
938.0
940.0
942.0
942.0
942.0
942.0
945.0
945.0
942.0
940.0
937.0
932.0
925.0
932.0
940.0
943.0
940.0
936.0
933.0
936.0
935.0
942.0
939.0
936.0
935.0
935.0
939.0
942.0
941.0
938.0
935.0
938.0
940.0
940.0
941.0
940.0
943.0
946.0
950.0
956.0
956.0
959.0
960.0
962.0
970.0
983.0
995.0
1003.0
1012.0
1014.0
1014.0
1012.0
1014.0
1020.0
1022.0
1022.0
1020.0
1018.0
1011.0
1000.0
988.0
976.0
973.0
970.0
966.0
957.0
949.0
943.0
937.0
940.0
938.0
939.0
934.0
936.0
935.0
935.0
934.0
935.0
931.0
932.0
933.0
934.0
927.0
918.0
902.0
900.0
918.0
962.0
1033.0
1136.0
1240.0
1332.0
1396.0
1429.0
1437.0
1430.0
1394.0
1318.0
1192.0
1064.0
936.0
856.0
883.0
915.0
926.0
922.0
916.0
915.0
915.0
916.0
917.0
919.0
915.0
912.0
908.0
908.0
910.0
913.0
914.0
910.0
907.0
907.0
908.0
911.0
912.0
912.0
910.0
908.0
909.0
912.0
911.0
908.0
908.0
909.0
910.0
914.0
911.0
910.0
909.0
908.0
916.0
918.0
917.0
916.0
913.0
912.0
919.0
924.0
927.0
928.0
924.0
920.0
917.0
916.0
918.0
916.0
917.0
921.0
928.0
934.0
935.0
931.0
932.0
932.0
938.0
943.0
947.0
947.0
946.0
949.0
959.0
967.0
973.0
980.0
982.0
979.0
977.0
972.0
973.0
981.0
988.0
992.0
994.0
1003.0
1011.0
1016.0
1017.0
1018.0
1026.0
1032.0
1032.0
1032.0
1033.0
1035.0
1037.0
1043.0
1049.0
1041.0
1027.0
1020.0
1021.0
1033.0
1035.0
1031.0
1018.0
1011.0
1009.0
1005.0
999.0
990.0
988.0
989.0
992.0
991.0
988.0
978.0
968.0
960.0
962.0
962.0
958.0
948.0
944.0
951.0
961.0
962.0
958.0
956.0
956.0
959.0
955.0
944.0
933.0
915.0
902.0
902.0
910.0
912.0
913.0
917.0
919.0
919.0
923.0
930.0
933.0
934.0
925.0
922.0
919.0
920.0
922.0
921.0
919.0
919.0
927.0
937.0
938.0
931.0
927.0
922.0
923.0
918.0
916.0
915.0
918.0
922.0
925.0
925.0
933.0
938.0
937.0
942.0
948.0
951.0
947.0
941.0
938.0
928.0
922.0
927.0
939.0
946.0
946.0
949.0
953.0
946.0
939.0
941.0
941.0
937.0
935.0
915.0
900.0
903.0
915.0
923.0
927.0
927.0
923.0
914.0
913.0
911.0
915.0
916.0
908.0
903.0
909.0
914.0
916.0
916.0
912.0
902.0
903.0
915.0
925.0
928.0
920.0
917.0
911.0
904.0
891.0
880.0
882.0
898.0
908.0
913.0
907.0
912.0
915.0
918.0
912.0
894.0
887.0
888.0
900.0
906.0
902.0
888.0
882.0
886.0
898.0
899.0
900.0
904.0
906.0
923.0
926.0
912.0
890.0
884.0
901.0
924.0
931.0
931.0
921.0
910.0
907.0
912.0
922.0
927.0
935.0
948.0
961.0
972.0
976.0
975.0
974.0
974.0
976.0
979.0
978.0
975.0
965.0
953.0
944.0
941.0
942.0
942.0
935.0
919.0
902.0
891.0
892.0
890.0
889.0
893.0
900.0
901.0
908.0
921.0
927.0
915.0
896.0
887.0
889.0
895.0
897.0
899.0
923.0
980.0
1077.0
1197.0
1297.0
1369.0
1407.0
1420.0
1404.0
1362.0
1272.0
1144.0
1016.0
888.0
826.0
858.0
870.0
865.0
867.0
882.0
887.0
884.0
882.0
887.0
893.0
891.0
890.0
885.0
883.0
883.0
878.0
880.0
877.0
869.0
862.0
863.0
868.0
879.0
885.0
883.0
880.0
873.0
880.0
886.0
889.0
888.0
882.0
871.0
876.0
887.0
895.0
894.0
892.0
884.0
877.0
883.0
889.0
891.0
888.0
893.0
903.0
903.0
899.0
896.0
895.0
895.0
907.0
914.0
913.0
903.0
895.0
898.0
903.0
910.0
922.0
930.0
931.0
927.0
927.0
933.0
941.0
949.0
947.0
945.0
944.0
948.0
950.0
949.0
955.0
964.0
972.0
980.0
991.0
999.0
997.0
993.0
991.0
992.0
988.0
982.0
979.0
987.0
997.0
991.0
986.0
987.0
991.0
997.0
998.0
987.0
986.0
994.0
997.0
985.0
969.0
967.0
966.0
961.0
954.0
952.0
954.0
966.0
978.0
979.0
970.0
959.0
950.0
930.0
900.0
891.0
897.0
915.0
926.0
938.0
939.0
923.0
908.0
904.0
919.0
944.0
964.0
963.0
934.0
899.0
885.0
900.0
920.0
914.0
904.0
891.0
893.0
901.0
909.0
910.0
911.0
912.0
921.0
930.0
935.0
935.0
928.0
929.0
929.0
931.0
940.0
947.0
946.0
943.0
942.0
949.0
949.0
943.0
940.0
941.0
944.0
943.0
945.0
950.0
950.0
945.0
938.0
924.0
921.0
930.0
938.0
945.0
949.0
950.0
949.0
944.0
942.0
938.0
934.0
931.0
931.0
934.0
927.0
926.0
930.0
934.0
939.0
935.0
929.0
933.0
937.0
931.0
919.0
919.0
929.0
937.0
942.0
936.0
933.0
927.0
921.0
918.0
920.0
928.0
933.0
931.0
929.0
936.0
943.0
945.0
931.0
913.0
907.0
917.0
936.0
937.0
920.0
914.0
916.0
924.0
925.0
925.0
928.0
935.0
934.0
928.0
924.0
918.0
911.0
917.0
925.0
926.0
920.0
926.0
934.0
941.0
937.0
940.0
940.0
936.0
925.0
917.0
930.0
944.0
948.0
941.0
944.0
950.0
956.0
950.0
952.0
968.0
978.0
982.0
981.0
984.0
990.0
990.0
982.0
974.0
972.0
977.0
983.0
991.0
996.0
1006.0
1001.0
994.0
987.0
978.0
972.0
966.0
965.0
966.0
964.0
953.0
941.0
937.0
935.0
936.0
937.0
940.0
938.0
933.0
933.0
935.0
