# Simple Text Format
# Sampling Rate (Hz):= 360.00
# Resolution:= 12
# Labels:= ECG
1017.0
1008.0
1004.0
1005.0
1004.0
1004.0
1000.0
993.0
991.0
989.0
987.0
987.0
982.0
979.0
982.0
984.0
983.0
982.0
979.0
973.0
974.0
974.0
975.0
973.0
973.0
968.0
969.0
968.0
973.0
973.0
971.0
965.0
965.0
969.0
972.0
971.0
969.0
970.0
967.0
971.0
977.0
976.0
975.0
975.0
974.0
974.0
978.0
981.0
977.0
975.0
975.0
979.0
983.0
982.0
978.0
978.0
978.0
981.0
982.0
982.0
978.0
978.0
975.0
976.0
980.0
982.0
979.0
976.0
975.0
975.0
980.0
980.0
977.0
972.0
970.0
975.0
977.0
977.0
973.0
974.0
974.0
974.0
978.0
976.0
971.0
970.0
968.0
970.0
972.0
972.0
973.0
972.0
966.0
970.0
972.0
973.0
970.0
966.0
966.0
967.0
969.0
970.0
967.0
965.0
965.0
968.0
970.0
970.0
967.0
965.0
964.0
966.0
968.0
968.0
965.0
966.0
965.0
965.0
966.0
966.0
963.0
960.0
960.0
961.0
962.0
965.0
965.0
960.0
959.0
962.0
965.0
962.0
958.0
956.0
955.0
961.0
962.0
963.0
959.0
959.0
960.0
961.0
964.0
963.0
959.0
957.0
960.0
962.0
961.0
963.0
961.0
960.0
959.0
962.0
965.0
963.0
963.0
961.0
960.0
963.0
963.0
963.0
960.0
958.0
959.0
961.0
961.0
964.0
962.0
959.0
960.0
962.0
966.0
968.0
965.0
963.0
966.0
969.0
975.0
975.0
975.0
976.0
977.0
981.0
987.0
988.0
990.0
990.0
996.0
1000.0
1003.0
1002.0
999.0
990.0
990.0
994.0
996.0
994.0
989.0
985.0
981.0
979.0
980.0
979.0
975.0
969.0
969.0
970.0
972.0
974.0
970.0
970.0
968.0
967.0
970.0
974.0
972.0
971.0
970.0
969.0
974.0
969.0
966.0
967.0
979.0
1005.0
1041.0
1088.0
1140.0
1193.0
1230.0
1262.0
1283.0
1285.0
1278.0
1263.0
1238.0
1196.0
1130.0
1053.0
994.0
972.0
974.0
980.0
976.0
971.0
967.0
962.0
959.0
957.0
959.0
956.0
949.0
949.0
947.0
943.0
943.0
942.0
940.0
941.0
936.0
942.0
944.0
943.0
941.0
936.0
937.0
942.0
944.0
943.0
940.0
937.0
938.0
940.0
944.0
943.0
940.0
941.0
939.0
942.0
948.0
945.0
944.0
944.0
943.0
948.0
949.0
947.0
948.0
946.0
949.0
955.0
953.0
953.0
952.0
950.0
953.0
955.0
958.0
961.0
959.0
960.0
962.0
967.0
972.0
973.0
974.0
973.0
975.0
985.0
989.0
990.0
992.0
991.0
994.0
996.0
1000.0
1003.0
1005.0
1007.0
1012.0
1014.0
1023.0
1026.0
1029.0
1031.0
1036.0
1043.0
1050.0
1056.0
1056.0
1057.0
1063.0
1069.0
1080.0
1087.0
1088.0
1090.0
1093.0
1100.0
1104.0
1106.0
1104.0
1099.0
1101.0
1105.0
1104.0
1104.0
1096.0
1090.0
1085.0
1083.0
1083.0
1080.0
1071.0
1065.0
1061.0
1057.0
1056.0
1052.0
1045.0
1034.0
1031.0
1029.0
1027.0
1022.0
1016.0
1010.0
1007.0
1006.0
1003.0
998.0
994.0
993.0
992.0
991.0
989.0
985.0
980.0
978.0
977.0
976.0
979.0
975.0
972.0
965.0
965.0
965.0
967.0
966.0
962.0
961.0
959.0
960.0
962.0
962.0
958.0
958.0
952.0
957.0
961.0
960.0
956.0
954.0
952.0
954.0
958.0
958.0
956.0
953.0
954.0
956.0
958.0
956.0
957.0
955.0
956.0
958.0
960.0
962.0
959.0
959.0
958.0
961.0
963.0
962.0
959.0
956.0
956.0
960.0
965.0
965.0
963.0
960.0
962.0
964.0
966.0
964.0
963.0
959.0
961.0
963.0
963.0
965.0
962.0
959.0
959.0
958.0
962.0
962.0
960.0
958.0
960.0
963.0
965.0
967.0
965.0
963.0
958.0
957.0
958.0
954.0
952.0
950.0
950.0
954.0
956.0
951.0
946.0
941.0
942.0
944.0
944.0
946.0
947.0
943.0
946.0
944.0
948.0
950.0
945.0
942.0
946.0
943.0
949.0
950.0
949.0
947.0
947.0
949.0
951.0
949.0
949.0
947.0
947.0
946.0
952.0
953.0
953.0
949.0
948.0
951.0
952.0
954.0
953.0
947.0
950.0
949.0
952.0
953.0
949.0
944.0
945.0
949.0
952.0
953.0
949.0
945.0
950.0
952.0
955.0
952.0
950.0
945.0
948.0
950.0
951.0
951.0
948.0
945.0
946.0
947.0
951.0
950.0
948.0
946.0
947.0
950.0
954.0
954.0
949.0
949.0
950.0
950.0
955.0
954.0
949.0
951.0
952.0
953.0
957.0
957.0
954.0
950.0
952.0
949.0
957.0
959.0
953.0
952.0
952.0
954.0
958.0
958.0
957.0
957.0
956.0
963.0
963.0
967.0
966.0
966.0
966.0
974.0
977.0
979.0
980.0
981.0
983.0
988.0
995.0
1001.0
1004.0
1002.0
1002.0
1002.0
1001.0
1000.0
997.0
993.0
991.0
991.0
991.0
989.0
982.0
979.0
974.0
975.0
976.0
975.0
971.0
968.0
968.0
969.0
972.0
971.0
969.0
968.0
969.0
971.0
974.0
974.0
970.0
966.0
959.0
956.0
958.0
963.0
981.0
1008.0
1052.0
1108.0
1167.0
1218.0
1256.0
1277.0
1286.0
1290.0
1289.0
1269.0
1234.0
1171.0
1085.0
1012.0
977.0
976.0
979.0
973.0
968.0
963.0
961.0
963.0
959.0
957.0
956.0
956.0
954.0
947.0
935.0
928.0
930.0
939.0
944.0
944.0
938.0
933.0
934.0
938.0
940.0
940.0
939.0
936.0
932.0
939.0
941.0
941.0
939.0
936.0
936.0
939.0
943.0
944.0
941.0
939.0
942.0
943.0
946.0
947.0
943.0
943.0
943.0
947.0
949.0
954.0
951.0
949.0
948.0
953.0
955.0
955.0
956.0
956.0
955.0
958.0
962.0
965.0
963.0
962.0
964.0
963.0
970.0
973.0
971.0
973.0
973.0
978.0
984.0
987.0
986.0
985.0
989.0
994.0
999.0
1003.0
1004.0
1007.0
1008.0
1014.0
1020.0
1024.0
1026.0
1028.0
1033.0
1041.0
1047.0
1052.0
1054.0
1055.0
1061.0
1067.0
1074.0
1077.0
1079.0
1081.0
1080.0
1083.0
1084.0
1087.0
1087.0
1078.0
1080.0
1082.0
1083.0
1078.0
1073.0
1067.0
1066.0
1063.0
1062.0
1057.0
1048.0
1044.0
1039.0
1034.0
1034.0
1032.0
1026.0
1017.0
1015.0
1011.0
1009.0
1006.0
1001.0
998.0
991.0
991.0
989.0
988.0
985.0
979.0
977.0
977.0
978.0
974.0
970.0
968.0
965.0
965.0
967.0
965.0
962.0
957.0
954.0
955.0
956.0
959.0
956.0
953.0
952.0
955.0
958.0
955.0
951.0
949.0
946.0
948.0
952.0
952.0
950.0
946.0
947.0
950.0
953.0
953.0
949.0
947.0
946.0
952.0
951.0
955.0
953.0
953.0
950.0
954.0
957.0
957.0
957.0
955.0
955.0
956.0
958.0
961.0
960.0
957.0
958.0
958.0
960.0
961.0
961.0
956.0
956.0
958.0
961.0
956.0
957.0
954.0
951.0
954.0
958.0
960.0
958.0
954.0
955.0
954.0
955.0
956.0
952.0
951.0
952.0
952.0
955.0
957.0
954.0
951.0
951.0
953.0
952.0
953.0
951.0
949.0
949.0
949.0
954.0
952.0
950.0
946.0
945.0
946.0
950.0
950.0
947.0
944.0
945.0
947.0
948.0
946.0
948.0
944.0
943.0
945.0
944.0
947.0
945.0
943.0
943.0
944.0
942.0
944.0
941.0
941.0
941.0
943.0
944.0
947.0
944.0
941.0
941.0
944.0
948.0
946.0
944.0
941.0
942.0
941.0
945.0
946.0
944.0
941.0
943.0
945.0
945.0
946.0
945.0
943.0
943.0
945.0
947.0
947.0
946.0
944.0
943.0
944.0
946.0
946.0
946.0
942.0
941.0
946.0
946.0
947.0
943.0
944.0
944.0
947.0
946.0
947.0
947.0
943.0
943.0
945.0
948.0
948.0
947.0
945.0
947.0
947.0
949.0
950.0
949.0
944.0
944.0
946.0
951.0
950.0
949.0
945.0
946.0
947.0
951.0
954.0
957.0
958.0
958.0
962.0
967.0
973.0
970.0
975.0
977.0
984.0
992.0
997.0
998.0
994.0
991.0
989.0
989.0
983.0
979.0
976.0
975.0
973.0
974.0
969.0
960.0
955.0
957.0
956.0
954.0
955.0
952.0
951.0
949.0
954.0
954.0
951.0
953.0
949.0
947.0
950.0
951.0
952.0
950.0
944.0
938.0
936.0
941.0
955.0
983.0
1027.0
1087.0
1156.0
1219.0
1266.0
1287.0
1294.0
1292.0
1287.0
1272.0
1231.0
1166.0
1076.0
993.0
950.0
951.0
960.0
954.0
944.0
937.0
936.0
937.0
940.0
935.0
931.0
929.0
929.0
930.0
927.0
926.0
922.0
916.0
920.0
922.0
926.0
922.0
918.0
916.0
921.0
924.0
921.0
923.0
919.0
919.0
922.0
925.0
925.0
925.0
923.0
924.0
925.0
928.0
929.0
929.0
927.0
928.0
932.0
936.0
936.0
937.0
936.0
935.0
937.0
941.0
945.0
945.0
944.0
943.0
947.0
953.0
955.0
955.0
952.0
954.0
960.0
962.0
966.0
968.0
967.0
969.0
974.0
979.0
982.0
985.0
985.0
986.0
992.0
1000.0
1003.0
1006.0
1006.0
1011.0
1020.0
1027.0
1030.0
1034.0
1037.0
1040.0
1049.0
1054.0
1063.0
1066.0
1067.0
1074.0
1080.0
1087.0
1091.0
1093.0
1091.0
1092.0
1096.0
1099.0
1100.0
1098.0
1094.0
1093.0
1092.0
1094.0
1088.0
1084.0
1076.0
1070.0
1069.0
1066.0
1059.0
1047.0
1044.0
1038.0
1035.0
1035.0
1025.0
1022.0
1013.0
1007.0
1006.0
1005.0
1001.0
996.0
988.0
986.0
986.0
985.0
985.0
976.0
974.0
968.0
967.0
966.0
966.0
966.0
961.0
958.0
958.0
961.0
960.0
958.0
954.0
952.0
955.0
959.0
959.0
953.0
955.0
953.0
953.0
958.0
957.0
958.0
953.0
953.0
956.0
958.0
961.0
961.0
958.0
956.0
959.0
960.0
962.0
961.0
959.0
957.0
959.0
964.0
965.0
963.0
962.0
960.0
962.0
963.0
966.0
963.0
963.0
960.0
962.0
964.0
965.0
962.0
959.0
957.0
959.0
963.0
961.0
961.0
956.0
954.0
957.0
955.0
959.0
956.0
955.0
953.0
956.0
957.0
957.0
956.0
951.0
949.0
952.0
955.0
953.0
951.0
949.0
947.0
948.0
952.0
951.0
947.0
945.0
946.0
946.0
949.0
951.0
948.0
942.0
947.0
947.0
950.0
951.0
944.0
945.0
944.0
946.0
945.0
948.0
947.0
943.0
944.0
946.0
950.0
948.0
948.0
945.0
947.0
948.0
951.0
948.0
948.0
947.0
948.0
948.0
949.0
950.0
947.0
946.0
944.0
948.0
951.0
951.0
949.0
946.0
946.0
946.0
948.0
949.0
948.0
946.0
946.0
947.0
951.0
954.0
948.0
948.0
948.0
947.0
953.0
953.0
947.0
944.0
948.0
950.0
954.0
956.0
954.0
955.0
955.0
961.0
965.0
968.0
971.0
969.0
971.0
977.0
980.0
986.0
990.0
990.0
992.0
997.0
996.0
992.0
990.0
985.0
983.0
984.0
982.0
980.0
973.0
967.0
961.0
962.0
963.0
962.0
960.0
957.0
955.0
956.0
959.0
959.0
960.0
955.0
955.0
962.0
964.0
964.0
962.0
954.0
951.0
960.0
982.0
1017.0
1069.0
1134.0
1197.0
1253.0
1289.0
1302.0
1298.0
1286.0
1258.0
1204.0
1126.0
1035.0
972.0
957.0
965.0
965.0
960.0
959.0
956.0
953.0
950.0
948.0
947.0
946.0
945.0
940.0
937.0
935.0
939.0
941.0
939.0
933.0
933.0
936.0
938.0
939.0
938.0
935.0
934.0
934.0
936.0
941.0
935.0
936.0
936.0
937.0
941.0
939.0
938.0
937.0
937.0
941.0
944.0
945.0
942.0
941.0
944.0
946.0
948.0
946.0
948.0
949.0
950.0
951.0
957.0
957.0
957.0
955.0
956.0
960.0
962.0
965.0
965.0
963.0
964.0
969.0
976.0
978.0
979.0
979.0
978.0
984.0
987.0
992.0
993.0
996.0
999.0
1007.0
1015.0
1016.0
1022.0
1025.0
1030.0
1036.0
1044.0
1049.0
1052.0
1056.0
1058.0
1064.0
1075.0
1076.0
1076.0
1079.0
1077.0
1080.0
1089.0
1086.0
1086.0
1082.0
1079.0
1080.0
1080.0
1078.0
1067.0
1067.0
1058.0
1056.0
1053.0
1050.0
1042.0
1034.0
1030.0
1024.0
1023.0
1018.0
1010.0
1003.0
997.0
998.0
995.0
993.0
987.0
980.0
978.0
978.0
977.0
974.0
969.0
965.0
965.0
963.0
966.0
963.0
958.0
953.0
952.0
953.0
954.0
954.0
950.0
947.0
944.0
944.0
946.0
948.0
946.0
944.0
943.0
942.0
945.0
943.0
941.0
941.0
940.0
942.0
944.0
945.0
942.0
939.0
938.0
939.0
948.0
948.0
947.0
947.0
945.0
950.0
953.0
951.0
950.0
950.0
949.0
952.0
955.0
952.0
952.0
952.0
951.0
953.0
955.0
958.0
956.0
953.0
956.0
955.0
955.0
957.0
956.0
949.0
952.0
952.0
955.0
953.0
952.0
949.0
948.0
949.0
951.0
952.0
951.0
949.0
948.0
949.0
950.0
950.0
949.0
946.0
942.0
946.0
947.0
948.0
946.0
946.0
945.0
944.0
946.0
947.0
949.0
943.0
943.0
943.0
947.0
946.0
946.0
942.0
940.0
942.0
946.0
945.0
942.0
944.0
942.0
943.0
947.0
947.0
946.0
940.0
941.0
942.0
946.0
947.0
945.0
941.0
941.0
944.0
945.0
944.0
943.0
942.0
944.0
943.0
943.0
946.0
945.0
941.0
940.0
947.0
949.0
949.0
947.0
942.0
943.0
942.0
947.0
949.0
948.0
946.0
945.0
947.0
950.0
950.0
948.0
947.0
945.0
944.0
948.0
951.0
948.0
946.0
946.0
948.0
950.0
952.0
950.0
946.0
943.0
948.0
952.0
953.0
956.0
953.0
955.0
957.0
963.0
967.0
966.0
968.0
970.0
976.0
982.0
989.0
992.0
994.0
994.0
993.0
995.0
993.0
986.0
983.0
981.0
981.0
981.0
978.0
972.0
964.0
965.0
963.0
961.0
960.0
959.0
952.0
951.0
953.0
958.0
959.0
957.0
952.0
953.0
954.0
955.0
956.0
953.0
945.0
940.0
938.0
948.0
975.0
1016.0
1074.0
1146.0
1219.0
1275.0
1310.0
1324.0
1323.0
1316.0
1299.0
1264.0
1193.0
1095.0
1001.0
952.0
952.0
961.0
959.0
950.0
946.0
944.0
946.0
944.0
944.0
939.0
931.0
930.0
930.0
934.0
931.0
931.0
926.0
925.0
925.0
930.0
929.0
927.0
923.0
923.0
924.0
928.0
928.0
925.0
925.0
922.0
925.0
930.0
928.0
925.0
921.0
924.0
926.0
930.0
934.0
930.0
930.0
931.0
931.0
937.0
935.0
936.0
936.0
934.0
936.0
940.0
940.0
941.0
940.0
942.0
944.0
949.0
951.0
953.0
952.0
950.0
956.0
961.0
963.0
963.0
963.0
962.0
970.0
974.0
980.0
979.0
979.0
982.0
988.0
997.0
995.0
1001.0
1005.0
1007.0
1016.0
1023.0
1029.0
1032.0
1033.0
1037.0
1047.0
1054.0
1060.0
1066.0
1069.0
1069.0
1079.0
1084.0
1088.0
1088.0
1086.0
1087.0
1087.0
1090.0
1088.0
1082.0
1078.0
1077.0
1075.0
1074.0
1070.0
1063.0
1057.0
1051.0
1050.0
1045.0
1041.0
1033.0
1027.0
1020.0
1016.0
1015.0
1011.0
1005.0
999.0
996.0
993.0
992.0
990.0
986.0
974.0
975.0
973.0
972.0
970.0
967.0
962.0
961.0
961.0
961.0
959.0
958.0
951.0
949.0
950.0
950.0
952.0
949.0
947.0
947.0
947.0
950.0
948.0
946.0
945.0
945.0
946.0
947.0
950.0
947.0
945.0
944.0
943.0
946.0
948.0
949.0
945.0
944.0
948.0
950.0
950.0
952.0
947.0
947.0
949.0
954.0
956.0
955.0
950.0
949.0
951.0
955.0
956.0
954.0
950.0
951.0
952.0
954.0
954.0
955.0
949.0
949.0
955.0
954.0
956.0
953.0
948.0
950.0
950.0
953.0
953.0
951.0
950.0
950.0
947.0
949.0
951.0
950.0
946.0
944.0
947.0
951.0
950.0
945.0
946.0
942.0
947.0
945.0
947.0
946.0
942.0
942.0
943.0
947.0
949.0
943.0
941.0
940.0
945.0
948.0
948.0
947.0
943.0
944.0
939.0
944.0
944.0
946.0
944.0
941.0
942.0
946.0
947.0
945.0
943.0
942.0
945.0
946.0
947.0
946.0
942.0
943.0
943.0
947.0
947.0
947.0
942.0
943.0
944.0
949.0
949.0
947.0
944.0
942.0
946.0
949.0
951.0
949.0
944.0
945.0
946.0
947.0
949.0
950.0
946.0
945.0
947.0
952.0
952.0
951.0
945.0
947.0
949.0
952.0
951.0
951.0
948.0
948.0
953.0
954.0
954.0
951.0
946.0
948.0
952.0
954.0
956.0
953.0
950.0
951.0
953.0
957.0
952.0
953.0
954.0
954.0
958.0
960.0
960.0
961.0
958.0
958.0
958.0
965.0
966.0
965.0
966.0
967.0
976.0
983.0
983.0
988.0
989.0
999.0
1005.0
1009.0
1010.0
1006.0
998.0
993.0
994.0
996.0
994.0
988.0
983.0
977.0
976.0
974.0
973.0
970.0
965.0
963.0
959.0
962.0
963.0
962.0
962.0
961.0
960.0
964.0
966.0
963.0
958.0
952.0
944.0
943.0
951.0
973.0
1012.0
1072.0
1147.0
1219.0
1281.0
1323.0
1342.0
1349.0
1344.0
1329.0
1289.0
1214.0
1106.0
1005.0
957.0
963.0
972.0
973.0
963.0
954.0
958.0
958.0
956.0
952.0
944.0
941.0
942.0
945.0
944.0
941.0
938.0
935.0
937.0
939.0
941.0
935.0
938.0
936.0
937.0
941.0
942.0
941.0
935.0
936.0
938.0
939.0
942.0
942.0
939.0
940.0
944.0
944.0
946.0
943.0
944.0
943.0
945.0
949.0
951.0
949.0
946.0
945.0
949.0
951.0
955.0
954.0
952.0
954.0
954.0
959.0
961.0
960.0
960.0
960.0
965.0
968.0
971.0
973.0
968.0
971.0
975.0
981.0
982.0
985.0
984.0
988.0
992.0
1000.0
1004.0
1006.0
1005.0
1009.0
1015.0
1023.0
1027.0
1032.0
1032.0
1037.0
1045.0
1052.0
1058.0
1062.0
1063.0
1065.0
1075.0
1079.0
1084.0
1087.0
1087.0
1087.0
1094.0
1097.0
1099.0
1098.0
1093.0
1094.0
1096.0
1097.0
1095.0
1090.0
1085.0
1082.0
1078.0
1076.0
1073.0
1066.0
1061.0
1053.0
1046.0
1043.0
1036.0
1034.0
1028.0
1024.0
1022.0
1019.0
1015.0
1011.0
1003.0
998.0
996.0
997.0
995.0
987.0
981.0
976.0
979.0
980.0
976.0
976.0
970.0
968.0
969.0
970.0
967.0
963.0
961.0
958.0
963.0
964.0
964.0
961.0
958.0
957.0
959.0
960.0
960.0
958.0
955.0
953.0
958.0
959.0
958.0
957.0
952.0
954.0
955.0
959.0
962.0
957.0
955.0
956.0
958.0
959.0
963.0
962.0
958.0
958.0
962.0
966.0
967.0
965.0
963.0
963.0
964.0
967.0
966.0
966.0
964.0
962.0
965.0
965.0
964.0
966.0
963.0
961.0
964.0
964.0
965.0
960.0
958.0
959.0
960.0
963.0
962.0
959.0
956.0
957.0
957.0
960.0
960.0
959.0
954.0
952.0
956.0
960.0
961.0
959.0
955.0
954.0
957.0
959.0
958.0
957.0
953.0
953.0
955.0
955.0
956.0
956.0
954.0
952.0
954.0
958.0
955.0
954.0
954.0
950.0
954.0
956.0
954.0
952.0
949.0
950.0
953.0
954.0
952.0
952.0
948.0
949.0
951.0
954.0
954.0
953.0
950.0
949.0
952.0
952.0
951.0
952.0
950.0
947.0
949.0
953.0
954.0
951.0
950.0
948.0
950.0
952.0
952.0
949.0
949.0
947.0
949.0
951.0
951.0
949.0
948.0
946.0
948.0
951.0
951.0
950.0
946.0
945.0
947.0
949.0
949.0
947.0
947.0
946.0
947.0
949.0
952.0
949.0
947.0
945.0
945.0
950.0
953.0
949.0
948.0
946.0
948.0
951.0
952.0
950.0
945.0
946.0
948.0
952.0
951.0
946.0
946.0
945.0
946.0
949.0
950.0
944.0
944.0
946.0
950.0
953.0
953.0
952.0
953.0
955.0
959.0
965.0
967.0
965.0
965.0
967.0
972.0
977.0
982.0
984.0
993.0
1001.0
1009.0
1010.0
1007.0
1002.0
996.0
985.0
987.0
989.0
989.0
984.0
978.0
972.0
969.0
969.0
964.0
960.0
954.0
952.0
950.0
953.0
953.0
952.0
949.0
951.0
952.0
954.0
955.0
953.0
949.0
949.0
948.0
946.0
943.0
930.0
929.0
942.0
975.0
1028.0
1095.0
1176.0
1246.0
1309.0
1348.0
1370.0
1373.0
1361.0
1331.0
1285.0
1203.0
1096.0
992.0
945.0
945.0
954.0
957.0
953.0
949.0
944.0
946.0
945.0
946.0
944.0
943.0
940.0
938.0
933.0
935.0
938.0
938.0
935.0
931.0
929.0
933.0
935.0
935.0
935.0
932.0
930.0
930.0
934.0
936.0
936.0
932.0
933.0
937.0
940.0
941.0
937.0
937.0
936.0
940.0
944.0
944.0
944.0
940.0
940.0
945.0
949.0
949.0
951.0
949.0
950.0
952.0
956.0
960.0
961.0
960.0
961.0
963.0
965.0
968.0
966.0
969.0
972.0
977.0
978.0
983.0
983.0
988.0
990.0
992.0
1003.0
1003.0
1004.0
1006.0
1012.0
1017.0
1023.0
1029.0
1034.0
1036.0
1041.0
1049.0
1055.0
1063.0
1063.0
1065.0
1073.0
1076.0
1087.0
1092.0
1098.0
1100.0
1104.0
1113.0
1119.0
1123.0
1122.0
1126.0
1131.0
1134.0
1137.0
1137.0
1137.0
1134.0
1131.0
1136.0
1133.0
1130.0
1123.0
1115.0
1111.0
1107.0
1107.0
1100.0
1094.0
1082.0
1079.0
1074.0
1072.0
1066.0
1058.0
1051.0
1044.0
1042.0
1037.0
1032.0
1027.0
1021.0
1017.0
1015.0
1014.0
1011.0
1004.0
1001.0
1001.0
995.0
997.0
992.0
989.0
985.0
981.0
981.0
986.0
981.0
979.0
975.0
973.0
975.0
975.0
973.0
972.0
968.0
968.0
966.0
968.0
968.0
965.0
962.0
960.0
963.0
963.0
965.0
962.0
958.0
959.0
963.0
968.0
967.0
968.0
967.0
963.0
965.0
972.0
973.0
973.0
971.0
969.0
975.0
976.0
978.0
976.0
972.0
972.0
978.0
979.0
979.0
979.0
975.0
977.0
978.0
980.0
980.0
977.0
976.0
976.0
976.0
979.0
981.0
978.0
977.0
974.0
977.0
980.0
978.0
977.0
974.0
972.0
975.0
975.0
977.0
973.0
974.0
971.0
972.0
975.0
976.0
973.0
971.0
971.0
970.0
977.0
977.0
975.0
972.0
968.0
970.0
975.0
977.0
975.0
973.0
973.0
973.0
975.0
977.0
976.0
970.0
971.0
973.0
974.0
974.0
973.0
971.0
971.0
971.0
975.0
975.0
970.0
967.0
968.0
969.0
975.0
972.0
972.0
970.0
970.0
969.0
973.0
977.0
977.0
971.0
969.0
971.0
973.0
973.0
974.0
970.0
971.0
972.0
974.0
973.0
973.0
971.0
970.0
969.0
974.0
974.0
975.0
971.0
969.0
973.0
976.0
981.0
982.0
981.0
983.0
988.0
991.0
994.0
998.0
998.0
998.0
1002.0
1008.0
1015.0
1024.0
1027.0
1029.0
1028.0
1026.0
1025.0
1020.0
1014.0
1012.0
1008.0
1005.0
1005.0
997.0
990.0
985.0
986.0
983.0
980.0
978.0
972.0
968.0
971.0
975.0
974.0
973.0
972.0
969.0
970.0
974.0
972.0
971.0
961.0
959.0
953.0
957.0
971.0
1000.0
1046.0
1114.0
1195.0
1273.0
1333.0
1363.0
1376.0
1375.0
1366.0
1341.0
1288.0
1201.0
1082.0
982.0
942.0
948.0
959.0
956.0
948.0
944.0
950.0
953.0
956.0
954.0
953.0
948.0
949.0
952.0
951.0
949.0
944.0
943.0
946.0
947.0
950.0
946.0
944.0
945.0
947.0
948.0
948.0
948.0
944.0
945.0
948.0
950.0
953.0
949.0
947.0
948.0
950.0
950.0
954.0
949.0
949.0
949.0
951.0
957.0
958.0
957.0
954.0
955.0
958.0
963.0
964.0
963.0
962.0
961.0
966.0
971.0
970.0
970.0
970.0
971.0
974.0
978.0
981.0
982.0
982.0
983.0
987.0
991.0
995.0
994.0
993.0
995.0
999.0
1008.0
1011.0
1015.0
1020.0
1022.0
1027.0
1036.0
1042.0
1043.0
1045.0
1050.0
1059.0
1068.0
1074.0
1078.0
1080.0
1086.0
1094.0
1100.0
1105.0
1111.0
1112.0
1114.0
1120.0
1126.0
1130.0
1131.0
1130.0
1129.0
1129.0
1130.0
1127.0
1123.0
1118.0
1114.0
1112.0
1108.0
1103.0
1095.0
1088.0
1082.0
1079.0
1076.0
1069.0
1061.0
1050.0
1044.0
1042.0
1039.0
1032.0
1027.0
1019.0
1012.0
1010.0
1013.0
1009.0
1002.0
996.0
992.0
990.0
992.0
989.0
984.0
981.0
978.0
978.0
976.0
973.0
970.0
968.0
965.0
965.0
967.0
965.0
962.0
958.0
959.0
960.0
964.0
963.0
961.0
960.0
958.0
960.0
963.0
962.0
961.0
958.0
957.0
961.0
962.0
964.0
963.0
962.0
961.0
966.0
968.0
970.0
970.0
969.0
969.0
971.0
974.0
976.0
974.0
971.0
968.0
973.0
977.0
972.0
973.0
973.0
973.0
976.0
978.0
976.0
976.0
972.0
971.0
974.0
975.0
977.0
973.0
970.0
968.0
966.0
972.0
972.0
968.0
967.0
965.0
967.0
969.0
968.0
967.0
963.0
961.0
965.0
962.0
966.0
964.0
961.0
959.0
960.0
960.0
963.0
960.0
957.0
954.0
956.0
959.0
960.0
955.0
952.0
952.0
955.0
956.0
958.0
954.0
951.0
951.0
951.0
954.0
954.0
954.0
951.0
950.0
947.0
955.0
955.0
954.0
951.0
949.0
950.0
954.0
955.0
949.0
949.0
949.0
951.0
954.0
954.0
952.0
949.0
951.0
953.0
957.0
956.0
953.0
952.0
951.0
952.0
954.0
957.0
955.0
952.0
954.0
957.0
962.0
962.0
962.0
959.0
966.0
971.0
980.0
978.0
979.0
977.0
982.0
993.0
1003.0
1007.0
1010.0
1010.0
1006.0
1009.0
1011.0
1010.0
1006.0
1002.0
998.0
992.0
987.0
985.0
976.0
970.0
964.0
960.0
961.0
959.0
952.0
948.0
949.0
948.0
952.0
951.0
947.0
945.0
944.0
945.0
948.0
944.0
939.0
927.0
916.0
915.0
932.0
972.0
1034.0
1126.0
1217.0
1297.0
1352.0
1384.0
1391.0
1388.0
1373.0
1341.0
1273.0
1157.0
1029.0
926.0
909.0
931.0
944.0
937.0
931.0
928.0
928.0
930.0
930.0
930.0
924.0
919.0
918.0
922.0
923.0
923.0
924.0
919.0
915.0
919.0
922.0
922.0
918.0
919.0
916.0
918.0
922.0
922.0
920.0
920.0
916.0
922.0
925.0
926.0
920.0
920.0
919.0
922.0
926.0
927.0
927.0
924.0
924.0
928.0
930.0
930.0
932.0
929.0
929.0
930.0
937.0
938.0
937.0
935.0
939.0
942.0
945.0
949.0
950.0
947.0
947.0
954.0
958.0
963.0
963.0
960.0
962.0
973.0
977.0
981.0
981.0
983.0
986.0
993.0
1001.0
1004.0
1010.0
1014.0
1019.0
1023.0
1034.0
1038.0
1046.0
1050.0
1055.0
1062.0
1070.0
1077.0
1080.0
1081.0
1088.0
1093.0
1098.0
1102.0
1101.0
1099.0
1101.0
1099.0
1102.0
1101.0
1096.0
1089.0
1087.0
1085.0
1082.0
1077.0
1070.0
1063.0
1055.0
1050.0
1047.0
1044.0
1034.0
1024.0
1022.0
1018.0
1015.0
1011.0
1005.0
999.0
992.0
993.0
985.0
989.0
984.0
978.0
971.0
972.0
972.0
971.0
967.0
962.0
962.0
958.0
960.0
960.0
958.0
951.0
948.0
951.0
952.0
948.0
945.0
944.0
944.0
943.0
946.0
946.0
942.0
940.0
939.0
939.0
943.0
940.0
938.0
937.0
936.0
937.0
936.0
938.0
939.0
937.0
937.0
936.0
939.0
943.0
943.0
941.0
941.0
944.0
945.0
947.0
945.0
944.0
943.0
948.0
951.0
952.0
954.0
950.0
949.0
951.0
952.0
951.0
947.0
944.0
944.0
949.0
949.0
953.0
947.0
948.0
947.0
949.0
950.0
953.0
952.0
949.0
947.0
945.0
951.0
950.0
946.0
943.0
942.0
945.0
942.0
947.0
944.0
943.0
942.0
945.0
948.0
949.0
946.0
944.0
939.0
944.0
948.0
946.0
945.0
944.0
939.0
942.0
944.0
945.0
943.0
940.0
939.0
941.0
942.0
943.0
942.0
939.0
938.0
940.0
940.0
944.0
945.0
941.0
942.0
942.0
943.0
946.0
943.0
939.0
936.0
941.0
943.0
946.0
943.0
940.0
940.0
941.0
942.0
940.0
942.0
941.0
939.0
937.0
941.0
941.0
942.0
938.0
938.0
937.0
942.0
945.0
944.0
941.0
939.0
941.0
942.0
944.0
943.0
941.0
940.0
945.0
943.0
949.0
951.0
949.0
951.0
955.0
960.0
963.0
967.0
968.0
970.0
977.0
983.0
988.0
999.0
1001.0
1006.0
1010.0
1011.0
1016.0
1009.0
1005.0
1000.0
995.0
993.0
988.0
978.0
972.0
963.0
960.0
959.0
955.0
950.0
943.0
942.0
941.0
946.0
944.0
942.0
938.0
940.0
940.0
941.0
944.0
941.0
935.0
927.0
914.0
903.0
902.0
921.0
967.0
1044.0
1148.0
1253.0
1341.0
1393.0
1412.0
1414.0
1401.0
1371.0
1296.0
1168.0
1040.0
912.0
907.0
937.0
948.0
938.0
929.0
927.0
932.0
935.0
931.0
926.0
922.0
919.0
918.0
921.0
920.0
918.0
916.0
917.0
916.0
917.0
916.0
915.0
913.0
914.0
911.0
916.0
915.0
917.0
913.0
916.0
916.0
921.0
921.0
919.0
920.0
917.0
923.0
924.0
922.0
926.0
924.0
927.0
927.0
933.0
933.0
933.0
931.0
930.0
930.0
937.0
935.0
937.0
937.0
939.0
943.0
947.0
949.0
951.0
950.0
952.0
955.0
959.0
965.0
965.0
964.0
968.0
973.0
978.0
984.0
985.0
988.0
991.0
996.0
1005.0
1012.0
1017.0
1022.0
1022.0
1031.0
1036.0
1049.0
1053.0
1054.0
1060.0
1068.0
1077.0
1084.0
1084.0
1083.0
1085.0
1095.0
1100.0
1101.0
1099.0
1099.0
1098.0
1097.0
1097.0
1095.0
1092.0
1084.0
1077.0
1071.0
1068.0
1062.0
1054.0
1045.0
1040.0
1034.0
1031.0
1026.0
