# Simple Text Format
# Sampling Rate (Hz):= 360.00
# Resolution:= 12
# Labels:= ECG
989.0
989.0
994.0
995.0
994.0
995.0
992.0
993.0
995.0
995.0
991.0
988.0
989.0
992.0
994.0
998.0
999.0
994.0
990.0
988.0
985.0
987.0
985.0
982.0
978.0
980.0
984.0
987.0
986.0
982.0
980.0
983.0
985.0
983.0
980.0
976.0
976.0
980.0
982.0
980.0
978.0
976.0
976.0
977.0
981.0
976.0
975.0
969.0
971.0
973.0
976.0
976.0
973.0
970.0
970.0
973.0
976.0
978.0
978.0
974.0
968.0
973.0
974.0
971.0
965.0
963.0
963.0
970.0
977.0
978.0
977.0
971.0
968.0
971.0
974.0
976.0
974.0
971.0
969.0
970.0
976.0
975.0
975.0
970.0
973.0
976.0
982.0
985.0
988.0
992.0
997.0
1003.0
1006.0
1003.0
998.0
997.0
1008.0
1027.0
1041.0
1045.0
1041.0
1038.0
1037.0
1038.0
1042.0
1035.0
1028.0
1017.0
1002.0
999.0
997.0
993.0
986.0
973.0
974.0
974.0
977.0
975.0
973.0
972.0
974.0
980.0
983.0
981.0
970.0
954.0
945.0
945.0
958.0
993.0
1055.0
1154.0
1264.0
1362.0
1422.0
1452.0
1455.0
1439.0
1390.0
1302.0
1182.0
1054.0
926.0
900.0
934.0
962.0
965.0
965.0
964.0
966.0
963.0
962.0
963.0
959.0
954.0
946.0
946.0
951.0
953.0
954.0
953.0
951.0
949.0
954.0
960.0
958.0
957.0
954.0
954.0
954.0
960.0
961.0
958.0
956.0
956.0
960.0
963.0
960.0
958.0
960.0
961.0
964.0
968.0
968.0
969.0
969.0
968.0
970.0
976.0
975.0
975.0
974.0
976.0
979.0
985.0
985.0
984.0
983.0
983.0
991.0
995.0
996.0
997.0
997.0
1000.0
1006.0
1012.0
1014.0
1012.0
1011.0
1015.0
1021.0
1029.0
1029.0
1027.0
1030.0
1032.0
1035.0
1042.0
1047.0
1049.0
1050.0
1054.0
1055.0
1062.0
1066.0
1064.0
1062.0
1063.0
1068.0
1072.0
1071.0
1063.0
1058.0
1060.0
1060.0
1060.0
1062.0
1051.0
1044.0
1043.0
1042.0
1040.0
1037.0
1028.0
1023.0
1024.0
1023.0
1024.0
1019.0
1013.0
1005.0
1006.0
1008.0
1010.0
1005.0
997.0
995.0
993.0
996.0
999.0
996.0
992.0
989.0
991.0
994.0
998.0
999.0
997.0
993.0
994.0
996.0
1001.0
999.0
999.0
997.0
998.0
1000.0
1002.0
1003.0
1003.0
997.0
1000.0
1002.0
1007.0
1006.0
1002.0
999.0
1000.0
1001.0
1003.0
1005.0
1005.0
1004.0
1004.0
1006.0
1011.0
1013.0
1010.0
1007.0
1005.0
1008.0
1009.0
1010.0
1007.0
1003.0
1004.0
1008.0
1009.0
1005.0
1002.0
1000.0
999.0
998.0
1005.0
1002.0
1001.0
1000.0
1002.0
999.0
1003.0
999.0
998.0
997.0
994.0
996.0
996.0
996.0
998.0
996.0
993.0
992.0
997.0
994.0
992.0
989.0
990.0
992.0
995.0
992.0
992.0
988.0
985.0
986.0
992.0
992.0
985.0
984.0
987.0
990.0
990.0
989.0
988.0
985.0
985.0
988.0
991.0
991.0
992.0
988.0
986.0
989.0
994.0
996.0
996.0
996.0
1000.0
1008.0
1013.0
1018.0
1015.0
1015.0
1018.0
1026.0
1042.0
1051.0
1054.0
1050.0
1050.0
1055.0
1059.0
1059.0
1056.0
1048.0
1041.0
1029.0
1022.0
1017.0
1007.0
1001.0
993.0
988.0
988.0
987.0
984.0
982.0
979.0
979.0
987.0
986.0
986.0
980.0
979.0
975.0
975.0
962.0
945.0
940.0
955.0
1003.0
1084.0
1194.0
1309.0
1392.0
1442.0
1464.0
1463.0
1449.0
1410.0
1321.0
1193.0
1065.0
937.0
902.0
938.0
965.0
970.0
969.0
968.0
973.0
972.0
965.0
962.0
963.0
964.0
961.0
956.0
954.0
954.0
959.0
960.0
958.0
956.0
955.0
955.0
959.0
958.0
960.0
954.0
950.0
948.0
952.0
958.0
961.0
958.0
955.0
956.0
960.0
964.0
966.0
966.0
961.0
963.0
964.0
968.0
973.0
973.0
970.0
972.0
976.0
980.0
982.0
983.0
982.0
983.0
984.0
990.0
990.0
992.0
991.0
990.0
995.0
1000.0
1004.0
1003.0
1006.0
1009.0
1015.0
1019.0
1023.0
1021.0
1021.0
1024.0
1028.0
1035.0
1038.0
1038.0
1039.0
1045.0
1049.0
1051.0
1056.0
1053.0
1054.0
1057.0
1061.0
1066.0
1070.0
1065.0
1065.0
1065.0
1067.0
1069.0
1063.0
1064.0
1055.0
1052.0
1053.0
1053.0
1050.0
1047.0
1039.0
1038.0
1038.0
1035.0
1029.0
1020.0
1019.0
1019.0
1019.0
1018.0
1013.0
1007.0
1001.0
1000.0
1000.0
1004.0
999.0
1003.0
999.0
998.0
999.0
1000.0
999.0
997.0
994.0
995.0
997.0
999.0
1000.0
999.0
999.0
1002.0
1002.0
1003.0
1007.0
1004.0
998.0
1000.0
1002.0
1008.0
1008.0
1008.0
1003.0
1004.0
1007.0
1007.0
1004.0
1004.0
1003.0
1004.0
1008.0
1011.0
1009.0
1008.0
1006.0
1008.0
1007.0
1007.0
1008.0
1007.0
1005.0
1003.0
1004.0
1006.0
1007.0
1006.0
1002.0
1001.0
1003.0
1004.0
1002.0
998.0
993.0
995.0
996.0
1000.0
1001.0
997.0
992.0
993.0
992.0
996.0
994.0
992.0
987.0
983.0
983.0
990.0
992.0
988.0
984.0
985.0
986.0
988.0
987.0
983.0
980.0
979.0
981.0
985.0
986.0
982.0
978.0
981.0
981.0
984.0
982.0
978.0
976.0
977.0
977.0
982.0
982.0
980.0
977.0
975.0
977.0
980.0
979.0
980.0
980.0
982.0
988.0
990.0
995.0
995.0
995.0
998.0
1005.0
1010.0
1014.0
1015.0
1018.0
1029.0
1039.0
1046.0
1046.0
1042.0
1036.0
1036.0
1042.0
1045.0
1039.0
1023.0
1008.0
1000.0
995.0
995.0
988.0
978.0
970.0
967.0
970.0
973.0
971.0
968.0
964.0
963.0
964.0
968.0
969.0
967.0
963.0
959.0
950.0
939.0
923.0
918.0
929.0
967.0
1032.0
1127.0
1238.0
1333.0
1402.0
1434.0
1447.0
1440.0
1419.0
1364.0
1261.0
1133.0
1005.0
886.0
891.0
930.0
952.0
950.0
946.0
947.0
952.0
944.0
940.0
938.0
934.0
937.0
936.0
933.0
933.0
930.0
933.0
935.0
935.0
932.0
929.0
928.0
932.0
936.0
937.0
935.0
933.0
933.0
935.0
935.0
936.0
935.0
930.0
933.0
937.0
940.0
942.0
939.0
938.0
937.0
941.0
944.0
946.0
942.0
939.0
941.0
946.0
951.0
951.0
954.0
955.0
956.0
959.0
964.0
968.0
965.0
963.0
967.0
967.0
972.0
976.0
977.0
976.0
979.0
986.0
989.0
993.0
993.0
988.0
992.0
1000.0
1006.0
1013.0
1010.0
1007.0
1005.0
1008.0
1017.0
1021.0
1022.0
1019.0
1023.0
1029.0
1030.0
1031.0
1034.0
1031.0
1030.0
1032.0
1035.0
1034.0
1031.0
1023.0
1027.0
1022.0
1020.0
1020.0
1015.0
1011.0
1009.0
1007.0
1006.0
1003.0
998.0
994.0
992.0
990.0
992.0
988.0
982.0
980.0
980.0
981.0
982.0
982.0
978.0
974.0
973.0
975.0
980.0
981.0
981.0
976.0
975.0
980.0
983.0
987.0
984.0
979.0
983.0
985.0
991.0
992.0
985.0
983.0
983.0
984.0
985.0
987.0
983.0
983.0
985.0
989.0
992.0
992.0
985.0
982.0
979.0
982.0
987.0
989.0
989.0
986.0
986.0
987.0
988.0
990.0
988.0
983.0
984.0
986.0
987.0
984.0
981.0
979.0
977.0
979.0
983.0
980.0
980.0
975.0
975.0
977.0
978.0
975.0
975.0
971.0
972.0
975.0
975.0
976.0
972.0
971.0
970.0
972.0
975.0
979.0
976.0
973.0
965.0
963.0
967.0
972.0
974.0
971.0
969.0
966.0
970.0
973.0
971.0
969.0
966.0
967.0
969.0
963.0
964.0
962.0
965.0
968.0
971.0
972.0
968.0
964.0
967.0
968.0
971.0
973.0
970.0
965.0
966.0
970.0
974.0
976.0
975.0
977.0
985.0
989.0
994.0
998.0
1000.0
997.0
998.0
1007.0
1018.0
1032.0
1039.0
1037.0
1036.0
1036.0
1039.0
1040.0
1037.0
1033.0
1026.0
1018.0
1009.0
1002.0
996.0
990.0
983.0
977.0
976.0
970.0
960.0
951.0
950.0
961.0
963.0
964.0
961.0
955.0
957.0
958.0
957.0
956.0
950.0
936.0
928.0
919.0
923.0
943.0
982.0
1045.0
1137.0
1242.0
1331.0
1392.0
1423.0
1432.0
1427.0
1415.0
1381.0
1308.0
1195.0
1067.0
951.0
893.0
900.0
928.0
944.0
944.0
947.0
951.0
956.0
956.0
952.0
948.0
943.0
942.0
945.0
942.0
938.0
932.0
930.0
938.0
947.0
950.0
948.0
939.0
938.0
940.0
944.0
948.0
947.0
944.0
946.0
947.0
949.0
953.0
950.0
949.0
947.0
948.0
948.0
947.0
943.0
941.0
947.0
955.0
961.0
957.0
955.0
956.0
954.0
959.0
961.0
961.0
961.0
958.0
960.0
964.0
970.0
970.0
972.0
976.0
976.0
980.0
981.0
979.0
976.0
976.0
977.0
977.0
987.0
990.0
991.0
992.0
991.0
995.0
996.0
999.0
998.0
997.0
1000.0
1005.0
1008.0
1010.0
1011.0
1013.0
1017.0
1021.0
1026.0
1031.0
1031.0
1028.0
1027.0
1023.0
1019.0
1016.0
1017.0
1025.0
1025.0
1028.0
1028.0
1028.0
1023.0
1023.0
1022.0
1020.0
1021.0
1017.0
1016.0
1012.0
1013.0
1011.0
1012.0
1011.0
1007.0
1004.0
1000.0
999.0
996.0
994.0
988.0
981.0
978.0
977.0
982.0
983.0
981.0
978.0
976.0
982.0
984.0
982.0
982.0
979.0
982.0
984.0
984.0
983.0
983.0
972.0
972.0
980.0
989.0
989.0
986.0
979.0
984.0
985.0
989.0
988.0
986.0
987.0
988.0
987.0
988.0
991.0
990.0
989.0
990.0
993.0
994.0
993.0
988.0
989.0
988.0
991.0
993.0
997.0
996.0
991.0
988.0
988.0
989.0
986.0
989.0
984.0
985.0
986.0
987.0
987.0
981.0
979.0
981.0
982.0
984.0
981.0
981.0
976.0
975.0
977.0
981.0
977.0
975.0
973.0
970.0
973.0
975.0
973.0
970.0
969.0
968.0
970.0
971.0
970.0
968.0
965.0
964.0
966.0
967.0
968.0
966.0
963.0
960.0
965.0
968.0
968.0
970.0
966.0
965.0
965.0
967.0
967.0
963.0
962.0
962.0
962.0
964.0
966.0
963.0
960.0
962.0
966.0
970.0
972.0
976.0
979.0
982.0
986.0
988.0
991.0
990.0
989.0
1001.0
1015.0
1029.0
1035.0
1035.0
1030.0
1031.0
1035.0
1037.0
1034.0
1029.0
1016.0
1004.0
998.0
996.0
992.0
987.0
975.0
964.0
958.0
955.0
955.0
956.0
952.0
951.0
955.0
960.0
958.0
952.0
947.0
948.0
949.0
951.0
945.0
931.0
916.0
916.0
936.0
977.0
1044.0
1139.0
1238.0
1323.0
1385.0
1418.0
1431.0
1429.0
1417.0
1384.0
1325.0
1218.0
1090.0
962.0
852.0
851.0
890.0
920.0
932.0
936.0
936.0
938.0
936.0
942.0
941.0
936.0
930.0
929.0
927.0
931.0
933.0
932.0
929.0
930.0
930.0
932.0
934.0
931.0
926.0
927.0
932.0
937.0
938.0
936.0
932.0
932.0
937.0
939.0
937.0
937.0
936.0
936.0
941.0
944.0
948.0
947.0
944.0
946.0
947.0
953.0
952.0
952.0
948.0
950.0
954.0
957.0
959.0
955.0
953.0
954.0
955.0
964.0
963.0
961.0
962.0
969.0
979.0
984.0
982.0
980.0
976.0
976.0
976.0
986.0
991.0
991.0
987.0
989.0
995.0
1000.0
1005.0
1004.0
998.0
1000.0
1006.0
1015.0
1019.0
1019.0
1015.0
1013.0
1016.0
1018.0
1025.0
1031.0
1032.0
1034.0
1032.0
1034.0
1032.0
1032.0
1030.0
1027.0
1031.0
1035.0
1033.0
1032.0
1030.0
1024.0
1023.0
1022.0
1024.0
1022.0
1019.0
1017.0
1013.0
1013.0
1007.0
1004.0
999.0
997.0
999.0
996.0
996.0
994.0
994.0
993.0
995.0
999.0
999.0
997.0
991.0
988.0
990.0
991.0
991.0
988.0
988.0
990.0
993.0
996.0
996.0
996.0
994.0
993.0
991.0
996.0
999.0
997.0
994.0
998.0
1001.0
1002.0
1001.0
1001.0
998.0
996.0
996.0
1000.0
1004.0
1001.0
1001.0
1001.0
1004.0
1006.0
1005.0
1006.0
1003.0
1000.0
999.0
1001.0
1000.0
999.0
1001.0
1002.0
1004.0
1000.0
993.0
984.0
984.0
992.0
997.0
1001.0
999.0
994.0
985.0
978.0
977.0
982.0
984.0
983.0
977.0
976.0
978.0
981.0
979.0
978.0
976.0
975.0
975.0
978.0
977.0
976.0
973.0
968.0
969.0
972.0
967.0
968.0
963.0
966.0
967.0
974.0
970.0
970.0
970.0
967.0
970.0
968.0
966.0
965.0
966.0
966.0
968.0
973.0
978.0
976.0
975.0
974.0
976.0
979.0
981.0
981.0
982.0
985.0
988.0
992.0
1000.0
1010.0
1018.0
1023.0
1029.0
1031.0
1032.0
1033.0
1031.0
1031.0
1026.0
1020.0
1013.0
999.0
988.0
984.0
976.0
974.0
966.0
961.0
952.0
952.0
952.0
958.0
956.0
954.0
951.0
949.0
951.0
954.0
956.0
952.0
943.0
932.0
924.0
931.0
959.0
1007.0
1082.0
1186.0
1292.0
1371.0
1410.0
1422.0
1410.0
1386.0
1330.0
1227.0
1099.0
971.0
847.0
844.0
878.0
908.0
919.0
920.0
919.0
925.0
929.0
934.0
932.0
925.0
924.0
921.0
921.0
926.0
925.0
924.0
920.0
914.0
918.0
924.0
926.0
925.0
919.0
918.0
920.0
921.0
923.0
924.0
921.0
923.0
923.0
928.0
926.0
926.0
922.0
923.0
924.0
928.0
929.0
930.0
927.0
930.0
931.0
935.0
936.0
932.0
931.0
931.0
932.0
941.0
941.0
945.0
942.0
943.0
944.0
950.0
953.0
952.0
951.0
951.0
955.0
960.0
964.0
966.0
963.0
962.0
966.0
969.0
971.0
973.0
974.0
977.0
983.0
984.0
986.0
985.0
985.0
990.0
993.0
997.0
1002.0
1002.0
1001.0
1002.0
1002.0
1008.0
1007.0
1007.0
1007.0
1007.0
1005.0
1009.0
1006.0
1001.0
997.0
995.0
997.0
997.0
995.0
990.0
986.0
983.0
981.0
979.0
978.0
973.0
967.0
966.0
963.0
965.0
963.0
959.0
955.0
955.0
953.0
954.0
957.0
952.0
947.0
946.0
949.0
953.0
952.0
952.0
946.0
947.0
948.0
956.0
954.0
954.0
954.0
952.0
954.0
957.0
958.0
954.0
953.0
955.0
957.0
960.0
963.0
960.0
956.0
957.0
961.0
962.0
964.0
962.0
959.0
957.0
962.0
964.0
964.0
961.0
961.0
960.0
960.0
965.0
964.0
962.0
960.0
958.0
961.0
960.0
959.0
957.0
955.0
953.0
953.0
954.0
959.0
957.0
952.0
950.0
952.0
951.0
949.0
948.0
944.0
942.0
946.0
948.0
947.0
944.0
941.0
943.0
941.0
944.0
946.0
944.0
939.0
939.0
941.0
940.0
941.0
940.0
938.0
936.0
938.0
942.0
942.0
940.0
940.0
937.0
942.0
945.0
949.0
951.0
951.0
954.0
962.0
968.0
970.0
971.0
975.0
985.0
1002.0
1012.0
1013.0
1011.0
1010.0
1012.0
1014.0
1016.0
1007.0
999.0
987.0
983.0
977.0
968.0
953.0
936.0
929.0
931.0
940.0
945.0
952.0
943.0
935.0
922.0
917.0
915.0
925.0
929.0
928.0
926.0
921.0
913.0
903.0
901.0
912.0
948.0
1011.0
1105.0
1214.0
1308.0
1371.0
1400.0
1408.0
1401.0
1361.0
1279.0
1159.0
1031.0
903.0
853.0
878.0
903.0
910.0
908.0
911.0
913.0
921.0
921.0
916.0
915.0
914.0
914.0
916.0
910.0
906.0
908.0
910.0
911.0
915.0
915.0
913.0
914.0
914.0
915.0
916.0
918.0
915.0
913.0
916.0
916.0
919.0
918.0
915.0
914.0
919.0
924.0
926.0
925.0
922.0
923.0
924.0
929.0
931.0
931.0
929.0
929.0
931.0
937.0
937.0
934.0
932.0
937.0
940.0
945.0
948.0
947.0
942.0
939.0
943.0
948.0
954.0
956.0
953.0
956.0
961.0
963.0
963.0
965.0
965.0
970.0
974.0
980.0
981.0
978.0
980.0
984.0
988.0
990.0
994.0
995.0
996.0
996.0
997.0
1004.0
1006.0
1002.0
997.0
999.0
1001.0
1001.0
1000.0
1000.0
996.0
995.0
995.0
995.0
993.0
989.0
983.0
979.0
978.0
978.0
973.0
969.0
963.0
959.0
960.0
953.0
950.0
951.0
946.0
945.0
946.0
947.0
943.0
939.0
938.0
935.0
942.0
945.0
943.0
944.0
943.0
942.0
945.0
948.0
948.0
948.0
941.0
945.0
947.0
951.0
955.0
953.0
946.0
949.0
954.0
958.0
958.0
958.0
954.0
953.0
957.0
963.0
959.0
961.0
956.0
954.0
956.0
963.0
965.0
963.0
960.0
957.0
963.0
963.0
963.0
962.0
958.0
956.0
957.0
961.0
962.0
960.0
956.0
953.0
957.0
959.0
959.0
953.0
950.0
950.0
951.0
956.0
953.0
953.0
950.0
949.0
952.0
952.0
953.0
950.0
948.0
950.0
951.0
954.0
956.0
955.0
959.0
961.0
968.0
970.0
974.0
975.0
974.0
983.0
994.0
1005.0
1013.0
1014.0
1013.0
1012.0
1013.0
1018.0
1019.0
1012.0
1000.0
989.0
980.0
977.0
973.0
966.0
957.0
949.0
948.0
947.0
946.0
945.0
940.0
935.0
937.0
944.0
944.0
941.0
939.0
937.0
939.0
940.0
936.0
929.0
929.0
947.0
985.0
1051.0
1137.0
1239.0
1320.0
1371.0
1396.0
1398.0
1377.0
1321.0
1219.0
1091.0
963.0
869.0
866.0
894.0
911.0
911.0
910.0
916.0
922.0
925.0
923.0
921.0
922.0
923.0
923.0
923.0
917.0
917.0
919.0
922.0
925.0
923.0
921.0
919.0
922.0
924.0
926.0
927.0
923.0
922.0
921.0
927.0
930.0
930.0
924.0
924.0
928.0
931.0
931.0
931.0
930.0
932.0
937.0
939.0
941.0
941.0
938.0
939.0
942.0
945.0
950.0
948.0
946.0
948.0
953.0
956.0
954.0
961.0
957.0
962.0
964.0
970.0
975.0
977.0
975.0
977.0
982.0
986.0
990.0
990.0
990.0
992.0
997.0
1005.0
1008.0
1008.0
1005.0
1009.0
1014.0
1018.0
1023.0
1025.0
1023.0
1023.0
1025.0
1027.0
1026.0
1028.0
1026.0
1024.0
1020.0
1018.0
1018.0
1018.0
1018.0
1012.0
1011.0
1013.0
1010.0
1005.0
997.0
990.0
987.0
985.0
981.0
975.0
968.0
965.0
965.0
968.0
966.0
963.0
958.0
955.0
954.0
959.0
960.0
956.0
953.0
953.0
954.0
956.0
958.0
953.0
953.0
953.0
954.0
956.0
959.0
956.0
954.0
953.0
960.0
963.0
964.0
965.0
961.0
961.0
964.0
967.0
969.0
971.0
971.0
969.0
969.0
973.0
975.0
975.0
974.0
972.0
974.0
975.0
977.0
978.0
974.0
976.0
975.0
981.0
981.0
977.0
978.0
976.0
978.0
980.0
980.0
976.0
973.0
971.0
974.0
976.0
975.0
972.0
969.0
967.0
968.0
969.0
971.0
970.0
966.0
965.0
965.0
968.0
968.0
967.0
965.0
962.0
963.0
967.0
972.0
974.0
976.0
980.0
985.0
991.0
993.0
991.0
991.0
996.0
1004.0
1020.0
1030.0
1033.0
1030.0
1025.0
1027.0
1031.0
1031.0
1023.0
1008.0
994.0
988.0
983.0
983.0
971.0
960.0
953.0
953.0
953.0
950.0
949.0
945.0
945.0
946.0
951.0
950.0
948.0
945.0
942.0
939.0
932.0
922.0
908.0
906.0
931.0
978.0
1057.0
1168.0
1277.0
1357.0
1406.0
1428.0
1427.0
1410.0
1356.0
1258.0
1130.0
1002.0
874.0
877.0
918.0
937.0
940.0
932.0
933.0
935.0
932.0
926.0
918.0
921.0
924.0
922.0
920.0
918.0
911.0
918.0
918.0
918.0
916.0
912.0
910.0
913.0
916.0
918.0
918.0
914.0
914.0
915.0
918.0
918.0
919.0
921.0
919.0
925.0
926.0
926.0
922.0
923.0
922.0
924.0
930.0
931.0
932.0
931.0
929.0
931.0
938.0
940.0
942.0
942.0
941.0
943.0
947.0
950.0
950.0
947.0
951.0
954.0
958.0
963.0
963.0
960.0
964.0
967.0
971.0
973.0
976.0
977.0
980.0
984.0
989.0
993.0
996.0
996.0
996.0
1002.0
1008.0
1011.0
1011.0
1013.0
1013.0
1017.0
1020.0
1023.0
1021.0
1015.0
1014.0
1017.0
1020.0
1020.0
1020.0
1013.0
1010.0
1008.0
1007.0
1006.0
1004.0
996.0
989.0
988.0
988.0
985.0
981.0
977.0
971.0
970.0
970.0
967.0
960.0
955.0
955.0
955.0
959.0
959.0
954.0
950.0
950.0
947.0
954.0
959.0
956.0
949.0
948.0
951.0
949.0
952.0
955.0
954.0
951.0
949.0
952.0
956.0
953.0
953.0
952.0
956.0
960.0
960.0
957.0
955.0
960.0
963.0
966.0
965.0
962.0
959.0
957.0
957.0
960.0
967.0
969.0
968.0
963.0
960.0
963.0
966.0
967.0
961.0
962.0
962.0
965.0
967.0
966.0
963.0
962.0
964.0
965.0
965.0
966.0
959.0
958.0
957.0
961.0
960.0
961.0
960.0
960.0
959.0
960.0
959.0
958.0
954.0
953.0
955.0
958.0
958.0
959.0
957.0
958.0
962.0
969.0
973.0
974.0
974.0
976.0
979.0
986.0
992.0
996.0
1004.0
1009.0
1019.0
1026.0
1025.0
1020.0
1019.0
1021.0
1021.0
1018.0
1011.0
997.0
984.0
979.0
975.0
968.0
964.0
956.0
947.0
942.0
943.0
943.0
948.0
946.0
940.0
940.0
942.0
944.0
946.0
943.0
938.0
936.0
932.0
926.0
913.0
901.0
902.0
928.0
987.0
1079.0
1196.0
1304.0
1377.0
1412.0
1427.0
1425.0
1403.0
1340.0
1228.0
1100.0
972.0
861.0
882.0
920.0
931.0
926.0
922.0
925.0
927.0
928.0
920.0
913.0
913.0
918.0
918.0
916.0
909.0
907.0
909.0
909.0
910.0
909.0
907.0
907.0
907.0
910.0
911.0
910.0
912.0
908.0
911.0
915.0
915.0
915.0
909.0
909.0
911.0
914.0
919.0
918.0
918.0
917.0
917.0
919.0
922.0
921.0
921.0
919.0
923.0
926.0
925.0
927.0
926.0
928.0
932.0
935.0
935.0
936.0
937.0
936.0
940.0
944.0
947.0
949.0
949.0
952.0
953.0
960.0
964.0
966.0
964.0
968.0
973.0
977.0
982.0
981.0
980.0
985.0
991.0
996.0
997.0
1000.0
999.0
1002.0
1006.0
1010.0
1011.0
1011.0
1008.0
1004.0
1005.0
1007.0
1006.0
999.0
1000.0
995.0
996.0
995.0
991.0
986.0
981.0
975.0
974.0
972.0
970.0
964.0
961.0
959.0
956.0
954.0
951.0
948.0
942.0
941.0
940.0
942.0
940.0
938.0
935.0
934.0
935.0
938.0
937.0
933.0
932.0
931.0
932.0
936.0
937.0
935.0
934.0
931.0
933.0
936.0
939.0
936.0
937.0
933.0
935.0
939.0
942.0
942.0
941.0
940.0
941.0
943.0
946.0
945.0
942.0
940.0
941.0
946.0
948.0
947.0
945.0
945.0
950.0
946.0
950.0
948.0
946.0
947.0
947.0
949.0
948.0
946.0
944.0
940.0
945.0
947.0
949.0
948.0
945.0
944.0
945.0
948.0
950.0
946.0
945.0
944.0
944.0
945.0
945.0
945.0
937.0
941.0
943.0
943.0
943.0
941.0
938.0
937.0
940.0
943.0
942.0
939.0
935.0
933.0
937.0
939.0
942.0
940.0
939.0
935.0
941.0
942.0
945.0
942.0
941.0
943.0
945.0
948.0
956.0
960.0
960.0
962.0
965.0
970.0
974.0
978.0
982.0
994.0
1006.0
1013.0
1018.0
1014.0
1009.0
1012.0
1015.0
1018.0
1011.0
999.0
981.0
973.0
970.0
963.0
959.0
947.0
939.0
932.0
935.0
936.0
936.0
935.0
932.0
931.0
933.0
933.0
935.0
934.0
931.0
931.0
927.0
919.0
911.0
913.0
927.0
969.0
1042.0
1144.0
1251.0
1334.0
1384.0
1407.0
1417.0
1411.0
1372.0
1294.0
1172.0
1044.0
916.0
855.0
874.0
908.0
921.0
917.0
918.0
921.0
926.0
927.0
922.0
919.0
918.0
922.0
918.0
921.0
916.0
914.0
916.0
916.0
915.0
916.0
918.0
916.0
919.0
922.0
923.0
921.0
918.0
918.0
917.0
919.0
923.0
924.0
921.0
920.0
924.0
929.0
930.0
928.0
926.0
926.0
929.0
938.0
938.0
940.0
939.0
937.0
938.0
944.0
946.0
944.0
939.0
942.0
945.0
951.0
954.0
957.0
956.0
956.0
960.0
963.0
967.0
968.0
966.0
969.0
974.0
979.0
981.0
984.0
982.0
984.0
989.0
997.0
1004.0
1003.0
1004.0
1007.0
1009.0
1016.0
1021.0
1022.0
1023.0
1029.0
1032.0
1038.0
1042.0
1042.0
1039.0
1041.0
1042.0
1044.0
1046.0
1045.0
1042.0
1039.0
1039.0
1040.0
1041.0
1038.0
1033.0
1029.0
1029.0
1025.0
1019.0
1012.0
1008.0
1004.0
1006.0
1003.0
999.0
995.0
988.0
984.0
980.0
980.0
975.0
973.0
966.0
963.0
962.0
966.0
963.0
959.0
955.0
953.0
955.0
956.0
953.0
953.0
948.0
947.0
949.0
949.0
949.0
945.0
938.0
941.0
940.0
944.0
946.0
944.0
941.0
943.0
945.0
949.0
950.0
948.0
945.0
944.0
946.0
948.0
950.0
950.0
948.0
947.0
951.0
953.0
956.0
955.0
954.0
952.0
955.0
958.0
960.0
959.0
956.0
957.0
960.0
962.0
959.0
962.0
956.0
957.0
960.0
961.0
960.0
956.0
956.0
954.0
955.0
957.0
955.0
952.0
947.0
946.0
946.0
949.0
951.0
946.0
943.0
940.0
940.0
938.0
942.0
940.0
936.0
936.0
933.0
935.0
937.0
934.0
934.0
934.0
933.0
935.0
935.0
931.0
929.0
930.0
931.0
938.0
938.0
940.0
937.0
939.0
942.0
948.0
953.0
954.0
952.0
954.0
959.0
964.0
971.0
980.0
986.0
990.0
994.0
999.0
997.0
992.0
995.0
995.0
992.0
987.0
978.0
967.0
957.0
949.0
949.0
944.0
938.0
931.0
927.0
924.0
922.0
922.0
923.0
923.0
918.0
917.0
919.0
921.0
921.0
919.0
915.0
908.0
904.0
898.0
892.0
897.0
914.0
954.0
1020.0
1111.0
1213.0
1300.0
1358.0
1394.0
1414.0
1412.0
1386.0
1323.0
1217.0
1089.0
961.0
844.0
847.0
879.0
895.0
894.0
892.0
895.0
902.0
903.0
900.0
899.0
897.0
898.0
895.0
894.0
892.0
891.0
892.0
894.0
896.0
894.0
892.0
890.0
892.0
894.0
895.0
892.0
890.0
891.0
894.0
897.0
901.0
898.0
898.0
896.0
898.0
901.0
902.0
899.0
898.0
898.0
903.0
903.0
908.0
910.0
907.0
906.0
910.0
915.0
917.0
916.0
916.0
918.0
917.0
924.0
924.0
927.0
925.0
926.0
931.0
934.0
939.0
941.0
941.0
940.0
947.0
950.0
958.0
960.0
963.0
966.0
971.0
974.0
980.0
986.0
989.0
990.0
996.0
1005.0
1009.0
1013.0
1013.0
1015.0
1021.0
1026.0
1031.0
1033.0
1030.0
1033.0
1034.0
1038.0
1040.0
1037.0
1031.0
1030.0
1030.0
1030.0
1029.0
1026.0
1020.0
1011.0
1009.0
1008.0
1005.0
1001.0
996.0
991.0
988.0
988.0
987.0
984.0
977.0
974.0
974.0
975.0
974.0
973.0
968.0
965.0
965.0
968.0
967.0
966.0
962.0
960.0
962.0
959.0
964.0
958.0
958.0
962.0
958.0
961.0
962.0
962.0
960.0
958.0
962.0
967.0
970.0
965.0
966.0
965.0
968.0
971.0
974.0
972.0
970.0
974.0
978.0
980.0
982.0
981.0
980.0
981.0
983.0
985.0
987.0
986.0
985.0
984.0
985.0
986.0
989.0
988.0
984.0
983.0
987.0
990.0
990.0
987.0
985.0
984.0
982.0
984.0
985.0
984.0
981.0
980.0
983.0
986.0
986.0
981.0
980.0
978.0
975.0
977.0
980.0
979.0
975.0
970.0
975.0
975.0
977.0
974.0
970.0
968.0
969.0
974.0
974.0
968.0
969.0
964.0
969.0
973.0
978.0
976.0
978.0
984.0
988.0
994.0
997.0
998.0
998.0
999.0
1008.0
1017.0
1025.0
1029.0
1025.0
1023.0
1023.0
1024.0
1027.0
1022.0
1016.0
1002.0
996.0
990.0
986.0
980.0
973.0
961.0
961.0
959.0
955.0
952.0
950.0
949.0
948.0
951.0
953.0
949.0
948.0
946.0
948.0
949.0
950.0
946.0
939.0
927.0
922.0
927.0
949.0
986.0
1047.0
1139.0
1242.0
1328.0
1389.0
1419.0
1423.0
1412.0
1382.0
1325.0
1224.0
1096.0
968.0
889.0
891.0
923.0
938.0
936.0
932.0
929.0
930.0
933.0
938.0
932.0
926.0
923.0
922.0
926.0
924.0
923.0
920.0
917.0
920.0
922.0
925.0
922.0
923.0
920.0
920.0
922.0
923.0
926.0
922.0
922.0
927.0
930.0
931.0
928.0
926.0
925.0
927.0
932.0
932.0
931.0
928.0
928.0
929.0
935.0
936.0
934.0
934.0
935.0
939.0
941.0
943.0
942.0
943.0
942.0
950.0
952.0
954.0
955.0
953.0
954.0
958.0
963.0
967.0
963.0
967.0
969.0
974.0
977.0
981.0
983.0
984.0
987.0
993.0
998.0
1004.0
1007.0
1010.0
1012.0
1016.0
1022.0
1026.0
1029.0
1031.0
1032.0
1035.0
1040.0
1045.0
1045.0
1039.0
1039.0
1042.0
1044.0
1045.0
1041.0
1037.0
1030.0
1027.0
1029.0
1024.0
1020.0
1015.0
1010.0
1006.0
1003.0
1002.0
995.0
989.0
984.0
982.0
980.0
977.0
970.0
967.0
967.0
964.0
967.0
964.0
960.0
952.0
952.0
952.0
952.0
952.0
952.0
949.0
947.0
945.0
947.0
950.0
945.0
942.0
938.0
942.0
945.0
949.0
950.0
946.0
947.0
946.0
949.0
949.0
951.0
946.0
950.0
952.0
955.0
956.0
957.0
952.0
952.0
954.0
957.0
960.0
957.0
956.0
954.0
958.0
959.0
963.0
964.0
962.0
961.0
960.0
964.0
966.0
966.0
965.0
963.0
962.0
966.0
965.0
967.0
964.0
962.0
962.0
966.0
969.0
966.0
961.0
959.0
963.0
965.0
965.0
962.0
960.0
957.0
957.0
960.0
958.0
960.0
956.0
952.0
952.0
953.0
954.0
954.0
954.0
951.0
950.0
951.0
952.0
952.0
951.0
951.0
952.0
951.0
951.0
947.0
949.0
