# Simple Text Format
# Sampling Rate (Hz):= 360.00
# Resolution:= 12
# Labels:= ECG
962.0
962.0
962.0
962.0
962.0
962.0
962.0
962.0
966.0
967.0
965.0
961.0
963.0
964.0
968.0
969.0
969.0
970.0
972.0
976.0
979.0
981.0
983.0
980.0
983.0
990.0
994.0
993.0
996.0
998.0
1001.0
1009.0
1014.0
1012.0
1014.0
1016.0
1021.0
1025.0
1030.0
1033.0
1038.0
1040.0
1045.0
1050.0
1061.0
1069.0
1075.0
1078.0
1085.0
1093.0
1104.0
1110.0
1116.0
1116.0
1119.0
1128.0
1135.0
1141.0
1139.0
1139.0
1137.0
1138.0
1136.0
1134.0
1130.0
1121.0
1120.0
1117.0
1116.0
1108.0
1101.0
1095.0
1085.0
1081.0
1075.0
1066.0
1057.0
1048.0
1045.0
1041.0
1039.0
1032.0
1025.0
1016.0
1015.0
1013.0
1016.0
1010.0
1004.0
999.0
997.0
996.0
993.0
986.0
986.0
985.0
983.0
984.0
981.0
974.0
967.0
965.0
966.0
967.0
971.0
970.0
967.0
958.0
954.0
954.0
962.0
964.0
963.0
958.0
954.0
956.0
957.0
957.0
958.0
956.0
955.0
957.0
957.0
958.0
959.0
956.0
956.0
957.0
961.0
962.0
961.0
958.0
960.0
961.0
968.0
969.0
968.0
968.0
969.0
974.0
978.0
978.0
975.0
972.0
974.0
977.0
981.0
982.0
974.0
967.0
968.0
975.0
977.0
977.0
972.0
973.0
972.0
975.0
981.0
978.0
975.0
969.0
965.0
968.0
973.0
974.0
971.0
964.0
966.0
966.0
972.0
971.0
969.0
968.0
967.0
971.0
976.0
971.0
965.0
958.0
956.0
965.0
967.0
965.0
958.0
955.0
955.0
960.0
962.0
957.0
956.0
954.0
956.0
954.0
961.0
957.0
955.0
959.0
960.0
964.0
963.0
963.0
959.0
953.0
950.0
954.0
955.0
959.0
953.0
951.0
953.0
951.0
954.0
955.0
956.0
953.0
954.0
956.0
955.0
955.0
952.0
952.0
953.0
956.0
958.0
956.0
954.0
950.0
952.0
955.0
952.0
950.0
950.0
950.0
949.0
952.0
953.0
953.0
951.0
946.0
946.0
948.0
951.0
947.0
948.0
949.0
949.0
953.0
956.0
957.0
957.0
954.0
951.0
949.0
951.0
950.0
949.0
945.0
944.0
948.0
954.0
955.0
955.0
954.0
952.0
953.0
955.0
951.0
945.0
944.0
945.0
954.0
959.0
957.0
954.0
947.0
950.0
952.0
955.0
958.0
957.0
956.0
952.0
956.0
957.0
955.0
946.0
944.0
945.0
952.0
955.0
955.0
955.0
956.0
954.0
961.0
966.0
964.0
960.0
959.0
963.0
962.0
968.0
971.0
975.0
977.0
987.0
1004.0
1023.0
1031.0
1026.0
1018.0
1010.0
1006.0
1004.0
1001.0
997.0
992.0
987.0
988.0
987.0
979.0
977.0
972.0
966.0
963.0
961.0
952.0
947.0
947.0
948.0
953.0
957.0
960.0
960.0
957.0
958.0
957.0
958.0
956.0
950.0
939.0
931.0
932.0
960.0
1017.0
1104.0
1203.0
1291.0
1361.0
1404.0
1426.0
1420.0
1387.0
1318.0
1212.0
1084.0
956.0
871.0
879.0
914.0
934.0
935.0
932.0
933.0
937.0
941.0
946.0
945.0
941.0
937.0
934.0
936.0
941.0
943.0
941.0
939.0
938.0
938.0
937.0
939.0
940.0
940.0
941.0
942.0
942.0
946.0
946.0
941.0
938.0
933.0
942.0
947.0
948.0
946.0
947.0
948.0
947.0
953.0
953.0
954.0
954.0
952.0
955.0
961.0
966.0
966.0
960.0
964.0
969.0
973.0
975.0
973.0
974.0
979.0
981.0
980.0
986.0
992.0
1001.0
1009.0
1010.0
1007.0
1005.0
1005.0
1010.0
1020.0
1026.0
1031.0
1027.0
1027.0
1032.0
1044.0
1053.0
1063.0
1071.0
1074.0
1078.0
1084.0
1095.0
1108.0
1117.0
1123.0
1127.0
1129.0
1135.0
1144.0
1152.0
1154.0
1149.0
1147.0
1145.0
1153.0
1152.0
1144.0
1131.0
1129.0
1134.0
1137.0
1132.0
1128.0
1122.0
1114.0
1107.0
1097.0
1083.0
1076.0
1073.0
1067.0
1057.0
1054.0
1047.0
1041.0
1036.0
1029.0
1030.0
1030.0
1024.0
1016.0
1012.0
1005.0
1009.0
1010.0
1009.0
1003.0
998.0
996.0
994.0
997.0
990.0
985.0
982.0
982.0
985.0
982.0
982.0
979.0
975.0
972.0
974.0
976.0
976.0
975.0
974.0
973.0
974.0
978.0
979.0
979.0
983.0
984.0
981.0
974.0
967.0
969.0
973.0
975.0
980.0
982.0
977.0
972.0
971.0
972.0
978.0
987.0
992.0
986.0
986.0
989.0
992.0
995.0
995.0
993.0
992.0
994.0
996.0
997.0
998.0
996.0
993.0
990.0
992.0
993.0
991.0
990.0
990.0
991.0
993.0
999.0
998.0
990.0
983.0
980.0
982.0
985.0
983.0
982.0
982.0
987.0
989.0
988.0
985.0
984.0
981.0
977.0
979.0
982.0
979.0
975.0
975.0
974.0
973.0
975.0
970.0
970.0
974.0
973.0
975.0
981.0
981.0
975.0
970.0
966.0
967.0
976.0
977.0
973.0
969.0
960.0
963.0
971.0
973.0
972.0
966.0
957.0
962.0
971.0
970.0
963.0
957.0
957.0
961.0
965.0
966.0
964.0
962.0
962.0
964.0
965.0
967.0
966.0
962.0
960.0
964.0
967.0
965.0
964.0
960.0
955.0
964.0
965.0
964.0
963.0
963.0
961.0
962.0
965.0
966.0
960.0
962.0
961.0
967.0
970.0
971.0
969.0
968.0
964.0
957.0
959.0
959.0
959.0
958.0
956.0
962.0
965.0
966.0
966.0
968.0
969.0
970.0
972.0
970.0
965.0
962.0
962.0
965.0
969.0
967.0
961.0
961.0
962.0
965.0
968.0
968.0
967.0
966.0
965.0
967.0
967.0
972.0
969.0
966.0
968.0
967.0
977.0
982.0
987.0
989.0
994.0
1002.0
1007.0
1019.0
1029.0
1036.0
1034.0
1030.0
1023.0
1015.0
1005.0
1001.0
1002.0
1002.0
1006.0
1004.0
997.0
988.0
979.0
976.0
978.0
973.0
967.0
962.0
962.0
968.0
972.0
970.0
967.0
960.0
960.0
964.0
972.0
971.0
964.0
950.0
941.0
934.0
937.0
955.0
998.0
1080.0
1182.0
1282.0
1354.0
1397.0
1423.0
1430.0
1418.0
1385.0
1312.0
1184.0
1056.0
928.0
876.0
917.0
953.0
958.0
952.0
946.0
951.0
956.0
965.0
960.0
951.0
940.0
939.0
942.0
945.0
945.0
943.0
941.0
940.0
942.0
945.0
943.0
943.0
941.0
944.0
950.0
952.0
953.0
951.0
946.0
946.0
949.0
957.0
959.0
956.0
951.0
950.0
956.0
961.0
964.0
962.0
963.0
964.0
966.0
971.0
973.0
972.0
972.0
973.0
969.0
973.0
976.0
975.0
980.0
984.0
992.0
994.0
994.0
995.0
997.0
1001.0
1004.0
1008.0
1015.0
1019.0
1022.0
1027.0
1034.0
1043.0
1048.0
1049.0
1050.0
1057.0
1068.0
1079.0
1086.0
1094.0
1099.0
1103.0
1109.0
1120.0
1133.0
1139.0
1138.0
1139.0
1144.0
1152.0
1151.0
1147.0
1147.0
1145.0
1146.0
1144.0
1139.0
1127.0
1123.0
1112.0
1112.0
1113.0
1106.0
1092.0
1077.0
1073.0
1070.0
1067.0
1059.0
1049.0
1035.0
1031.0
1027.0
1026.0
1021.0
1016.0
1015.0
1010.0
1013.0
1012.0
1006.0
999.0
991.0
982.0
984.0
984.0
983.0
980.0
973.0
973.0
970.0
971.0
973.0
974.0
969.0
967.0
965.0
966.0
969.0
968.0
964.0
962.0
961.0
960.0
967.0
959.0
956.0
953.0
954.0
956.0
957.0
957.0
955.0
959.0
958.0
955.0
955.0
952.0
958.0
960.0
958.0
959.0
958.0
957.0
961.0
962.0
964.0
970.0
970.0
969.0
966.0
965.0
964.0
968.0
965.0
967.0
965.0
968.0
972.0
970.0
967.0
964.0
966.0
966.0
966.0
969.0
964.0
963.0
966.0
966.0
968.0
968.0
970.0
965.0
963.0
960.0
960.0
964.0
966.0
967.0
964.0
963.0
963.0
964.0
961.0
960.0
961.0
959.0
963.0
970.0
969.0
966.0
960.0
960.0
967.0
972.0
964.0
957.0
953.0
956.0
962.0
965.0
965.0
962.0
958.0
953.0
958.0
959.0
961.0
958.0
956.0
956.0
964.0
969.0
965.0
958.0
951.0
952.0
958.0
961.0
962.0
961.0
957.0
956.0
959.0
960.0
962.0
960.0
963.0
962.0
962.0
961.0
961.0
959.0
958.0
955.0
960.0
964.0
964.0
963.0
960.0
960.0
963.0
962.0
956.0
951.0
951.0
956.0
959.0
959.0
962.0
961.0
963.0
966.0
967.0
967.0
962.0
960.0
964.0
966.0
967.0
958.0
954.0
953.0
956.0
960.0
960.0
961.0
958.0
958.0
959.0
965.0
966.0
965.0
968.0
958.0
958.0
958.0
964.0
966.0
966.0
965.0
961.0
959.0
967.0
968.0
972.0
971.0
974.0
983.0
991.0
996.0
997.0
996.0
1003.0
1009.0
1026.0
1031.0
1031.0
1029.0
1022.0
1018.0
1010.0
1003.0
1001.0
999.0
992.0
991.0
990.0
987.0
982.0
974.0
971.0
969.0
969.0
963.0
967.0
969.0
974.0
975.0
972.0
965.0
963.0
959.0
956.0
955.0
952.0
946.0
937.0
938.0
967.0
1028.0
1118.0
1225.0
1318.0
1378.0
1414.0
1430.0
1426.0
1397.0
1331.0
1214.0
1086.0
958.0
874.0
901.0
941.0
953.0
947.0
943.0
951.0
958.0
957.0
954.0
946.0
942.0
942.0
941.0
946.0
946.0
948.0
947.0
948.0
945.0
941.0
937.0
939.0
943.0
947.0
946.0
945.0
944.0
943.0
946.0
949.0
947.0
950.0
952.0
953.0
957.0
961.0
958.0
952.0
953.0
954.0
955.0
963.0
965.0
972.0
965.0
964.0
966.0
971.0
973.0
976.0
974.0
974.0
977.0
980.0
987.0
991.0
994.0
993.0
998.0
1000.0
1003.0
1005.0
1012.0
1016.0
1024.0
1028.0
1030.0
1034.0
1036.0
1043.0
1049.0
1058.0
1064.0
1073.0
1075.0
1081.0
1090.0
1099.0
1104.0
1108.0
1108.0
1115.0
1124.0
1132.0
1136.0
1136.0
1140.0
1140.0
1141.0
1143.0
1141.0
1136.0
1129.0
1122.0
1119.0
1115.0
1111.0
1106.0
1095.0
1081.0
1073.0
1065.0
1059.0
1054.0
1053.0
1048.0
1036.0
1030.0
1023.0
1014.0
1011.0
1012.0
1011.0
1008.0
1005.0
999.0
994.0
992.0
992.0
992.0
987.0
980.0
974.0
975.0
975.0
975.0
971.0
970.0
969.0
972.0
973.0
972.0
964.0
957.0
955.0
959.0
961.0
966.0
966.0
962.0
958.0
956.0
957.0
960.0
960.0
958.0
957.0
956.0
960.0
967.0
971.0
968.0
966.0
961.0
963.0
968.0
966.0
964.0
963.0
966.0
969.0
970.0
968.0
965.0
961.0
968.0
976.0
979.0
975.0
973.0
972.0
971.0
970.0
974.0
975.0
974.0
974.0
973.0
973.0
979.0
981.0
974.0
973.0
973.0
975.0
978.0
979.0
977.0
975.0
976.0
974.0
971.0
969.0
966.0
965.0
962.0
964.0
966.0
967.0
966.0
963.0
964.0
966.0
965.0
963.0
962.0
961.0
960.0
967.0
969.0
968.0
965.0
964.0
962.0
965.0
966.0
963.0
960.0
957.0
960.0
962.0
963.0
964.0
961.0
958.0
955.0
957.0
960.0
962.0
959.0
955.0
950.0
955.0
959.0
959.0
959.0
957.0
957.0
961.0
964.0
961.0
962.0
961.0
958.0
960.0
964.0
961.0
959.0
957.0
959.0
961.0
961.0
962.0
954.0
952.0
955.0
960.0
965.0
966.0
965.0
960.0
959.0
959.0
960.0
956.0
958.0
958.0
957.0
963.0
962.0
965.0
959.0
956.0
956.0
961.0
963.0
962.0
960.0
958.0
959.0
962.0
966.0
965.0
962.0
963.0
963.0
965.0
967.0
966.0
967.0
965.0
962.0
961.0
961.0
958.0
959.0
957.0
960.0
964.0
969.0
972.0
971.0
965.0
964.0
966.0
977.0
979.0
986.0
986.0
993.0
1007.0
1020.0
1035.0
1038.0
1029.0
1025.0
1020.0
1012.0
1008.0
1007.0
1001.0
997.0
996.0
989.0
982.0
977.0
971.0
967.0
965.0
963.0
958.0
959.0
959.0
958.0
962.0
962.0
961.0
955.0
954.0
957.0
961.0
962.0
959.0
946.0
928.0
924.0
935.0
971.0
1028.0
1115.0
1212.0
1308.0
1370.0
1408.0
1426.0
1422.0
1389.0
1320.0
1214.0
1086.0
958.0
873.0
884.0
922.0
940.0
942.0
941.0
946.0
943.0
943.0
939.0
942.0
942.0
942.0
939.0
937.0
938.0
939.0
938.0
937.0
934.0
931.0
935.0
937.0
938.0
934.0
931.0
930.0
933.0
940.0
940.0
942.0
939.0
941.0
945.0
949.0
946.0
943.0
944.0
944.0
945.0
943.0
948.0
954.0
955.0
955.0
960.0
964.0
960.0
956.0
953.0
954.0
958.0
967.0
971.0
968.0
967.0
969.0
975.0
981.0
983.0
984.0
987.0
988.0
992.0
996.0
999.0
1001.0
1003.0
1004.0
1008.0
1015.0
1015.0
1018.0
1025.0
1031.0
1042.0
1050.0
1059.0
1060.0
1062.0
1071.0
1077.0
1093.0
1102.0
1103.0
1103.0
1107.0
1114.0
1123.0
1130.0
1131.0
1134.0
1132.0
1133.0
1134.0
1136.0
1133.0
1131.0
1127.0
1122.0
1119.0
1110.0
1103.0
1095.0
1086.0
1080.0
1075.0
1069.0
1059.0
1054.0
1048.0
1045.0
1044.0
1034.0
1029.0
1022.0
1020.0
1017.0
1013.0
1008.0
1006.0
998.0
993.0
987.0
988.0
986.0
984.0
979.0
975.0
976.0
975.0
974.0
968.0
964.0
959.0
958.0
961.0
957.0
954.0
950.0
952.0
954.0
958.0
959.0
958.0
951.0
946.0
945.0
946.0
951.0
950.0
949.0
948.0
951.0
955.0
953.0
951.0
950.0
946.0
950.0
953.0
954.0
952.0
949.0
950.0
950.0
954.0
955.0
955.0
951.0
954.0
955.0
957.0
958.0
957.0
960.0
961.0
963.0
965.0
963.0
962.0
963.0
965.0
966.0
965.0
962.0
959.0
957.0
960.0
966.0
965.0
964.0
962.0
960.0
961.0
967.0
972.0
969.0
964.0
961.0
962.0
964.0
966.0
964.0
961.0
961.0
961.0
961.0
962.0
961.0
961.0
956.0
953.0
955.0
958.0
959.0
961.0
954.0
955.0
956.0
957.0
956.0
953.0
949.0
951.0
954.0
957.0
954.0
952.0
950.0
950.0
950.0
953.0
953.0
950.0
947.0
949.0
951.0
956.0
955.0
952.0
950.0
951.0
952.0
951.0
954.0
953.0
948.0
946.0
946.0
951.0
954.0
952.0
944.0
941.0
945.0
947.0
947.0
950.0
947.0
949.0
949.0
951.0
954.0
948.0
946.0
947.0
944.0
951.0
949.0
946.0
942.0
945.0
944.0
944.0
943.0
944.0
947.0
948.0
951.0
946.0
945.0
941.0
938.0
940.0
943.0
946.0
950.0
948.0
948.0
945.0
944.0
945.0
947.0
945.0
943.0
945.0
944.0
947.0
950.0
946.0
945.0
945.0
946.0
948.0
945.0
940.0
941.0
947.0
953.0
953.0
953.0
951.0
948.0
949.0
949.0
951.0
950.0
950.0
946.0
947.0
951.0
958.0
960.0
964.0
962.0
966.0
973.0
981.0
996.0
1008.0
1011.0
1012.0
1007.0
1005.0
999.0
989.0
986.0
981.0
980.0
984.0
983.0
976.0
966.0
966.0
963.0
962.0
952.0
941.0
933.0
935.0
937.0
942.0
944.0
942.0
939.0
937.0
942.0
946.0
950.0
947.0
943.0
938.0
930.0
922.0
918.0
923.0
943.0
994.0
1081.0
1190.0
1290.0
1359.0
1394.0
1412.0
1415.0
1396.0
1343.0
1244.0
1116.0
988.0
860.0
858.0
894.0
916.0
916.0
915.0
918.0
924.0
923.0
924.0
918.0
922.0
923.0
925.0
928.0
922.0
919.0
920.0
923.0
927.0
925.0
921.0
918.0
917.0
919.0
924.0
927.0
920.0
923.0
923.0
927.0
929.0
931.0
929.0
927.0
927.0
932.0
932.0
926.0
924.0
924.0
929.0
933.0
938.0
943.0
941.0
935.0
930.0
936.0
945.0
943.0
941.0
938.0
940.0
942.0
952.0
957.0
956.0
956.0
958.0
963.0
970.0
967.0
966.0
966.0
971.0
979.0
989.0
994.0
999.0
997.0
998.0
997.0
1002.0
1004.0
1011.0
1014.0
1025.0
1031.0
1042.0
1049.0
1055.0
1058.0
1066.0
1076.0
1084.0
1093.0
1099.0
1105.0
1106.0
1111.0
1118.0
1123.0
1123.0
1122.0
1121.0
1123.0
1128.0
1128.0
1124.0
1117.0
1107.0
1106.0
1104.0
1101.0
1095.0
1082.0
1074.0
1073.0
1070.0
1064.0
1054.0
1044.0
1042.0
1036.0
1034.0
1031.0
1026.0
1016.0
1008.0
1008.0
1005.0
1003.0
1001.0
994.0
989.0
992.0
993.0
991.0
985.0
982.0
978.0
979.0
976.0
973.0
971.0
962.0
960.0
962.0
965.0
964.0
962.0
960.0
958.0
955.0
952.0
955.0
955.0
953.0
954.0
954.0
953.0
956.0
953.0
953.0
952.0
958.0
962.0
960.0
959.0
957.0
954.0
953.0
953.0
958.0
953.0
958.0
957.0
958.0
963.0
968.0
969.0
971.0
970.0
972.0
973.0
973.0
970.0
969.0
971.0
966.0
972.0
975.0
976.0
974.0
973.0
971.0
971.0
969.0
970.0
969.0
970.0
972.0
977.0
975.0
972.0
968.0
968.0
970.0
976.0
975.0
969.0
967.0
970.0
971.0
973.0
968.0
967.0
964.0
964.0
964.0
963.0
958.0
961.0
957.0
956.0
962.0
963.0
961.0
956.0
953.0
956.0
960.0
961.0
957.0
954.0
953.0
957.0
961.0
963.0
955.0
952.0
949.0
951.0
952.0
954.0
956.0
956.0
954.0
957.0
961.0
960.0
961.0
956.0
946.0
947.0
951.0
951.0
952.0
952.0
950.0
951.0
954.0
953.0
953.0
952.0
945.0
944.0
945.0
947.0
949.0
952.0
946.0
944.0
945.0
957.0
958.0
953.0
948.0
945.0
946.0
950.0
954.0
953.0
954.0
949.0
951.0
954.0
958.0
951.0
951.0
952.0
954.0
957.0
957.0
951.0
945.0
947.0
950.0
951.0
950.0
944.0
942.0
946.0
944.0
949.0
950.0
950.0
945.0
948.0
949.0
952.0
953.0
954.0
956.0
957.0
956.0
960.0
962.0
962.0
962.0
966.0
973.0
981.0
987.0
994.0
1001.0
1009.0
1014.0
1012.0
1009.0
1000.0
996.0
988.0
986.0
988.0
987.0
983.0
978.0
973.0
971.0
968.0
965.0
961.0
954.0
951.0
951.0
954.0
953.0
948.0
944.0
944.0
948.0
952.0
953.0
951.0
948.0
949.0
946.0
949.0
945.0
934.0
922.0
928.0
956.0
1012.0
1086.0
1178.0
1266.0
1339.0
1386.0
1411.0
1417.0
1408.0
1366.0
1290.0
1179.0
1051.0
925.0
866.0
880.0
918.0
936.0
936.0
934.0
936.0
940.0
940.0
938.0
938.0
933.0
935.0
932.0
932.0
930.0
931.0
935.0
935.0
935.0
931.0
932.0
935.0
936.0
931.0
933.0
935.0
938.0
939.0
940.0
942.0
941.0
939.0
941.0
945.0
944.0
942.0
937.0
937.0
944.0
947.0
947.0
945.0
946.0
946.0
952.0
954.0
952.0
947.0
950.0
956.0
959.0
963.0
963.0
965.0
966.0
966.0
969.0
974.0
977.0
975.0
976.0
976.0
984.0
992.0
996.0
997.0
998.0
1002.0
1006.0
1013.0
1016.0
1016.0
1018.0
1023.0
1034.0
1041.0
1043.0
1052.0
1052.0
1057.0
1066.0
1078.0
1087.0
1091.0
1090.0
1099.0
1106.0
1114.0
1120.0
1121.0
1126.0
1134.0
1137.0
1142.0
1143.0
1137.0
1135.0
1132.0
1132.0
1131.0
1127.0
1120.0
1113.0
1111.0
1105.0
1099.0
1090.0
1084.0
1072.0
1066.0
1058.0
1058.0
1053.0
1044.0
1032.0
1028.0
1025.0
1022.0
1017.0
1012.0
1003.0
998.0
998.0
1000.0
1000.0
993.0
987.0
985.0
983.0
984.0
979.0
976.0
971.0
967.0
968.0
967.0
970.0
965.0
961.0
958.0
957.0
957.0
955.0
952.0
949.0
949.0
951.0
952.0
955.0
955.0
951.0
950.0
948.0
953.0
959.0
958.0
953.0
951.0
949.0
953.0
954.0
953.0
952.0
955.0
957.0
962.0
959.0
958.0
954.0
956.0
955.0
955.0
955.0
957.0
954.0
952.0
952.0
957.0
958.0
957.0
957.0
958.0
965.0
968.0
964.0
958.0
954.0
958.0
961.0
965.0
961.0
962.0
963.0
965.0
968.0
971.0
973.0
969.0
965.0
959.0
960.0
969.0
971.0
969.0
964.0
961.0
961.0
967.0
972.0
968.0
964.0
959.0
958.0
961.0
959.0
957.0
956.0
954.0
960.0
962.0
963.0
962.0
955.0
959.0
961.0
964.0
963.0
958.0
953.0
958.0
963.0
962.0
961.0
960.0
956.0
953.0
956.0
959.0
961.0
961.0
957.0
957.0
960.0
966.0
974.0
968.0
959.0
958.0
958.0
960.0
961.0
966.0
973.0
974.0
975.0
969.0
970.0
973.0
975.0
982.0
983.0
988.0
991.0
985.0
978.0
973.0
972.0
970.0
972.0
974.0
977.0
979.0
987.0
992.0
999.0
998.0
993.0
988.0
986.0
990.0
993.0
994.0
998.0
1001.0
1002.0
1002.0
999.0
1000.0
995.0
995.0
1000.0
1000.0
1004.0
1005.0
1002.0
997.0
999.0
1004.0
1005.0
999.0
994.0
993.0
998.0
1002.0
1004.0
1000.0
1000.0
1000.0
1006.0
1014.0
1016.0
1018.0
1021.0
1021.0
1020.0
1023.0
1029.0
1034.0
1033.0
1044.0
1058.0
1066.0
1067.0
1064.0
1055.0
1057.0
1063.0
1064.0
1057.0
1047.0
1042.0
1039.0
1037.0
1034.0
1024.0
1015.0
1005.0
1006.0
1013.0
1018.0
1014.0
1010.0
1001.0
993.0
984.0
979.0
980.0
989.0
993.0
994.0
994.0
995.0
991.0
984.0
980.0
977.0
974.0
987.0
1020.0
1072.0
1145.0
1242.0
1333.0
1399.0
1430.0
1439.0
1429.0
1406.0
1356.0
1264.0
1136.0
1008.0
922.0
930.0
972.0
994.0
990.0
982.0
986.0
990.0
998.0
996.0
1000.0
998.0
994.0
989.0
991.0
993.0
992.0
986.0
981.0
981.0
980.0
980.0
976.0
974.0
974.0
978.0
980.0
987.0
991.0
989.0
990.0
994.0
995.0
995.0
986.0
980.0
979.0
980.0
991.0
998.0
995.0
989.0
987.0
990.0
996.0
1003.0
1002.0
999.0
995.0
993.0
1005.0
1016.0
1026.0
1032.0
1030.0
1024.0
1020.0
1016.0
1010.0
1010.0
1012.0
1023.0
1029.0
1030.0
1035.0
1037.0
1034.0
1038.0
1047.0
1052.0
1056.0
1061.0
1065.0
1075.0
1083.0
1089.0
1095.0
1094.0
1097.0
1106.0
1115.0
1120.0
1124.0
1127.0
1132.0
1138.0
1140.0
1149.0
1151.0
1154.0
1157.0
1162.0
1166.0
1166.0
1166.0
1162.0
1156.0
1151.0
1147.0
1142.0
1137.0
1129.0
1123.0
1117.0
1112.0
1114.0
1111.0
1100.0
1088.0
1087.0
1080.0
1074.0
1066.0
1059.0
1051.0
1049.0
1051.0
1050.0
1044.0
1036.0
1033.0
1033.0
1026.0
1019.0
1009.0
1002.0
998.0
996.0
1002.0
1008.0
1008.0
1001.0
993.0
989.0
993.0
1002.0
1003.0
998.0
992.0
986.0
992.0
994.0
991.0
988.0
986.0
990.0
993.0
993.0
995.0
995.0
993.0
991.0
990.0
996.0
993.0
988.0
982.0
983.0
988.0
995.0
994.0
992.0
984.0
982.0
982.0
992.0
996.0
996.0
993.0
995.0
997.0
1000.0
1001.0
997.0
994.0
992.0
992.0
993.0
993.0
988.0
985.0
988.0
990.0
996.0
994.0
994.0
990.0
987.0
989.0
990.0
991.0
988.0
981.0
982.0
988.0
989.0
987.0
983.0
986.0
988.0
989.0
982.0
979.0
976.0
974.0
973.0
978.0
979.0
976.0
973.0
973.0
973.0
975.0
974.0
971.0
973.0
965.0
967.0
970.0
972.0
969.0
965.0
960.0
961.0
965.0
968.0
963.0
953.0
944.0
947.0
960.0
970.0
972.0
969.0
962.0
959.0
961.0
967.0
967.0
960.0
953.0
953.0
958.0
962.0
967.0
967.0
965.0
963.0
963.0
965.0
961.0
956.0
950.0
944.0
946.0
949.0
955.0
956.0
953.0
957.0
960.0
963.0
958.0
947.0
945.0
950.0
960.0
969.0
971.0
967.0
960.0
957.0
956.0
957.0
955.0
952.0
950.0
951.0
949.0
946.0
947.0
946.0
944.0
943.0
947.0
952.0
959.0
963.0
961.0
965.0
970.0
973.0
982.0
987.0
988.0
997.0
1006.0
1022.0
1032.0
1039.0
1034.0
1025.0
1016.0
1013.0
1003.0
991.0
979.0
983.0
991.0
995.0
986.0
968.0
951.0
941.0
945.0
949.0
941.0
932.0
928.0
932.0
935.0
937.0
934.0
940.0
940.0
938.0
925.0
923.0
925.0
925.0
911.0
899.0
901.0
925.0
974.0
1049.0
1140.0
1238.0
1316.0
1365.0
1393.0
1404.0
1390.0
1349.0
1259.0
1131.0
1003.0
875.0
817.0
865.0
905.0
910.0
903.0
900.0
906.0
911.0
914.0
914.0
916.0
916.0
918.0
919.0
918.0
914.0
908.0
908.0
902.0
899.0
896.0
895.0
891.0
883.0
879.0
882.0
890.0
895.0
901.0
906.0
913.0
914.0
908.0
904.0
897.0
897.0
896.0
899.0
900.0
902.0
902.0
902.0
905.0
909.0
916.0
918.0
918.0
919.0
919.0
924.0
926.0
925.0
927.0
931.0
929.0
933.0
937.0
948.0
956.0
953.0
942.0
940.0
945.0
956.0
965.0
971.0
974.0
979.0
982.0
984.0
988.0
995.0
1002.0
1017.0
1027.0
1033.0
1039.0
1045.0
1052.0
1058.0
1064.0
1070.0
1077.0
1083.0
1087.0
1093.0
1099.0
1105.0
1106.0
1100.0
1095.0
1089.0
1085.0
1077.0
1069.0
1063.0
1058.0
1054.0
1049.0
1040.0
1032.0
1026.0
1022.0
1016.0
1006.0
998.0
995.0
984.0
975.0
970.0
969.0
964.0
962.0
958.0
954.0
950.0
946.0
944.0
939.0
932.0
929.0
930.0
931.0
930.0
930.0
927.0
920.0
915.0
912.0
912.0
911.0
910.0
911.0
911.0
912.0
914.0
918.0
919.0
914.0
913.0
912.0
918.0
919.0
921.0
920.0
921.0
922.0
920.0
921.0
924.0
924.0
928.0
931.0
933.0
929.0
926.0
925.0
925.0
927.0
931.0
938.0
940.0
942.0
939.0
934.0
932.0
934.0
938.0
938.0
941.0
942.0
939.0
936.0
931.0
930.0
931.0
936.0
944.0
949.0
944.0
936.0
932.0
932.0
935.0
932.0
938.0
933.0
931.0
933.0
938.0
942.0
937.0
929.0
925.0
930.0
935.0
937.0
936.0
934.0
929.0
927.0
930.0
923.0
922.0
917.0
915.0
918.0
921.0
924.0
926.0
927.0
927.0
927.0
926.0
926.0
921.0
923.0
924.0
928.0
931.0
929.0
930.0
929.0
930.0
929.0
928.0
933.0
927.0
919.0
917.0
921.0
922.0
927.0
925.0
925.0
927.0
925.0
928.0
927.0
925.0
922.0
923.0
932.0
935.0
936.0
933.0
925.0
926.0
927.0
935.0
939.0
937.0
934.0
934.0
945.0
952.0
954.0
955.0
949.0
953.0
954.0
956.0
959.0
970.0
980.0
994.0
1004.0
1008.0
1007.0
1002.0
990.0
987.0
983.0
980.0
979.0
969.0
960.0
952.0
948.0
946.0
947.0
948.0
942.0
933.0
928.0
930.0
929.0
931.0
926.0
925.0
927.0
931.0
934.0
935.0
929.0
926.0
924.0
916.0
908.0
905.0
920.0
958.0
1026.0
1125.0
1230.0
1318.0
1368.0
1395.0
1407.0
1401.0
1371.0
1294.0
1166.0
1038.0
910.0
814.0
848.0
889.0
899.0
897.0
899.0
906.0
909.0
912.0
911.0
909.0
912.0
909.0
910.0
908.0
907.0
909.0
913.0
912.0
910.0
905.0
900.0
903.0
904.0
909.0
911.0
913.0
910.0
909.0
913.0
916.0
919.0
918.0
914.0
914.0
917.0
917.0
919.0
923.0
918.0
915.0
918.0
921.0
926.0
928.0
929.0
929.0
931.0
935.0
943.0
947.0
947.0
942.0
939.0
941.0
941.0
946.0
951.0
954.0
960.0
966.0
969.0
967.0
962.0
967.0
973.0
985.0
993.0
1000.0
999.0
1004.0
1011.0
1025.0
1035.0
1040.0
1045.0
1044.0
1043.0
1047.0
1063.0
1070.0
1081.0
1085.0
1093.0
1102.0
1110.0
1113.0
1112.0
1115.0
1117.0
1119.0
1120.0
1114.0
1110.0
1102.0
1098.0
1095.0
1092.0
1086.0
1079.0
1074.0
1069.0
1068.0
1061.0
1051.0
1041.0
1037.0
1032.0
1029.0
1018.0
1006.0
997.0
997.0
993.0
993.0
989.0
980.0
974.0
970.0
973.0
973.0
970.0
966.0
963.0
957.0
959.0
958.0
952.0
948.0
950.0
953.0
954.0
952.0
948.0
942.0
936.0
937.0
935.0
930.0
926.0
921.0
922.0
925.0
929.0
932.0
935.0
934.0
931.0
925.0
929.0
932.0
935.0
937.0
933.0
935.0
936.0
943.0
941.0
941.0
937.0
934.0
938.0
944.0
944.0
943.0
940.0
940.0
941.0
943.0
946.0
944.0
946.0
949.0
951.0
955.0
956.0
953.0
947.0
948.0
949.0
950.0
953.0
955.0
948.0
946.0
949.0
952.0
953.0
951.0
951.0
953.0
956.0
954.0
950.0
947.0
939.0
943.0
940.0
945.0
946.0
946.0
945.0
942.0
946.0
950.0
948.0
942.0
936.0
933.0
937.0
942.0
942.0
942.0
937.0
933.0
930.0
935.0
940.0
943.0
939.0
935.0
935.0
936.0
939.0
935.0
935.0
938.0
939.0
939.0
936.0
933.0
931.0
928.0
926.0
931.0
934.0
934.0
931.0
933.0
936.0
942.0
937.0
933.0
933.0
932.0
932.0
933.0
929.0
929.0
925.0
925.0
928.0
932.0
936.0
936.0
931.0
930.0
929.0
934.0
933.0
935.0
932.0
930.0
925.0
929.0
935.0
937.0
931.0
930.0
935.0
936.0
932.0
928.0
929.0
931.0
936.0
945.0
946.0
948.0
949.0
956.0
961.0
971.0
975.0
984.0
994.0
1001.0
1004.0
1004.0
1004.0
1005.0
1004.0
995.0
994.0
994.0
987.0
973.0
957.0
950.0
950.0
952.0
953.0
947.0
937.0
932.0
928.0
928.0
934.0
936.0
937.0
932.0
932.0
934.0
934.0
929.0
925.0
922.0
922.0
920.0
911.0
903.0
901.0
916.0
956.0
1018.0
1112.0
1214.0
1294.0
1350.0
1382.0
1398.0
1393.0
1374.0
1324.0
1234.0
1106.0
978.0
867.0
853.0
882.0
907.0
906.0
907.0
910.0
915.0
918.0
917.0
915.0
914.0
911.0
906.0
906.0
905.0
906.0
908.0
910.0
909.0
910.0
910.0
