# Simple Text Format
# Sampling Rate (Hz):= 360.00
# Resolution:= 12
# Labels:= ECG
1003.0
989.0
984.0
984.0
980.0
971.0
965.0
961.0
962.0
961.0
963.0
963.0
963.0
960.0
958.0
961.0
964.0
966.0
966.0
961.0
962.0
960.0
965.0
969.0
968.0
964.0
965.0
965.0
966.0
967.0
967.0
962.0
964.0
967.0
967.0
967.0
966.0
964.0
965.0
965.0
967.0
967.0
968.0
964.0
963.0
969.0
974.0
979.0
977.0
976.0
975.0
969.0
953.0
937.0
927.0
923.0
921.0
923.0
917.0
905.0
900.0
893.0
887.0
881.0
869.0
857.0
849.0
842.0
844.0
853.0
861.0
868.0
870.0
879.0
895.0
912.0
924.0
932.0
937.0
943.0
955.0
967.0
972.0
975.0
977.0
977.0
977.0
980.0
981.0
981.0
983.0
980.0
981.0
981.0
982.0
987.0
990.0
989.0
988.0
989.0
992.0
992.0
990.0
987.0
989.0
989.0
991.0
990.0
989.0
987.0
992.0
995.0
995.0
995.0
996.0
993.0
993.0
992.0
993.0
994.0
996.0
996.0
998.0
1000.0
1001.0
1000.0
1001.0
1000.0
1001.0
1004.0
1008.0
1007.0
1005.0
1005.0
1007.0
1009.0
1012.0
1011.0
1009.0
1010.0
1014.0
1016.0
1019.0
1017.0
1015.0
1012.0
1009.0
1011.0
1015.0
1017.0
1015.0
1011.0
1016.0
1016.0
1019.0
1019.0
1015.0
1015.0
1015.0
1015.0
1014.0
1016.0
1012.0
1012.0
1008.0
1007.0
1007.0
1008.0
1006.0
1002.0
1002.0
1002.0
1005.0
1004.0
999.0
996.0
996.0
996.0
998.0
994.0
993.0
994.0
993.0
991.0
993.0
993.0
991.0
989.0
990.0
989.0
992.0
989.0
990.0
986.0
987.0
989.0
990.0
991.0
990.0
990.0
990.0
989.0
989.0
988.0
983.0
983.0
982.0
987.0
989.0
988.0
986.0
984.0
984.0
986.0
989.0
987.0
986.0
984.0
985.0
985.0
984.0
982.0
981.0
982.0
981.0
985.0
984.0
982.0
980.0
979.0
976.0
978.0
980.0
983.0
980.0
978.0
978.0
975.0
974.0
975.0
976.0
974.0
971.0
967.0
964.0
968.0
971.0
974.0
976.0
975.0
975.0
973.0
975.0
971.0
974.0
975.0
974.0
971.0
969.0
965.0
965.0
971.0
977.0
976.0
973.0
970.0
971.0
972.0
975.0
975.0
973.0
971.0
973.0
972.0
973.0
971.0
972.0
971.0
970.0
972.0
975.0
971.0
970.0
971.0
972.0
973.0
974.0
974.0
972.0
967.0
972.0
973.0
976.0
977.0
975.0
973.0
975.0
975.0
974.0
971.0
972.0
970.0
973.0
973.0
975.0
976.0
976.0
974.0
975.0
977.0
976.0
976.0
973.0
970.0
970.0
974.0
977.0
977.0
976.0
974.0
974.0
977.0
977.0
976.0
974.0
972.0
974.0
975.0
977.0
975.0
974.0
972.0
975.0
977.0
975.0
975.0
973.0
970.0
971.0
971.0
970.0
971.0
967.0
966.0
971.0
977.0
980.0
980.0
981.0
975.0
982.0
985.0
986.0
984.0
982.0
983.0
982.0
982.0
982.0
986.0
994.0
992.0
994.0
995.0
998.0
1000.0
1003.0
1005.0
1008.0
1016.0
1020.0
1020.0
1018.0
1015.0
1020.0
1020.0
1025.0
1027.0
1024.0
1021.0
1010.0
1003.0
994.0
987.0
977.0
966.0
963.0
967.0
969.0
971.0
966.0
964.0
960.0
961.0
966.0
967.0
971.0
969.0
966.0
969.0
968.0
965.0
967.0
968.0
970.0
973.0
973.0
970.0
967.0
965.0
967.0
964.0
969.0
967.0
965.0
963.0
970.0
972.0
972.0
973.0
971.0
972.0
970.0
966.0
965.0
965.0
973.0
975.0
975.0
975.0
967.0
951.0
931.0
917.0
914.0
918.0
920.0
910.0
899.0
888.0
883.0
878.0
874.0
870.0
861.0
848.0
842.0
838.0
840.0
852.0
863.0
867.0
872.0
883.0
901.0
920.0
933.0
939.0
948.0
958.0
966.0
973.0
976.0
973.0
980.0
982.0
985.0
984.0
984.0
982.0
983.0
983.0
985.0
985.0
987.0
989.0
989.0
990.0
992.0
990.0
989.0
987.0
987.0
987.0
987.0
986.0
985.0
986.0
989.0
989.0
988.0
986.0
986.0
990.0
999.0
1005.0
1004.0
1004.0
1001.0
999.0
1000.0
1002.0
1003.0
1000.0
997.0
998.0
1001.0
1005.0
1006.0
1005.0
1004.0
1003.0
1002.0
1005.0
1008.0
1008.0
1004.0
1003.0
1009.0
1015.0
1016.0
1014.0
1016.0
1011.0
1012.0
1014.0
1018.0
1019.0
1018.0
1018.0
1021.0
1017.0
1014.0
1010.0
1009.0
1007.0
1008.0
1010.0
1010.0
1007.0
1007.0
1005.0
1008.0
1008.0
1007.0
1002.0
996.0
999.0
1000.0
999.0
998.0
996.0
994.0
991.0
991.0
987.0
989.0
990.0
989.0
986.0
985.0
983.0
986.0
991.0
995.0
993.0
988.0
987.0
990.0
991.0
988.0
986.0
987.0
987.0
988.0
989.0
985.0
983.0
981.0
984.0
986.0
985.0
982.0
979.0
982.0
985.0
988.0
987.0
986.0
983.0
983.0
986.0
988.0
986.0
985.0
980.0
981.0
984.0
984.0
982.0
979.0
975.0
978.0
982.0
982.0
979.0
979.0
978.0
981.0
983.0
982.0
979.0
973.0
968.0
969.0
967.0
967.0
968.0
969.0
968.0
968.0
967.0
969.0
971.0
967.0
963.0
964.0
966.0
966.0
966.0
967.0
966.0
966.0
970.0
976.0
973.0
972.0
969.0
971.0
972.0
975.0
974.0
969.0
964.0
965.0
970.0
969.0
970.0
970.0
971.0
974.0
978.0
977.0
972.0
972.0
974.0
975.0
977.0
979.0
979.0
977.0
974.0
972.0
976.0
976.0
977.0
975.0
972.0
977.0
976.0
976.0
973.0
972.0
977.0
980.0
979.0
979.0
975.0
974.0
974.0
973.0
974.0
976.0
976.0
975.0
973.0
974.0
975.0
977.0
980.0
977.0
973.0
975.0
976.0
977.0
977.0
975.0
972.0
972.0
975.0
974.0
973.0
970.0
970.0
969.0
973.0
975.0
977.0
977.0
975.0
977.0
978.0
976.0
973.0
974.0
972.0
975.0
977.0
978.0
974.0
975.0
973.0
975.0
977.0
980.0
981.0
978.0
974.0
979.0
982.0
986.0
987.0
987.0
986.0
994.0
1000.0
1006.0
1007.0
1007.0
1005.0
1011.0
1012.0
1016.0
1021.0
1023.0
1020.0
1023.0
1027.0
1027.0
1022.0
1017.0
1002.0
995.0
990.0
984.0
978.0
970.0
962.0
963.0
972.0
975.0
972.0
970.0
967.0
967.0
968.0
969.0
964.0
961.0
958.0
965.0
968.0
969.0
964.0
965.0
964.0
964.0
965.0
968.0
969.0
966.0
960.0
957.0
959.0
962.0
967.0
970.0
968.0
970.0
969.0
971.0
970.0
969.0
970.0
971.0
969.0
965.0
965.0
969.0
976.0
978.0
980.0
983.0
980.0
965.0
941.0
932.0
929.0
930.0
927.0
922.0
916.0
905.0
899.0
897.0
893.0
887.0
877.0
866.0
858.0
853.0
849.0
843.0
839.0
849.0
866.0
876.0
887.0
901.0
911.0
923.0
931.0
938.0
947.0
955.0
963.0
968.0
975.0
978.0
979.0
977.0
977.0
979.0
984.0
985.0
986.0
985.0
981.0
981.0
982.0
983.0
985.0
985.0
988.0
988.0
992.0
994.0
992.0
989.0
988.0
987.0
988.0
991.0
989.0
987.0
984.0
987.0
991.0
995.0
997.0
998.0
993.0
996.0
996.0
1001.0
997.0
996.0
995.0
996.0
1000.0
999.0
999.0
996.0
995.0
995.0
999.0
1001.0
1002.0
1003.0
1003.0
1006.0
1009.0
1011.0
1013.0
1010.0
1008.0
1013.0
1015.0
1014.0
1016.0
1016.0
1014.0
1014.0
1017.0
1018.0
1018.0
1014.0
1012.0
1016.0
1018.0
1019.0
1016.0
1013.0
1013.0
1014.0
1016.0
1015.0
1012.0
1010.0
1007.0
1008.0
1007.0
1007.0
1001.0
999.0
998.0
1001.0
999.0
995.0
991.0
989.0
986.0
990.0
996.0
999.0
992.0
993.0
989.0
989.0
988.0
987.0
984.0
987.0
990.0
994.0
994.0
989.0
985.0
981.0
981.0
985.0
989.0
990.0
988.0
982.0
982.0
983.0
984.0
987.0
988.0
987.0
984.0
984.0
984.0
989.0
989.0
986.0
983.0
985.0
987.0
985.0
983.0
980.0
982.0
982.0
981.0
982.0
984.0
981.0
980.0
982.0
983.0
983.0
980.0
977.0
974.0
973.0
977.0
976.0
975.0
971.0
969.0
968.0
973.0
972.0
973.0
971.0
972.0
976.0
977.0
972.0
970.0
967.0
963.0
963.0
965.0
969.0
969.0
967.0
966.0
964.0
968.0
968.0
966.0
963.0
959.0
962.0
965.0
967.0
966.0
966.0
961.0
962.0
963.0
965.0
962.0
962.0
963.0
967.0
968.0
967.0
967.0
970.0
972.0
974.0
974.0
973.0
972.0
971.0
967.0
966.0
969.0
972.0
972.0
967.0
965.0
968.0
972.0
975.0
974.0
971.0
970.0
971.0
970.0
972.0
972.0
971.0
970.0
972.0
971.0
972.0
970.0
970.0
968.0
971.0
973.0
974.0
973.0
969.0
969.0
971.0
969.0
971.0
974.0
975.0
972.0
970.0
971.0
975.0
975.0
974.0
971.0
971.0
970.0
971.0
970.0
969.0
969.0
967.0
969.0
969.0
970.0
972.0
971.0
972.0
974.0
978.0
978.0
976.0
971.0
970.0
973.0
973.0
973.0
972.0
970.0
977.0
976.0
974.0
975.0
974.0
975.0
976.0
979.0
978.0
981.0
980.0
978.0
981.0
985.0
987.0
989.0
988.0
987.0
987.0
993.0
999.0
1003.0
1003.0
1002.0
1000.0
1001.0
1008.0
1010.0
1014.0
1008.0
1011.0
1013.0
1016.0
1017.0
1021.0
1018.0
1013.0
1003.0
996.0
991.0
986.0
979.0
975.0
970.0
963.0
961.0
961.0
962.0
965.0
967.0
968.0
967.0
963.0
963.0
963.0
964.0
965.0
964.0
963.0
958.0
962.0
969.0
969.0
968.0
968.0
964.0
966.0
969.0
968.0
967.0
965.0
963.0
964.0
964.0
963.0
963.0
963.0
962.0
964.0
966.0
968.0
967.0
966.0
964.0
964.0
966.0
963.0
959.0
957.0
959.0
964.0
970.0
970.0
968.0
967.0
953.0
936.0
926.0
926.0
924.0
923.0
922.0
922.0
915.0
904.0
895.0
887.0
878.0
874.0
869.0
861.0
852.0
847.0
840.0
839.0
845.0
853.0
859.0
864.0
874.0
890.0
906.0
917.0
924.0
929.0
935.0
947.0
959.0
967.0
973.0
973.0
974.0
977.0
979.0
980.0
979.0
977.0
980.0
982.0
985.0
987.0
985.0
985.0
984.0
984.0
986.0
986.0
986.0
983.0
983.0
984.0
984.0
986.0
985.0
981.0
980.0
986.0
991.0
996.0
993.0
989.0
985.0
989.0
992.0
992.0
989.0
987.0
992.0
996.0
999.0
999.0
998.0
995.0
991.0
993.0
997.0
996.0
995.0
997.0
995.0
1000.0
1005.0
1005.0
1006.0
1007.0
1005.0
1005.0
1008.0
1008.0
1011.0
1010.0
1012.0
1010.0
1014.0
1015.0
1018.0
1014.0
1010.0
1013.0
1014.0
1017.0
1016.0
1015.0
1011.0
1009.0
1012.0
1012.0
1010.0
1009.0
1007.0
1012.0
1016.0
1017.0
1015.0
1012.0
1006.0
1005.0
1008.0
1006.0
1005.0
1004.0
999.0
998.0
997.0
995.0
992.0
989.0
987.0
993.0
997.0
995.0
987.0
981.0
980.0
986.0
996.0
998.0
995.0
987.0
984.0
984.0
983.0
983.0
982.0
985.0
985.0
985.0
987.0
983.0
983.0
984.0
985.0
987.0
987.0
985.0
982.0
981.0
979.0
979.0
982.0
980.0
979.0
975.0
974.0
978.0
980.0
982.0
978.0
978.0
974.0
974.0
974.0
976.0
975.0
974.0
972.0
976.0
978.0
977.0
968.0
967.0
968.0
967.0
971.0
973.0
974.0
974.0
971.0
973.0
972.0
975.0
971.0
971.0
969.0
969.0
973.0
973.0
967.0
965.0
962.0
961.0
965.0
968.0
972.0
970.0
966.0
966.0
968.0
971.0
969.0
967.0
963.0
965.0
968.0
971.0
974.0
972.0
967.0
965.0
963.0
965.0
967.0
973.0
972.0
971.0
970.0
966.0
961.0
964.0
970.0
980.0
980.0
978.0
973.0
973.0
973.0
973.0
969.0
968.0
968.0
968.0
968.0
969.0
970.0
974.0
977.0
974.0
968.0
973.0
971.0
973.0
972.0
968.0
969.0
977.0
984.0
983.0
979.0
977.0
975.0
975.0
979.0
978.0
976.0
975.0
974.0
976.0
978.0
977.0
973.0
976.0
978.0
979.0
982.0
980.0
977.0
974.0
973.0
976.0
979.0
980.0
978.0
977.0
976.0
977.0
979.0
979.0
977.0
977.0
978.0
981.0
980.0
980.0
980.0
980.0
976.0
972.0
974.0
977.0
982.0
981.0
981.0
981.0
983.0
980.0
981.0
983.0
985.0
988.0
987.0
984.0
983.0
981.0
984.0
983.0
992.0
995.0
994.0
993.0
988.0
992.0
999.0
1001.0
1009.0
1011.0
1013.0
1015.0
1015.0
1013.0
1016.0
1021.0
1023.0
1027.0
1032.0
1032.0
1030.0
1026.0
1026.0
1028.0
1027.0
1024.0
1017.0
1011.0
1005.0
998.0
990.0
983.0
974.0
968.0
970.0
978.0
982.0
982.0
979.0
975.0
973.0
974.0
976.0
977.0
975.0
975.0
976.0
976.0
977.0
976.0
971.0
973.0
972.0
975.0
977.0
974.0
973.0
972.0
970.0
972.0
974.0
970.0
965.0
962.0
966.0
975.0
983.0
979.0
974.0
969.0
967.0
967.0
964.0
957.0
956.0
959.0
961.0
965.0
968.0
963.0
952.0
931.0
921.0
919.0
919.0
919.0
915.0
909.0
895.0
890.0
886.0
883.0
876.0
867.0
857.0
847.0
847.0
846.0
849.0
855.0
863.0
868.0
878.0
896.0
913.0
922.0
929.0
943.0
958.0
970.0
975.0
975.0
979.0
986.0
990.0
992.0
988.0
986.0
985.0
987.0
990.0
992.0
997.0
995.0
991.0
988.0
992.0
993.0
991.0
991.0
995.0
999.0
1006.0
1004.0
999.0
995.0
993.0
996.0
998.0
1000.0
999.0
995.0
994.0
998.0
1000.0
1001.0
1002.0
1002.0
1003.0
1005.0
1009.0
1011.0
1010.0
1008.0
1006.0
1009.0
1011.0
1008.0
1006.0
1009.0
1012.0
1015.0
1017.0
1016.0
1017.0
1019.0
1020.0
1021.0
1023.0
1022.0
1017.0
1019.0
1022.0
1024.0
1028.0
1033.0
1028.0
1024.0
1023.0
1026.0
1027.0
1023.0
1021.0
1021.0
1023.0
1027.0
1027.0
1022.0
1017.0
1014.0
1015.0
1016.0
1015.0
1014.0
1012.0
1009.0
1009.0
1007.0
1005.0
1005.0
1003.0
998.0
993.0
993.0
997.0
1000.0
1001.0
999.0
993.0
994.0
995.0
995.0
993.0
993.0
991.0
992.0
992.0
990.0
991.0
991.0
991.0
991.0
993.0
992.0
989.0
988.0
989.0
988.0
989.0
989.0
986.0
985.0
984.0
982.0
982.0
983.0
981.0
979.0
982.0
983.0
986.0
988.0
988.0
984.0
980.0
986.0
987.0
986.0
983.0
979.0
978.0
977.0
978.0
976.0
977.0
975.0
975.0
978.0
977.0
975.0
975.0
971.0
973.0
976.0
977.0
973.0
971.0
970.0
969.0
970.0
969.0
970.0
967.0
968.0
968.0
967.0
969.0
973.0
970.0
970.0
967.0
967.0
972.0
973.0
971.0
969.0
962.0
962.0
967.0
968.0
967.0
966.0
964.0
968.0
976.0
976.0
973.0
970.0
968.0
970.0
972.0
975.0
975.0
974.0
971.0
970.0
973.0
973.0
971.0
971.0
969.0
971.0
976.0
978.0
977.0
973.0
973.0
975.0
979.0
977.0
975.0
973.0
970.0
972.0
972.0
974.0
970.0
968.0
969.0
976.0
981.0
980.0
978.0
977.0
973.0
973.0
970.0
974.0
977.0
981.0
980.0
979.0
977.0
974.0
974.0
973.0
976.0
980.0
980.0
977.0
974.0
977.0
974.0
975.0
978.0
977.0
975.0
974.0
973.0
975.0
976.0
976.0
973.0
974.0
974.0
975.0
975.0
976.0
972.0
972.0
975.0
980.0
981.0
977.0
972.0
967.0
970.0
975.0
980.0
980.0
975.0
975.0
972.0
977.0
978.0
978.0
977.0
979.0
981.0
980.0
986.0
988.0
988.0
987.0
987.0
990.0
996.0
997.0
1000.0
1001.0
1004.0
1009.0
1011.0
1014.0
1016.0
1015.0
1014.0
1017.0
1018.0
1020.0
1021.0
1020.0
1018.0
1012.0
1004.0
996.0
985.0
978.0
970.0
967.0
967.0
966.0
964.0
963.0
962.0
963.0
969.0
969.0
969.0
966.0
964.0
964.0
965.0
963.0
962.0
964.0
965.0
965.0
968.0
966.0
962.0
961.0
961.0
962.0
964.0
965.0
963.0
963.0
960.0
962.0
964.0
960.0
959.0
960.0
965.0
966.0
964.0
955.0
953.0
955.0
960.0
965.0
966.0
967.0
963.0
956.0
940.0
932.0
926.0
923.0
921.0
918.0
911.0
903.0
894.0
886.0
877.0
868.0
860.0
849.0
843.0
843.0
839.0
843.0
853.0
864.0
871.0
872.0
880.0
896.0
913.0
926.0
936.0
944.0
952.0
961.0
968.0
973.0
974.0
975.0
973.0
973.0
973.0
977.0
980.0
981.0
978.0
979.0
980.0
983.0
985.0
981.0
984.0
982.0
981.0
980.0
981.0
980.0
981.0
985.0
984.0
987.0
987.0
988.0
988.0
987.0
987.0
989.0
990.0
990.0
992.0
989.0
988.0
990.0
989.0
990.0
990.0
993.0
991.0
991.0
994.0
997.0
1000.0
999.0
997.0
1000.0
1003.0
1005.0
1006.0
1004.0
1004.0
1005.0
1006.0
1006.0
1006.0
1012.0
1014.0
1017.0
1015.0
1014.0
1015.0
1013.0
1013.0
1014.0
1017.0
1016.0
1015.0
1014.0
1012.0
1012.0
1016.0
1016.0
1011.0
1010.0
1006.0
1009.0
1010.0
1010.0
1008.0
1003.0
1003.0
1005.0
1007.0
1006.0
999.0
996.0
991.0
993.0
995.0
997.0
995.0
992.0
987.0
988.0
990.0
994.0
992.0
988.0
986.0
986.0
987.0
986.0
984.0
983.0
987.0
989.0
989.0
992.0
988.0
985.0
979.0
977.0
978.0
981.0
987.0
987.0
988.0
986.0
987.0
984.0
981.0
980.0
982.0
983.0
983.0
981.0
980.0
978.0
982.0
985.0
987.0
984.0
981.0
976.0
976.0
978.0
977.0
979.0
978.0
977.0
975.0
975.0
976.0
977.0
977.0
972.0
971.0
973.0
972.0
971.0
970.0
969.0
970.0
972.0
973.0
972.0
968.0
965.0
964.0
969.0
973.0
971.0
970.0
966.0
966.0
969.0
970.0
967.0
970.0
968.0
966.0
966.0
968.0
970.0
973.0
974.0
975.0
978.0
981.0
981.0
975.0
973.0
972.0
971.0
971.0
970.0
976.0
975.0
975.0
976.0
981.0
978.0
977.0
975.0
976.0
979.0
979.0
980.0
977.0
976.0
973.0
977.0
980.0
978.0
980.0
977.0
978.0
979.0
983.0
985.0
982.0
982.0
981.0
980.0
980.0
979.0
983.0
981.0
979.0
981.0
984.0
985.0
986.0
984.0
982.0
984.0
985.0
981.0
985.0
984.0
981.0
977.0
976.0
978.0
985.0
987.0
986.0
984.0
984.0
985.0
988.0
989.0
988.0
988.0
987.0
985.0
984.0
981.0
980.0
984.0
983.0
983.0
981.0
982.0
979.0
980.0
984.0
985.0
984.0
981.0
982.0
987.0
987.0
988.0
986.0
986.0
986.0
988.0
988.0
989.0
989.0
990.0
991.0
992.0
994.0
995.0
999.0
1000.0
1001.0
1004.0
1006.0
1005.0
1007.0
1011.0
1017.0
1024.0
1029.0
1029.0
1027.0
1023.0
1027.0
1033.0
1037.0
1038.0
1034.0
1030.0
1023.0
1016.0
1009.0
1002.0
992.0
983.0
975.0
975.0
980.0
983.0
980.0
977.0
978.0
977.0
978.0
978.0
974.0
973.0
970.0
973.0
976.0
975.0
977.0
975.0
971.0
971.0
974.0
980.0
981.0
982.0
980.0
980.0
979.0
977.0
976.0
975.0
976.0
974.0
974.0
977.0
981.0
981.0
978.0
978.0
979.0
976.0
973.0
972.0
979.0
985.0
986.0
984.0
984.0
983.0
972.0
953.0
941.0
940.0
937.0
934.0
932.0
931.0
923.0
914.0
906.0
899.0
889.0
882.0
873.0
863.0
859.0
851.0
849.0
861.0
877.0
884.0
886.0
890.0
905.0
921.0
937.0
942.0
947.0
953.0
963.0
977.0
985.0
987.0
992.0
994.0
993.0
992.0
993.0
995.0
997.0
1001.0
998.0
1002.0
1002.0
1001.0
1000.0
997.0
995.0
998.0
1002.0
1004.0
1001.0
999.0
1002.0
1005.0
1003.0
1003.0
1002.0
1003.0
1002.0
1005.0
1008.0
1004.0
1000.0
1001.0
1000.0
1002.0
1009.0
1011.0
1013.0
1012.0
1011.0
1012.0
1013.0
1014.0
1014.0
1014.0
1013.0
1012.0
1016.0
1017.0
1020.0
1017.0
1017.0
1020.0
1020.0
1022.0
1020.0
1026.0
1025.0
1029.0
1026.0
1026.0
1025.0
1027.0
1028.0
1028.0
1029.0
1028.0
1026.0
1026.0
1027.0
1029.0
1031.0
1031.0
1030.0
1028.0
1026.0
1023.0
1027.0
1025.0
1025.0
1024.0
1022.0
1021.0
1019.0
1017.0
1012.0
1009.0
1009.0
1006.0
1010.0
1012.0
1011.0
1010.0
1005.0
1005.0
1009.0
1007.0
1003.0
1002.0
1002.0
1002.0
1003.0
1000.0
998.0
997.0
998.0
1000.0
1001.0
1001.0
1002.0
1001.0
1002.0
1001.0
999.0
1000.0
999.0
998.0
996.0
998.0
999.0
997.0
991.0
990.0
996.0
999.0
1002.0
1000.0
998.0
994.0
994.0
994.0
996.0
993.0
991.0
988.0
993.0
997.0
996.0
996.0
994.0
991.0
988.0
987.0
984.0
987.0
991.0
992.0
988.0
988.0
987.0
988.0
986.0
987.0
985.0
986.0
985.0
984.0
983.0
983.0
983.0
986.0
985.0
980.0
977.0
972.0
975.0
979.0
982.0
981.0
980.0
982.0
984.0
986.0
984.0
983.0
980.0
979.0
978.0
979.0
979.0
981.0
982.0
984.0
983.0
986.0
985.0
986.0
984.0
985.0
982.0
984.0
985.0
989.0
987.0
988.0
984.0
989.0
991.0
988.0
987.0
983.0
985.0
985.0
991.0
991.0
988.0
988.0
983.0
984.0
984.0
986.0
985.0
985.0
985.0
987.0
990.0
988.0
985.0
983.0
985.0
986.0
989.0
992.0
994.0
992.0
990.0
990.0
991.0
988.0
987.0
985.0
986.0
989.0
992.0
992.0
990.0
990.0
991.0
991.0
992.0
991.0
991.0
991.0
991.0
996.0
994.0
989.0
988.0
990.0
992.0
995.0
996.0
995.0
992.0
989.0
983.0
984.0
989.0
992.0
999.0
999.0
997.0
998.0
999.0
1001.0
1000.0
1000.0
999.0
1005.0
1008.0
1011.0
1013.0
1018.0
1017.0
1019.0
1023.0
1025.0
1027.0
1031.0
1028.0
1032.0
1033.0
1035.0
1037.0
1039.0
1035.0
1032.0
1027.0
1021.0
1015.0
1006.0
997.0
986.0
982.0
977.0
974.0
978.0
977.0
978.0
979.0
978.0
981.0
981.0
983.0
982.0
982.0
980.0
977.0
974.0
979.0
980.0
984.0
981.0
977.0
975.0
973.0
973.0
974.0
977.0
979.0
979.0
978.0
979.0
981.0
983.0
980.0
978.0
976.0
972.0
978.0
979.0
976.0
970.0
962.0
967.0
975.0
980.0
981.0
978.0
975.0
966.0
948.0
935.0
932.0
930.0
928.0
927.0
922.0
910.0
902.0
896.0
892.0
892.0
884.0
869.0
859.0
852.0
853.0
859.0
868.0
879.0
881.0
888.0
902.0
922.0
935.0
943.0
952.0
958.0
970.0
983.0
991.0
994.0
994.0
991.0
990.0
997.0
999.0
1001.0
998.0
998.0
996.0
1000.0
1001.0
1000.0
1004.0
1003.0
999.0
999.0
1004.0
1006.0
1005.0
1001.0
1002.0
1004.0
1005.0
1003.0
1002.0
1005.0
1008.0
1013.0
1013.0
1010.0
1007.0
1007.0
1007.0
1013.0
1014.0
1016.0
1012.0
1009.0
1008.0
1011.0
1015.0
1014.0
1014.0
1017.0
1018.0
1018.0
1018.0
1019.0
1021.0
1022.0
1022.0
1020.0
1024.0
1024.0
1027.0
1026.0
1025.0
1025.0
1027.0
1030.0
1033.0
1032.0
1031.0
1030.0
1032.0
1029.0
1033.0
1032.0
1030.0
1030.0
1030.0
1032.0
1029.0
1025.0
1025.0
1022.0
1023.0
1023.0
1020.0
1020.0
1019.0
1017.0
1014.0
1012.0
1014.0
1013.0
1009.0
1010.0
1007.0
1003.0
1001.0
1002.0
1001.0
1002.0
1005.0
1005.0
1001.0
998.0
996.0
999.0
1002.0
1000.0
997.0
997.0
996.0
999.0
1000.0
997.0
998.0
992.0
991.0
996.0
998.0
995.0
991.0
992.0
995.0
995.0
997.0
996.0
994.0
991.0
988.0
989.0
994.0
992.0
992.0
993.0
992.0
994.0
992.0
987.0
983.0
983.0
989.0
993.0
992.0
990.0
985.0
983.0
981.0
978.0
981.0
980.0
984.0
983.0
980.0
980.0
979.0
978.0
978.0
977.0
977.0
979.0
983.0
978.0
973.0
973.0
970.0
974.0
983.0
983.0
983.0
979.0
977.0
974.0
973.0
970.0
972.0
968.0
970.0
971.0
972.0
971.0
971.0
972.0
971.0
972.0
971.0
974.0
975.0
976.0
975.0
977.0
979.0
980.0
975.0
977.0
976.0
977.0
981.0
978.0
978.0
977.0
975.0
974.0
973.0
975.0
975.0
978.0
981.0
980.0
983.0
981.0
979.0
977.0
977.0
978.0
978.0
978.0
981.0
979.0
979.0
976.0
980.0
983.0
981.0
979.0
978.0
977.0
981.0
980.0
978.0
977.0
977.0
979.0
979.0
980.0
978.0
980.0
977.0
979.0
980.0
981.0
980.0
979.0
980.0
979.0
981.0
980.0
978.0
975.0
972.0
975.0
979.0
976.0
977.0
979.0
978.0
985.0
989.0
987.0
985.0
984.0
979.0
982.0
983.0
984.0
984.0
982.0
977.0
982.0
982.0
981.0
985.0
987.0
988.0
994.0
995.0
994.0
994.0
995.0
999.0
1003.0
1010.0
1013.0
1013.0
1013.0
1015.0
1019.0
1022.0
1022.0
1023.0
1024.0
1024.0
1027.0
1030.0
1026.0
1021.0
1013.0
1002.0
993.0
988.0
981.0
971.0
966.0
965.0
969.0
975.0
974.0
970.0
967.0
965.0
967.0
971.0
969.0
970.0
966.0
967.0
971.0
974.0
970.0
967.0
966.0
963.0
968.0
969.0
970.0
970.0
969.0
965.0
967.0
968.0
969.0
969.0
969.0
967.0
965.0
964.0
963.0
964.0
964.0
959.0
958.0
954.0
952.0
955.0
954.0
952.0
952.0
950.0
938.0
923.0
911.0
905.0
904.0
902.0
901.0
898.0
890.0
882.0
873.0
867.0
860.0
856.0
847.0
838.0
836.0
837.0
848.0
861.0
870.0
873.0
878.0
894.0
909.0
922.0
930.0
939.0
947.0
959.0
969.0
973.0
977.0
978.0
981.0
980.0
979.0
980.0
978.0
980.0
984.0
993.0
994.0
990.0
990.0
990.0
993.0
998.0
997.0
994.0
990.0
991.0
989.0
989.0
988.0
989.0
991.0
984.0
982.0
985.0
991.0
1000.0
1008.0
1010.0
1009.0
1008.0
1004.0
1001.0
996.0
995.0
1002.0
1011.0
1009.0
1007.0
1007.0
1007.0
1014.0
1017.0
1020.0
1018.0
1016.0
1013.0
1012.0
1018.0
1020.0
1019.0
1018.0
1019.0
1022.0
1024.0
1026.0
1022.0
1025.0
1025.0
1025.0
1028.0
1029.0
1025.0
1024.0
1023.0
1026.0
1025.0
1029.0
1028.0
1026.0
1028.0
1031.0
1036.0
1032.0
1027.0
1020.0
1015.0
1019.0
1027.0
1025.0
1022.0
1020.0
1022.0
1019.0
1015.0
1008.0
1012.0
1019.0
1022.0
1018.0
1013.0
1007.0
1003.0
1003.0
1001.0
1004.0
1007.0
1006.0
1002.0
997.0
999.0
1003.0
1004.0
1000.0
993.0
989.0
991.0
993.0
993.0
991.0
990.0
992.0
994.0
994.0
995.0
995.0
995.0
992.0
990.0
990.0
992.0
990.0
989.0
981.0
980.0
985.0
991.0
983.0
973.0
971.0
978.0
988.0
994.0
999.0
997.0
995.0
987.0
985.0
984.0
985.0
987.0
989.0
985.0
984.0
981.0
981.0
985.0
985.0
985.0
981.0
981.0
980.0
981.0
982.0
978.0
979.0
981.0
982.0
983.0
982.0
976.0
978.0
980.0
980.0
978.0
975.0
976.0
977.0
976.0
977.0
976.0
975.0
974.0
975.0
977.0
979.0
979.0
976.0
972.0
970.0
972.0
974.0
979.0
979.0
979.0
979.0
979.0
975.0
979.0
979.0
979.0
980.0
982.0
978.0
976.0
974.0
972.0
974.0
980.0
984.0
978.0
970.0
970.0
979.0
990.0
989.0
985.0
983.0
984.0
983.0
984.0
983.0
979.0
980.0
980.0
980.0
981.0
978.0
979.0
978.0
976.0
979.0
980.0
978.0
975.0
979.0
985.0
989.0
988.0
986.0
981.0
976.0
976.0
981.0
982.0
980.0
979.0
979.0
984.0
988.0
989.0
985.0
979.0
980.0
976.0
979.0
979.0
979.0
980.0
981.0
978.0
976.0
978.0
981.0
984.0
982.0
983.0
983.0
981.0
977.0
980.0
987.0
992.0
989.0
986.0
982.0
982.0
981.0
981.0
983.0
989.0
989.0
981.0
977.0
980.0
982.0
989.0
991.0
988.0
988.0
990.0
996.0
995.0
993.0
994.0
996.0
999.0
1001.0
1007.0
1012.0
1009.0
1006.0
1011.0
1018.0
1023.0
1022.0
1016.0
1014.0
1019.0
1029.0
1035.0
1035.0
1031.0
1025.0
1014.0
1010.0
1004.0
996.0
988.0
981.0
971.0
968.0
967.0
965.0
967.0
965.0
974.0
981.0
984.0
982.0
977.0
972.0
967.0
969.0
971.0
973.0
973.0
968.0
967.0
971.0
974.0
971.0
969.0
969.0
972.0
971.0
971.0
968.0
970.0
973.0
973.0
974.0
970.0
968.0
964.0
957.0
959.0
968.0
981.0
983.0
979.0
967.0
955.0
951.0
952.0
949.0
949.0
949.0
955.0
962.0
962.0
946.0
929.0
917.0
914.0
918.0
918.0
919.0
915.0
903.0
891.0
884.0
879.0
873.0
868.0
860.0
851.0
846.0
847.0
841.0
842.0
845.0
858.0
870.0
874.0
877.0
883.0
900.0
916.0
929.0
934.0
939.0
942.0
950.0
961.0
971.0
979.0
979.0
977.0
979.0
986.0
991.0
997.0
994.0
992.0
989.0
990.0
991.0
989.0
985.0
987.0
990.0
987.0
982.0
977.0
978.0
980.0
980.0
986.0
1002.0
1018.0
1013.0
1000.0
993.0
993.0
998.0
1001.0
995.0
995.0
996.0
999.0
1009.0
1013.0
1007.0
996.0
994.0
991.0
993.0
998.0
993.0
993.0
999.0
1007.0
1011.0
1010.0
1008.0
1007.0
