# Simple Text Format
# Sampling Rate (Hz):= 360.00
# Resolution:= 12
# Labels:= ECG
967.0
965.0
962.0
965.0
966.0
967.0
969.0
970.0
970.0
968.0
965.0
967.0
969.0
970.0
971.0
969.0
967.0
967.0
969.0
969.0
970.0
967.0
971.0
971.0
970.0
967.0
968.0
965.0
965.0
968.0
970.0
973.0
971.0
967.0
969.0
969.0
972.0
973.0
968.0
966.0
965.0
967.0
970.0
968.0
965.0
961.0
966.0
972.0
973.0
974.0
971.0
970.0
969.0
970.0
968.0
967.0
971.0
969.0
973.0
972.0
973.0
971.0
973.0
970.0
970.0
970.0
970.0
970.0
970.0
972.0
971.0
973.0
974.0
972.0
969.0
970.0
974.0
979.0
981.0
981.0
983.0
981.0
985.0
985.0
983.0
987.0
989.0
993.0
1001.0
1003.0
1009.0
1011.0
1010.0
1009.0
1010.0
1013.0
1013.0
1014.0
1013.0
1014.0
1017.0
1022.0
1021.0
1014.0
1004.0
995.0
993.0
988.0
983.0
974.0
968.0
963.0
965.0
965.0
968.0
968.0
966.0
964.0
966.0
967.0
968.0
963.0
960.0
957.0
960.0
963.0
965.0
963.0
964.0
962.0
962.0
963.0
963.0
965.0
964.0
963.0
963.0
965.0
968.0
967.0
966.0
963.0
964.0
967.0
968.0
967.0
967.0
967.0
966.0
971.0
974.0
971.0
966.0
961.0
966.0
975.0
980.0
982.0
982.0
981.0
984.0
973.0
960.0
947.0
940.0
936.0
938.0
940.0
934.0
921.0
917.0
912.0
908.0
903.0
893.0
882.0
870.0
861.0
857.0
854.0
857.0
864.0
871.0
867.0
870.0
884.0
903.0
916.0
924.0
929.0
939.0
950.0
960.0
967.0
969.0
969.0
972.0
977.0
980.0
981.0
979.0
979.0
979.0
983.0
981.0
985.0
983.0
983.0
984.0
988.0
989.0
986.0
985.0
987.0
987.0
987.0
989.0
988.0
988.0
982.0
983.0
986.0
988.0
990.0
988.0
987.0
990.0
994.0
994.0
991.0
990.0
986.0
988.0
989.0
993.0
989.0
987.0
989.0
992.0
996.0
998.0
994.0
991.0
992.0
993.0
997.0
994.0
995.0
998.0
998.0
998.0
999.0
999.0
999.0
1000.0
1000.0
1003.0
1004.0
1003.0
1004.0
1000.0
1002.0
1002.0
1002.0
1006.0
1008.0
1007.0
1004.0
1004.0
1007.0
1011.0
1010.0
1004.0
1003.0
1000.0
1006.0
1007.0
1004.0
1000.0
1002.0
1001.0
1001.0
1001.0
1002.0
999.0
996.0
996.0
997.0
996.0
996.0
991.0
989.0
988.0
990.0
992.0
992.0
990.0
987.0
983.0
982.0
984.0
987.0
985.0
982.0
979.0
981.0
981.0
982.0
983.0
982.0
982.0
983.0
983.0
984.0
981.0
978.0
980.0
979.0
981.0
979.0
980.0
979.0
979.0
979.0
978.0
977.0
978.0
974.0
974.0
974.0
974.0
977.0
977.0
976.0
977.0
978.0
979.0
978.0
974.0
974.0
977.0
979.0
982.0
980.0
977.0
973.0
973.0
973.0
975.0
978.0
977.0
974.0
974.0
972.0
971.0
972.0
970.0
969.0
970.0
970.0
973.0
969.0
966.0
964.0
963.0
964.0
966.0
965.0
965.0
961.0
963.0
965.0
968.0
965.0
963.0
961.0
964.0
967.0
967.0
967.0
965.0
962.0
966.0
967.0
973.0
969.0
965.0
965.0
967.0
970.0
970.0
967.0
965.0
962.0
965.0
967.0
966.0
968.0
971.0
970.0
972.0
973.0
970.0
971.0
970.0
968.0
969.0
972.0
973.0
974.0
970.0
967.0
970.0
972.0
973.0
972.0
970.0
969.0
973.0
974.0
975.0
972.0
970.0
969.0
973.0
975.0
971.0
973.0
974.0
973.0
971.0
974.0
975.0
974.0
972.0
971.0
973.0
973.0
972.0
973.0
977.0
977.0
976.0
979.0
974.0
974.0
974.0
972.0
974.0
974.0
976.0
975.0
972.0
974.0
977.0
976.0
977.0
972.0
971.0
970.0
973.0
975.0
975.0
973.0
973.0
972.0
975.0
979.0
979.0
976.0
973.0
970.0
971.0
977.0
976.0
978.0
979.0
977.0
982.0
986.0
988.0
986.0
984.0
984.0
991.0
996.0
1001.0
1004.0
1004.0
1007.0
1006.0
1012.0
1011.0
1011.0
1013.0
1015.0
1018.0
1022.0
1023.0
1022.0
1017.0
1006.0
999.0
993.0
986.0
977.0
969.0
962.0
961.0
962.0
967.0
967.0
965.0
962.0
961.0
965.0
967.0
965.0
964.0
960.0
960.0
965.0
965.0
965.0
965.0
964.0
965.0
967.0
968.0
962.0
963.0
962.0
965.0
966.0
966.0
964.0
965.0
965.0
963.0
965.0
966.0
964.0
963.0
963.0
962.0
958.0
961.0
967.0
973.0
981.0
985.0
992.0
991.0
979.0
961.0
947.0
945.0
943.0
944.0
938.0
931.0
918.0
917.0
910.0
903.0
893.0
881.0
869.0
861.0
855.0
852.0
850.0
855.0
865.0
872.0
877.0
885.0
896.0
910.0
920.0
928.0
938.0
949.0
957.0
963.0
964.0
969.0
975.0
979.0
975.0
973.0
971.0
973.0
977.0
978.0
978.0
979.0
981.0
983.0
983.0
984.0
983.0
978.0
976.0
977.0
978.0
979.0
979.0
979.0
980.0
980.0
982.0
981.0
979.0
981.0
982.0
984.0
987.0
990.0
986.0
985.0
985.0
985.0
986.0
987.0
986.0
988.0
988.0
990.0
990.0
988.0
990.0
990.0
988.0
992.0
993.0
994.0
996.0
995.0
994.0
996.0
999.0
999.0
998.0
994.0
994.0
997.0
1001.0
1002.0
1004.0
1002.0
999.0
1001.0
1003.0
1003.0
1003.0
1001.0
997.0
1002.0
1003.0
1002.0
999.0
993.0
991.0
992.0
997.0
998.0
994.0
991.0
990.0
990.0
992.0
992.0
990.0
986.0
984.0
985.0
983.0
981.0
980.0
979.0
978.0
980.0
979.0
976.0
976.0
977.0
975.0
977.0
977.0
978.0
976.0
974.0
971.0
974.0
977.0
976.0
974.0
973.0
973.0
975.0
977.0
980.0
977.0
975.0
972.0
971.0
976.0
977.0
975.0
972.0
970.0
971.0
976.0
974.0
970.0
970.0
971.0
974.0
971.0
970.0
967.0
968.0
967.0
969.0
969.0
969.0
967.0
968.0
966.0
968.0
964.0
965.0
962.0
961.0
960.0
960.0
962.0
961.0
961.0
960.0
958.0
958.0
960.0
963.0
961.0
959.0
958.0
957.0
955.0
957.0
955.0
956.0
956.0
958.0
959.0
960.0
957.0
953.0
954.0
957.0
959.0
959.0
958.0
955.0
955.0
958.0
963.0
963.0
961.0
958.0
958.0
960.0
960.0
962.0
960.0
962.0
961.0
961.0
960.0
962.0
960.0
960.0
960.0
961.0
962.0
961.0
960.0
961.0
960.0
960.0
962.0
964.0
963.0
962.0
958.0
961.0
963.0
963.0
964.0
963.0
961.0
963.0
965.0
965.0
964.0
963.0
961.0
961.0
963.0
963.0
962.0
961.0
961.0
963.0
963.0
963.0
964.0
962.0
962.0
965.0
965.0
963.0
963.0
964.0
963.0
962.0
964.0
966.0
963.0
962.0
963.0
966.0
967.0
969.0
966.0
964.0
963.0
964.0
967.0
968.0
971.0
971.0
970.0
972.0
977.0
980.0
980.0
980.0
979.0
982.0
987.0
990.0
995.0
999.0
999.0
1000.0
1002.0
1006.0
1008.0
1008.0
1005.0
1010.0
1014.0
1018.0
1018.0
1010.0
998.0
988.0
982.0
977.0
971.0
965.0
955.0
957.0
956.0
957.0
958.0
954.0
956.0
959.0
959.0
960.0
957.0
955.0
954.0
955.0
958.0
958.0
957.0
955.0
955.0
957.0
960.0
958.0
957.0
956.0
955.0
958.0
960.0
957.0
956.0
955.0
955.0
957.0
958.0
958.0
958.0
954.0
956.0
957.0
958.0
956.0
956.0
962.0
969.0
973.0
978.0
981.0
978.0
964.0
945.0
936.0
935.0
935.0
931.0
931.0
922.0
913.0
908.0
901.0
896.0
889.0
881.0
869.0
859.0
851.0
846.0
843.0
847.0
854.0
860.0
864.0
871.0
890.0
908.0
919.0
929.0
935.0
941.0
952.0
957.0
964.0
965.0
970.0
968.0
968.0
967.0
971.0
973.0
977.0
977.0
975.0
971.0
972.0
974.0
978.0
976.0
975.0
976.0
976.0
975.0
980.0
981.0
979.0
976.0
977.0
980.0
982.0
983.0
983.0
979.0
980.0
982.0
982.0
984.0
983.0
979.0
981.0
983.0
985.0
984.0
984.0
985.0
988.0
989.0
990.0
990.0
991.0
990.0
994.0
995.0
995.0
996.0
992.0
994.0
996.0
997.0
998.0
998.0
996.0
994.0
999.0
1001.0
1000.0
1002.0
1002.0
1001.0
1003.0
1002.0
1003.0
1006.0
1002.0
1001.0
998.0
1002.0
1002.0
999.0
998.0
995.0
995.0
993.0
994.0
992.0
990.0
987.0
989.0
989.0
990.0
986.0
982.0
982.0
983.0
983.0
987.0
983.0
980.0
980.0
978.0
982.0
981.0
978.0
978.0
975.0
978.0
977.0
980.0
979.0
978.0
975.0
978.0
978.0
978.0
980.0
980.0
978.0
979.0
978.0
976.0
975.0
973.0
971.0
975.0
977.0
976.0
976.0
976.0
973.0
972.0
973.0
975.0
977.0
976.0
972.0
974.0
976.0
975.0
974.0
974.0
973.0
972.0
973.0
971.0
969.0
971.0
967.0
965.0
968.0
970.0
968.0
967.0
963.0
966.0
966.0
966.0
964.0
962.0
961.0
963.0
966.0
968.0
968.0
964.0
962.0
963.0
964.0
966.0
963.0
965.0
963.0
964.0
965.0
969.0
967.0
966.0
965.0
965.0
963.0
967.0
969.0
967.0
966.0
967.0
969.0
968.0
968.0
965.0
966.0
970.0
973.0
974.0
969.0
966.0
968.0
972.0
971.0
970.0
970.0
970.0
972.0
974.0
973.0
972.0
973.0
969.0
967.0
967.0
969.0
974.0
972.0
973.0
971.0
971.0
974.0
971.0
972.0
970.0
969.0
970.0
972.0
974.0
973.0
974.0
971.0
971.0
973.0
975.0
973.0
971.0
969.0
973.0
975.0
975.0
974.0
973.0
972.0
972.0
974.0
975.0
972.0
972.0
973.0
976.0
975.0
974.0
972.0
973.0
973.0
973.0
975.0
977.0
977.0
974.0
975.0
974.0
977.0
977.0
975.0
973.0
972.0
974.0
977.0
977.0
976.0
974.0
972.0
976.0
977.0
977.0
975.0
975.0
976.0
975.0
980.0
982.0
985.0
985.0
985.0
988.0
988.0
990.0
992.0
993.0
997.0
1003.0
1006.0
1010.0
1010.0
1010.0
1010.0
1013.0
1016.0
1018.0
1016.0
1019.0
1019.0
1022.0
1022.0
1016.0
1007.0
996.0
990.0
983.0
980.0
973.0
967.0
962.0
962.0
966.0
969.0
967.0
967.0
966.0
964.0
968.0
966.0
968.0
967.0
966.0
965.0
966.0
966.0
966.0
965.0
961.0
961.0
964.0
969.0
971.0
968.0
964.0
965.0
966.0
966.0
967.0
965.0
966.0
965.0
965.0
966.0
963.0
959.0
960.0
968.0
975.0
978.0
980.0
981.0
979.0
964.0
950.0
942.0
939.0
942.0
941.0
933.0
924.0
916.0
909.0
902.0
891.0
880.0
869.0
863.0
856.0
852.0
854.0
863.0
869.0
875.0
886.0
899.0
914.0
922.0
931.0
942.0
952.0
964.0
968.0
970.0
973.0
975.0
976.0
977.0
976.0
974.0
976.0
981.0
981.0
982.0
979.0
978.0
977.0
981.0
981.0
983.0
983.0
982.0
982.0
983.0
981.0
981.0
983.0
982.0
984.0
985.0
985.0
985.0
986.0
979.0
982.0
981.0
985.0
986.0
989.0
989.0
990.0
986.0
987.0
987.0
989.0
986.0
990.0
992.0
994.0
992.0
988.0
989.0
992.0
997.0
999.0
1002.0
1000.0
995.0
994.0
997.0
1000.0
1000.0
1001.0
1003.0
1004.0
1006.0
1008.0
1009.0
1005.0
1001.0
1004.0
1006.0
1009.0
1008.0
1008.0
1006.0
1005.0
1008.0
1006.0
1003.0
999.0
1000.0
1000.0
1002.0
1001.0
1002.0
999.0
998.0
995.0
997.0
996.0
998.0
994.0
992.0
994.0
993.0
989.0
986.0
984.0
983.0
985.0
988.0
988.0
986.0
986.0
984.0
980.0
980.0
981.0
983.0
986.0
983.0
981.0
984.0
985.0
984.0
981.0
979.0
979.0
980.0
983.0
981.0
978.0
978.0
981.0
981.0
982.0
980.0
979.0
975.0
979.0
980.0
979.0
977.0
976.0
975.0
978.0
979.0
978.0
978.0
975.0
972.0
975.0
975.0
976.0
976.0
974.0
972.0
972.0
970.0
971.0
972.0
973.0
971.0
971.0
973.0
973.0
972.0
968.0
966.0
966.0
968.0
969.0
966.0
966.0
964.0
964.0
967.0
968.0
968.0
965.0
961.0
962.0
961.0
960.0
963.0
964.0
962.0
965.0
970.0
971.0
966.0
966.0
966.0
969.0
969.0
969.0
964.0
965.0
966.0
968.0
969.0
970.0
970.0
972.0
969.0
972.0
973.0
974.0
972.0
968.0
969.0
970.0
973.0
974.0
976.0
972.0
969.0
974.0
976.0
980.0
978.0
976.0
973.0
974.0
978.0
976.0
975.0
975.0
975.0
979.0
978.0
979.0
975.0
976.0
977.0
977.0
979.0
980.0
979.0
977.0
974.0
977.0
981.0
981.0
978.0
976.0
975.0
979.0
979.0
982.0
979.0
979.0
977.0
979.0
982.0
984.0
980.0
980.0
981.0
981.0
985.0
985.0
982.0
983.0
977.0
980.0
983.0
984.0
982.0
980.0
981.0
983.0
982.0
981.0
982.0
983.0
980.0
982.0
985.0
984.0
982.0
983.0
982.0
984.0
984.0
984.0
985.0
987.0
984.0
987.0
991.0
992.0
994.0
994.0
996.0
998.0
999.0
1002.0
1003.0
1008.0
1010.0
1011.0
1015.0
1021.0
1024.0
1027.0
1023.0
1024.0
1027.0
1030.0
1029.0
1028.0
1030.0
1033.0
1028.0
1021.0
1011.0
1005.0
997.0
993.0
988.0
983.0
979.0
977.0
975.0
980.0
982.0
981.0
981.0
980.0
980.0
980.0
982.0
982.0
980.0
979.0
977.0
980.0
982.0
982.0
980.0
979.0
978.0
977.0
978.0
978.0
980.0
980.0
978.0
979.0
978.0
981.0
981.0
983.0
982.0
980.0
981.0
984.0
984.0
982.0
980.0
982.0
982.0
978.0
975.0
978.0
988.0
996.0
1005.0
1010.0
1013.0
1008.0
995.0
984.0
979.0
977.0
976.0
973.0
971.0
970.0
961.0
954.0
951.0
943.0
936.0
925.0
916.0
904.0
892.0
883.0
877.0
879.0
886.0
888.0
887.0
895.0
908.0
925.0
937.0
943.0
952.0
958.0
965.0
975.0
979.0
981.0
987.0
986.0
987.0
990.0
993.0
994.0
993.0
992.0
990.0
992.0
993.0
997.0
999.0
994.0
992.0
996.0
998.0
998.0
998.0
995.0
995.0
997.0
998.0
1000.0
999.0
1000.0
1000.0
999.0
1000.0
1001.0
1002.0
1000.0
995.0
1002.0
1003.0
1002.0
1000.0
1001.0
1001.0
1007.0
1007.0
1008.0
1008.0
1007.0
1004.0
1006.0
1006.0
1009.0
1010.0
1011.0
1012.0
1014.0
1014.0
1014.0
1013.0
1013.0
1013.0
1016.0
1016.0
1017.0
1017.0
1014.0
1016.0
1018.0
1020.0
1019.0
1018.0
1019.0
1018.0
1021.0
1023.0
1024.0
1022.0
1023.0
1023.0
1027.0
1026.0
1025.0
1024.0
1024.0
1022.0
1023.0
1025.0
1025.0
1025.0
1023.0
1023.0
1022.0
1022.0
1024.0
1022.0
1023.0
1015.0
1016.0
1016.0
1017.0
1017.0
1015.0
1014.0
1010.0
1014.0
1011.0
1010.0
1008.0
1010.0
1011.0
1008.0
1010.0
1011.0
1009.0
1005.0
1005.0
1008.0
1007.0
1007.0
1005.0
1004.0
1003.0
1002.0
1005.0
1003.0
1003.0
1000.0
1003.0
1006.0
1007.0
1002.0
998.0
995.0
996.0
1001.0
999.0
1001.0
999.0
998.0
998.0
1000.0
998.0
995.0
990.0
993.0
997.0
1002.0
1002.0
998.0
998.0
994.0
993.0
997.0
997.0
994.0
995.0
990.0
988.0
989.0
988.0
991.0
992.0
993.0
994.0
992.0
992.0
991.0
988.0
984.0
985.0
986.0
987.0
987.0
986.0
981.0
979.0
985.0
988.0
985.0
980.0
978.0
981.0
987.0
986.0
983.0
979.0
979.0
982.0
988.0
987.0
984.0
985.0
983.0
984.0
984.0
984.0
982.0
983.0
982.0
983.0
986.0
986.0
984.0
985.0
984.0
985.0
985.0
985.0
988.0
986.0
984.0
985.0
986.0
988.0
988.0
986.0
986.0
985.0
987.0
992.0
988.0
987.0
982.0
986.0
988.0
989.0
988.0
988.0
987.0
989.0
991.0
989.0
990.0
985.0
986.0
989.0
990.0
990.0
989.0
986.0
987.0
992.0
992.0
991.0
989.0
987.0
989.0
990.0
993.0
991.0
987.0
984.0
982.0
988.0
992.0
990.0
991.0
989.0
989.0
992.0
991.0
988.0
989.0
989.0
985.0
988.0
990.0
993.0
993.0
990.0
989.0
990.0
991.0
993.0
992.0
991.0
990.0
991.0
993.0
990.0
990.0
995.0
997.0
1001.0
1001.0
1002.0
1005.0
1009.0
1008.0
1013.0
1017.0
1020.0
1022.0
1026.0
1026.0
1030.0
1034.0
1032.0
1033.0
1032.0
1029.0
1031.0
1032.0
1036.0
1036.0
1033.0
1028.0
1018.0
1012.0
1008.0
1003.0
996.0
989.0
987.0
985.0
985.0
985.0
983.0
981.0
981.0
984.0
985.0
981.0
981.0
977.0
981.0
982.0
982.0
980.0
979.0
977.0
982.0
980.0
981.0
979.0
978.0
977.0
979.0
976.0
982.0
981.0
980.0
979.0
977.0
977.0
978.0
981.0
981.0
980.0
981.0
979.0
980.0
981.0
979.0
974.0
975.0
981.0
988.0
994.0
996.0
1000.0
1003.0
1008.0
999.0
981.0
964.0
957.0
960.0
960.0
959.0
957.0
947.0
934.0
931.0
931.0
923.0
911.0
897.0
881.0
876.0
868.0
862.0
856.0
857.0
865.0
873.0
881.0
894.0
908.0
923.0
932.0
939.0
947.0
956.0
961.0
965.0
971.0
976.0
979.0
983.0
984.0
983.0
983.0
986.0
986.0
989.0
988.0
986.0
987.0
987.0
988.0
988.0
987.0
985.0
984.0
987.0
989.0
988.0
987.0
987.0
987.0
988.0
988.0
989.0
988.0
988.0
989.0
989.0
992.0
991.0
991.0
989.0
987.0
989.0
989.0
991.0
989.0
991.0
990.0
989.0
991.0
993.0
993.0
993.0
994.0
996.0
998.0
995.0
998.0
1000.0
998.0
1003.0
1000.0
996.0
997.0
1000.0
1000.0
1004.0
1006.0
1005.0
999.0
998.0
999.0
1002.0
1002.0
1003.0
1005.0
1007.0
1008.0
1010.0
1005.0
1009.0
1009.0
1010.0
1008.0
1010.0
1011.0
1010.0
1007.0
1004.0
1000.0
1003.0
1006.0
1004.0
999.0
996.0
993.0
995.0
998.0
997.0
997.0
997.0
994.0
994.0
993.0
991.0
992.0
989.0
988.0
988.0
989.0
989.0
985.0
982.0
983.0
985.0
985.0
985.0
984.0
981.0
977.0
979.0
979.0
981.0
980.0
983.0
980.0
978.0
982.0
984.0
980.0
978.0
980.0
984.0
986.0
986.0
987.0
984.0
983.0
983.0
983.0
985.0
982.0
979.0
977.0
978.0
980.0
980.0
978.0
977.0
978.0
976.0
975.0
973.0
971.0
971.0
971.0
968.0
967.0
970.0
970.0
966.0
968.0
971.0
973.0
969.0
965.0
961.0
959.0
961.0
960.0
963.0
963.0
963.0
963.0
964.0
964.0
957.0
952.0
954.0
957.0
959.0
957.0
957.0
957.0
955.0
952.0
946.0
951.0
955.0
959.0
958.0
958.0
959.0
962.0
964.0
962.0
960.0
957.0
956.0
958.0
960.0
958.0
957.0
954.0
957.0
961.0
960.0
957.0
955.0
956.0
958.0
958.0
959.0
959.0
957.0
955.0
955.0
958.0
958.0
956.0
958.0
961.0
963.0
963.0
958.0
956.0
953.0
955.0
960.0
964.0
960.0
957.0
959.0
959.0
958.0
955.0
956.0
958.0
958.0
959.0
962.0
962.0
963.0
959.0
959.0
954.0
954.0
957.0
960.0
958.0
953.0
949.0
950.0
956.0
955.0
957.0
952.0
952.0
955.0
958.0
959.0
959.0
956.0
954.0
952.0
953.0
955.0
957.0
951.0
946.0
943.0
946.0
951.0
954.0
955.0
956.0
953.0
951.0
953.0
952.0
948.0
949.0
953.0
955.0
956.0
958.0
959.0
960.0
965.0
969.0
973.0
975.0
976.0
973.0
977.0
977.0
977.0
978.0
983.0
992.0
1000.0
1002.0
1003.0
998.0
998.0
1000.0
1003.0
1002.0
992.0
981.0
970.0
964.0
958.0
950.0
944.0
940.0
939.0
937.0
937.0
935.0
932.0
927.0
923.0
927.0
938.0
946.0
946.0
940.0
938.0
934.0
929.0
931.0
934.0
934.0
933.0
926.0
924.0
926.0
931.0
930.0
928.0
927.0
929.0
931.0
936.0
940.0
947.0
941.0
937.0
928.0
930.0
934.0
939.0
940.0
936.0
937.0
936.0
946.0
954.0
960.0
964.0
970.0
968.0
956.0
943.0
933.0
932.0
930.0
928.0
928.0
917.0
908.0
901.0
897.0
888.0
877.0
861.0
848.0
845.0
844.0
838.0
834.0
834.0
838.0
837.0
834.0
845.0
860.0
878.0
888.0
891.0
896.0
901.0
905.0
913.0
927.0
944.0
956.0
956.0
948.0
942.0
935.0
937.0
937.0
936.0
937.0
940.0
945.0
950.0
948.0
945.0
943.0
940.0
939.0
940.0
940.0
941.0
943.0
943.0
939.0
935.0
937.0
941.0
945.0
938.0
927.0
925.0
926.0
929.0
943.0
953.0
953.0
954.0
955.0
955.0
953.0
951.0
949.0
949.0
950.0
950.0
948.0
945.0
944.0
947.0
954.0
955.0
954.0
950.0
949.0
949.0
953.0
954.0
953.0
958.0
958.0
956.0
952.0
954.0
959.0
957.0
953.0
956.0
961.0
960.0
958.0
953.0
950.0
951.0
961.0
977.0
974.0
968.0
964.0
965.0
965.0
959.0
953.0
948.0
944.0
945.0
940.0
940.0
948.0
953.0
952.0
949.0
954.0
956.0
955.0
952.0
947.0
951.0
954.0
955.0
949.0
945.0
941.0
941.0
942.0
941.0
936.0
937.0
936.0
933.0
927.0
931.0
938.0
938.0
935.0
934.0
934.0
934.0
933.0
933.0
928.0
928.0
927.0
934.0
935.0
934.0
932.0
934.0
934.0
937.0
934.0
930.0
927.0
922.0
926.0
929.0
929.0
929.0
928.0
925.0
926.0
921.0
919.0
915.0
913.0
918.0
926.0
930.0
929.0
922.0
917.0
918.0
926.0
930.0
923.0
919.0
918.0
922.0
924.0
919.0
919.0
915.0
911.0
914.0
919.0
922.0
921.0
915.0
911.0
911.0
916.0
914.0
913.0
910.0
911.0
915.0
913.0
914.0
913.0
910.0
911.0
915.0
915.0
912.0
908.0
910.0
915.0
914.0
911.0
906.0
908.0
908.0
909.0
910.0
913.0
912.0
907.0
914.0
926.0
931.0
927.0
923.0
922.0
921.0
921.0
924.0
923.0
920.0
921.0
918.0
914.0
914.0
918.0
918.0
915.0
916.0
920.0
919.0
920.0
919.0
920.0
916.0
913.0
913.0
912.0
905.0
906.0
917.0
927.0
935.0
934.0
934.0
930.0
920.0
917.0
919.0
923.0
921.0
921.0
915.0
912.0
919.0
927.0
930.0
930.0
922.0
914.0
917.0
923.0
926.0
922.0
919.0
912.0
912.0
920.0
926.0
926.0
923.0
921.0
924.0
929.0
927.0
925.0
924.0
925.0
922.0
922.0
925.0
934.0
938.0
939.0
935.0
934.0
936.0
934.0
933.0
935.0
948.0
959.0
961.0
963.0
953.0
950.0
956.0
965.0
968.0
970.0
974.0
975.0
980.0
980.0
981.0
975.0
968.0
960.0
949.0
941.0
932.0
925.0
915.0
908.0
910.0
921.0
927.0
924.0
918.0
911.0
910.0
913.0
915.0
911.0
908.0
915.0
927.0
931.0
928.0
930.0
937.0
935.0
922.0
913.0
918.0
931.0
939.0
937.0
933.0
928.0
926.0
922.0
926.0
925.0
923.0
919.0
910.0
914.0
920.0
930.0
929.0
925.0
924.0
923.0
933.0
944.0
950.0
955.0
962.0
956.0
944.0
932.0
931.0
929.0
928.0
918.0
908.0
897.0
895.0
890.0
879.0
863.0
849.0
836.0
827.0
822.0
820.0
819.0
824.0
830.0
843.0
860.0
879.0
891.0
895.0
899.0
909.0
915.0
919.0
919.0
922.0
931.0
943.0
949.0
951.0
948.0
943.0
938.0
941.0
945.0
948.0
947.0
940.0
937.0
936.0
937.0
937.0
940.0
943.0
944.0
945.0
943.0
942.0
936.0
927.0
927.0
938.0
953.0
960.0
954.0
943.0
939.0
942.0
952.0
955.0
955.0
953.0
955.0
957.0
955.0
954.0
947.0
945.0
947.0
953.0
959.0
957.0
954.0
953.0
954.0
956.0
961.0
968.0
970.0
967.0
958.0
955.0
960.0
966.0
970.0
963.0
962.0
963.0
960.0
954.0
960.0
975.0
984.0
981.0
973.0
967.0
968.0
967.0
968.0
970.0
975.0
974.0
971.0
969.0
966.0
969.0
971.0
971.0
968.0
963.0
961.0
962.0
963.0
959.0
954.0
956.0
959.0
962.0
957.0
953.0
947.0
946.0
951.0
950.0
951.0
955.0
955.0
952.0
947.0
947.0
957.0
958.0
956.0
953.0
954.0
956.0
955.0
950.0
950.0
953.0
954.0
956.0
953.0
948.0
944.0
942.0
942.0
949.0
955.0
959.0
952.0
940.0
936.0
938.0
939.0
940.0
943.0
946.0
946.0
944.0
943.0
940.0
938.0
932.0
931.0
942.0
945.0
948.0
943.0
943.0
945.0
944.0
944.0
944.0
941.0
938.0
939.0
942.0
944.0
943.0
935.0
933.0
935.0
944.0
945.0
940.0
931.0
926.0
928.0
935.0
941.0
940.0
942.0
941.0
936.0
934.0
938.0
944.0
945.0
945.0
941.0
946.0
946.0
942.0
936.0
934.0
940.0
947.0
956.0
954.0
946.0
941.0
942.0
946.0
945.0
942.0
946.0
950.0
949.0
948.0
953.0
951.0
945.0
937.0
935.0
946.0
959.0
960.0
953.0
940.0
936.0
946.0
961.0
965.0
956.0
947.0
940.0
943.0
951.0
958.0
957.0
952.0
949.0
949.0
951.0
950.0
948.0
953.0
959.0
959.0
958.0
953.0
959.0
959.0
956.0
957.0
956.0
957.0
955.0
946.0
947.0
954.0
965.0
965.0
959.0
948.0
947.0
956.0
962.0
961.0
956.0
954.0
956.0
956.0
952.0
956.0
958.0
962.0
959.0
956.0
956.0
957.0
953.0
951.0
954.0
963.0
970.0
967.0
956.0
951.0
958.0
964.0
968.0
970.0
969.0
970.0
970.0
971.0
975.0
982.0
986.0
989.0
990.0
993.0
998.0
1002.0
1003.0
998.0
994.0
1003.0
1012.0
1014.0
1006.0
994.0
980.0
976.0
978.0
974.0
970.0
960.0
952.0
946.0
948.0
956.0
958.0
952.0
946.0
949.0
951.0
958.0
956.0
947.0
941.0
943.0
947.0
952.0
952.0
950.0
948.0
951.0
956.0
961.0
960.0
956.0
954.0
953.0
948.0
943.0
940.0
946.0
953.0
962.0
964.0
955.0
953.0
953.0
954.0
954.0
954.0
955.0
959.0
963.0
972.0
982.0
978.0
967.0
962.0
964.0
961.0
960.0
954.0
945.0
945.0
939.0
928.0
917.0
911.0
903.0
887.0
870.0
855.0
851.0
855.0
860.0
865.0
872.0
883.0
895.0
909.0
913.0
918.0
921.0
930.0
944.0
952.0
956.0
954.0
958.0
961.0
965.0
966.0
962.0
956.0
955.0
960.0
960.0
960.0
953.0
956.0
960.0
962.0
966.0
971.0
974.0
979.0
978.0
971.0
967.0
965.0
960.0
962.0
966.0
972.0
975.0
972.0
971.0
968.0
968.0
968.0
963.0
963.0
966.0
970.0
974.0
970.0
971.0
974.0
974.0
970.0
967.0
968.0
969.0
967.0
967.0
968.0
973.0
978.0
979.0
979.0
973.0
969.0
971.0
973.0
983.0
986.0
989.0
983.0
983.0
987.0
985.0
989.0
984.0
986.0
989.0
990.0
991.0
989.0
986.0
986.0
983.0
985.0
986.0
988.0
990.0
989.0
986.0
982.0
980.0
979.0
985.0
990.0
994.0
988.0
978.0
976.0
975.0
979.0
982.0
979.0
976.0
979.0
981.0
980.0
979.0
975.0
974.0
973.0
969.0
969.0
982.0
986.0
982.0
979.0
977.0
976.0
975.0
971.0
969.0
973.0
973.0
970.0
970.0
977.0
981.0
977.0
975.0
972.0
970.0
969.0
971.0
971.0
968.0
965.0
970.0
974.0
982.0
976.0
968.0
961.0
959.0
959.0
967.0
972.0
969.0
967.0
964.0
966.0
968.0
968.0
965.0
957.0
958.0
962.0
967.0
965.0
961.0
965.0
966.0
960.0
957.0
951.0
958.0
961.0
961.0
955.0
959.0
969.0
975.0
971.0
963.0
958.0
957.0
959.0
960.0
968.0
969.0
965.0
962.0
964.0
967.0
961.0
960.0
958.0
961.0
967.0
973.0
971.0
971.0
969.0
965.0
959.0
960.0
967.0
973.0
972.0
971.0
970.0
968.0
969.0
972.0
969.0
967.0
967.0
968.0
970.0
970.0
977.0
984.0
984.0
979.0
972.0
969.0
970.0
974.0
978.0
974.0
968.0
966.0
964.0
966.0
972.0
977.0
977.0
978.0
974.0
974.0
980.0
983.0
981.0
983.0
985.0
984.0
980.0
975.0
973.0
974.0
973.0
975.0
978.0
981.0
980.0
981.0
979.0
978.0
982.0
985.0
982.0
977.0
970.0
967.0
972.0
977.0
980.0
980.0
982.0
986.0
983.0
982.0
985.0
991.0
989.0
989.0
992.0
991.0
989.0
985.0
983.0
982.0
984.0
981.0
981.0
983.0
986.0
988.0
993.0
995.0
991.0
986.0
988.0
994.0
998.0
998.0
999.0
1004.0
1010.0
1021.0
1025.0
1024.0
1023.0
1018.0
1016.0
1025.0
1033.0
1036.0
1030.0
1028.0
1026.0
1025.0
1019.0
1010.0
999.0
989.0
983.0
978.0
973.0
969.0
970.0
969.0
965.0
968.0
976.0
981.0
983.0
979.0
973.0
974.0
971.0
965.0
963.0
964.0
963.0
966.0
971.0
978.0
977.0
972.0
967.0
967.0
970.0
973.0
975.0
973.0
972.0
982.0
985.0
980.0
970.0
968.0
968.0
977.0
979.0
974.0
971.0
971.0
970.0
968.0
967.0
966.0
967.0
974.0
982.0
997.0
1012.0
