# Simple Text Format
# Sampling Rate (Hz):= 360.00
# Resolution:= 12
# Labels:= ECG
999.0
1003.0
1003.0
1000.0
1002.0
1000.0
1000.0
999.0
1000.0
1000.0
999.0
997.0
998.0
996.0
994.0
995.0
992.0
992.0
991.0
989.0
987.0
984.0
981.0
980.0
981.0
983.0
982.0
980.0
978.0
975.0
978.0
978.0
978.0
977.0
974.0
975.0
974.0
975.0
976.0
973.0
969.0
971.0
973.0
975.0
973.0
970.0
968.0
969.0
971.0
973.0
972.0
970.0
967.0
968.0
971.0
968.0
972.0
969.0
969.0
966.0
967.0
968.0
966.0
967.0
966.0
964.0
964.0
967.0
965.0
965.0
965.0
965.0
964.0
963.0
962.0
963.0
960.0
961.0
962.0
961.0
960.0
959.0
958.0
960.0
959.0
959.0
959.0
956.0
956.0
956.0
956.0
958.0
959.0
956.0
954.0
952.0
955.0
954.0
955.0
957.0
956.0
952.0
953.0
953.0
954.0
952.0
952.0
952.0
953.0
955.0
954.0
956.0
957.0
955.0
955.0
954.0
952.0
951.0
951.0
956.0
962.0
966.0
964.0
961.0
958.0
956.0
957.0
958.0
960.0
961.0
960.0
958.0
955.0
961.0
957.0
957.0
961.0
962.0
964.0
966.0
966.0
965.0
960.0
961.0
962.0
966.0
966.0
961.0
961.0
962.0
963.0
964.0
963.0
963.0
960.0
957.0
957.0
960.0
961.0
961.0
957.0
959.0
961.0
966.0
967.0
969.0
969.0
965.0
965.0
964.0
963.0
962.0
964.0
965.0
966.0
968.0
967.0
966.0
962.0
960.0
963.0
965.0
964.0
961.0
960.0
962.0
966.0
967.0
968.0
968.0
968.0
965.0
967.0
970.0
968.0
969.0
968.0
967.0
971.0
973.0
974.0
972.0
973.0
975.0
980.0
982.0
983.0
982.0
983.0
984.0
987.0
992.0
996.0
996.0
997.0
1001.0
1004.0
1010.0
1010.0
1008.0
1005.0
1009.0
1011.0
1014.0
1016.0
1016.0
1011.0
999.0
991.0
985.0
979.0
975.0
969.0
965.0
961.0
959.0
957.0
959.0
959.0
954.0
955.0
958.0
958.0
954.0
952.0
955.0
957.0
958.0
958.0
954.0
953.0
953.0
955.0
958.0
959.0
956.0
954.0
952.0
956.0
958.0
961.0
962.0
958.0
957.0
955.0
960.0
960.0
956.0
953.0
956.0
959.0
960.0
958.0
950.0
946.0
943.0
951.0
961.0
967.0
968.0
972.0
970.0
962.0
946.0
939.0
934.0
932.0
931.0
930.0
925.0
912.0
902.0
895.0
887.0
883.0
878.0
866.0
854.0
844.0
840.0
842.0
850.0
860.0
863.0
865.0
868.0
883.0
895.0
909.0
923.0
933.0
943.0
951.0
958.0
961.0
963.0
963.0
961.0
963.0
965.0
966.0
967.0
967.0
965.0
966.0
969.0
970.0
970.0
968.0
967.0
967.0
970.0
972.0
972.0
968.0
968.0
970.0
973.0
972.0
971.0
970.0
971.0
972.0
974.0
976.0
976.0
973.0
973.0
975.0
978.0
978.0
976.0
976.0
977.0
979.0
985.0
983.0
981.0
980.0
982.0
984.0
985.0
986.0
985.0
982.0
983.0
986.0
994.0
993.0
991.0
989.0
991.0
992.0
995.0
995.0
995.0
994.0
996.0
1000.0
998.0
1000.0
1000.0
999.0
1000.0
1001.0
1002.0
999.0
999.0
998.0
996.0
997.0
999.0
1000.0
998.0
997.0
995.0
997.0
998.0
993.0
994.0
992.0
990.0
988.0
992.0
991.0
988.0
985.0
984.0
985.0
987.0
985.0
983.0
982.0
983.0
984.0
982.0
980.0
977.0
976.0
977.0
978.0
978.0
979.0
977.0
973.0
971.0
972.0
973.0
975.0
975.0
973.0
970.0
973.0
974.0
976.0
975.0
975.0
974.0
974.0
977.0
977.0
978.0
974.0
972.0
973.0
971.0
976.0
976.0
973.0
971.0
970.0
972.0
971.0
969.0
969.0
970.0
972.0
974.0
972.0
967.0
965.0
968.0
968.0
967.0
966.0
964.0
966.0
964.0
967.0
965.0
964.0
964.0
963.0
960.0
961.0
964.0
965.0
963.0
962.0
960.0
961.0
961.0
964.0
968.0
966.0
964.0
963.0
962.0
960.0
962.0
960.0
960.0
964.0
965.0
963.0
963.0
962.0
962.0
964.0
966.0
964.0
962.0
964.0
964.0
967.0
965.0
969.0
971.0
971.0
968.0
968.0
969.0
968.0
969.0
969.0
971.0
971.0
974.0
972.0
972.0
969.0
971.0
974.0
973.0
974.0
972.0
968.0
971.0
975.0
974.0
975.0
975.0
972.0
972.0
971.0
973.0
970.0
971.0
970.0
972.0
972.0
974.0
973.0
973.0
976.0
978.0
980.0
978.0
976.0
973.0
974.0
973.0
979.0
981.0
979.0
977.0
976.0
976.0
977.0
977.0
974.0
972.0
975.0
977.0
980.0
983.0
981.0
982.0
985.0
984.0
989.0
990.0
990.0
994.0
996.0
1000.0
1006.0
1012.0
1016.0
1018.0
1017.0
1017.0
1021.0
1025.0
1023.0
1022.0
1025.0
1026.0
1029.0
1029.0
1022.0
1013.0
1006.0
997.0
992.0
989.0
978.0
971.0
968.0
970.0
977.0
980.0
976.0
970.0
968.0
969.0
976.0
978.0
981.0
977.0
972.0
967.0
970.0
978.0
978.0
976.0
973.0
974.0
975.0
974.0
974.0
976.0
977.0
973.0
972.0
973.0
971.0
973.0
977.0
979.0
979.0
977.0
969.0
966.0
968.0
974.0
979.0
986.0
992.0
993.0
980.0
960.0
954.0
953.0
951.0
948.0
940.0
930.0
919.0
914.0
906.0
895.0
885.0
873.0
867.0
868.0
870.0
875.0
880.0
883.0
890.0
902.0
919.0
932.0
935.0
944.0
955.0
968.0
976.0
981.0
980.0
981.0
984.0
987.0
987.0
989.0
984.0
984.0
988.0
993.0
995.0
996.0
994.0
992.0
994.0
998.0
996.0
996.0
993.0
994.0
996.0
998.0
996.0
994.0
993.0
992.0
996.0
1000.0
999.0
1001.0
998.0
995.0
997.0
1001.0
1001.0
1000.0
999.0
999.0
1001.0
1003.0
1003.0
1005.0
1005.0
1004.0
1006.0
1008.0
1008.0
1008.0
1005.0
1007.0
1009.0
1010.0
1011.0
1012.0
1014.0
1013.0
1016.0
1016.0
1016.0
1018.0
1019.0
1020.0
1020.0
1024.0
1021.0
1020.0
1019.0
1018.0
1021.0
1023.0
1024.0
1022.0
1018.0
1015.0
1015.0
1019.0
1019.0
1017.0
1014.0
1011.0
1013.0
1018.0
1018.0
1011.0
1004.0
1003.0
1005.0
1007.0
1005.0
1002.0
1000.0
999.0
996.0
996.0
996.0
995.0
993.0
991.0
994.0
996.0
995.0
993.0
991.0
990.0
992.0
993.0
992.0
988.0
987.0
987.0
990.0
992.0
990.0
989.0
989.0
986.0
986.0
987.0
987.0
984.0
986.0
984.0
987.0
989.0
988.0
988.0
986.0
981.0
984.0
987.0
985.0
982.0
980.0
983.0
986.0
986.0
981.0
977.0
978.0
981.0
984.0
983.0
979.0
980.0
982.0
977.0
980.0
982.0
982.0
981.0
977.0
980.0
977.0
977.0
976.0
973.0
974.0
975.0
975.0
977.0
972.0
971.0
972.0
974.0
975.0
977.0
974.0
973.0
970.0
971.0
972.0
974.0
975.0
975.0
974.0
974.0
976.0
976.0
974.0
976.0
973.0
972.0
974.0
979.0
979.0
978.0
975.0
975.0
977.0
976.0
977.0
975.0
974.0
974.0
974.0
979.0
979.0
978.0
975.0
973.0
975.0
975.0
978.0
978.0
976.0
975.0
977.0
977.0
980.0
979.0
977.0
973.0
973.0
977.0
973.0
972.0
974.0
975.0
981.0
984.0
980.0
983.0
982.0
982.0
985.0
984.0
981.0
981.0
979.0
981.0
982.0
984.0
985.0
982.0
985.0
987.0
990.0
991.0
991.0
992.0
994.0
996.0
999.0
1003.0
1010.0
1014.0
1016.0
1017.0
1017.0
1023.0
1024.0
1023.0
1025.0
1026.0
1029.0
1030.0
1031.0
1025.0
1017.0
1009.0
999.0
996.0
989.0
978.0
969.0
969.0
972.0
976.0
977.0
976.0
972.0
971.0
973.0
973.0
977.0
974.0
973.0
974.0
976.0
977.0
973.0
974.0
972.0
976.0
976.0
978.0
973.0
970.0
972.0
973.0
973.0
977.0
977.0
975.0
973.0
974.0
975.0
980.0
981.0
982.0
979.0
976.0
974.0
981.0
986.0
994.0
998.0
1002.0
1003.0
993.0
972.0
963.0
955.0
952.0
953.0
950.0
937.0
929.0
926.0
923.0
915.0
909.0
897.0
880.0
873.0
869.0
870.0
876.0
880.0
883.0
885.0
896.0
915.0
932.0
943.0
950.0
955.0
962.0
974.0
983.0
984.0
986.0
984.0
987.0
988.0
990.0
991.0
991.0
989.0
986.0
988.0
994.0
994.0
994.0
992.0
992.0
995.0
997.0
998.0
996.0
995.0
993.0
997.0
999.0
999.0
996.0
996.0
996.0
998.0
1004.0
1004.0
1003.0
1000.0
998.0
1001.0
1004.0
1006.0
1003.0
1006.0
1006.0
1008.0
1013.0
1012.0
1011.0
1012.0
1010.0
1010.0
1012.0
1016.0
1014.0
1013.0
1011.0
1014.0
1017.0
1017.0
1018.0
1018.0
1016.0
1022.0
1026.0
1025.0
1023.0
1022.0
1022.0
1024.0
1028.0
1028.0
1030.0
1023.0
1022.0
1025.0
1029.0
1029.0
1027.0
1025.0
1024.0
1024.0
1022.0
1019.0
1017.0
1017.0
1014.0
1014.0
1019.0
1017.0
1013.0
1011.0
1010.0
1009.0
1010.0
1009.0
1007.0
1005.0
1004.0
1003.0
1008.0
1005.0
1004.0
999.0
1000.0
1001.0
1004.0
1000.0
1001.0
1000.0
1002.0
1003.0
1004.0
1003.0
1002.0
1005.0
1003.0
1004.0
1006.0
1002.0
1003.0
1002.0
999.0
1002.0
1002.0
1003.0
1002.0
999.0
998.0
1001.0
1000.0
1003.0
1000.0
999.0
1001.0
1001.0
1002.0
999.0
999.0
996.0
997.0
996.0
999.0
999.0
998.0
997.0
994.0
997.0
995.0
996.0
997.0
996.0
994.0
996.0
994.0
994.0
992.0
988.0
987.0
992.0
993.0
991.0
992.0
991.0
988.0
987.0
989.0
989.0
989.0
987.0
988.0
990.0
991.0
985.0
985.0
984.0
986.0
992.0
993.0
991.0
992.0
990.0
991.0
993.0
992.0
991.0
992.0
990.0
990.0
993.0
992.0
993.0
990.0
990.0
990.0
994.0
993.0
995.0
991.0
991.0
991.0
994.0
995.0
994.0
992.0
990.0
990.0
993.0
995.0
994.0
994.0
992.0
993.0
995.0
997.0
995.0
992.0
990.0
993.0
995.0
998.0
995.0
993.0
989.0
991.0
997.0
998.0
995.0
994.0
992.0
991.0
991.0
998.0
996.0
998.0
996.0
996.0
995.0
995.0
997.0
998.0
998.0
997.0
999.0
1001.0
998.0
999.0
1001.0
1004.0
1007.0
1008.0
1009.0
1010.0
1008.0
1010.0
1012.0
1015.0
1019.0
1025.0
1025.0
1025.0
1027.0
1036.0
1038.0
1035.0
1031.0
1034.0
1038.0
1041.0
1041.0
1042.0
1039.0
1034.0
1029.0
1024.0
1016.0
1007.0
999.0
991.0
988.0
986.0
985.0
983.0
981.0
983.0
986.0
990.0
989.0
984.0
982.0
984.0
986.0
990.0
986.0
982.0
981.0
981.0
984.0
990.0
992.0
988.0
984.0
982.0
985.0
988.0
985.0
985.0
983.0
981.0
984.0
988.0
986.0
983.0
982.0
982.0
985.0
988.0
989.0
985.0
976.0
972.0
973.0
981.0
989.0
994.0
995.0
994.0
991.0
979.0
963.0
956.0
951.0
947.0
948.0
947.0
938.0
925.0
915.0
906.0
902.0
901.0
893.0
879.0
872.0
866.0
867.0
871.0
877.0
884.0
888.0
889.0
897.0
913.0
927.0
939.0
944.0
952.0
964.0
975.0
983.0
989.0
991.0
991.0
995.0
997.0
1000.0
998.0
997.0
996.0
997.0
1001.0
1002.0
1002.0
1001.0
1002.0
1005.0
1005.0
1006.0
1003.0
1002.0
1000.0
1003.0
1006.0
1007.0
1005.0
1004.0
1003.0
1005.0
1007.0
1005.0
1003.0
1001.0
1005.0
1008.0
1010.0
1013.0
1006.0
1007.0
1009.0
1013.0
1015.0
1012.0
1010.0
1009.0
1010.0
1010.0
1014.0
1015.0
1016.0
1013.0
1015.0
1018.0
1021.0
1019.0
1020.0
1019.0
1022.0
1025.0
1026.0
1027.0
1023.0
1023.0
1023.0
1027.0
1028.0
1030.0
1030.0
1030.0
1029.0
1031.0
1035.0
1032.0
1033.0
1030.0
1030.0
1030.0
1031.0
1030.0
1029.0
1028.0
1030.0
1032.0
1034.0
1031.0
1027.0
1026.0
1026.0
1025.0
1027.0
1024.0
1024.0
1020.0
1017.0
1015.0
1015.0
1015.0
1013.0
1013.0
1010.0
1012.0
1012.0
1011.0
1008.0
1004.0
1006.0
1008.0
1010.0
1010.0
1006.0
1000.0
1000.0
1001.0
1006.0
1005.0
1005.0
1002.0
1003.0
1004.0
1008.0
1006.0
1005.0
1002.0
1001.0
1001.0
1004.0
1001.0
1000.0
999.0
1001.0
1001.0
1004.0
1001.0
1000.0
997.0
997.0
1000.0
1003.0
1001.0
998.0
998.0
998.0
999.0
999.0
998.0
996.0
995.0
994.0
994.0
995.0
995.0
992.0
989.0
990.0
995.0
997.0
995.0
990.0
987.0
985.0
985.0
990.0
989.0
987.0
985.0
981.0
983.0
987.0
986.0
985.0
978.0
977.0
978.0
983.0
989.0
987.0
983.0
984.0
985.0
986.0
987.0
984.0
982.0
981.0
985.0
988.0
988.0
985.0
984.0
982.0
984.0
986.0
987.0
986.0
982.0
983.0
985.0
986.0
985.0
985.0
983.0
984.0
986.0
989.0
988.0
985.0
985.0
985.0
986.0
992.0
991.0
991.0
989.0
986.0
986.0
989.0
984.0
985.0
986.0
987.0
988.0
988.0
990.0
988.0
987.0
986.0
988.0
988.0
992.0
992.0
990.0
988.0
989.0
991.0
990.0
989.0
985.0
986.0
991.0
993.0
993.0
991.0
987.0
985.0
989.0
989.0
989.0
986.0
983.0
985.0
990.0
992.0
993.0
992.0
990.0
990.0
992.0
992.0
991.0
989.0
990.0
990.0
992.0
993.0
995.0
992.0
988.0
987.0
990.0
992.0
992.0
992.0
988.0
987.0
993.0
994.0
996.0
995.0
991.0
993.0
998.0
1000.0
1003.0
1006.0
1004.0
1006.0
1011.0
1013.0
1019.0
1021.0
1019.0
1023.0
1028.0
1034.0
1033.0
1031.0
1027.0
1029.0
1034.0
1038.0
1040.0
1038.0
1033.0
1025.0
1022.0
1016.0
1011.0
1002.0
995.0
987.0
983.0
983.0
980.0
981.0
978.0
978.0
980.0
984.0
983.0
982.0
981.0
982.0
982.0
983.0
981.0
980.0
978.0
976.0
977.0
984.0
984.0
982.0
979.0
977.0
979.0
983.0
982.0
981.0
980.0
977.0
981.0
981.0
978.0
978.0
975.0
980.0
983.0
986.0
985.0
983.0
979.0
979.0
979.0
977.0
971.0
969.0
975.0
983.0
993.0
998.0
1000.0
998.0
997.0
982.0
967.0
960.0
961.0
959.0
955.0
951.0
945.0
935.0
928.0
924.0
918.0
912.0
906.0
899.0
884.0
876.0
866.0
861.0
862.0
873.0
879.0
883.0
885.0
894.0
913.0
928.0
938.0
943.0
951.0
956.0
969.0
977.0
983.0
985.0
984.0
984.0
987.0
992.0
991.0
989.0
986.0
987.0
989.0
990.0
993.0
992.0
991.0
994.0
993.0
994.0
995.0
993.0
993.0
995.0
995.0
995.0
995.0
996.0
993.0
992.0
992.0
995.0
998.0
1000.0
998.0
1000.0
1000.0
1003.0
1000.0
999.0
1000.0
1000.0
1004.0
1007.0
1009.0
1007.0
1003.0
1003.0
1006.0
1007.0
1009.0
1009.0
1008.0
1010.0
1014.0
1016.0
1017.0
1015.0
1013.0
1014.0
1014.0
1018.0
1019.0
1020.0
1019.0
1021.0
1019.0
1021.0
1022.0
1023.0
1022.0
1023.0
1024.0
1023.0
1023.0
1026.0
1022.0
1025.0
1025.0
1025.0
1027.0
1023.0
1020.0
1020.0
1021.0
1023.0
1021.0
1018.0
1013.0
1013.0
1014.0
1014.0
1014.0
1011.0
1011.0
1006.0
1005.0
1003.0
1003.0
1005.0
1002.0
1003.0
1002.0
1002.0
997.0
994.0
993.0
997.0
999.0
1004.0
998.0
995.0
993.0
991.0
994.0
994.0
993.0
989.0
990.0
991.0
994.0
996.0
993.0
994.0
990.0
987.0
989.0
990.0
989.0
986.0
987.0
987.0
989.0
990.0
991.0
988.0
984.0
987.0
987.0
986.0
988.0
986.0
986.0
984.0
984.0
985.0
984.0
982.0
980.0
980.0
982.0
984.0
983.0
978.0
975.0
977.0
979.0
982.0
982.0
979.0
975.0
976.0
978.0
977.0
976.0
974.0
974.0
973.0
975.0
978.0
977.0
973.0
973.0
972.0
976.0
976.0
975.0
976.0
974.0
972.0
974.0
977.0
979.0
978.0
975.0
975.0
975.0
977.0
978.0
980.0
979.0
979.0
977.0
979.0
979.0
980.0
980.0
980.0
983.0
985.0
983.0
982.0
980.0
982.0
986.0
986.0
982.0
985.0
985.0
989.0
989.0
989.0
989.0
986.0
983.0
982.0
983.0
987.0
984.0
985.0
982.0
983.0
985.0
986.0
988.0
986.0
985.0
990.0
990.0
988.0
985.0
984.0
986.0
988.0
986.0
988.0
987.0
989.0
986.0
986.0
985.0
990.0
991.0
987.0
982.0
983.0
986.0
992.0
995.0
993.0
992.0
988.0
990.0
992.0
990.0
989.0
987.0
987.0
987.0
989.0
992.0
991.0
987.0
985.0
984.0
987.0
988.0
993.0
990.0
989.0
989.0
990.0
990.0
987.0
985.0
988.0
989.0
991.0
990.0
986.0
986.0
992.0
994.0
996.0
992.0
988.0
987.0
992.0
995.0
999.0
994.0
994.0
991.0
994.0
995.0
995.0
993.0
993.0
989.0
994.0
995.0
997.0
1000.0
999.0
996.0
995.0
994.0
996.0
997.0
996.0
993.0
993.0
996.0
999.0
999.0
997.0
993.0
995.0
1000.0
996.0
996.0
996.0
998.0
1001.0
1003.0
1006.0
1007.0
1008.0
1007.0
1007.0
1012.0
1019.0
1023.0
1026.0
1028.0
1028.0
1032.0
1037.0
1041.0
1042.0
1039.0
1040.0
1048.0
1049.0
1051.0
1046.0
1039.0
1027.0
1018.0
1015.0
1011.0
1005.0
993.0
988.0
989.0
987.0
992.0
988.0
986.0
989.0
991.0
990.0
989.0
988.0
986.0
984.0
989.0
993.0
993.0
988.0
982.0
979.0
982.0
987.0
992.0
994.0
988.0
987.0
990.0
988.0
985.0
984.0
986.0
993.0
995.0
995.0
993.0
989.0
988.0
990.0
995.0
997.0
994.0
990.0
989.0
995.0
1006.0
1013.0
1013.0
1014.0
1013.0
1003.0
984.0
971.0
963.0
960.0
957.0
959.0
949.0
937.0
927.0
922.0
912.0
910.0
905.0
900.0
889.0
881.0
874.0
875.0
885.0
897.0
901.0
902.0
909.0
923.0
941.0
951.0
958.0
965.0
971.0
979.0
988.0
997.0
1000.0
1001.0
1000.0
1002.0
1006.0
1007.0
1008.0
1005.0
1004.0
1005.0
1004.0
1005.0
1006.0
1004.0
1003.0
1007.0
1009.0
1011.0
1010.0
1011.0
1010.0
1008.0
1007.0
1009.0
1011.0
1008.0
1006.0
1003.0
1006.0
1010.0
1012.0
1013.0
1011.0
1011.0
1013.0
1015.0
1014.0
1014.0
1009.0
1008.0
1009.0
1012.0
1016.0
1017.0
1016.0
1016.0
1017.0
1021.0
1021.0
1024.0
1021.0
1020.0
1020.0
1023.0
1022.0
1023.0
1021.0
1023.0
1026.0
1028.0
1025.0
1025.0
1025.0
1026.0
1028.0
1030.0
1031.0
1028.0
1026.0
1027.0
1029.0
1030.0
1029.0
1029.0
1028.0
1029.0
1032.0
1032.0
1029.0
1027.0
1027.0
1029.0
1030.0
1027.0
1025.0
1023.0
1021.0
1022.0
1026.0
1028.0
1023.0
1019.0
1016.0
1016.0
1019.0
1022.0
1021.0
1017.0
1014.0
1012.0
1014.0
1015.0
1013.0
1007.0
1005.0
1006.0
1011.0
1012.0
1012.0
1010.0
1006.0
1007.0
1008.0
1011.0
1011.0
1008.0
1005.0
1005.0
1007.0
1009.0
1008.0
1003.0
1003.0
1006.0
1006.0
1005.0
1006.0
1007.0
1002.0
1003.0
1004.0
1007.0
1005.0
1006.0
1002.0
1004.0
1006.0
1009.0
1006.0
1005.0
1003.0
1004.0
1006.0
1007.0
1003.0
1001.0
999.0
1000.0
999.0
1001.0
999.0
999.0
1000.0
1001.0
1002.0
1003.0
999.0
999.0
996.0
993.0
995.0
997.0
998.0
996.0
992.0
992.0
994.0
995.0
993.0
992.0
990.0
991.0
991.0
991.0
991.0
990.0
987.0
985.0
988.0
994.0
991.0
988.0
987.0
988.0
992.0
993.0
992.0
986.0
985.0
984.0
990.0
992.0
992.0
990.0
989.0
993.0
997.0
996.0
997.0
994.0
991.0
993.0
997.0
998.0
996.0
993.0
990.0
990.0
992.0
994.0
994.0
993.0
992.0
992.0
994.0
995.0
995.0
994.0
991.0
991.0
992.0
996.0
995.0
993.0
992.0
991.0
994.0
998.0
998.0
994.0
994.0
993.0
995.0
999.0
995.0
993.0
991.0
996.0
1003.0
1003.0
1000.0
998.0
994.0
995.0
997.0
998.0
995.0
990.0
986.0
989.0
998.0
1004.0
1007.0
1003.0
1000.0
999.0
1000.0
1000.0
998.0
1000.0
997.0
997.0
998.0
998.0
1002.0
1000.0
999.0
996.0
998.0
1001.0
1001.0
999.0
997.0
999.0
999.0
1001.0
1001.0
1000.0
996.0
994.0
997.0
999.0
1000.0
999.0
997.0
1000.0
1002.0
1002.0
1002.0
1000.0
999.0
997.0
998.0
1000.0
998.0
999.0
997.0
997.0
1001.0
1001.0
999.0
1001.0
999.0
999.0
1002.0
1004.0
1004.0
1001.0
998.0
997.0
999.0
999.0
1003.0
1003.0
1000.0
1000.0
1004.0
1002.0
1001.0
998.0
992.0
999.0
1001.0
1003.0
1002.0
998.0
998.0
1001.0
1001.0
1002.0
1005.0
1006.0
1008.0
1008.0
1008.0
1013.0
1015.0
1017.0
1016.0
1023.0
1028.0
1032.0
1035.0
1035.0
1037.0
1038.0
1040.0
1041.0
1043.0
1044.0
1044.0
1046.0
1046.0
1044.0
1037.0
1026.0
1017.0
1015.0
1011.0
1005.0
995.0
992.0
989.0
991.0
991.0
993.0
995.0
991.0
988.0
989.0
993.0
995.0
995.0
996.0
995.0
994.0
996.0
997.0
998.0
996.0
993.0
995.0
994.0
998.0
995.0
997.0
994.0
994.0
995.0
997.0
996.0
996.0
992.0
996.0
1000.0
1000.0
998.0
998.0
993.0
992.0
993.0
990.0
985.0
984.0
989.0
995.0
1004.0
1004.0
1007.0
1006.0
994.0
973.0
963.0
963.0
962.0
959.0
957.0
945.0
936.0
932.0
931.0
925.0
918.0
913.0
909.0
900.0
890.0
886.0
882.0
881.0
889.0
901.0
908.0
908.0
914.0
932.0
946.0
958.0
966.0
971.0
977.0
989.0
996.0
1001.0
1006.0
1005.0
1003.0
1004.0
1003.0
1007.0
1009.0
1013.0
1010.0
1010.0
1008.0
1011.0
1012.0
1015.0
1009.0
1009.0
1011.0
1014.0
1014.0
1011.0
1009.0
1009.0
1014.0
1016.0
1016.0
1014.0
1012.0
1009.0
1015.0
1017.0
1014.0
1014.0
1013.0
1014.0
1015.0
1018.0
1017.0
1018.0
1018.0
1016.0
1018.0
1018.0
1019.0
1020.0
1019.0
1021.0
1021.0
1024.0
1027.0
1025.0
1022.0
1021.0
1027.0
1030.0
1029.0
1029.0
1028.0
1032.0
1033.0
1034.0
1032.0
1030.0
1027.0
1029.0
1033.0
1040.0
1040.0
1038.0
1034.0
1035.0
1039.0
1041.0
1041.0
1038.0
1035.0
1038.0
1036.0
1038.0
1038.0
1035.0
1032.0
1033.0
1035.0
1037.0
1035.0
1032.0
1028.0
1027.0
1028.0
1028.0
1025.0
1021.0
1017.0
1020.0
1021.0
1017.0
1014.0
1014.0
1013.0
1014.0
1014.0
1016.0
1015.0
1015.0
1010.0
1009.0
1012.0
1014.0
1015.0
1015.0
1010.0
1011.0
1012.0
1012.0
1008.0
1008.0
1005.0
1006.0
1007.0
1009.0
1009.0
1005.0
999.0
1001.0
1006.0
1005.0
1003.0
1003.0
1003.0
1006.0
1008.0
1008.0
1003.0
1000.0
999.0
999.0
999.0
1000.0
1000.0
998.0
993.0
994.0
995.0
997.0
996.0
995.0
991.0
992.0
994.0
992.0
989.0
987.0
987.0
989.0
992.0
991.0
990.0
990.0
988.0
988.0
990.0
989.0
990.0
988.0
983.0
985.0
986.0
989.0
988.0
987.0
987.0
987.0
989.0
987.0
986.0
984.0
984.0
987.0
989.0
989.0
989.0
988.0
987.0
986.0
989.0
990.0
989.0
989.0
987.0
989.0
990.0
992.0
992.0
990.0
991.0
990.0
990.0
992.0
992.0
988.0
987.0
987.0
989.0
994.0
993.0
992.0
988.0
985.0
986.0
989.0
989.0
990.0
988.0
987.0
989.0
990.0
992.0
992.0
992.0
990.0
988.0
989.0
991.0
991.0
987.0
988.0
990.0
990.0
990.0
989.0
986.0
987.0
986.0
989.0
992.0
990.0
991.0
989.0
991.0
991.0
994.0
992.0
987.0
986.0
985.0
989.0
989.0
992.0
991.0
990.0
991.0
993.0
993.0
989.0
992.0
994.0
992.0
993.0
991.0
992.0
988.0
988.0
992.0
995.0
993.0
991.0
989.0
991.0
994.0
995.0
991.0
989.0
985.0
992.0
993.0
992.0
993.0
992.0
988.0
986.0
988.0
992.0
993.0
990.0
984.0
983.0
985.0
987.0
985.0
987.0
991.0
995.0
993.0
994.0
989.0
987.0
988.0
984.0
985.0
984.0
981.0
985.0
986.0
991.0
995.0
997.0
994.0
989.0
988.0
988.0
990.0
989.0
983.0
987.0
990.0
992.0
993.0
993.0
994.0
990.0
989.0
989.0
989.0
990.0
986.0
985.0
988.0
988.0
990.0
990.0
990.0
991.0
990.0
994.0
997.0
997.0
1000.0
1001.0
996.0
1000.0
1006.0
1013.0
1018.0
1017.0
1017.0
1022.0
1026.0
1025.0
1030.0
1028.0
1028.0
1031.0
1032.0
1036.0
1032.0
1026.0
1016.0
1005.0
1003.0
998.0
990.0
980.0
972.0
973.0
976.0
977.0
978.0
978.0
975.0
976.0
978.0
983.0
981.0
978.0
977.0
976.0
979.0
980.0
979.0
975.0
974.0
974.0
980.0
980.0
979.0
977.0
978.0
978.0
978.0
980.0
981.0
980.0
978.0
981.0
980.0
976.0
973.0
972.0
974.0
979.0
985.0
993.0
997.0
998.0
995.0
982.0
961.0
946.0
941.0
940.0
937.0
924.0
917.0
912.0
907.0
899.0
887.0
880.0
873.0
869.0
866.0
869.0
877.0
884.0
887.0
896.0
911.0
924.0
935.0
944.0
956.0
966.0
973.0
979.0
982.0
985.0
986.0
991.0
988.0
987.0
988.0
990.0
991.0
993.0
995.0
991.0
993.0
987.0
989.0
995.0
992.0
993.0
990.0
990.0
992.0
994.0
992.0
993.0
992.0
991.0
991.0
996.0
998.0
995.0
993.0
996.0
996.0
1000.0
999.0
996.0
996.0
996.0
996.0
1000.0
1001.0
1000.0
998.0
999.0
1002.0
1007.0
1007.0
1007.0
1002.0
1003.0
1007.0
1011.0
1011.0
1009.0
1005.0
1005.0
1005.0
1007.0
1009.0
1015.0
1017.0
1018.0
1015.0
1019.0
1020.0
1019.0
1017.0
1019.0
1021.0
1021.0
1020.0
1015.0
1016.0
1019.0
1020.0
1020.0
1016.0
1015.0
1014.0
1014.0
1016.0
1016.0
1015.0
1010.0
1006.0
1008.0
1008.0
1016.0
1013.0
1008.0
1003.0
1003.0
1007.0
1009.0
1008.0
1005.0
1001.0
1001.0
999.0
1002.0
1004.0
1005.0
1000.0
998.0
999.0
1002.0
1002.0
1002.0
1001.0
1002.0
1004.0
1004.0
1000.0
1000.0
998.0
999.0
1004.0
1003.0
1002.0
1000.0
997.0
999.0
1000.0
1005.0
1003.0
1000.0
996.0
998.0
1000.0
998.0
1001.0
998.0
997.0
995.0
996.0
999.0
1000.0
1001.0
998.0
996.0
996.0
999.0
996.0
993.0
992.0
992.0
994.0
996.0
996.0
995.0
993.0
989.0
990.0
990.0
987.0
987.0
989.0
991.0
990.0
991.0
987.0
986.0
987.0
989.0
991.0
993.0
991.0
988.0
985.0
986.0
987.0
989.0
991.0
989.0
991.0
993.0
994.0
994.0
996.0
993.0
994.0
995.0
1000.0
1000.0
996.0
995.0
992.0
991.0
994.0
996.0
998.0
997.0
996.0
995.0
999.0
1000.0
1003.0
998.0
997.0
996.0
1000.0
997.0
1002.0
998.0
998.0
999.0
997.0
1000.0
1001.0
999.0
1001.0
999.0
997.0
997.0
1000.0
1000.0
1001.0
1001.0
1002.0
1003.0
1000.0
1001.0
1001.0
1002.0
1002.0
1006.0
1006.0
1007.0
1004.0
1003.0
1004.0
1006.0
1005.0
1002.0
1001.0
1002.0
1004.0
1005.0
1007.0
1002.0
1003.0
1004.0
1006.0
1007.0
1004.0
1003.0
1003.0
1000.0
1003.0
1006.0
1006.0
1006.0
1003.0
1002.0
999.0
1003.0
1005.0
1002.0
997.0
999.0
1005.0
1010.0
1008.0
1002.0
999.0
1004.0
1009.0
1009.0
1008.0
1006.0
1005.0
1004.0
1004.0
1004.0
1003.0
1003.0
999.0
1002.0
1004.0
1006.0
1008.0
1007.0
1004.0
1003.0
1008.0
1011.0
1010.0
1007.0
1001.0
999.0
1002.0
1007.0
1006.0
1004.0
1001.0
1000.0
1005.0
1007.0
1010.0
1007.0
1006.0
1007.0
1007.0
1011.0
1012.0
1011.0
1016.0
1020.0
1021.0
1025.0
1027.0
1030.0
1030.0
1032.0
1036.0
1042.0
1044.0
1040.0
1038.0
1041.0
1047.0
1051.0
1051.0
1046.0
1039.0
1029.0
1022.0
1016.0
1010.0
1002.0
994.0
990.0
992.0
994.0
994.0
993.0
989.0
988.0
992.0
994.0
996.0
994.0
991.0
990.0
992.0
993.0
993.0
996.0
996.0
995.0
995.0
994.0
993.0
991.0
991.0
990.0
991.0
993.0
991.0
987.0
985.0
989.0
992.0
996.0
991.0
988.0
981.0
974.0
976.0
982.0
990.0
996.0
994.0
999.0
1004.0
1001.0
980.0
960.0
951.0
953.0
956.0
951.0
945.0
936.0
926.0
922.0
915.0
907.0
895.0
884.0
875.0
875.0
874.0
875.0
876.0
884.0
883.0
885.0
896.0
915.0
932.0
942.0
950.0
958.0
967.0
977.0
983.0
987.0
987.0
989.0
993.0
996.0
994.0
996.0
993.0
992.0
993.0
993.0
992.0
991.0
994.0
994.0
992.0
992.0
993.0
998.0
1001.0
999.0
999.0
999.0
999.0
998.0
992.0
989.0
992.0
996.0
1002.0
1001.0
997.0
997.0
997.0
1000.0
1000.0
997.0
997.0
995.0
999.0
1003.0
1005.0
1003.0
1003.0
1002.0
1006.0
1006.0
1006.0
1007.0
1004.0
1006.0
1007.0
1011.0
1016.0
1013.0
1006.0
1009.0
1011.0
1011.0
1013.0
1012.0
1010.0
1012.0
1015.0
1018.0
1019.0
1018.0
1017.0
1015.0
1014.0
1019.0
1021.0
1022.0
1019.0
1020.0
1016.0
1017.0
1019.0
1020.0
1019.0
1021.0
1020.0
1019.0
1018.0
1016.0
1015.0
1013.0
1014.0
1012.0
1009.0
1008.0
1005.0
1009.0
1011.0
1011.0
1007.0
1003.0
999.0
999.0
999.0
1001.0
996.0
994.0
993.0
994.0
998.0
998.0
997.0
993.0
990.0
987.0
988.0
992.0
990.0
989.0
989.0
992.0
993.0
995.0
993.0
990.0
988.0
988.0
