# Simple Text Format
# Sampling Rate (Hz):= 360.00
# Resolution:= 12
# Labels:= ECG
972.0
960.0
958.0
960.0
958.0
957.0
946.0
943.0
950.0
959.0
960.0
960.0
956.0
952.0
950.0
954.0
956.0
956.0
957.0
953.0
955.0
953.0
951.0
948.0
948.0
950.0
952.0
957.0
959.0
959.0
961.0
959.0
959.0
958.0
964.0
968.0
964.0
957.0
957.0
966.0
969.0
967.0
961.0
961.0
972.0
982.0
989.0
986.0
981.0
973.0
972.0
977.0
983.0
989.0
994.0
997.0
997.0
990.0
984.0
985.0
988.0
993.0
999.0
1004.0
1002.0
998.0
996.0
996.0
995.0
990.0
985.0
987.0
994.0
1007.0
1007.0
999.0
992.0
990.0
993.0
1000.0
1005.0
1006.0
998.0
996.0
991.0
994.0
994.0
993.0
993.0
994.0
995.0
994.0
995.0
994.0
991.0
989.0
989.0
994.0
995.0
997.0
990.0
980.0
972.0
975.0
981.0
985.0
986.0
988.0
991.0
989.0
988.0
983.0
979.0
978.0
975.0
973.0
976.0
979.0
982.0
984.0
982.0
980.0
983.0
989.0
986.0
984.0
977.0
978.0
982.0
984.0
982.0
981.0
976.0
971.0
970.0
976.0
985.0
985.0
978.0
971.0
973.0
978.0
985.0
994.0
997.0
993.0
982.0
975.0
979.0
986.0
993.0
995.0
992.0
993.0
992.0
993.0
996.0
998.0
999.0
996.0
994.0
991.0
990.0
989.0
994.0
994.0
997.0
1001.0
995.0
992.0
991.0
995.0
1000.0
1003.0
1001.0
996.0
995.0
998.0
998.0
997.0
991.0
990.0
993.0
997.0
993.0
997.0
1001.0
1006.0
1008.0
1002.0
996.0
992.0
994.0
1001.0
998.0
997.0
998.0
1000.0
997.0
991.0
991.0
988.0
993.0
999.0
1001.0
998.0
997.0
995.0
999.0
1000.0
1001.0
1000.0
997.0
996.0
994.0
995.0
996.0
1000.0
1002.0
1003.0
1001.0
997.0
992.0
990.0
991.0
996.0
999.0
1000.0
997.0
993.0
994.0
999.0
1003.0
998.0
990.0
986.0
991.0
1000.0
1000.0
994.0
990.0
990.0
999.0
1008.0
1008.0
999.0
990.0
983.0
986.0
991.0
997.0
998.0
994.0
998.0
1007.0
1008.0
999.0
992.0
997.0
1004.0
1007.0
1001.0
998.0
1002.0
1009.0
1016.0
1016.0
1017.0
1014.0
1011.0
1014.0
1022.0
1023.0
1025.0
1027.0
1029.0
1033.0
1029.0
1026.0
1028.0
1037.0
1047.0
1047.0
1047.0
1046.0
1040.0
1032.0
1021.0
1008.0
998.0
996.0
998.0
998.0
992.0
987.0
982.0
977.0
974.0
976.0
985.0
987.0
982.0
970.0
965.0
972.0
982.0
986.0
983.0
983.0
983.0
990.0
991.0
988.0
980.0
976.0
978.0
980.0
983.0
980.0
974.0
979.0
985.0
986.0
979.0
974.0
973.0
981.0
984.0
976.0
967.0
962.0
974.0
989.0
1003.0
1019.0
1038.0
1070.0
1100.0
1113.0
1104.0
1097.0
1098.0
1103.0
1103.0
1101.0
1101.0
1110.0
1115.0
1122.0
1126.0
1125.0
1121.0
1105.0
1077.0
1037.0
1002.0
981.0
961.0
925.0
880.0
852.0
847.0
866.0
888.0
902.0
905.0
901.0
906.0
912.0
919.0
929.0
936.0
939.0
939.0
943.0
947.0
946.0
942.0
938.0
937.0
942.0
944.0
943.0
933.0
926.0
923.0
930.0
941.0
952.0
952.0
938.0
928.0
923.0
925.0
931.0
936.0
935.0
931.0
921.0
916.0
920.0
927.0
935.0
931.0
927.0
922.0
930.0
937.0
938.0
933.0
928.0
923.0
930.0
935.0
934.0
928.0
931.0
937.0
938.0
939.0
933.0
927.0
926.0
927.0
930.0
931.0
933.0
937.0
942.0
944.0
942.0
941.0
941.0
945.0
942.0
934.0
932.0
933.0
938.0
943.0
946.0
954.0
956.0
953.0
949.0
947.0
949.0
952.0
954.0
950.0
946.0
943.0
949.0
954.0
960.0
959.0
955.0
948.0
943.0
945.0
950.0
954.0
956.0
956.0
958.0
960.0
960.0
961.0
962.0
961.0
960.0
959.0
959.0
957.0
953.0
955.0
961.0
964.0
965.0
964.0
956.0
949.0
948.0
948.0
952.0
957.0
957.0
952.0
949.0
942.0
937.0
944.0
953.0
956.0
959.0
958.0
958.0
949.0
945.0
942.0
952.0
956.0
953.0
945.0
942.0
946.0
950.0
952.0
949.0
942.0
943.0
946.0
946.0
944.0
940.0
935.0
933.0
933.0
939.0
948.0
947.0
933.0
929.0
934.0
942.0
944.0
939.0
934.0
932.0
927.0
925.0
928.0
935.0
934.0
927.0
924.0
925.0
925.0
924.0
924.0
924.0
925.0
933.0
934.0
929.0
924.0
921.0
918.0
922.0
928.0
936.0
943.0
937.0
927.0
923.0
928.0
930.0
933.0
940.0
942.0
943.0
938.0
936.0
939.0
935.0
923.0
919.0
928.0
941.0
944.0
942.0
938.0
937.0
941.0
942.0
942.0
942.0
945.0
949.0
947.0
943.0
942.0
942.0
939.0
936.0
938.0
938.0
936.0
938.0
938.0
941.0
947.0
955.0
955.0
955.0
945.0
942.0
939.0
941.0
943.0
954.0
957.0
959.0
959.0
959.0
962.0
955.0
950.0
953.0
956.0
955.0
951.0
951.0
954.0
958.0
963.0
962.0
958.0
951.0
943.0
942.0
941.0
939.0
940.0
944.0
955.0
971.0
978.0
969.0
960.0
957.0
960.0
967.0
965.0
955.0
947.0
945.0
949.0
956.0
959.0
953.0
950.0
947.0
946.0
948.0
954.0
961.0
968.0
967.0
960.0
959.0
957.0
955.0
950.0
948.0
949.0
957.0
964.0
963.0
953.0
947.0
948.0
955.0
958.0
960.0
960.0
960.0
956.0
958.0
956.0
953.0
946.0
944.0
952.0
965.0
977.0
983.0
978.0
965.0
955.0
954.0
962.0
973.0
980.0
986.0
991.0
996.0
997.0
996.0
992.0
991.0
988.0
985.0
992.0
998.0
1001.0
999.0
1000.0
1009.0
1020.0
1013.0
1001.0
983.0
972.0
967.0
964.0
960.0
948.0
940.0
936.0
939.0
935.0
933.0
939.0
947.0
957.0
954.0
947.0
941.0
938.0
938.0
932.0
932.0
937.0
941.0
947.0
950.0
946.0
947.0
952.0
950.0
950.0
949.0
947.0
945.0
944.0
944.0
943.0
943.0
951.0
953.0
951.0
949.0
940.0
930.0
933.0
941.0
947.0
938.0
931.0
929.0
950.0
983.0
1003.0
1019.0
1037.0
1059.0
1066.0
1056.0
1040.0
1038.0
1048.0
1061.0
1072.0
1081.0
1086.0
1079.0
1072.0
1071.0
1075.0
1074.0
1064.0
1039.0
1008.0
976.0
956.0
937.0
907.0
871.0
838.0
817.0
813.0
822.0
838.0
855.0
865.0
869.0
874.0
883.0
891.0
896.0
900.0
900.0
902.0
911.0
917.0
920.0
911.0
902.0
900.0
911.0
919.0
915.0
906.0
898.0
900.0
910.0
912.0
906.0
898.0
897.0
903.0
910.0
914.0
911.0
908.0
906.0
905.0
903.0
899.0
899.0
898.0
894.0
892.0
894.0
903.0
905.0
902.0
898.0
892.0
884.0
879.0
887.0
903.0
917.0
922.0
917.0
909.0
902.0
898.0
898.0
900.0
903.0
908.0
906.0
894.0
886.0
886.0
895.0
902.0
907.0
905.0
907.0
902.0
904.0
900.0
897.0
893.0
895.0
898.0
897.0
891.0
887.0
891.0
903.0
916.0
923.0
926.0
924.0
919.0
911.0
905.0
900.0
900.0
903.0
906.0
907.0
909.0
916.0
924.0
924.0
921.0
914.0
905.0
907.0
917.0
922.0
918.0
910.0
904.0
905.0
913.0
924.0
931.0
925.0
915.0
913.0
914.0
911.0
903.0
901.0
909.0
922.0
925.0
921.0
917.0
911.0
902.0
898.0
900.0
906.0
907.0
901.0
897.0
898.0
902.0
906.0
905.0
897.0
888.0
882.0
879.0
883.0
891.0
899.0
896.0
893.0
893.0
892.0
891.0
886.0
887.0
892.0
891.0
887.0
884.0
880.0
878.0
881.0
880.0
874.0
872.0
869.0
866.0
871.0
869.0
865.0
862.0
863.0
870.0
874.0
874.0
870.0
870.0
868.0
866.0
867.0
865.0
862.0
859.0
859.0
855.0
852.0
854.0
852.0
858.0
862.0
864.0
861.0
860.0
863.0
869.0
876.0
875.0
868.0
864.0
858.0
861.0
864.0
868.0
868.0
865.0
867.0
865.0
863.0
860.0
866.0
870.0
873.0
867.0
862.0
861.0
866.0
871.0
871.0
863.0
859.0
864.0
869.0
875.0
871.0
864.0
859.0
857.0
865.0
870.0
874.0
871.0
870.0
868.0
868.0
869.0
868.0
863.0
859.0
862.0
868.0
871.0
865.0
857.0
856.0
863.0
870.0
873.0
874.0
874.0
868.0
864.0
863.0
864.0
862.0
861.0
862.0
865.0
867.0
869.0
867.0
870.0
866.0
861.0
860.0
865.0
866.0
863.0
862.0
859.0
859.0
861.0
863.0
863.0
861.0
862.0
864.0
869.0
867.0
865.0
861.0
862.0
866.0
868.0
862.0
858.0
857.0
859.0
863.0
866.0
864.0
864.0
866.0
869.0
875.0
878.0
877.0
874.0
874.0
875.0
880.0
882.0
882.0
883.0
887.0
895.0
901.0
903.0
903.0
902.0
906.0
903.0
903.0
910.0
907.0
902.0
887.0
871.0
870.0
869.0
862.0
852.0
846.0
846.0
849.0
852.0
851.0
849.0
843.0
843.0
847.0
850.0
853.0
845.0
840.0
837.0
839.0
845.0
850.0
859.0
856.0
851.0
849.0
847.0
844.0
845.0
848.0
846.0
851.0
853.0
852.0
848.0
842.0
838.0
843.0
850.0
852.0
848.0
843.0
849.0
859.0
866.0
874.0
886.0
909.0
936.0
961.0
979.0
984.0
975.0
967.0
970.0
980.0
994.0
1000.0
996.0
995.0
1008.0
1022.0
1027.0
1010.0
984.0
945.0
901.0
868.0
846.0
832.0
815.0
786.0
760.0
746.0
749.0
763.0
778.0
784.0
785.0
789.0
805.0
815.0
821.0
824.0
827.0
825.0
829.0
827.0
827.0
830.0
828.0
829.0
834.0
834.0
828.0
827.0
827.0
832.0
831.0
828.0
830.0
828.0
824.0
826.0
825.0
826.0
825.0
821.0
821.0
825.0
827.0
827.0
828.0
826.0
824.0
827.0
828.0
831.0
831.0
827.0
826.0
829.0
831.0
829.0
829.0
828.0
828.0
831.0
832.0
835.0
835.0
837.0
839.0
839.0
837.0
837.0
837.0
838.0
838.0
840.0
843.0
844.0
841.0
840.0
842.0
842.0
848.0
846.0
846.0
849.0
848.0
854.0
859.0
860.0
859.0
857.0
858.0
862.0
865.0
867.0
864.0
862.0
866.0
872.0
875.0
877.0
876.0
876.0
877.0
879.0
885.0
886.0
886.0
885.0
881.0
883.0
888.0
890.0
892.0
889.0
886.0
889.0
893.0
894.0
890.0
887.0
887.0
889.0
892.0
894.0
896.0
896.0
892.0
889.0
895.0
895.0
897.0
895.0
895.0
897.0
898.0
898.0
896.0
896.0
893.0
897.0
897.0
898.0
896.0
894.0
891.0
893.0
898.0
898.0
896.0
896.0
891.0
892.0
893.0
892.0
890.0
891.0
891.0
895.0
893.0
890.0
885.0
889.0
893.0
898.0
895.0
890.0
890.0
888.0
888.0
891.0
895.0
900.0
900.0
893.0
888.0
888.0
893.0
894.0
896.0
898.0
896.0
894.0
895.0
899.0
897.0
896.0
897.0
903.0
905.0
903.0
902.0
902.0
902.0
900.0
902.0
903.0
903.0
904.0
903.0
904.0
903.0
910.0
910.0
907.0
900.0
904.0
909.0
915.0
913.0
911.0
908.0
905.0
905.0
909.0
908.0
905.0
903.0
909.0
911.0
910.0
909.0
912.0
908.0
910.0
908.0
906.0
909.0
908.0
911.0
916.0
920.0
916.0
914.0
911.0
912.0
910.0
913.0
916.0
917.0
916.0
915.0
914.0
918.0
918.0
919.0
921.0
919.0
920.0
917.0
917.0
917.0
920.0
918.0
923.0
925.0
923.0
921.0
920.0
922.0
924.0
926.0
928.0
930.0
930.0
927.0
931.0
939.0
941.0
941.0
937.0
936.0
938.0
945.0
947.0
952.0
956.0
961.0
963.0
968.0
970.0
971.0
969.0
969.0
974.0
981.0
985.0
987.0
984.0
979.0
970.0
968.0
961.0
955.0
950.0
944.0
935.0
933.0
934.0
937.0
936.0
933.0
932.0
936.0
935.0
937.0
936.0
938.0
939.0
942.0
941.0
940.0
938.0
939.0
944.0
947.0
946.0
945.0
941.0
943.0
944.0
949.0
946.0
947.0
945.0
946.0
949.0
950.0
949.0
952.0
953.0
955.0
954.0
958.0
969.0
982.0
1002.0
1028.0
1057.0
1082.0
1082.0
1072.0
1075.0
1084.0
1098.0
1111.0
1119.0
1122.0
1127.0
1136.0
1141.0
1137.0
1110.0
1068.0
1019.0
974.0
947.0
921.0
893.0
870.0
863.0
867.0
879.0
893.0
897.0
904.0
912.0
920.0
932.0
939.0
942.0
943.0
944.0
943.0
947.0
947.0
949.0
947.0
943.0
943.0
944.0
949.0
949.0
950.0
946.0
946.0
943.0
945.0
949.0
950.0
951.0
950.0
948.0
947.0
948.0
946.0
948.0
945.0
946.0
948.0
948.0
948.0
948.0
946.0
951.0
955.0
954.0
952.0
950.0
949.0
949.0
954.0
951.0
952.0
950.0
946.0
951.0
955.0
954.0
952.0
951.0
950.0
953.0
957.0
956.0
954.0
951.0
952.0
954.0
957.0
959.0
962.0
961.0
960.0
962.0
967.0
968.0
967.0
967.0
966.0
967.0
971.0
973.0
973.0
975.0
975.0
977.0
981.0
983.0
979.0
981.0
984.0
987.0
991.0
992.0
992.0
991.0
991.0
995.0
1000.0
1000.0
999.0
998.0
997.0
997.0
1000.0
1004.0
1005.0
1005.0
1001.0
1004.0
1002.0
1004.0
1002.0
1001.0
999.0
1004.0
1008.0
1013.0
1012.0
1010.0
1006.0
1006.0
1008.0
1008.0
1009.0
1007.0
1004.0
1007.0
1008.0
1007.0
1004.0
1003.0
1005.0
1007.0
1008.0
1005.0
1001.0
1002.0
1004.0
1007.0
1006.0
1002.0
1001.0
1002.0
1001.0
1002.0
1003.0
1000.0
998.0
995.0
994.0
995.0
996.0
996.0
998.0
998.0
997.0
998.0
1000.0
999.0
998.0
997.0
994.0
995.0
998.0
996.0
996.0
996.0
992.0
997.0
997.0
998.0
997.0
995.0
999.0
1003.0
1004.0
1003.0
1002.0
998.0
999.0
1002.0
1001.0
1004.0
1005.0
1001.0
1005.0
1009.0
1012.0
1009.0
1007.0
1007.0
1007.0
1008.0
1011.0
1011.0
1011.0
1010.0
1008.0
1011.0
1010.0
1011.0
1011.0
1013.0
1016.0
1016.0
1016.0
1014.0
1015.0
1016.0
1016.0
1021.0
1022.0
1022.0
1018.0
1018.0
1011.0
1018.0
1020.0
1021.0
1020.0
1017.0
1015.0
1018.0
1022.0
1021.0
1019.0
1018.0
1017.0
1021.0
1026.0
1026.0
1024.0
1022.0
1021.0
1023.0
1024.0
1024.0
1022.0
1023.0
1024.0
1025.0
1026.0
1026.0
1028.0
1026.0
1025.0
1027.0
1029.0
1028.0
1025.0
1025.0
1025.0
1028.0
1030.0
1029.0
1027.0
1028.0
1029.0
1030.0
1033.0
1031.0
1029.0
1030.0
1029.0
1031.0
1036.0
1036.0
1036.0
1035.0
1040.0
1044.0
1049.0
1048.0
1047.0
1047.0
1049.0
1055.0
1063.0
1062.0
1066.0
1067.0
1068.0
1074.0
1078.0
1079.0
1082.0
1084.0
1082.0
1085.0
1080.0
1068.0
1060.0
1050.0
1044.0
1038.0
1031.0
1027.0
1026.0
1025.0
1025.0
1025.0
1030.0
1028.0
1027.0
1024.0
1024.0
1029.0
1031.0
1034.0
1034.0
1029.0
1027.0
1029.0
1030.0
1031.0
1035.0
1036.0
1034.0
1032.0
1035.0
1031.0
1033.0
1032.0
1030.0
1035.0
1037.0
1034.0
1032.0
1033.0
1031.0
1034.0
1037.0
1041.0
1052.0
1071.0
1092.0
1122.0
1147.0
1154.0
1148.0
1143.0
1149.0
1160.0
1169.0
1174.0
1176.0
1177.0
1182.0
1190.0
1195.0
1195.0
1179.0
1146.0
1105.0
1069.0
1045.0
1019.0
991.0
966.0
949.0
942.0
953.0
965.0
973.0
978.0
981.0
988.0
997.0
1003.0
1004.0
1006.0
1007.0
1012.0
1018.0
1015.0
1015.0
1011.0
1011.0
1012.0
1015.0
1012.0
1010.0
1007.0
1006.0
1009.0
1010.0
1009.0
1007.0
1008.0
1006.0
1005.0
1007.0
1007.0
1005.0
1005.0
1003.0
1008.0
1009.0
1007.0
1006.0
1003.0
1001.0
1004.0
1008.0
1007.0
1006.0
1005.0
1007.0
1007.0
1010.0
1008.0
1005.0
1004.0
1001.0
1005.0
1007.0
1009.0
1010.0
1006.0
1004.0
1003.0
1004.0
1005.0
1008.0
1009.0
1010.0
1010.0
1013.0
1010.0
1009.0
1011.0
1011.0
1012.0
1013.0
1012.0
1015.0
1015.0
1016.0
1016.0
1016.0
1017.0
1017.0
1017.0
1019.0
1021.0
1025.0
1025.0
1023.0
1025.0
1027.0
1028.0
1030.0
1029.0
1030.0
1030.0
1031.0
1030.0
1032.0
1034.0
1035.0
1033.0
1033.0
1038.0
1040.0
1043.0
1040.0
1037.0
1035.0
1038.0
1040.0
1037.0
1037.0
1036.0
1034.0
1038.0
1045.0
1045.0
1041.0
1036.0
1032.0
1033.0
1040.0
1041.0
1039.0
1037.0
1036.0
1039.0
1042.0
1040.0
1033.0
1031.0
1030.0
1033.0
1035.0
1035.0
1034.0
1029.0
1029.0
1030.0
1032.0
1032.0
1030.0
1027.0
1029.0
1030.0
1029.0
1028.0
1025.0
1023.0
1023.0
1021.0
1027.0
1023.0
1018.0
1017.0
1017.0
1019.0
1020.0
1018.0
1020.0
1020.0
1018.0
1015.0
1016.0
1015.0
1017.0
1015.0
1014.0
1013.0
1017.0
1018.0
1013.0
1008.0
1007.0
1010.0
1013.0
1013.0
1013.0
1008.0
1010.0
1010.0
1014.0
1011.0
1013.0
1013.0
1013.0
1013.0
1016.0
1017.0
1018.0
1016.0
1017.0
1018.0
1022.0
1020.0
1021.0
1021.0
1020.0
1022.0
1023.0
1021.0
1020.0
1022.0
1020.0
1018.0
1022.0
1021.0
1023.0
1023.0
1022.0
1025.0
1028.0
1028.0
1026.0
1024.0
1023.0
1024.0
1028.0
1028.0
1030.0
1026.0
1027.0
1030.0
1033.0
1032.0
1028.0
1024.0
1026.0
1028.0
1034.0
1032.0
1029.0
1025.0
1025.0
1032.0
1033.0
1029.0
1028.0
1024.0
1028.0
1030.0
1032.0
1031.0
1029.0
1026.0
1027.0
1030.0
1031.0
1031.0
1033.0
1032.0
1031.0
1033.0
1034.0
1034.0
1031.0
1031.0
1029.0
1032.0
1032.0
1032.0
1033.0
1030.0
1031.0
1031.0
1034.0
1034.0
1032.0
1030.0
1032.0
1037.0
1039.0
1039.0
1039.0
1041.0
1040.0
1042.0
1047.0
1044.0
1048.0
1047.0
1049.0
1052.0
1058.0
1064.0
1066.0
1066.0
1069.0
1072.0
1078.0
1078.0
1078.0
1077.0
1082.0
1087.0
1091.0
1089.0
1089.0
1083.0
1074.0
1067.0
1064.0
1060.0
1053.0
1046.0
1036.0
1033.0
1031.0
1032.0
1033.0
1031.0
1033.0
1033.0
1037.0
1033.0
1030.0
1033.0
1030.0
1035.0
1034.0
1034.0
1033.0
1033.0
1031.0
1033.0
1034.0
1035.0
1036.0
1034.0
1033.0
1037.0
1042.0
1038.0
1037.0
1035.0
1036.0
1039.0
1042.0
1044.0
1041.0
1037.0
1037.0
1038.0
1042.0
1039.0
1040.0
1042.0
1054.0
1071.0
1093.0
1112.0
1137.0
1157.0
1163.0
1155.0
1153.0
1155.0
1166.0
1167.0
1172.0
1181.0
1184.0
1184.0
1195.0
1196.0
1199.0
1192.0
1175.0
1144.0
1108.0
1079.0
1051.0
1027.0
1005.0
981.0
963.0
952.0
943.0
950.0
962.0
972.0
977.0
981.0
985.0
993.0
1003.0
1009.0
1012.0
1012.0
1015.0
1017.0
1021.0
1020.0
1020.0
1015.0
1013.0
1016.0
1018.0
1016.0
1016.0
1016.0
1011.0
1011.0
1014.0
1012.0
1012.0
1011.0
1008.0
1011.0
1014.0
1013.0
1009.0
1008.0
1005.0
1005.0
1009.0
1013.0
1012.0
1011.0
1006.0
1005.0
1006.0
1008.0
1008.0
1007.0
1008.0
1011.0
1013.0
1011.0
1008.0
1004.0
1004.0
1008.0
1012.0
1012.0
1011.0
1009.0
1008.0
1007.0
1010.0
1009.0
1007.0
1006.0
1006.0
1008.0
1013.0
1015.0
1013.0
1009.0
1010.0
1012.0
1014.0
1016.0
1018.0
1018.0
1016.0
1017.0
1019.0
1019.0
1016.0
1018.0
1019.0
1021.0
1023.0
1024.0
1026.0
1023.0
1022.0
1025.0
1030.0
1031.0
1031.0
1030.0
1028.0
1029.0
1030.0
1033.0
1035.0
1037.0
1036.0
1036.0
1036.0
1037.0
1036.0
1037.0
1043.0
1046.0
1049.0
1045.0
1041.0
1041.0
1040.0
1042.0
1044.0
1043.0
1042.0
1041.0
1038.0
1037.0
1039.0
1039.0
1040.0
1036.0
1035.0
1037.0
1041.0
1041.0
1039.0
1034.0
1034.0
1037.0
1038.0
1036.0
1032.0
1036.0
1037.0
1035.0
1035.0
1035.0
1035.0
1036.0
1032.0
1035.0
1030.0
1032.0
1030.0
1029.0
1032.0
1032.0
1030.0
1026.0
1024.0
1024.0
1025.0
1029.0
1030.0
1027.0
1024.0
1021.0
1019.0
1016.0
1019.0
1019.0
1020.0
1020.0
1019.0
1016.0
1018.0
1015.0
1011.0
1015.0
1015.0
1015.0
1017.0
1015.0
1012.0
1008.0
1010.0
1015.0
1018.0
1017.0
1017.0
1015.0
1015.0
1020.0
1024.0
1020.0
1020.0
1016.0
1018.0
1018.0
1021.0
1019.0
1016.0
1017.0
1020.0
1023.0
1026.0
1022.0
1020.0
1022.0
1022.0
1027.0
1028.0
1026.0
1024.0
1022.0
1022.0
1024.0
1029.0
1029.0
1026.0
1025.0
1027.0
1027.0
1030.0
1030.0
1032.0
1029.0
1028.0
1031.0
1030.0
1029.0
1026.0
1026.0
1025.0
1028.0
1035.0
1034.0
1034.0
1032.0
1029.0
1030.0
1031.0
1032.0
1032.0
1034.0
1035.0
1033.0
1034.0
1034.0
1034.0
1033.0
1032.0
1037.0
1038.0
1038.0
1035.0
1036.0
1034.0
1034.0
1035.0
1034.0
1035.0
1033.0
1032.0
1034.0
1037.0
1036.0
1033.0
1032.0
1030.0
1031.0
1034.0
1036.0
1039.0
1037.0
1035.0
1037.0
1039.0
1037.0
1036.0
1038.0
1037.0
1044.0
1047.0
1048.0
1044.0
1046.0
1052.0
1059.0
1061.0
1062.0
1062.0
1066.0
1067.0
1073.0
1077.0
1078.0
1080.0
1076.0
1080.0
1084.0
1086.0
1087.0
1089.0
1088.0
1088.0
1086.0
1077.0
1068.0
1059.0
1051.0
1048.0
1043.0
1036.0
1027.0
1026.0
1026.0
1028.0
1029.0
1028.0
1030.0
1029.0
1028.0
1025.0
1028.0
1029.0
1029.0
1027.0
1029.0
1027.0
1026.0
1028.0
1026.0
1030.0
1028.0
1030.0
1031.0
1032.0
1030.0
1030.0
1027.0
1027.0
1029.0
1033.0
1032.0
1034.0
1033.0
1034.0
1036.0
1033.0
1033.0
1033.0
1029.0
1035.0
1040.0
1056.0
1071.0
1087.0
1107.0
1130.0
1147.0
1154.0
1143.0
1138.0
1146.0
1155.0
1162.0
1167.0
1171.0
1173.0
1171.0
1172.0
1179.0
1181.0
1178.0
1167.0
1138.0
1098.0
1062.0
1032.0
998.0
971.0
946.0
930.0
924.0
927.0
935.0
947.0
953.0
959.0
969.0
980.0
989.0
997.0
1001.0
1005.0
1009.0
1014.0
1011.0
1008.0
1007.0
1005.0
1009.0
1012.0
1010.0
1006.0
1001.0
1000.0
1002.0
1006.0
1007.0
1006.0
1005.0
1001.0
1003.0
1002.0
1000.0
1001.0
1001.0
1002.0
1002.0
1003.0
1003.0
1001.0
1001.0
1000.0
1002.0
1001.0
999.0
997.0
998.0
999.0
1002.0
1003.0
1003.0
1004.0
1006.0
1001.0
999.0
1001.0
1002.0
1002.0
1003.0
1002.0
1002.0
1008.0
1005.0
1002.0
1004.0
1005.0
1008.0
1008.0
1007.0
1005.0
1005.0
1007.0
1013.0
1014.0
1016.0
1010.0
1013.0
1013.0
1012.0
1014.0
1014.0
1019.0
1019.0
1020.0
1023.0
1028.0
1030.0
1028.0
1022.0
1025.0
1028.0
1032.0
1029.0
1030.0
1029.0
1032.0
1034.0
1037.0
1037.0
1038.0
1036.0
1035.0
1040.0
1042.0
1043.0
1039.0
1037.0
1038.0
1044.0
1047.0
1048.0
1047.0
1044.0
1044.0
1047.0
1045.0
1046.0
1044.0
1042.0
1041.0
1043.0
1044.0
1044.0
1044.0
1042.0
1041.0
1044.0
1044.0
1045.0
1043.0
1041.0
1039.0
1040.0
1045.0
1047.0
1044.0
1039.0
1037.0
1038.0
1039.0
1040.0
1039.0
1039.0
1038.0
1037.0
1038.0
1036.0
1034.0
1030.0
1032.0
1033.0
1034.0
1031.0
1029.0
1028.0
1028.0
1029.0
1029.0
1030.0
1027.0
1025.0
1021.0
1023.0
1026.0
1027.0
1026.0
1024.0
1019.0
1017.0
1022.0
1023.0
1023.0
1023.0
1021.0
1020.0
1026.0
1025.0
1023.0
1020.0
1018.0
1022.0
1026.0
1025.0
1020.0
1023.0
1022.0
1027.0
1028.0
1029.0
1026.0
1025.0
1024.0
1028.0
1029.0
1032.0
1029.0
1027.0
1026.0
1026.0
1032.0
1032.0
1028.0
1029.0
1032.0
1033.0
1036.0
1034.0
1032.0
1032.0
1034.0
1038.0
1040.0
1038.0
1036.0
1033.0
1036.0
1038.0
1038.0
1039.0
1036.0
1034.0
1034.0
1039.0
1037.0
1037.0
1036.0
1037.0
1037.0
1036.0
1036.0
1035.0
1036.0
1033.0
1036.0
1036.0
1039.0
1036.0
1039.0
1041.0
1043.0
1044.0
1045.0
1040.0
1038.0
1038.0
1039.0
1041.0
1043.0
1042.0
1043.0
1037.0
1038.0
1037.0
1039.0
1041.0
1042.0
1040.0
1041.0
1039.0
1047.0
1043.0
1044.0
1041.0
1042.0
1044.0
1047.0
1047.0
1044.0
1039.0
1039.0
1043.0
1045.0
1045.0
1042.0
1039.0
1041.0
1045.0
1047.0
1045.0
1045.0
1041.0
1041.0
1046.0
1046.0
1047.0
1044.0
1043.0
1044.0
1050.0
1055.0
1055.0
1054.0
1053.0
1054.0
1059.0
1064.0
1068.0
1070.0
1067.0
1068.0
1070.0
1075.0
1079.0
1083.0
1086.0
1083.0
1084.0
1087.0
1088.0
1094.0
1096.0
1096.0
1091.0
1087.0
1078.0
1068.0
1058.0
1048.0
1041.0
1034.0
1023.0
1019.0
1017.0
1023.0
1027.0
1028.0
1024.0
1027.0
1023.0
1026.0
1026.0
1022.0
1024.0
1020.0
1023.0
1023.0
1019.0
1015.0
1014.0
1019.0
1026.0
1029.0
1026.0
1024.0
1024.0
1028.0
1027.0
1025.0
1018.0
1019.0
1014.0
1016.0
1019.0
1021.0
1018.0
1018.0
1016.0
1010.0
1010.0
1009.0
1009.0
1019.0
1031.0
1044.0
1060.0
1091.0
1126.0
1154.0
1159.0
1140.0
1121.0
1126.0
1140.0
1150.0
1162.0
1166.0
1161.0
1159.0
1165.0
1171.0
1173.0
1160.0
1134.0
1094.0
1058.0
1030.0
998.0
964.0
930.0
907.0
898.0
895.0
899.0
909.0
919.0
929.0
937.0
941.0
949.0
955.0
960.0
965.0
971.0
975.0
976.0
981.0
983.0
974.0
966.0
969.0
971.0
972.0
971.0
966.0
972.0
978.0
980.0
978.0
971.0
962.0
960.0
961.0
966.0
970.0
965.0
961.0
959.0
962.0
967.0
972.0
970.0
964.0
963.0
969.0
967.0
967.0
963.0
966.0
964.0
963.0
963.0
965.0
962.0
958.0
961.0
964.0
968.0
965.0
964.0
967.0
970.0
974.0
971.0
970.0
964.0
963.0
965.0
970.0
980.0
981.0
974.0
969.0
964.0
963.0
966.0
976.0
986.0
987.0
985.0
977.0
981.0
980.0
975.0
973.0
980.0
985.0
989.0
991.0
989.0
990.0
992.0
997.0
993.0
985.0
979.0
981.0
989.0
996.0
998.0
995.0
992.0
1000.0
1006.0
1010.0
1010.0
1011.0
1010.0
1006.0
1005.0
1007.0
1009.0
1011.0
1010.0
1015.0
1016.0
1012.0
1006.0
1004.0
1009.0
1019.0
1017.0
1015.0
1012.0
1014.0
1013.0
1013.0
1014.0
1014.0
1012.0
1012.0
1014.0
1019.0
1022.0
1023.0
1017.0
1011.0
1006.0
1010.0
1011.0
1013.0
1014.0
1014.0
1012.0
1009.0
1007.0
1005.0
1006.0
1008.0
1005.0
1005.0
1007.0
1007.0
1005.0
1004.0
1002.0
1003.0
1002.0
1004.0
1004.0
1001.0
1003.0
1003.0
1003.0
1007.0
1003.0
996.0
996.0
998.0
1002.0
1001.0
993.0
990.0
993.0
995.0
992.0
992.0
993.0
998.0
998.0
998.0
993.0
994.0
994.0
994.0
990.0
988.0
990.0
994.0
993.0
993.0
994.0
996.0
998.0
999.0
997.0
999.0
1002.0
1004.0
1002.0
1000.0
997.0
998.0
998.0
1000.0
1003.0
1005.0
1007.0
1004.0
1002.0
1003.0
1006.0
1009.0
1011.0
1010.0
1007.0
1005.0
1008.0
1011.0
1010.0
1009.0
1007.0
1008.0
1011.0
1011.0
1008.0
1003.0
1005.0
1006.0
1012.0
1016.0
1017.0
1015.0
1012.0
1009.0
1012.0
1018.0
1019.0
1021.0
1017.0
1018.0
1019.0
1019.0
1019.0
1018.0
1014.0
1015.0
1018.0
1023.0
1023.0
1019.0
1018.0
1017.0
1018.0
1020.0
1021.0
1017.0
1016.0
1020.0
1024.0
1029.0
1025.0
1020.0
1016.0
1015.0
1021.0
1025.0
1028.0
1027.0
1024.0
1022.0
1024.0
1026.0
1028.0
1030.0
1033.0
1040.0
1040.0
1041.0
1042.0
1046.0
1046.0
1046.0
1049.0
1057.0
1061.0
1063.0
1059.0
1064.0
1072.0
1076.0
1074.0
1075.0
1074.0
1080.0
1088.0
1094.0
1092.0
1082.0
1071.0
1062.0
1058.0
1049.0
1042.0
1031.0
1023.0
1027.0
1029.0
1031.0
1030.0
1029.0
1026.0
1025.0
1029.0
1030.0
1028.0
1031.0
1030.0
1030.0
1029.0
1034.0
1033.0
1030.0
1029.0
1028.0
1032.0
1038.0
1038.0
1036.0
1033.0
1031.0
1035.0
1039.0
1040.0
1039.0
1037.0
1036.0
1037.0
1037.0
1037.0
1038.0
1038.0
1042.0
1054.0
1068.0
1087.0
1108.0
1137.0
1162.0
1172.0
1163.0
1160.0
1165.0
1171.0
1177.0
1186.0
1190.0
1189.0
1195.0
1199.0
1199.0
1193.0
1170.0
1132.0
1089.0
1048.0
1018.0
989.0
963.0
941.0
931.0
926.0
938.0
957.0
970.0
974.0
978.0
985.0
996.0
1006.0
1010.0
1010.0
1009.0
1012.0
1011.0
1015.0
1019.0
1017.0
1016.0
1012.0
1012.0
1015.0
1016.0
1016.0
1014.0
1010.0
1012.0
1011.0
1013.0
1014.0
1011.0
1009.0
1009.0
1012.0
1011.0
1011.0
1011.0
1010.0
1009.0
1007.0
1010.0
1011.0
1011.0
1009.0
1007.0
1008.0
1007.0
1009.0
1010.0
1009.0
1011.0
1010.0
1014.0
1012.0
1009.0
1008.0
1012.0
1012.0
1014.0
1016.0
1013.0
1010.0
1011.0
1014.0
1016.0
1016.0
1016.0
1014.0
1015.0
1015.0
1019.0
1018.0
1018.0
1016.0
1020.0
1021.0
1023.0
1023.0
1023.0
1022.0
1023.0
1026.0
1029.0
1030.0
1031.0
1029.0
1029.0
1033.0
1034.0
1036.0
1035.0
1033.0
1034.0
1038.0
1044.0
1045.0
1043.0
1041.0
1042.0
1044.0
1049.0
1048.0
1046.0
1041.0
1044.0
1047.0
1050.0
1049.0
1048.0
1046.0
1045.0
1045.0
1046.0
1043.0
1043.0
1045.0
1046.0
1048.0
1051.0
1049.0
1045.0
1045.0
1043.0
1043.0
1042.0
1042.0
1045.0
1043.0
1042.0
1042.0
1045.0
1045.0
1044.0
1041.0
1042.0
1042.0
1042.0
1040.0
1038.0
1036.0
1036.0
1036.0
1034.0
1035.0
1033.0
1031.0
1032.0
1032.0
1032.0
1028.0
1026.0
1025.0
1026.0
1030.0
1030.0
1029.0
1023.0
1021.0
1021.0
1021.0
1022.0
1021.0
1020.0
1017.0
1020.0
1020.0
1018.0
1019.0
1019.0
1016.0
1014.0
1017.0
1019.0
1022.0
1020.0
1018.0
1018.0
1019.0
1019.0
1020.0
1021.0
1020.0
1019.0
1019.0
1022.0
1024.0
1022.0
1018.0
1018.0
1021.0
1024.0
1024.0
1021.0
1019.0
1018.0
1020.0
1022.0
1022.0
1023.0
1020.0
1021.0
1022.0
1022.0
1022.0
1023.0
