# Simple Text Format
# Sampling Rate (Hz):= 360.00
# Resolution:= 12
# Labels:= ECG
999.0
999.0
999.0
999.0
999.0
999.0
999.0
999.0
997.0
999.0
999.0
1000.0
1005.0
1007.0
1003.0
990.0
979.0
973.0
968.0
965.0
956.0
945.0
942.0
943.0
948.0
950.0
946.0
942.0
939.0
940.0
943.0
950.0
949.0
946.0
942.0
943.0
945.0
949.0
946.0
945.0
945.0
945.0
947.0
948.0
947.0
944.0
943.0
943.0
943.0
941.0
937.0
939.0
939.0
946.0
949.0
951.0
950.0
951.0
948.0
943.0
943.0
946.0
951.0
958.0
960.0
965.0
970.0
968.0
956.0
936.0
922.0
920.0
922.0
922.0
917.0
916.0
907.0
899.0
896.0
894.0
887.0
878.0
868.0
857.0
847.0
841.0
836.0
829.0
828.0
836.0
841.0
845.0
846.0
858.0
872.0
884.0
899.0
908.0
915.0
923.0
927.0
935.0
945.0
950.0
950.0
952.0
952.0
953.0
959.0
961.0
960.0
955.0
955.0
958.0
964.0
967.0
964.0
966.0
965.0
964.0
966.0
968.0
967.0
960.0
960.0
962.0
965.0
967.0
969.0
967.0
966.0
965.0
967.0
967.0
966.0
967.0
969.0
968.0
970.0
972.0
970.0
970.0
969.0
972.0
976.0
979.0
976.0
971.0
968.0
969.0
976.0
980.0
980.0
979.0
976.0
980.0
984.0
986.0
987.0
980.0
975.0
979.0
985.0
987.0
991.0
988.0
986.0
987.0
988.0
991.0
990.0
993.0
992.0
989.0
989.0
995.0
990.0
992.0
991.0
991.0
992.0
993.0
991.0
990.0
986.0
985.0
985.0
988.0
988.0
984.0
984.0
983.0
984.0
986.0
986.0
984.0
978.0
979.0
982.0
981.0
983.0
981.0
978.0
972.0
973.0
974.0
976.0
975.0
974.0
971.0
970.0
973.0
971.0
971.0
970.0
968.0
972.0
973.0
972.0
970.0
969.0
970.0
973.0
973.0
972.0
970.0
969.0
970.0
971.0
973.0
971.0
968.0
967.0
967.0
968.0
972.0
971.0
970.0
968.0
967.0
967.0
972.0
973.0
970.0
969.0
967.0
970.0
969.0
966.0
963.0
960.0
963.0
966.0
969.0
967.0
962.0
959.0
961.0
961.0
964.0
962.0
957.0
956.0
951.0
953.0
957.0
956.0
956.0
949.0
951.0
954.0
956.0
952.0
952.0
949.0
950.0
953.0
954.0
954.0
952.0
950.0
949.0
949.0
954.0
952.0
952.0
948.0
949.0
953.0
955.0
956.0
955.0
953.0
952.0
955.0
957.0
955.0
956.0
956.0
956.0
958.0
958.0
959.0
958.0
957.0
958.0
962.0
965.0
964.0
960.0
958.0
955.0
959.0
961.0
962.0
961.0
955.0
958.0
962.0
966.0
961.0
957.0
957.0
955.0
959.0
963.0
964.0
963.0
963.0
961.0
964.0
966.0
964.0
960.0
959.0
960.0
963.0
963.0
962.0
962.0
962.0
963.0
964.0
968.0
971.0
969.0
968.0
971.0
974.0
977.0
979.0
979.0
978.0
984.0
988.0
993.0
995.0
994.0
994.0
1000.0
1003.0
1005.0
1007.0
1006.0
1005.0
1005.0
1009.0
1013.0
1014.0
1011.0
1002.0
997.0
991.0
987.0
980.0
969.0
960.0
954.0
950.0
954.0
954.0
953.0
952.0
951.0
952.0
955.0
956.0
953.0
950.0
948.0
946.0
952.0
956.0
960.0
956.0
952.0
953.0
955.0
956.0
953.0
954.0
954.0
955.0
954.0
953.0
950.0
950.0
952.0
955.0
958.0
958.0
954.0
952.0
950.0
949.0
947.0
946.0
949.0
955.0
961.0
969.0
974.0
971.0
956.0
939.0
925.0
922.0
925.0
927.0
925.0
918.0
909.0
904.0
898.0
893.0
888.0
879.0
868.0
855.0
844.0
841.0
837.0
837.0
841.0
848.0
853.0
860.0
873.0
887.0
902.0
914.0
922.0
928.0
936.0
946.0
953.0
961.0
964.0
964.0
964.0
964.0
966.0
969.0
971.0
969.0
966.0
964.0
969.0
973.0
975.0
972.0
968.0
969.0
972.0
975.0
976.0
974.0
975.0
972.0
971.0
970.0
976.0
978.0
980.0
979.0
980.0
979.0
979.0
979.0
976.0
976.0
976.0
978.0
984.0
985.0
984.0
981.0
978.0
981.0
988.0
988.0
987.0
985.0
984.0
985.0
989.0
993.0
993.0
989.0
990.0
995.0
996.0
994.0
992.0
993.0
996.0
997.0
1001.0
1000.0
1002.0
1001.0
1002.0
1002.0
1005.0
1002.0
1001.0
998.0
1000.0
1003.0
1004.0
1002.0
1001.0
1000.0
1003.0
1007.0
1006.0
1004.0
1001.0
998.0
999.0
1004.0
1004.0
1001.0
998.0
995.0
993.0
992.0
996.0
996.0
995.0
991.0
986.0
985.0
990.0
991.0
988.0
986.0
983.0
984.0
990.0
986.0
983.0
982.0
981.0
981.0
983.0
983.0
981.0
979.0
982.0
984.0
985.0
982.0
979.0
976.0
976.0
976.0
975.0
975.0
978.0
979.0
980.0
979.0
977.0
977.0
972.0
971.0
974.0
977.0
979.0
977.0
974.0
967.0
968.0
972.0
974.0
972.0
970.0
969.0
967.0
971.0
972.0
970.0
964.0
963.0
964.0
962.0
966.0
970.0
964.0
960.0
962.0
963.0
967.0
967.0
965.0
961.0
960.0
960.0
961.0
960.0
961.0
956.0
957.0
961.0
962.0
960.0
957.0
956.0
955.0
958.0
961.0
960.0
959.0
956.0
955.0
956.0
958.0
958.0
962.0
961.0
963.0
962.0
962.0
963.0
961.0
960.0
963.0
964.0
964.0
963.0
963.0
960.0
960.0
962.0
962.0
963.0
965.0
965.0
964.0
965.0
964.0
965.0
963.0
963.0
967.0
969.0
966.0
967.0
967.0
961.0
964.0
966.0
967.0
965.0
964.0
966.0
967.0
971.0
970.0
968.0
966.0
965.0
964.0
967.0
969.0
970.0
970.0
967.0
966.0
968.0
969.0
969.0
969.0
969.0
972.0
979.0
983.0
984.0
983.0
981.0
983.0
984.0
989.0
994.0
1000.0
1001.0
1006.0
1007.0
1011.0
1011.0
1007.0
1008.0
1016.0
1025.0
1026.0
1025.0
1022.0
1016.0
1008.0
1000.0
997.0
989.0
981.0
971.0
963.0
961.0
961.0
961.0
963.0
960.0
961.0
963.0
966.0
963.0
961.0
959.0
961.0
961.0
963.0
962.0
962.0
961.0
960.0
961.0
963.0
967.0
967.0
962.0
960.0
960.0
962.0
955.0
956.0
954.0
955.0
955.0
960.0
961.0
961.0
955.0
956.0
960.0
961.0
959.0
954.0
956.0
960.0
967.0
970.0
971.0
968.0
954.0
939.0
931.0
930.0
926.0
922.0
918.0
911.0
903.0
899.0
893.0
888.0
883.0
872.0
860.0
852.0
844.0
841.0
839.0
845.0
856.0
861.0
866.0
875.0
890.0
908.0
921.0
929.0
932.0
939.0
945.0
955.0
961.0
965.0
966.0
968.0
968.0
967.0
970.0
972.0
973.0
971.0
971.0
971.0
971.0
971.0
972.0
970.0
967.0
972.0
981.0
986.0
982.0
978.0
973.0
973.0
978.0
977.0
977.0
975.0
978.0
981.0
980.0
980.0
980.0
979.0
978.0
979.0
983.0
986.0
984.0
981.0
978.0
980.0
987.0
990.0
992.0
988.0
984.0
983.0
989.0
997.0
1002.0
995.0
989.0
988.0
993.0
997.0
999.0
995.0
994.0
996.0
995.0
1000.0
1005.0
1004.0
1000.0
1003.0
1002.0
1002.0
1001.0
1001.0
999.0
1003.0
1005.0
1006.0
1007.0
1004.0
998.0
994.0
996.0
1002.0
1010.0
1011.0
1003.0
997.0
996.0
1002.0
1006.0
1003.0
999.0
998.0
995.0
998.0
994.0
988.0
987.0
986.0
987.0
990.0
989.0
984.0
982.0
981.0
982.0
982.0
979.0
977.0
975.0
974.0
978.0
980.0
979.0
977.0
971.0
973.0
974.0
976.0
976.0
973.0
970.0
969.0
971.0
974.0
971.0
970.0
964.0
969.0
971.0
971.0
972.0
970.0
965.0
965.0
967.0
969.0
969.0
965.0
962.0
959.0
962.0
966.0
966.0
965.0
963.0
961.0
962.0
963.0
966.0
962.0
957.0
955.0
955.0
957.0
958.0
958.0
956.0
954.0
955.0
958.0
958.0
955.0
949.0
952.0
954.0
956.0
955.0
950.0
950.0
952.0
951.0
955.0
953.0
950.0
950.0
949.0
953.0
955.0
956.0
954.0
951.0
950.0
951.0
953.0
951.0
949.0
950.0
951.0
956.0
961.0
957.0
954.0
951.0
954.0
954.0
957.0
956.0
953.0
954.0
957.0
956.0
958.0
954.0
953.0
954.0
959.0
961.0
959.0
956.0
951.0
952.0
956.0
959.0
960.0
958.0
956.0
953.0
958.0
960.0
959.0
957.0
959.0
958.0
959.0
960.0
958.0
956.0
955.0
959.0
962.0
962.0
962.0
962.0
959.0
960.0
963.0
964.0
963.0
957.0
957.0
957.0
963.0
966.0
964.0
961.0
957.0
960.0
963.0
966.0
965.0
964.0
960.0
963.0
967.0
968.0
969.0
971.0
974.0
978.0
980.0
982.0
985.0
986.0
988.0
991.0
997.0
1002.0
1006.0
1005.0
1004.0
1002.0
1001.0
1006.0
1009.0
1009.0
1010.0
1013.0
1016.0
1011.0
1001.0
991.0
979.0
975.0
967.0
963.0
954.0
951.0
950.0
953.0
954.0
955.0
955.0
952.0
952.0
954.0
956.0
957.0
953.0
951.0
948.0
950.0
953.0
958.0
956.0
954.0
953.0
953.0
954.0
956.0
955.0
953.0
952.0
954.0
954.0
958.0
957.0
953.0
951.0
953.0
953.0
954.0
955.0
956.0
956.0
954.0
952.0
950.0
948.0
955.0
959.0
968.0
976.0
980.0
975.0
960.0
936.0
921.0
921.0
922.0
924.0
923.0
913.0
904.0
897.0
894.0
889.0
883.0
875.0
867.0
855.0
850.0
844.0
837.0
835.0
842.0
850.0
855.0
860.0
871.0
886.0
902.0
914.0
921.0
929.0
936.0
947.0
950.0
958.0
963.0
968.0
968.0
965.0
963.0
966.0
968.0
966.0
966.0
966.0
967.0
969.0
970.0
967.0
968.0
964.0
964.0
970.0
973.0
972.0
972.0
968.0
970.0
970.0
973.0
970.0
972.0
968.0
969.0
970.0
974.0
976.0
977.0
971.0
971.0
975.0
975.0
976.0
976.0
975.0
977.0
983.0
987.0
984.0
983.0
980.0
981.0
983.0
984.0
984.0
985.0
985.0
987.0
988.0
988.0
990.0
990.0
986.0
985.0
992.0
994.0
997.0
992.0
990.0
992.0
994.0
998.0
998.0
994.0
993.0
992.0
994.0
992.0
992.0
994.0
995.0
994.0
994.0
996.0
993.0
994.0
989.0
988.0
990.0
989.0
988.0
984.0
981.0
981.0
982.0
984.0
982.0
981.0
977.0
975.0
976.0
974.0
973.0
974.0
971.0
972.0
974.0
973.0
976.0
976.0
973.0
971.0
970.0
973.0
973.0
974.0
974.0
973.0
972.0
975.0
974.0
974.0
969.0
971.0
971.0
974.0
973.0
970.0
969.0
970.0
968.0
971.0
971.0
968.0
967.0
966.0
970.0
972.0
969.0
964.0
965.0
969.0
969.0
969.0
969.0
966.0
961.0
963.0
961.0
966.0
967.0
963.0
962.0
960.0
963.0
961.0
962.0
955.0
953.0
954.0
957.0
961.0
961.0
954.0
954.0
957.0
957.0
959.0
959.0
956.0
954.0
953.0
954.0
957.0
957.0
956.0
949.0
950.0
955.0
962.0
963.0
960.0
957.0
958.0
961.0
964.0
966.0
963.0
960.0
962.0
960.0
962.0
961.0
958.0
960.0
960.0
962.0
966.0
963.0
964.0
961.0
961.0
960.0
962.0
963.0
963.0
962.0
965.0
968.0
968.0
966.0
961.0
956.0
956.0
961.0
970.0
972.0
970.0
966.0
967.0
966.0
968.0
968.0
964.0
964.0
962.0
966.0
968.0
967.0
966.0
963.0
962.0
968.0
972.0
973.0
976.0
975.0
977.0
980.0
981.0
982.0
984.0
987.0
990.0
996.0
999.0
1001.0
1003.0
1004.0
1008.0
1011.0
1013.0
1012.0
1012.0
1012.0
1011.0
1012.0
1013.0
1010.0
1006.0
995.0
986.0
979.0
970.0
962.0
955.0
952.0
952.0
955.0
960.0
961.0
959.0
956.0
955.0
955.0
956.0
955.0
950.0
951.0
955.0
957.0
961.0
959.0
955.0
950.0
952.0
957.0
956.0
956.0
957.0
952.0
952.0
954.0
958.0
957.0
959.0
957.0
956.0
955.0
959.0
959.0
956.0
949.0
946.0
950.0
958.0
962.0
964.0
966.0
965.0
955.0
935.0
925.0
919.0
918.0
921.0
919.0
916.0
905.0
896.0
886.0
882.0
878.0
872.0
859.0
849.0
841.0
840.0
841.0
848.0
851.0
854.0
857.0
870.0
891.0
907.0
918.0
927.0
933.0
943.0
953.0
959.0
964.0
965.0
964.0
964.0
966.0
969.0
968.0
967.0
967.0
971.0
975.0
975.0
974.0
968.0
964.0
969.0
978.0
981.0
982.0
980.0
976.0
974.0
973.0
975.0
976.0
974.0
975.0
975.0
977.0
978.0
980.0
979.0
978.0
983.0
984.0
986.0
987.0
988.0
985.0
982.0
981.0
986.0
988.0
989.0
987.0
985.0
988.0
992.0
995.0
992.0
991.0
995.0
995.0
998.0
992.0
990.0
987.0
992.0
1001.0
1004.0
1003.0
999.0
997.0
1003.0
1010.0
1015.0
1015.0
1004.0
1001.0
1003.0
1005.0
1010.0
1009.0
1006.0
1001.0
998.0
999.0
1005.0
1003.0
995.0
999.0
1004.0
1004.0
1000.0
993.0
991.0
989.0
987.0
990.0
990.0
985.0
977.0
976.0
984.0
991.0
994.0
988.0
983.0
980.0
987.0
990.0
992.0
992.0
986.0
979.0
980.0
984.0
985.0
981.0
986.0
984.0
982.0
981.0
982.0
981.0
980.0
983.0
985.0
989.0
994.0
990.0
984.0
978.0
977.0
979.0
982.0
982.0
981.0
978.0
979.0
980.0
979.0
977.0
976.0
975.0
976.0
975.0
974.0
972.0
969.0
966.0
970.0
978.0
974.0
968.0
963.0
965.0
962.0
958.0
954.0
956.0
955.0
949.0
942.0
955.0
972.0
974.0
964.0
964.0
969.0
975.0
978.0
975.0
968.0
967.0
977.0
985.0
984.0
979.0
976.0
976.0
978.0
979.0
978.0
977.0
975.0
971.0
974.0
980.0
979.0
980.0
976.0
973.0
972.0
977.0
979.0
978.0
975.0
975.0
975.0
978.0
978.0
979.0
975.0
973.0
974.0
977.0
982.0
980.0
973.0
971.0
971.0
972.0
978.0
979.0
979.0
970.0
973.0
971.0
972.0
970.0
974.0
977.0
979.0
974.0
967.0
964.0
970.0
983.0
1000.0
1003.0
995.0
995.0
996.0
995.0
994.0
992.0
995.0
1002.0
1006.0
1005.0
1008.0
1011.0
1015.0
1017.0
1015.0
1017.0
1021.0
1023.0
1024.0
1021.0
1024.0
1025.0
1026.0
1026.0
1025.0
1018.0
1008.0
998.0
991.0
983.0
974.0
968.0
967.0
969.0
976.0
980.0
975.0
968.0
961.0
958.0
964.0
971.0
974.0
971.0
962.0
951.0
946.0
946.0
952.0
964.0
973.0
970.0
965.0
967.0
963.0
959.0
968.0
978.0
983.0
978.0
973.0
973.0
970.0
964.0
962.0
968.0
971.0
972.0
964.0
947.0
938.0
944.0
952.0
948.0
944.0
939.0
931.0
922.0
912.0
906.0
909.0
906.0
902.0
898.0
889.0
883.0
878.0
877.0
874.0
868.0
856.0
843.0
835.0
833.0
844.0
859.0
872.0
878.0
884.0
897.0
911.0
924.0
934.0
943.0
961.0
977.0
981.0
982.0
985.0
985.0
985.0
979.0
981.0
983.0
989.0
986.0
981.0
977.0
978.0
983.0
986.0
988.0
991.0
994.0
994.0
989.0
981.0
972.0
977.0
987.0
1001.0
1009.0
1011.0
1004.0
999.0
996.0
991.0
996.0
995.0
997.0
998.0
998.0
999.0
1000.0
1002.0
1002.0
1002.0
998.0
1000.0
1005.0
1010.0
1012.0
1012.0
1012.0
1009.0
1008.0
1009.0
1010.0
1011.0
1011.0
1011.0
1010.0
1010.0
1009.0
1017.0
1021.0
1018.0
1013.0
1015.0
1019.0
1021.0
1020.0
1023.0
1025.0
1022.0
1022.0
1022.0
1022.0
1021.0
1022.0
1022.0
1016.0
1011.0
1008.0
1006.0
1006.0
1013.0
1017.0
1016.0
1009.0
1004.0
1006.0
1009.0
1010.0
1007.0
1001.0
998.0
999.0
999.0
997.0
992.0
990.0
992.0
992.0
991.0
993.0
990.0
988.0
988.0
989.0
988.0
987.0
985.0
983.0
982.0
981.0
983.0
984.0
982.0
982.0
981.0
979.0
979.0
973.0
974.0
973.0
975.0
974.0
974.0
976.0
981.0
982.0
980.0
978.0
979.0
979.0
975.0
970.0
972.0
973.0
975.0
975.0
971.0
967.0
967.0
966.0
967.0
964.0
962.0
961.0
961.0
963.0
963.0
961.0
956.0
954.0
954.0
958.0
959.0
959.0
957.0
950.0
950.0
950.0
955.0
955.0
954.0
951.0
949.0
951.0
953.0
952.0
952.0
953.0
955.0
951.0
943.0
942.0
951.0
958.0
960.0
958.0
952.0
950.0
950.0
950.0
950.0
950.0
951.0
949.0
950.0
948.0
952.0
955.0
956.0
958.0
957.0
952.0
950.0
954.0
956.0
954.0
950.0
946.0
947.0
952.0
954.0
954.0
954.0
952.0
953.0
956.0
953.0
952.0
949.0
952.0
953.0
951.0
949.0
948.0
950.0
953.0
954.0
954.0
952.0
951.0
949.0
949.0
953.0
954.0
955.0
955.0
951.0
950.0
956.0
963.0
964.0
960.0
956.0
958.0
966.0
972.0
972.0
969.0
967.0
966.0
965.0
970.0
976.0
989.0
994.0
993.0
993.0
996.0
1000.0
999.0
997.0
999.0
999.0
1001.0
1004.0
1003.0
997.0
989.0
984.0
982.0
977.0
968.0
956.0
946.0
942.0
943.0
947.0
948.0
947.0
945.0
948.0
950.0
951.0
947.0
945.0
944.0
950.0
950.0
950.0
950.0
949.0
947.0
944.0
946.0
952.0
951.0
948.0
945.0
943.0
946.0
951.0
953.0
952.0
948.0
946.0
951.0
955.0
953.0
946.0
935.0
935.0
941.0
947.0
946.0
945.0
939.0
931.0
915.0
902.0
896.0
896.0
894.0
893.0
888.0
880.0
872.0
860.0
852.0
856.0
854.0
844.0
835.0
827.0
824.0
832.0
845.0
853.0
856.0
863.0
875.0
891.0
900.0
911.0
920.0
935.0
944.0
953.0
955.0
957.0
958.0
957.0
956.0
961.0
965.0
967.0
967.0
962.0
959.0
961.0
967.0
969.0
968.0
964.0
961.0
964.0
963.0
967.0
971.0
969.0
968.0
968.0
969.0
968.0
966.0
964.0
962.0
967.0
974.0
980.0
979.0
975.0
971.0
974.0
976.0
979.0
979.0
981.0
979.0
980.0
981.0
984.0
984.0
984.0
983.0
983.0
983.0
986.0
985.0
986.0
983.0
986.0
992.0
997.0
999.0
995.0
993.0
996.0
996.0
998.0
997.0
994.0
993.0
994.0
999.0
1004.0
1002.0
1002.0
996.0
998.0
998.0
1002.0
998.0
1000.0
994.0
995.0
997.0
997.0
993.0
989.0
991.0
996.0
997.0
994.0
989.0
984.0
983.0
984.0
986.0
986.0
981.0
981.0
975.0
977.0
975.0
975.0
974.0
973.0
971.0
974.0
978.0
978.0
974.0
972.0
968.0
972.0
971.0
971.0
965.0
961.0
964.0
973.0
979.0
978.0
972.0
967.0
962.0
963.0
968.0
972.0
975.0
974.0
968.0
968.0
967.0
969.0
968.0
968.0
965.0
963.0
967.0
969.0
969.0
965.0
961.0
962.0
966.0
969.0
965.0
962.0
959.0
963.0
964.0
968.0
962.0
960.0
958.0
963.0
962.0
963.0
961.0
955.0
955.0
956.0
958.0
960.0
958.0
955.0
954.0
954.0
955.0
955.0
955.0
950.0
947.0
949.0
954.0
957.0
959.0
955.0
951.0
948.0
947.0
949.0
950.0
951.0
953.0
954.0
955.0
958.0
955.0
952.0
951.0
954.0
954.0
954.0
951.0
949.0
947.0
949.0
954.0
959.0
960.0
959.0
956.0
956.0
957.0
958.0
958.0
961.0
958.0
958.0
959.0
960.0
960.0
958.0
957.0
960.0
959.0
964.0
962.0
961.0
959.0
960.0
962.0
963.0
964.0
962.0
961.0
963.0
964.0
966.0
968.0
964.0
961.0
961.0
963.0
966.0
963.0
963.0
961.0
961.0
962.0
966.0
965.0
962.0
961.0
963.0
965.0
964.0
963.0
966.0
961.0
960.0
964.0
975.0
980.0
982.0
980.0
980.0
982.0
986.0
984.0
990.0
991.0
998.0
1000.0
1002.0
1007.0
1005.0
1005.0
1004.0
1005.0
1007.0
1009.0
1010.0
1012.0
1012.0
1015.0
1010.0
1003.0
992.0
984.0
981.0
974.0
968.0
960.0
957.0
954.0
955.0
958.0
956.0
956.0
952.0
952.0
948.0
952.0
960.0
964.0
961.0
958.0
955.0
954.0
958.0
956.0
952.0
954.0
954.0
955.0
955.0
954.0
952.0
951.0
953.0
956.0
957.0
956.0
956.0
957.0
954.0
954.0
953.0
954.0
954.0
949.0
946.0
949.0
948.0
944.0
940.0
939.0
941.0
941.0
946.0
947.0
937.0
918.0
907.0
902.0
907.0
909.0
903.0
897.0
891.0
884.0
879.0
872.0
866.0
865.0
864.0
854.0
842.0
833.0
831.0
829.0
834.0
842.0
850.0
856.0
862.0
869.0
885.0
901.0
913.0
922.0
927.0
936.0
952.0
957.0
961.0
965.0
967.0
967.0
967.0
969.0
971.0
975.0
973.0
972.0
972.0
976.0
979.0
975.0
974.0
970.0
970.0
974.0
976.0
980.0
975.0
974.0
976.0
978.0
980.0
980.0
980.0
977.0
981.0
981.0
981.0
984.0
981.0
980.0
981.0
979.0
981.0
981.0
980.0
978.0
982.0
985.0
984.0
984.0
987.0
988.0
990.0
988.0
986.0
987.0
989.0
985.0
990.0
991.0
996.0
998.0
998.0
998.0
997.0
998.0
997.0
999.0
1000.0
1001.0
1001.0
998.0
1001.0
1001.0
1002.0
1001.0
1007.0
1010.0
1008.0
1008.0
1003.0
1001.0
1001.0
1001.0
1000.0
1000.0
1000.0
999.0
998.0
998.0
997.0
996.0
993.0
993.0
995.0
995.0
993.0
986.0
983.0
980.0
982.0
981.0
978.0
976.0
975.0
976.0
974.0
973.0
978.0
977.0
974.0
968.0
970.0
971.0
971.0
967.0
969.0
968.0
973.0
972.0
970.0
969.0
966.0
966.0
963.0
961.0
963.0
964.0
964.0
964.0
964.0
968.0
968.0
968.0
964.0
962.0
963.0
964.0
966.0
962.0
955.0
953.0
957.0
961.0
960.0
959.0
956.0
955.0
951.0
953.0
960.0
960.0
956.0
953.0
954.0
958.0
962.0
961.0
957.0
951.0
950.0
953.0
955.0
955.0
948.0
943.0
945.0
946.0
948.0
947.0
946.0
942.0
944.0
944.0
942.0
943.0
945.0
944.0
947.0
946.0
946.0
945.0
942.0
942.0
943.0
948.0
947.0
943.0
942.0
941.0
944.0
945.0
944.0
945.0
945.0
942.0
942.0
944.0
947.0
949.0
949.0
946.0
944.0
947.0
948.0
949.0
946.0
944.0
949.0
950.0
948.0
944.0
944.0
949.0
955.0
958.0
958.0
952.0
946.0
943.0
949.0
954.0
955.0
952.0
953.0
951.0
954.0
957.0
954.0
952.0
952.0
950.0
953.0
956.0
955.0
956.0
954.0
951.0
948.0
950.0
954.0
959.0
958.0
954.0
952.0
954.0
954.0
959.0
962.0
957.0
955.0
954.0
955.0
953.0
954.0
952.0
953.0
955.0
956.0
957.0
955.0
951.0
946.0
948.0
956.0
968.0
972.0
968.0
968.0
969.0
972.0
972.0
970.0
967.0
975.0
978.0
983.0
985.0
987.0
988.0
996.0
998.0
1003.0
998.0
994.0
995.0
1000.0
1003.0
1010.0
1008.0
1007.0
997.0
982.0
974.0
972.0
967.0
961.0
952.0
949.0
947.0
951.0
950.0
950.0
945.0
947.0
950.0
949.0
946.0
945.0
944.0
946.0
947.0
947.0
948.0
944.0
944.0
947.0
949.0
952.0
949.0
946.0
946.0
943.0
944.0
946.0
951.0
947.0
945.0
944.0
945.0
946.0
947.0
947.0
944.0
947.0
949.0
947.0
943.0
934.0
936.0
941.0
945.0
949.0
948.0
945.0
931.0
916.0
904.0
900.0
896.0
893.0
894.0
894.0
888.0
877.0
868.0
860.0
853.0
853.0
846.0
837.0
827.0
821.0
820.0
821.0
827.0
838.0
847.0
848.0
857.0
876.0
893.0
907.0
915.0
919.0
923.0
934.0
946.0
957.0
961.0
962.0
960.0
962.0
964.0
967.0
967.0
967.0
963.0
966.0
968.0
968.0
969.0
968.0
964.0
966.0
969.0
972.0
971.0
970.0
968.0
967.0
967.0
969.0
974.0
974.0
972.0
968.0
971.0
974.0
972.0
973.0
973.0
972.0
975.0
975.0
976.0
978.0
977.0
979.0
979.0
984.0
982.0
979.0
977.0
978.0
979.0
984.0
988.0
987.0
987.0
986.0
984.0
987.0
990.0
992.0
990.0
990.0
993.0
993.0
994.0
994.0
991.0
992.0
994.0
994.0
994.0
994.0
995.0
997.0
995.0
994.0
995.0
994.0
991.0
994.0
998.0
1000.0
998.0
997.0
995.0
995.0
994.0
993.0
991.0
989.0
984.0
981.0
980.0
983.0
982.0
980.0
978.0
977.0
975.0
977.0
974.0
970.0
970.0
968.0
971.0
973.0
973.0
967.0
966.0
968.0
969.0
970.0
969.0
971.0
969.0
967.0
969.0
971.0
968.0
966.0
965.0
967.0
971.0
970.0
968.0
965.0
963.0
964.0
968.0
967.0
967.0
963.0
961.0
961.0
965.0
965.0
965.0
964.0
962.0
960.0
963.0
964.0
963.0
963.0
958.0
957.0
957.0
961.0
961.0
958.0
953.0
957.0
959.0
959.0
959.0
958.0
953.0
952.0
954.0
954.0
955.0
953.0
948.0
949.0
950.0
951.0
950.0
947.0
943.0
944.0
945.0
950.0
950.0
946.0
942.0
944.0
943.0
947.0
951.0
949.0
945.0
943.0
944.0
948.0
951.0
951.0
947.0
945.0
944.0
947.0
949.0
946.0
948.0
953.0
956.0
952.0
948.0
946.0
948.0
951.0
951.0
953.0
953.0
950.0
949.0
947.0
949.0
949.0
949.0
955.0
955.0
954.0
954.0
954.0
953.0
955.0
953.0
954.0
953.0
953.0
950.0
952.0
951.0
952.0
954.0
955.0
952.0
953.0
949.0
952.0
953.0
952.0
951.0
952.0
951.0
952.0
954.0
956.0
957.0
957.0
954.0
958.0
962.0
960.0
962.0
963.0
960.0
962.0
967.0
969.0
971.0
980.0
986.0
990.0
987.0
989.0
993.0
994.0
993.0
993.0
995.0
1000.0
1004.0
1002.0
996.0
994.0
987.0
982.0
975.0
967.0
959.0
950.0
945.0
944.0
940.0
942.0
941.0
939.0
943.0
943.0
943.0
941.0
939.0
936.0
936.0
942.0
945.0
943.0
938.0
938.0
939.0
943.0
940.0
942.0
943.0
944.0
944.0
944.0
940.0
938.0
936.0
938.0
940.0
939.0
942.0
944.0
940.0
941.0
941.0
942.0
939.0
935.0
929.0
932.0
940.0
948.0
946.0
942.0
943.0
937.0
923.0
903.0
894.0
891.0
891.0
888.0
886.0
885.0
876.0
865.0
855.0
847.0
844.0
841.0
831.0
820.0
810.0
811.0
815.0
823.0
833.0
839.0
841.0
849.0
866.0
885.0
898.0
904.0
909.0
921.0
936.0
945.0
948.0
947.0
947.0
949.0
952.0
956.0
958.0
956.0
954.0
954.0
958.0
959.0
958.0
957.0
957.0
959.0
963.0
965.0
965.0
963.0
960.0
960.0
958.0
962.0
963.0
965.0
962.0
964.0
964.0
966.0
968.0
967.0
966.0
968.0
971.0
974.0
972.0
970.0
968.0
972.0
973.0
970.0
971.0
973.0
975.0
977.0
976.0
978.0
982.0
982.0
980.0
979.0
981.0
983.0
983.0
983.0
982.0
984.0
982.0
986.0
986.0
986.0
984.0
982.0
981.0
989.0
993.0
991.0
987.0
988.0
991.0
994.0
994.0
991.0
988.0
986.0
988.0
987.0
982.0
980.0
977.0
977.0
978.0
979.0
976.0
973.0
971.0
969.0
971.0
970.0
967.0
965.0
962.0
963.0
964.0
963.0
963.0
959.0
951.0
955.0
958.0
961.0
957.0
960.0
954.0
957.0
956.0
958.0
956.0
954.0
953.0
949.0
952.0
957.0
957.0
956.0
952.0
953.0
952.0
955.0
954.0
954.0
951.0
953.0
952.0
955.0
953.0
953.0
951.0
949.0
951.0
954.0
952.0
955.0
950.0
951.0
954.0
956.0
954.0
950.0
947.0
946.0
949.0
951.0
949.0
945.0
943.0
942.0
943.0
944.0
944.0
943.0
939.0
942.0
943.0
947.0
945.0
943.0
942.0
940.0
942.0
942.0
943.0
944.0
942.0
940.0
941.0
941.0
938.0
939.0
938.0
937.0
939.0
941.0
942.0
945.0
942.0
938.0
934.0
940.0
939.0
940.0
937.0
940.0
939.0
940.0
938.0
939.0
939.0
944.0
945.0
943.0
942.0
944.0
945.0
948.0
950.0
949.0
947.0
943.0
942.0
942.0
943.0
946.0
945.0
942.0
940.0
946.0
947.0
948.0
949.0
948.0
945.0
946.0
947.0
946.0
944.0
941.0
944.0
942.0
945.0
944.0
945.0
943.0
945.0
950.0
951.0
952.0
950.0
947.0
945.0
946.0
949.0
951.0
949.0
945.0
946.0
947.0
949.0
951.0
952.0
950.0
948.0
952.0
960.0
966.0
967.0
962.0
962.0
967.0
972.0
976.0
980.0
982.0
983.0
982.0
987.0
994.0
997.0
996.0
992.0
990.0
995.0
998.0
999.0
1000.0
998.0
996.0
988.0
978.0
970.0
962.0
953.0
942.0
939.0
940.0
942.0
942.0
942.0
943.0
945.0
944.0
944.0
940.0
941.0
941.0
940.0
938.0
936.0
938.0
940.0
941.0
944.0
943.0
942.0
941.0
941.0
942.0
944.0
945.0
943.0
942.0
940.0
941.0
942.0
942.0
944.0
943.0
939.0
943.0
946.0
947.0
946.0
941.0
937.0
938.0
947.0
952.0
951.0
949.0
947.0
940.0
923.0
910.0
900.0
900.0
897.0
897.0
895.0
888.0
879.0
871.0
867.0
860.0
859.0
852.0
845.0
838.0
832.0
828.0
827.0
827.0
836.0
845.0
848.0
854.0
868.0
