# Simple Text Format
# Sampling Rate (Hz):= 360.00
# Resolution:= 12
# Labels:= ECG
981.0
981.0
978.0
975.0
976.0
980.0
982.0
980.0
979.0
979.0
978.0
978.0
982.0
983.0
983.0
982.0
979.0
981.0
983.0
981.0
979.0
978.0
979.0
982.0
983.0
982.0
982.0
988.0
990.0
995.0
996.0
992.0
992.0
992.0
994.0
1002.0
1011.0
1011.0
1013.0
1012.0
1014.0
1021.0
1023.0
1022.0
1022.0
1023.0
1023.0
1026.0
1028.0
1022.0
1012.0
1002.0
993.0
989.0
987.0
978.0
970.0
966.0
969.0
974.0
977.0
974.0
973.0
971.0
970.0
968.0
971.0
972.0
970.0
968.0
968.0
972.0
978.0
977.0
972.0
969.0
968.0
969.0
970.0
972.0
971.0
969.0
969.0
971.0
974.0
970.0
972.0
969.0
968.0
969.0
969.0
963.0
962.0
965.0
971.0
978.0
988.0
992.0
985.0
967.0
953.0
949.0
950.0
946.0
942.0
935.0
925.0
916.0
913.0
905.0
898.0
884.0
872.0
864.0
860.0
861.0
864.0
870.0
876.0
884.0
898.0
913.0
926.0
931.0
940.0
950.0
961.0
966.0
971.0
973.0
976.0
980.0
979.0
979.0
978.0
981.0
982.0
984.0
983.0
982.0
982.0
983.0
982.0
984.0
983.0
983.0
986.0
987.0
986.0
987.0
990.0
988.0
985.0
984.0
984.0
988.0
989.0
987.0
986.0
989.0
989.0
990.0
995.0
993.0
991.0
992.0
990.0
993.0
994.0
995.0
995.0
996.0
995.0
997.0
997.0
998.0
998.0
999.0
999.0
1002.0
1005.0
1005.0
1003.0
1003.0
1004.0
1006.0
1009.0
1009.0
1010.0
1010.0
1010.0
1009.0
1013.0
1012.0
1011.0
1009.0
1007.0
1010.0
1012.0
1012.0
1011.0
1008.0
1008.0
1008.0
1008.0
1005.0
1001.0
1001.0
1002.0
1005.0
1007.0
1006.0
1002.0
1000.0
997.0
997.0
999.0
996.0
995.0
988.0
989.0
991.0
991.0
990.0
987.0
985.0
983.0
987.0
988.0
986.0
985.0
981.0
983.0
987.0
988.0
984.0
984.0
983.0
983.0
983.0
983.0
979.0
979.0
982.0
988.0
989.0
987.0
988.0
985.0
984.0
984.0
984.0
988.0
987.0
984.0
978.0
979.0
978.0
977.0
980.0
979.0
981.0
976.0
978.0
979.0
976.0
976.0
974.0
972.0
971.0
970.0
972.0
971.0
972.0
970.0
973.0
976.0
979.0
975.0
973.0
970.0
971.0
973.0
972.0
969.0
966.0
965.0
969.0
969.0
969.0
968.0
966.0
966.0
966.0
967.0
967.0
966.0
963.0
965.0
967.0
972.0
967.0
966.0
965.0
966.0
967.0
969.0
966.0
965.0
966.0
968.0
968.0
968.0
966.0
966.0
968.0
968.0
970.0
974.0
972.0
969.0
968.0
970.0
972.0
975.0
973.0
971.0
968.0
967.0
969.0
974.0
970.0
969.0
967.0
970.0
976.0
975.0
975.0
975.0
975.0
972.0
973.0
974.0
974.0
971.0
970.0
972.0
973.0
973.0
975.0
973.0
972.0
972.0
971.0
973.0
973.0
974.0
975.0
977.0
976.0
975.0
975.0
976.0
975.0
974.0
971.0
975.0
976.0
979.0
975.0
973.0
978.0
982.0
979.0
977.0
971.0
974.0
980.0
985.0
986.0
990.0
990.0
989.0
992.0
997.0
1000.0
1004.0
1006.0
1008.0
1010.0
1018.0
1018.0
1017.0
1017.0
1017.0
1020.0
1025.0
1027.0
1025.0
1021.0
1014.0
1008.0
999.0
993.0
984.0
977.0
969.0
970.0
971.0
974.0
970.0
970.0
968.0
969.0
968.0
966.0
969.0
971.0
972.0
975.0
974.0
973.0
972.0
967.0
969.0
969.0
970.0
975.0
975.0
974.0
972.0
973.0
973.0
973.0
973.0
969.0
971.0
971.0
972.0
974.0
972.0
973.0
970.0
972.0
971.0
971.0
964.0
964.0
965.0
972.0
978.0
980.0
984.0
988.0
985.0
969.0
958.0
953.0
952.0
947.0
946.0
947.0
937.0
926.0
915.0
905.0
899.0
897.0
895.0
887.0
873.0
864.0
862.0
860.0
865.0
871.0
875.0
877.0
882.0
895.0
913.0
927.0
931.0
935.0
943.0
956.0
966.0
974.0
978.0
977.0
980.0
982.0
981.0
978.0
979.0
980.0
984.0
986.0
988.0
987.0
983.0
982.0
984.0
985.0
989.0
987.0
986.0
984.0
984.0
988.0
989.0
989.0
988.0
985.0
984.0
988.0
991.0
987.0
989.0
989.0
990.0
992.0
993.0
992.0
991.0
988.0
988.0
993.0
997.0
997.0
994.0
992.0
995.0
1001.0
1006.0
1002.0
999.0
998.0
998.0
999.0
1003.0
1004.0
1002.0
1001.0
1002.0
1004.0
1009.0
1011.0
1010.0
1010.0
1009.0
1012.0
1014.0
1014.0
1012.0
1009.0
1011.0
1013.0
1016.0
1016.0
1015.0
1013.0
1013.0
1013.0
1011.0
1013.0
1008.0
1007.0
1010.0
1013.0
1017.0
1014.0
1008.0
1002.0
1005.0
1006.0
1006.0
1005.0
1001.0
998.0
998.0
998.0
997.0
998.0
993.0
990.0
991.0
992.0
993.0
992.0
989.0
987.0
988.0
994.0
992.0
993.0
990.0
984.0
980.0
983.0
987.0
989.0
988.0
985.0
981.0
984.0
987.0
988.0
985.0
982.0
981.0
983.0
981.0
979.0
981.0
978.0
982.0
982.0
983.0
983.0
978.0
980.0
980.0
980.0
981.0
977.0
977.0
975.0
976.0
976.0
978.0
981.0
980.0
976.0
971.0
972.0
976.0
978.0
975.0
973.0
974.0
974.0
973.0
973.0
967.0
965.0
966.0
969.0
973.0
972.0
971.0
969.0
969.0
970.0
970.0
969.0
967.0
964.0
964.0
965.0
968.0
967.0
965.0
965.0
967.0
970.0
971.0
971.0
968.0
964.0
965.0
970.0
971.0
967.0
966.0
965.0
967.0
972.0
977.0
978.0
974.0
968.0
971.0
974.0
979.0
978.0
976.0
970.0
968.0
975.0
979.0
977.0
973.0
976.0
980.0
981.0
976.0
977.0
973.0
967.0
970.0
978.0
987.0
984.0
976.0
973.0
976.0
978.0
979.0
978.0
977.0
977.0
978.0
981.0
980.0
981.0
980.0
977.0
981.0
980.0
979.0
980.0
979.0
980.0
980.0
985.0
985.0
986.0
986.0
983.0
983.0
984.0
984.0
988.0
987.0
982.0
980.0
983.0
985.0
986.0
987.0
982.0
980.0
982.0
985.0
985.0
982.0
979.0
980.0
988.0
990.0
990.0
992.0
987.0
992.0
998.0
1000.0
1000.0
999.0
1000.0
1010.0
1015.0
1017.0
1018.0
1016.0
1017.0
1019.0
1020.0
1021.0
1023.0
1022.0
1023.0
1024.0
1025.0
1025.0
1015.0
1007.0
999.0
993.0
986.0
980.0
973.0
969.0
970.0
972.0
972.0
975.0
973.0
972.0
970.0
969.0
972.0
972.0
971.0
968.0
968.0
971.0
969.0
968.0
966.0
966.0
968.0
972.0
971.0
971.0
972.0
971.0
971.0
970.0
972.0
971.0
969.0
968.0
969.0
972.0
972.0
973.0
969.0
969.0
968.0
970.0
966.0
962.0
961.0
967.0
975.0
981.0
979.0
982.0
985.0
974.0
958.0
946.0
942.0
943.0
943.0
940.0
939.0
931.0
921.0
918.0
906.0
900.0
895.0
888.0
880.0
871.0
862.0
855.0
854.0
861.0
872.0
882.0
882.0
886.0
897.0
913.0
927.0
936.0
942.0
950.0
956.0
965.0
971.0
976.0
975.0
976.0
975.0
976.0
980.0
981.0
979.0
977.0
974.0
977.0
981.0
984.0
986.0
986.0
981.0
979.0
982.0
983.0
981.0
979.0
978.0
982.0
985.0
986.0
986.0
981.0
980.0
982.0
985.0
984.0
982.0
980.0
981.0
982.0
980.0
979.0
980.0
979.0
979.0
982.0
988.0
990.0
990.0
987.0
987.0
990.0
994.0
995.0
997.0
998.0
996.0
992.0
992.0
993.0
991.0
996.0
999.0
1005.0
1002.0
1001.0
1001.0
1003.0
1000.0
999.0
997.0
1004.0
1004.0
1002.0
998.0
997.0
1001.0
1003.0
1002.0
1003.0
1001.0
1003.0
1009.0
1008.0
1002.0
999.0
994.0
996.0
994.0
999.0
995.0
992.0
986.0
982.0
979.0
982.0
985.0
988.0
982.0
977.0
970.0
968.0
970.0
971.0
968.0
970.0
970.0
971.0
969.0
967.0
964.0
963.0
964.0
967.0
969.0
964.0
960.0
958.0
955.0
960.0
962.0
960.0
956.0
955.0
953.0
954.0
951.0
951.0
950.0
955.0
958.0
959.0
957.0
949.0
943.0
941.0
943.0
947.0
947.0
952.0
951.0
947.0
947.0
949.0
947.0
947.0
947.0
945.0
949.0
952.0
953.0
947.0
944.0
941.0
937.0
940.0
938.0
936.0
931.0
928.0
929.0
931.0
927.0
925.0
926.0
936.0
941.0
944.0
933.0
921.0
912.0
910.0
919.0
925.0
926.0
928.0
928.0
930.0
924.0
916.0
918.0
925.0
923.0
924.0
928.0
933.0
929.0
914.0
898.0
899.0
910.0
922.0
927.0
926.0
921.0
915.0
912.0
918.0
923.0
924.0
923.0
919.0
919.0
917.0
917.0
923.0
930.0
932.0
927.0
923.0
919.0
908.0
904.0
908.0
919.0
923.0
921.0
917.0
912.0
915.0
916.0
920.0
921.0
925.0
929.0
923.0
912.0
908.0
904.0
911.0
915.0
921.0
926.0
921.0
911.0
907.0
911.0
918.0
918.0
923.0
923.0
920.0
916.0
918.0
917.0
916.0
920.0
919.0
913.0
911.0
915.0
925.0
923.0
915.0
909.0
912.0
921.0
928.0
925.0
913.0
908.0
910.0
912.0
915.0
917.0
915.0
909.0
902.0
902.0
912.0
917.0
918.0
916.0
911.0
913.0
915.0
918.0
918.0
911.0
908.0
907.0
909.0
911.0
909.0
911.0
909.0
911.0
911.0
915.0
916.0
908.0
905.0
904.0
907.0
907.0
908.0
906.0
910.0
913.0
913.0
912.0
910.0
910.0
913.0
915.0
918.0
919.0
917.0
915.0
913.0
915.0
920.0
920.0
919.0
917.0
919.0
918.0
920.0
923.0
921.0
915.0
913.0
915.0
923.0
923.0
921.0
916.0
917.0
918.0
923.0
925.0
926.0
922.0
920.0
919.0
923.0
927.0
928.0
927.0
932.0
939.0
941.0
941.0
939.0
940.0
946.0
954.0
955.0
958.0
963.0
960.0
963.0
964.0
968.0
966.0
966.0
967.0
974.0
980.0
982.0
984.0
977.0
964.0
953.0
950.0
948.0
947.0
938.0
934.0
925.0
923.0
923.0
924.0
923.0
920.0
923.0
923.0
928.0
929.0
926.0
927.0
926.0
926.0
925.0
928.0
929.0
928.0
927.0
928.0
929.0
930.0
930.0
930.0
931.0
931.0
930.0
927.0
926.0
925.0
927.0
930.0
928.0
934.0
935.0
931.0
931.0
933.0
936.0
934.0
933.0
929.0
929.0
938.0
947.0
954.0
954.0
955.0
957.0
958.0
945.0
928.0
918.0
912.0
909.0
908.0
908.0
903.0
892.0
886.0
883.0
877.0
871.0
861.0
849.0
836.0
829.0
830.0
830.0
830.0
830.0
834.0
840.0
844.0
851.0
863.0
878.0
886.0
895.0
905.0
914.0
922.0
929.0
935.0
941.0
949.0
952.0
953.0
952.0
948.0
950.0
956.0
959.0
959.0
959.0
958.0
955.0
959.0
963.0
967.0
966.0
962.0
964.0
964.0
966.0
965.0
963.0
962.0
964.0
966.0
970.0
971.0
970.0
968.0
969.0
969.0
970.0
969.0
972.0
972.0
974.0
978.0
981.0
980.0
978.0
975.0
978.0
978.0
980.0
982.0
980.0
980.0
980.0
986.0
986.0
984.0
986.0
986.0
986.0
993.0
992.0
991.0
994.0
989.0
994.0
995.0
999.0
1000.0
999.0
998.0
998.0
1000.0
1000.0
1000.0
1002.0
1005.0
1008.0
1008.0
1005.0
1003.0
1001.0
1001.0
1003.0
1009.0
1011.0
1008.0
1005.0
1005.0
1005.0
1004.0
1003.0
1003.0
1002.0
1000.0
1000.0
1000.0
998.0
1002.0
1002.0
1001.0
1000.0
998.0
997.0
997.0
998.0
995.0
995.0
994.0
991.0
989.0
986.0
986.0
987.0
990.0
990.0
995.0
995.0
992.0
990.0
989.0
992.0
990.0
989.0
988.0
991.0
992.0
993.0
991.0
991.0
988.0
988.0
989.0
990.0
994.0
992.0
990.0
992.0
994.0
997.0
995.0
994.0
991.0
994.0
995.0
997.0
995.0
996.0
992.0
992.0
993.0
993.0
993.0
995.0
994.0
995.0
995.0
992.0
990.0
991.0
988.0
991.0
992.0
991.0
991.0
991.0
988.0
988.0
991.0
996.0
996.0
996.0
992.0
992.0
993.0
993.0
991.0
991.0
987.0
988.0
988.0
992.0
991.0
992.0
987.0
987.0
987.0
989.0
987.0
987.0
983.0
983.0
984.0
989.0
989.0
988.0
985.0
986.0
990.0
992.0
995.0
991.0
987.0
990.0
991.0
995.0
993.0
994.0
991.0
992.0
994.0
999.0
995.0
993.0
995.0
993.0
995.0
997.0
997.0
994.0
992.0
994.0
993.0
997.0
1000.0
1000.0
997.0
997.0
997.0
1002.0
1001.0
1001.0
1001.0
999.0
1003.0
1005.0
1004.0
998.0
999.0
1002.0
1003.0
1006.0
1006.0
1005.0
1004.0
1004.0
1007.0
1007.0
1008.0
1005.0
1001.0
1000.0
1007.0
1012.0
1012.0
1005.0
1002.0
1004.0
1007.0
1010.0
1012.0
1011.0
1011.0
1010.0
1011.0
1009.0
1010.0
1009.0
1009.0
1008.0
1006.0
1010.0
1011.0
1011.0
1013.0
1013.0
1014.0
1014.0
1016.0
1012.0
1010.0
1009.0
1011.0
1012.0
1013.0
1012.0
1012.0
1014.0
1013.0
1015.0
1015.0
1013.0
1010.0
1011.0
1013.0
1013.0
1015.0
1014.0
1012.0
1011.0
1016.0
1018.0
1017.0
1018.0
1015.0
1016.0
1016.0
1015.0
1016.0
1015.0
1014.0
1015.0
1020.0
1020.0
1019.0
1018.0
1015.0
1017.0
1019.0
1020.0
1019.0
1018.0
1013.0
1014.0
1017.0
1023.0
1021.0
1020.0
1019.0
1018.0
1020.0
1020.0
1018.0
1019.0
1020.0
1023.0
1022.0
1023.0
1022.0
1021.0
1019.0
1021.0
1019.0
1021.0
1022.0
1020.0
1015.0
1017.0
1021.0
1027.0
1029.0
1026.0
1022.0
1024.0
1027.0
1027.0
1026.0
1024.0
1022.0
1023.0
1024.0
1023.0
1023.0
1024.0
1023.0
1023.0
1024.0
1027.0
1025.0
1024.0
1022.0
1023.0
1028.0
1029.0
1028.0
1028.0
1023.0
1024.0
1029.0
1033.0
1037.0
1040.0
1037.0
1038.0
1041.0
1042.0
1043.0
1050.0
1049.0
1055.0
1059.0
1060.0
1064.0
1065.0
1066.0
1068.0
1069.0
1072.0
1075.0
1075.0
1073.0
1073.0
1070.0
1060.0
1052.0
1044.0
1039.0
1032.0
1027.0
1020.0
1017.0
1015.0
1019.0
1021.0
1023.0
1024.0
1024.0
1022.0
1013.0
1015.0
1018.0
1023.0
1023.0
1023.0
1021.0
1021.0
1021.0
1021.0
1019.0
1021.0
1020.0
1022.0
1021.0
1022.0
1022.0
1020.0
1020.0
1019.0
1020.0
1022.0
1021.0
1018.0
1019.0
1019.0
1021.0
1021.0
1022.0
1024.0
1020.0
1015.0
1019.0
1022.0
1029.0
1031.0
1032.0
1038.0
1041.0
1039.0
1017.0
1002.0
995.0
994.0
1001.0
1000.0
990.0
973.0
960.0
955.0
952.0
948.0
942.0
927.0
914.0
907.0
906.0
907.0
912.0
916.0
921.0
928.0
936.0
952.0
968.0
979.0
985.0
991.0
999.0
1009.0
1018.0
1025.0
1031.0
1030.0
1034.0
1036.0
1037.0
1038.0
1036.0
1035.0
1035.0
1038.0
1039.0
1040.0
1037.0
1040.0
1038.0
1038.0
1040.0
1039.0
1036.0
1040.0
1042.0
1045.0
1043.0
1040.0
1039.0
1037.0
1042.0
1044.0
1045.0
1046.0
1041.0
1042.0
1042.0
1049.0
1046.0
1045.0
1042.0
1044.0
1045.0
1050.0
1052.0
1050.0
1047.0
1049.0
1050.0
1053.0
1055.0
1055.0
1052.0
1052.0
1054.0
1055.0
1055.0
1053.0
1050.0
1051.0
1054.0
1057.0
1057.0
1059.0
1057.0
1060.0
1063.0
1063.0
1062.0
1061.0
1059.0
1060.0
1062.0
1063.0
1065.0
1062.0
1060.0
1061.0
1062.0
1067.0
1066.0
1062.0
1058.0
1057.0
1061.0
1062.0
1060.0
1058.0
1054.0
1059.0
1062.0
1061.0
1057.0
1056.0
1050.0
1049.0
1052.0
1052.0
1050.0
1049.0
1045.0
1043.0
1043.0
1045.0
1043.0
1041.0
1037.0
1041.0
1042.0
1043.0
1043.0
1041.0
1032.0
1036.0
1040.0
1042.0
1043.0
1040.0
1034.0
1035.0
1036.0
1038.0
1037.0
1039.0
1033.0
1034.0
1036.0
1038.0
1038.0
1037.0
1035.0
1031.0
1034.0
1034.0
1033.0
1034.0
1031.0
1033.0
1032.0
1032.0
1034.0
1033.0
1030.0
1030.0
1032.0
1033.0
1033.0
1031.0
1027.0
1025.0
1026.0
1026.0
1024.0
1022.0
1018.0
1022.0
1022.0
1023.0
1025.0
1022.0
1023.0
1022.0
1024.0
1023.0
1021.0
1018.0
1015.0
1013.0
1015.0
1018.0
1018.0
1018.0
1015.0
1016.0
1018.0
1017.0
1017.0
1016.0
1015.0
1013.0
1015.0
1018.0
1018.0
1017.0
1017.0
1018.0
1018.0
1021.0
1019.0
1017.0
1016.0
1015.0
1019.0
1018.0
1018.0
1018.0
1016.0
1017.0
1017.0
1020.0
1020.0
1019.0
1015.0
1016.0
1016.0
1023.0
1023.0
1022.0
1018.0
1018.0
1018.0
1020.0
1018.0
1014.0
1016.0
1019.0
1022.0
1023.0
1021.0
1021.0
1019.0
1019.0
1019.0
1019.0
1019.0
1019.0
1015.0
1017.0
1018.0
1020.0
1022.0
1020.0
1016.0
1017.0
1019.0
1019.0
1018.0
1017.0
1013.0
1016.0
1018.0
1023.0
1021.0
1021.0
1017.0
1016.0
1019.0
1020.0
1019.0
1014.0
1009.0
1012.0
1017.0
1017.0
1017.0
1013.0
1012.0
1013.0
1016.0
1017.0
1014.0
1014.0
1013.0
1014.0
1014.0
1015.0
1016.0
1016.0
1013.0
1013.0
1015.0
1015.0
1015.0
1014.0
1011.0
1012.0
1018.0
1020.0
1019.0
1016.0
1011.0
1013.0
1017.0
1018.0
1016.0
1014.0
1013.0
1014.0
1016.0
1016.0
1015.0
1012.0
1011.0
1014.0
1014.0
1018.0
1016.0
1015.0
1015.0
1015.0
1013.0
1014.0
1017.0
1015.0
1013.0
1016.0
1016.0
1016.0
1016.0
1017.0
1018.0
1018.0
1022.0
1024.0
1025.0
1023.0
1023.0
1025.0
1028.0
1027.0
1035.0
1036.0
1038.0
1045.0
1048.0
1053.0
1059.0
1056.0
1050.0
1054.0
1058.0
1060.0
1062.0
1064.0
1064.0
1060.0
1059.0
1050.0
1039.0
1029.0
1022.0
1017.0
1013.0
1007.0
1004.0
1005.0
1008.0
1009.0
1008.0
1006.0
1010.0
1009.0
1005.0
1003.0
1002.0
1005.0
1007.0
1001.0
1004.0
1005.0
1004.0
1010.0
1009.0
1007.0
1002.0
1002.0
1004.0
1006.0
1005.0
1005.0
1004.0
1005.0
1005.0
1007.0
1005.0
1004.0
1000.0
1002.0
1008.0
1008.0
1003.0
1002.0
1007.0
1015.0
1023.0
1027.0
1029.0
1032.0
1029.0
1014.0
997.0
987.0
982.0
982.0
979.0
975.0
963.0
958.0
953.0
940.0
929.0
918.0
906.0
898.0
889.0
883.0
884.0
895.0
904.0
907.0
915.0
928.0
945.0
958.0
968.0
977.0
986.0
996.0
997.0
1002.0
1005.0
1007.0
1009.0
1011.0
1011.0
1012.0
1015.0
1015.0
1014.0
1014.0
1012.0
1011.0
1013.0
1017.0
1015.0
1014.0
1013.0
1015.0
1019.0
1019.0
1015.0
1013.0
1014.0
1016.0
1020.0
1018.0
1020.0
1017.0
1018.0
1018.0
1018.0
1023.0
1023.0
1022.0
1020.0
1020.0
1023.0
1023.0
1026.0
1025.0
1023.0
1024.0
1024.0
1028.0
1030.0
1030.0
1027.0
1027.0
1030.0
1030.0
1031.0
1030.0
1030.0
1031.0
1033.0
1036.0
1038.0
1035.0
1032.0
1036.0
1035.0
1038.0
1040.0
1038.0
1037.0
1039.0
1037.0
1035.0
1032.0
1032.0
1033.0
1038.0
1039.0
1038.0
1037.0
1035.0
1035.0
1031.0
1032.0
1033.0
1031.0
1031.0
1026.0
1026.0
1026.0
1028.0
1025.0
1022.0
1018.0
1017.0
1017.0
1016.0
1020.0
1017.0
1015.0
1012.0
1014.0
1014.0
1016.0
1011.0
1012.0
1014.0
1013.0
1012.0
1010.0
1009.0
1008.0
1008.0
1010.0
1012.0
1013.0
1011.0
1010.0
1010.0
1011.0
1013.0
1014.0
1012.0
1008.0
1007.0
1009.0
1011.0
1011.0
1010.0
1006.0
1006.0
1006.0
1009.0
1008.0
1008.0
1005.0
1006.0
1008.0
1010.0
1008.0
1008.0
1006.0
1007.0
1009.0
1010.0
1005.0
1005.0
1000.0
1004.0
1003.0
1002.0
1002.0
1002.0
1002.0
1006.0
1005.0
1005.0
1003.0
1001.0
997.0
996.0
998.0
1004.0
1003.0
1002.0
998.0
997.0
1000.0
999.0
998.0
997.0
996.0
996.0
995.0
997.0
999.0
996.0
993.0
992.0
995.0
1000.0
995.0
994.0
994.0
998.0
999.0
1000.0
998.0
995.0
996.0
998.0
999.0
1000.0
999.0
998.0
999.0
999.0
1001.0
1004.0
1004.0
1004.0
1000.0
1000.0
1000.0
1001.0
1002.0
1004.0
999.0
999.0
1002.0
1004.0
1004.0
1003.0
1001.0
1001.0
1000.0
1002.0
1004.0
1003.0
1001.0
999.0
1002.0
1005.0
1006.0
1003.0
999.0
1001.0
1003.0
1005.0
1006.0
1005.0
1002.0
1003.0
1004.0
1007.0
1008.0
1005.0
1004.0
1003.0
1004.0
1005.0
1003.0
1005.0
1002.0
1005.0
1005.0
1009.0
1008.0
1007.0
1004.0
1005.0
1007.0
1009.0
1011.0
1007.0
1004.0
1004.0
1003.0
1005.0
1007.0
1006.0
1005.0
1001.0
1005.0
1006.0
1005.0
1003.0
1003.0
1002.0
1003.0
1005.0
1005.0
1004.0
1002.0
1003.0
1005.0
1007.0
1009.0
1006.0
1001.0
1002.0
1003.0
1006.0
1007.0
1007.0
1003.0
1003.0
1003.0
1004.0
1006.0
1007.0
1007.0
1010.0
1013.0
1017.0
1018.0
1017.0
1014.0
1016.0
1021.0
1027.0
1032.0
1034.0
1034.0
1036.0
1042.0
1046.0
1046.0
1044.0
1042.0
1046.0
1049.0
1054.0
1055.0
1048.0
1037.0
1028.0
1020.0
1013.0
1006.0
999.0
994.0
994.0
997.0
997.0
999.0
997.0
995.0
995.0
996.0
995.0
994.0
993.0
992.0
995.0
997.0
997.0
999.0
998.0
994.0
993.0
995.0
998.0
997.0
996.0
992.0
993.0
997.0
998.0
999.0
997.0
992.0
994.0
995.0
998.0
998.0
997.0
994.0
990.0
992.0
996.0
1002.0
1007.0
1008.0
1011.0
1012.0
1001.0
982.0
968.0
960.0
960.0
960.0
956.0
945.0
931.0
923.0
917.0
914.0
906.0
892.0
881.0
875.0
873.0
873.0
879.0
888.0
896.0
899.0
911.0
928.0
946.0
955.0
963.0
969.0
982.0
993.0
999.0
1002.0
1003.0
1000.0
1002.0
1006.0
1008.0
1009.0
1005.0
1005.0
1007.0
1009.0
1010.0
1010.0
1011.0
1008.0
1009.0
1009.0
1012.0
1012.0
1013.0
1012.0
1014.0
1013.0
1014.0
1016.0
1014.0
1012.0
1012.0
1015.0
1020.0
1020.0
1017.0
1015.0
1018.0
1018.0
1018.0
1016.0
1015.0
1015.0
1017.0
1019.0
1021.0
1020.0
1021.0
1017.0
1018.0
1018.0
1020.0
1022.0
1021.0
1019.0
1019.0
1021.0
1024.0
1028.0
1026.0
1023.0
1026.0
1028.0
1031.0
1031.0
1032.0
1027.0
1031.0
1032.0
1033.0
1030.0
1032.0
1031.0
1032.0
1035.0
1033.0
1035.0
1034.0
1032.0
1031.0
1034.0
1034.0
1031.0
1030.0
1025.0
1027.0
1030.0
1032.0
1032.0
1030.0
1024.0
1022.0
1023.0
1023.0
1020.0
1021.0
1017.0
1018.0
1019.0
1019.0
1018.0
1015.0
1012.0
1007.0
1009.0
1013.0
1013.0
1013.0
1010.0
1010.0
1011.0
1009.0
1009.0
1005.0
1004.0
1007.0
1008.0
1010.0
1009.0
1006.0
1007.0
1004.0
1005.0
1006.0
1009.0
1006.0
1002.0
1002.0
1004.0
1004.0
1003.0
1002.0
1000.0
1001.0
1005.0
1007.0
1005.0
1003.0
999.0
1001.0
1002.0
1002.0
1002.0
1001.0
999.0
998.0
1002.0
1001.0
999.0
1000.0
999.0
999.0
999.0
1000.0
997.0
998.0
995.0
997.0
999.0
997.0
994.0
993.0
988.0
991.0
993.0
992.0
994.0
994.0
992.0
991.0
992.0
992.0
994.0
994.0
992.0
992.0
991.0
992.0
992.0
991.0
990.0
993.0
992.0
993.0
990.0
993.0
990.0
990.0
991.0
994.0
996.0
995.0
992.0
995.0
993.0
994.0
995.0
993.0
989.0
992.0
996.0
996.0
996.0
994.0
993.0
994.0
996.0
997.0
995.0
995.0
993.0
993.0
995.0
996.0
997.0
994.0
990.0
991.0
994.0
997.0
999.0
998.0
994.0
994.0
993.0
997.0
1001.0
997.0
993.0
995.0
997.0
997.0
997.0
996.0
996.0
998.0
999.0
999.0
997.0
996.0
993.0
993.0
993.0
998.0
997.0
996.0
993.0
995.0
998.0
999.0
1000.0
997.0
996.0
996.0
999.0
1001.0
998.0
996.0
995.0
996.0
1000.0
1001.0
1001.0
1002.0
999.0
994.0
996.0
996.0
994.0
995.0
997.0
1001.0
1003.0
1002.0
1002.0
1001.0
997.0
997.0
995.0
999.0
1000.0
998.0
996.0
995.0
1000.0
1000.0
1000.0
999.0
998.0
1003.0
1009.0
1010.0
1010.0
1008.0
1009.0
1012.0
1016.0
1020.0
1024.0
1027.0
1026.0
1028.0
1030.0
1035.0
1035.0
1035.0
1033.0
1034.0
1038.0
1037.0
1041.0
1041.0
1040.0
1039.0
1034.0
1024.0
1017.0
1008.0
1001.0
995.0
991.0
987.0
988.0
988.0
986.0
990.0
990.0
991.0
989.0
988.0
985.0
984.0
983.0
985.0
985.0
984.0
982.0
985.0
986.0
986.0
985.0
984.0
979.0
986.0
986.0
988.0
986.0
986.0
982.0
983.0
983.0
983.0
985.0
983.0
980.0
984.0
985.0
987.0
988.0
986.0
983.0
979.0
981.0
978.0
985.0
994.0
993.0
996.0
998.0
1003.0
1000.0
983.0
968.0
960.0
957.0
956.0
956.0
949.0
946.0
937.0
928.0
925.0
919.0
910.0
900.0
894.0
888.0
876.0
867.0
862.0
863.0
867.0
877.0
886.0
890.0
893.0
900.0
913.0
932.0
942.0
951.0
957.0
964.0
973.0
984.0
989.0
990.0
992.0
990.0
990.0
991.0
993.0
992.0
995.0
996.0
997.0
1003.0
1008.0
1009.0
1006.0
1000.0
1000.0
1002.0
1004.0
1005.0
1004.0
1000.0
1000.0
1000.0
1003.0
999.0
1000.0
1001.0
999.0
1003.0
1005.0
1001.0
998.0
998.0
999.0
1004.0
1008.0
1011.0
1007.0
1004.0
1004.0
1006.0
1010.0
1007.0
1006.0
1003.0
1004.0
1006.0
1008.0
1011.0
1013.0
1010.0
1011.0
1012.0
1014.0
1013.0
1014.0
1014.0
1012.0
1015.0
1018.0
1018.0
1018.0
1016.0
1015.0
1020.0
1024.0
1023.0
1021.0
1018.0
1022.0
1021.0
1023.0
1021.0
1018.0
1018.0
1020.0
1023.0
1021.0
1022.0
1020.0
1014.0
1012.0
1012.0
1013.0
1014.0
1012.0
1010.0
1009.0
1010.0
1010.0
1008.0
1002.0
1001.0
1001.0
1002.0
1004.0
999.0
999.0
996.0
996.0
996.0
997.0
997.0
998.0
995.0
998.0
997.0
998.0
996.0
993.0
991.0
993.0
994.0
993.0
992.0
988.0
988.0
990.0
993.0
995.0
995.0
995.0
990.0
992.0
994.0
992.0
993.0
990.0
987.0
986.0
987.0
991.0
990.0
990.0
987.0
989.0
988.0
990.0
991.0
990.0
986.0
985.0
987.0
987.0
988.0
986.0
985.0
983.0
987.0
985.0
984.0
983.0
981.0
979.0
982.0
982.0
983.0
979.0
978.0
978.0
978.0
981.0
977.0
977.0
975.0
977.0
978.0
979.0
978.0
974.0
973.0
974.0
978.0
977.0
973.0
973.0
973.0
978.0
979.0
979.0
976.0
976.0
974.0
974.0
975.0
976.0
975.0
975.0
974.0
975.0
979.0
980.0
978.0
976.0
974.0
975.0
978.0
978.0
977.0
980.0
975.0
976.0
979.0
981.0
978.0
977.0
978.0
978.0
979.0
981.0
979.0
976.0
974.0
978.0
981.0
983.0
982.0
982.0
979.0
977.0
979.0
980.0
980.0
977.0
977.0
980.0
979.0
980.0
982.0
980.0
979.0
977.0
980.0
983.0
983.0
980.0
977.0
980.0
982.0
984.0
982.0
979.0
977.0
979.0
978.0
985.0
986.0
983.0
978.0
978.0
981.0
982.0
982.0
982.0
979.0
981.0
982.0
983.0
980.0
979.0
977.0
980.0
982.0
984.0
982.0
982.0
980.0
978.0
979.0
982.0
981.0
981.0
976.0
981.0
983.0
983.0
980.0
977.0
977.0
981.0
982.0
981.0
983.0
981.0
978.0
979.0
984.0
991.0
994.0
992.0
990.0
991.0
993.0
996.0
998.0
1002.0
1005.0
1009.0
1010.0
1013.0
1015.0
1015.0
1016.0
1018.0
1022.0
1022.0
1021.0
1022.0
1021.0
1021.0
1015.0
1012.0
1002.0
994.0
987.0
982.0
978.0
973.0
968.0
969.0
966.0
969.0
970.0
971.0
970.0
967.0
966.0
966.0
965.0
968.0
968.0
965.0
965.0
967.0
969.0
971.0
971.0
968.0
966.0
968.0
968.0
970.0
970.0
967.0
966.0
968.0
970.0
970.0
967.0
964.0
965.0
964.0
965.0
966.0
969.0
967.0
963.0
960.0
963.0
972.0
976.0
977.0
980.0
984.0
979.0
963.0
950.0
942.0
940.0
943.0
945.0
937.0
924.0
916.0
909.0
899.0
893.0
885.0
873.0
863.0
857.0
854.0
856.0
863.0
871.0
874.0
876.0
888.0
901.0
916.0
925.0
932.0
934.0
944.0
957.0
972.0
977.0
974.0
970.0
972.0
975.0
978.0
982.0
981.0
981.0
981.0
983.0
984.0
981.0
979.0
979.0
982.0
984.0
985.0
983.0
982.0
981.0
980.0
984.0
984.0
984.0
982.0
981.0
980.0
981.0
981.0
984.0
987.0
986.0
985.0
984.0
985.0
984.0
988.0
988.0
989.0
991.0
990.0
986.0
988.0
987.0
988.0
990.0
995.0
996.0
995.0
992.0
992.0
996.0
998.0
996.0
995.0
998.0
998.0
1002.0
1002.0
1000.0
1002.0
1000.0
998.0
1001.0
1002.0
1005.0
1004.0
1000.0
1002.0
1005.0
1008.0
1006.0
1005.0
1002.0
1004.0
1007.0
1008.0
1004.0
1001.0
1001.0
1002.0
1003.0
1003.0
1001.0
1000.0
997.0
995.0
996.0
996.0
992.0
990.0
987.0
986.0
986.0
986.0
990.0
987.0
984.0
981.0
985.0
983.0
982.0
980.0
977.0
977.0
978.0
979.0
979.0
979.0
978.0
978.0
983.0
982.0
982.0
978.0
976.0
974.0
975.0
976.0
974.0
972.0
975.0
978.0
978.0
977.0
976.0
976.0
975.0
974.0
976.0
974.0
975.0
975.0
973.0
973.0
972.0
972.0
972.0
973.0
969.0
970.0
971.0
974.0
974.0
970.0
970.0
967.0
969.0
967.0
966.0
967.0
968.0
971.0
972.0
970.0
969.0
968.0
967.0
966.0
968.0
968.0
967.0
963.0
961.0
963.0
962.0
963.0
965.0
960.0
962.0
962.0
965.0
966.0
962.0
960.0
959.0
962.0
967.0
965.0
964.0
964.0
962.0
963.0
966.0
966.0
968.0
966.0
962.0
963.0
963.0
967.0
965.0
964.0
964.0
965.0
967.0
