# Simple Text Format
# Sampling Rate (Hz):= 360.00
# Resolution:= 12
# Labels:= ECG
850.0
853.0
850.0
853.0
856.0
857.0
858.0
856.0
856.0
850.0
848.0
846.0
843.0
847.0
849.0
853.0
856.0
855.0
856.0
857.0
857.0
862.0
865.0
867.0
868.0
871.0
872.0
876.0
885.0
888.0
896.0
902.0
905.0
909.0
912.0
917.0
926.0
929.0
933.0
935.0
934.0
935.0
934.0
932.0
931.0
933.0
934.0
931.0
933.0
936.0
936.0
937.0
937.0
937.0
938.0
934.0
930.0
928.0
922.0
917.0
915.0
916.0
917.0
923.0
926.0
924.0
925.0
922.0
919.0
920.0
918.0
918.0
914.0
917.0
919.0
917.0
918.0
921.0
922.0
922.0
921.0
920.0
920.0
918.0
918.0
917.0
916.0
918.0
917.0
918.0
921.0
924.0
927.0
926.0
925.0
922.0
917.0
912.0
908.0
909.0
910.0
911.0
915.0
914.0
915.0
918.0
918.0
922.0
922.0
924.0
925.0
927.0
929.0
933.0
934.0
935.0
935.0
935.0
934.0
934.0
936.0
937.0
941.0
943.0
946.0
946.0
945.0
944.0
944.0
936.0
930.0
924.0
923.0
923.0
921.0
920.0
917.0
914.0
907.0
904.0
904.0
903.0
902.0
903.0
901.0
901.0
902.0
903.0
905.0
908.0
909.0
912.0
911.0
912.0
911.0
910.0
908.0
909.0
908.0
910.0
910.0
915.0
915.0
915.0
915.0
923.0
935.0
952.0
971.0
997.0
1029.0
1055.0
1075.0
1081.0
1071.0
1044.0
1008.0
969.0
933.0
896.0
854.0
816.0
795.0
789.0
794.0
806.0
820.0
832.0
845.0
854.0
858.0
864.0
871.0
877.0
880.0
880.0
879.0
881.0
881.0
881.0
880.0
882.0
882.0
881.0
880.0
877.0
876.0
878.0
878.0
879.0
880.0
882.0
882.0
879.0
878.0
877.0
873.0
868.0
870.0
871.0
873.0
875.0
875.0
878.0
876.0
876.0
875.0
873.0
870.0
868.0
866.0
864.0
865.0
867.0
869.0
869.0
870.0
870.0
871.0
869.0
869.0
866.0
860.0
860.0
860.0
860.0
862.0
863.0
863.0
861.0
856.0
850.0
847.0
844.0
843.0
846.0
848.0
846.0
847.0
849.0
850.0
850.0
851.0
850.0
852.0
852.0
851.0
854.0
858.0
861.0
864.0
862.0
871.0
873.0
876.0
878.0
879.0
882.0
889.0
898.0
909.0
916.0
922.0
924.0
923.0
920.0
916.0
915.0
914.0
922.0
926.0
934.0
938.0
942.0
940.0
937.0
935.0
931.0
930.0
929.0
927.0
928.0
927.0
925.0
925.0
925.0
925.0
926.0
926.0
927.0
927.0
920.0
918.0
917.0
916.0
917.0
923.0
926.0
930.0
931.0
929.0
927.0
921.0
919.0
912.0
910.0
908.0
909.0
911.0
917.0
921.0
923.0
921.0
921.0
916.0
916.0
913.0
913.0
912.0
916.0
919.0
920.0
923.0
920.0
919.0
918.0
918.0
917.0
921.0
921.0
925.0
928.0
928.0
928.0
925.0
923.0
920.0
920.0
921.0
922.0
924.0
924.0
925.0
927.0
927.0
930.0
932.0
934.0
932.0
931.0
932.0
930.0
930.0
934.0
936.0
942.0
943.0
943.0
940.0
939.0
936.0
938.0
936.0
936.0
934.0
935.0
934.0
932.0
927.0
923.0
917.0
911.0
906.0
903.0
900.0
899.0
900.0
899.0
900.0
903.0
905.0
908.0
910.0
908.0
907.0
901.0
901.0
899.0
902.0
901.0
905.0
908.0
913.0
915.0
918.0
916.0
914.0
913.0
915.0
922.0
935.0
953.0
980.0
1010.0
1040.0
1064.0
1072.0
1066.0
1042.0
1012.0
980.0
952.0
918.0
883.0
853.0
834.0
829.0
837.0
847.0
852.0
851.0
850.0
849.0
854.0
859.0
864.0
872.0
882.0
886.0
890.0
891.0
888.0
885.0
879.0
874.0
873.0
870.0
870.0
871.0
877.0
877.0
878.0
879.0
879.0
877.0
876.0
875.0
873.0
873.0
872.0
872.0
871.0
874.0
875.0
878.0
876.0
876.0
873.0
872.0
869.0
870.0
870.0
872.0
873.0
877.0
879.0
881.0
877.0
875.0
870.0
866.0
858.0
854.0
851.0
849.0
848.0
854.0
856.0
860.0
859.0
857.0
858.0
857.0
853.0
852.0
850.0
850.0
849.0
850.0
852.0
855.0
857.0
858.0
858.0
854.0
855.0
855.0
854.0
857.0
862.0
867.0
872.0
877.0
878.0
876.0
875.0
872.0
873.0
874.0
876.0
882.0
891.0
897.0
905.0
914.0
916.0
916.0
916.0
918.0
919.0
922.0
926.0
927.0
931.0
934.0
936.0
938.0
935.0
929.0
927.0
923.0
921.0
921.0
924.0
925.0
928.0
928.0
930.0
927.0
922.0
917.0
913.0
910.0
910.0
911.0
911.0
913.0
917.0
917.0
918.0
918.0
919.0
918.0
919.0
917.0
915.0
912.0
910.0
908.0
910.0
911.0
913.0
914.0
917.0
919.0
920.0
919.0
916.0
913.0
911.0
909.0
912.0
913.0
914.0
918.0
913.0
914.0
908.0
906.0
905.0
905.0
907.0
909.0
912.0
914.0
914.0
914.0
910.0
909.0
910.0
912.0
914.0
918.0
923.0
926.0
930.0
932.0
934.0
936.0
933.0
931.0
930.0
930.0
930.0
930.0
933.0
937.0
938.0
941.0
941.0
940.0
933.0
927.0
922.0
918.0
915.0
916.0
913.0
911.0
914.0
912.0
911.0
908.0
906.0
902.0
901.0
902.0
903.0
901.0
899.0
898.0
899.0
900.0
898.0
899.0
899.0
900.0
902.0
902.0
904.0
905.0
904.0
901.0
902.0
900.0
901.0
901.0
901.0
902.0
908.0
917.0
926.0
939.0
955.0
973.0
997.0
1023.0
1044.0
1065.0
1072.0
1065.0
1044.0
1012.0
976.0
942.0
901.0
864.0
836.0
823.0
827.0
837.0
845.0
850.0
851.0
853.0
853.0
855.0
859.0
865.0
873.0
879.0
881.0
884.0
883.0
881.0
879.0
876.0
873.0
872.0
871.0
873.0
876.0
880.0
880.0
882.0
880.0
881.0
878.0
877.0
871.0
872.0
869.0
869.0
872.0
874.0
879.0
883.0
883.0
879.0
874.0
868.0
860.0
858.0
856.0
858.0
862.0
864.0
861.0
860.0
858.0
857.0
857.0
860.0
859.0
858.0
854.0
853.0
850.0
850.0
853.0
855.0
855.0
855.0
854.0
851.0
849.0
847.0
846.0
843.0
844.0
845.0
844.0
847.0
846.0
848.0
845.0
848.0
849.0
849.0
849.0
850.0
852.0
856.0
857.0
856.0
857.0
860.0
863.0
866.0
870.0
873.0
873.0
871.0
876.0
879.0
885.0
895.0
900.0
902.0
909.0
911.0
914.0
912.0
913.0
917.0
915.0
920.0
920.0
925.0
923.0
923.0
921.0
920.0
920.0
917.0
916.0
917.0
919.0
921.0
921.0
921.0
916.0
916.0
913.0
913.0
911.0
909.0
912.0
912.0
915.0
913.0
912.0
911.0
906.0
902.0
893.0
894.0
893.0
897.0
901.0
905.0
911.0
909.0
906.0
904.0
898.0
893.0
893.0
892.0
894.0
896.0
902.0
904.0
904.0
903.0
899.0
897.0
893.0
896.0
897.0
899.0
902.0
902.0
901.0
901.0
901.0
904.0
907.0
908.0
908.0
910.0
913.0
914.0
916.0
914.0
913.0
911.0
911.0
912.0
916.0
919.0
921.0
927.0
923.0
920.0
917.0
915.0
913.0
912.0
913.0
913.0
913.0
915.0
913.0
910.0
909.0
906.0
901.0
901.0
898.0
896.0
900.0
899.0
898.0
900.0
894.0
890.0
886.0
883.0
879.0
880.0
882.0
886.0
890.0
890.0
892.0
890.0
889.0
884.0
882.0
878.0
881.0
883.0
884.0
884.0
888.0
896.0
908.0
923.0
940.0
961.0
981.0
1000.0
1021.0
1036.0
1043.0
1042.0
1028.0
1007.0
982.0
956.0
924.0
889.0
849.0
817.0
801.0
802.0
811.0
821.0
826.0
833.0
836.0
840.0
847.0
850.0
855.0
856.0
858.0
859.0
864.0
865.0
863.0
866.0
866.0
866.0
864.0
861.0
858.0
856.0
856.0
856.0
858.0
861.0
863.0
864.0
864.0
862.0
861.0
860.0
859.0
857.0
858.0
857.0
861.0
862.0
864.0
866.0
865.0
864.0
859.0
854.0
847.0
846.0
847.0
848.0
851.0
850.0
849.0
847.0
843.0
841.0
837.0
835.0
840.0
839.0
841.0
842.0
841.0
841.0
841.0
840.0
840.0
838.0
835.0
834.0
833.0
831.0
834.0
836.0
838.0
839.0
843.0
845.0
845.0
841.0
838.0
834.0
831.0
833.0
836.0
840.0
843.0
848.0
853.0
856.0
858.0
862.0
865.0
867.0
871.0
873.0
877.0
877.0
877.0
883.0
884.0
888.0
894.0
897.0
897.0
900.0
902.0
904.0
906.0
905.0
906.0
907.0
908.0
908.0
910.0
909.0
909.0
908.0
908.0
905.0
900.0
900.0
899.0
902.0
900.0
907.0
908.0
908.0
901.0
898.0
890.0
887.0
886.0
888.0
892.0
892.0
895.0
898.0
897.0
894.0
892.0
889.0
890.0
890.0
891.0
888.0
889.0
892.0
892.0
892.0
892.0
894.0
896.0
896.0
897.0
897.0
895.0
892.0
889.0
888.0
888.0
889.0
894.0
897.0
900.0
901.0
902.0
900.0
896.0
894.0
893.0
892.0
896.0
901.0
905.0
907.0
908.0
904.0
903.0
902.0
902.0
905.0
909.0
917.0
920.0
919.0
920.0
919.0
912.0
908.0
903.0
897.0
897.0
898.0
900.0
899.0
900.0
897.0
893.0
893.0
886.0
882.0
880.0
878.0
878.0
881.0
883.0
883.0
884.0
886.0
884.0
881.0
879.0
879.0
878.0
878.0
879.0
879.0
880.0
877.0
879.0
879.0
883.0
882.0
883.0
885.0
889.0
896.0
906.0
917.0
929.0
953.0
982.0
1008.0
1031.0
1045.0
1046.0
1030.0
1006.0
978.0
946.0
915.0
878.0
840.0
809.0
797.0
799.0
810.0
818.0
822.0
822.0
822.0
826.0
829.0
839.0
846.0
851.0
856.0
860.0
860.0
860.0
860.0
858.0
858.0
859.0
859.0
860.0
860.0
862.0
865.0
866.0
866.0
862.0
853.0
848.0
846.0
844.0
842.0
843.0
847.0
850.0
852.0
853.0
856.0
855.0
850.0
848.0
843.0
839.0
837.0
840.0
839.0
840.0
841.0
842.0
844.0
843.0
842.0
841.0
839.0
835.0
837.0
837.0
837.0
838.0
841.0
842.0
844.0
842.0
840.0
837.0
837.0
833.0
826.0
820.0
819.0
815.0
819.0
821.0
824.0
828.0
830.0
827.0
823.0
820.0
820.0
821.0
825.0
827.0
831.0
837.0
841.0
842.0
846.0
852.0
853.0
856.0
863.0
867.0
874.0
880.0
883.0
884.0
881.0
883.0
882.0
886.0
889.0
894.0
894.0
897.0
896.0
898.0
900.0
901.0
902.0
902.0
902.0
901.0
898.0
897.0
895.0
895.0
894.0
895.0
896.0
898.0
898.0
899.0
898.0
898.0
896.0
898.0
895.0
898.0
896.0
898.0
899.0
899.0
901.0
897.0
894.0
888.0
884.0
878.0
874.0
871.0
873.0
877.0
881.0
884.0
887.0
888.0
889.0
886.0
887.0
885.0
882.0
883.0
882.0
882.0
883.0
882.0
887.0
890.0
889.0
888.0
888.0
888.0
885.0
884.0
885.0
890.0
897.0
899.0
906.0
907.0
903.0
894.0
886.0
880.0
880.0
883.0
892.0
900.0
907.0
909.0
909.0
906.0
903.0
903.0
902.0
900.0
904.0
901.0
905.0
904.0
906.0
904.0
905.0
903.0
899.0
897.0
892.0
891.0
885.0
884.0
881.0
882.0
880.0
878.0
877.0
873.0
873.0
871.0
874.0
875.0
876.0
879.0
877.0
880.0
884.0
882.0
884.0
883.0
878.0
875.0
867.0
862.0
862.0
864.0
870.0
875.0
880.0
885.0
892.0
901.0
918.0
941.0
970.0
996.0
1020.0
1037.0
1039.0
1028.0
1006.0
982.0
955.0
925.0
886.0
846.0
812.0
794.0
791.0
798.0
808.0
818.0
826.0
834.0
839.0
847.0
850.0
852.0
852.0
848.0
847.0
845.0
847.0
851.0
854.0
857.0
863.0
866.0
863.0
856.0
848.0
841.0
840.0
841.0
843.0
847.0
849.0
852.0
855.0
856.0
853.0
851.0
850.0
847.0
844.0
844.0
847.0
849.0
847.0
848.0
849.0
849.0
848.0
850.0
846.0
844.0
841.0
842.0
841.0
844.0
843.0
843.0
840.0
840.0
844.0
846.0
844.0
839.0
832.0
826.0
823.0
820.0
821.0
823.0
827.0
826.0
825.0
826.0
823.0
820.0
818.0
817.0
818.0
822.0
821.0
823.0
825.0
828.0
826.0
825.0
825.0
825.0
825.0
829.0
830.0
834.0
836.0
838.0
836.0
835.0
837.0
838.0
843.0
849.0
854.0
862.0
868.0
871.0
874.0
876.0
877.0
879.0
879.0
880.0
883.0
889.0
893.0
896.0
900.0
902.0
903.0
905.0
906.0
905.0
900.0
897.0
900.0
896.0
895.0
894.0
895.0
899.0
901.0
901.0
901.0
901.0
896.0
896.0
893.0
892.0
891.0
891.0
892.0
893.0
895.0
892.0
892.0
892.0
890.0
890.0
890.0
887.0
887.0
886.0
886.0
886.0
888.0
889.0
893.0
892.0
891.0
891.0
891.0
886.0
884.0
884.0
885.0
884.0
883.0
886.0
889.0
890.0
889.0
888.0
887.0
885.0
885.0
888.0
888.0
890.0
893.0
892.0
896.0
900.0
899.0
901.0
899.0
897.0
896.0
897.0
898.0
899.0
900.0
906.0
908.0
912.0
914.0
918.0
915.0
910.0
904.0
901.0
898.0
897.0
896.0
896.0
898.0
901.0
902.0
900.0
897.0
892.0
886.0
882.0
878.0
881.0
879.0
878.0
878.0
873.0
870.0
869.0
869.0
870.0
874.0
874.0
873.0
873.0
875.0
878.0
880.0
881.0
881.0
882.0
878.0
877.0
875.0
875.0
880.0
886.0
895.0
906.0
921.0
942.0
967.0
995.0
1019.0
1036.0
1043.0
1034.0
1012.0
984.0
956.0
931.0
901.0
868.0
833.0
807.0
798.0
797.0
801.0
808.0
818.0
825.0
830.0
835.0
840.0
841.0
842.0
847.0
850.0
850.0
851.0
850.0
852.0
851.0
852.0
854.0
856.0
855.0
857.0
856.0
854.0
857.0
858.0
856.0
858.0
856.0
858.0
854.0
847.0
844.0
841.0
844.0
847.0
849.0
850.0
847.0
844.0
838.0
839.0
839.0
841.0
840.0
842.0
841.0
837.0
835.0
830.0
829.0
830.0
835.0
836.0
835.0
835.0
835.0
831.0
833.0
828.0
826.0
824.0
822.0
822.0
822.0
821.0
823.0
825.0
825.0
826.0
821.0
820.0
818.0
819.0
818.0
818.0
819.0
821.0
823.0
826.0
828.0
826.0
829.0
832.0
831.0
832.0
832.0
833.0
836.0
838.0
843.0
850.0
860.0
866.0
866.0
868.0
872.0
867.0
872.0
878.0
885.0
889.0
894.0
895.0
895.0
898.0
896.0
895.0
897.0
898.0
899.0
900.0
904.0
903.0
903.0
897.0
895.0
890.0
889.0
889.0
890.0
885.0
885.0
884.0
881.0
883.0
887.0
890.0
890.0
890.0
890.0
885.0
883.0
882.0
882.0
882.0
884.0
883.0
885.0
888.0
889.0
887.0
891.0
892.0
895.0
894.0
893.0
892.0
890.0
888.0
883.0
884.0
883.0
885.0
885.0
883.0
880.0
877.0
879.0
878.0
882.0
882.0
885.0
885.0
885.0
885.0
883.0
885.0
888.0
885.0
889.0
893.0
896.0
898.0
899.0
900.0
903.0
901.0
903.0
901.0
900.0
899.0
898.0
901.0
906.0
910.0
911.0
914.0
912.0
908.0
900.0
893.0
889.0
890.0
888.0
890.0
887.0
884.0
881.0
876.0
873.0
872.0
871.0
872.0
872.0
872.0
869.0
870.0
870.0
870.0
869.0
867.0
871.0
872.0
873.0
874.0
875.0
871.0
870.0
871.0
868.0
868.0
871.0
874.0
876.0
879.0
883.0
887.0
896.0
907.0
924.0
943.0
965.0
990.0
1014.0
1033.0
1045.0
1043.0
1023.0
996.0
964.0
934.0
903.0
873.0
841.0
812.0
796.0
793.0
798.0
806.0
811.0
816.0
819.0
824.0
828.0
832.0
837.0
842.0
847.0
852.0
857.0
858.0
857.0
857.0
855.0
854.0
851.0
850.0
849.0
847.0
848.0
849.0
849.0
846.0
846.0
843.0
843.0
839.0
837.0
833.0
834.0
838.0
844.0
845.0
848.0
844.0
844.0
844.0
843.0
839.0
837.0
836.0
835.0
837.0
838.0
840.0
841.0
841.0
839.0
840.0
839.0
839.0
838.0
839.0
837.0
838.0
835.0
831.0
826.0
821.0
818.0
814.0
813.0
813.0
812.0
812.0
809.0
811.0
812.0
815.0
819.0
817.0
818.0
818.0
818.0
818.0
818.0
816.0
819.0
820.0
824.0
823.0
827.0
829.0
833.0
838.0
840.0
843.0
846.0
847.0
853.0
857.0
863.0
870.0
881.0
883.0
885.0
888.0
886.0
886.0
883.0
883.0
887.0
889.0
893.0
896.0
899.0
901.0
901.0
899.0
901.0
896.0
895.0
893.0
886.0
888.0
886.0
888.0
891.0
891.0
890.0
892.0
887.0
888.0
886.0
883.0
884.0
888.0
889.0
889.0
890.0
889.0
888.0
885.0
884.0
885.0
884.0
883.0
884.0
884.0
885.0
887.0
889.0
888.0
887.0
886.0
885.0
883.0
882.0
882.0
883.0
887.0
889.0
893.0
898.0
898.0
894.0
888.0
879.0
868.0
863.0
862.0
867.0
876.0
882.0
888.0
892.0
893.0
893.0
891.0
887.0
888.0
889.0
890.0
894.0
898.0
899.0
900.0
900.0
900.0
901.0
901.0
899.0
903.0
905.0
906.0
908.0
908.0
909.0
908.0
905.0
898.0
892.0
885.0
880.0
876.0
871.0
868.0
867.0
866.0
868.0
868.0
871.0
870.0
869.0
866.0
864.0
862.0
865.0
863.0
866.0
866.0
867.0
866.0
866.0
867.0
866.0
864.0
866.0
865.0
869.0
871.0
873.0
872.0
882.0
887.0
896.0
910.0
927.0
953.0
982.0
1009.0
1026.0
1028.0
1010.0
981.0
948.0
917.0
878.0
841.0
807.0
790.0
784.0
786.0
794.0
799.0
807.0
816.0
822.0
832.0
841.0
847.0
848.0
849.0
847.0
841.0
837.0
833.0
830.0
834.0
839.0
840.0
842.0
841.0
838.0
837.0
833.0
831.0
832.0
829.0
833.0
835.0
837.0
837.0
839.0
839.0
838.0
838.0
838.0
838.0
839.0
839.0
841.0
842.0
841.0
835.0
833.0
827.0
822.0
822.0
820.0
822.0
822.0
822.0
819.0
816.0
814.0
815.0
815.0
811.0
807.0
808.0
807.0
812.0
815.0
817.0
819.0
820.0
818.0
817.0
813.0
811.0
810.0
812.0
813.0
810.0
809.0
803.0
803.0
802.0
802.0
805.0
811.0
811.0
813.0
812.0
810.0
810.0
813.0
817.0
822.0
826.0
836.0
842.0
846.0
848.0
853.0
856.0
860.0
864.0
868.0
871.0
878.0
880.0
883.0
882.0
880.0
880.0
881.0
882.0
883.0
882.0
878.0
877.0
876.0
874.0
873.0
874.0
875.0
872.0
871.0
870.0
869.0
871.0
873.0
874.0
873.0
872.0
871.0
869.0
867.0
868.0
869.0
869.0
869.0
871.0
871.0
876.0
874.0
875.0
871.0
867.0
861.0
860.0
858.0
860.0
859.0
860.0
861.0
859.0
860.0
859.0
863.0
865.0
867.0
871.0
867.0
864.0
862.0
859.0
857.0
857.0
857.0
860.0
862.0
862.0
866.0
866.0
866.0
868.0
869.0
872.0
873.0
876.0
878.0
881.0
881.0
880.0
878.0
878.0
875.0
877.0
874.0
875.0
875.0
877.0
877.0
880.0
881.0
882.0
883.0
882.0
878.0
879.0
875.0
876.0
875.0
874.0
872.0
869.0
868.0
865.0
863.0
860.0
862.0
861.0
861.0
860.0
858.0
853.0
847.0
845.0
843.0
841.0
840.0
839.0
840.0
840.0
843.0
845.0
844.0
843.0
843.0
844.0
845.0
846.0
848.0
849.0
851.0
854.0
854.0
854.0
860.0
867.0
882.0
902.0
927.0
957.0
986.0
1006.0
1022.0
1023.0
1010.0
984.0
954.0
923.0
894.0
860.0
824.0
790.0
768.0
761.0
769.0
780.0
784.0
786.0
780.0
781.0
787.0
796.0
805.0
815.0
825.0
828.0
831.0
831.0
832.0
830.0
831.0
828.0
826.0
822.0
822.0
819.0
818.0
816.0
813.0
814.0
815.0
815.0
816.0
818.0
818.0
824.0
823.0
823.0
822.0
818.0
816.0
813.0
811.0
814.0
816.0
815.0
814.0
815.0
811.0
811.0
809.0
810.0
810.0
809.0
810.0
808.0
807.0
804.0
802.0
802.0
800.0
798.0
799.0
799.0
795.0
795.0
794.0
790.0
787.0
789.0
792.0
795.0
794.0
796.0
798.0
797.0
795.0
794.0
792.0
791.0
793.0
792.0
790.0
789.0
788.0
790.0
795.0
800.0
807.0
811.0
811.0
811.0
808.0
808.0
807.0
808.0
813.0
822.0
829.0
832.0
835.0
837.0
841.0
843.0
849.0
852.0
856.0
859.0
861.0
861.0
866.0
866.0
868.0
865.0
866.0
865.0
864.0
864.0
865.0
867.0
867.0
871.0
871.0
869.0
867.0
868.0
861.0
863.0
858.0
855.0
851.0
850.0
850.0
856.0
859.0
861.0
859.0
854.0
852.0
850.0
849.0
851.0
849.0
853.0
855.0
860.0
860.0
858.0
860.0
858.0
856.0
856.0
857.0
857.0
861.0
862.0
861.0
862.0
863.0
860.0
857.0
856.0
856.0
856.0
858.0
859.0
857.0
853.0
849.0
850.0
853.0
856.0
859.0
863.0
866.0
866.0
866.0
867.0
868.0
870.0
872.0
873.0
875.0
876.0
875.0
876.0
877.0
880.0
883.0
885.0
888.0
886.0
887.0
883.0
880.0
875.0
870.0
867.0
861.0
863.0
861.0
864.0
864.0
866.0
865.0
864.0
863.0
859.0
855.0
851.0
846.0
845.0
844.0
845.0
849.0
852.0
857.0
857.0
859.0
857.0
852.0
852.0
848.0
847.0
846.0
850.0
853.0
857.0
857.0
858.0
861.0
862.0
867.0
876.0
887.0
905.0
926.0
953.0
984.0
1013.0
1033.0
1036.0
1020.0
987.0
945.0
902.0
855.0
807.0
772.0
760.0
767.0
779.0
791.0
796.0
798.0
804.0
810.0
816.0
822.0
828.0
832.0
835.0
835.0
833.0
836.0
832.0
835.0
835.0
835.0
833.0
830.0
829.0
828.0
826.0
829.0
832.0
836.0
839.0
840.0
838.0
837.0
838.0
838.0
836.0
835.0
836.0
836.0
839.0
842.0
841.0
841.0
839.0
833.0
826.0
822.0
820.0
822.0
826.0
826.0
829.0
830.0
830.0
831.0
831.0
828.0
827.0
825.0
826.0
822.0
823.0
825.0
827.0
826.0
825.0
824.0
825.0
823.0
821.0
820.0
819.0
819.0
819.0
820.0
821.0
822.0
821.0
826.0
825.0
826.0
825.0
828.0
825.0
827.0
828.0
829.0
832.0
833.0
836.0
839.0
842.0
844.0
849.0
852.0
855.0
857.0
860.0
868.0
872.0
881.0
885.0
891.0
894.0
894.0
899.0
900.0
902.0
904.0
903.0
905.0
907.0
908.0
911.0
912.0
912.0
910.0
911.0
909.0
909.0
907.0
905.0
905.0
908.0
907.0
909.0
911.0
909.0
909.0
908.0
908.0
907.0
904.0
906.0
905.0
905.0
906.0
907.0
907.0
911.0
911.0
909.0
910.0
910.0
907.0
907.0
908.0
907.0
909.0
909.0
909.0
912.0
910.0
911.0
911.0
908.0
907.0
906.0
908.0
909.0
910.0
910.0
914.0
915.0
913.0
915.0
912.0
911.0
913.0
911.0
912.0
914.0
916.0
919.0
921.0
922.0
925.0
926.0
926.0
929.0
928.0
930.0
928.0
930.0
932.0
931.0
933.0
935.0
934.0
934.0
933.0
935.0
936.0
935.0
936.0
935.0
936.0
937.0
937.0
940.0
938.0
932.0
932.0
932.0
928.0
925.0
923.0
922.0
922.0
920.0
921.0
919.0
917.0
914.0
911.0
910.0
909.0
908.0
910.0
909.0
910.0
911.0
915.0
914.0
914.0
916.0
915.0
915.0
912.0
912.0
915.0
917.0
920.0
925.0
932.0
946.0
962.0
984.0
1011.0
1039.0
1062.0
1084.0
1098.0
1097.0
1079.0
1047.0
1016.0
986.0
949.0
909.0
870.0
839.0
821.0
816.0
820.0
830.0
839.0
852.0
862.0
872.0
880.0
887.0
890.0
891.0
892.0
891.0
892.0
891.0
894.0
896.0
895.0
899.0
897.0
897.0
897.0
897.0
894.0
896.0
895.0
895.0
897.0
895.0
898.0
893.0
891.0
890.0
888.0
888.0
884.0
884.0
883.0
882.0
886.0
887.0
887.0
886.0
888.0
886.0
884.0
881.0
883.0
880.0
882.0
878.0
878.0
875.0
875.0
876.0
873.0
873.0
871.0
868.0
865.0
866.0
868.0
865.0
865.0
863.0
863.0
861.0
859.0
858.0
856.0
855.0
853.0
854.0
855.0
854.0
855.0
854.0
856.0
854.0
852.0
850.0
849.0
849.0
850.0
850.0
851.0
851.0
855.0
859.0
866.0
871.0
875.0
877.0
880.0
885.0
885.0
889.0
891.0
895.0
899.0
905.0
911.0
914.0
919.0
920.0
919.0
923.0
923.0
924.0
926.0
928.0
931.0
930.0
931.0
933.0
931.0
930.0
929.0
926.0
925.0
923.0
922.0
921.0
923.0
922.0
923.0
925.0
921.0
919.0
917.0
918.0
915.0
914.0
913.0
916.0
917.0
917.0
919.0
921.0
921.0
920.0
920.0
917.0
916.0
915.0
915.0
913.0
913.0
915.0
916.0
915.0
916.0
916.0
915.0
914.0
914.0
912.0
913.0
914.0
915.0
915.0
912.0
915.0
914.0
914.0
913.0
912.0
909.0
913.0
915.0
917.0
922.0
923.0
926.0
926.0
926.0
925.0
924.0
922.0
922.0
923.0
927.0
929.0
934.0
935.0
938.0
936.0
932.0
928.0
924.0
922.0
921.0
919.0
918.0
916.0
915.0
913.0
912.0
912.0
908.0
906.0
904.0
902.0
898.0
898.0
896.0
895.0
897.0
898.0
899.0
898.0
896.0
896.0
896.0
895.0
892.0
893.0
893.0
896.0
896.0
897.0
900.0
901.0
901.0
897.0
901.0
901.0
906.0
915.0
929.0
947.0
970.0
996.0
1024.0
1050.0
1069.0
1080.0
1074.0
1055.0
1024.0
996.0
970.0
943.0
913.0
878.0
849.0
827.0
812.0
811.0
816.0
822.0
824.0
832.0
842.0
849.0
859.0
866.0
871.0
875.0
875.0
873.0
870.0
871.0
867.0
866.0
866.0
868.0
868.0
869.0
870.0
871.0
871.0
872.0
870.0
868.0
869.0
867.0
867.0
866.0
869.0
867.0
869.0
870.0
868.0
866.0
865.0
864.0
858.0
857.0
858.0
858.0
858.0
857.0
858.0
856.0
855.0
855.0
853.0
852.0
847.0
849.0
847.0
847.0
847.0
849.0
850.0
850.0
849.0
848.0
845.0
839.0
840.0
837.0
838.0
838.0
837.0
837.0
837.0
837.0
836.0
837.0
834.0
831.0
829.0
828.0
828.0
829.0
829.0
832.0
834.0
834.0
835.0
834.0
834.0
836.0
838.0
840.0
840.0
844.0
849.0
856.0
861.0
866.0
872.0
874.0
879.0
882.0
884.0
886.0
888.0
894.0
895.0
900.0
905.0
905.0
907.0
904.0
906.0
906.0
906.0
906.0
907.0
906.0
904.0
905.0
904.0
907.0
905.0
904.0
902.0
902.0
902.0
899.0
900.0
900.0
901.0
903.0
904.0
903.0
904.0
903.0
901.0
899.0
899.0
895.0
896.0
895.0
900.0
901.0
900.0
901.0
901.0
901.0
899.0
898.0
896.0
894.0
896.0
895.0
894.0
895.0
892.0
897.0
894.0
895.0
893.0
893.0
893.0
887.0
891.0
890.0
893.0
894.0
896.0
896.0
895.0
894.0
895.0
892.0
893.0
892.0
892.0
891.0
894.0
896.0
899.0
901.0
904.0
903.0
903.0
903.0
905.0
901.0
900.0
902.0
905.0
905.0
909.0
909.0
911.0
912.0
912.0
912.0
911.0
909.0
907.0
908.0
905.0
903.0
905.0
903.0
901.0
897.0
897.0
893.0
890.0
886.0
882.0
883.0
882.0
882.0
881.0
880.0
879.0
877.0
875.0
875.0
872.0
871.0
871.0
872.0
871.0
873.0
875.0
873.0
874.0
873.0
873.0
872.0
872.0
873.0
874.0
876.0
880.0
893.0
909.0
931.0
962.0
993.0
1022.0
1047.0
1061.0
1054.0
1029.0
999.0
966.0
938.0
906.0
873.0
840.0
818.0
810.0
810.0
814.0
821.0
833.0
839.0
849.0
852.0
853.0
850.0
848.0
849.0
849.0
847.0
846.0
848.0
850.0
847.0
849.0
850.0
852.0
854.0
851.0
851.0
847.0
846.0
844.0
843.0
844.0
844.0
845.0
843.0
846.0
847.0
844.0
845.0
845.0
842.0
842.0
840.0
840.0
842.0
840.0
843.0
842.0
843.0
841.0
839.0
837.0
835.0
830.0
826.0
829.0
830.0
831.0
831.0
830.0
829.0
825.0
824.0
824.0
819.0
816.0
816.0
813.0
814.0
811.0
816.0
815.0
816.0
813.0
810.0
810.0
808.0
807.0
805.0
805.0
805.0
805.0
807.0
811.0
814.0
812.0
814.0
815.0
814.0
815.0
816.0
818.0
821.0
822.0
829.0
832.0
838.0
841.0
844.0
846.0
850.0
856.0
859.0
861.0
868.0
872.0
877.0
881.0
883.0
885.0
884.0
886.0
883.0
882.0
882.0
883.0
883.0
884.0
885.0
884.0
885.0
886.0
884.0
880.0
879.0
878.0
877.0
877.0
878.0
876.0
876.0
876.0
878.0
877.0
877.0
875.0
875.0
874.0
871.0
871.0
868.0
873.0
874.0
875.0
876.0
874.0
875.0
873.0
871.0
871.0
868.0
870.0
867.0
868.0
867.0
871.0
872.0
872.0
871.0
870.0
870.0
869.0
866.0
868.0
867.0
867.0
869.0
869.0
871.0
869.0
870.0
868.0
868.0
870.0
872.0
872.0
874.0
878.0
879.0
882.0
884.0
884.0
883.0
883.0
