# Simple Text Format
# Sampling Rate (Hz):= 360.00
# Resolution:= 12
# Labels:= ECG
891.0
889.0
884.0
880.0
876.0
875.0
872.0
874.0
871.0
868.0
866.0
866.0
864.0
863.0
861.0
859.0
857.0
856.0
855.0
851.0
852.0
853.0
853.0
856.0
855.0
855.0
856.0
854.0
854.0
853.0
851.0
851.0
852.0
853.0
854.0
855.0
857.0
858.0
857.0
859.0
860.0
862.0
876.0
889.0
904.0
928.0
956.0
983.0
1005.0
1016.0
1013.0
996.0
967.0
941.0
913.0
885.0
857.0
827.0
806.0
794.0
794.0
797.0
803.0
804.0
808.0
815.0
820.0
824.0
830.0
834.0
836.0
837.0
834.0
836.0
835.0
834.0
832.0
831.0
832.0
830.0
829.0
829.0
830.0
833.0
834.0
834.0
831.0
830.0
829.0
830.0
828.0
828.0
826.0
827.0
828.0
831.0
830.0
831.0
829.0
828.0
827.0
825.0
823.0
823.0
823.0
825.0
823.0
824.0
824.0
824.0
827.0
824.0
823.0
819.0
818.0
818.0
816.0
818.0
818.0
819.0
820.0
819.0
821.0
815.0
815.0
814.0
814.0
812.0
812.0
813.0
815.0
819.0
820.0
823.0
822.0
819.0
821.0
823.0
826.0
827.0
828.0
831.0
833.0
837.0
840.0
847.0
849.0
852.0
856.0
857.0
860.0
864.0
865.0
867.0
873.0
878.0
883.0
888.0
888.0
888.0
889.0
888.0
889.0
889.0
886.0
886.0
887.0
885.0
887.0
886.0
884.0
884.0
881.0
877.0
878.0
875.0
875.0
875.0
875.0
877.0
877.0
878.0
876.0
875.0
874.0
873.0
871.0
867.0
868.0
866.0
868.0
871.0
870.0
874.0
872.0
871.0
869.0
869.0
863.0
862.0
861.0
862.0
865.0
863.0
865.0
866.0
865.0
867.0
866.0
865.0
863.0
861.0
860.0
861.0
863.0
863.0
865.0
867.0
866.0
865.0
864.0
862.0
862.0
861.0
861.0
861.0
864.0
867.0
867.0
870.0
873.0
874.0
875.0
875.0
877.0
876.0
878.0
878.0
879.0
881.0
882.0
883.0
884.0
886.0
887.0
887.0
887.0
887.0
883.0
880.0
878.0
877.0
875.0
874.0
878.0
875.0
874.0
869.0
866.0
862.0
857.0
856.0
856.0
857.0
858.0
856.0
855.0
855.0
853.0
852.0
850.0
851.0
848.0
847.0
849.0
851.0
852.0
855.0
851.0
854.0
852.0
853.0
851.0
852.0
851.0
853.0
858.0
868.0
878.0
896.0
916.0
939.0
965.0
985.0
1004.0
1011.0
1011.0
999.0
976.0
953.0
927.0
904.0
872.0
835.0
808.0
793.0
796.0
802.0
811.0
809.0
805.0
802.0
802.0
806.0
813.0
819.0
823.0
828.0
829.0
830.0
830.0
830.0
826.0
828.0
830.0
833.0
834.0
835.0
832.0
831.0
828.0
827.0
825.0
826.0
826.0
828.0
831.0
831.0
829.0
830.0
829.0
829.0
824.0
825.0
825.0
825.0
826.0
827.0
828.0
830.0
828.0
826.0
824.0
822.0
820.0
820.0
820.0
819.0
821.0
821.0
821.0
823.0
825.0
823.0
822.0
819.0
817.0
816.0
814.0
816.0
816.0
818.0
818.0
821.0
819.0
818.0
815.0
814.0
812.0
810.0
810.0
813.0
813.0
818.0
822.0
825.0
826.0
824.0
824.0
824.0
828.0
828.0
830.0
835.0
838.0
841.0
845.0
850.0
851.0
854.0
856.0
857.0
860.0
860.0
865.0
866.0
873.0
877.0
880.0
882.0
884.0
885.0
885.0
885.0
887.0
885.0
885.0
882.0
883.0
886.0
885.0
886.0
885.0
885.0
883.0
880.0
879.0
876.0
874.0
877.0
876.0
878.0
879.0
879.0
877.0
877.0
873.0
873.0
871.0
870.0
867.0
868.0
868.0
870.0
871.0
872.0
872.0
873.0
868.0
866.0
863.0
865.0
864.0
864.0
863.0
869.0
870.0
874.0
876.0
874.0
873.0
871.0
870.0
867.0
865.0
867.0
867.0
869.0
871.0
872.0
871.0
869.0
870.0
869.0
867.0
868.0
869.0
871.0
872.0
874.0
877.0
877.0
880.0
879.0
881.0
882.0
884.0
883.0
884.0
884.0
884.0
886.0
885.0
891.0
892.0
893.0
896.0
896.0
894.0
893.0
888.0
885.0
882.0
883.0
881.0
882.0
880.0
876.0
874.0
871.0
870.0
867.0
864.0
863.0
861.0
859.0
862.0
861.0
859.0
862.0
861.0
862.0
862.0
861.0
859.0
861.0
861.0
865.0
864.0
866.0
866.0
865.0
866.0
865.0
866.0
868.0
866.0
871.0
882.0
894.0
912.0
934.0
960.0
988.0
1011.0
1030.0
1037.0
1037.0
1020.0
995.0
966.0
944.0
918.0
888.0
856.0
822.0
805.0
804.0
808.0
819.0
821.0
822.0
819.0
819.0
826.0
834.0
841.0
846.0
847.0
846.0
845.0
845.0
843.0
841.0
844.0
846.0
846.0
845.0
845.0
846.0
843.0
844.0
842.0
842.0
839.0
839.0
843.0
842.0
842.0
841.0
841.0
841.0
840.0
840.0
838.0
837.0
836.0
837.0
838.0
840.0
839.0
843.0
843.0
842.0
838.0
837.0
833.0
832.0
832.0
834.0
834.0
836.0
837.0
836.0
835.0
834.0
833.0
831.0
830.0
831.0
829.0
829.0
829.0
831.0
831.0
831.0
832.0
830.0
830.0
828.0
828.0
825.0
827.0
826.0
828.0
830.0
830.0
831.0
835.0
833.0
836.0
837.0
839.0
841.0
844.0
847.0
850.0
856.0
859.0
864.0
870.0
871.0
876.0
880.0
881.0
881.0
887.0
890.0
895.0
894.0
901.0
901.0
902.0
904.0
904.0
903.0
902.0
902.0
901.0
901.0
900.0
901.0
901.0
903.0
902.0
901.0
900.0
897.0
894.0
891.0
893.0
893.0
894.0
894.0
895.0
895.0
896.0
896.0
896.0
894.0
891.0
890.0
891.0
890.0
889.0
888.0
892.0
892.0
891.0
890.0
890.0
890.0
889.0
886.0
888.0
888.0
888.0
888.0
890.0
892.0
891.0
891.0
888.0
888.0
888.0
887.0
887.0
886.0
890.0
890.0
893.0
894.0
895.0
894.0
893.0
894.0
894.0
893.0
893.0
895.0
896.0
901.0
903.0
906.0
908.0
908.0
910.0
908.0
907.0
903.0
902.0
901.0
903.0
908.0
912.0
914.0
918.0
916.0
915.0
913.0
914.0
911.0
908.0
907.0
906.0
906.0
906.0
904.0
902.0
899.0
897.0
897.0
892.0
886.0
884.0
882.0
881.0
883.0
883.0
885.0
884.0
883.0
881.0
879.0
880.0
879.0
880.0
880.0
882.0
882.0
883.0
885.0
883.0
885.0
884.0
885.0
885.0
885.0
884.0
882.0
884.0
887.0
890.0
897.0
910.0
926.0
951.0
981.0
1012.0
1039.0
1059.0
1063.0
1053.0
1029.0
1003.0
973.0
946.0
909.0
875.0
845.0
830.0
826.0
830.0
834.0
839.0
843.0
849.0
854.0
856.0
857.0
861.0
862.0
863.0
863.0
865.0
865.0
865.0
865.0
862.0
864.0
866.0
864.0
865.0
865.0
861.0
862.0
860.0
861.0
859.0
861.0
862.0
861.0
864.0
863.0
863.0
862.0
863.0
859.0
855.0
855.0
857.0
857.0
858.0
860.0
860.0
860.0
856.0
854.0
851.0
851.0
850.0
850.0
851.0
851.0
851.0
853.0
853.0
851.0
850.0
844.0
842.0
841.0
839.0
839.0
836.0
837.0
838.0
842.0
843.0
842.0
839.0
837.0
837.0
832.0
832.0
834.0
836.0
837.0
838.0
840.0
840.0
838.0
839.0
835.0
836.0
837.0
840.0
843.0
845.0
851.0
853.0
858.0
860.0
862.0
865.0
867.0
868.0
873.0
875.0
880.0
885.0
892.0
898.0
904.0
907.0
908.0
911.0
911.0
911.0
909.0
910.0
910.0
911.0
911.0
913.0
914.0
913.0
911.0
909.0
908.0
909.0
906.0
904.0
905.0
906.0
906.0
906.0
907.0
908.0
906.0
902.0
901.0
902.0
902.0
898.0
900.0
898.0
900.0
900.0
902.0
902.0
902.0
900.0
899.0
896.0
896.0
896.0
895.0
896.0
897.0
900.0
900.0
894.0
896.0
897.0
896.0
895.0
893.0
891.0
890.0
893.0
895.0
895.0
897.0
896.0
897.0
895.0
892.0
893.0
892.0
890.0
892.0
895.0
895.0
901.0
903.0
905.0
905.0
907.0
908.0
906.0
909.0
910.0
908.0
910.0
910.0
910.0
911.0
916.0
917.0
916.0
913.0
914.0
914.0
911.0
910.0
909.0
908.0
906.0
906.0
904.0
902.0
898.0
895.0
893.0
886.0
882.0
882.0
881.0
882.0
881.0
881.0
884.0
884.0
884.0
881.0
881.0
879.0
878.0
877.0
878.0
877.0
880.0
882.0
884.0
883.0
881.0
880.0
880.0
877.0
880.0
885.0
892.0
905.0
920.0
940.0
967.0
997.0
1026.0
1048.0
1060.0
1054.0
1037.0
1011.0
981.0
951.0
921.0
890.0
859.0
841.0
831.0
829.0
833.0
839.0
846.0
851.0
859.0
860.0
858.0
860.0
856.0
857.0
857.0
856.0
853.0
853.0
852.0
854.0
855.0
857.0
858.0
857.0
858.0
856.0
858.0
855.0
853.0
853.0
850.0
850.0
852.0
852.0
852.0
853.0
853.0
851.0
850.0
850.0
848.0
848.0
845.0
846.0
845.0
846.0
846.0
846.0
846.0
844.0
842.0
841.0
839.0
838.0
836.0
836.0
836.0
838.0
839.0
837.0
837.0
835.0
835.0
832.0
829.0
829.0
828.0
827.0
826.0
827.0
828.0
828.0
828.0
826.0
825.0
822.0
823.0
822.0
823.0
824.0
824.0
826.0
827.0
831.0
831.0
830.0
833.0
831.0
831.0
831.0
834.0
834.0
839.0
841.0
846.0
851.0
855.0
855.0
861.0
863.0
868.0
869.0
875.0
879.0
887.0
889.0
896.0
897.0
900.0
901.0
902.0
901.0
899.0
900.0
898.0
897.0
898.0
900.0
901.0
902.0
902.0
903.0
900.0
896.0
896.0
892.0
893.0
894.0
892.0
892.0
894.0
894.0
893.0
892.0
893.0
891.0
890.0
889.0
888.0
886.0
889.0
891.0
891.0
892.0
891.0
892.0
891.0
888.0
887.0
886.0
885.0
887.0
884.0
885.0
886.0
886.0
888.0
886.0
888.0
886.0
885.0
886.0
880.0
882.0
884.0
885.0
885.0
886.0
888.0
889.0
885.0
885.0
883.0
884.0
883.0
885.0
884.0
889.0
892.0
897.0
902.0
901.0
903.0
902.0
901.0
899.0
903.0
901.0
901.0
902.0
905.0
908.0
910.0
910.0
909.0
909.0
907.0
905.0
902.0
900.0
899.0
896.0
897.0
896.0
896.0
894.0
890.0
887.0
883.0
881.0
877.0
879.0
876.0
878.0
880.0
877.0
878.0
877.0
876.0
874.0
872.0
872.0
869.0
871.0
870.0
873.0
874.0
875.0
875.0
873.0
874.0
873.0
874.0
874.0
874.0
873.0
875.0
878.0
884.0
895.0
907.0
923.0
942.0
964.0
991.0
1016.0
1036.0
1045.0
1039.0
1022.0
993.0
961.0
928.0
887.0
850.0
824.0
814.0
813.0
818.0
828.0
838.0
848.0
849.0
851.0
850.0
850.0
849.0
850.0
846.0
851.0
852.0
852.0
852.0
851.0
850.0
850.0
850.0
849.0
850.0
850.0
850.0
849.0
845.0
845.0
845.0
845.0
844.0
845.0
846.0
845.0
847.0
845.0
844.0
843.0
841.0
843.0
842.0
843.0
845.0
844.0
844.0
842.0
840.0
840.0
838.0
836.0
833.0
831.0
830.0
831.0
833.0
833.0
835.0
833.0
834.0
831.0
827.0
824.0
824.0
823.0
825.0
823.0
823.0
822.0
820.0
823.0
821.0
821.0
820.0
820.0
818.0
818.0
821.0
821.0
824.0
827.0
828.0
829.0
831.0
832.0
833.0
833.0
837.0
839.0
842.0
850.0
856.0
859.0
864.0
869.0
871.0
875.0
878.0
882.0
883.0
884.0
890.0
895.0
899.0
902.0
903.0
903.0
902.0
902.0
901.0
901.0
901.0
900.0
901.0
901.0
898.0
900.0
899.0
899.0
894.0
897.0
895.0
894.0
893.0
892.0
892.0
890.0
894.0
894.0
894.0
893.0
890.0
889.0
890.0
889.0
887.0
887.0
887.0
887.0
887.0
889.0
891.0
891.0
890.0
889.0
884.0
883.0
880.0
880.0
881.0
883.0
883.0
884.0
888.0
886.0
885.0
883.0
884.0
884.0
883.0
882.0
883.0
885.0
888.0
889.0
891.0
890.0
890.0
890.0
890.0
890.0
889.0
890.0
897.0
899.0
902.0
904.0
906.0
907.0
907.0
909.0
908.0
906.0
906.0
906.0
907.0
909.0
914.0
915.0
917.0
915.0
911.0
908.0
905.0
900.0
900.0
899.0
896.0
897.0
899.0
897.0
894.0
890.0
887.0
883.0
883.0
880.0
874.0
873.0
871.0
877.0
879.0
878.0
879.0
880.0
879.0
878.0
875.0
877.0
876.0
875.0
874.0
876.0
879.0
880.0
881.0
879.0
880.0
878.0
878.0
883.0
888.0
899.0
917.0
935.0
961.0
988.0
1016.0
1035.0
1044.0
1039.0
1019.0
992.0
960.0
932.0
904.0
872.0
841.0
821.0
816.0
817.0
821.0
829.0
833.0
840.0
843.0
845.0
847.0
850.0
850.0
857.0
857.0
858.0
858.0
857.0
855.0
855.0
854.0
852.0
852.0
855.0
854.0
856.0
858.0
857.0
855.0
856.0
853.0
852.0
850.0
849.0
845.0
850.0
848.0
847.0
851.0
849.0
848.0
849.0
846.0
844.0
843.0
843.0
842.0
845.0
844.0
844.0
846.0
843.0
842.0
843.0
840.0
839.0
836.0
834.0
835.0
835.0
836.0
835.0
836.0
836.0
834.0
833.0
831.0
829.0
831.0
830.0
832.0
830.0
833.0
833.0
833.0
832.0
829.0
831.0
829.0
828.0
828.0
829.0
829.0
830.0
833.0
836.0
838.0
839.0
838.0
836.0
838.0
838.0
839.0
844.0
845.0
850.0
856.0
858.0
862.0
865.0
869.0
874.0
878.0
880.0
885.0
888.0
892.0
895.0
901.0
904.0
906.0
906.0
906.0
906.0
906.0
903.0
902.0
902.0
901.0
902.0
902.0
901.0
903.0
904.0
904.0
902.0
900.0
899.0
896.0
896.0
896.0
896.0
897.0
897.0
898.0
898.0
893.0
895.0
893.0
890.0
890.0
888.0
889.0
891.0
891.0
891.0
894.0
892.0
891.0
891.0
890.0
888.0
890.0
888.0
888.0
888.0
890.0
892.0
891.0
890.0
888.0
889.0
888.0
887.0
887.0
886.0
887.0
888.0
890.0
888.0
891.0
893.0
891.0
890.0
889.0
888.0
888.0
889.0
891.0
892.0
896.0
900.0
903.0
903.0
905.0
905.0
907.0
907.0
908.0
906.0
907.0
908.0
908.0
911.0
912.0
915.0
913.0
913.0
909.0
909.0
909.0
904.0
903.0
901.0
902.0
898.0
898.0
897.0
893.0
891.0
887.0
885.0
882.0
877.0
875.0
876.0
877.0
878.0
879.0
877.0
877.0
877.0
877.0
872.0
873.0
874.0
875.0
876.0
878.0
878.0
880.0
881.0
882.0
881.0
880.0
879.0
879.0
880.0
883.0
892.0
903.0
919.0
935.0
954.0
980.0
1005.0
1027.0
1040.0
1033.0
1011.0
981.0
947.0
916.0
876.0
843.0
814.0
806.0
805.0
811.0
821.0
830.0
838.0
844.0
849.0
851.0
855.0
859.0
858.0
859.0
858.0
856.0
856.0
855.0
852.0
853.0
853.0
855.0
855.0
858.0
859.0
857.0
855.0
853.0
852.0
852.0
850.0
852.0
853.0
853.0
855.0
855.0
855.0
853.0
850.0
847.0
850.0
847.0
843.0
848.0
849.0
848.0
848.0
850.0
849.0
846.0
843.0
844.0
842.0
843.0
841.0
840.0
843.0
844.0
845.0
843.0
842.0
841.0
837.0
836.0
836.0
835.0
834.0
834.0
834.0
832.0
833.0
833.0
832.0
831.0
831.0
832.0
832.0
831.0
831.0
831.0
833.0
834.0
838.0
841.0
843.0
843.0
846.0
845.0
849.0
849.0
853.0
855.0
860.0
867.0
869.0
876.0
880.0
882.0
885.0
889.0
891.0
895.0
898.0
901.0
904.0
906.0
907.0
910.0
909.0
911.0
910.0
909.0
908.0
907.0
905.0
903.0
905.0
906.0
905.0
905.0
906.0
903.0
902.0
900.0
898.0
896.0
897.0
896.0
895.0
897.0
899.0
899.0
897.0
898.0
894.0
893.0
891.0
888.0
888.0
888.0
889.0
890.0
891.0
894.0
891.0
889.0
889.0
887.0
884.0
882.0
883.0
885.0
885.0
885.0
889.0
890.0
888.0
890.0
887.0
887.0
885.0
884.0
884.0
885.0
884.0
883.0
887.0
890.0
888.0
890.0
888.0
885.0
887.0
889.0
889.0
890.0
894.0
896.0
898.0
900.0
899.0
900.0
902.0
901.0
900.0
900.0
900.0
901.0
903.0
905.0
908.0
910.0
910.0
910.0
909.0
906.0
905.0
900.0
897.0
895.0
892.0
894.0
893.0
894.0
893.0
890.0
888.0
885.0
880.0
878.0
875.0
875.0
875.0
876.0
877.0
878.0
877.0
879.0
879.0
878.0
875.0
876.0
874.0
874.0
873.0
873.0
877.0
877.0
878.0
879.0
879.0
878.0
878.0
882.0
888.0
900.0
914.0
934.0
960.0
988.0
1014.0
1031.0
1040.0
1033.0
1013.0
985.0
953.0
925.0
893.0
859.0
827.0
809.0
800.0
804.0
809.0
816.0
822.0
826.0
832.0
837.0
841.0
844.0
850.0
854.0
855.0
856.0
854.0
851.0
850.0
851.0
849.0
850.0
849.0
851.0
852.0
854.0
852.0
853.0
851.0
852.0
850.0
847.0
846.0
847.0
851.0
851.0
851.0
853.0
852.0
852.0
850.0
848.0
847.0
846.0
844.0
842.0
842.0
841.0
842.0
844.0
845.0
843.0
841.0
838.0
834.0
833.0
833.0
834.0
836.0
838.0
839.0
837.0
838.0
836.0
835.0
832.0
831.0
828.0
829.0
828.0
827.0
827.0
828.0
832.0
832.0
831.0
830.0
831.0
831.0
831.0
831.0
832.0
835.0
836.0
838.0
841.0
843.0
845.0
846.0
846.0
847.0
851.0
852.0
853.0
860.0
865.0
869.0
873.0
879.0
880.0
883.0
887.0
888.0
890.0
893.0
899.0
901.0
904.0
903.0
907.0
906.0
907.0
905.0
905.0
904.0
900.0
900.0
899.0
897.0
899.0
900.0
901.0
902.0
899.0
898.0
896.0
894.0
890.0
890.0
891.0
890.0
891.0
892.0
894.0
895.0
893.0
891.0
890.0
887.0
886.0
886.0
884.0
885.0
888.0
887.0
886.0
890.0
887.0
887.0
886.0
884.0
885.0
882.0
885.0
884.0
885.0
885.0
888.0
889.0
888.0
886.0
884.0
884.0
884.0
884.0
884.0
885.0
887.0
889.0
889.0
890.0
890.0
889.0
886.0
887.0
886.0
883.0
884.0
888.0
888.0
890.0
893.0
900.0
899.0
901.0
901.0
899.0
899.0
902.0
901.0
903.0
907.0
905.0
909.0
912.0
913.0
914.0
911.0
910.0
910.0
908.0
903.0
903.0
902.0
901.0
900.0
901.0
898.0
897.0
892.0
890.0
885.0
884.0
881.0
881.0
880.0
879.0
880.0
880.0
877.0
879.0
878.0
877.0
875.0
874.0
876.0
877.0
879.0
879.0
881.0
879.0
879.0
880.0
876.0
877.0
878.0
880.0
880.0
881.0
884.0
888.0
897.0
912.0
923.0
942.0
963.0
988.0
1011.0
1030.0
1038.0
1033.0
1015.0
989.0
959.0
926.0
887.0
850.0
818.0
803.0
801.0
805.0
813.0
823.0
831.0
839.0
843.0
846.0
851.0
853.0
855.0
858.0
858.0
859.0
858.0
856.0
857.0
858.0
858.0
858.0
859.0
856.0
857.0
856.0
855.0
854.0
853.0
853.0
856.0
857.0
857.0
857.0
855.0
855.0
854.0
851.0
848.0
846.0
847.0
849.0
851.0
850.0
853.0
851.0
849.0
848.0
846.0
844.0
845.0
843.0
844.0
842.0
843.0
845.0
844.0
845.0
845.0
843.0
840.0
842.0
838.0
837.0
838.0
838.0
837.0
838.0
838.0
839.0
835.0
834.0
834.0
833.0
831.0
831.0
832.0
834.0
834.0
837.0
836.0
838.0
841.0
841.0
841.0
838.0
838.0
839.0
843.0
846.0
848.0
853.0
858.0
861.0
861.0
863.0
867.0
869.0
870.0
875.0
880.0
883.0
891.0
894.0
899.0
903.0
905.0
906.0
906.0
907.0
904.0
904.0
907.0
906.0
906.0
909.0
910.0
910.0
909.0
908.0
905.0
902.0
902.0
897.0
897.0
899.0
902.0
900.0
902.0
901.0
900.0
897.0
898.0
896.0
895.0
893.0
893.0
894.0
896.0
894.0
895.0
895.0
895.0
892.0
890.0
889.0
887.0
886.0
885.0
885.0
889.0
887.0
889.0
889.0
889.0
887.0
885.0
884.0
883.0
882.0
881.0
884.0
883.0
886.0
887.0
885.0
888.0
890.0
888.0
887.0
886.0
885.0
886.0
887.0
888.0
891.0
892.0
893.0
894.0
892.0
891.0
890.0
886.0
889.0
890.0
894.0
897.0
899.0
901.0
904.0
905.0
908.0
909.0
908.0
906.0
905.0
905.0
906.0
909.0
911.0
914.0
915.0
915.0
914.0
912.0
908.0
904.0
901.0
899.0
899.0
899.0
899.0
899.0
898.0
892.0
892.0
888.0
883.0
880.0
876.0
874.0
875.0
872.0
875.0
877.0
877.0
878.0
878.0
875.0
875.0
875.0
872.0
874.0
876.0
878.0
881.0
880.0
881.0
881.0
880.0
881.0
880.0
879.0
881.0
889.0
899.0
909.0
928.0
949.0
971.0
996.0
1016.0
1031.0
1035.0
1030.0
1009.0
986.0
961.0
936.0
913.0
882.0
852.0
822.0
806.0
801.0
803.0
810.0
818.0
823.0
832.0
835.0
837.0
843.0
844.0
851.0
855.0
856.0
857.0
859.0
855.0
856.0
856.0
855.0
856.0
857.0
858.0
857.0
857.0
855.0
854.0
852.0
851.0
850.0
850.0
851.0
852.0
855.0
853.0
854.0
854.0
850.0
847.0
847.0
846.0
848.0
846.0
847.0
848.0
849.0
851.0
850.0
849.0
847.0
843.0
843.0
842.0
841.0
842.0
843.0
843.0
842.0
841.0
840.0
839.0
837.0
835.0
836.0
833.0
833.0
834.0
835.0
836.0
838.0
836.0
836.0
833.0
832.0
833.0
829.0
831.0
829.0
833.0
834.0
836.0
838.0
839.0
839.0
841.0
840.0
841.0
839.0
842.0
842.0
844.0
848.0
852.0
853.0
856.0
857.0
866.0
867.0
872.0
875.0
876.0
882.0
885.0
891.0
897.0
900.0
902.0
905.0
907.0
907.0
908.0
906.0
906.0
906.0
906.0
907.0
904.0
903.0
902.0
901.0
902.0
897.0
895.0
891.0
892.0
893.0
895.0
895.0
896.0
896.0
897.0
895.0
895.0
893.0
890.0
890.0
885.0
886.0
888.0
890.0
890.0
890.0
892.0
889.0
887.0
888.0
884.0
884.0
883.0
882.0
884.0
885.0
884.0
887.0
887.0
887.0
887.0
885.0
883.0
884.0
881.0
881.0
882.0
884.0
884.0
886.0
886.0
887.0
885.0
886.0
884.0
883.0
883.0
882.0
884.0
884.0
886.0
888.0
889.0
886.0
889.0
890.0
889.0
893.0
894.0
898.0
899.0
902.0
902.0
901.0
901.0
902.0
904.0
904.0
905.0
907.0
906.0
904.0
903.0
904.0
904.0
903.0
904.0
900.0
898.0
896.0
894.0
892.0
889.0
885.0
883.0
880.0
878.0
876.0
874.0
871.0
870.0
870.0
866.0
865.0
862.0
864.0
865.0
866.0
869.0
868.0
872.0
873.0
873.0
870.0
868.0
866.0
868.0
869.0
870.0
875.0
874.0
874.0
876.0
876.0
885.0
896.0
908.0
924.0
944.0
970.0
995.0
1020.0
1031.0
1030.0
1009.0
981.0
950.0
914.0
874.0
839.0
811.0
800.0
799.0
803.0
807.0
811.0
814.0
817.0
823.0
829.0
833.0
838.0
838.0
840.0
840.0
841.0
841.0
840.0
839.0
837.0
837.0
839.0
837.0
836.0
836.0
837.0
837.0
837.0
836.0
836.0
836.0
836.0
836.0
838.0
835.0
830.0
830.0
828.0
825.0
827.0
830.0
830.0
831.0
831.0
830.0
830.0
830.0
826.0
824.0
820.0
820.0
820.0
822.0
824.0
827.0
826.0
824.0
822.0
820.0
817.0
815.0
815.0
811.0
815.0
816.0
817.0
820.0
819.0
818.0
816.0
814.0
813.0
811.0
810.0
811.0
813.0
812.0
815.0
817.0
818.0
819.0
818.0
815.0
817.0
815.0
818.0
819.0
823.0
827.0
832.0
835.0
836.0
839.0
842.0
847.0
848.0
850.0
854.0
860.0
865.0
867.0
872.0
877.0
880.0
881.0
880.0
886.0
888.0
885.0
887.0
886.0
886.0
888.0
890.0
889.0
887.0
888.0
883.0
881.0
880.0
882.0
880.0
879.0
882.0
882.0
883.0
885.0
883.0
884.0
883.0
879.0
878.0
875.0
876.0
877.0
877.0
878.0
880.0
880.0
879.0
880.0
877.0
877.0
874.0
876.0
874.0
874.0
875.0
878.0
876.0
876.0
879.0
879.0
877.0
876.0
876.0
875.0
873.0
875.0
878.0
878.0
876.0
879.0
879.0
877.0
878.0
878.0
875.0
876.0
875.0
877.0
876.0
879.0
883.0
883.0
887.0
881.0
883.0
882.0
884.0
886.0
886.0
890.0
890.0
893.0
897.0
898.0
899.0
900.0
901.0
899.0
896.0
898.0
897.0
900.0
904.0
907.0
907.0
908.0
906.0
903.0
902.0
899.0
897.0
896.0
894.0
893.0
894.0
893.0
890.0
889.0
885.0
882.0
880.0
877.0
874.0
872.0
873.0
872.0
872.0
876.0
875.0
876.0
875.0
879.0
876.0
875.0
874.0
873.0
873.0
876.0
876.0
878.0
880.0
880.0
879.0
881.0
883.0
885.0
895.0
908.0
924.0
947.0
976.0
1004.0
1027.0
1046.0
1051.0
1040.0
1017.0
990.0
963.0
938.0
908.0
875.0
842.0
822.0
816.0
823.0
831.0
834.0
831.0
828.0
829.0
831.0
834.0
844.0
851.0
859.0
859.0
860.0
860.0
858.0
858.0
853.0
853.0
853.0
854.0
854.0
857.0
856.0
857.0
858.0
854.0
854.0
852.0
851.0
852.0
850.0
850.0
849.0
850.0
852.0
850.0
852.0
850.0
850.0
852.0
848.0
846.0
844.0
845.0
846.0
846.0
846.0
847.0
848.0
846.0
846.0
844.0
843.0
842.0
840.0
841.0
839.0
840.0
841.0
840.0
840.0
840.0
839.0
836.0
836.0
835.0
832.0
834.0
835.0
835.0
837.0
837.0
839.0
840.0
837.0
835.0
835.0
835.0
833.0
836.0
837.0
839.0
842.0
844.0
849.0
849.0
850.0
851.0
851.0
854.0
855.0
858.0
862.0
864.0
870.0
876.0
883.0
883.0
885.0
889.0
893.0
896.0
903.0
903.0
906.0
909.0
909.0
910.0
913.0
911.0
911.0
911.0
906.0
907.0
906.0
903.0
905.0
907.0
906.0
905.0
905.0
904.0
901.0
900.0
899.0
894.0
893.0
895.0
894.0
894.0
895.0
897.0
898.0
896.0
895.0
896.0
894.0
893.0
890.0
889.0
889.0
888.0
892.0
892.0
892.0
891.0
889.0
888.0
886.0
885.0
885.0
883.0
884.0
886.0
887.0
885.0
888.0
890.0
888.0
888.0
886.0
886.0
884.0
882.0
883.0
884.0
886.0
888.0
888.0
891.0
889.0
889.0
889.0
888.0
886.0
887.0
890.0
892.0
894.0
896.0
899.0
900.0
900.0
898.0
898.0
897.0
898.0
898.0
900.0
903.0
906.0
909.0
911.0
911.0
908.0
906.0
902.0
899.0
899.0
896.0
896.0
895.0
894.0
891.0
889.0
888.0
883.0
882.0
876.0
874.0
872.0
870.0
866.0
868.0
870.0
870.0
872.0
872.0
871.0
871.0
869.0
867.0
866.0
867.0
867.0
868.0
868.0
867.0
871.0
872.0
871.0
871.0
868.0
866.0
867.0
868.0
866.0
872.0
879.0
890.0
908.0
929.0
952.0
980.0
1010.0
1032.0
1041.0
1034.0
1012.0
985.0
957.0
929.0
900.0
866.0
836.0
818.0
814.0
816.0
819.0
828.0
837.0
843.0
846.0
845.0
844.0
842.0
841.0
841.0
841.0
842.0
843.0
842.0
843.0
842.0
843.0
844.0
846.0
845.0
841.0
843.0
841.0
839.0
839.0
838.0
835.0
836.0
836.0
838.0
839.0
838.0
837.0
836.0
832.0
832.0
829.0
828.0
828.0
828.0
828.0
829.0
832.0
827.0
826.0
828.0
824.0
824.0
823.0
822.0
822.0
823.0
823.0
823.0
824.0
824.0
821.0
820.0
818.0
817.0
816.0
814.0
814.0
813.0
815.0
815.0
815.0
815.0
814.0
810.0
810.0
808.0
810.0
805.0
811.0
812.0
811.0
814.0
816.0
818.0
819.0
817.0
817.0
818.0
819.0
819.0
821.0
825.0
828.0
832.0
837.0
838.0
841.0
845.0
846.0
851.0
854.0
859.0
861.0
868.0
871.0
874.0
879.0
885.0
884.0
888.0
889.0
889.0
889.0
890.0
889.0
890.0
891.0
892.0
892.0
890.0
890.0
887.0
887.0
884.0
884.0
881.0
884.0
883.0
883.0
884.0
887.0
884.0
884.0
883.0
881.0
881.0
878.0
878.0
878.0
878.0
877.0
878.0
880.0
878.0
877.0
877.0
872.0
869.0
869.0
869.0
866.0
869.0
868.0
871.0
871.0
873.0
871.0
870.0
869.0
866.0
866.0
864.0
863.0
863.0
868.0
866.0
870.0
870.0
870.0
867.0
865.0
867.0
867.0
866.0
865.0
868.0
870.0
871.0
873.0
873.0
872.0
874.0
873.0
873.0
875.0
874.0
879.0
880.0
883.0
884.0
886.0
889.0
886.0
886.0
885.0
883.0
882.0
888.0
888.0
892.0
893.0
893.0
894.0
891.0
888.0
885.0
882.0
877.0
878.0
875.0
873.0
872.0
873.0
870.0
870.0
866.0
865.0
861.0
857.0
856.0
853.0
852.0
851.0
852.0
853.0
854.0
854.0
857.0
857.0
853.0
853.0
853.0
854.0
852.0
853.0
854.0
855.0
854.0
858.0
861.0
867.0
879.0
890.0
910.0
932.0
961.0
988.0
