# Simple Text Format
# Sampling Rate (Hz):= 360.00
# Resolution:= 12
# Labels:= ECG
861.0
865.0
865.0
866.0
867.0
867.0
865.0
863.0
865.0
861.0
862.0
862.0
864.0
865.0
865.0
866.0
870.0
871.0
869.0
870.0
871.0
870.0
871.0
874.0
876.0
879.0
881.0
885.0
888.0
887.0
886.0
885.0
883.0
880.0
881.0
879.0
885.0
887.0
891.0
892.0
893.0
890.0
888.0
884.0
878.0
875.0
873.0
870.0
871.0
869.0
870.0
869.0
867.0
864.0
866.0
860.0
856.0
856.0
854.0
853.0
855.0
854.0
856.0
856.0
857.0
858.0
859.0
857.0
854.0
854.0
854.0
852.0
855.0
856.0
857.0
858.0
859.0
859.0
860.0
860.0
861.0
863.0
873.0
885.0
900.0
920.0
944.0
970.0
995.0
1011.0
1021.0
1016.0
994.0
969.0
941.0
916.0
886.0
856.0
826.0
801.0
791.0
791.0
796.0
801.0
806.0
811.0
813.0
818.0
822.0
825.0
825.0
831.0
835.0
836.0
837.0
840.0
836.0
837.0
836.0
835.0
834.0
835.0
837.0
838.0
838.0
837.0
837.0
833.0
831.0
830.0
832.0
831.0
830.0
833.0
831.0
833.0
832.0
832.0
832.0
832.0
830.0
830.0
828.0
827.0
826.0
827.0
828.0
828.0
829.0
829.0
827.0
826.0
826.0
825.0
824.0
825.0
824.0
821.0
823.0
822.0
823.0
821.0
822.0
819.0
817.0
815.0
815.0
816.0
814.0
815.0
817.0
820.0
821.0
821.0
823.0
821.0
822.0
823.0
822.0
822.0
829.0
829.0
831.0
833.0
834.0
837.0
838.0
839.0
841.0
843.0
846.0
850.0
855.0
859.0
862.0
867.0
872.0
876.0
878.0
884.0
884.0
886.0
888.0
888.0
891.0
892.0
893.0
895.0
897.0
897.0
894.0
890.0
886.0
885.0
883.0
884.0
888.0
886.0
888.0
885.0
884.0
885.0
882.0
883.0
881.0
880.0
878.0
875.0
877.0
875.0
880.0
880.0
880.0
879.0
878.0
875.0
873.0
871.0
868.0
868.0
872.0
872.0
872.0
871.0
871.0
871.0
872.0
871.0
871.0
868.0
868.0
866.0
867.0
866.0
868.0
870.0
872.0
873.0
873.0
871.0
871.0
869.0
867.0
867.0
867.0
869.0
873.0
875.0
879.0
882.0
883.0
884.0
885.0
887.0
890.0
889.0
888.0
890.0
889.0
890.0
890.0
890.0
892.0
894.0
895.0
896.0
896.0
892.0
890.0
888.0
886.0
883.0
885.0
882.0
881.0
879.0
877.0
875.0
873.0
869.0
867.0
866.0
864.0
862.0
864.0
862.0
862.0
859.0
858.0
858.0
858.0
858.0
857.0
858.0
861.0
860.0
863.0
864.0
862.0
861.0
859.0
858.0
859.0
854.0
856.0
861.0
863.0
866.0
867.0
869.0
875.0
883.0
896.0
912.0
937.0
964.0
991.0
1014.0
1023.0
1013.0
990.0
956.0
924.0
886.0
848.0
815.0
791.0
785.0
787.0
795.0
803.0
809.0
817.0
820.0
823.0
826.0
827.0
833.0
836.0
839.0
839.0
840.0
839.0
839.0
843.0
839.0
841.0
839.0
839.0
839.0
835.0
837.0
837.0
839.0
839.0
839.0
841.0
839.0
838.0
837.0
833.0
832.0
832.0
836.0
834.0
835.0
835.0
838.0
839.0
839.0
836.0
834.0
829.0
832.0
829.0
830.0
828.0
829.0
829.0
831.0
831.0
829.0
829.0
827.0
825.0
822.0
821.0
821.0
823.0
823.0
825.0
823.0
824.0
825.0
824.0
821.0
821.0
819.0
818.0
816.0
818.0
823.0
822.0
823.0
827.0
826.0
826.0
826.0
826.0
826.0
825.0
828.0
828.0
833.0
833.0
836.0
840.0
844.0
847.0
845.0
849.0
854.0
855.0
858.0
863.0
866.0
874.0
878.0
885.0
886.0
887.0
889.0
890.0
893.0
892.0
892.0
893.0
897.0
897.0
899.0
900.0
899.0
896.0
894.0
891.0
891.0
890.0
887.0
886.0
886.0
887.0
888.0
889.0
888.0
883.0
884.0
880.0
881.0
878.0
878.0
878.0
878.0
880.0
881.0
880.0
878.0
875.0
875.0
874.0
873.0
870.0
872.0
870.0
872.0
872.0
873.0
877.0
875.0
875.0
874.0
871.0
869.0
869.0
868.0
870.0
871.0
873.0
875.0
877.0
875.0
875.0
871.0
870.0
870.0
870.0
871.0
870.0
871.0
873.0
877.0
878.0
879.0
882.0
883.0
881.0
882.0
885.0
887.0
890.0
891.0
893.0
895.0
896.0
891.0
890.0
892.0
895.0
896.0
897.0
896.0
898.0
897.0
892.0
889.0
889.0
884.0
884.0
884.0
882.0
881.0
877.0
876.0
873.0
873.0
870.0
869.0
870.0
866.0
864.0
862.0
860.0
859.0
858.0
857.0
857.0
860.0
859.0
860.0
861.0
860.0
859.0
861.0
860.0
860.0
862.0
862.0
864.0
865.0
869.0
871.0
877.0
884.0
893.0
903.0
921.0
946.0
973.0
995.0
1012.0
1021.0
1018.0
1002.0
976.0
948.0
921.0
893.0
854.0
822.0
800.0
791.0
792.0
798.0
807.0
813.0
823.0
825.0
830.0
832.0
833.0
836.0
842.0
841.0
842.0
843.0
844.0
846.0
847.0
847.0
844.0
843.0
841.0
841.0
839.0
838.0
839.0
840.0
841.0
842.0
844.0
842.0
840.0
841.0
838.0
837.0
837.0
835.0
835.0
835.0
836.0
838.0
839.0
836.0
834.0
835.0
830.0
828.0
828.0
827.0
828.0
828.0
830.0
833.0
834.0
832.0
831.0
830.0
830.0
828.0
828.0
822.0
821.0
822.0
827.0
827.0
827.0
826.0
826.0
825.0
822.0
824.0
827.0
826.0
827.0
827.0
827.0
831.0
835.0
836.0
837.0
839.0
838.0
838.0
841.0
845.0
847.0
851.0
854.0
859.0
865.0
866.0
870.0
873.0
874.0
876.0
879.0
882.0
886.0
892.0
897.0
899.0
903.0
902.0
899.0
899.0
896.0
894.0
893.0
890.0
887.0
888.0
890.0
889.0
890.0
888.0
889.0
887.0
887.0
884.0
882.0
879.0
881.0
881.0
879.0
880.0
877.0
877.0
879.0
879.0
878.0
876.0
875.0
873.0
874.0
874.0
875.0
878.0
878.0
878.0
877.0
877.0
874.0
874.0
873.0
872.0
871.0
870.0
874.0
871.0
876.0
872.0
875.0
876.0
875.0
872.0
872.0
874.0
874.0
874.0
874.0
873.0
874.0
877.0
879.0
878.0
875.0
878.0
881.0
885.0
886.0
889.0
892.0
895.0
898.0
896.0
893.0
892.0
891.0
891.0
890.0
892.0
897.0
899.0
901.0
900.0
898.0
895.0
890.0
888.0
885.0
883.0
884.0
882.0
881.0
882.0
880.0
875.0
874.0
871.0
870.0
866.0
865.0
861.0
860.0
860.0
860.0
861.0
861.0
862.0
865.0
864.0
862.0
861.0
860.0
859.0
858.0
857.0
859.0
859.0
861.0
864.0
867.0
867.0
867.0
866.0
865.0
868.0
869.0
876.0
886.0
899.0
915.0
936.0
959.0
987.0
1010.0
1021.0
1019.0
1002.0
974.0
945.0
911.0
875.0
840.0
811.0
796.0
793.0
797.0
803.0
808.0
816.0
819.0
821.0
827.0
834.0
841.0
845.0
846.0
848.0
847.0
844.0
842.0
841.0
840.0
839.0
841.0
840.0
842.0
843.0
846.0
847.0
844.0
842.0
842.0
841.0
839.0
838.0
836.0
838.0
839.0
842.0
842.0
842.0
841.0
838.0
835.0
836.0
836.0
833.0
833.0
834.0
836.0
838.0
840.0
838.0
837.0
836.0
836.0
834.0
832.0
831.0
830.0
829.0
831.0
830.0
829.0
834.0
832.0
829.0
829.0
829.0
827.0
827.0
827.0
826.0
827.0
827.0
830.0
832.0
829.0
829.0
826.0
825.0
823.0
825.0
824.0
829.0
832.0
834.0
837.0
839.0
839.0
840.0
841.0
841.0
844.0
844.0
847.0
850.0
856.0
857.0
865.0
867.0
871.0
873.0
875.0
878.0
881.0
882.0
885.0
890.0
893.0
894.0
898.0
897.0
899.0
899.0
896.0
896.0
894.0
890.0
889.0
893.0
894.0
894.0
891.0
891.0
891.0
889.0
888.0
886.0
884.0
883.0
882.0
883.0
882.0
882.0
883.0
883.0
882.0
881.0
878.0
879.0
878.0
877.0
876.0
877.0
876.0
875.0
875.0
879.0
878.0
875.0
874.0
872.0
872.0
868.0
870.0
871.0
871.0
873.0
873.0
874.0
871.0
869.0
868.0
866.0
869.0
868.0
868.0
870.0
872.0
875.0
874.0
877.0
876.0
876.0
875.0
876.0
877.0
878.0
881.0
884.0
889.0
891.0
895.0
894.0
892.0
893.0
891.0
891.0
890.0
890.0
890.0
895.0
897.0
898.0
896.0
892.0
887.0
884.0
879.0
877.0
876.0
877.0
878.0
878.0
877.0
875.0
876.0
868.0
866.0
864.0
860.0
856.0
856.0
856.0
855.0
856.0
859.0
859.0
858.0
860.0
860.0
858.0
856.0
858.0
857.0
856.0
857.0
858.0
860.0
862.0
861.0
862.0
863.0
861.0
861.0
864.0
871.0
882.0
897.0
917.0
941.0
968.0
993.0
1012.0
1019.0
1012.0
992.0
963.0
936.0
906.0
876.0
843.0
815.0
796.0
791.0
797.0
800.0
807.0
809.0
811.0
814.0
816.0
821.0
827.0
831.0
838.0
840.0
844.0
842.0
841.0
839.0
837.0
836.0
835.0
835.0
835.0
837.0
838.0
838.0
839.0
840.0
837.0
838.0
836.0
832.0
832.0
832.0
832.0
831.0
834.0
835.0
838.0
835.0
836.0
831.0
830.0
827.0
828.0
828.0
828.0
828.0
827.0
827.0
826.0
827.0
823.0
822.0
823.0
822.0
822.0
823.0
823.0
825.0
824.0
823.0
823.0
820.0
822.0
820.0
820.0
818.0
815.0
818.0
817.0
818.0
819.0
820.0
819.0
821.0
820.0
820.0
820.0
821.0
821.0
824.0
828.0
828.0
832.0
834.0
835.0
838.0
842.0
840.0
842.0
844.0
847.0
851.0
852.0
857.0
865.0
869.0
874.0
877.0
879.0
879.0
881.0
883.0
882.0
887.0
887.0
890.0
891.0
894.0
891.0
893.0
890.0
889.0
888.0
887.0
883.0
884.0
883.0
882.0
882.0
883.0
882.0
882.0
882.0
879.0
879.0
876.0
873.0
873.0
874.0
875.0
874.0
874.0
876.0
874.0
872.0
872.0
871.0
869.0
867.0
868.0
868.0
868.0
868.0
871.0
872.0
870.0
868.0
869.0
868.0
867.0
866.0
864.0
865.0
868.0
866.0
864.0
862.0
861.0
864.0
862.0
865.0
863.0
863.0
868.0
868.0
868.0
870.0
871.0
873.0
872.0
873.0
871.0
871.0
871.0
872.0
875.0
878.0
881.0
885.0
889.0
889.0
887.0
885.0
887.0
889.0
887.0
888.0
888.0
887.0
891.0
889.0
884.0
882.0
880.0
879.0
877.0
875.0
875.0
873.0
870.0
867.0
865.0
862.0
861.0
860.0
858.0
857.0
856.0
854.0
852.0
851.0
852.0
855.0
855.0
855.0
854.0
856.0
854.0
853.0
854.0
850.0
852.0
849.0
849.0
848.0
852.0
854.0
857.0
859.0
859.0
860.0
858.0
858.0
859.0
864.0
872.0
888.0
903.0
926.0
954.0
977.0
998.0
1012.0
1012.0
1001.0
980.0
954.0
926.0
901.0
869.0
836.0
812.0
797.0
792.0
797.0
799.0
803.0
802.0
803.0
813.0
817.0
823.0
827.0
832.0
835.0
833.0
833.0
830.0
830.0
831.0
828.0
830.0
831.0
831.0
830.0
834.0
832.0
830.0
831.0
829.0
828.0
827.0
823.0
824.0
827.0
825.0
827.0
827.0
828.0
827.0
827.0
824.0
823.0
824.0
822.0
822.0
822.0
822.0
823.0
824.0
823.0
822.0
820.0
817.0
817.0
817.0
816.0
816.0
816.0
814.0
817.0
815.0
815.0
815.0
815.0
814.0
814.0
812.0
812.0
812.0
810.0
811.0
813.0
813.0
813.0
815.0
815.0
815.0
816.0
815.0
817.0
817.0
818.0
823.0
822.0
824.0
824.0
827.0
829.0
832.0
832.0
834.0
837.0
838.0
841.0
847.0
855.0
860.0
865.0
868.0
869.0
869.0
871.0
872.0
875.0
876.0
877.0
880.0
882.0
884.0
883.0
884.0
884.0
884.0
880.0
878.0
875.0
872.0
874.0
875.0
875.0
873.0
875.0
873.0
872.0
870.0
869.0
865.0
864.0
862.0
864.0
866.0
865.0
865.0
865.0
863.0
864.0
863.0
861.0
862.0
859.0
859.0
858.0
861.0
862.0
862.0
862.0
862.0
860.0
857.0
855.0
854.0
852.0
852.0
854.0
856.0
857.0
858.0
860.0
858.0
859.0
860.0
858.0
857.0
856.0
856.0
856.0
857.0
860.0
861.0
863.0
864.0
863.0
863.0
862.0
862.0
863.0
865.0
867.0
870.0
876.0
879.0
878.0
876.0
875.0
872.0
872.0
871.0
873.0
872.0
878.0
880.0
884.0
885.0
882.0
879.0
875.0
870.0
867.0
866.0
862.0
863.0
863.0
865.0
863.0
857.0
854.0
852.0
849.0
845.0
845.0
843.0
842.0
841.0
843.0
845.0
845.0
847.0
848.0
848.0
848.0
848.0
846.0
844.0
839.0
840.0
841.0
841.0
845.0
849.0
848.0
850.0
850.0
849.0
849.0
851.0
858.0
868.0
884.0
907.0
933.0
961.0
985.0
1004.0
1012.0
1004.0
986.0
960.0
934.0
908.0
878.0
842.0
814.0
796.0
794.0
799.0
803.0
800.0
800.0
797.0
796.0
797.0
807.0
810.0
820.0
827.0
830.0
831.0
828.0
826.0
825.0
821.0
820.0
822.0
823.0
826.0
822.0
825.0
826.0
826.0
824.0
824.0
824.0
822.0
824.0
820.0
821.0
822.0
824.0
825.0
825.0
822.0
820.0
823.0
820.0
821.0
819.0
817.0
816.0
816.0
817.0
819.0
819.0
820.0
819.0
816.0
816.0
814.0
813.0
810.0
815.0
812.0
814.0
814.0
814.0
813.0
812.0
810.0
810.0
809.0
805.0
807.0
807.0
807.0
811.0
812.0
810.0
810.0
811.0
807.0
807.0
809.0
809.0
809.0
812.0
813.0
817.0
819.0
822.0
821.0
823.0
822.0
825.0
826.0
828.0
831.0
832.0
841.0
845.0
850.0
854.0
859.0
858.0
861.0
863.0
864.0
866.0
869.0
872.0
874.0
878.0
879.0
880.0
880.0
878.0
876.0
876.0
876.0
875.0
875.0
873.0
876.0
874.0
872.0
871.0
871.0
873.0
871.0
869.0
866.0
864.0
865.0
863.0
866.0
865.0
866.0
866.0
866.0
865.0
863.0
862.0
861.0
856.0
859.0
858.0
860.0
859.0
863.0
862.0
863.0
863.0
864.0
856.0
853.0
852.0
853.0
854.0
853.0
854.0
857.0
860.0
856.0
855.0
856.0
856.0
856.0
853.0
855.0
857.0
855.0
858.0
861.0
860.0
858.0
859.0
858.0
857.0
857.0
858.0
861.0
865.0
866.0
871.0
874.0
877.0
878.0
876.0
877.0
872.0
870.0
872.0
872.0
873.0
876.0
878.0
880.0
886.0
886.0
884.0
881.0
877.0
870.0
865.0
863.0
864.0
865.0
867.0
867.0
866.0
861.0
858.0
853.0
849.0
846.0
845.0
845.0
847.0
848.0
851.0
850.0
853.0
851.0
851.0
849.0
847.0
844.0
843.0
844.0
845.0
849.0
851.0
852.0
851.0
854.0
854.0
854.0
850.0
849.0
848.0
849.0
851.0
856.0
862.0
874.0
888.0
908.0
930.0
955.0
977.0
997.0
1012.0
1014.0
1007.0
986.0
964.0
939.0
913.0
883.0
851.0
820.0
798.0
791.0
794.0
802.0
806.0
809.0
807.0
808.0
811.0
814.0
819.0
824.0
827.0
830.0
828.0
826.0
828.0
829.0
828.0
829.0
829.0
829.0
829.0
829.0
826.0
825.0
823.0
825.0
825.0
824.0
826.0
827.0
829.0
828.0
826.0
827.0
825.0
825.0
826.0
823.0
823.0
824.0
824.0
825.0
827.0
825.0
825.0
821.0
818.0
819.0
818.0
817.0
817.0
818.0
818.0
820.0
820.0
820.0
819.0
819.0
815.0
812.0
810.0
812.0
812.0
812.0
810.0
813.0
816.0
816.0
815.0
811.0
813.0
810.0
809.0
809.0
813.0
814.0
817.0
818.0
821.0
821.0
819.0
817.0
815.0
818.0
817.0
820.0
823.0
828.0
830.0
834.0
841.0
842.0
846.0
851.0
855.0
858.0
862.0
866.0
869.0
872.0
877.0
879.0
883.0
883.0
885.0
884.0
884.0
881.0
881.0
882.0
881.0
881.0
882.0
883.0
884.0
881.0
880.0
879.0
879.0
875.0
875.0
872.0
871.0
874.0
874.0
873.0
875.0
875.0
875.0
872.0
870.0
866.0
867.0
867.0
866.0
868.0
870.0
872.0
874.0
871.0
872.0
868.0
867.0
865.0
865.0
866.0
866.0
866.0
869.0
870.0
871.0
869.0
869.0
865.0
864.0
863.0
864.0
862.0
863.0
863.0
865.0
867.0
872.0
871.0
870.0
869.0
869.0
870.0
872.0
873.0
875.0
877.0
878.0
883.0
887.0
887.0
886.0
884.0
884.0
884.0
884.0
883.0
883.0
885.0
890.0
892.0
895.0
894.0
889.0
887.0
881.0
877.0
872.0
872.0
872.0
873.0
875.0
875.0
874.0
871.0
865.0
861.0
860.0
857.0
857.0
853.0
854.0
855.0
854.0
857.0
859.0
856.0
857.0
856.0
854.0
854.0
855.0
852.0
854.0
854.0
854.0
855.0
860.0
858.0
858.0
857.0
858.0
857.0
857.0
858.0
862.0
872.0
888.0
908.0
937.0
965.0
993.0
1020.0
1032.0
1026.0
1005.0
978.0
949.0
922.0
893.0
863.0
831.0
812.0
801.0
802.0
805.0
808.0
812.0
818.0
823.0
827.0
831.0
833.0
836.0
837.0
837.0
836.0
839.0
838.0
838.0
834.0
835.0
834.0
835.0
837.0
837.0
838.0
836.0
835.0
836.0
834.0
831.0
830.0
830.0
831.0
832.0
833.0
835.0
832.0
834.0
835.0
834.0
832.0
832.0
829.0
831.0
830.0
832.0
833.0
833.0
832.0
830.0
829.0
826.0
824.0
822.0
819.0
821.0
822.0
824.0
823.0
824.0
823.0
820.0
821.0
819.0
815.0
813.0
813.0
810.0
810.0
813.0
811.0
815.0
813.0
812.0
811.0
811.0
812.0
812.0
812.0
813.0
815.0
817.0
818.0
822.0
822.0
823.0
824.0
824.0
823.0
826.0
828.0
831.0
833.0
839.0
843.0
847.0
850.0
855.0
857.0
861.0
865.0
868.0
869.0
875.0
878.0
883.0
885.0
887.0
891.0
891.0
891.0
890.0
888.0
886.0
887.0
886.0
887.0
887.0
892.0
890.0
890.0
888.0
887.0
884.0
883.0
883.0
881.0
880.0
881.0
880.0
882.0
883.0
882.0
882.0
880.0
877.0
877.0
875.0
875.0
875.0
876.0
878.0
878.0
880.0
878.0
876.0
875.0
873.0
871.0
870.0
870.0
868.0
867.0
871.0
874.0
875.0
875.0
874.0
875.0
872.0
870.0
871.0
872.0
869.0
869.0
871.0
872.0
876.0
875.0
876.0
875.0
874.0
872.0
873.0
873.0
876.0
879.0
882.0
887.0
889.0
893.0
894.0
892.0
892.0
888.0
887.0
888.0
889.0
891.0
891.0
892.0
895.0
897.0
897.0
896.0
895.0
892.0
886.0
879.0
878.0
877.0
876.0
880.0
881.0
879.0
878.0
873.0
868.0
862.0
861.0
858.0
857.0
858.0
858.0
861.0
864.0
862.0
863.0
860.0
859.0
858.0
856.0
857.0
860.0
861.0
861.0
863.0
862.0
863.0
864.0
863.0
863.0
862.0
861.0
861.0
862.0
867.0
877.0
886.0
902.0
919.0
941.0
966.0
992.0
1011.0
1027.0
1025.0
1011.0
988.0
962.0
936.0
910.0
878.0
849.0
821.0
801.0
795.0
796.0
801.0
808.0
814.0
820.0
826.0
830.0
832.0
835.0
835.0
839.0
840.0
841.0
838.0
837.0
840.0
841.0
838.0
841.0
839.0
840.0
839.0
838.0
837.0
837.0
835.0
834.0
835.0
838.0
838.0
838.0
836.0
836.0
835.0
834.0
832.0
832.0
832.0
833.0
832.0
835.0
835.0
835.0
834.0
834.0
833.0
829.0
824.0
823.0
823.0
822.0
826.0
828.0
829.0
828.0
826.0
825.0
822.0
821.0
818.0
818.0
819.0
817.0
816.0
818.0
819.0
818.0
815.0
817.0
816.0
815.0
815.0
816.0
813.0
813.0
815.0
816.0
816.0
820.0
819.0
819.0
821.0
822.0
824.0
823.0
824.0
829.0
833.0
837.0
844.0
848.0
851.0
851.0
858.0
860.0
865.0
869.0
875.0
876.0
882.0
885.0
886.0
889.0
888.0
889.0
889.0
889.0
889.0
888.0
889.0
888.0
889.0
889.0
892.0
892.0
891.0
890.0
888.0
885.0
883.0
881.0
878.0
877.0
878.0
881.0
881.0
881.0
879.0
880.0
881.0
880.0
879.0
878.0
877.0
878.0
876.0
876.0
877.0
879.0
880.0
880.0
879.0
875.0
874.0
873.0
872.0
872.0
873.0
875.0
876.0
878.0
877.0
876.0
873.0
872.0
873.0
867.0
869.0
868.0
871.0
870.0
872.0
875.0
876.0
875.0
875.0
873.0
871.0
872.0
876.0
876.0
875.0
880.0
885.0
890.0
891.0
893.0
893.0
890.0
891.0
891.0
887.0
890.0
891.0
893.0
896.0
898.0
900.0
900.0
900.0
897.0
892.0
888.0
880.0
878.0
880.0
880.0
882.0
886.0
887.0
884.0
880.0
877.0
872.0
868.0
864.0
864.0
862.0
864.0
864.0
865.0
865.0
865.0
864.0
862.0
862.0
860.0
858.0
859.0
860.0
863.0
863.0
865.0
864.0
863.0
865.0
863.0
862.0
861.0
861.0
862.0
864.0
865.0
866.0
867.0
876.0
881.0
895.0
909.0
928.0
954.0
978.0
1002.0
1020.0
1026.0
1017.0
997.0
968.0
941.0
913.0
885.0
856.0
823.0
802.0
795.0
795.0
800.0
807.0
813.0
819.0
821.0
825.0
828.0
828.0
831.0
837.0
841.0
844.0
846.0
849.0
847.0
847.0
845.0
845.0
842.0
840.0
839.0
839.0
839.0
843.0
841.0
842.0
843.0
843.0
844.0
841.0
840.0
840.0
841.0
839.0
837.0
838.0
838.0
839.0
840.0
843.0
838.0
838.0
837.0
835.0
834.0
833.0
832.0
833.0
834.0
833.0
837.0
835.0
833.0
834.0
831.0
830.0
830.0
828.0
827.0
827.0
830.0
831.0
831.0
829.0
826.0
824.0
823.0
822.0
819.0
820.0
820.0
820.0
821.0
823.0
823.0
825.0
824.0
825.0
824.0
825.0
822.0
825.0
826.0
825.0
829.0
828.0
831.0
833.0
833.0
837.0
837.0
839.0
844.0
844.0
848.0
852.0
857.0
860.0
867.0
872.0
876.0
878.0
880.0
883.0
884.0
887.0
890.0
891.0
895.0
895.0
900.0
901.0
901.0
898.0
898.0
897.0
894.0
893.0
893.0
893.0
892.0
893.0
895.0
896.0
895.0
895.0
892.0
892.0
890.0
888.0
890.0
886.0
890.0
886.0
887.0
885.0
884.0
887.0
885.0
885.0
883.0
883.0
884.0
886.0
886.0
883.0
884.0
884.0
883.0
883.0
882.0
882.0
881.0
878.0
879.0
880.0
881.0
881.0
882.0
884.0
882.0
882.0
881.0
880.0
878.0
878.0
876.0
878.0
880.0
880.0
882.0
882.0
880.0
881.0
881.0
880.0
882.0
879.0
880.0
882.0
883.0
885.0
888.0
890.0
893.0
896.0
897.0
895.0
893.0
896.0
896.0
897.0
900.0
898.0
903.0
901.0
904.0
905.0
904.0
903.0
904.0
901.0
898.0
894.0
891.0
892.0
892.0
893.0
891.0
889.0
883.0
879.0
875.0
872.0
868.0
867.0
868.0
867.0
869.0
872.0
870.0
869.0
868.0
867.0
865.0
866.0
867.0
867.0
867.0
871.0
870.0
872.0
870.0
869.0
869.0
868.0
868.0
869.0
871.0
871.0
873.0
875.0
881.0
887.0
898.0
908.0
924.0
947.0
972.0
997.0
1018.0
1028.0
1028.0
1012.0
989.0
962.0
933.0
904.0
870.0
841.0
814.0
799.0
798.0
801.0
807.0
813.0
821.0
825.0
828.0
832.0
834.0
837.0
839.0
842.0
845.0
845.0
846.0
848.0
848.0
848.0
850.0
845.0
843.0
841.0
842.0
840.0
841.0
844.0
846.0
845.0
845.0
844.0
842.0
842.0
841.0
840.0
837.0
835.0
839.0
838.0
838.0
839.0
838.0
839.0
837.0
837.0
836.0
832.0
832.0
830.0
831.0
830.0
831.0
833.0
831.0
831.0
830.0
829.0
829.0
828.0
825.0
826.0
824.0
822.0
825.0
823.0
824.0
823.0
822.0
823.0
820.0
818.0
817.0
816.0
816.0
816.0
817.0
819.0
821.0
824.0
823.0
823.0
823.0
822.0
823.0
824.0
823.0
827.0
829.0
834.0
834.0
839.0
843.0
845.0
851.0
853.0
855.0
859.0
863.0
869.0
874.0
880.0
882.0
886.0
886.0
885.0
885.0
887.0
891.0
892.0
891.0
892.0
894.0
892.0
896.0
895.0
889.0
888.0
888.0
886.0
886.0
882.0
884.0
885.0
884.0
885.0
885.0
883.0
882.0
880.0
880.0
876.0
877.0
875.0
874.0
874.0
874.0
875.0
876.0
877.0
880.0
874.0
875.0
875.0
871.0
872.0
872.0
874.0
874.0
875.0
874.0
876.0
876.0
873.0
871.0
869.0
867.0
868.0
871.0
868.0
870.0
870.0
870.0
873.0
871.0
872.0
872.0
870.0
871.0
872.0
874.0
874.0
877.0
877.0
877.0
877.0
878.0
874.0
874.0
877.0
877.0
879.0
882.0
885.0
888.0
884.0
888.0
888.0
888.0
888.0
888.0
889.0
888.0
890.0
893.0
898.0
895.0
894.0
891.0
887.0
887.0
885.0
881.0
880.0
880.0
878.0
880.0
879.0
877.0
874.0
868.0
865.0
865.0
866.0
861.0
862.0
859.0
859.0
857.0
857.0
859.0
860.0
859.0
861.0
864.0
862.0
860.0
856.0
858.0
857.0
859.0
860.0
862.0
863.0
862.0
864.0
865.0
864.0
862.0
864.0
865.0
865.0
871.0
881.0
896.0
914.0
941.0
969.0
996.0
1015.0
1025.0
1020.0
1003.0
980.0
955.0
930.0
907.0
873.0
843.0
814.0
806.0
808.0
812.0
815.0
815.0
813.0
811.0
813.0
819.0
824.0
832.0
836.0
839.0
841.0
839.0
837.0
837.0
838.0
838.0
837.0
838.0
839.0
840.0
837.0
836.0
835.0
833.0
835.0
835.0
837.0
835.0
837.0
839.0
838.0
839.0
840.0
840.0
838.0
837.0
832.0
833.0
831.0
831.0
833.0
832.0
833.0
834.0
836.0
833.0
833.0
831.0
830.0
828.0
826.0
826.0
828.0
826.0
827.0
827.0
828.0
823.0
825.0
824.0
823.0
821.0
819.0
819.0
818.0
819.0
820.0
821.0
822.0
822.0
821.0
822.0
822.0
819.0
818.0
819.0
819.0
821.0
823.0
823.0
823.0
825.0
826.0
827.0
830.0
830.0
832.0
833.0
836.0
841.0
841.0
848.0
851.0
854.0
859.0
858.0
862.0
863.0
864.0
870.0
877.0
879.0
885.0
887.0
889.0
889.0
888.0
889.0
887.0
885.0
885.0
884.0
885.0
886.0
887.0
885.0
885.0
886.0
882.0
880.0
876.0
873.0
874.0
874.0
875.0
874.0
875.0
874.0
875.0
872.0
872.0
870.0
867.0
865.0
863.0
866.0
868.0
866.0
864.0
866.0
868.0
865.0
866.0
866.0
863.0
862.0
866.0
861.0
862.0
863.0
867.0
866.0
866.0
868.0
866.0
864.0
864.0
860.0
860.0
860.0
861.0
861.0
861.0
863.0
864.0
865.0
864.0
862.0
863.0
862.0
862.0
865.0
862.0
866.0
870.0
873.0
873.0
875.0
875.0
872.0
873.0
873.0
872.0
877.0
876.0
879.0
879.0
882.0
883.0
884.0
882.0
878.0
875.0
871.0
869.0
868.0
866.0
871.0
868.0
868.0
866.0
862.0
856.0
853.0
850.0
847.0
846.0
846.0
846.0
847.0
848.0
849.0
849.0
849.0
848.0
850.0
851.0
851.0
847.0
845.0
845.0
847.0
848.0
851.0
851.0
853.0
852.0
850.0
849.0
849.0
849.0
849.0
849.0
858.0
873.0
887.0
908.0
935.0
963.0
988.0
1006.0
1021.0
1021.0
1004.0
980.0
952.0
926.0
899.0
869.0
834.0
803.0
788.0
786.0
792.0
797.0
797.0
798.0
798.0
804.0
811.0
819.0
824.0
825.0
826.0
826.0
819.0
816.0
818.0
820.0
823.0
825.0
826.0
828.0
828.0
826.0
822.0
820.0
817.0
815.0
815.0
816.0
816.0
819.0
821.0
822.0
822.0
819.0
819.0
817.0
815.0
814.0
814.0
814.0
815.0
816.0
817.0
815.0
813.0
814.0
810.0
808.0
808.0
805.0
805.0
805.0
806.0
806.0
807.0
807.0
804.0
805.0
802.0
799.0
799.0
797.0
794.0
794.0
797.0
801.0
799.0
800.0
799.0
796.0
797.0
797.0
794.0
796.0
798.0
797.0
800.0
803.0
803.0
806.0
804.0
801.0
800.0
803.0
805.0
807.0
812.0
818.0
822.0
825.0
830.0
834.0
838.0
840.0
842.0
845.0
851.0
849.0
851.0
853.0
856.0
863.0
869.0
870.0
868.0
871.0
867.0
866.0
866.0
865.0
864.0
865.0
865.0
864.0
866.0
866.0
865.0
864.0
862.0
860.0
858.0
856.0
857.0
857.0
860.0
861.0
863.0
861.0
863.0
859.0
857.0
854.0
853.0
851.0
851.0
852.0
856.0
856.0
856.0
858.0
855.0
854.0
853.0
853.0
852.0
851.0
853.0
850.0
854.0
852.0
854.0
856.0
854.0
854.0
851.0
852.0
851.0
849.0
851.0
850.0
849.0
854.0
855.0
854.0
856.0
853.0
854.0
854.0
853.0
852.0
850.0
851.0
855.0
855.0
858.0
861.0
861.0
863.0
864.0
864.0
864.0
864.0
865.0
866.0
868.0
871.0
874.0
872.0
874.0
875.0
876.0
877.0
878.0
877.0
877.0
877.0
875.0
872.0
868.0
864.0
865.0
862.0
862.0
860.0
858.0
