# Simple Text Format
# Sampling Rate (Hz):= 360.00
# Resolution:= 12
# Labels:= ECG
814.0
815.0
812.0
811.0
810.0
807.0
807.0
804.0
804.0
805.0
807.0
808.0
810.0
810.0
809.0
810.0
808.0
803.0
804.0
804.0
805.0
804.0
807.0
810.0
811.0
814.0
818.0
825.0
841.0
854.0
875.0
900.0
929.0
952.0
968.0
973.0
963.0
938.0
908.0
878.0
845.0
813.0
780.0
748.0
728.0
721.0
725.0
734.0
743.0
751.0
756.0
763.0
766.0
770.0
775.0
777.0
781.0
785.0
787.0
787.0
787.0
787.0
785.0
784.0
780.0
780.0
778.0
779.0
781.0
782.0
783.0
782.0
782.0
784.0
783.0
779.0
778.0
777.0
773.0
772.0
771.0
775.0
776.0
776.0
777.0
777.0
776.0
773.0
772.0
772.0
772.0
769.0
770.0
771.0
771.0
771.0
771.0
772.0
771.0
769.0
769.0
767.0
761.0
761.0
761.0
762.0
762.0
763.0
764.0
765.0
764.0
763.0
759.0
761.0
758.0
758.0
754.0
757.0
759.0
760.0
761.0
762.0
761.0
760.0
760.0
760.0
761.0
759.0
761.0
763.0
766.0
770.0
774.0
779.0
782.0
783.0
784.0
790.0
792.0
795.0
800.0
804.0
810.0
815.0
822.0
824.0
826.0
827.0
829.0
827.0
826.0
827.0
830.0
831.0
833.0
834.0
837.0
836.0
835.0
835.0
833.0
830.0
829.0
827.0
825.0
825.0
825.0
827.0
830.0
826.0
825.0
825.0
821.0
820.0
818.0
816.0
815.0
818.0
817.0
817.0
818.0
819.0
818.0
817.0
815.0
814.0
811.0
813.0
812.0
812.0
817.0
816.0
817.0
817.0
815.0
814.0
812.0
811.0
809.0
810.0
811.0
812.0
815.0
811.0
813.0
817.0
815.0
816.0
815.0
812.0
813.0
812.0
813.0
813.0
816.0
818.0
823.0
825.0
826.0
826.0
827.0
828.0
826.0
829.0
830.0
832.0
833.0
835.0
835.0
836.0
837.0
838.0
838.0
838.0
835.0
833.0
831.0
829.0
828.0
828.0
826.0
826.0
824.0
820.0
816.0
815.0
809.0
807.0
804.0
804.0
804.0
802.0
805.0
804.0
802.0
801.0
799.0
800.0
799.0
800.0
803.0
804.0
803.0
805.0
807.0
809.0
806.0
805.0
803.0
802.0
803.0
802.0
800.0
802.0
807.0
817.0
827.0
844.0
866.0
892.0
923.0
944.0
961.0
962.0
949.0
921.0
891.0
857.0
823.0
784.0
746.0
725.0
719.0
721.0
729.0
738.0
744.0
751.0
757.0
763.0
765.0
769.0
776.0
779.0
779.0
781.0
777.0
777.0
776.0
774.0
778.0
780.0
781.0
781.0
783.0
782.0
781.0
777.0
777.0
775.0
776.0
777.0
778.0
776.0
779.0
779.0
778.0
777.0
776.0
775.0
771.0
770.0
772.0
770.0
772.0
772.0
773.0
774.0
772.0
769.0
766.0
765.0
762.0
765.0
766.0
763.0
765.0
765.0
769.0
766.0
766.0
765.0
764.0
763.0
760.0
757.0
758.0
758.0
761.0
760.0
760.0
760.0
758.0
758.0
755.0
754.0
755.0
754.0
756.0
758.0
760.0
762.0
765.0
769.0
768.0
771.0
771.0
772.0
770.0
770.0
774.0
777.0
783.0
788.0
794.0
797.0
798.0
805.0
808.0
809.0
809.0
814.0
816.0
823.0
828.0
829.0
834.0
836.0
836.0
836.0
836.0
835.0
835.0
833.0
833.0
832.0
831.0
834.0
835.0
836.0
832.0
832.0
829.0
826.0
827.0
826.0
827.0
828.0
827.0
827.0
827.0
825.0
826.0
826.0
824.0
823.0
817.0
818.0
819.0
819.0
819.0
817.0
820.0
818.0
819.0
816.0
813.0
813.0
814.0
815.0
815.0
815.0
818.0
817.0
819.0
820.0
818.0
818.0
816.0
816.0
816.0
814.0
813.0
814.0
816.0
817.0
817.0
819.0
815.0
817.0
816.0
816.0
815.0
812.0
815.0
816.0
817.0
818.0
824.0
826.0
826.0
828.0
827.0
826.0
828.0
830.0
832.0
832.0
835.0
834.0
835.0
838.0
841.0
842.0
841.0
840.0
840.0
837.0
836.0
835.0
836.0
833.0
831.0
831.0
829.0
826.0
825.0
821.0
816.0
811.0
811.0
809.0
808.0
807.0
806.0
806.0
804.0
803.0
804.0
801.0
799.0
799.0
802.0
799.0
803.0
803.0
804.0
806.0
808.0
806.0
804.0
804.0
805.0
805.0
806.0
808.0
814.0
824.0
838.0
854.0
872.0
895.0
918.0
941.0
959.0
964.0
959.0
942.0
916.0
888.0
862.0
833.0
797.0
762.0
734.0
721.0
724.0
728.0
737.0
743.0
750.0
758.0
761.0
767.0
768.0
773.0
775.0
777.0
778.0
778.0
776.0
778.0
781.0
782.0
782.0
782.0
783.0
779.0
778.0
779.0
776.0
776.0
778.0
777.0
780.0
779.0
780.0
780.0
779.0
779.0
776.0
775.0
774.0
772.0
772.0
772.0
771.0
772.0
769.0
772.0
772.0
772.0
770.0
769.0
768.0
768.0
765.0
767.0
765.0
766.0
767.0
769.0
766.0
767.0
767.0
764.0
762.0
761.0
763.0
762.0
760.0
763.0
761.0
764.0
760.0
762.0
758.0
758.0
757.0
757.0
756.0
758.0
760.0
759.0
764.0
764.0
764.0
764.0
764.0
766.0
768.0
770.0
774.0
778.0
777.0
783.0
787.0
790.0
794.0
797.0
798.0
801.0
806.0
807.0
812.0
817.0
820.0
825.0
829.0
829.0
829.0
831.0
830.0
828.0
828.0
824.0
823.0
821.0
821.0
822.0
824.0
824.0
823.0
822.0
820.0
816.0
818.0
817.0
815.0
816.0
816.0
813.0
816.0
816.0
812.0
811.0
812.0
811.0
810.0
808.0
809.0
809.0
808.0
811.0
813.0
810.0
811.0
811.0
809.0
807.0
805.0
803.0
806.0
807.0
808.0
808.0
807.0
810.0
810.0
808.0
804.0
804.0
803.0
805.0
802.0
804.0
804.0
806.0
807.0
808.0
809.0
808.0
809.0
805.0
806.0
805.0
807.0
807.0
809.0
813.0
815.0
820.0
824.0
821.0
823.0
823.0
820.0
821.0
822.0
823.0
825.0
828.0
830.0
832.0
830.0
833.0
828.0
825.0
822.0
817.0
816.0
813.0
811.0
814.0
812.0
813.0
808.0
807.0
800.0
797.0
794.0
793.0
791.0
792.0
792.0
792.0
792.0
793.0
794.0
794.0
793.0
792.0
790.0
789.0
791.0
791.0
791.0
794.0
797.0
798.0
798.0
796.0
795.0
795.0
796.0
801.0
811.0
824.0
842.0
864.0
887.0
912.0
934.0
949.0
954.0
949.0
931.0
905.0
878.0
849.0
819.0
782.0
752.0
737.0
731.0
733.0
739.0
743.0
742.0
749.0
753.0
761.0
767.0
774.0
776.0
778.0
777.0
775.0
770.0
768.0
768.0
768.0
768.0
770.0
769.0
771.0
768.0
768.0
772.0
771.0
766.0
766.0
765.0
765.0
765.0
766.0
767.0
768.0
771.0
771.0
768.0
769.0
767.0
765.0
764.0
762.0
760.0
759.0
759.0
760.0
760.0
761.0
761.0
760.0
759.0
757.0
757.0
755.0
754.0
757.0
756.0
757.0
757.0
758.0
757.0
752.0
751.0
754.0
753.0
753.0
753.0
753.0
753.0
755.0
755.0
756.0
755.0
760.0
759.0
758.0
757.0
757.0
757.0
758.0
760.0
761.0
765.0
770.0
773.0
774.0
774.0
774.0
778.0
780.0
781.0
786.0
790.0
794.0
801.0
807.0
810.0
814.0
815.0
817.0
818.0
818.0
818.0
821.0
823.0
825.0
828.0
828.0
827.0
826.0
823.0
822.0
821.0
819.0
819.0
819.0
818.0
818.0
818.0
820.0
816.0
814.0
814.0
812.0
808.0
808.0
806.0
809.0
812.0
808.0
813.0
809.0
808.0
808.0
808.0
805.0
801.0
801.0
798.0
799.0
801.0
804.0
803.0
804.0
799.0
799.0
798.0
800.0
798.0
799.0
798.0
800.0
803.0
803.0
805.0
804.0
805.0
802.0
801.0
797.0
798.0
798.0
799.0
801.0
803.0
802.0
802.0
806.0
805.0
807.0
805.0
806.0
807.0
807.0
810.0
811.0
813.0
815.0
815.0
817.0
815.0
817.0
818.0
818.0
820.0
822.0
822.0
821.0
823.0
822.0
822.0
822.0
822.0
820.0
817.0
814.0
813.0
809.0
804.0
802.0
800.0
796.0
799.0
798.0
797.0
795.0
792.0
789.0
787.0
786.0
785.0
786.0
786.0
788.0
788.0
787.0
786.0
786.0
784.0
786.0
788.0
787.0
789.0
790.0
793.0
794.0
798.0
800.0
805.0
813.0
825.0
842.0
863.0
886.0
914.0
936.0
954.0
966.0
960.0
945.0
914.0
886.0
857.0
825.0
792.0
759.0
734.0
726.0
732.0
744.0
748.0
750.0
747.0
745.0
744.0
747.0
752.0
759.0
762.0
765.0
768.0
770.0
770.0
771.0
768.0
768.0
767.0
763.0
763.0
763.0
762.0
762.0
763.0
767.0
765.0
769.0
767.0
769.0
767.0
765.0
763.0
763.0
762.0
763.0
765.0
765.0
764.0
767.0
764.0
761.0
761.0
758.0
756.0
759.0
758.0
759.0
760.0
760.0
761.0
760.0
761.0
757.0
756.0
756.0
755.0
753.0
754.0
754.0
754.0
755.0
756.0
757.0
755.0
754.0
754.0
754.0
754.0
754.0
755.0
752.0
754.0
757.0
757.0
758.0
758.0
758.0
759.0
759.0
761.0
762.0
763.0
766.0
767.0
768.0
772.0
779.0
782.0
785.0
788.0
788.0
793.0
793.0
794.0
798.0
805.0
806.0
812.0
816.0
819.0
821.0
823.0
826.0
826.0
827.0
826.0
826.0
828.0
826.0
827.0
829.0
827.0
825.0
823.0
821.0
819.0
820.0
817.0
816.0
817.0
817.0
819.0
819.0
820.0
819.0
820.0
818.0
816.0
815.0
814.0
815.0
816.0
818.0
818.0
817.0
816.0
817.0
815.0
814.0
812.0
809.0
812.0
808.0
809.0
812.0
815.0
816.0
815.0
815.0
815.0
814.0
813.0
814.0
813.0
813.0
813.0
816.0
816.0
819.0
817.0
818.0
817.0
815.0
813.0
815.0
816.0
817.0
822.0
824.0
828.0
830.0
831.0
831.0
831.0
831.0
829.0
826.0
826.0
827.0
830.0
832.0
838.0
842.0
846.0
845.0
846.0
843.0
840.0
836.0
835.0
832.0
831.0
832.0
832.0
831.0
830.0
826.0
820.0
818.0
813.0
813.0
812.0
809.0
810.0
809.0
812.0
811.0
810.0
810.0
810.0
811.0
808.0
804.0
806.0
808.0
807.0
810.0
812.0
814.0
815.0
814.0
816.0
812.0
815.0
816.0
816.0
817.0
819.0
826.0
833.0
848.0
864.0
884.0
905.0
932.0
956.0
980.0
991.0
993.0
979.0
957.0
929.0
905.0
878.0
843.0
810.0
778.0
758.0
754.0
758.0
764.0
771.0
772.0
771.0
772.0
774.0
779.0
781.0
785.0
789.0
791.0
794.0
794.0
796.0
798.0
798.0
796.0
796.0
797.0
797.0
794.0
792.0
792.0
789.0
790.0
792.0
794.0
796.0
797.0
795.0
791.0
793.0
792.0
791.0
790.0
788.0
789.0
789.0
790.0
791.0
792.0
791.0
790.0
790.0
786.0
784.0
787.0
784.0
784.0
788.0
787.0
789.0
787.0
787.0
783.0
781.0
779.0
777.0
774.0
776.0
775.0
778.0
779.0
780.0
782.0
778.0
778.0
778.0
777.0
776.0
775.0
773.0
773.0
774.0
776.0
779.0
780.0
780.0
780.0
779.0
779.0
781.0
781.0
780.0
783.0
786.0
788.0
790.0
793.0
796.0
796.0
799.0
800.0
804.0
806.0
810.0
817.0
823.0
829.0
835.0
842.0
842.0
846.0
846.0
847.0
847.0
849.0
846.0
845.0
850.0
852.0
853.0
849.0
852.0
851.0
850.0
849.0
847.0
847.0
843.0
843.0
844.0
843.0
842.0
842.0
844.0
843.0
841.0
838.0
838.0
836.0
838.0
841.0
840.0
842.0
843.0
844.0
844.0
839.0
840.0
839.0
839.0
837.0
834.0
836.0
836.0
839.0
837.0
840.0
840.0
840.0
838.0
836.0
838.0
833.0
832.0
833.0
832.0
835.0
833.0
835.0
835.0
837.0
836.0
835.0
836.0
837.0
835.0
836.0
839.0
840.0
840.0
845.0
846.0
848.0
847.0
851.0
851.0
850.0
852.0
853.0
855.0
854.0
857.0
858.0
855.0
855.0
858.0
858.0
858.0
860.0
857.0
857.0
855.0
854.0
854.0
851.0
852.0
849.0
846.0
844.0
840.0
837.0
835.0
833.0
833.0
831.0
830.0
831.0
828.0
827.0
826.0
825.0
824.0
824.0
822.0
823.0
822.0
825.0
824.0
827.0
827.0
827.0
825.0
825.0
827.0
825.0
825.0
824.0
826.0
830.0
832.0
837.0
842.0
852.0
867.0
886.0
915.0
947.0
975.0
1000.0
1009.0
995.0
967.0
933.0
894.0
853.0
808.0
776.0
760.0
757.0
766.0
778.0
789.0
799.0
807.0
810.0
808.0
806.0
803.0
803.0
801.0
803.0
805.0
806.0
808.0
810.0
809.0
810.0
809.0
808.0
807.0
807.0
804.0
805.0
803.0
805.0
806.0
805.0
804.0
805.0
804.0
803.0
803.0
803.0
800.0
799.0
798.0
799.0
799.0
798.0
799.0
802.0
804.0
803.0
803.0
801.0
799.0
797.0
795.0
795.0
795.0
796.0
797.0
799.0
797.0
796.0
796.0
792.0
789.0
786.0
788.0
789.0
789.0
787.0
787.0
786.0
786.0
784.0
783.0
780.0
781.0
780.0
781.0
781.0
783.0
784.0
785.0
784.0
789.0
789.0
789.0
788.0
790.0
786.0
788.0
788.0
791.0
795.0
800.0
803.0
806.0
808.0
812.0
813.0
817.0
818.0
822.0
824.0
831.0
838.0
844.0
849.0
853.0
855.0
854.0
855.0
857.0
858.0
861.0
860.0
862.0
867.0
865.0
868.0
867.0
867.0
865.0
865.0
863.0
861.0
859.0
858.0
857.0
861.0
860.0
861.0
859.0
860.0
859.0
857.0
856.0
854.0
851.0
853.0
850.0
851.0
851.0
851.0
852.0
855.0
854.0
852.0
853.0
849.0
850.0
852.0
851.0
851.0
853.0
853.0
850.0
853.0
852.0
851.0
851.0
849.0
847.0
847.0
849.0
849.0
850.0
851.0
851.0
852.0
852.0
849.0
849.0
849.0
848.0
852.0
852.0
859.0
859.0
864.0
865.0
866.0
869.0
867.0
870.0
869.0
869.0
870.0
869.0
872.0
870.0
873.0
876.0
876.0
877.0
874.0
874.0
871.0
868.0
868.0
865.0
864.0
862.0
860.0
862.0
856.0
860.0
855.0
851.0
847.0
844.0
842.0
842.0
843.0
844.0
843.0
841.0
840.0
838.0
837.0
838.0
839.0
836.0
837.0
838.0
839.0
841.0
842.0
843.0
839.0
838.0
838.0
835.0
836.0
840.0
838.0
842.0
846.0
852.0
864.0
874.0
889.0
910.0
934.0
960.0
983.0
1003.0
1010.0
1005.0
984.0
958.0
929.0
899.0
868.0
833.0
800.0
779.0
772.0
772.0
781.0
790.0
800.0
809.0
814.0
815.0
813.0
814.0
813.0
816.0
814.0
816.0
817.0
819.0
821.0
822.0
822.0
821.0
822.0
819.0
819.0
815.0
818.0
816.0
816.0
815.0
815.0
819.0
818.0
818.0
817.0
817.0
813.0
812.0
809.0
812.0
809.0
811.0
812.0
812.0
815.0
814.0
812.0
808.0
807.0
805.0
802.0
804.0
803.0
802.0
803.0
802.0
804.0
804.0
802.0
800.0
798.0
797.0
795.0
794.0
793.0
797.0
795.0
796.0
794.0
795.0
795.0
796.0
794.0
792.0
792.0
790.0
791.0
792.0
793.0
794.0
797.0
798.0
798.0
799.0
799.0
800.0
801.0
801.0
803.0
805.0
811.0
815.0
819.0
827.0
830.0
832.0
834.0
837.0
841.0
846.0
850.0
856.0
862.0
867.0
871.0
872.0
876.0
875.0
875.0
875.0
871.0
872.0
871.0
872.0
871.0
873.0
874.0
875.0
873.0
872.0
871.0
870.0
867.0
865.0
864.0
865.0
866.0
867.0
869.0
869.0
866.0
866.0
864.0
862.0
861.0
861.0
861.0
863.0
861.0
864.0
865.0
866.0
865.0
864.0
862.0
862.0
859.0
859.0
861.0
860.0
862.0
864.0
864.0
865.0
865.0
863.0
864.0
861.0
860.0
860.0
861.0
863.0
862.0
861.0
862.0
864.0
863.0
864.0
862.0
862.0
865.0
865.0
868.0
873.0
876.0
880.0
883.0
883.0
884.0
884.0
882.0
881.0
880.0
879.0
883.0
886.0
889.0
890.0
890.0
887.0
882.0
876.0
871.0
869.0
867.0
868.0
864.0
862.0
864.0
865.0
864.0
862.0
859.0
859.0
856.0
854.0
852.0
850.0
847.0
848.0
850.0
853.0
852.0
853.0
855.0
854.0
852.0
849.0
851.0
848.0
848.0
854.0
852.0
851.0
853.0
857.0
859.0
857.0
858.0
862.0
868.0
880.0
892.0
914.0
938.0
968.0
996.0
1014.0
1020.0
1008.0
984.0
952.0
920.0
886.0
849.0
814.0
789.0
780.0
782.0
792.0
799.0
808.0
815.0
818.0
819.0
820.0
821.0
823.0
830.0
833.0
837.0
837.0
835.0
834.0
827.0
827.0
829.0
828.0
829.0
831.0
831.0
833.0
831.0
834.0
831.0
833.0
831.0
831.0
825.0
825.0
827.0
827.0
828.0
827.0
825.0
828.0
825.0
824.0
822.0
821.0
820.0
818.0
819.0
820.0
821.0
819.0
820.0
820.0
820.0
820.0
818.0
818.0
817.0
816.0
815.0
814.0
816.0
815.0
818.0
818.0
815.0
815.0
814.0
812.0
810.0
808.0
806.0
806.0
804.0
808.0
809.0
811.0
810.0
811.0
813.0
813.0
813.0
814.0
813.0
815.0
820.0
822.0
823.0
826.0
828.0
829.0
830.0
832.0
831.0
834.0
836.0
841.0
844.0
850.0
854.0
859.0
863.0
866.0
866.0
870.0
869.0
873.0
877.0
877.0
881.0
883.0
887.0
889.0
889.0
888.0
885.0
886.0
883.0
884.0
883.0
884.0
883.0
884.0
885.0
883.0
883.0
881.0
880.0
877.0
875.0
874.0
876.0
874.0
875.0
874.0
876.0
875.0
874.0
875.0
873.0
870.0
867.0
868.0
865.0
867.0
865.0
870.0
870.0
869.0
868.0
869.0
869.0
867.0
864.0
865.0
864.0
866.0
867.0
868.0
869.0
869.0
871.0
870.0
866.0
864.0
866.0
865.0
864.0
866.0
868.0
870.0
869.0
872.0
869.0
869.0
866.0
866.0
868.0
869.0
871.0
875.0
880.0
883.0
888.0
888.0
888.0
890.0
888.0
885.0
885.0
885.0
884.0
886.0
891.0
890.0
894.0
896.0
896.0
894.0
887.0
882.0
879.0
878.0
875.0
872.0
874.0
876.0
873.0
871.0
869.0
868.0
864.0
860.0
860.0
855.0
856.0
853.0
855.0
857.0
858.0
858.0
857.0
857.0
856.0
856.0
855.0
855.0
854.0
856.0
858.0
858.0
860.0
860.0
861.0
860.0
859.0
858.0
861.0
865.0
873.0
889.0
908.0
930.0
956.0
983.0
1007.0
1018.0
1017.0
1001.0
977.0
946.0
918.0
888.0
854.0
825.0
799.0
784.0
782.0
786.0
794.0
802.0
805.0
809.0
814.0
822.0
825.0
828.0
832.0
835.0
837.0
837.0
836.0
835.0
833.0
831.0
832.0
833.0
834.0
838.0
835.0
836.0
838.0
837.0
837.0
834.0
835.0
831.0
834.0
834.0
834.0
836.0
834.0
837.0
838.0
835.0
833.0
832.0
828.0
826.0
825.0
825.0
827.0
828.0
828.0
829.0
826.0
824.0
825.0
821.0
821.0
819.0
820.0
820.0
821.0
821.0
822.0
821.0
821.0
819.0
819.0
817.0
815.0
813.0
810.0
813.0
816.0
815.0
816.0
816.0
815.0
814.0
814.0
812.0
811.0
813.0
815.0
815.0
819.0
821.0
825.0
824.0
824.0
824.0
827.0
828.0
829.0
833.0
837.0
842.0
846.0
851.0
855.0
857.0
863.0
866.0
871.0
875.0
878.0
880.0
883.0
886.0
889.0
893.0
892.0
894.0
890.0
889.0
885.0
885.0
886.0
885.0
883.0
884.0
886.0
886.0
889.0
888.0
889.0
885.0
885.0
881.0
881.0
878.0
877.0
879.0
879.0
878.0
880.0
881.0
881.0
880.0
877.0
876.0
877.0
874.0
874.0
875.0
876.0
873.0
876.0
875.0
878.0
875.0
871.0
870.0
873.0
869.0
872.0
872.0
875.0
873.0
875.0
872.0
874.0
876.0
876.0
873.0
872.0
875.0
870.0
872.0
875.0
876.0
877.0
880.0
879.0
874.0
873.0
869.0
872.0
872.0
873.0
877.0
884.0
886.0
889.0
892.0
893.0
892.0
893.0
891.0
890.0
890.0
888.0
893.0
897.0
899.0
900.0
902.0
898.0
897.0
891.0
888.0
884.0
880.0
880.0
879.0
878.0
875.0
875.0
871.0
868.0
865.0
863.0
862.0
861.0
861.0
861.0
859.0
862.0
862.0
862.0
862.0
861.0
863.0
860.0
858.0
857.0
858.0
858.0
856.0
857.0
858.0
861.0
863.0
862.0
862.0
860.0
861.0
862.0
865.0
868.0
878.0
892.0
910.0
927.0
951.0
976.0
999.0
1014.0
1016.0
1004.0
980.0
948.0
918.0
883.0
845.0
811.0
791.0
781.0
782.0
789.0
794.0
803.0
810.0
814.0
819.0
825.0
828.0
834.0
836.0
838.0
836.0
834.0
831.0
829.0
826.0
828.0
830.0
831.0
829.0
831.0
834.0
834.0
834.0
832.0
830.0
826.0
828.0
827.0
828.0
829.0
831.0
830.0
831.0
830.0
828.0
827.0
826.0
823.0
824.0
822.0
823.0
822.0
823.0
823.0
821.0
822.0
819.0
819.0
817.0
817.0
815.0
816.0
815.0
816.0
818.0
817.0
817.0
815.0
816.0
814.0
813.0
813.0
810.0
810.0
808.0
808.0
810.0
811.0
813.0
812.0
812.0
810.0
810.0
806.0
810.0
808.0
809.0
811.0
814.0
816.0
823.0
824.0
826.0
828.0
828.0
831.0
833.0
840.0
845.0
846.0
853.0
857.0
863.0
866.0
867.0
870.0
871.0
873.0
876.0
875.0
878.0
880.0
884.0
886.0
885.0
883.0
883.0
881.0
878.0
878.0
878.0
875.0
876.0
876.0
875.0
876.0
878.0
877.0
877.0
875.0
874.0
870.0
871.0
870.0
870.0
872.0
872.0
872.0
873.0
873.0
872.0
871.0
869.0
867.0
866.0
864.0
864.0
864.0
863.0
864.0
868.0
866.0
863.0
864.0
860.0
859.0
858.0
859.0
860.0
862.0
862.0
864.0
865.0
866.0
866.0
866.0
864.0
866.0
864.0
864.0
862.0
864.0
866.0
867.0
868.0
866.0
866.0
866.0
864.0
867.0
869.0
871.0
874.0
876.0
879.0
881.0
883.0
881.0
881.0
880.0
878.0
877.0
876.0
874.0
879.0
884.0
889.0
889.0
892.0
885.0
883.0
876.0
874.0
870.0
871.0
871.0
868.0
869.0
865.0
865.0
865.0
863.0
859.0
858.0
854.0
851.0
849.0
846.0
845.0
847.0
848.0
850.0
852.0
854.0
853.0
850.0
850.0
850.0
848.0
848.0
849.0
847.0
851.0
854.0
856.0
854.0
856.0
860.0
868.0
883.0
898.0
920.0
946.0
973.0
995.0
1011.0
1014.0
1000.0
975.0
949.0
916.0
886.0
851.0
817.0
793.0
783.0
787.0
790.0
793.0
797.0
800.0
803.0
805.0
810.0
816.0
821.0
822.0
825.0
829.0
829.0
829.0
829.0
825.0
827.0
823.0
819.0
821.0
822.0
823.0
824.0
824.0
825.0
827.0
825.0
825.0
823.0
824.0
823.0
822.0
819.0
820.0
821.0
822.0
822.0
822.0
819.0
816.0
816.0
816.0
816.0
813.0
810.0
813.0
816.0
816.0
816.0
817.0
816.0
813.0
811.0
809.0
808.0
808.0
808.0
809.0
808.0
808.0
804.0
806.0
808.0
806.0
805.0
803.0
804.0
803.0
801.0
800.0
803.0
805.0
804.0
805.0
806.0
808.0
807.0
808.0
809.0
805.0
807.0
811.0
811.0
814.0
817.0
820.0
822.0
825.0
825.0
825.0
829.0
830.0
835.0
837.0
844.0
850.0
854.0
859.0
863.0
866.0
867.0
866.0
865.0
868.0
871.0
872.0
874.0
875.0
873.0
877.0
878.0
877.0
876.0
874.0
871.0
868.0
866.0
865.0
865.0
864.0
864.0
865.0
868.0
867.0
865.0
864.0
861.0
858.0
859.0
857.0
858.0
860.0
860.0
860.0
860.0
860.0
859.0
857.0
856.0
854.0
853.0
851.0
852.0
854.0
854.0
854.0
852.0
851.0
852.0
851.0
849.0
849.0
846.0
847.0
849.0
848.0
851.0
854.0
855.0
854.0
853.0
852.0
850.0
850.0
849.0
850.0
851.0
852.0
854.0
855.0
854.0
855.0
853.0
852.0
855.0
856.0
858.0
859.0
860.0
864.0
867.0
867.0
867.0
868.0
866.0
865.0
862.0
861.0
861.0
864.0
869.0
872.0
873.0
877.0
873.0
867.0
865.0
860.0
855.0
854.0
852.0
851.0
853.0
856.0
853.0
853.0
847.0
846.0
841.0
837.0
833.0
833.0
830.0
830.0
830.0
830.0
832.0
833.0
834.0
834.0
832.0
832.0
832.0
830.0
830.0
825.0
831.0
831.0
835.0
837.0
836.0
836.0
837.0
840.0
837.0
840.0
845.0
854.0
870.0
887.0
909.0
939.0
963.0
985.0
1001.0
1008.0
1003.0
985.0
960.0
935.0
909.0
883.0
854.0
820.0
787.0
769.0
765.0
772.0
778.0
781.0
781.0
782.0
785.0
791.0
797.0
805.0
805.0
813.0
813.0
813.0
808.0
806.0
806.0
804.0
805.0
810.0
810.0
812.0
812.0
808.0
806.0
805.0
803.0
803.0
803.0
803.0
808.0
807.0
811.0
811.0
810.0
808.0
807.0
803.0
802.0
802.0
804.0
803.0
803.0
804.0
806.0
808.0
806.0
806.0
804.0
801.0
798.0
797.0
797.0
795.0
797.0
796.0
797.0
796.0
795.0
794.0
790.0
789.0
788.0
786.0
788.0
790.0
791.0
792.0
792.0
793.0
793.0
791.0
790.0
788.0
787.0
787.0
787.0
787.0
791.0
793.0
795.0
797.0
798.0
799.0
796.0
796.0
796.0
798.0
798.0
802.0
809.0
811.0
818.0
822.0
829.0
833.0
835.0
838.0
842.0
841.0
844.0
847.0
852.0
853.0
858.0
862.0
866.0
865.0
862.0
862.0
861.0
860.0
860.0
861.0
861.0
859.0
859.0
861.0
861.0
860.0
857.0
854.0
854.0
852.0
850.0
850.0
851.0
852.0
851.0
855.0
856.0
856.0
854.0
854.0
851.0
849.0
848.0
846.0
846.0
848.0
849.0
850.0
853.0
850.0
850.0
845.0
843.0
845.0
844.0
844.0
846.0
847.0
845.0
849.0
845.0
846.0
846.0
846.0
847.0
846.0
846.0
847.0
848.0
849.0
848.0
851.0
853.0
849.0
845.0
844.0
844.0
845.0
843.0
849.0
852.0
857.0
859.0
864.0
866.0
867.0
866.0
866.0
865.0
863.0
862.0
863.0
863.0
866.0
866.0
871.0
872.0
873.0
872.0
871.0
868.0
865.0
861.0
860.0
858.0
857.0
858.0
859.0
857.0
858.0
856.0
850.0
847.0
843.0
840.0
837.0
836.0
836.0
838.0
840.0
840.0
836.0
836.0
836.0
832.0
834.0
832.0
834.0
837.0
840.0
840.0
842.0
843.0
845.0
843.0
842.0
840.0
839.0
838.0
841.0
849.0
860.0
878.0
902.0
927.0
959.0
988.0
1011.0
1023.0
1020.0
1002.0
977.0
947.0
919.0
892.0
857.0
822.0
793.0
779.0
778.0
783.0
786.0
789.0
793.0
795.0
800.0
805.0
811.0
817.0
820.0
820.0
820.0
820.0
820.0
819.0
820.0
819.0
820.0
819.0
824.0
824.0
819.0
818.0
818.0
817.0
815.0
814.0
817.0
816.0
818.0
819.0
822.0
822.0
822.0
820.0
817.0
813.0
816.0
810.0
811.0
814.0
814.0
817.0
818.0
818.0
813.0
815.0
811.0
810.0
807.0
807.0
806.0
807.0
809.0
808.0
808.0
806.0
806.0
803.0
805.0
801.0
798.0
798.0
800.0
796.0
801.0
802.0
805.0
802.0
801.0
800.0
799.0
798.0
798.0
796.0
796.0
798.0
801.0
802.0
805.0
810.0
806.0
807.0
807.0
806.0
807.0
812.0
813.0
817.0
824.0
828.0
829.0
834.0
839.0
840.0
845.0
851.0
853.0
854.0
859.0
861.0
867.0
869.0
873.0
876.0
875.0
876.0
875.0
873.0
874.0
876.0
876.0
878.0
875.0
879.0
881.0
879.0
877.0
877.0
871.0
872.0
870.0
868.0
868.0
867.0
869.0
868.0
869.0
869.0
867.0
868.0
869.0
868.0
867.0
868.0
865.0
867.0
868.0
868.0
871.0
868.0
869.0
869.0
867.0
863.0
861.0
859.0
859.0
860.0
863.0
865.0
867.0
869.0
870.0
868.0
867.0
865.0
863.0
862.0
863.0
863.0
866.0
865.0
866.0
868.0
867.0
868.0
865.0
866.0
863.0
866.0
868.0
870.0
874.0
876.0
877.0
879.0
879.0
882.0
882.0
883.0
880.0
878.0
878.0
880.0
882.0
883.0
884.0
887.0
887.0
890.0
889.0
889.0
885.0
882.0
880.0
877.0
877.0
877.0
877.0
875.0
874.0
870.0
868.0
862.0
859.0
856.0
857.0
857.0
856.0
855.0
858.0
857.0
852.0
853.0
852.0
850.0
849.0
851.0
852.0
855.0
857.0
857.0
857.0
858.0
858.0
858.0
858.0
860.0
858.0
858.0
863.0
874.0
888.0
905.0
927.0
955.0
984.0
1012.0
1033.0
1045.0
1039.0
1019.0
991.0
956.0
927.0
898.0
864.0
827.0
800.0
781.0
775.0
776.0
782.0
789.0
795.0
804.0
811.0
818.0
822.0
829.0
831.0
831.0
832.0
831.0
831.0
832.0
831.0
833.0
837.0
837.0
836.0
836.0
835.0
831.0
831.0
831.0
827.0
826.0
824.0
828.0
829.0
827.0
831.0
831.0
832.0
827.0
827.0
823.0
820.0
822.0
821.0
822.0
