# Simple Text Format
# Sampling Rate (Hz):= 360.00
# Resolution:= 12
# Labels:= ECG
1012.0
1025.0
1026.0
1011.0
989.0
960.0
934.0
904.0
872.0
837.0
810.0
799.0
798.0
803.0
811.0
821.0
827.0
830.0
831.0
831.0
826.0
822.0
825.0
826.0
830.0
833.0
834.0
835.0
835.0
835.0
833.0
831.0
831.0
827.0
828.0
826.0
825.0
829.0
829.0
831.0
831.0
829.0
828.0
827.0
825.0
823.0
821.0
822.0
823.0
824.0
826.0
826.0
825.0
823.0
820.0
821.0
817.0
814.0
813.0
815.0
815.0
818.0
817.0
816.0
814.0
814.0
812.0
810.0
808.0
807.0
807.0
807.0
808.0
809.0
808.0
810.0
809.0
808.0
806.0
805.0
804.0
801.0
799.0
802.0
801.0
804.0
805.0
807.0
804.0
808.0
807.0
807.0
804.0
806.0
807.0
809.0
814.0
816.0
818.0
821.0
825.0
826.0
828.0
830.0
834.0
832.0
834.0
840.0
845.0
851.0
856.0
861.0
866.0
869.0
871.0
872.0
875.0
875.0
875.0
877.0
879.0
881.0
882.0
884.0
882.0
881.0
879.0
877.0
876.0
875.0
871.0
872.0
873.0
872.0
874.0
877.0
876.0
875.0
874.0
872.0
870.0
868.0
867.0
866.0
864.0
866.0
865.0
870.0
870.0
869.0
867.0
865.0
862.0
863.0
864.0
863.0
862.0
864.0
863.0
862.0
865.0
863.0
865.0
862.0
861.0
859.0
860.0
860.0
861.0
860.0
860.0
863.0
863.0
862.0
861.0
861.0
860.0
861.0
860.0
860.0
860.0
862.0
863.0
865.0
865.0
866.0
865.0
866.0
865.0
866.0
868.0
871.0
873.0
876.0
879.0
879.0
882.0
882.0
880.0
881.0
880.0
880.0
879.0
882.0
882.0
887.0
885.0
885.0
885.0
884.0
879.0
876.0
871.0
871.0
870.0
869.0
868.0
870.0
869.0
866.0
866.0
863.0
858.0
857.0
856.0
853.0
850.0
849.0
853.0
852.0
852.0
855.0
854.0
853.0
853.0
853.0
851.0
850.0
851.0
851.0
852.0
854.0
852.0
854.0
854.0
855.0
856.0
855.0
857.0
861.0
868.0
879.0
892.0
916.0
944.0
970.0
995.0
1012.0
1019.0
1009.0
989.0
959.0
931.0
899.0
867.0
830.0
805.0
792.0
790.0
795.0
802.0
810.0
815.0
821.0
822.0
823.0
825.0
825.0
829.0
829.0
834.0
833.0
833.0
832.0
829.0
827.0
827.0
829.0
827.0
826.0
827.0
830.0
830.0
832.0
828.0
829.0
828.0
826.0
825.0
824.0
825.0
827.0
827.0
828.0
827.0
827.0
824.0
824.0
823.0
823.0
821.0
822.0
822.0
822.0
822.0
823.0
823.0
822.0
821.0
819.0
820.0
820.0
817.0
816.0
815.0
816.0
817.0
815.0
816.0
816.0
816.0
814.0
814.0
811.0
810.0
811.0
809.0
810.0
811.0
811.0
811.0
811.0
811.0
809.0
808.0
810.0
809.0
810.0
814.0
816.0
818.0
820.0
822.0
823.0
822.0
825.0
825.0
827.0
829.0
833.0
837.0
843.0
849.0
855.0
859.0
861.0
864.0
867.0
871.0
870.0
874.0
877.0
881.0
883.0
884.0
887.0
888.0
886.0
888.0
886.0
883.0
878.0
880.0
877.0
879.0
879.0
879.0
878.0
880.0
880.0
879.0
875.0
874.0
873.0
871.0
871.0
873.0
871.0
874.0
874.0
877.0
874.0
873.0
872.0
866.0
867.0
865.0
866.0
864.0
870.0
870.0
869.0
869.0
869.0
868.0
866.0
867.0
865.0
864.0
864.0
865.0
865.0
866.0
867.0
869.0
866.0
866.0
867.0
865.0
865.0
864.0
864.0
864.0
868.0
866.0
870.0
870.0
866.0
869.0
866.0
866.0
867.0
867.0
871.0
872.0
876.0
876.0
882.0
882.0
880.0
879.0
880.0
881.0
878.0
879.0
880.0
883.0
883.0
886.0
890.0
890.0
892.0
890.0
886.0
886.0
883.0
881.0
879.0
879.0
874.0
876.0
877.0
875.0
871.0
869.0
866.0
861.0
860.0
855.0
854.0
853.0
853.0
852.0
854.0
858.0
856.0
855.0
856.0
856.0
854.0
855.0
854.0
855.0
857.0
856.0
858.0
861.0
859.0
859.0
861.0
862.0
868.0
878.0
892.0
916.0
938.0
967.0
992.0
1012.0
1019.0
1011.0
990.0
960.0
929.0
898.0
865.0
830.0
803.0
790.0
788.0
795.0
805.0
808.0
815.0
818.0
820.0
824.0
825.0
830.0
835.0
839.0
841.0
843.0
841.0
839.0
840.0
836.0
836.0
835.0
836.0
836.0
838.0
838.0
839.0
839.0
836.0
837.0
834.0
834.0
830.0
829.0
829.0
831.0
831.0
831.0
832.0
835.0
831.0
830.0
829.0
828.0
824.0
823.0
824.0
823.0
825.0
823.0
824.0
825.0
825.0
824.0
822.0
822.0
821.0
819.0
820.0
818.0
820.0
821.0
822.0
822.0
817.0
817.0
816.0
814.0
814.0
811.0
811.0
811.0
816.0
816.0
818.0
818.0
818.0
817.0
818.0
816.0
813.0
813.0
816.0
819.0
822.0
825.0
829.0
828.0
831.0
832.0
831.0
835.0
834.0
836.0
838.0
844.0
849.0
855.0
858.0
864.0
867.0
872.0
872.0
875.0
877.0
879.0
881.0
884.0
887.0
888.0
889.0
889.0
889.0
889.0
886.0
885.0
883.0
881.0
883.0
880.0
883.0
881.0
880.0
881.0
881.0
880.0
878.0
879.0
876.0
876.0
874.0
873.0
874.0
876.0
875.0
877.0
873.0
872.0
870.0
871.0
868.0
867.0
866.0
866.0
868.0
870.0
868.0
871.0
869.0
868.0
867.0
865.0
864.0
865.0
863.0
864.0
866.0
866.0
867.0
868.0
867.0
865.0
865.0
864.0
862.0
860.0
861.0
862.0
864.0
863.0
864.0
867.0
867.0
867.0
866.0
865.0
864.0
865.0
860.0
866.0
868.0
871.0
872.0
875.0
875.0
876.0
875.0
876.0
874.0
876.0
875.0
876.0
880.0
879.0
879.0
881.0
882.0
882.0
881.0
880.0
882.0
881.0
878.0
878.0
878.0
873.0
874.0
871.0
870.0
868.0
866.0
859.0
857.0
852.0
850.0
847.0
846.0
845.0
846.0
848.0
849.0
848.0
849.0
848.0
845.0
844.0
846.0
847.0
848.0
846.0
847.0
849.0
849.0
847.0
845.0
845.0
844.0
844.0
845.0
847.0
850.0
855.0
866.0
879.0
891.0
908.0
928.0
950.0
971.0
990.0
998.0
994.0
979.0
952.0
926.0
899.0
860.0
826.0
798.0
785.0
783.0
786.0
789.0
792.0
797.0
803.0
811.0
818.0
821.0
824.0
825.0
824.0
826.0
823.0
822.0
821.0
822.0
824.0
823.0
823.0
824.0
823.0
820.0
821.0
819.0
818.0
820.0
820.0
819.0
820.0
822.0
823.0
824.0
823.0
821.0
821.0
815.0
817.0
814.0
813.0
815.0
817.0
818.0
818.0
819.0
815.0
815.0
811.0
809.0
810.0
810.0
813.0
813.0
814.0
813.0
813.0
813.0
812.0
810.0
807.0
807.0
806.0
802.0
803.0
805.0
805.0
808.0
810.0
810.0
810.0
805.0
805.0
802.0
804.0
805.0
807.0
812.0
812.0
814.0
816.0
817.0
817.0
818.0
817.0
815.0
818.0
821.0
825.0
830.0
835.0
843.0
850.0
853.0
856.0
859.0
860.0
863.0
863.0
864.0
869.0
870.0
873.0
874.0
875.0
878.0
878.0
878.0
877.0
873.0
869.0
868.0
869.0
869.0
870.0
871.0
872.0
864.0
865.0
864.0
861.0
861.0
861.0
861.0
863.0
862.0
862.0
863.0
865.0
864.0
865.0
861.0
858.0
857.0
855.0
856.0
856.0
853.0
855.0
855.0
855.0
854.0
853.0
851.0
849.0
847.0
850.0
848.0
850.0
850.0
853.0
854.0
854.0
853.0
851.0
852.0
847.0
847.0
846.0
845.0
842.0
850.0
851.0
850.0
851.0
852.0
851.0
851.0
851.0
850.0
852.0
855.0
857.0
857.0
858.0
859.0
861.0
860.0
860.0
860.0
863.0
863.0
865.0
868.0
868.0
870.0
872.0
872.0
872.0
869.0
865.0
860.0
859.0
857.0
854.0
853.0
850.0
847.0
846.0
845.0
845.0
843.0
842.0
842.0
839.0
837.0
837.0
835.0
835.0
834.0
836.0
836.0
837.0
835.0
834.0
834.0
831.0
832.0
833.0
835.0
835.0
837.0
840.0
841.0
845.0
847.0
853.0
862.0
875.0
891.0
913.0
936.0
961.0
986.0
1004.0
1013.0
1008.0
988.0
962.0
930.0
900.0
872.0
839.0
806.0
776.0
765.0
769.0
781.0
795.0
797.0
793.0
785.0
784.0
785.0
791.0
797.0
809.0
814.0
819.0
821.0
821.0
820.0
817.0
816.0
813.0
813.0
813.0
813.0
813.0
813.0
816.0
817.0
819.0
817.0
817.0
816.0
815.0
813.0
813.0
811.0
809.0
810.0
812.0
813.0
816.0
815.0
813.0
810.0
808.0
807.0
806.0
802.0
801.0
804.0
801.0
807.0
807.0
805.0
803.0
804.0
798.0
795.0
795.0
793.0
793.0
797.0
798.0
798.0
799.0
800.0
798.0
796.0
794.0
791.0
791.0
789.0
789.0
791.0
796.0
798.0
803.0
801.0
802.0
800.0
798.0
800.0
801.0
801.0
802.0
805.0
807.0
811.0
815.0
815.0
813.0
817.0
816.0
819.0
821.0
827.0
830.0
836.0
841.0
848.0
850.0
855.0
855.0
860.0
861.0
862.0
864.0
867.0
869.0
873.0
876.0
878.0
878.0
874.0
870.0
863.0
857.0
851.0
851.0
850.0
852.0
852.0
853.0
855.0
854.0
852.0
847.0
846.0
846.0
843.0
843.0
842.0
842.0
844.0
842.0
845.0
845.0
842.0
842.0
842.0
841.0
839.0
838.0
836.0
833.0
835.0
834.0
834.0
835.0
833.0
835.0
836.0
835.0
835.0
835.0
835.0
835.0
839.0
839.0
837.0
835.0
830.0
826.0
824.0
823.0
823.0
825.0
826.0
826.0
826.0
830.0
831.0
832.0
831.0
831.0
828.0
825.0
829.0
829.0
827.0
831.0
832.0
835.0
837.0
839.0
838.0
837.0
837.0
835.0
835.0
837.0
838.0
842.0
847.0
850.0
851.0
850.0
842.0
833.0
828.0
827.0
824.0
825.0
828.0
827.0
827.0
824.0
823.0
823.0
818.0
818.0
816.0
815.0
816.0
813.0
812.0
813.0
812.0
810.0
810.0
809.0
809.0
808.0
809.0
806.0
804.0
802.0
797.0
797.0
796.0
796.0
798.0
801.0
803.0
803.0
807.0
813.0
822.0
833.0
847.0
867.0
897.0
926.0
953.0
975.0
986.0
983.0
962.0
934.0
904.0
874.0
843.0
807.0
771.0
745.0
729.0
730.0
737.0
742.0
743.0
742.0
745.0
753.0
758.0
762.0
765.0
768.0
769.0
772.0
771.0
772.0
775.0
772.0
772.0
771.0
769.0
766.0
763.0
765.0
766.0
769.0
771.0
769.0
768.0
766.0
764.0
761.0
759.0
758.0
761.0
765.0
764.0
766.0
765.0
762.0
761.0
757.0
756.0
755.0
755.0
757.0
758.0
760.0
759.0
759.0
757.0
752.0
748.0
745.0
748.0
746.0
746.0
748.0
751.0
754.0
754.0
756.0
754.0
750.0
747.0
742.0
738.0
737.0
735.0
736.0
739.0
740.0
741.0
744.0
745.0
743.0
741.0
740.0
737.0
738.0
740.0
738.0
744.0
743.0
748.0
748.0
748.0
751.0
756.0
756.0
758.0
762.0
768.0
772.0
776.0
782.0
788.0
793.0
795.0
796.0
795.0
794.0
794.0
792.0
791.0
793.0
797.0
801.0
805.0
811.0
809.0
808.0
806.0
807.0
806.0
805.0
803.0
802.0
801.0
802.0
802.0
804.0
803.0
803.0
801.0
799.0
796.0
794.0
795.0
795.0
796.0
797.0
797.0
802.0
801.0
801.0
802.0
799.0
793.0
794.0
791.0
788.0
791.0
790.0
794.0
795.0
794.0
794.0
792.0
789.0
787.0
788.0
786.0
786.0
788.0
790.0
794.0
790.0
790.0
793.0
792.0
791.0
792.0
789.0
788.0
788.0
785.0
786.0
787.0
789.0
791.0
792.0
793.0
793.0
791.0
796.0
799.0
797.0
802.0
801.0
803.0
805.0
802.0
799.0
798.0
799.0
805.0
807.0
811.0
814.0
816.0
816.0
815.0
814.0
811.0
808.0
806.0
803.0
799.0
796.0
792.0
792.0
793.0
788.0
788.0
788.0
786.0
785.0
784.0
781.0
779.0
775.0
771.0
771.0
769.0
772.0
774.0
781.0
782.0
782.0
782.0
783.0
781.0
781.0
782.0
779.0
780.0
782.0
782.0
783.0
784.0
786.0
790.0
799.0
814.0
835.0
857.0
887.0
922.0
949.0
972.0
976.0
965.0
938.0
907.0
872.0
843.0
812.0
775.0
743.0
718.0
708.0
708.0
712.0
716.0
721.0
728.0
736.0
741.0
748.0
754.0
757.0
759.0
760.0
760.0
759.0
761.0
763.0
765.0
764.0
761.0
760.0
757.0
759.0
759.0
759.0
757.0
758.0
756.0
755.0
754.0
753.0
752.0
752.0
751.0
754.0
756.0
758.0
757.0
755.0
760.0
758.0
756.0
754.0
755.0
753.0
754.0
754.0
754.0
754.0
754.0
754.0
754.0
752.0
749.0
749.0
748.0
745.0
746.0
745.0
745.0
748.0
747.0
747.0
747.0
745.0
745.0
743.0
740.0
736.0
731.0
727.0
726.0
727.0
728.0
729.0
732.0
736.0
736.0
732.0
729.0
725.0
724.0
726.0
726.0
728.0
730.0
735.0
738.0
737.0
738.0
738.0
738.0
740.0
741.0
744.0
750.0
755.0
761.0
764.0
766.0
771.0
775.0
777.0
779.0
781.0
785.0
787.0
789.0
793.0
798.0
800.0
803.0
804.0
804.0
806.0
808.0
808.0
808.0
810.0
810.0
813.0
807.0
809.0
807.0
807.0
807.0
808.0
805.0
806.0
806.0
805.0
806.0
808.0
808.0
810.0
811.0
808.0
804.0
799.0
797.0
796.0
796.0
795.0
796.0
798.0
798.0
799.0
797.0
797.0
795.0
794.0
792.0
792.0
794.0
798.0
801.0
803.0
801.0
804.0
806.0
805.0
804.0
803.0
803.0
803.0
802.0
803.0
804.0
802.0
800.0
798.0
797.0
795.0
792.0
795.0
796.0
797.0
799.0
801.0
799.0
803.0
805.0
808.0
812.0
813.0
816.0
817.0
817.0
817.0
815.0
816.0
816.0
818.0
819.0
822.0
824.0
823.0
821.0
818.0
819.0
820.0
818.0
813.0
813.0
813.0
812.0
809.0
809.0
807.0
804.0
800.0
796.0
794.0
794.0
796.0
795.0
797.0
797.0
797.0
796.0
793.0
789.0
787.0
789.0
790.0
790.0
789.0
792.0
795.0
796.0
798.0
795.0
794.0
797.0
796.0
796.0
797.0
796.0
798.0
803.0
813.0
832.0
854.0
885.0
916.0
948.0
974.0
986.0
983.0
962.0
929.0
895.0
863.0
831.0
795.0
759.0
725.0
708.0
704.0
708.0
721.0
734.0
749.0
760.0
769.0
777.0
780.0
779.0
777.0
775.0
772.0
769.0
766.0
766.0
766.0
765.0
767.0
767.0
766.0
768.0
769.0
767.0
769.0
768.0
766.0
765.0
765.0
764.0
765.0
764.0
762.0
760.0
762.0
762.0
762.0
764.0
762.0
763.0
761.0
761.0
760.0
759.0
760.0
762.0
760.0
759.0
757.0
758.0
758.0
759.0
757.0
758.0
753.0
749.0
748.0
750.0
750.0
752.0
747.0
746.0
742.0
737.0
736.0
738.0
743.0
741.0
744.0
745.0
745.0
743.0
743.0
741.0
741.0
741.0
742.0
742.0
744.0
743.0
745.0
746.0
751.0
750.0
752.0
753.0
754.0
756.0
759.0
766.0
772.0
777.0
785.0
794.0
798.0
800.0
807.0
807.0
807.0
809.0
809.0
816.0
822.0
823.0
825.0
827.0
827.0
828.0
825.0
827.0
827.0
827.0
828.0
826.0
829.0
828.0
829.0
829.0
827.0
824.0
821.0
814.0
810.0
807.0
806.0
808.0
814.0
818.0
819.0
823.0
823.0
819.0
816.0
816.0
813.0
810.0
813.0
814.0
815.0
816.0
823.0
822.0
820.0
815.0
815.0
814.0
814.0
817.0
819.0
823.0
826.0
826.0
828.0
824.0
822.0
815.0
812.0
808.0
809.0
812.0
816.0
819.0
821.0
821.0
820.0
818.0
818.0
819.0
823.0
827.0
828.0
834.0
837.0
837.0
840.0
838.0
836.0
836.0
836.0
836.0
836.0
837.0
840.0
841.0
842.0
847.0
848.0
847.0
848.0
844.0
842.0
841.0
837.0
834.0
833.0
830.0
832.0
831.0
831.0
832.0
830.0
831.0
829.0
827.0
824.0
820.0
818.0
816.0
816.0
809.0
809.0
809.0
817.0
816.0
815.0
814.0
811.0
807.0
809.0
810.0
813.0
817.0
821.0
823.0
824.0
828.0
828.0
827.0
830.0
836.0
846.0
861.0
886.0
919.0
954.0
990.0
1015.0
1022.0
1004.0
970.0
927.0
881.0
839.0
796.0
758.0
731.0
723.0
728.0
739.0
756.0
773.0
786.0
796.0
798.0
798.0
798.0
797.0
795.0
798.0
799.0
801.0
804.0
805.0
808.0
807.0
804.0
800.0
796.0
794.0
796.0
799.0
802.0
804.0
805.0
804.0
801.0
797.0
793.0
789.0
790.0
792.0
794.0
793.0
802.0
803.0
805.0
805.0
804.0
802.0
800.0
796.0
791.0
790.0
791.0
793.0
795.0
799.0
801.0
799.0
797.0
791.0
785.0
779.0
776.0
779.0
780.0
786.0
787.0
787.0
785.0
780.0
776.0
773.0
771.0
770.0
772.0
772.0
775.0
776.0
777.0
776.0
777.0
775.0
774.0
773.0
775.0
775.0
775.0
777.0
779.0
784.0
787.0
792.0
795.0
798.0
797.0
795.0
795.0
794.0
793.0
797.0
803.0
814.0
824.0
833.0
838.0
841.0
841.0
840.0
841.0
844.0
847.0
855.0
857.0
859.0
864.0
869.0
872.0
871.0
870.0
868.0
866.0
864.0
863.0
862.0
861.0
864.0
863.0
864.0
863.0
860.0
859.0
857.0
855.0
853.0
857.0
859.0
864.0
861.0
864.0
861.0
863.0
862.0
862.0
859.0
859.0
859.0
858.0
859.0
856.0
855.0
855.0
857.0
856.0
854.0
852.0
852.0
854.0
853.0
855.0
855.0
858.0
858.0
856.0
855.0
855.0
854.0
855.0
856.0
857.0
857.0
856.0
856.0
856.0
857.0
859.0
860.0
863.0
867.0
868.0
869.0
868.0
866.0
866.0
869.0
870.0
874.0
878.0
878.0
880.0
878.0
872.0
870.0
869.0
868.0
873.0
874.0
878.0
879.0
883.0
884.0
886.0
885.0
883.0
878.0
870.0
861.0
854.0
851.0
849.0
851.0
854.0
854.0
856.0
856.0
853.0
854.0
850.0
848.0
844.0
847.0
848.0
851.0
855.0
856.0
859.0
858.0
857.0
859.0
855.0
852.0
849.0
849.0
850.0
852.0
859.0
868.0
883.0
903.0
927.0
952.0
976.0
1002.0
1018.0
1027.0
1021.0
1001.0
972.0
938.0
903.0
868.0
827.0
790.0
765.0
757.0
761.0
772.0
787.0
808.0
821.0
829.0
831.0
832.0
831.0
831.0
831.0
835.0
837.0
838.0
837.0
835.0
833.0
830.0
829.0
829.0
826.0
829.0
829.0
830.0
833.0
835.0
836.0
833.0
830.0
827.0
823.0
822.0
822.0
821.0
820.0
822.0
823.0
825.0
824.0
825.0
826.0
826.0
827.0
825.0
824.0
824.0
825.0
824.0
823.0
820.0
819.0
817.0
817.0
813.0
810.0
808.0
806.0
806.0
805.0
807.0
806.0
807.0
807.0
806.0
805.0
805.0
804.0
802.0
803.0
801.0
798.0
796.0
798.0
799.0
800.0
801.0
803.0
804.0
805.0
807.0
806.0
805.0
804.0
805.0
805.0
805.0
808.0
812.0
812.0
817.0
822.0
826.0
827.0
832.0
835.0
837.0
841.0
847.0
850.0
858.0
862.0
869.0
876.0
880.0
881.0
882.0
882.0
880.0
880.0
879.0
879.0
881.0
883.0
885.0
889.0
887.0
883.0
878.0
872.0
867.0
865.0
865.0
868.0
874.0
879.0
881.0
883.0
879.0
875.0
872.0
873.0
872.0
873.0
872.0
869.0
871.0
870.0
870.0
872.0
870.0
874.0
876.0
878.0
874.0
869.0
866.0
860.0
859.0
861.0
867.0
869.0
873.0
876.0
875.0
875.0
871.0
868.0
865.0
864.0
862.0
865.0
867.0
872.0
873.0
874.0
876.0
876.0
874.0
875.0
875.0
872.0
873.0
872.0
870.0
869.0
872.0
873.0
877.0
877.0
881.0
882.0
884.0
887.0
891.0
892.0
891.0
892.0
892.0
892.0
892.0
895.0
896.0
898.0
898.0
900.0
902.0
898.0
897.0
898.0
894.0
894.0
889.0
883.0
878.0
875.0
870.0
868.0
867.0
871.0
871.0
874.0
870.0
868.0
865.0
864.0
862.0
862.0
860.0
862.0
865.0
867.0
869.0
870.0
868.0
865.0
869.0
865.0
863.0
864.0
865.0
866.0
868.0
871.0
876.0
882.0
882.0
884.0
887.0
896.0
906.0
924.0
945.0
969.0
997.0
1020.0
1040.0
1047.0
1033.0
1006.0
972.0
934.0
899.0
859.0
819.0
787.0
768.0
768.0
777.0
793.0
815.0
827.0
834.0
839.0
839.0
837.0
840.0
841.0
847.0
853.0
855.0
860.0
862.0
859.0
855.0
852.0
850.0
843.0
840.0
836.0
838.0
839.0
845.0
849.0
851.0
850.0
850.0
846.0
842.0
838.0
837.0
837.0
842.0
846.0
848.0
851.0
852.0
852.0
850.0
847.0
843.0
838.0
835.0
835.0
834.0
833.0
832.0
837.0
835.0
835.0
833.0
833.0
828.0
829.0
830.0
830.0
830.0
830.0
830.0
831.0
832.0
830.0
831.0
830.0
828.0
828.0
825.0
823.0
823.0
822.0
824.0
827.0
831.0
834.0
833.0
830.0
823.0
818.0
813.0
813.0
818.0
828.0
832.0
839.0
840.0
841.0
842.0
842.0
846.0
851.0
856.0
861.0
867.0
872.0
877.0
883.0
887.0
889.0
893.0
899.0
903.0
913.0
914.0
914.0
917.0
913.0
906.0
900.0
893.0
893.0
894.0
896.0
897.0
898.0
894.0
896.0
894.0
894.0
897.0
898.0
899.0
899.0
897.0
896.0
893.0
894.0
894.0
894.0
895.0
895.0
895.0
895.0
893.0
890.0
891.0
894.0
898.0
898.0
897.0
898.0
896.0
897.0
894.0
892.0
888.0
886.0
885.0
882.0
882.0
882.0
881.0
885.0
890.0
893.0
894.0
894.0
892.0
891.0
888.0
888.0
890.0
890.0
892.0
892.0
894.0
897.0
899.0
901.0
903.0
902.0
904.0
905.0
905.0
905.0
908.0
908.0
914.0
913.0
913.0
912.0
908.0
905.0
899.0
902.0
905.0
906.0
906.0
909.0
908.0
911.0
910.0
911.0
907.0
905.0
903.0
899.0
897.0
892.0
888.0
889.0
889.0
888.0
888.0
889.0
888.0
885.0
885.0
884.0
886.0
888.0
889.0
893.0
894.0
892.0
888.0
882.0
878.0
871.0
871.0
871.0
875.0
879.0
882.0
885.0
892.0
904.0
918.0
936.0
956.0
984.0
1010.0
1035.0
1051.0
1056.0
1044.0
1020.0
988.0
949.0
913.0
885.0
843.0
809.0
788.0
782.0
787.0
793.0
805.0
820.0
832.0
842.0
852.0
858.0
865.0
866.0
870.0
868.0
867.0
862.0
858.0
860.0
864.0
865.0
866.0
865.0
862.0
857.0
856.0
857.0
855.0
858.0
858.0
858.0
862.0
862.0
861.0
861.0
859.0
859.0
859.0
858.0
859.0
857.0
857.0
858.0
861.0
860.0
859.0
863.0
862.0
860.0
857.0
851.0
845.0
839.0
836.0
838.0
840.0
843.0
849.0
852.0
852.0
852.0
850.0
845.0
841.0
838.0
837.0
838.0
840.0
842.0
840.0
841.0
843.0
841.0
843.0
841.0
841.0
839.0
836.0
834.0
836.0
835.0
839.0
843.0
847.0
849.0
849.0
844.0
842.0
842.0
843.0
843.0
846.0
851.0
854.0
861.0
867.0
869.0
874.0
878.0
880.0
884.0
887.0
892.0
895.0
902.0
905.0
909.0
917.0
920.0
922.0
924.0
926.0
926.0
924.0
924.0
920.0
919.0
921.0
917.0
915.0
916.0
917.0
918.0
918.0
915.0
915.0
912.0
911.0
911.0
911.0
913.0
913.0
914.0
913.0
912.0
908.0
906.0
904.0
908.0
909.0
912.0
914.0
915.0
917.0
916.0
916.0
913.0
912.0
911.0
908.0
911.0
909.0
912.0
911.0
910.0
910.0
909.0
902.0
901.0
898.0
899.0
903.0
907.0
907.0
908.0
908.0
907.0
906.0
906.0
905.0
906.0
906.0
907.0
906.0
910.0
913.0
915.0
918.0
922.0
921.0
921.0
919.0
913.0
910.0
908.0
906.0
911.0
918.0
923.0
928.0
932.0
937.0
936.0
934.0
931.0
926.0
925.0
922.0
923.0
926.0
930.0
930.0
931.0
931.0
931.0
928.0
924.0
921.0
919.0
914.0
912.0
910.0
907.0
901.0
898.0
896.0
892.0
892.0
893.0
894.0
897.0
897.0
895.0
895.0
898.0
900.0
901.0
902.0
903.0
898.0
896.0
897.0
897.0
897.0
899.0
901.0
901.0
907.0
910.0
918.0
929.0
945.0
962.0
984.0
1010.0
1034.0
1057.0
1070.0
1075.0
1061.0
1036.0
1001.0
969.0
934.0
898.0
860.0
825.0
802.0
792.0
797.0
810.0
822.0
833.0
843.0
846.0
847.0
850.0
851.0
855.0
862.0
868.0
874.0
878.0
879.0
880.0
880.0
876.0
874.0
871.0
872.0
871.0
876.0
875.0
877.0
878.0
877.0
878.0
880.0
881.0
882.0
879.0
879.0
876.0
870.0
865.0
857.0
859.0
860.0
865.0
867.0
868.0
870.0
871.0
867.0
865.0
862.0
860.0
859.0
862.0
862.0
862.0
866.0
865.0
863.0
860.0
861.0
859.0
858.0
859.0
858.0
859.0
860.0
860.0
859.0
853.0
848.0
843.0
841.0
842.0
845.0
848.0
853.0
855.0
858.0
854.0
851.0
848.0
843.0
844.0
845.0
849.0
854.0
860.0
864.0
868.0
870.0
876.0
882.0
888.0
889.0
893.0
894.0
897.0
901.0
908.0
915.0
921.0
928.0
929.0
929.0
927.0
928.0
931.0
932.0
930.0
927.0
923.0
924.0
920.0
923.0
925.0
926.0
927.0
926.0
926.0
927.0
925.0
925.0
923.0
923.0
922.0
923.0
925.0
926.0
927.0
928.0
926.0
925.0
920.0
917.0
915.0
916.0
918.0
920.0
923.0
926.0
925.0
921.0
915.0
909.0
904.0
904.0
906.0
912.0
917.0
921.0
924.0
925.0
920.0
915.0
913.0
914.0
909.0
910.0
915.0
919.0
919.0
923.0
923.0
921.0
920.0
921.0
919.0
922.0
923.0
923.0
924.0
922.0
921.0
922.0
921.0
922.0
922.0
928.0
927.0
931.0
931.0
929.0
929.0
931.0
931.0
933.0
934.0
936.0
936.0
933.0
935.0
933.0
931.0
930.0
930.0
930.0
931.0
931.0
933.0
933.0
930.0
927.0
922.0
915.0
910.0
905.0
901.0
898.0
898.0
897.0
899.0
899.0
902.0
902.0
901.0
902.0
903.0
904.0
903.0
907.0
906.0
907.0
910.0
906.0
908.0
909.0
908.0
911.0
913.0
920.0
935.0
953.0
979.0
1008.0
1038.0
1065.0
1084.0
1088.0
1075.0
1048.0
1012.0
976.0
943.0
910.0
873.0
835.0
808.0
797.0
795.0
799.0
811.0
826.0
838.0
849.0
855.0
862.0
867.0
871.0
879.0
885.0
887.0
883.0
884.0
881.0
881.0
880.0
877.0
880.0
881.0
880.0
883.0
883.0
882.0
882.0
881.0
880.0
879.0
878.0
879.0
878.0
878.0
881.0
880.0
880.0
881.0
879.0
879.0
876.0
877.0
877.0
872.0
871.0
875.0
879.0
882.0
880.0
877.0
871.0
865.0
864.0
864.0
861.0
866.0
865.0
867.0
867.0
866.0
863.0
857.0
854.0
856.0
854.0
855.0
855.0
855.0
860.0
857.0
857.0
856.0
853.0
850.0
847.0
846.0
846.0
844.0
846.0
847.0
851.0
852.0
854.0
856.0
858.0
858.0
861.0
864.0
864.0
863.0
861.0
863.0
866.0
869.0
874.0
881.0
886.0
889.0
892.0
898.0
901.0
902.0
906.0
910.0
914.0
919.0
919.0
920.0
924.0
923.0
928.0
931.0
933.0
933.0
933.0
935.0
933.0
934.0
935.0
935.0
935.0
932.0
934.0
931.0
929.0
925.0
924.0
923.0
924.0
925.0
926.0
927.0
927.0
929.0
929.0
925.0
927.0
927.0
927.0
927.0
925.0
924.0
920.0
918.0
914.0
913.0
914.0
916.0
917.0
916.0
917.0
919.0
917.0
916.0
915.0
915.0
918.0
916.0
917.0
915.0
918.0
918.0
916.0
918.0
919.0
918.0
917.0
917.0
918.0
916.0
916.0
917.0
921.0
922.0
923.0
923.0
925.0
926.0
927.0
927.0
927.0
926.0
921.0
928.0
932.0
934.0
935.0
936.0
936.0
937.0
932.0
930.0
927.0
926.0
928.0
931.0
933.0
935.0
933.0
933.0
932.0
933.0
929.0
928.0
929.0
928.0
927.0
922.0
923.0
920.0
916.0
913.0
904.0
902.0
899.0
899.0
903.0
907.0
911.0
910.0
910.0
910.0
909.0
905.0
901.0
898.0
894.0
897.0
900.0
902.0
909.0
911.0
913.0
913.0
917.0
927.0
941.0
962.0
986.0
1013.0
1045.0
1068.0
1082.0
1078.0
1060.0
1028.0
990.0
951.0
914.0
879.0
843.0
817.0
804.0
803.0
810.0
821.0
832.0
840.0
846.0
853.0
856.0
860.0
866.0
871.0
876.0
882.0
883.0
881.0
883.0
882.0
881.0
879.0
879.0
878.0
880.0
885.0
885.0
883.0
883.0
878.0
875.0
871.0
871.0
873.0
874.0
876.0
878.0
881.0
884.0
884.0
883.0
879.0
876.0
867.0
861.0
854.0
859.0
863.0
868.0
871.0
872.0
869.0
866.0
863.0
859.0
857.0
857.0
857.0
859.0
860.0
861.0
860.0
858.0
855.0
851.0
851.0
851.0
851.0
