# Simple Text Format
# Sampling Rate (Hz):= 360.00
# Resolution:= 12
# Labels:= ECG
826.0
829.0
833.0
835.0
838.0
839.0
842.0
842.0
849.0
851.0
855.0
861.0
866.0
871.0
874.0
876.0
878.0
880.0
882.0
881.0
882.0
885.0
886.0
888.0
889.0
889.0
890.0
891.0
889.0
889.0
887.0
883.0
883.0
880.0
882.0
881.0
882.0
883.0
883.0
882.0
881.0
879.0
875.0
874.0
875.0
876.0
877.0
876.0
878.0
877.0
877.0
876.0
877.0
874.0
873.0
872.0
870.0
869.0
870.0
871.0
870.0
873.0
874.0
872.0
870.0
868.0
867.0
868.0
866.0
870.0
871.0
872.0
874.0
873.0
873.0
872.0
871.0
872.0
870.0
867.0
868.0
868.0
868.0
871.0
872.0
873.0
876.0
875.0
877.0
874.0
876.0
876.0
875.0
880.0
882.0
885.0
887.0
889.0
891.0
890.0
888.0
886.0
887.0
883.0
883.0
885.0
888.0
891.0
893.0
897.0
898.0
897.0
892.0
889.0
885.0
880.0
877.0
874.0
874.0
875.0
876.0
877.0
878.0
874.0
872.0
868.0
863.0
860.0
857.0
855.0
856.0
855.0
855.0
859.0
860.0
859.0
859.0
858.0
858.0
857.0
855.0
853.0
856.0
857.0
858.0
859.0
864.0
862.0
858.0
860.0
857.0
859.0
862.0
872.0
886.0
902.0
922.0
948.0
977.0
1003.0
1023.0
1034.0
1035.0
1022.0
995.0
966.0
940.0
912.0
880.0
847.0
820.0
802.0
798.0
801.0
805.0
811.0
815.0
818.0
825.0
828.0
830.0
831.0
833.0
832.0
833.0
833.0
830.0
830.0
830.0
829.0
830.0
831.0
833.0
833.0
834.0
832.0
831.0
828.0
829.0
827.0
826.0
827.0
828.0
825.0
826.0
828.0
829.0
825.0
826.0
825.0
824.0
821.0
820.0
817.0
818.0
819.0
820.0
821.0
824.0
820.0
819.0
819.0
818.0
815.0
811.0
811.0
810.0
813.0
812.0
814.0
816.0
815.0
815.0
809.0
811.0
807.0
808.0
807.0
806.0
809.0
810.0
810.0
811.0
807.0
806.0
805.0
808.0
806.0
807.0
809.0
808.0
810.0
812.0
814.0
818.0
817.0
817.0
817.0
818.0
821.0
822.0
823.0
826.0
829.0
833.0
839.0
843.0
847.0
852.0
851.0
857.0
863.0
865.0
871.0
874.0
879.0
880.0
884.0
884.0
886.0
883.0
882.0
883.0
880.0
878.0
877.0
875.0
878.0
879.0
878.0
879.0
876.0
875.0
873.0
871.0
873.0
870.0
871.0
871.0
872.0
872.0
873.0
875.0
872.0
871.0
867.0
868.0
865.0
865.0
862.0
862.0
864.0
863.0
866.0
866.0
867.0
863.0
863.0
861.0
862.0
858.0
859.0
861.0
862.0
863.0
865.0
865.0
867.0
866.0
863.0
864.0
862.0
861.0
861.0
863.0
861.0
863.0
866.0
867.0
867.0
869.0
866.0
868.0
870.0
870.0
872.0
877.0
878.0
880.0
883.0
878.0
880.0
884.0
883.0
881.0
881.0
883.0
886.0
888.0
890.0
887.0
884.0
882.0
878.0
875.0
872.0
869.0
868.0
866.0
865.0
864.0
862.0
861.0
859.0
857.0
855.0
853.0
848.0
849.0
847.0
844.0
848.0
846.0
850.0
851.0
854.0
853.0
853.0
851.0
852.0
851.0
847.0
847.0
848.0
847.0
848.0
850.0
849.0
851.0
853.0
854.0
858.0
861.0
871.0
884.0
903.0
929.0
957.0
983.0
1007.0
1024.0
1021.0
1006.0
981.0
950.0
915.0
880.0
840.0
811.0
792.0
787.0
792.0
797.0
808.0
816.0
821.0
822.0
821.0
821.0
824.0
824.0
827.0
831.0
832.0
834.0
831.0
830.0
830.0
829.0
827.0
827.0
824.0
827.0
825.0
827.0
827.0
828.0
828.0
828.0
822.0
820.0
820.0
820.0
820.0
821.0
821.0
825.0
825.0
825.0
824.0
822.0
822.0
819.0
815.0
815.0
815.0
816.0
816.0
815.0
819.0
816.0
817.0
813.0
814.0
814.0
813.0
810.0
812.0
813.0
814.0
813.0
816.0
813.0
813.0
811.0
810.0
807.0
805.0
805.0
802.0
805.0
808.0
810.0
809.0
811.0
808.0
806.0
805.0
805.0
806.0
806.0
808.0
810.0
811.0
816.0
819.0
821.0
822.0
823.0
823.0
824.0
827.0
831.0
834.0
837.0
842.0
846.0
851.0
855.0
859.0
865.0
868.0
869.0
870.0
873.0
874.0
878.0
881.0
883.0
883.0
886.0
884.0
883.0
881.0
879.0
874.0
873.0
874.0
875.0
876.0
877.0
878.0
878.0
877.0
873.0
871.0
870.0
869.0
868.0
870.0
868.0
867.0
869.0
870.0
873.0
873.0
869.0
869.0
867.0
866.0
865.0
863.0
861.0
861.0
867.0
866.0
866.0
867.0
865.0
862.0
861.0
860.0
858.0
859.0
859.0
860.0
862.0
863.0
865.0
863.0
863.0
860.0
860.0
860.0
861.0
861.0
860.0
862.0
864.0
865.0
866.0
868.0
869.0
868.0
864.0
869.0
873.0
876.0
877.0
883.0
884.0
886.0
884.0
882.0
882.0
880.0
879.0
878.0
881.0
883.0
884.0
887.0
887.0
885.0
885.0
880.0
874.0
871.0
868.0
867.0
868.0
869.0
868.0
869.0
866.0
863.0
863.0
860.0
857.0
854.0
855.0
852.0
851.0
849.0
848.0
852.0
851.0
853.0
854.0
854.0
850.0
850.0
848.0
848.0
846.0
849.0
849.0
848.0
851.0
853.0
856.0
858.0
857.0
857.0
859.0
862.0
875.0
890.0
912.0
938.0
965.0
992.0
1012.0
1022.0
1016.0
998.0
969.0
942.0
916.0
887.0
856.0
825.0
801.0
788.0
788.0
792.0
797.0
804.0
808.0
811.0
815.0
815.0
819.0
822.0
828.0
831.0
834.0
832.0
834.0
830.0
828.0
827.0
830.0
828.0
830.0
832.0
831.0
829.0
830.0
831.0
830.0
830.0
829.0
827.0
824.0
823.0
823.0
823.0
827.0
827.0
828.0
825.0
823.0
825.0
822.0
821.0
820.0
818.0
818.0
820.0
819.0
819.0
822.0
821.0
819.0
816.0
813.0
812.0
811.0
811.0
810.0
810.0
812.0
815.0
813.0
809.0
810.0
812.0
809.0
806.0
808.0
807.0
809.0
812.0
813.0
814.0
814.0
814.0
812.0
811.0
812.0
815.0
815.0
817.0
818.0
822.0
822.0
824.0
828.0
829.0
832.0
831.0
833.0
836.0
838.0
841.0
844.0
850.0
857.0
861.0
866.0
868.0
871.0
873.0
876.0
875.0
877.0
879.0
880.0
883.0
884.0
884.0
886.0
883.0
881.0
881.0
878.0
878.0
879.0
873.0
875.0
876.0
878.0
876.0
878.0
878.0
878.0
875.0
871.0
872.0
868.0
867.0
866.0
870.0
870.0
868.0
871.0
872.0
871.0
869.0
867.0
865.0
865.0
864.0
863.0
867.0
866.0
864.0
867.0
867.0
865.0
865.0
860.0
859.0
859.0
860.0
860.0
859.0
862.0
866.0
866.0
865.0
864.0
865.0
864.0
862.0
861.0
861.0
863.0
863.0
863.0
867.0
868.0
869.0
869.0
870.0
868.0
870.0
872.0
873.0
877.0
881.0
883.0
886.0
885.0
885.0
882.0
883.0
884.0
883.0
883.0
885.0
885.0
888.0
889.0
888.0
885.0
881.0
875.0
872.0
870.0
869.0
869.0
870.0
868.0
864.0
863.0
860.0
860.0
858.0
855.0
852.0
852.0
849.0
849.0
849.0
850.0
851.0
853.0
851.0
852.0
855.0
853.0
852.0
850.0
851.0
850.0
849.0
850.0
849.0
853.0
853.0
857.0
858.0
857.0
855.0
856.0
860.0
865.0
876.0
889.0
906.0
928.0
954.0
978.0
998.0
1011.0
1022.0
1014.0
997.0
974.0
946.0
922.0
899.0
865.0
830.0
804.0
788.0
783.0
785.0
790.0
796.0
802.0
806.0
812.0
816.0
822.0
829.0
834.0
835.0
835.0
834.0
828.0
826.0
825.0
823.0
827.0
827.0
832.0
832.0
831.0
831.0
831.0
832.0
831.0
831.0
827.0
826.0
826.0
827.0
826.0
828.0
828.0
830.0
831.0
830.0
828.0
827.0
825.0
826.0
825.0
824.0
824.0
827.0
825.0
825.0
825.0
824.0
822.0
822.0
819.0
819.0
818.0
818.0
819.0
820.0
820.0
819.0
817.0
817.0
814.0
817.0
817.0
814.0
814.0
816.0
817.0
817.0
818.0
819.0
816.0
815.0
815.0
813.0
812.0
810.0
816.0
816.0
820.0
820.0
821.0
826.0
825.0
827.0
827.0
830.0
831.0
833.0
836.0
837.0
843.0
848.0
852.0
854.0
860.0
862.0
864.0
869.0
871.0
871.0
874.0
877.0
881.0
882.0
888.0
888.0
887.0
884.0
887.0
889.0
886.0
885.0
885.0
887.0
886.0
887.0
888.0
886.0
887.0
883.0
882.0
879.0
873.0
873.0
874.0
873.0
874.0
873.0
875.0
875.0
874.0
874.0
872.0
871.0
867.0
866.0
867.0
868.0
868.0
868.0
868.0
867.0
867.0
865.0
865.0
864.0
861.0
862.0
862.0
863.0
863.0
865.0
866.0
866.0
866.0
862.0
862.0
863.0
862.0
860.0
862.0
864.0
864.0
864.0
866.0
868.0
867.0
865.0
864.0
860.0
862.0
867.0
866.0
870.0
877.0
880.0
881.0
886.0
886.0
884.0
884.0
881.0
880.0
877.0
878.0
880.0
884.0
888.0
891.0
891.0
889.0
887.0
882.0
877.0
872.0
869.0
868.0
870.0
871.0
871.0
870.0
869.0
865.0
859.0
857.0
854.0
853.0
849.0
850.0
851.0
851.0
851.0
851.0
851.0
852.0
851.0
850.0
850.0
848.0
848.0
847.0
844.0
848.0
850.0
851.0
851.0
850.0
849.0
849.0
851.0
854.0
861.0
873.0
890.0
914.0
942.0
974.0
998.0
1013.0
1011.0
996.0
969.0
940.0
913.0
882.0
851.0
819.0
793.0
783.0
783.0
786.0
792.0
794.0
800.0
804.0
808.0
812.0
815.0
821.0
827.0
831.0
833.0
833.0
831.0
831.0
827.0
827.0
828.0
827.0
828.0
829.0
830.0
830.0
831.0
833.0
833.0
830.0
827.0
825.0
823.0
823.0
822.0
825.0
827.0
827.0
829.0
829.0
827.0
826.0
826.0
824.0
821.0
821.0
821.0
823.0
823.0
826.0
824.0
823.0
823.0
821.0
819.0
818.0
817.0
817.0
817.0
819.0
816.0
817.0
817.0
818.0
816.0
815.0
816.0
814.0
810.0
809.0
814.0
813.0
815.0
814.0
815.0
817.0
817.0
819.0
818.0
820.0
819.0
819.0
821.0
823.0
825.0
828.0
828.0
830.0
833.0
835.0
836.0
837.0
837.0
841.0
847.0
852.0
856.0
858.0
863.0
868.0
870.0
874.0
876.0
878.0
878.0
882.0
884.0
887.0
887.0
887.0
888.0
887.0
886.0
888.0
886.0
884.0
882.0
884.0
881.0
881.0
882.0
880.0
880.0
879.0
877.0
874.0
874.0
871.0
870.0
869.0
869.0
870.0
869.0
869.0
870.0
870.0
868.0
867.0
864.0
862.0
862.0
860.0
862.0
864.0
865.0
865.0
864.0
864.0
861.0
863.0
860.0
859.0
856.0
860.0
862.0
863.0
863.0
862.0
864.0
862.0
861.0
860.0
860.0
859.0
859.0
860.0
861.0
861.0
863.0
865.0
867.0
866.0
866.0
863.0
862.0
864.0
865.0
869.0
871.0
874.0
878.0
881.0
883.0
883.0
884.0
881.0
880.0
876.0
877.0
877.0
879.0
880.0
883.0
889.0
890.0
890.0
884.0
879.0
873.0
871.0
868.0
868.0
868.0
869.0
870.0
869.0
865.0
864.0
859.0
856.0
850.0
850.0
848.0
846.0
846.0
849.0
849.0
851.0
854.0
853.0
853.0
850.0
850.0
848.0
848.0
848.0
849.0
851.0
852.0
853.0
856.0
852.0
852.0
848.0
848.0
850.0
850.0
855.0
866.0
877.0
892.0
911.0
937.0
960.0
983.0
1001.0
1008.0
1004.0
984.0
961.0
934.0
910.0
883.0
854.0
821.0
794.0
779.0
780.0
783.0
788.0
793.0
796.0
802.0
806.0
811.0
817.0
824.0
824.0
829.0
832.0
831.0
829.0
829.0
828.0
828.0
827.0
828.0
829.0
829.0
828.0
828.0
826.0
825.0
824.0
824.0
822.0
824.0
826.0
824.0
827.0
826.0
825.0
824.0
822.0
819.0
816.0
817.0
817.0
820.0
821.0
821.0
823.0
823.0
821.0
819.0
817.0
816.0
814.0
812.0
813.0
812.0
817.0
818.0
818.0
817.0
814.0
813.0
812.0
809.0
806.0
806.0
807.0
808.0
808.0
812.0
811.0
812.0
812.0
808.0
812.0
810.0
811.0
809.0
809.0
812.0
816.0
817.0
820.0
822.0
820.0
821.0
821.0
822.0
826.0
826.0
828.0
832.0
836.0
838.0
848.0
852.0
856.0
861.0
864.0
866.0
866.0
869.0
871.0
875.0
878.0
885.0
888.0
890.0
888.0
886.0
883.0
880.0
879.0
879.0
877.0
879.0
879.0
878.0
879.0
878.0
874.0
870.0
870.0
869.0
867.0
864.0
867.0
868.0
870.0
867.0
867.0
867.0
865.0
863.0
861.0
858.0
859.0
858.0
860.0
856.0
858.0
858.0
863.0
862.0
860.0
860.0
860.0
857.0
856.0
855.0
854.0
854.0
854.0
857.0
859.0
858.0
860.0
856.0
857.0
855.0
854.0
852.0
853.0
853.0
854.0
855.0
857.0
858.0
859.0
860.0
858.0
855.0
858.0
860.0
862.0
865.0
868.0
872.0
875.0
878.0
878.0
879.0
874.0
870.0
868.0
869.0
870.0
873.0
877.0
880.0
884.0
882.0
882.0
879.0
873.0
868.0
866.0
863.0
863.0
863.0
864.0
862.0
857.0
857.0
855.0
852.0
849.0
847.0
845.0
844.0
842.0
843.0
845.0
847.0
846.0
843.0
847.0
846.0
843.0
844.0
845.0
844.0
843.0
846.0
845.0
847.0
849.0
849.0
850.0
853.0
850.0
851.0
856.0
863.0
881.0
903.0
929.0
958.0
984.0
1003.0
1010.0
999.0
974.0
946.0
916.0
891.0
858.0
823.0
795.0
778.0
776.0
780.0
784.0
790.0
796.0
800.0
803.0
806.0
808.0
814.0
820.0
827.0
827.0
831.0
826.0
826.0
825.0
823.0
822.0
820.0
819.0
821.0
823.0
822.0
826.0
826.0
823.0
823.0
820.0
823.0
821.0
819.0
819.0
820.0
821.0
824.0
820.0
822.0
823.0
822.0
820.0
816.0
816.0
815.0
815.0
816.0
815.0
815.0
817.0
818.0
816.0
815.0
811.0
812.0
812.0
810.0
810.0
812.0
811.0
814.0
816.0
815.0
813.0
813.0
811.0
811.0
811.0
808.0
808.0
810.0
812.0
812.0
812.0
813.0
810.0
810.0
811.0
809.0
811.0
811.0
813.0
814.0
817.0
818.0
821.0
826.0
825.0
829.0
828.0
830.0
831.0
834.0
835.0
838.0
840.0
848.0
853.0
856.0
859.0
862.0
865.0
866.0
868.0
870.0
872.0
873.0
877.0
882.0
883.0
884.0
885.0
883.0
880.0
880.0
879.0
878.0
878.0
878.0
878.0
878.0
878.0
878.0
873.0
872.0
868.0
867.0
864.0
863.0
864.0
864.0
863.0
863.0
864.0
864.0
863.0
862.0
861.0
859.0
857.0
858.0
856.0
856.0
858.0
859.0
859.0
859.0
857.0
857.0
857.0
853.0
853.0
850.0
849.0
851.0
852.0
854.0
853.0
854.0
853.0
855.0
854.0
853.0
852.0
853.0
853.0
855.0
855.0
858.0
859.0
859.0
859.0
858.0
856.0
856.0
855.0
853.0
858.0
860.0
864.0
867.0
872.0
871.0
876.0
877.0
875.0
874.0
871.0
870.0
869.0
869.0
870.0
871.0
874.0
876.0
880.0
881.0
881.0
880.0
875.0
867.0
866.0
862.0
864.0
866.0
867.0
866.0
864.0
859.0
856.0
851.0
849.0
847.0
844.0
845.0
844.0
845.0
846.0
849.0
848.0
848.0
844.0
846.0
844.0
842.0
841.0
842.0
843.0
843.0
843.0
843.0
846.0
847.0
845.0
846.0
845.0
844.0
848.0
854.0
866.0
877.0
897.0
918.0
940.0
962.0
982.0
1000.0
1005.0
996.0
974.0
950.0
923.0
897.0
870.0
838.0
806.0
782.0
774.0
774.0
779.0
784.0
788.0
795.0
798.0
803.0
808.0
812.0
818.0
822.0
823.0
824.0
823.0
822.0
823.0
821.0
822.0
824.0
824.0
823.0
824.0
822.0
823.0
821.0
822.0
821.0
822.0
820.0
822.0
823.0
824.0
825.0
824.0
822.0
819.0
817.0
816.0
814.0
819.0
818.0
819.0
817.0
817.0
819.0
817.0
817.0
816.0
814.0
814.0
813.0
813.0
812.0
811.0
816.0
817.0
818.0
816.0
815.0
815.0
813.0
812.0
812.0
812.0
811.0
811.0
809.0
813.0
817.0
817.0
816.0
815.0
813.0
810.0
812.0
812.0
816.0
817.0
821.0
822.0
826.0
826.0
825.0
827.0
828.0
829.0
830.0
834.0
837.0
842.0
848.0
853.0
858.0
861.0
865.0
867.0
870.0
871.0
876.0
877.0
878.0
881.0
882.0
884.0
887.0
889.0
887.0
883.0
880.0
881.0
880.0
878.0
876.0
875.0
874.0
873.0
874.0
875.0
874.0
872.0
870.0
870.0
867.0
868.0
867.0
866.0
868.0
868.0
868.0
867.0
868.0
865.0
860.0
861.0
861.0
858.0
859.0
859.0
861.0
860.0
860.0
861.0
859.0
859.0
857.0
856.0
855.0
855.0
854.0
857.0
858.0
858.0
859.0
859.0
859.0
855.0
853.0
852.0
852.0
854.0
858.0
858.0
859.0
858.0
860.0
859.0
859.0
858.0
857.0
856.0
859.0
860.0
864.0
868.0
872.0
874.0
875.0
875.0
877.0
877.0
875.0
875.0
874.0
874.0
875.0
879.0
882.0
884.0
888.0
885.0
885.0
877.0
873.0
870.0
864.0
861.0
863.0
866.0
866.0
865.0
864.0
862.0
860.0
856.0
851.0
847.0
846.0
844.0
846.0
844.0
847.0
846.0
848.0
848.0
847.0
845.0
844.0
846.0
844.0
846.0
845.0
848.0
848.0
848.0
851.0
850.0
850.0
851.0
850.0
849.0
849.0
850.0
858.0
869.0
882.0
898.0
923.0
947.0
972.0
994.0
1003.0
1001.0
983.0
957.0
927.0
897.0
866.0
830.0
803.0
784.0
777.0
778.0
786.0
787.0
792.0
796.0
797.0
805.0
811.0
816.0
824.0
828.0
829.0
827.0
825.0
827.0
826.0
826.0
824.0
825.0
825.0
827.0
828.0
826.0
826.0
829.0
825.0
824.0
823.0
820.0
823.0
821.0
823.0
824.0
827.0
824.0
825.0
824.0
820.0
822.0
819.0
817.0
819.0
818.0
821.0
820.0
823.0
822.0
820.0
820.0
817.0
815.0
814.0
812.0
814.0
815.0
818.0
817.0
816.0
817.0
815.0
815.0
812.0
813.0
808.0
808.0
807.0
811.0
813.0
813.0
817.0
816.0
816.0
815.0
816.0
813.0
812.0
811.0
814.0
814.0
818.0
821.0
826.0
827.0
829.0
827.0
827.0
829.0
831.0
831.0
837.0
839.0
847.0
851.0
857.0
860.0
863.0
866.0
868.0
869.0
870.0
874.0
875.0
876.0
880.0
880.0
884.0
882.0
881.0
880.0
880.0
877.0
876.0
876.0
874.0
876.0
878.0
877.0
878.0
875.0
875.0
873.0
870.0
869.0
865.0
864.0
865.0
865.0
862.0
864.0
866.0
863.0
863.0
862.0
859.0
859.0
858.0
857.0
856.0
857.0
857.0
858.0
860.0
859.0
856.0
856.0
853.0
850.0
852.0
849.0
851.0
853.0
854.0
854.0
857.0
856.0
855.0
854.0
854.0
852.0
851.0
853.0
852.0
852.0
854.0
858.0
859.0
858.0
857.0
859.0
855.0
854.0
855.0
854.0
857.0
861.0
864.0
866.0
871.0
871.0
869.0
872.0
869.0
868.0
868.0
869.0
872.0
873.0
876.0
878.0
882.0
881.0
881.0
880.0
874.0
871.0
866.0
865.0
859.0
859.0
858.0
863.0
862.0
859.0
856.0
852.0
848.0
847.0
845.0
842.0
843.0
842.0
843.0
843.0
845.0
845.0
842.0
842.0
841.0
840.0
838.0
838.0
838.0
841.0
842.0
843.0
846.0
844.0
843.0
845.0
844.0
843.0
846.0
851.0
861.0
873.0
890.0
911.0
935.0
958.0
976.0
994.0
1001.0
992.0
976.0
950.0
926.0
902.0
870.0
839.0
808.0
787.0
781.0
781.0
784.0
786.0
786.0
791.0
793.0
799.0
805.0
815.0
821.0
821.0
826.0
825.0
822.0
821.0
820.0
819.0
818.0
819.0
822.0
822.0
823.0
823.0
823.0
822.0
821.0
820.0
821.0
821.0
822.0
820.0
822.0
823.0
825.0
823.0
821.0
821.0
818.0
816.0
817.0
815.0
816.0
816.0
817.0
818.0
817.0
817.0
816.0
814.0
816.0
814.0
815.0
814.0
812.0
815.0
814.0
816.0
817.0
815.0
816.0
816.0
815.0
814.0
813.0
811.0
815.0
813.0
814.0
814.0
814.0
816.0
816.0
816.0
816.0
816.0
816.0
818.0
820.0
820.0
823.0
825.0
826.0
828.0
828.0
828.0
829.0
828.0
830.0
830.0
832.0
834.0
839.0
842.0
850.0
853.0
855.0
860.0
860.0
863.0
867.0
868.0
872.0
874.0
880.0
883.0
886.0
887.0
886.0
886.0
886.0
883.0
882.0
880.0
879.0
878.0
876.0
877.0
877.0
878.0
876.0
879.0
873.0
869.0
866.0
865.0
863.0
864.0
869.0
868.0
868.0
867.0
865.0
864.0
861.0
861.0
860.0
859.0
859.0
860.0
857.0
861.0
861.0
859.0
858.0
855.0
851.0
853.0
851.0
852.0
852.0
855.0
858.0
858.0
859.0
858.0
861.0
859.0
858.0
857.0
855.0
855.0
856.0
855.0
858.0
860.0
861.0
861.0
860.0
859.0
862.0
860.0
863.0
862.0
865.0
869.0
872.0
873.0
874.0
871.0
869.0
866.0
870.0
871.0
872.0
875.0
878.0
881.0
883.0
887.0
886.0
884.0
880.0
878.0
877.0
874.0
871.0
870.0
868.0
868.0
868.0
867.0
866.0
863.0
861.0
857.0
854.0
851.0
847.0
845.0
844.0
843.0
843.0
844.0
844.0
846.0
846.0
846.0
845.0
845.0
845.0
844.0
840.0
841.0
843.0
846.0
847.0
847.0
848.0
847.0
845.0
846.0
847.0
850.0
852.0
859.0
877.0
894.0
915.0
943.0
971.0
993.0
1009.0
1011.0
993.0
969.0
942.0
912.0
878.0
846.0
812.0
795.0
793.0
798.0
800.0
799.0
797.0
798.0
798.0
807.0
810.0
816.0
824.0
826.0
827.0
826.0
823.0
821.0
820.0
818.0
820.0
819.0
820.0
822.0
827.0
825.0
824.0
823.0
822.0
817.0
815.0
817.0
816.0
819.0
820.0
821.0
823.0
822.0
822.0
823.0
820.0
818.0
816.0
816.0
815.0
815.0
817.0
820.0
818.0
817.0
818.0
816.0
816.0
817.0
816.0
812.0
812.0
812.0
816.0
815.0
816.0
815.0
813.0
812.0
812.0
809.0
810.0
807.0
808.0
810.0
811.0
813.0
814.0
815.0
813.0
813.0
813.0
810.0
813.0
815.0
818.0
815.0
818.0
819.0
823.0
825.0
827.0
828.0
824.0
828.0
829.0
831.0
833.0
835.0
841.0
845.0
850.0
851.0
852.0
857.0
857.0
861.0
862.0
868.0
870.0
875.0
876.0
878.0
879.0
880.0
879.0
879.0
877.0
877.0
878.0
878.0
878.0
876.0
876.0
878.0
877.0
876.0
876.0
874.0
870.0
869.0
869.0
866.0
862.0
866.0
867.0
867.0
868.0
866.0
867.0
863.0
863.0
861.0
859.0
858.0
858.0
860.0
859.0
861.0
863.0
863.0
861.0
862.0
860.0
857.0
857.0
855.0
856.0
854.0
856.0
860.0
863.0
860.0
862.0
861.0
860.0
858.0
855.0
854.0
854.0
857.0
857.0
860.0
861.0
859.0
860.0
859.0
858.0
856.0
857.0
857.0
857.0
860.0
863.0
869.0
871.0
875.0
875.0
875.0
876.0
876.0
874.0
872.0
874.0
875.0
877.0
878.0
879.0
880.0
884.0
882.0
883.0
883.0
879.0
878.0
873.0
872.0
871.0
871.0
872.0
869.0
871.0
868.0
863.0
859.0
854.0
850.0
847.0
848.0
848.0
849.0
852.0
851.0
851.0
850.0
848.0
846.0
845.0
845.0
846.0
846.0
851.0
851.0
852.0
852.0
850.0
848.0
850.0
849.0
848.0
847.0
852.0
858.0
868.0
883.0
904.0
924.0
948.0
977.0
999.0
1015.0
1019.0
1011.0
992.0
968.0
942.0
917.0
890.0
855.0
826.0
803.0
797.0
798.0
803.0
807.0
807.0
809.0
812.0
818.0
822.0
824.0
827.0
829.0
828.0
829.0
829.0
828.0
827.0
827.0
830.0
830.0
831.0
831.0
830.0
829.0
827.0
827.0
826.0
823.0
824.0
823.0
825.0
826.0
825.0
823.0
826.0
824.0
823.0
822.0
821.0
820.0
820.0
819.0
821.0
821.0
824.0
821.0
820.0
819.0
817.0
817.0
820.0
819.0
821.0
819.0
818.0
820.0
822.0
823.0
822.0
818.0
817.0
816.0
816.0
816.0
813.0
816.0
818.0
816.0
816.0
816.0
816.0
817.0
814.0
813.0
813.0
816.0
815.0
816.0
820.0
818.0
822.0
825.0
827.0
827.0
827.0
829.0
828.0
831.0
830.0
836.0
841.0
844.0
850.0
853.0
854.0
856.0
856.0
857.0
861.0
863.0
868.0
869.0
875.0
880.0
883.0
889.0
888.0
888.0
888.0
887.0
887.0
886.0
884.0
883.0
882.0
883.0
883.0
882.0
881.0
880.0
875.0
877.0
877.0
873.0
876.0
873.0
876.0
876.0
873.0
875.0
873.0
870.0
868.0
864.0
864.0
867.0
866.0
866.0
868.0
870.0
869.0
869.0
865.0
863.0
864.0
865.0
862.0
863.0
862.0
864.0
863.0
866.0
868.0
869.0
868.0
869.0
867.0
865.0
863.0
866.0
866.0
866.0
866.0
869.0
869.0
871.0
868.0
867.0
865.0
864.0
864.0
866.0
863.0
868.0
873.0
878.0
882.0
885.0
886.0
885.0
886.0
885.0
883.0
880.0
883.0
884.0
887.0
889.0
892.0
894.0
890.0
888.0
884.0
881.0
877.0
874.0
873.0
874.0
874.0
872.0
874.0
871.0
869.0
866.0
861.0
858.0
856.0
853.0
851.0
851.0
851.0
854.0
856.0
859.0
858.0
859.0
856.0
857.0
854.0
851.0
853.0
855.0
857.0
858.0
860.0
859.0
858.0
859.0
857.0
857.0
862.0
873.0
883.0
899.0
920.0
947.0
971.0
997.0
1017.0
1026.0
1026.0
1011.0
985.0
954.0
927.0
902.0
871.0
840.0
816.0
801.0
797.0
801.0
807.0
817.0
824.0
826.0
829.0
830.0
832.0
833.0
835.0
837.0
836.0
839.0
837.0
834.0
832.0
830.0
829.0
830.0
829.0
833.0
835.0
835.0
833.0
830.0
830.0
830.0
826.0
825.0
827.0
828.0
829.0
830.0
828.0
830.0
828.0
827.0
827.0
823.0
821.0
819.0
822.0
822.0
824.0
824.0
824.0
822.0
818.0
819.0
818.0
818.0
816.0
814.0
816.0
818.0
816.0
816.0
816.0
815.0
816.0
813.0
813.0
811.0
810.0
809.0
806.0
808.0
809.0
811.0
811.0
814.0
813.0
813.0
813.0
811.0
810.0
803.0
809.0
810.0
815.0
817.0
818.0
820.0
823.0
822.0
825.0
826.0
827.0
830.0
833.0
837.0
845.0
850.0
857.0
862.0
865.0
867.0
869.0
870.0
871.0
874.0
874.0
878.0
882.0
884.0
885.0
887.0
885.0
885.0
882.0
882.0
880.0
879.0
879.0
880.0
881.0
880.0
882.0
881.0
883.0
879.0
878.0
875.0
872.0
872.0
871.0
870.0
872.0
872.0
872.0
874.0
875.0
873.0
872.0
870.0
869.0
867.0
865.0
867.0
867.0
868.0
867.0
869.0
867.0
865.0
863.0
863.0
861.0
861.0
862.0
861.0
862.0
864.0
864.0
864.0
861.0
862.0
863.0
862.0
863.0
861.0
863.0
863.0
866.0
867.0
869.0
868.0
868.0
871.0
870.0
874.0
877.0
878.0
882.0
882.0
885.0
886.0
887.0
886.0
883.0
880.0
881.0
882.0
883.0
884.0
886.0
886.0
886.0
885.0
884.0
878.0
877.0
875.0
870.0
869.0
867.0
864.0
865.0
863.0
859.0
857.0
858.0
857.0
855.0
855.0
854.0
853.0
851.0
849.0
849.0
850.0
852.0
851.0
851.0
853.0
853.0
850.0
850.0
849.0
850.0
849.0
850.0
851.0
852.0
852.0
852.0
857.0
860.0
871.0
883.0
897.0
918.0
943.0
968.0
996.0
1015.0
1023.0
1015.0
994.0
967.0
939.0
909.0
876.0
845.0
816.0
793.0
783.0
788.0
795.0
804.0
811.0
817.0
820.0
824.0
823.0
822.0
826.0
826.0
831.0
832.0
834.0
835.0
837.0
833.0
834.0
832.0
830.0
831.0
830.0
829.0
828.0
830.0
829.0
832.0
831.0
831.0
831.0
828.0
828.0
826.0
825.0
827.0
825.0
827.0
827.0
829.0
828.0
826.0
825.0
822.0
822.0
824.0
822.0
822.0
823.0
823.0
824.0
821.0
820.0
822.0
822.0
819.0
818.0
817.0
816.0
817.0
816.0
816.0
819.0
819.0
816.0
815.0
816.0
814.0
812.0
812.0
811.0
811.0
811.0
811.0
814.0
815.0
815.0
816.0
817.0
816.0
815.0
817.0
816.0
817.0
819.0
822.0
826.0
827.0
831.0
831.0
834.0
835.0
835.0
836.0
839.0
842.0
847.0
852.0
857.0
862.0
866.0
871.0
872.0
874.0
877.0
878.0
878.0
879.0
882.0
883.0
887.0
889.0
889.0
887.0
887.0
886.0
886.0
884.0
884.0
882.0
883.0
883.0
883.0
883.0
882.0
881.0
878.0
878.0
876.0
874.0
872.0
871.0
872.0
873.0
874.0
874.0
873.0
872.0
874.0
870.0
870.0
868.0
868.0
868.0
869.0
869.0
870.0
870.0
872.0
867.0
866.0
867.0
866.0
863.0
862.0
863.0
