# Simple Text Format
# Sampling Rate (Hz):= 360.00
# Resolution:= 12
# Labels:= ECG
788.0
787.0
783.0
783.0
781.0
780.0
777.0
779.0
780.0
779.0
780.0
783.0
779.0
778.0
777.0
777.0
772.0
771.0
770.0
771.0
774.0
775.0
777.0
778.0
778.0
776.0
773.0
772.0
771.0
772.0
772.0
771.0
773.0
775.0
775.0
776.0
775.0
775.0
775.0
777.0
775.0
777.0
780.0
781.0
783.0
788.0
791.0
794.0
796.0
798.0
800.0
805.0
808.0
812.0
817.0
822.0
827.0
831.0
835.0
839.0
840.0
840.0
842.0
843.0
846.0
844.0
847.0
849.0
849.0
852.0
852.0
852.0
851.0
849.0
844.0
846.0
846.0
845.0
845.0
846.0
845.0
846.0
846.0
845.0
843.0
842.0
841.0
839.0
838.0
837.0
837.0
836.0
839.0
840.0
840.0
839.0
837.0
836.0
836.0
831.0
831.0
831.0
831.0
833.0
833.0
835.0
834.0
835.0
835.0
836.0
832.0
831.0
833.0
830.0
829.0
833.0
833.0
835.0
836.0
837.0
837.0
837.0
836.0
835.0
835.0
836.0
837.0
839.0
841.0
844.0
845.0
848.0
851.0
851.0
848.0
851.0
851.0
852.0
850.0
853.0
853.0
856.0
856.0
861.0
862.0
862.0
858.0
858.0
858.0
853.0
853.0
852.0
850.0
849.0
846.0
843.0
840.0
835.0
834.0
832.0
828.0
826.0
824.0
823.0
824.0
825.0
828.0
827.0
829.0
824.0
825.0
823.0
821.0
823.0
824.0
823.0
825.0
824.0
827.0
828.0
828.0
828.0
826.0
827.0
826.0
829.0
838.0
850.0
863.0
887.0
914.0
943.0
971.0
993.0
1004.0
1002.0
983.0
955.0
924.0
894.0
864.0
832.0
803.0
778.0
769.0
772.0
777.0
784.0
792.0
799.0
803.0
805.0
805.0
803.0
805.0
804.0
805.0
805.0
806.0
805.0
805.0
802.0
803.0
804.0
805.0
805.0
804.0
804.0
804.0
804.0
801.0
799.0
797.0
796.0
799.0
800.0
800.0
800.0
802.0
799.0
802.0
800.0
799.0
797.0
795.0
792.0
792.0
791.0
792.0
793.0
794.0
793.0
794.0
788.0
790.0
787.0
785.0
785.0
784.0
783.0
783.0
783.0
785.0
784.0
782.0
780.0
776.0
775.0
773.0
773.0
773.0
775.0
779.0
781.0
781.0
784.0
781.0
784.0
783.0
780.0
779.0
780.0
780.0
785.0
789.0
789.0
792.0
793.0
792.0
793.0
795.0
799.0
799.0
805.0
810.0
817.0
820.0
828.0
835.0
840.0
844.0
847.0
846.0
850.0
851.0
853.0
855.0
856.0
859.0
858.0
860.0
857.0
857.0
856.0
856.0
853.0
852.0
851.0
850.0
850.0
851.0
851.0
851.0
851.0
849.0
846.0
848.0
846.0
843.0
843.0
843.0
843.0
843.0
845.0
845.0
847.0
844.0
843.0
843.0
841.0
840.0
838.0
839.0
840.0
839.0
840.0
837.0
841.0
840.0
839.0
839.0
836.0
836.0
837.0
836.0
837.0
836.0
841.0
838.0
838.0
840.0
840.0
838.0
839.0
837.0
836.0
838.0
844.0
845.0
846.0
849.0
851.0
856.0
858.0
856.0
857.0
858.0
859.0
860.0
860.0
861.0
862.0
864.0
867.0
867.0
867.0
865.0
864.0
862.0
857.0
855.0
857.0
855.0
853.0
853.0
851.0
849.0
848.0
844.0
840.0
839.0
833.0
836.0
833.0
836.0
833.0
834.0
834.0
831.0
833.0
832.0
830.0
830.0
828.0
828.0
830.0
830.0
835.0
838.0
837.0
834.0
834.0
832.0
832.0
832.0
831.0
831.0
832.0
835.0
842.0
852.0
866.0
883.0
908.0
934.0
962.0
987.0
1001.0
1002.0
984.0
957.0
929.0
898.0
865.0
831.0
798.0
773.0
765.0
768.0
776.0
787.0
798.0
804.0
807.0
810.0
806.0
805.0
805.0
807.0
806.0
807.0
808.0
807.0
809.0
809.0
810.0
813.0
811.0
811.0
810.0
809.0
804.0
806.0
806.0
804.0
805.0
806.0
807.0
809.0
807.0
805.0
806.0
804.0
801.0
799.0
796.0
796.0
797.0
800.0
801.0
801.0
800.0
801.0
800.0
799.0
796.0
795.0
796.0
795.0
798.0
799.0
797.0
797.0
795.0
793.0
794.0
792.0
792.0
789.0
786.0
789.0
789.0
789.0
789.0
790.0
791.0
789.0
788.0
785.0
785.0
783.0
784.0
783.0
786.0
787.0
790.0
789.0
791.0
792.0
793.0
793.0
794.0
793.0
797.0
799.0
802.0
804.0
810.0
813.0
817.0
818.0
822.0
827.0
828.0
831.0
836.0
840.0
847.0
851.0
854.0
861.0
861.0
861.0
861.0
861.0
864.0
861.0
859.0
863.0
862.0
867.0
867.0
868.0
867.0
867.0
867.0
865.0
860.0
857.0
859.0
857.0
857.0
858.0
860.0
859.0
860.0
857.0
856.0
855.0
854.0
851.0
849.0
848.0
848.0
847.0
850.0
850.0
850.0
848.0
846.0
843.0
845.0
842.0
843.0
844.0
846.0
847.0
846.0
849.0
849.0
850.0
848.0
847.0
847.0
846.0
845.0
846.0
846.0
846.0
846.0
849.0
849.0
847.0
849.0
848.0
846.0
846.0
848.0
850.0
853.0
856.0
859.0
863.0
866.0
863.0
861.0
864.0
862.0
865.0
861.0
864.0
865.0
868.0
869.0
871.0
875.0
875.0
871.0
867.0
863.0
863.0
858.0
856.0
851.0
852.0
852.0
851.0
850.0
849.0
847.0
842.0
841.0
836.0
835.0
834.0
836.0
835.0
838.0
836.0
839.0
837.0
838.0
836.0
834.0
833.0
832.0
834.0
834.0
836.0
836.0
840.0
840.0
840.0
843.0
839.0
848.0
857.0
871.0
889.0
914.0
944.0
970.0
994.0
1004.0
1002.0
984.0
958.0
928.0
898.0
868.0
834.0
803.0
777.0
766.0
767.0
774.0
782.0
792.0
800.0
803.0
803.0
802.0
803.0
804.0
806.0
807.0
810.0
813.0
813.0
812.0
812.0
812.0
808.0
807.0
806.0
808.0
813.0
814.0
814.0
816.0
814.0
814.0
812.0
810.0
809.0
808.0
809.0
809.0
809.0
811.0
810.0
811.0
809.0
808.0
807.0
805.0
802.0
802.0
802.0
803.0
805.0
805.0
804.0
804.0
802.0
802.0
800.0
800.0
798.0
796.0
795.0
797.0
796.0
797.0
800.0
800.0
799.0
798.0
796.0
795.0
792.0
792.0
792.0
793.0
793.0
794.0
796.0
797.0
793.0
795.0
794.0
792.0
792.0
792.0
794.0
796.0
800.0
802.0
805.0
804.0
808.0
810.0
810.0
814.0
817.0
819.0
819.0
827.0
831.0
836.0
840.0
842.0
847.0
853.0
854.0
858.0
858.0
864.0
866.0
869.0
872.0
873.0
873.0
875.0
873.0
874.0
872.0
871.0
869.0
870.0
868.0
866.0
865.0
869.0
869.0
868.0
867.0
867.0
862.0
858.0
858.0
856.0
859.0
857.0
857.0
858.0
860.0
860.0
859.0
858.0
855.0
854.0
849.0
848.0
850.0
847.0
849.0
850.0
851.0
855.0
854.0
855.0
852.0
851.0
850.0
848.0
851.0
851.0
853.0
851.0
853.0
853.0
851.0
852.0
852.0
850.0
851.0
850.0
849.0
850.0
853.0
853.0
857.0
857.0
858.0
859.0
859.0
858.0
858.0
858.0
861.0
864.0
865.0
872.0
872.0
875.0
873.0
873.0
874.0
873.0
871.0
874.0
875.0
877.0
875.0
875.0
875.0
873.0
871.0
867.0
865.0
862.0
860.0
856.0
855.0
851.0
849.0
850.0
849.0
847.0
847.0
846.0
842.0
841.0
840.0
838.0
840.0
840.0
843.0
842.0
842.0
844.0
844.0
845.0
843.0
846.0
845.0
841.0
843.0
845.0
849.0
848.0
851.0
853.0
855.0
860.0
871.0
885.0
901.0
924.0
948.0
975.0
996.0
1010.0
1016.0
1004.0
981.0
954.0
923.0
893.0
864.0
827.0
797.0
774.0
770.0
771.0
779.0
792.0
803.0
811.0
812.0
815.0
815.0
815.0
818.0
820.0
823.0
824.0
825.0
828.0
825.0
825.0
821.0
820.0
818.0
816.0
816.0
818.0
821.0
821.0
824.0
825.0
823.0
822.0
820.0
818.0
819.0
817.0
817.0
816.0
815.0
816.0
816.0
817.0
820.0
819.0
813.0
816.0
813.0
812.0
812.0
813.0
813.0
814.0
813.0
813.0
812.0
810.0
810.0
809.0
807.0
805.0
804.0
805.0
806.0
807.0
808.0
809.0
810.0
807.0
805.0
804.0
801.0
798.0
799.0
803.0
804.0
805.0
807.0
807.0
806.0
808.0
808.0
808.0
810.0
809.0
811.0
812.0
816.0
819.0
822.0
823.0
826.0
832.0
835.0
840.0
840.0
843.0
848.0
855.0
860.0
863.0
866.0
871.0
874.0
876.0
877.0
878.0
879.0
878.0
880.0
882.0
882.0
883.0
885.0
883.0
882.0
880.0
881.0
878.0
875.0
874.0
873.0
875.0
873.0
874.0
874.0
875.0
875.0
872.0
872.0
870.0
867.0
866.0
866.0
866.0
868.0
867.0
867.0
866.0
867.0
865.0
862.0
861.0
862.0
860.0
861.0
861.0
859.0
862.0
863.0
863.0
861.0
862.0
860.0
859.0
856.0
857.0
858.0
858.0
858.0
857.0
858.0
858.0
862.0
859.0
860.0
860.0
861.0
859.0
858.0
858.0
860.0
862.0
866.0
868.0
870.0
870.0
869.0
867.0
865.0
869.0
868.0
869.0
870.0
871.0
873.0
875.0
877.0
878.0
878.0
878.0
876.0
874.0
875.0
874.0
871.0
872.0
870.0
871.0
869.0
863.0
863.0
857.0
853.0
850.0
848.0
845.0
847.0
848.0
847.0
848.0
846.0
843.0
839.0
840.0
839.0
838.0
837.0
841.0
839.0
841.0
841.0
844.0
842.0
845.0
843.0
842.0
841.0
840.0
840.0
841.0
845.0
853.0
861.0
875.0
899.0
922.0
951.0
977.0
997.0
1008.0
1003.0
985.0
955.0
929.0
899.0
873.0
842.0
806.0
782.0
770.0
766.0
772.0
777.0
781.0
782.0
786.0
794.0
798.0
806.0
811.0
814.0
816.0
815.0
813.0
811.0
810.0
812.0
815.0
814.0
817.0
816.0
815.0
812.0
810.0
810.0
810.0
809.0
810.0
813.0
812.0
812.0
815.0
815.0
816.0
813.0
812.0
812.0
811.0
809.0
809.0
809.0
809.0
811.0
809.0
808.0
808.0
806.0
804.0
802.0
803.0
804.0
803.0
806.0
804.0
805.0
805.0
802.0
800.0
799.0
797.0
798.0
796.0
795.0
795.0
798.0
798.0
797.0
801.0
800.0
800.0
800.0
799.0
800.0
799.0
797.0
797.0
798.0
799.0
801.0
803.0
802.0
804.0
806.0
807.0
807.0
806.0
809.0
810.0
813.0
816.0
820.0
827.0
828.0
831.0
833.0
835.0
837.0
841.0
844.0
849.0
853.0
859.0
860.0
866.0
868.0
868.0
868.0
870.0
869.0
866.0
865.0
865.0
868.0
869.0
871.0
871.0
871.0
869.0
867.0
864.0
862.0
859.0
857.0
856.0
859.0
856.0
859.0
857.0
854.0
852.0
850.0
850.0
850.0
848.0
848.0
850.0
849.0
849.0
851.0
851.0
851.0
852.0
849.0
848.0
846.0
842.0
842.0
840.0
842.0
843.0
846.0
849.0
851.0
850.0
847.0
846.0
842.0
841.0
839.0
842.0
841.0
844.0
846.0
848.0
852.0
848.0
847.0
847.0
844.0
846.0
847.0
849.0
853.0
856.0
860.0
859.0
861.0
857.0
854.0
853.0
851.0
853.0
857.0
862.0
864.0
867.0
871.0
875.0
873.0
872.0
871.0
865.0
863.0
861.0
855.0
856.0
853.0
852.0
851.0
851.0
848.0
844.0
841.0
839.0
835.0
833.0
832.0
830.0
832.0
834.0
835.0
838.0
836.0
835.0
834.0
832.0
833.0
830.0
828.0
831.0
834.0
837.0
837.0
838.0
837.0
836.0
836.0
836.0
841.0
846.0
854.0
868.0
887.0
909.0
936.0
964.0
990.0
1010.0
1023.0
1024.0
1012.0
987.0
954.0
922.0
893.0
861.0
824.0
791.0
767.0
760.0
763.0
776.0
783.0
786.0
782.0
785.0
785.0
792.0
799.0
811.0
813.0
815.0
817.0
816.0
815.0
813.0
813.0
813.0
812.0
813.0
816.0
818.0
817.0
817.0
817.0
816.0
814.0
813.0
812.0
813.0
815.0
818.0
816.0
819.0
817.0
816.0
814.0
812.0
810.0
812.0
812.0
813.0
814.0
809.0
810.0
813.0
811.0
813.0
814.0
811.0
809.0
806.0
803.0
803.0
806.0
808.0
810.0
811.0
809.0
806.0
807.0
807.0
805.0
802.0
804.0
803.0
804.0
802.0
803.0
804.0
805.0
804.0
804.0
804.0
803.0
802.0
801.0
800.0
802.0
804.0
810.0
810.0
811.0
812.0
814.0
816.0
817.0
816.0
819.0
822.0
827.0
832.0
837.0
839.0
845.0
844.0
849.0
850.0
856.0
856.0
859.0
864.0
869.0
872.0
875.0
878.0
879.0
878.0
880.0
879.0
879.0
877.0
880.0
879.0
881.0
882.0
882.0
880.0
878.0
875.0
873.0
869.0
867.0
867.0
867.0
866.0
869.0
869.0
870.0
869.0
870.0
868.0
866.0
863.0
863.0
865.0
863.0
866.0
866.0
869.0
869.0
874.0
869.0
873.0
871.0
868.0
867.0
866.0
865.0
866.0
865.0
868.0
869.0
870.0
870.0
870.0
866.0
864.0
863.0
862.0
857.0
857.0
864.0
867.0
869.0
871.0
869.0
870.0
868.0
868.0
870.0
871.0
875.0
879.0
883.0
886.0
885.0
889.0
888.0
887.0
883.0
882.0
879.0
880.0
878.0
885.0
885.0
888.0
887.0
886.0
884.0
884.0
882.0
879.0
876.0
873.0
870.0
869.0
866.0
867.0
866.0
865.0
865.0
863.0
861.0
858.0
858.0
855.0
854.0
854.0
855.0
857.0
857.0
860.0
860.0
861.0
859.0
858.0
857.0
859.0
858.0
858.0
862.0
863.0
864.0
866.0
868.0
868.0
869.0
873.0
879.0
891.0
908.0
929.0
955.0
989.0
1019.0
1045.0
1053.0
1048.0
1020.0
986.0
948.0
905.0
862.0
818.0
792.0
782.0
787.0
798.0
805.0
808.0
813.0
815.0
820.0
827.0
828.0
835.0
840.0
841.0
844.0
845.0
844.0
848.0
846.0
844.0
844.0
844.0
844.0
844.0
845.0
848.0
850.0
852.0
849.0
850.0
849.0
845.0
846.0
846.0
844.0
845.0
846.0
848.0
847.0
849.0
845.0
847.0
845.0
846.0
843.0
842.0
839.0
843.0
843.0
843.0
842.0
846.0
844.0
843.0
844.0
842.0
845.0
843.0
843.0
843.0
843.0
845.0
843.0
847.0
845.0
844.0
843.0
842.0
839.0
838.0
839.0
839.0
840.0
840.0
841.0
842.0
843.0
843.0
843.0
841.0
842.0
840.0
841.0
842.0
844.0
851.0
852.0
856.0
858.0
859.0
861.0
860.0
863.0
867.0
872.0
876.0
880.0
888.0
891.0
898.0
902.0
903.0
904.0
908.0
910.0
909.0
913.0
915.0
918.0
919.0
920.0
925.0
921.0
922.0
923.0
921.0
921.0
919.0
921.0
920.0
921.0
923.0
922.0
924.0
924.0
921.0
921.0
917.0
916.0
914.0
914.0
915.0
916.0
917.0
917.0
918.0
917.0
917.0
915.0
912.0
914.0
911.0
911.0
911.0
911.0
910.0
913.0
911.0
913.0
912.0
910.0
912.0
911.0
913.0
911.0
911.0
911.0
913.0
914.0
914.0
915.0
915.0
912.0
912.0
913.0
910.0
911.0
913.0
915.0
921.0
924.0
925.0
927.0
926.0
927.0
926.0
924.0
922.0
923.0
925.0
928.0
933.0
938.0
940.0
943.0
942.0
939.0
937.0
932.0
927.0
924.0
926.0
923.0
923.0
925.0
923.0
918.0
916.0
914.0
911.0
908.0
907.0
905.0
903.0
899.0
902.0
901.0
901.0
900.0
898.0
899.0
894.0
893.0
894.0
897.0
899.0
897.0
900.0
903.0
904.0
904.0
905.0
902.0
901.0
901.0
901.0
906.0
914.0
927.0
946.0
967.0
998.0
1025.0
1053.0
1076.0
1087.0
1082.0
1060.0
1031.0
1000.0
968.0
934.0
897.0
867.0
851.0
848.0
852.0
857.0
861.0
870.0
875.0
878.0
878.0
878.0
877.0
875.0
875.0
876.0
875.0
875.0
874.0
873.0
871.0
872.0
873.0
873.0
875.0
874.0
874.0
874.0
871.0
870.0
868.0
869.0
868.0
869.0
867.0
869.0
868.0
871.0
868.0
868.0
867.0
866.0
864.0
861.0
860.0
859.0
859.0
860.0
861.0
862.0
860.0
858.0
853.0
852.0
850.0
850.0
846.0
847.0
849.0
847.0
849.0
848.0
849.0
847.0
847.0
843.0
841.0
838.0
838.0
836.0
837.0
836.0
839.0
839.0
838.0
838.0
837.0
836.0
835.0
834.0
834.0
836.0
835.0
835.0
838.0
841.0
843.0
844.0
845.0
847.0
850.0
852.0
856.0
859.0
864.0
869.0
875.0
879.0
883.0
887.0
893.0
896.0
897.0
901.0
903.0
906.0
910.0
913.0
916.0
917.0
917.0
918.0
918.0
916.0
915.0
911.0
911.0
909.0
911.0
910.0
909.0
913.0
912.0
911.0
910.0
906.0
905.0
906.0
903.0
905.0
903.0
906.0
905.0
908.0
905.0
903.0
905.0
902.0
899.0
902.0
899.0
899.0
900.0
900.0
901.0
900.0
902.0
900.0
899.0
897.0
896.0
897.0
895.0
894.0
898.0
899.0
897.0
901.0
899.0
901.0
899.0
898.0
897.0
899.0
898.0
896.0
898.0
899.0
905.0
906.0
910.0
910.0
911.0
913.0
912.0
910.0
909.0
908.0
911.0
913.0
915.0
919.0
918.0
918.0
922.0
919.0
918.0
916.0
915.0
913.0
912.0
910.0
909.0
907.0
906.0
903.0
900.0
892.0
889.0
887.0
885.0
882.0
886.0
883.0
883.0
883.0
882.0
882.0
881.0
878.0
876.0
875.0
876.0
877.0
877.0
880.0
880.0
880.0
884.0
884.0
883.0
883.0
883.0
880.0
881.0
882.0
884.0
891.0
903.0
918.0
937.0
960.0
988.0
1014.0
1038.0
1056.0
1061.0
1050.0
1028.0
1003.0
979.0
952.0
923.0
891.0
858.0
839.0
829.0
827.0
834.0
842.0
849.0
857.0
862.0
866.0
868.0
863.0
856.0
852.0
848.0
848.0
848.0
852.0
852.0
856.0
855.0
855.0
854.0
852.0
851.0
850.0
849.0
845.0
846.0
847.0
847.0
848.0
846.0
848.0
848.0
846.0
844.0
843.0
842.0
842.0
840.0
840.0
840.0
842.0
841.0
840.0
841.0
841.0
837.0
835.0
832.0
831.0
833.0
829.0
829.0
831.0
831.0
829.0
830.0
832.0
830.0
828.0
828.0
825.0
823.0
821.0
822.0
821.0
820.0
821.0
821.0
819.0
820.0
819.0
818.0
816.0
814.0
814.0
814.0
816.0
817.0
818.0
820.0
820.0
819.0
819.0
817.0
818.0
816.0
819.0
821.0
822.0
824.0
828.0
830.0
833.0
835.0
835.0
837.0
841.0
845.0
849.0
854.0
862.0
868.0
874.0
880.0
883.0
886.0
888.0
889.0
890.0
890.0
892.0
895.0
895.0
896.0
897.0
894.0
895.0
895.0
894.0
889.0
889.0
886.0
884.0
888.0
888.0
888.0
889.0
889.0
888.0
884.0
881.0
879.0
880.0
878.0
877.0
877.0
880.0
882.0
881.0
883.0
879.0
880.0
878.0
878.0
875.0
875.0
875.0
874.0
877.0
876.0
876.0
877.0
876.0
876.0
874.0
873.0
870.0
871.0
870.0
868.0
869.0
871.0
873.0
874.0
873.0
872.0
869.0
869.0
870.0
872.0
872.0
875.0
878.0
880.0
884.0
886.0
888.0
887.0
886.0
887.0
886.0
885.0
886.0
889.0
891.0
892.0
897.0
901.0
900.0
895.0
894.0
892.0
888.0
885.0
883.0
882.0
883.0
877.0
881.0
879.0
877.0
875.0
870.0
868.0
867.0
864.0
860.0
860.0
860.0
857.0
857.0
861.0
858.0
857.0
856.0
855.0
855.0
853.0
854.0
856.0
855.0
857.0
858.0
857.0
857.0
859.0
856.0
856.0
854.0
852.0
856.0
863.0
871.0
887.0
904.0
924.0
951.0
978.0
1003.0
1023.0
1031.0
1027.0
1006.0
978.0
948.0
916.0
878.0
840.0
808.0
792.0
786.0
796.0
808.0
823.0
830.0
837.0
833.0
830.0
826.0
824.0
822.0
826.0
825.0
827.0
827.0
824.0
823.0
823.0
825.0
827.0
827.0
827.0
827.0
825.0
823.0
823.0
821.0
820.0
823.0
822.0
820.0
822.0
822.0
823.0
820.0
817.0
815.0
814.0
814.0
813.0
814.0
813.0
816.0
816.0
817.0
816.0
814.0
813.0
812.0
810.0
808.0
807.0
806.0
807.0
807.0
807.0
807.0
806.0
803.0
804.0
804.0
801.0
798.0
795.0
796.0
795.0
794.0
796.0
796.0
794.0
794.0
792.0
791.0
790.0
790.0
787.0
789.0
791.0
793.0
794.0
798.0
799.0
801.0
801.0
800.0
800.0
804.0
806.0
810.0
812.0
819.0
824.0
829.0
835.0
840.0
841.0
843.0
847.0
851.0
855.0
857.0
862.0
863.0
869.0
871.0
871.0
872.0
872.0
868.0
868.0
868.0
864.0
864.0
865.0
868.0
869.0
870.0
871.0
870.0
869.0
867.0
860.0
858.0
859.0
859.0
859.0
860.0
862.0
864.0
864.0
864.0
860.0
859.0
855.0
854.0
849.0
849.0
847.0
849.0
851.0
853.0
855.0
854.0
853.0
850.0
849.0
847.0
845.0
847.0
847.0
850.0
852.0
853.0
854.0
853.0
853.0
850.0
849.0
847.0
846.0
847.0
846.0
849.0
849.0
850.0
852.0
852.0
854.0
855.0
854.0
856.0
854.0
857.0
859.0
864.0
865.0
868.0
869.0
872.0
869.0
869.0
870.0
870.0
869.0
867.0
869.0
869.0
869.0
869.0
868.0
866.0
864.0
862.0
857.0
854.0
852.0
849.0
846.0
845.0
839.0
841.0
843.0
842.0
837.0
837.0
834.0
835.0
835.0
833.0
834.0
834.0
834.0
837.0
837.0
837.0
835.0
834.0
834.0
833.0
832.0
834.0
833.0
834.0
837.0
841.0
852.0
862.0
878.0
895.0
919.0
947.0
973.0
994.0
1009.0
1007.0
993.0
968.0
939.0
910.0
880.0
845.0
809.0
778.0
763.0
763.0
769.0
780.0
791.0
803.0
812.0
813.0
812.0
809.0
805.0
802.0
802.0
804.0
806.0
808.0
810.0
809.0
811.0
810.0
807.0
806.0
804.0
803.0
804.0
802.0
803.0
803.0
804.0
805.0
804.0
804.0
802.0
801.0
801.0
799.0
799.0
797.0
799.0
799.0
799.0
798.0
800.0
798.0
798.0
793.0
794.0
789.0
789.0
789.0
789.0
788.0
789.0
789.0
791.0
790.0
788.0
785.0
783.0
784.0
781.0
779.0
779.0
779.0
778.0
778.0
778.0
777.0
774.0
774.0
774.0
770.0
771.0
770.0
769.0
772.0
772.0
773.0
775.0
777.0
778.0
777.0
777.0
775.0
774.0
777.0
779.0
784.0
786.0
790.0
790.0
795.0
797.0
800.0
803.0
804.0
808.0
813.0
819.0
826.0
829.0
833.0
840.0
842.0
844.0
844.0
846.0
851.0
851.0
849.0
849.0
850.0
852.0
852.0
857.0
853.0
851.0
852.0
850.0
849.0
846.0
845.0
845.0
847.0
847.0
849.0
850.0
849.0
847.0
845.0
843.0
842.0
839.0
837.0
838.0
837.0
837.0
838.0
840.0
837.0
837.0
838.0
835.0
832.0
833.0
833.0
835.0
835.0
837.0
839.0
843.0
840.0
841.0
838.0
836.0
835.0
834.0
834.0
834.0
835.0
836.0
834.0
835.0
835.0
838.0
836.0
837.0
836.0
835.0
837.0
839.0
842.0
844.0
847.0
849.0
850.0
848.0
850.0
849.0
847.0
847.0
847.0
847.0
850.0
853.0
856.0
858.0
856.0
855.0
852.0
848.0
846.0
843.0
840.0
839.0
838.0
836.0
835.0
835.0
831.0
826.0
821.0
818.0
813.0
814.0
814.0
815.0
816.0
816.0
817.0
818.0
817.0
816.0
816.0
814.0
813.0
812.0
812.0
816.0
817.0
817.0
820.0
822.0
821.0
824.0
828.0
838.0
852.0
871.0
899.0
925.0
954.0
976.0
986.0
981.0
959.0
928.0
896.0
861.0
825.0
787.0
759.0
741.0
742.0
750.0
762.0
774.0
784.0
789.0
791.0
790.0
788.0
784.0
786.0
789.0
793.0
794.0
796.0
798.0
794.0
792.0
789.0
787.0
787.0
787.0
781.0
783.0
785.0
787.0
787.0
790.0
791.0
788.0
787.0
783.0
782.0
785.0
784.0
784.0
785.0
784.0
783.0
787.0
785.0
782.0
781.0
778.0
780.0
778.0
776.0
774.0
774.0
777.0
775.0
776.0
774.0
771.0
772.0
769.0
768.0
767.0
765.0
767.0
766.0
766.0
770.0
769.0
767.0
766.0
764.0
762.0
762.0
765.0
764.0
767.0
768.0
767.0
768.0
770.0
771.0
770.0
768.0
768.0
769.0
771.0
772.0
772.0
776.0
782.0
786.0
792.0
795.0
800.0
804.0
804.0
810.0
815.0
818.0
823.0
828.0
832.0
835.0
840.0
841.0
841.0
840.0
838.0
837.0
838.0
837.0
837.0
841.0
839.0
839.0
837.0
835.0
833.0
830.0
830.0
830.0
828.0
827.0
826.0
830.0
830.0
831.0
831.0
830.0
828.0
828.0
824.0
824.0
822.0
819.0
823.0
823.0
824.0
824.0
826.0
826.0
824.0
822.0
821.0
820.0
820.0
817.0
818.0
818.0
818.0
820.0
823.0
822.0
819.0
818.0
817.0
818.0
819.0
817.0
819.0
822.0
823.0
823.0
824.0
824.0
825.0
825.0
824.0
824.0
827.0
829.0
828.0
832.0
832.0
837.0
840.0
840.0
839.0
837.0
838.0
837.0
835.0
836.0
838.0
841.0
845.0
845.0
847.0
845.0
841.0
838.0
835.0
831.0
829.0
827.0
826.0
826.0
824.0
821.0
821.0
814.0
815.0
815.0
812.0
808.0
809.0
807.0
807.0
809.0
809.0
809.0
811.0
811.0
809.0
808.0
806.0
806.0
806.0
806.0
807.0
808.0
808.0
810.0
812.0
814.0
813.0
815.0
814.0
815.0
819.0
830.0
840.0
857.0
884.0
913.0
942.0
967.0
981.0
982.0
963.0
934.0
900.0
865.0
831.0
793.0
759.0
737.0
731.0
735.0
743.0
756.0
767.0
775.0
779.0
781.0
781.0
781.0
784.0
787.0
790.0
789.0
790.0
788.0
790.0
788.0
786.0
785.0
786.0
785.0
787.0
786.0
791.0
790.0
787.0
786.0
784.0
781.0
785.0
784.0
781.0
783.0
782.0
780.0
785.0
784.0
784.0
783.0
781.0
783.0
781.0
778.0
779.0
779.0
778.0
781.0
784.0
782.0
779.0
777.0
774.0
773.0
771.0
767.0
769.0
771.0
771.0
771.0
773.0
772.0
772.0
767.0
767.0
763.0
763.0
764.0
764.0
762.0
766.0
767.0
768.0
765.0
767.0
766.0
764.0
764.0
763.0
765.0
768.0
766.0
770.0
770.0
777.0
777.0
781.0
781.0
784.0
787.0
787.0
791.0
791.0
800.0
805.0
808.0
815.0
818.0
825.0
824.0
827.0
829.0
835.0
838.0
839.0
841.0
844.0
847.0
849.0
849.0
848.0
845.0
845.0
842.0
843.0
838.0
838.0
837.0
839.0
838.0
839.0
839.0
835.0
836.0
832.0
832.0
829.0
828.0
827.0
830.0
830.0
828.0
833.0
830.0
831.0
830.0
827.0
826.0
827.0
826.0
824.0
824.0
824.0
824.0
825.0
826.0
822.0
821.0
821.0
819.0
818.0
820.0
818.0
817.0
820.0
820.0
821.0
821.0
819.0
818.0
820.0
819.0
819.0
818.0
819.0
819.0
821.0
824.0
829.0
828.0
828.0
828.0
829.0
829.0
830.0
830.0
834.0
837.0
838.0
840.0
840.0
840.0
840.0
840.0
840.0
842.0
840.0
839.0
839.0
839.0
835.0
835.0
834.0
832.0
831.0
830.0
826.0
822.0
821.0
817.0
816.0
814.0
813.0
814.0
812.0
812.0
810.0
808.0
807.0
806.0
805.0
806.0
806.0
807.0
806.0
807.0
810.0
810.0
808.0
807.0
810.0
807.0
809.0
811.0
815.0
821.0
833.0
846.0
865.0
889.0
914.0
941.0
964.0
978.0
977.0
961.0
934.0
900.0
872.0
839.0
801.0
764.0
738.0
722.0
721.0
726.0
737.0
747.0
760.0
770.0
776.0
780.0
779.0
785.0
781.0
785.0
786.0
785.0
785.0
784.0
783.0
786.0
785.0
787.0
787.0
788.0
786.0
786.0
783.0
784.0
781.0
784.0
784.0
783.0
785.0
785.0
785.0
781.0
782.0
778.0
779.0
778.0
776.0
775.0
776.0
777.0
775.0
776.0
778.0
780.0
781.0
776.0
775.0
773.0
768.0
769.0
769.0
770.0
772.0
770.0
770.0
770.0
770.0
766.0
763.0
765.0
766.0
765.0
764.0
762.0
764.0
763.0
763.0
764.0
764.0
763.0
761.0
761.0
762.0
760.0
762.0
766.0
768.0
766.0
769.0
771.0
770.0
771.0
771.0
771.0
773.0
777.0
781.0
783.0
790.0
795.0
799.0
802.0
807.0
809.0
812.0
816.0
817.0
820.0
823.0
827.0
831.0
833.0
837.0
842.0
844.0
844.0
843.0
844.0
842.0
841.0
837.0
839.0
838.0
837.0
837.0
839.0
836.0
835.0
833.0
832.0
831.0
829.0
828.0
828.0
828.0
826.0
827.0
827.0
827.0
827.0
821.0
821.0
820.0
820.0
820.0
823.0
824.0
824.0
826.0
826.0
825.0
822.0
821.0
820.0
819.0
818.0
819.0
821.0
821.0
823.0
823.0
824.0
823.0
823.0
820.0
820.0
819.0
817.0
818.0
818.0
820.0
822.0
823.0
826.0
826.0
826.0
826.0
828.0
829.0
828.0
828.0
832.0
834.0
837.0
839.0
841.0
841.0
839.0
838.0
837.0
838.0
838.0
844.0
844.0
845.0
844.0
846.0
844.0
839.0
839.0
835.0
831.0
828.0
825.0
824.0
818.0
817.0
817.0
