# Simple Text Format
# Sampling Rate (Hz):= 360.00
# Resolution:= 12
# Labels:= ECG
817.0
818.0
815.0
820.0
820.0
823.0
829.0
831.0
836.0
836.0
841.0
843.0
845.0
848.0
851.0
854.0
860.0
865.0
869.0
877.0
884.0
886.0
887.0
888.0
888.0
887.0
885.0
885.0
885.0
883.0
884.0
888.0
887.0
887.0
885.0
882.0
880.0
877.0
878.0
878.0
878.0
879.0
878.0
879.0
880.0
877.0
874.0
873.0
873.0
874.0
873.0
872.0
871.0
872.0
873.0
874.0
877.0
875.0
874.0
871.0
869.0
865.0
865.0
866.0
865.0
867.0
869.0
868.0
870.0
872.0
868.0
870.0
868.0
865.0
864.0
864.0
866.0
865.0
866.0
869.0
868.0
869.0
870.0
866.0
866.0
867.0
865.0
864.0
866.0
868.0
871.0
871.0
873.0
873.0
874.0
874.0
877.0
880.0
881.0
882.0
883.0
881.0
885.0
887.0
887.0
888.0
887.0
891.0
892.0
891.0
889.0
883.0
882.0
879.0
876.0
875.0
876.0
876.0
876.0
875.0
870.0
866.0
862.0
859.0
855.0
856.0
856.0
855.0
856.0
858.0
854.0
855.0
853.0
850.0
848.0
847.0
848.0
847.0
851.0
852.0
852.0
852.0
852.0
853.0
851.0
851.0
849.0
849.0
850.0
851.0
853.0
855.0
856.0
860.0
865.0
872.0
884.0
900.0
920.0
947.0
972.0
996.0
1014.0
1017.0
1003.0
976.0
943.0
904.0
864.0
826.0
798.0
788.0
787.0
792.0
797.0
801.0
808.0
809.0
815.0
818.0
822.0
824.0
825.0
826.0
826.0
830.0
831.0
832.0
830.0
832.0
828.0
828.0
826.0
823.0
823.0
823.0
824.0
824.0
825.0
824.0
827.0
828.0
826.0
823.0
824.0
822.0
820.0
820.0
823.0
823.0
821.0
824.0
824.0
823.0
820.0
820.0
816.0
815.0
816.0
815.0
815.0
813.0
815.0
814.0
815.0
815.0
816.0
813.0
813.0
812.0
810.0
812.0
811.0
812.0
812.0
812.0
811.0
811.0
808.0
807.0
806.0
804.0
801.0
804.0
803.0
803.0
806.0
806.0
807.0
807.0
804.0
807.0
808.0
808.0
808.0
809.0
811.0
812.0
817.0
819.0
824.0
825.0
828.0
831.0
833.0
835.0
839.0
843.0
846.0
848.0
854.0
861.0
865.0
867.0
868.0
872.0
871.0
871.0
872.0
875.0
875.0
876.0
879.0
879.0
876.0
878.0
878.0
875.0
874.0
870.0
871.0
869.0
869.0
868.0
869.0
869.0
870.0
868.0
868.0
866.0
862.0
861.0
860.0
861.0
862.0
863.0
861.0
860.0
864.0
865.0
861.0
860.0
857.0
857.0
857.0
858.0
859.0
859.0
861.0
862.0
863.0
860.0
859.0
860.0
859.0
857.0
856.0
853.0
853.0
853.0
855.0
858.0
860.0
858.0
860.0
861.0
858.0
858.0
858.0
856.0
856.0
858.0
856.0
858.0
860.0
861.0
863.0
862.0
862.0
860.0
859.0
861.0
865.0
867.0
870.0
873.0
875.0
876.0
874.0
873.0
871.0
869.0
868.0
870.0
874.0
878.0
881.0
883.0
882.0
880.0
877.0
873.0
869.0
864.0
861.0
861.0
865.0
865.0
866.0
864.0
862.0
860.0
853.0
850.0
842.0
842.0
840.0
839.0
840.0
842.0
843.0
841.0
845.0
847.0
846.0
846.0
843.0
847.0
843.0
844.0
845.0
844.0
844.0
847.0
847.0
850.0
849.0
850.0
849.0
848.0
850.0
854.0
864.0
875.0
894.0
916.0
942.0
971.0
994.0
1006.0
1007.0
995.0
971.0
944.0
919.0
895.0
865.0
832.0
806.0
794.0
792.0
798.0
801.0
799.0
799.0
798.0
798.0
805.0
811.0
816.0
823.0
826.0
826.0
826.0
823.0
821.0
819.0
818.0
818.0
819.0
822.0
823.0
825.0
825.0
825.0
825.0
825.0
822.0
822.0
819.0
820.0
819.0
817.0
819.0
819.0
819.0
817.0
812.0
815.0
812.0
812.0
812.0
812.0
812.0
816.0
817.0
818.0
816.0
815.0
815.0
810.0
811.0
807.0
806.0
807.0
809.0
809.0
810.0
810.0
810.0
809.0
807.0
803.0
803.0
801.0
801.0
799.0
803.0
805.0
806.0
806.0
806.0
806.0
806.0
800.0
800.0
798.0
796.0
798.0
797.0
800.0
806.0
808.0
811.0
812.0
814.0
814.0
816.0
819.0
820.0
825.0
828.0
834.0
839.0
842.0
844.0
849.0
852.0
853.0
855.0
856.0
858.0
862.0
863.0
866.0
869.0
871.0
871.0
869.0
869.0
866.0
865.0
866.0
863.0
865.0
865.0
864.0
864.0
863.0
865.0
861.0
859.0
858.0
859.0
856.0
856.0
855.0
853.0
856.0
854.0
857.0
860.0
861.0
861.0
860.0
855.0
853.0
851.0
852.0
850.0
850.0
853.0
856.0
857.0
856.0
854.0
854.0
852.0
852.0
850.0
851.0
851.0
853.0
853.0
854.0
850.0
851.0
853.0
854.0
852.0
851.0
853.0
852.0
855.0
856.0
860.0
858.0
861.0
858.0
862.0
863.0
864.0
864.0
863.0
864.0
867.0
866.0
868.0
871.0
871.0
872.0
873.0
877.0
875.0
873.0
871.0
869.0
866.0
865.0
864.0
866.0
866.0
866.0
862.0
861.0
859.0
855.0
853.0
851.0
850.0
848.0
848.0
847.0
844.0
847.0
845.0
841.0
841.0
841.0
841.0
840.0
841.0
845.0
846.0
844.0
845.0
844.0
845.0
844.0
845.0
843.0
844.0
844.0
848.0
851.0
852.0
856.0
862.0
872.0
883.0
901.0
925.0
949.0
976.0
998.0
1005.0
1001.0
982.0
955.0
921.0
887.0
851.0
816.0
792.0
784.0
789.0
797.0
803.0
805.0
804.0
806.0
809.0
813.0
818.0
821.0
825.0
828.0
826.0
828.0
831.0
827.0
832.0
831.0
831.0
831.0
830.0
829.0
830.0
828.0
826.0
827.0
827.0
829.0
828.0
826.0
827.0
829.0
828.0
826.0
824.0
824.0
827.0
825.0
824.0
824.0
826.0
827.0
828.0
826.0
827.0
825.0
822.0
822.0
820.0
819.0
821.0
821.0
821.0
825.0
826.0
824.0
823.0
820.0
819.0
816.0
816.0
816.0
817.0
818.0
819.0
820.0
818.0
818.0
815.0
814.0
813.0
813.0
812.0
813.0
813.0
812.0
813.0
813.0
817.0
816.0
816.0
816.0
817.0
815.0
812.0
812.0
814.0
816.0
818.0
823.0
824.0
829.0
830.0
832.0
835.0
837.0
838.0
840.0
844.0
852.0
854.0
860.0
867.0
870.0
872.0
874.0
877.0
877.0
878.0
878.0
881.0
886.0
886.0
887.0
888.0
889.0
889.0
889.0
887.0
887.0
885.0
886.0
886.0
885.0
887.0
887.0
889.0
887.0
885.0
884.0
882.0
880.0
879.0
879.0
880.0
880.0
880.0
880.0
880.0
881.0
881.0
880.0
879.0
878.0
877.0
875.0
877.0
877.0
879.0
877.0
878.0
878.0
877.0
878.0
877.0
878.0
876.0
876.0
876.0
878.0
880.0
882.0
883.0
882.0
881.0
880.0
879.0
876.0
873.0
875.0
876.0
879.0
880.0
883.0
883.0
883.0
884.0
880.0
880.0
879.0
880.0
877.0
878.0
883.0
885.0
888.0
892.0
892.0
890.0
888.0
892.0
892.0
894.0
895.0
896.0
895.0
898.0
899.0
898.0
899.0
900.0
901.0
902.0
902.0
902.0
898.0
897.0
896.0
892.0
892.0
890.0
890.0
891.0
888.0
888.0
885.0
880.0
878.0
875.0
874.0
876.0
872.0
872.0
874.0
872.0
872.0
871.0
872.0
871.0
869.0
870.0
872.0
873.0
873.0
872.0
872.0
873.0
874.0
873.0
871.0
870.0
870.0
872.0
872.0
875.0
878.0
881.0
885.0
890.0
898.0
911.0
928.0
946.0
970.0
994.0
1015.0
1031.0
1038.0
1030.0
1011.0
983.0
956.0
929.0
901.0
869.0
846.0
827.0
823.0
827.0
831.0
834.0
834.0
836.0
839.0
840.0
842.0
843.0
844.0
848.0
853.0
855.0
856.0
858.0
856.0
857.0
856.0
856.0
852.0
853.0
852.0
854.0
855.0
855.0
856.0
858.0
857.0
851.0
851.0
851.0
847.0
848.0
846.0
848.0
848.0
850.0
851.0
851.0
851.0
849.0
847.0
847.0
846.0
843.0
845.0
843.0
844.0
845.0
846.0
847.0
845.0
843.0
842.0
840.0
838.0
837.0
837.0
836.0
837.0
836.0
839.0
840.0
840.0
838.0
837.0
835.0
833.0
832.0
831.0
828.0
830.0
832.0
831.0
836.0
834.0
833.0
834.0
832.0
831.0
831.0
831.0
834.0
835.0
838.0
840.0
845.0
848.0
849.0
852.0
854.0
856.0
859.0
864.0
869.0
875.0
877.0
887.0
891.0
894.0
895.0
899.0
899.0
899.0
901.0
900.0
900.0
903.0
907.0
905.0
908.0
907.0
906.0
905.0
904.0
901.0
901.0
900.0
902.0
901.0
901.0
901.0
904.0
902.0
901.0
899.0
899.0
898.0
896.0
898.0
897.0
897.0
899.0
899.0
899.0
900.0
899.0
899.0
897.0
896.0
895.0
894.0
896.0
895.0
897.0
897.0
900.0
898.0
896.0
896.0
893.0
892.0
891.0
890.0
891.0
890.0
892.0
894.0
896.0
895.0
895.0
895.0
895.0
896.0
896.0
895.0
894.0
895.0
898.0
903.0
908.0
908.0
909.0
908.0
906.0
905.0
904.0
903.0
909.0
915.0
915.0
918.0
917.0
915.0
912.0
908.0
906.0
902.0
901.0
898.0
898.0
897.0
898.0
897.0
894.0
892.0
890.0
887.0
884.0
883.0
880.0
877.0
876.0
879.0
879.0
880.0
880.0
881.0
879.0
881.0
876.0
874.0
875.0
875.0
877.0
878.0
882.0
882.0
884.0
883.0
884.0
884.0
882.0
882.0
884.0
883.0
889.0
896.0
912.0
930.0
952.0
977.0
1002.0
1026.0
1040.0
1042.0
1029.0
1002.0
974.0
947.0
917.0
888.0
860.0
844.0
835.0
839.0
843.0
853.0
857.0
861.0
863.0
864.0
863.0
863.0
862.0
858.0
858.0
856.0
858.0
858.0
857.0
856.0
855.0
855.0
857.0
859.0
857.0
859.0
857.0
857.0
855.0
854.0
854.0
854.0
855.0
855.0
855.0
855.0
857.0
856.0
851.0
853.0
853.0
850.0
849.0
849.0
846.0
851.0
851.0
850.0
850.0
848.0
848.0
847.0
845.0
842.0
841.0
839.0
838.0
839.0
840.0
840.0
840.0
842.0
838.0
838.0
835.0
833.0
832.0
830.0
830.0
831.0
831.0
830.0
832.0
830.0
829.0
829.0
825.0
822.0
822.0
821.0
821.0
825.0
827.0
832.0
832.0
831.0
834.0
834.0
831.0
834.0
836.0
839.0
839.0
847.0
851.0
855.0
860.0
862.0
866.0
869.0
872.0
876.0
881.0
883.0
887.0
891.0
895.0
898.0
902.0
904.0
905.0
905.0
903.0
902.0
903.0
902.0
901.0
904.0
906.0
907.0
908.0
907.0
907.0
903.0
902.0
901.0
901.0
899.0
900.0
900.0
900.0
903.0
903.0
900.0
900.0
899.0
896.0
895.0
892.0
892.0
890.0
894.0
895.0
894.0
895.0
894.0
894.0
893.0
893.0
890.0
889.0
890.0
889.0
892.0
891.0
893.0
897.0
897.0
895.0
894.0
892.0
890.0
888.0
887.0
890.0
891.0
892.0
892.0
893.0
893.0
895.0
894.0
894.0
891.0
893.0
891.0
893.0
896.0
897.0
901.0
904.0
905.0
905.0
906.0
908.0
909.0
908.0
907.0
908.0
908.0
907.0
911.0
911.0
914.0
916.0
916.0
913.0
914.0
913.0
907.0
904.0
901.0
901.0
898.0
897.0
898.0
897.0
896.0
892.0
888.0
885.0
883.0
880.0
880.0
881.0
879.0
880.0
883.0
880.0
880.0
878.0
878.0
875.0
878.0
877.0
879.0
882.0
881.0
881.0
882.0
882.0
882.0
879.0
879.0
878.0
879.0
880.0
883.0
886.0
895.0
906.0
920.0
936.0
957.0
982.0
1004.0
1024.0
1036.0
1036.0
1023.0
1003.0
979.0
953.0
925.0
894.0
866.0
847.0
838.0
838.0
842.0
847.0
854.0
859.0
862.0
864.0
863.0
860.0
856.0
853.0
853.0
855.0
855.0
855.0
858.0
858.0
857.0
859.0
858.0
858.0
856.0
854.0
853.0
848.0
847.0
848.0
849.0
849.0
851.0
850.0
853.0
850.0
850.0
850.0
848.0
847.0
843.0
845.0
848.0
845.0
846.0
848.0
846.0
844.0
845.0
842.0
840.0
839.0
840.0
839.0
838.0
839.0
840.0
838.0
839.0
838.0
837.0
835.0
835.0
834.0
833.0
832.0
832.0
834.0
835.0
835.0
832.0
831.0
828.0
829.0
826.0
826.0
826.0
825.0
826.0
827.0
829.0
831.0
830.0
833.0
830.0
830.0
830.0
832.0
830.0
832.0
834.0
837.0
840.0
845.0
846.0
848.0
848.0
853.0
855.0
857.0
861.0
867.0
871.0
878.0
884.0
889.0
893.0
896.0
898.0
899.0
899.0
894.0
895.0
900.0
903.0
903.0
905.0
906.0
903.0
901.0
902.0
901.0
898.0
898.0
897.0
896.0
895.0
894.0
897.0
897.0
895.0
893.0
893.0
893.0
892.0
890.0
885.0
887.0
887.0
888.0
890.0
889.0
890.0
888.0
886.0
886.0
887.0
884.0
885.0
883.0
883.0
885.0
886.0
887.0
887.0
887.0
886.0
883.0
883.0
882.0
883.0
882.0
884.0
883.0
886.0
889.0
888.0
885.0
886.0
882.0
882.0
882.0
882.0
883.0
885.0
888.0
889.0
890.0
891.0
892.0
895.0
897.0
899.0
899.0
901.0
900.0
901.0
902.0
900.0
904.0
903.0
901.0
903.0
902.0
906.0
904.0
904.0
902.0
900.0
896.0
895.0
893.0
893.0
891.0
890.0
888.0
886.0
887.0
883.0
880.0
877.0
877.0
875.0
874.0
870.0
872.0
869.0
866.0
865.0
866.0
865.0
865.0
864.0
866.0
866.0
866.0
868.0
867.0
867.0
869.0
868.0
864.0
866.0
866.0
866.0
871.0
871.0
875.0
877.0
874.0
874.0
875.0
879.0
886.0
898.0
913.0
935.0
962.0
987.0
1014.0
1030.0
1030.0
1020.0
995.0
965.0
935.0
903.0
868.0
843.0
828.0
824.0
825.0
834.0
840.0
846.0
848.0
846.0
841.0
839.0
840.0
843.0
847.0
845.0
848.0
850.0
844.0
844.0
845.0
840.0
839.0
838.0
838.0
841.0
842.0
842.0
843.0
846.0
845.0
843.0
842.0
840.0
839.0
839.0
837.0
840.0
840.0
841.0
841.0
843.0
842.0
838.0
835.0
835.0
830.0
831.0
834.0
832.0
835.0
833.0
834.0
834.0
832.0
831.0
828.0
826.0
824.0
823.0
824.0
825.0
826.0
826.0
825.0
826.0
826.0
824.0
822.0
821.0
818.0
818.0
815.0
816.0
819.0
818.0
817.0
817.0
817.0
817.0
817.0
814.0
814.0
813.0
814.0
814.0
819.0
819.0
822.0
824.0
824.0
822.0
825.0
826.0
825.0
826.0
829.0
834.0
839.0
842.0
847.0
848.0
851.0
855.0
857.0
863.0
865.0
868.0
872.0
877.0
882.0
884.0
887.0
889.0
889.0
891.0
890.0
890.0
889.0
888.0
888.0
889.0
888.0
889.0
889.0
891.0
887.0
888.0
886.0
883.0
882.0
880.0
880.0
881.0
884.0
882.0
883.0
884.0
883.0
880.0
877.0
874.0
871.0
871.0
873.0
874.0
874.0
874.0
875.0
874.0
874.0
873.0
872.0
870.0
868.0
867.0
868.0
869.0
870.0
872.0
873.0
871.0
871.0
868.0
867.0
866.0
864.0
867.0
865.0
866.0
868.0
871.0
871.0
872.0
873.0
871.0
869.0
869.0
868.0
867.0
871.0
875.0
878.0
882.0
885.0
888.0
890.0
889.0
889.0
887.0
885.0
884.0
885.0
886.0
887.0
890.0
894.0
899.0
897.0
897.0
892.0
885.0
879.0
878.0
874.0
876.0
877.0
878.0
879.0
879.0
877.0
872.0
867.0
861.0
857.0
857.0
855.0
856.0
856.0
857.0
857.0
853.0
856.0
854.0
855.0
853.0
851.0
851.0
853.0
852.0
854.0
856.0
857.0
859.0
857.0
856.0
857.0
856.0
856.0
860.0
865.0
875.0
889.0
909.0
931.0
959.0
984.0
1005.0
1018.0
1017.0
1003.0
977.0
951.0
923.0
896.0
866.0
835.0
816.0
805.0
806.0
808.0
812.0
815.0
819.0
820.0
823.0
826.0
828.0
830.0
834.0
834.0
834.0
835.0
832.0
829.0
829.0
831.0
832.0
828.0
832.0
832.0
831.0
832.0
833.0
830.0
830.0
826.0
826.0
826.0
827.0
829.0
830.0
830.0
827.0
828.0
827.0
826.0
826.0
822.0
820.0
821.0
822.0
822.0
822.0
823.0
823.0
822.0
820.0
817.0
817.0
815.0
814.0
813.0
816.0
814.0
816.0
816.0
816.0
815.0
813.0
811.0
808.0
806.0
805.0
805.0
805.0
808.0
809.0
810.0
811.0
811.0
810.0
807.0
808.0
806.0
806.0
808.0
809.0
813.0
813.0
815.0
815.0
818.0
818.0
820.0
825.0
822.0
822.0
825.0
831.0
833.0
837.0
841.0
848.0
849.0
853.0
854.0
856.0
859.0
861.0
865.0
871.0
876.0
878.0
881.0
884.0
885.0
884.0
883.0
882.0
880.0
880.0
877.0
878.0
877.0
879.0
879.0
879.0
877.0
877.0
874.0
873.0
871.0
871.0
872.0
871.0
872.0
871.0
872.0
873.0
867.0
869.0
867.0
866.0
865.0
865.0
863.0
864.0
865.0
865.0
865.0
866.0
866.0
866.0
867.0
865.0
863.0
862.0
862.0
863.0
861.0
862.0
863.0
865.0
862.0
861.0
860.0
861.0
860.0
860.0
859.0
860.0
863.0
864.0
864.0
865.0
865.0
863.0
863.0
862.0
861.0
862.0
866.0
871.0
875.0
878.0
882.0
885.0
880.0
880.0
883.0
882.0
881.0
880.0
883.0
883.0
885.0
888.0
891.0
890.0
887.0
879.0
876.0
873.0
872.0
871.0
871.0
873.0
873.0
870.0
870.0
867.0
865.0
859.0
855.0
853.0
851.0
849.0
848.0
848.0
849.0
849.0
849.0
851.0
850.0
852.0
851.0
849.0
849.0
849.0
849.0
851.0
853.0
855.0
854.0
854.0
857.0
856.0
854.0
855.0
852.0
851.0
855.0
862.0
874.0
887.0
906.0
927.0
953.0
972.0
996.0
1009.0
1012.0
998.0
976.0
951.0
921.0
893.0
856.0
826.0
804.0
795.0
795.0
796.0
801.0
804.0
810.0
817.0
824.0
829.0
833.0
835.0
836.0
836.0
834.0
832.0
832.0
831.0
831.0
832.0
834.0
835.0
835.0
834.0
831.0
830.0
834.0
833.0
831.0
830.0
830.0
831.0
831.0
833.0
834.0
834.0
834.0
832.0
830.0
829.0
826.0
825.0
824.0
826.0
827.0
829.0
830.0
830.0
829.0
827.0
826.0
824.0
820.0
818.0
818.0
819.0
822.0
823.0
822.0
822.0
822.0
820.0
820.0
818.0
816.0
813.0
815.0
812.0
813.0
813.0
816.0
815.0
815.0
815.0
814.0
813.0
811.0
811.0
814.0
814.0
816.0
819.0
821.0
824.0
825.0
827.0
826.0
828.0
829.0
831.0
835.0
839.0
842.0
846.0
853.0
854.0
858.0
863.0
864.0
870.0
872.0
875.0
877.0
880.0
883.0
886.0
889.0
891.0
893.0
892.0
888.0
888.0
885.0
883.0
882.0
883.0
884.0
883.0
886.0
884.0
883.0
882.0
879.0
878.0
876.0
875.0
877.0
875.0
876.0
872.0
875.0
875.0
874.0
874.0
874.0
872.0
869.0
867.0
866.0
865.0
866.0
866.0
868.0
867.0
868.0
868.0
866.0
866.0
864.0
863.0
862.0
861.0
861.0
865.0
865.0
865.0
869.0
868.0
865.0
864.0
863.0
862.0
863.0
866.0
866.0
865.0
868.0
869.0
868.0
868.0
868.0
867.0
867.0
867.0
873.0
875.0
879.0
882.0
884.0
886.0
886.0
885.0
884.0
883.0
882.0
881.0
880.0
886.0
887.0
890.0
894.0
895.0
894.0
891.0
887.0
877.0
873.0
873.0
872.0
875.0
876.0
873.0
874.0
872.0
871.0
867.0
859.0
857.0
856.0
854.0
852.0
852.0
854.0
858.0
856.0
858.0
858.0
856.0
856.0
853.0
854.0
852.0
852.0
853.0
855.0
857.0
857.0
859.0
859.0
859.0
856.0
856.0
858.0
862.0
869.0
881.0
900.0
918.0
939.0
965.0
987.0
1006.0
1016.0
1010.0
992.0
968.0
941.0
916.0
890.0
858.0
828.0
808.0
796.0
797.0
800.0
803.0
807.0
810.0
811.0
815.0
821.0
825.0
830.0
835.0
838.0
838.0
837.0
835.0
832.0
830.0
830.0
831.0
832.0
833.0
836.0
836.0
835.0
834.0
835.0
835.0
833.0
832.0
828.0
830.0
830.0
832.0
834.0
835.0
836.0
832.0
832.0
831.0
829.0
827.0
825.0
827.0
827.0
827.0
827.0
828.0
829.0
827.0
827.0
824.0
824.0
821.0
821.0
819.0
821.0
823.0
823.0
824.0
823.0
822.0
820.0
819.0
816.0
814.0
813.0
815.0
815.0
817.0
817.0
817.0
816.0
816.0
817.0
811.0
814.0
815.0
813.0
811.0
811.0
814.0
817.0
816.0
821.0
822.0
822.0
825.0
823.0
825.0
825.0
827.0
829.0
833.0
835.0
840.0
842.0
846.0
844.0
849.0
851.0
856.0
860.0
862.0
866.0
867.0
873.0
877.0
881.0
884.0
885.0
884.0
884.0
885.0
884.0
883.0
883.0
884.0
887.0
889.0
886.0
885.0
884.0
880.0
880.0
879.0
877.0
878.0
878.0
876.0
878.0
877.0
876.0
876.0
873.0
871.0
868.0
869.0
867.0
868.0
864.0
868.0
870.0
873.0
873.0
874.0
871.0
869.0
867.0
864.0
864.0
863.0
864.0
862.0
863.0
868.0
867.0
865.0
864.0
863.0
864.0
862.0
860.0
862.0
862.0
864.0
865.0
864.0
866.0
865.0
865.0
862.0
862.0
860.0
858.0
859.0
859.0
860.0
861.0
863.0
865.0
866.0
868.0
868.0
870.0
869.0
872.0
872.0
876.0
876.0
879.0
881.0
882.0
880.0
878.0
877.0
876.0
878.0
881.0
885.0
884.0
885.0
881.0
879.0
873.0
868.0
866.0
866.0
866.0
867.0
866.0
864.0
862.0
859.0
857.0
856.0
853.0
850.0
848.0
844.0
843.0
840.0
840.0
841.0
846.0
847.0
846.0
845.0
845.0
843.0
842.0
842.0
843.0
842.0
840.0
839.0
842.0
843.0
843.0
844.0
846.0
845.0
846.0
846.0
851.0
857.0
868.0
882.0
901.0
926.0
951.0
973.0
994.0
1004.0
996.0
983.0
959.0
932.0
906.0
882.0
855.0
824.0
798.0
782.0
778.0
780.0
785.0
791.0
794.0
799.0
802.0
810.0
815.0
820.0
822.0
825.0
826.0
820.0
820.0
817.0
816.0
812.0
814.0
817.0
816.0
818.0
820.0
821.0
822.0
819.0
819.0
817.0
815.0
815.0
812.0
815.0
814.0
814.0
813.0
814.0
814.0
813.0
814.0
813.0
810.0
811.0
809.0
814.0
812.0
813.0
810.0
810.0
808.0
806.0
804.0
801.0
798.0
803.0
799.0
799.0
796.0
801.0
801.0
802.0
799.0
799.0
797.0
795.0
795.0
794.0
792.0
789.0
790.0
790.0
791.0
795.0
794.0
795.0
793.0
793.0
790.0
790.0
793.0
794.0
795.0
798.0
802.0
805.0
806.0
806.0
807.0
808.0
809.0
813.0
816.0
819.0
824.0
830.0
833.0
836.0
838.0
840.0
846.0
846.0
846.0
852.0
852.0
854.0
856.0
859.0
861.0
863.0
863.0
864.0
861.0
860.0
857.0
858.0
857.0
854.0
853.0
855.0
852.0
854.0
853.0
851.0
849.0
847.0
847.0
844.0
842.0
842.0
842.0
843.0
846.0
852.0
850.0
850.0
847.0
845.0
840.0
838.0
839.0
837.0
838.0
840.0
842.0
844.0
841.0
837.0
838.0
835.0
836.0
835.0
835.0
835.0
837.0
838.0
838.0
838.0
838.0
835.0
836.0
835.0
834.0
834.0
834.0
835.0
833.0
837.0
838.0
841.0
841.0
842.0
845.0
847.0
849.0
852.0
854.0
856.0
854.0
852.0
857.0
856.0
858.0
856.0
855.0
855.0
854.0
859.0
859.0
859.0
858.0
858.0
855.0
852.0
849.0
845.0
843.0
846.0
842.0
844.0
842.0
836.0
837.0
835.0
833.0
832.0
830.0
830.0
828.0
824.0
821.0
820.0
819.0
819.0
820.0
820.0
822.0
825.0
826.0
825.0
824.0
826.0
823.0
821.0
821.0
822.0
822.0
823.0
826.0
829.0
831.0
830.0
836.0
841.0
851.0
861.0
878.0
899.0
924.0
949.0
970.0
981.0
982.0
968.0
943.0
916.0
893.0
868.0
838.0
811.0
782.0
764.0
760.0
765.0
772.0
774.0
780.0
785.0
789.0
789.0
793.0
798.0
798.0
801.0
806.0
810.0
810.0
807.0
802.0
803.0
801.0
802.0
802.0
801.0
802.0
804.0
807.0
804.0
805.0
806.0
804.0
803.0
802.0
797.0
796.0
800.0
802.0
802.0
804.0
803.0
804.0
803.0
801.0
799.0
798.0
797.0
797.0
795.0
795.0
796.0
797.0
797.0
798.0
797.0
794.0
791.0
790.0
788.0
787.0
787.0
787.0
787.0
787.0
790.0
791.0
787.0
786.0
785.0
783.0
783.0
778.0
779.0
782.0
785.0
786.0
789.0
793.0
791.0
792.0
787.0
789.0
789.0
789.0
791.0
795.0
796.0
799.0
802.0
804.0
804.0
806.0
809.0
808.0
812.0
814.0
818.0
822.0
827.0
834.0
837.0
843.0
843.0
845.0
847.0
848.0
851.0
850.0
853.0
854.0
855.0
855.0
856.0
856.0
856.0
857.0
856.0
852.0
850.0
852.0
852.0
850.0
849.0
847.0
850.0
849.0
848.0
845.0
845.0
844.0
843.0
842.0
841.0
842.0
843.0
842.0
843.0
844.0
843.0
840.0
839.0
836.0
836.0
834.0
833.0
834.0
838.0
842.0
841.0
838.0
840.0
839.0
838.0
833.0
834.0
833.0
834.0
836.0
836.0
837.0
838.0
841.0
839.0
838.0
837.0
838.0
835.0
836.0
837.0
837.0
839.0
840.0
842.0
841.0
844.0
846.0
847.0
846.0
850.0
853.0
854.0
855.0
856.0
856.0
855.0
855.0
856.0
854.0
853.0
855.0
856.0
860.0
861.0
858.0
858.0
854.0
850.0
848.0
846.0
845.0
844.0
845.0
840.0
835.0
832.0
831.0
828.0
827.0
828.0
826.0
823.0
824.0
823.0
821.0
822.0
824.0
821.0
821.0
827.0
827.0
827.0
828.0
828.0
827.0
826.0
825.0
823.0
823.0
822.0
825.0
828.0
830.0
832.0
833.0
838.0
845.0
855.0
868.0
885.0
906.0
933.0
954.0
972.0
980.0
975.0
955.0
929.0
899.0
873.0
842.0
810.0
784.0
770.0
766.0
769.0
774.0
779.0
784.0
789.0
791.0
793.0
793.0
798.0
801.0
806.0
808.0
809.0
804.0
806.0
806.0
805.0
805.0
801.0
800.0
798.0
798.0
800.0
799.0
803.0
804.0
806.0
807.0
803.0
802.0
805.0
803.0
800.0
801.0
799.0
800.0
802.0
802.0
802.0
802.0
801.0
802.0
800.0
798.0
797.0
796.0
794.0
797.0
798.0
797.0
796.0
796.0
796.0
795.0
791.0
790.0
790.0
791.0
790.0
790.0
792.0
792.0
795.0
795.0
795.0
792.0
791.0
792.0
788.0
788.0
790.0
793.0
796.0
794.0
798.0
799.0
801.0
802.0
803.0
803.0
804.0
808.0
810.0
812.0
815.0
823.0
827.0
832.0
837.0
839.0
840.0
844.0
844.0
847.0
849.0
856.0
859.0
860.0
864.0
865.0
865.0
865.0
863.0
862.0
860.0
859.0
861.0
862.0
863.0
864.0
864.0
863.0
861.0
861.0
860.0
858.0
856.0
855.0
856.0
852.0
853.0
853.0
855.0
853.0
852.0
851.0
849.0
848.0
850.0
849.0
849.0
847.0
847.0
850.0
851.0
852.0
851.0
849.0
849.0
846.0
846.0
844.0
845.0
847.0
847.0
849.0
853.0
849.0
851.0
850.0
849.0
848.0
845.0
845.0
845.0
851.0
852.0
854.0
855.0
856.0
856.0
853.0
855.0
856.0
855.0
858.0
860.0
860.0
865.0
868.0
869.0
875.0
875.0
874.0
873.0
871.0
870.0
871.0
873.0
876.0
879.0
882.0
883.0
882.0
877.0
873.0
868.0
863.0
859.0
860.0
861.0
863.0
863.0
862.0
858.0
853.0
850.0
847.0
842.0
841.0
838.0
839.0
837.0
841.0
842.0
843.0
845.0
844.0
843.0
840.0
838.0
837.0
835.0
835.0
838.0
839.0
841.0
843.0
846.0
847.0
847.0
844.0
843.0
841.0
838.0
842.0
847.0
859.0
875.0
893.0
917.0
946.0
969.0
987.0
994.0
984.0
968.0
940.0
915.0
893.0
867.0
841.0
818.0
802.0
793.0
795.0
797.0
798.0
792.0
792.0
790.0
797.0
802.0
808.0
816.0
823.0
827.0
824.0
821.0
817.0
820.0
818.0
818.0
818.0
821.0
819.0
820.0
822.0
821.0
820.0
820.0
817.0
816.0
817.0
816.0
819.0
818.0
820.0
823.0
825.0
823.0
823.0
822.0
822.0
821.0
820.0
820.0
821.0
822.0
821.0
818.0
820.0
819.0
818.0
815.0
815.0
813.0
811.0
812.0
810.0
811.0
811.0
813.0
812.0
812.0
814.0
810.0
811.0
808.0
806.0
806.0
806.0
808.0
806.0
807.0
809.0
809.0
808.0
808.0
806.0
805.0
806.0
810.0
811.0
813.0
815.0
816.0
817.0
817.0
818.0
819.0
818.0
818.0
821.0
826.0
829.0
830.0
835.0
840.0
841.0
846.0
848.0
850.0
852.0
855.0
855.0
859.0
862.0
868.0
871.0
870.0
875.0
876.0
878.0
876.0
878.0
878.0
879.0
878.0
876.0
876.0
874.0
876.0
875.0
872.0
869.0
866.0
864.0
862.0
862.0
862.0
861.0
860.0
862.0
862.0
863.0
