# Simple Text Format
# Sampling Rate (Hz):= 360.00
# Resolution:= 12
# Labels:= ECG
824.0
824.0
826.0
826.0
823.0
819.0
817.0
814.0
813.0
812.0
812.0
814.0
815.0
817.0
815.0
814.0
811.0
808.0
805.0
805.0
803.0
803.0
800.0
799.0
800.0
800.0
801.0
803.0
802.0
799.0
799.0
797.0
795.0
793.0
798.0
797.0
799.0
801.0
802.0
804.0
803.0
804.0
804.0
807.0
805.0
806.0
810.0
813.0
819.0
824.0
831.0
836.0
844.0
847.0
851.0
856.0
859.0
861.0
862.0
867.0
871.0
876.0
879.0
882.0
879.0
879.0
879.0
877.0
875.0
876.0
873.0
875.0
874.0
874.0
876.0
875.0
872.0
873.0
874.0
873.0
869.0
869.0
868.0
868.0
869.0
870.0
871.0
870.0
870.0
870.0
869.0
868.0
867.0
867.0
865.0
863.0
867.0
867.0
870.0
869.0
868.0
868.0
868.0
868.0
865.0
862.0
864.0
863.0
865.0
865.0
867.0
870.0
867.0
866.0
866.0
867.0
865.0
862.0
863.0
865.0
868.0
870.0
871.0
869.0
868.0
868.0
867.0
870.0
873.0
877.0
880.0
881.0
884.0
885.0
884.0
883.0
883.0
881.0
879.0
880.0
880.0
882.0
884.0
887.0
888.0
888.0
885.0
880.0
878.0
872.0
865.0
863.0
863.0
864.0
864.0
863.0
862.0
861.0
859.0
856.0
854.0
851.0
848.0
844.0
846.0
849.0
848.0
848.0
849.0
849.0
848.0
848.0
850.0
848.0
847.0
847.0
845.0
845.0
842.0
846.0
849.0
850.0
853.0
856.0
858.0
866.0
881.0
898.0
924.0
952.0
983.0
1009.0
1029.0
1035.0
1024.0
997.0
962.0
924.0
891.0
851.0
811.0
778.0
761.0
754.0
758.0
767.0
780.0
793.0
801.0
807.0
810.0
810.0
809.0
812.0
815.0
818.0
821.0
821.0
820.0
823.0
823.0
821.0
821.0
818.0
820.0
819.0
818.0
817.0
817.0
816.0
815.0
820.0
817.0
819.0
817.0
812.0
810.0
809.0
809.0
810.0
810.0
812.0
813.0
813.0
812.0
810.0
809.0
808.0
805.0
805.0
804.0
804.0
808.0
808.0
809.0
809.0
803.0
802.0
797.0
794.0
792.0
790.0
789.0
790.0
792.0
796.0
793.0
793.0
793.0
789.0
786.0
783.0
783.0
782.0
781.0
781.0
783.0
783.0
784.0
783.0
784.0
784.0
783.0
783.0
780.0
782.0
782.0
784.0
786.0
787.0
789.0
789.0
791.0
791.0
793.0
795.0
797.0
800.0
804.0
809.0
813.0
819.0
824.0
830.0
834.0
838.0
840.0
843.0
847.0
848.0
854.0
856.0
859.0
863.0
866.0
867.0
866.0
866.0
865.0
866.0
863.0
864.0
862.0
863.0
865.0
863.0
863.0
864.0
864.0
862.0
861.0
859.0
857.0
856.0
856.0
856.0
856.0
856.0
857.0
857.0
857.0
855.0
854.0
854.0
853.0
851.0
851.0
852.0
855.0
854.0
854.0
856.0
855.0
854.0
852.0
852.0
852.0
850.0
850.0
852.0
851.0
853.0
851.0
853.0
852.0
852.0
852.0
851.0
850.0
850.0
849.0
849.0
851.0
849.0
852.0
852.0
854.0
853.0
854.0
851.0
853.0
851.0
856.0
859.0
864.0
866.0
866.0
870.0
872.0
872.0
871.0
869.0
867.0
867.0
866.0
868.0
868.0
870.0
873.0
874.0
876.0
880.0
879.0
871.0
867.0
863.0
858.0
856.0
856.0
855.0
856.0
855.0
857.0
857.0
854.0
850.0
848.0
843.0
838.0
838.0
836.0
837.0
837.0
842.0
841.0
842.0
840.0
838.0
836.0
836.0
835.0
837.0
839.0
839.0
843.0
839.0
838.0
838.0
834.0
836.0
839.0
841.0
852.0
865.0
882.0
898.0
924.0
954.0
979.0
1005.0
1019.0
1027.0
1015.0
986.0
954.0
919.0
886.0
849.0
812.0
780.0
756.0
741.0
740.0
751.0
764.0
773.0
786.0
793.0
800.0
805.0
807.0
812.0
814.0
815.0
813.0
814.0
812.0
810.0
807.0
807.0
809.0
808.0
811.0
811.0
808.0
811.0
811.0
808.0
805.0
806.0
803.0
804.0
807.0
808.0
810.0
809.0
808.0
805.0
803.0
800.0
800.0
799.0
798.0
796.0
794.0
795.0
797.0
798.0
797.0
794.0
794.0
793.0
793.0
794.0
792.0
792.0
793.0
793.0
793.0
792.0
789.0
786.0
784.0
782.0
780.0
776.0
778.0
778.0
781.0
780.0
781.0
782.0
780.0
781.0
779.0
779.0
778.0
776.0
777.0
779.0
782.0
783.0
786.0
791.0
790.0
792.0
794.0
794.0
796.0
795.0
796.0
800.0
804.0
808.0
815.0
820.0
824.0
831.0
833.0
836.0
838.0
844.0
847.0
850.0
855.0
861.0
864.0
866.0
866.0
864.0
862.0
856.0
855.0
855.0
856.0
858.0
858.0
861.0
862.0
860.0
858.0
857.0
854.0
851.0
848.0
849.0
850.0
852.0
853.0
853.0
855.0
856.0
854.0
854.0
851.0
851.0
850.0
850.0
849.0
850.0
850.0
852.0
852.0
854.0
851.0
850.0
849.0
846.0
847.0
849.0
848.0
848.0
852.0
853.0
855.0
857.0
856.0
853.0
856.0
853.0
852.0
848.0
846.0
847.0
850.0
849.0
850.0
852.0
855.0
856.0
855.0
853.0
852.0
854.0
856.0
859.0
863.0
866.0
873.0
875.0
876.0
876.0
873.0
870.0
870.0
869.0
871.0
871.0
875.0
876.0
876.0
874.0
871.0
867.0
864.0
860.0
859.0
855.0
854.0
856.0
855.0
852.0
852.0
848.0
843.0
844.0
840.0
841.0
838.0
839.0
837.0
839.0
840.0
841.0
843.0
842.0
843.0
841.0
839.0
838.0
839.0
838.0
838.0
839.0
842.0
843.0
843.0
846.0
845.0
846.0
845.0
842.0
846.0
849.0
863.0
880.0
900.0
924.0
954.0
980.0
1004.0
1019.0
1021.0
1005.0
977.0
942.0
907.0
872.0
834.0
795.0
766.0
752.0
751.0
758.0
772.0
785.0
796.0
803.0
809.0
810.0
814.0
815.0
817.0
818.0
817.0
817.0
816.0
815.0
812.0
813.0
813.0
816.0
816.0
819.0
819.0
822.0
821.0
818.0
816.0
816.0
812.0
814.0
813.0
813.0
812.0
815.0
813.0
815.0
812.0
811.0
810.0
808.0
805.0
805.0
805.0
807.0
807.0
808.0
809.0
810.0
806.0
806.0
806.0
801.0
801.0
801.0
800.0
798.0
801.0
801.0
800.0
802.0
800.0
799.0
796.0
793.0
792.0
791.0
789.0
789.0
788.0
791.0
792.0
793.0
792.0
791.0
789.0
787.0
784.0
786.0
785.0
789.0
790.0
792.0
796.0
800.0
802.0
801.0
803.0
804.0
805.0
806.0
810.0
811.0
818.0
824.0
829.0
832.0
840.0
839.0
841.0
843.0
846.0
848.0
851.0
856.0
858.0
859.0
861.0
865.0
867.0
865.0
866.0
865.0
863.0
864.0
860.0
862.0
863.0
863.0
863.0
863.0
863.0
864.0
861.0
859.0
855.0
856.0
854.0
853.0
853.0
854.0
855.0
856.0
854.0
852.0
853.0
850.0
850.0
847.0
848.0
847.0
847.0
847.0
847.0
851.0
852.0
852.0
851.0
847.0
846.0
846.0
847.0
847.0
846.0
847.0
849.0
851.0
850.0
849.0
848.0
846.0
844.0
844.0
840.0
841.0
847.0
850.0
849.0
853.0
850.0
848.0
849.0
847.0
846.0
848.0
849.0
851.0
855.0
858.0
861.0
865.0
867.0
869.0
866.0
864.0
864.0
864.0
863.0
861.0
863.0
866.0
867.0
871.0
869.0
871.0
870.0
867.0
862.0
857.0
855.0
851.0
852.0
853.0
854.0
854.0
853.0
850.0
846.0
845.0
842.0
839.0
840.0
837.0
836.0
835.0
840.0
843.0
839.0
839.0
839.0
837.0
838.0
838.0
836.0
835.0
837.0
837.0
838.0
841.0
842.0
841.0
843.0
848.0
855.0
865.0
881.0
903.0
931.0
961.0
991.0
1013.0
1020.0
1014.0
989.0
954.0
916.0
877.0
842.0
804.0
773.0
756.0
751.0
758.0
765.0
776.0
785.0
791.0
794.0
799.0
804.0
808.0
812.0
817.0
819.0
822.0
823.0
819.0
818.0
818.0
817.0
819.0
814.0
815.0
815.0
816.0
819.0
821.0
821.0
820.0
819.0
818.0
817.0
815.0
810.0
811.0
812.0
813.0
815.0
815.0
813.0
812.0
813.0
811.0
810.0
810.0
808.0
807.0
806.0
808.0
808.0
808.0
809.0
807.0
803.0
802.0
800.0
799.0
799.0
798.0
798.0
799.0
798.0
801.0
799.0
800.0
797.0
794.0
796.0
795.0
793.0
796.0
796.0
797.0
800.0
801.0
802.0
801.0
800.0
800.0
801.0
801.0
802.0
804.0
806.0
811.0
815.0
821.0
824.0
828.0
831.0
833.0
837.0
842.0
845.0
849.0
853.0
858.0
862.0
868.0
868.0
870.0
870.0
872.0
871.0
871.0
872.0
872.0
875.0
876.0
874.0
877.0
875.0
872.0
871.0
870.0
866.0
865.0
867.0
865.0
866.0
863.0
864.0
865.0
864.0
863.0
861.0
861.0
859.0
857.0
853.0
854.0
856.0
855.0
856.0
859.0
858.0
859.0
855.0
855.0
855.0
853.0
853.0
855.0
855.0
855.0
858.0
856.0
856.0
858.0
857.0
853.0
853.0
853.0
851.0
851.0
852.0
852.0
854.0
856.0
855.0
854.0
853.0
852.0
851.0
853.0
850.0
849.0
850.0
853.0
856.0
858.0
858.0
860.0
862.0
862.0
861.0
862.0
862.0
865.0
867.0
869.0
869.0
870.0
870.0
870.0
872.0
872.0
872.0
873.0
875.0
877.0
877.0
875.0
873.0
869.0
865.0
861.0
862.0
859.0
858.0
857.0
856.0
853.0
851.0
851.0
849.0
849.0
847.0
845.0
843.0
842.0
840.0
836.0
838.0
838.0
840.0
841.0
843.0
844.0
843.0
841.0
839.0
839.0
836.0
837.0
837.0
837.0
838.0
838.0
841.0
843.0
846.0
845.0
850.0
856.0
866.0
879.0
895.0
917.0
942.0
969.0
987.0
1002.0
1006.0
998.0
979.0
947.0
917.0
888.0
852.0
819.0
787.0
767.0
763.0
770.0
775.0
780.0
785.0
789.0
796.0
801.0
804.0
808.0
810.0
814.0
814.0
815.0
816.0
815.0
812.0
812.0
810.0
811.0
810.0
811.0
812.0
815.0
815.0
816.0
816.0
812.0
811.0
809.0
808.0
810.0
809.0
808.0
809.0
810.0
811.0
811.0
810.0
809.0
808.0
806.0
803.0
803.0
802.0
803.0
804.0
803.0
803.0
803.0
806.0
803.0
804.0
801.0
799.0
798.0
798.0
796.0
797.0
798.0
799.0
802.0
801.0
796.0
797.0
797.0
791.0
793.0
792.0
792.0
791.0
794.0
791.0
790.0
791.0
791.0
791.0
793.0
791.0
789.0
792.0
793.0
794.0
797.0
798.0
802.0
803.0
806.0
808.0
808.0
809.0
812.0
811.0
816.0
822.0
829.0
833.0
837.0
842.0
847.0
848.0
850.0
851.0
855.0
858.0
861.0
864.0
864.0
865.0
867.0
870.0
868.0
867.0
867.0
865.0
865.0
864.0
864.0
867.0
863.0
866.0
867.0
865.0
864.0
863.0
863.0
856.0
855.0
853.0
854.0
854.0
855.0
853.0
855.0
856.0
856.0
855.0
853.0
852.0
851.0
850.0
850.0
850.0
849.0
851.0
851.0
851.0
852.0
852.0
849.0
848.0
846.0
846.0
847.0
847.0
849.0
851.0
853.0
853.0
850.0
850.0
847.0
848.0
844.0
843.0
845.0
847.0
848.0
849.0
851.0
852.0
852.0
851.0
852.0
851.0
852.0
854.0
854.0
858.0
861.0
865.0
868.0
868.0
869.0
869.0
868.0
866.0
863.0
865.0
868.0
871.0
872.0
874.0
875.0
877.0
876.0
870.0
866.0
861.0
857.0
855.0
856.0
855.0
855.0
855.0
855.0
852.0
849.0
846.0
842.0
841.0
840.0
836.0
837.0
836.0
837.0
838.0
838.0
839.0
839.0
840.0
837.0
837.0
837.0
835.0
837.0
838.0
839.0
841.0
841.0
843.0
842.0
843.0
841.0
845.0
851.0
862.0
876.0
892.0
917.0
946.0
974.0
995.0
1009.0
1010.0
994.0
968.0
938.0
908.0
876.0
845.0
814.0
792.0
781.0
781.0
783.0
790.0
795.0
802.0
806.0
807.0
810.0
813.0
813.0
817.0
820.0
822.0
822.0
819.0
817.0
818.0
817.0
815.0
818.0
820.0
821.0
822.0
824.0
824.0
823.0
823.0
822.0
820.0
819.0
817.0
818.0
818.0
819.0
815.0
816.0
818.0
818.0
816.0
815.0
813.0
812.0
810.0
810.0
812.0
811.0
813.0
816.0
815.0
813.0
813.0
810.0
808.0
805.0
806.0
804.0
807.0
806.0
806.0
808.0
808.0
807.0
805.0
803.0
803.0
802.0
799.0
800.0
798.0
801.0
800.0
801.0
800.0
801.0
799.0
800.0
802.0
802.0
801.0
801.0
805.0
806.0
807.0
811.0
813.0
813.0
815.0
817.0
816.0
818.0
821.0
825.0
828.0
833.0
839.0
844.0
849.0
852.0
854.0
857.0
859.0
862.0
863.0
865.0
869.0
872.0
875.0
876.0
877.0
879.0
876.0
875.0
872.0
870.0
869.0
869.0
870.0
869.0
868.0
872.0
873.0
872.0
869.0
867.0
867.0
865.0
862.0
864.0
864.0
863.0
864.0
865.0
862.0
859.0
860.0
858.0
857.0
856.0
854.0
855.0
855.0
857.0
858.0
861.0
860.0
858.0
858.0
857.0
857.0
855.0
853.0
854.0
854.0
857.0
857.0
859.0
859.0
859.0
858.0
858.0
857.0
856.0
855.0
856.0
858.0
859.0
859.0
861.0
862.0
862.0
863.0
862.0
863.0
864.0
863.0
864.0
866.0
868.0
871.0
874.0
876.0
876.0
874.0
875.0
874.0
875.0
877.0
878.0
880.0
881.0
883.0
884.0
883.0
878.0
872.0
866.0
863.0
858.0
859.0
860.0
860.0
861.0
860.0
857.0
855.0
855.0
850.0
847.0
846.0
846.0
842.0
843.0
844.0
843.0
848.0
848.0
849.0
848.0
849.0
847.0
843.0
843.0
843.0
843.0
843.0
846.0
847.0
850.0
847.0
848.0
849.0
847.0
848.0
853.0
859.0
871.0
885.0
907.0
935.0
962.0
987.0
1006.0
1011.0
1001.0
979.0
950.0
923.0
897.0
866.0
834.0
804.0
790.0
787.0
788.0
791.0
795.0
797.0
799.0
803.0
809.0
813.0
821.0
826.0
827.0
828.0
826.0
827.0
824.0
822.0
823.0
824.0
824.0
824.0
824.0
828.0
826.0
826.0
827.0
825.0
824.0
822.0
822.0
819.0
820.0
819.0
819.0
821.0
823.0
823.0
822.0
820.0
817.0
817.0
816.0
813.0
814.0
816.0
816.0
817.0
817.0
819.0
819.0
816.0
812.0
811.0
811.0
810.0
811.0
810.0
811.0
812.0
813.0
813.0
809.0
810.0
810.0
810.0
809.0
808.0
804.0
804.0
805.0
805.0
809.0
809.0
809.0
807.0
809.0
809.0
805.0
806.0
809.0
811.0
812.0
817.0
820.0
820.0
822.0
826.0
829.0
830.0
833.0
831.0
839.0
843.0
850.0
852.0
860.0
865.0
865.0
868.0
871.0
872.0
875.0
875.0
878.0
875.0
880.0
880.0
879.0
878.0
878.0
878.0
878.0
876.0
872.0
873.0
871.0
870.0
873.0
871.0
872.0
874.0
872.0
872.0
869.0
867.0
865.0
865.0
866.0
866.0
868.0
868.0
869.0
870.0
867.0
868.0
865.0
863.0
862.0
860.0
861.0
862.0
865.0
866.0
867.0
867.0
866.0
865.0
863.0
861.0
861.0
858.0
859.0
860.0
860.0
862.0
859.0
861.0
863.0
862.0
860.0
861.0
860.0
858.0
860.0
862.0
866.0
867.0
871.0
872.0
870.0
873.0
872.0
874.0
873.0
871.0
875.0
877.0
878.0
878.0
880.0
883.0
881.0
885.0
885.0
884.0
884.0
885.0
882.0
882.0
880.0
880.0
878.0
875.0
871.0
871.0
868.0
868.0
865.0
862.0
860.0
859.0
856.0
854.0
853.0
851.0
850.0
849.0
850.0
848.0
850.0
849.0
852.0
851.0
851.0
852.0
853.0
854.0
854.0
851.0
852.0
847.0
847.0
848.0
848.0
850.0
855.0
859.0
862.0
868.0
878.0
891.0
908.0
932.0
957.0
983.0
1006.0
1018.0
1017.0
1001.0
971.0
945.0
916.0
886.0
849.0
816.0
794.0
786.0
791.0
799.0
807.0
807.0
807.0
807.0
809.0
813.0
817.0
820.0
826.0
829.0
828.0
832.0
833.0
833.0
830.0
832.0
831.0
830.0
829.0
827.0
828.0
823.0
827.0
826.0
825.0
827.0
831.0
831.0
831.0
830.0
826.0
822.0
823.0
822.0
825.0
825.0
825.0
829.0
827.0
829.0
831.0
827.0
825.0
825.0
824.0
823.0
822.0
821.0
819.0
821.0
819.0
818.0
817.0
818.0
818.0
818.0
816.0
815.0
813.0
813.0
815.0
817.0
816.0
814.0
813.0
813.0
814.0
812.0
811.0
810.0
809.0
809.0
810.0
810.0
812.0
815.0
812.0
811.0
812.0
813.0
812.0
811.0
810.0
811.0
811.0
817.0
825.0
827.0
827.0
831.0
831.0
833.0
835.0
838.0
845.0
850.0
855.0
860.0
866.0
871.0
872.0
873.0
875.0
876.0
877.0
878.0
881.0
881.0
884.0
884.0
888.0
887.0
885.0
883.0
882.0
881.0
878.0
877.0
877.0
875.0
875.0
875.0
875.0
880.0
872.0
873.0
875.0
874.0
872.0
872.0
873.0
873.0
874.0
876.0
876.0
877.0
874.0
874.0
870.0
871.0
869.0
870.0
867.0
869.0
868.0
870.0
871.0
872.0
871.0
870.0
863.0
865.0
863.0
862.0
863.0
866.0
868.0
871.0
871.0
872.0
872.0
870.0
869.0
870.0
867.0
867.0
867.0
868.0
867.0
868.0
873.0
875.0
873.0
873.0
874.0
872.0
872.0
872.0
872.0
877.0
880.0
881.0
885.0
888.0
889.0
889.0
888.0
888.0
886.0
885.0
885.0
883.0
886.0
889.0
894.0
895.0
896.0
895.0
897.0
893.0
889.0
883.0
879.0
879.0
878.0
879.0
881.0
881.0
877.0
877.0
872.0
871.0
868.0
865.0
862.0
862.0
861.0
859.0
864.0
863.0
865.0
862.0
862.0
860.0
861.0
860.0
862.0
862.0
863.0
865.0
868.0
867.0
867.0
868.0
867.0
867.0
867.0
867.0
870.0
877.0
888.0
902.0
919.0
944.0
968.0
994.0
1020.0
1037.0
1043.0
1034.0
1010.0
982.0
954.0
927.0
898.0
864.0
830.0
810.0
803.0
805.0
812.0
816.0
817.0
815.0
818.0
821.0
826.0
835.0
843.0
848.0
848.0
850.0
850.0
848.0
846.0
846.0
847.0
850.0
852.0
850.0
851.0
850.0
849.0
844.0
845.0
843.0
845.0
846.0
846.0
846.0
850.0
851.0
850.0
847.0
847.0
847.0
846.0
844.0
844.0
845.0
845.0
849.0
848.0
850.0
849.0
848.0
848.0
847.0
843.0
844.0
842.0
843.0
844.0
844.0
844.0
843.0
843.0
844.0
839.0
838.0
838.0
837.0
836.0
835.0
838.0
838.0
836.0
842.0
840.0
839.0
838.0
838.0
838.0
838.0
837.0
838.0
842.0
843.0
845.0
847.0
847.0
848.0
850.0
846.0
848.0
848.0
850.0
853.0
857.0
862.0
867.0
874.0
877.0
881.0
885.0
888.0
889.0
891.0
894.0
900.0
906.0
908.0
909.0
915.0
914.0
917.0
917.0
914.0
915.0
913.0
914.0
914.0
912.0
913.0
913.0
918.0
917.0
916.0
912.0
911.0
908.0
911.0
908.0
909.0
909.0
911.0
907.0
909.0
908.0
906.0
907.0
906.0
904.0
903.0
902.0
904.0
903.0
905.0
904.0
907.0
907.0
908.0
906.0
905.0
903.0
904.0
903.0
903.0
902.0
907.0
907.0
909.0
909.0
907.0
906.0
906.0
903.0
901.0
904.0
904.0
903.0
904.0
907.0
908.0
907.0
909.0
911.0
911.0
912.0
916.0
917.0
919.0
920.0
922.0
921.0
923.0
922.0
921.0
923.0
923.0
925.0
928.0
927.0
931.0
932.0
931.0
931.0
929.0
926.0
922.0
921.0
917.0
915.0
912.0
909.0
907.0
907.0
907.0
905.0
905.0
902.0
900.0
900.0
893.0
892.0
892.0
893.0
894.0
897.0
895.0
898.0
899.0
898.0
898.0
897.0
896.0
893.0
894.0
893.0
896.0
895.0
897.0
899.0
899.0
897.0
898.0
899.0
903.0
913.0
926.0
945.0
971.0
1001.0
1035.0
1063.0
1078.0
1075.0
1057.0
1024.0
989.0
950.0
907.0
870.0
846.0
836.0
836.0
842.0
856.0
865.0
872.0
876.0
876.0
875.0
872.0
872.0
873.0
876.0
876.0
877.0
881.0
880.0
878.0
878.0
876.0
874.0
874.0
871.0
871.0
872.0
876.0
876.0
878.0
876.0
875.0
875.0
872.0
870.0
869.0
872.0
871.0
871.0
873.0
874.0
874.0
874.0
870.0
869.0
868.0
865.0
864.0
863.0
864.0
865.0
864.0
866.0
867.0
865.0
863.0
862.0
860.0
857.0
857.0
854.0
855.0
856.0
856.0
856.0
856.0
854.0
853.0
852.0
850.0
845.0
847.0
843.0
844.0
843.0
845.0
846.0
849.0
850.0
848.0
844.0
845.0
845.0
849.0
850.0
850.0
852.0
855.0
859.0
862.0
864.0
866.0
867.0
870.0
872.0
874.0
879.0
885.0
890.0
898.0
901.0
907.0
911.0
914.0
916.0
918.0
919.0
920.0
920.0
922.0
925.0
926.0
927.0
929.0
928.0
927.0
925.0
925.0
925.0
924.0
922.0
924.0
924.0
925.0
927.0
927.0
928.0
925.0
925.0
922.0
921.0
920.0
921.0
921.0
921.0
922.0
921.0
924.0
922.0
920.0
917.0
915.0
916.0
914.0
914.0
914.0
917.0
916.0
917.0
918.0
918.0
916.0
916.0
914.0
913.0
910.0
913.0
914.0
913.0
915.0
915.0
917.0
915.0
915.0
916.0
914.0
913.0
911.0
910.0
909.0
912.0
914.0
915.0
921.0
921.0
919.0
922.0
922.0
925.0
924.0
927.0
930.0
932.0
933.0
933.0
935.0
935.0
936.0
936.0
934.0
934.0
935.0
938.0
937.0
938.0
937.0
937.0
935.0
930.0
927.0
923.0
920.0
917.0
915.0
912.0
911.0
911.0
908.0
910.0
907.0
905.0
902.0
901.0
896.0
898.0
897.0
899.0
899.0
898.0
901.0
901.0
904.0
904.0
904.0
903.0
901.0
897.0
901.0
900.0
902.0
903.0
902.0
907.0
911.0
915.0
926.0
939.0
957.0
978.0
1006.0
1034.0
1056.0
1073.0
1075.0
1063.0
1041.0
1011.0
982.0
950.0
917.0
883.0
858.0
848.0
848.0
854.0
863.0
871.0
879.0
884.0
883.0
881.0
879.0
876.0
874.0
873.0
875.0
877.0
875.0
879.0
879.0
879.0
878.0
879.0
876.0
874.0
872.0
873.0
874.0
876.0
874.0
875.0
876.0
876.0
874.0
873.0
871.0
869.0
868.0
868.0
867.0
868.0
867.0
868.0
871.0
870.0
869.0
867.0
862.0
864.0
862.0
860.0
861.0
862.0
862.0
861.0
863.0
861.0
862.0
858.0
858.0
857.0
855.0
855.0
853.0
852.0
854.0
856.0
855.0
853.0
854.0
851.0
851.0
848.0
848.0
846.0
845.0
847.0
847.0
849.0
851.0
851.0
849.0
850.0
849.0
851.0
851.0
852.0
854.0
857.0
859.0
864.0
867.0
869.0
871.0
874.0
878.0
881.0
884.0
889.0
894.0
898.0
903.0
909.0
914.0
917.0
921.0
921.0
922.0
921.0
922.0
922.0
922.0
924.0
924.0
928.0
927.0
927.0
925.0
926.0
921.0
920.0
921.0
918.0
918.0
915.0
919.0
919.0
918.0
920.0
918.0
918.0
917.0
915.0
912.0
911.0
914.0
914.0
915.0
914.0
918.0
916.0
915.0
912.0
910.0
908.0
910.0
908.0
908.0
906.0
907.0
910.0
910.0
910.0
910.0
910.0
907.0
907.0
904.0
906.0
905.0
905.0
907.0
906.0
908.0
905.0
908.0
909.0
907.0
906.0
903.0
903.0
905.0
905.0
907.0
908.0
909.0
913.0
914.0
916.0
918.0
919.0
921.0
921.0
923.0
925.0
925.0
925.0
925.0
925.0
924.0
926.0
927.0
926.0
928.0
927.0
927.0
926.0
925.0
921.0
919.0
916.0
915.0
915.0
912.0
911.0
908.0
905.0
904.0
901.0
901.0
899.0
896.0
894.0
893.0
893.0
891.0
889.0
888.0
888.0
890.0
892.0
893.0
892.0
895.0
898.0
897.0
895.0
891.0
893.0
892.0
892.0
893.0
894.0
894.0
896.0
902.0
899.0
899.0
901.0
906.0
913.0
922.0
935.0
952.0
975.0
1003.0
1027.0
1048.0
1062.0
1064.0
1049.0
1024.0
995.0
969.0
941.0
911.0
880.0
857.0
840.0
838.0
844.0
851.0
856.0
862.0
868.0
866.0
865.0
865.0
863.0
867.0
871.0
874.0
875.0
872.0
871.0
868.0
866.0
863.0
865.0
863.0
863.0
865.0
865.0
866.0
866.0
864.0
866.0
863.0
861.0
859.0
861.0
862.0
865.0
864.0
865.0
866.0
867.0
865.0
861.0
862.0
858.0
859.0
857.0
858.0
857.0
857.0
857.0
855.0
854.0
855.0
854.0
852.0
851.0
850.0
848.0
848.0
846.0
848.0
845.0
847.0
848.0
849.0
847.0
844.0
845.0
841.0
836.0
838.0
838.0
840.0
840.0
838.0
840.0
839.0
839.0
837.0
837.0
836.0
835.0
837.0
838.0
841.0
842.0
843.0
844.0
843.0
846.0
847.0
851.0
851.0
855.0
857.0
862.0
870.0
873.0
879.0
881.0
887.0
889.0
888.0
892.0
894.0
900.0
903.0
905.0
907.0
909.0
911.0
912.0
914.0
914.0
913.0
912.0
913.0
911.0
907.0
909.0
909.0
911.0
909.0
908.0
906.0
908.0
907.0
905.0
902.0
899.0
902.0
902.0
903.0
905.0
905.0
905.0
902.0
900.0
897.0
899.0
895.0
895.0
896.0
897.0
897.0
896.0
898.0
899.0
899.0
897.0
896.0
893.0
892.0
891.0
890.0
892.0
893.0
892.0
894.0
896.0
897.0
896.0
895.0
893.0
894.0
892.0
895.0
895.0
896.0
897.0
897.0
899.0
897.0
898.0
897.0
899.0
899.0
900.0
902.0
906.0
911.0
912.0
915.0
917.0
916.0
917.0
913.0
913.0
909.0
910.0
912.0
915.0
918.0
922.0
924.0
922.0
921.0
914.0
909.0
905.0
902.0
901.0
903.0
904.0
901.0
902.0
902.0
900.0
897.0
896.0
890.0
888.0
885.0
882.0
881.0
881.0
883.0
884.0
881.0
885.0
883.0
883.0
883.0
881.0
881.0
879.0
880.0
880.0
881.0
883.0
886.0
887.0
886.0
888.0
889.0
893.0
901.0
914.0
934.0
957.0
984.0
1011.0
1034.0
1050.0
1052.0
1036.0
1012.0
984.0
956.0
927.0
902.0
869.0
841.0
826.0
820.0
822.0
829.0
835.0
838.0
842.0
848.0
849.0
848.0
851.0
852.0
858.0
861.0
863.0
864.0
865.0
862.0
859.0
860.0
857.0
856.0
857.0
858.0
860.0
860.0
859.0
860.0
859.0
856.0
853.0
852.0
851.0
852.0
851.0
852.0
854.0
854.0
854.0
852.0
852.0
850.0
846.0
844.0
844.0
847.0
848.0
847.0
849.0
849.0
847.0
846.0
844.0
842.0
841.0
836.0
834.0
837.0
837.0
839.0
839.0
840.0
841.0
841.0
841.0
838.0
834.0
833.0
831.0
834.0
836.0
835.0
835.0
836.0
838.0
840.0
841.0
840.0
839.0
838.0
838.0
839.0
841.0
840.0
843.0
846.0
847.0
849.0
850.0
851.0
853.0
851.0
854.0
858.0
862.0
866.0
872.0
877.0
883.0
887.0
889.0
891.0
895.0
897.0
898.0
898.0
902.0
905.0
909.0
911.0
912.0
909.0
909.0
910.0
910.0
908.0
907.0
903.0
904.0
904.0
905.0
905.0
903.0
905.0
903.0
901.0
900.0
897.0
897.0
896.0
896.0
898.0
897.0
898.0
897.0
899.0
897.0
896.0
894.0
893.0
890.0
890.0
892.0
892.0
894.0
894.0
894.0
891.0
891.0
891.0
889.0
889.0
888.0
886.0
887.0
888.0
887.0
889.0
891.0
889.0
889.0
887.0
890.0
887.0
887.0
889.0
891.0
892.0
894.0
895.0
895.0
895.0
893.0
891.0
893.0
895.0
898.0
899.0
900.0
906.0
906.0
911.0
912.0
912.0
912.0
913.0
909.0
907.0
906.0
906.0
911.0
913.0
917.0
917.0
914.0
907.0
903.0
898.0
898.0
899.0
899.0
897.0
897.0
895.0
896.0
892.0
890.0
889.0
885.0
882.0
880.0
879.0
878.0
878.0
880.0
879.0
880.0
882.0
881.0
880.0
882.0
879.0
877.0
878.0
873.0
874.0
875.0
878.0
879.0
880.0
883.0
883.0
883.0
883.0
883.0
889.0
898.0
911.0
927.0
950.0
977.0
1004.0
1027.0
1042.0
1046.0
1029.0
1000.0
974.0
946.0
916.0
885.0
854.0
828.0
815.0
814.0
815.0
822.0
827.0
831.0
838.0
841.0
846.0
849.0
854.0
859.0
863.0
864.0
864.0
862.0
857.0
859.0
857.0
854.0
856.0
859.0
857.0
859.0
860.0
861.0
856.0
855.0
854.0
850.0
853.0
850.0
848.0
849.0
851.0
854.0
854.0
856.0
854.0
854.0
854.0
853.0
850.0
849.0
847.0
848.0
848.0
851.0
846.0
850.0
848.0
848.0
845.0
845.0
841.0
840.0
841.0
840.0
843.0
841.0
843.0
842.0
841.0
840.0
840.0
838.0
838.0
837.0
835.0
834.0
832.0
835.0
835.0
839.0
839.0
839.0
837.0
838.0
837.0
839.0
839.0
842.0
846.0
848.0
851.0
855.0
855.0
859.0
860.0
862.0
865.0
870.0
875.0
878.0
885.0
891.0
896.0
902.0
904.0
905.0
907.0
907.0
906.0
907.0
909.0
911.0
912.0
914.0
915.0
914.0
913.0
913.0
912.0
912.0
909.0
907.0
