# Simple Text Format
# Sampling Rate (Hz):= 360.00
# Resolution:= 12
# Labels:= ECG
882.0
881.0
882.0
881.0
883.0
883.0
888.0
891.0
893.0
891.0
888.0
887.0
882.0
877.0
877.0
873.0
872.0
870.0
871.0
869.0
867.0
866.0
863.0
858.0
854.0
850.0
849.0
847.0
850.0
849.0
851.0
852.0
854.0
852.0
851.0
852.0
853.0
849.0
852.0
852.0
851.0
852.0
855.0
854.0
858.0
855.0
855.0
853.0
853.0
858.0
866.0
878.0
895.0
918.0
946.0
975.0
1002.0
1024.0
1031.0
1026.0
1003.0
975.0
946.0
918.0
888.0
854.0
823.0
801.0
792.0
791.0
797.0
805.0
810.0
817.0
822.0
823.0
824.0
825.0
828.0
826.0
829.0
826.0
829.0
826.0
825.0
828.0
826.0
827.0
827.0
826.0
825.0
827.0
828.0
827.0
827.0
827.0
825.0
824.0
824.0
823.0
823.0
821.0
822.0
826.0
829.0
829.0
827.0
821.0
819.0
819.0
819.0
817.0
817.0
818.0
816.0
818.0
819.0
818.0
815.0
811.0
807.0
808.0
807.0
805.0
808.0
809.0
808.0
811.0
813.0
813.0
812.0
810.0
808.0
806.0
804.0
803.0
803.0
803.0
802.0
803.0
804.0
803.0
803.0
798.0
798.0
798.0
797.0
796.0
797.0
799.0
799.0
802.0
803.0
804.0
804.0
800.0
801.0
801.0
803.0
807.0
812.0
819.0
822.0
830.0
835.0
839.0
843.0
847.0
849.0
854.0
858.0
858.0
865.0
867.0
871.0
873.0
878.0
877.0
876.0
878.0
873.0
871.0
874.0
872.0
872.0
872.0
873.0
876.0
876.0
875.0
875.0
873.0
871.0
870.0
870.0
870.0
870.0
871.0
871.0
871.0
873.0
872.0
869.0
870.0
868.0
868.0
865.0
865.0
864.0
867.0
866.0
869.0
870.0
868.0
869.0
867.0
864.0
863.0
862.0
859.0
860.0
862.0
863.0
863.0
865.0
866.0
867.0
866.0
864.0
861.0
862.0
863.0
861.0
866.0
865.0
866.0
868.0
866.0
866.0
867.0
866.0
865.0
866.0
867.0
871.0
875.0
877.0
880.0
883.0
881.0
880.0
879.0
879.0
879.0
877.0
880.0
880.0
882.0
886.0
885.0
888.0
886.0
885.0
881.0
876.0
872.0
866.0
864.0
863.0
863.0
862.0
861.0
862.0
858.0
856.0
855.0
852.0
851.0
849.0
845.0
847.0
847.0
847.0
847.0
849.0
847.0
848.0
850.0
848.0
845.0
849.0
846.0
847.0
847.0
848.0
850.0
853.0
852.0
852.0
855.0
856.0
863.0
875.0
894.0
917.0
948.0
980.0
1008.0
1025.0
1026.0
1006.0
978.0
945.0
907.0
870.0
834.0
807.0
788.0
784.0
786.0
793.0
802.0
805.0
808.0
813.0
815.0
816.0
817.0
818.0
822.0
826.0
825.0
825.0
825.0
824.0
824.0
824.0
823.0
822.0
820.0
821.0
820.0
823.0
822.0
823.0
823.0
824.0
818.0
819.0
818.0
816.0
815.0
815.0
815.0
819.0
818.0
820.0
817.0
817.0
816.0
814.0
813.0
812.0
809.0
810.0
810.0
813.0
813.0
814.0
811.0
809.0
809.0
806.0
803.0
802.0
800.0
800.0
801.0
800.0
799.0
799.0
794.0
792.0
792.0
792.0
793.0
790.0
789.0
789.0
789.0
790.0
792.0
793.0
795.0
792.0
793.0
792.0
792.0
793.0
794.0
795.0
796.0
796.0
797.0
804.0
805.0
811.0
811.0
813.0
814.0
817.0
821.0
821.0
830.0
835.0
844.0
846.0
851.0
853.0
858.0
859.0
859.0
862.0
862.0
865.0
866.0
868.0
871.0
874.0
874.0
872.0
871.0
866.0
867.0
867.0
866.0
865.0
867.0
867.0
867.0
868.0
865.0
864.0
861.0
858.0
860.0
860.0
857.0
856.0
855.0
856.0
856.0
859.0
859.0
855.0
854.0
853.0
850.0
849.0
851.0
851.0
850.0
851.0
853.0
854.0
854.0
851.0
854.0
854.0
848.0
851.0
848.0
848.0
850.0
851.0
853.0
856.0
854.0
854.0
852.0
849.0
850.0
848.0
851.0
850.0
850.0
851.0
852.0
856.0
858.0
857.0
858.0
857.0
858.0
858.0
861.0
861.0
863.0
866.0
866.0
868.0
868.0
867.0
868.0
867.0
868.0
868.0
868.0
869.0
870.0
871.0
870.0
872.0
870.0
869.0
867.0
863.0
858.0
855.0
854.0
850.0
848.0
848.0
845.0
846.0
842.0
839.0
838.0
837.0
835.0
837.0
834.0
832.0
833.0
835.0
834.0
836.0
837.0
837.0
835.0
833.0
834.0
835.0
834.0
835.0
838.0
839.0
841.0
843.0
842.0
848.0
850.0
859.0
870.0
886.0
908.0
933.0
962.0
987.0
1006.0
1014.0
1006.0
984.0
958.0
929.0
903.0
876.0
844.0
810.0
783.0
771.0
772.0
780.0
784.0
786.0
784.0
782.0
783.0
789.0
794.0
801.0
808.0
814.0
815.0
818.0
815.0
815.0
812.0
811.0
808.0
807.0
807.0
807.0
808.0
811.0
811.0
812.0
813.0
811.0
811.0
810.0
809.0
808.0
805.0
804.0
807.0
808.0
807.0
807.0
808.0
806.0
805.0
805.0
804.0
800.0
798.0
799.0
798.0
801.0
801.0
804.0
802.0
800.0
799.0
795.0
791.0
787.0
787.0
787.0
790.0
789.0
790.0
792.0
791.0
793.0
790.0
786.0
785.0
782.0
783.0
785.0
784.0
784.0
785.0
785.0
785.0
785.0
786.0
783.0
785.0
782.0
784.0
782.0
782.0
783.0
785.0
787.0
785.0
788.0
788.0
790.0
790.0
791.0
793.0
796.0
800.0
806.0
810.0
814.0
815.0
818.0
821.0
826.0
827.0
831.0
836.0
840.0
843.0
847.0
849.0
850.0
854.0
854.0
855.0
853.0
852.0
853.0
852.0
850.0
851.0
850.0
848.0
849.0
848.0
847.0
845.0
845.0
844.0
842.0
843.0
843.0
843.0
844.0
845.0
845.0
846.0
846.0
845.0
843.0
842.0
840.0
839.0
838.0
837.0
842.0
842.0
842.0
844.0
843.0
839.0
836.0
834.0
831.0
830.0
830.0
828.0
828.0
831.0
835.0
839.0
840.0
838.0
840.0
838.0
838.0
834.0
833.0
833.0
835.0
836.0
837.0
837.0
836.0
839.0
840.0
842.0
843.0
844.0
846.0
844.0
846.0
845.0
846.0
847.0
849.0
849.0
850.0
853.0
856.0
856.0
853.0
854.0
852.0
850.0
847.0
844.0
842.0
839.0
832.0
831.0
829.0
826.0
825.0
826.0
826.0
826.0
824.0
824.0
821.0
821.0
818.0
817.0
816.0
816.0
817.0
817.0
818.0
817.0
817.0
817.0
815.0
817.0
817.0
817.0
815.0
816.0
817.0
819.0
821.0
824.0
828.0
833.0
847.0
859.0
878.0
901.0
927.0
956.0
980.0
997.0
1004.0
995.0
977.0
949.0
919.0
887.0
856.0
821.0
785.0
752.0
737.0
734.0
743.0
754.0
757.0
761.0
763.0
769.0
774.0
782.0
787.0
792.0
792.0
792.0
793.0
794.0
794.0
793.0
793.0
793.0
794.0
790.0
789.0
788.0
788.0
791.0
791.0
791.0
794.0
795.0
793.0
792.0
791.0
790.0
788.0
787.0
786.0
785.0
786.0
787.0
784.0
787.0
788.0
789.0
789.0
785.0
783.0
781.0
779.0
780.0
782.0
784.0
785.0
783.0
783.0
780.0
781.0
779.0
778.0
777.0
779.0
779.0
780.0
778.0
780.0
779.0
777.0
777.0
775.0
771.0
772.0
771.0
769.0
771.0
770.0
770.0
770.0
772.0
774.0
775.0
774.0
775.0
776.0
775.0
778.0
779.0
782.0
781.0
788.0
793.0
794.0
796.0
798.0
802.0
805.0
809.0
813.0
819.0
823.0
827.0
832.0
834.0
839.0
841.0
841.0
842.0
839.0
841.0
844.0
843.0
848.0
852.0
853.0
853.0
852.0
852.0
851.0
846.0
846.0
847.0
848.0
849.0
850.0
852.0
853.0
853.0
851.0
847.0
843.0
843.0
838.0
843.0
841.0
842.0
844.0
847.0
848.0
847.0
846.0
845.0
844.0
843.0
842.0
842.0
839.0
841.0
842.0
843.0
844.0
845.0
846.0
846.0
845.0
844.0
844.0
842.0
841.0
842.0
841.0
842.0
844.0
844.0
846.0
846.0
844.0
844.0
844.0
843.0
842.0
844.0
846.0
844.0
848.0
846.0
847.0
848.0
848.0
848.0
848.0
850.0
852.0
853.0
857.0
857.0
862.0
863.0
864.0
864.0
863.0
861.0
860.0
861.0
861.0
864.0
868.0
868.0
868.0
870.0
870.0
869.0
865.0
862.0
860.0
858.0
853.0
853.0
853.0
852.0
851.0
850.0
847.0
843.0
841.0
838.0
835.0
836.0
834.0
833.0
834.0
836.0
836.0
840.0
840.0
840.0
838.0
836.0
836.0
835.0
836.0
836.0
839.0
841.0
845.0
845.0
846.0
847.0
847.0
853.0
863.0
876.0
895.0
919.0
949.0
978.0
1003.0
1024.0
1028.0
1023.0
1002.0
973.0
942.0
911.0
883.0
850.0
812.0
782.0
767.0
769.0
776.0
784.0
785.0
786.0
786.0
789.0
800.0
808.0
815.0
821.0
823.0
824.0
824.0
822.0
819.0
820.0
817.0
817.0
816.0
818.0
819.0
822.0
823.0
825.0
824.0
821.0
821.0
821.0
820.0
818.0
819.0
819.0
822.0
822.0
821.0
820.0
821.0
819.0
817.0
816.0
815.0
817.0
817.0
817.0
816.0
815.0
814.0
813.0
809.0
809.0
809.0
807.0
806.0
805.0
803.0
806.0
806.0
806.0
808.0
810.0
807.0
806.0
805.0
803.0
801.0
799.0
799.0
800.0
800.0
800.0
803.0
803.0
803.0
805.0
803.0
802.0
802.0
801.0
802.0
801.0
802.0
804.0
806.0
812.0
811.0
812.0
814.0
816.0
820.0
821.0
822.0
828.0
831.0
837.0
843.0
848.0
851.0
855.0
858.0
861.0
864.0
866.0
870.0
873.0
877.0
879.0
880.0
882.0
881.0
882.0
881.0
876.0
874.0
874.0
872.0
875.0
878.0
877.0
879.0
878.0
876.0
876.0
875.0
872.0
872.0
871.0
869.0
871.0
874.0
874.0
873.0
875.0
874.0
874.0
870.0
872.0
871.0
869.0
871.0
870.0
869.0
873.0
873.0
873.0
871.0
868.0
868.0
867.0
867.0
866.0
865.0
868.0
869.0
869.0
871.0
873.0
871.0
872.0
871.0
869.0
868.0
870.0
870.0
871.0
871.0
874.0
878.0
880.0
881.0
881.0
880.0
882.0
881.0
883.0
884.0
884.0
885.0
887.0
891.0
891.0
892.0
891.0
892.0
890.0
887.0
885.0
884.0
883.0
878.0
879.0
877.0
877.0
876.0
871.0
868.0
866.0
864.0
860.0
858.0
857.0
858.0
860.0
860.0
860.0
859.0
858.0
857.0
853.0
851.0
853.0
852.0
854.0
855.0
857.0
858.0
859.0
859.0
859.0
859.0
855.0
855.0
855.0
857.0
863.0
872.0
887.0
904.0
929.0
956.0
987.0
1014.0
1036.0
1045.0
1040.0
1018.0
992.0
962.0
933.0
905.0
876.0
845.0
817.0
801.0
797.0
800.0
806.0
816.0
825.0
834.0
836.0
840.0
837.0
837.0
836.0
834.0
834.0
833.0
834.0
834.0
834.0
834.0
834.0
835.0
832.0
835.0
833.0
833.0
830.0
828.0
827.0
826.0
826.0
829.0
830.0
830.0
833.0
830.0
828.0
827.0
824.0
820.0
821.0
822.0
818.0
823.0
823.0
824.0
825.0
823.0
818.0
818.0
820.0
817.0
816.0
816.0
816.0
815.0
817.0
815.0
818.0
815.0
814.0
811.0
810.0
807.0
805.0
805.0
803.0
805.0
806.0
807.0
807.0
808.0
804.0
804.0
801.0
799.0
799.0
797.0
798.0
799.0
804.0
804.0
805.0
804.0
806.0
806.0
807.0
806.0
807.0
812.0
813.0
818.0
821.0
827.0
830.0
835.0
838.0
842.0
845.0
847.0
852.0
856.0
860.0
864.0
869.0
872.0
877.0
880.0
881.0
882.0
881.0
880.0
881.0
880.0
882.0
882.0
882.0
884.0
886.0
883.0
880.0
880.0
880.0
877.0
875.0
874.0
877.0
878.0
879.0
881.0
880.0
879.0
877.0
874.0
870.0
869.0
870.0
869.0
869.0
871.0
875.0
870.0
870.0
874.0
872.0
871.0
868.0
867.0
868.0
868.0
867.0
869.0
869.0
871.0
871.0
873.0
872.0
870.0
869.0
868.0
867.0
866.0
867.0
867.0
870.0
872.0
872.0
871.0
871.0
868.0
869.0
865.0
865.0
866.0
870.0
870.0
874.0
877.0
882.0
884.0
883.0
884.0
882.0
882.0
882.0
883.0
884.0
887.0
889.0
893.0
895.0
896.0
895.0
891.0
884.0
886.0
881.0
880.0
877.0
879.0
878.0
879.0
874.0
871.0
869.0
863.0
860.0
859.0
856.0
852.0
851.0
853.0
852.0
856.0
856.0
856.0
855.0
855.0
854.0
851.0
848.0
850.0
848.0
849.0
853.0
855.0
858.0
854.0
855.0
854.0
854.0
853.0
851.0
854.0
861.0
872.0
892.0
915.0
953.0
986.0
1017.0
1035.0
1036.0
1019.0
989.0
957.0
927.0
893.0
861.0
830.0
811.0
805.0
807.0
812.0
821.0
828.0
832.0
837.0
839.0
837.0
835.0
831.0
828.0
830.0
829.0
830.0
831.0
830.0
828.0
828.0
828.0
828.0
827.0
827.0
832.0
830.0
829.0
826.0
826.0
825.0
821.0
822.0
821.0
823.0
824.0
825.0
826.0
824.0
822.0
822.0
820.0
820.0
818.0
815.0
815.0
816.0
815.0
816.0
816.0
816.0
814.0
812.0
810.0
809.0
805.0
806.0
805.0
806.0
805.0
807.0
807.0
807.0
804.0
803.0
798.0
796.0
794.0
796.0
794.0
795.0
796.0
796.0
796.0
795.0
795.0
791.0
791.0
792.0
792.0
790.0
792.0
794.0
795.0
799.0
801.0
802.0
804.0
804.0
803.0
805.0
805.0
809.0
814.0
821.0
823.0
827.0
836.0
839.0
844.0
847.0
848.0
853.0
856.0
858.0
863.0
869.0
866.0
868.0
870.0
874.0
875.0
875.0
874.0
872.0
871.0
871.0
871.0
874.0
874.0
872.0
875.0
872.0
871.0
870.0
869.0
868.0
865.0
864.0
864.0
864.0
866.0
865.0
868.0
866.0
864.0
862.0
861.0
859.0
858.0
856.0
858.0
856.0
859.0
860.0
862.0
861.0
859.0
858.0
857.0
857.0
854.0
852.0
855.0
856.0
857.0
858.0
858.0
858.0
855.0
853.0
854.0
851.0
851.0
850.0
852.0
852.0
854.0
857.0
858.0
856.0
858.0
859.0
862.0
860.0
862.0
865.0
868.0
869.0
871.0
872.0
875.0
875.0
875.0
875.0
874.0
874.0
875.0
876.0
878.0
880.0
879.0
878.0
878.0
877.0
876.0
870.0
868.0
866.0
861.0
858.0
856.0
854.0
852.0
850.0
850.0
849.0
843.0
841.0
841.0
839.0
838.0
838.0
837.0
839.0
839.0
839.0
845.0
845.0
843.0
845.0
843.0
841.0
840.0
841.0
843.0
845.0
847.0
846.0
849.0
850.0
854.0
861.0
876.0
892.0
915.0
942.0
975.0
1001.0
1021.0
1024.0
1008.0
982.0
954.0
921.0
891.0
856.0
824.0
804.0
798.0
803.0
812.0
822.0
833.0
836.0
836.0
833.0
828.0
823.0
820.0
818.0
819.0
820.0
824.0
824.0
825.0
827.0
827.0
823.0
819.0
820.0
820.0
819.0
819.0
820.0
822.0
822.0
824.0
824.0
823.0
822.0
821.0
820.0
817.0
816.0
817.0
818.0
818.0
819.0
820.0
818.0
815.0
815.0
814.0
812.0
810.0
809.0
808.0
808.0
809.0
809.0
811.0
810.0
806.0
807.0
804.0
802.0
803.0
800.0
800.0
801.0
802.0
803.0
803.0
802.0
801.0
800.0
799.0
798.0
797.0
797.0
796.0
798.0
797.0
800.0
800.0
800.0
801.0
801.0
798.0
800.0
799.0
798.0
800.0
806.0
809.0
810.0
814.0
813.0
817.0
820.0
821.0
824.0
827.0
832.0
837.0
841.0
849.0
853.0
861.0
864.0
866.0
867.0
869.0
871.0
872.0
872.0
875.0
876.0
878.0
879.0
879.0
878.0
876.0
876.0
874.0
874.0
873.0
871.0
869.0
872.0
871.0
870.0
873.0
870.0
869.0
868.0
867.0
867.0
865.0
864.0
863.0
863.0
865.0
864.0
865.0
862.0
861.0
861.0
861.0
856.0
856.0
855.0
856.0
859.0
858.0
859.0
861.0
859.0
857.0
857.0
855.0
854.0
849.0
855.0
857.0
859.0
859.0
860.0
863.0
860.0
859.0
859.0
859.0
858.0
860.0
858.0
859.0
861.0
861.0
866.0
867.0
870.0
870.0
871.0
869.0
869.0
870.0
870.0
876.0
876.0
879.0
881.0
882.0
883.0
883.0
884.0
883.0
882.0
880.0
879.0
877.0
873.0
871.0
869.0
867.0
867.0
867.0
865.0
862.0
856.0
852.0
851.0
850.0
848.0
847.0
850.0
849.0
847.0
844.0
844.0
842.0
840.0
842.0
842.0
844.0
844.0
846.0
846.0
848.0
850.0
850.0
846.0
848.0
848.0
847.0
847.0
848.0
851.0
852.0
859.0
867.0
879.0
895.0
916.0
939.0
963.0
992.0
1009.0
1010.0
999.0
974.0
944.0
915.0
883.0
847.0
819.0
799.0
793.0
797.0
803.0
811.0
820.0
827.0
829.0
828.0
829.0
824.0
824.0
823.0
824.0
826.0
824.0
825.0
825.0
824.0
824.0
825.0
821.0
823.0
823.0
823.0
820.0
821.0
819.0
822.0
822.0
823.0
824.0
825.0
823.0
821.0
820.0
820.0
819.0
817.0
814.0
815.0
818.0
819.0
818.0
820.0
819.0
816.0
816.0
811.0
810.0
808.0
808.0
809.0
808.0
809.0
809.0
809.0
808.0
811.0
806.0
808.0
807.0
806.0
805.0
804.0
807.0
806.0
803.0
805.0
806.0
804.0
804.0
800.0
799.0
801.0
801.0
802.0
802.0
805.0
807.0
807.0
808.0
807.0
808.0
807.0
809.0
808.0
809.0
811.0
816.0
818.0
822.0
828.0
831.0
833.0
834.0
838.0
839.0
845.0
850.0
853.0
854.0
860.0
862.0
871.0
872.0
874.0
874.0
874.0
876.0
873.0
872.0
873.0
874.0
875.0
875.0
875.0
875.0
873.0
870.0
870.0
865.0
864.0
864.0
864.0
865.0
868.0
866.0
870.0
866.0
866.0
865.0
864.0
861.0
861.0
859.0
858.0
856.0
858.0
856.0
861.0
860.0
859.0
856.0
854.0
851.0
851.0
847.0
849.0
850.0
852.0
855.0
854.0
853.0
854.0
850.0
848.0
846.0
848.0
847.0
845.0
848.0
852.0
853.0
855.0
856.0
853.0
850.0
851.0
849.0
849.0
849.0
853.0
856.0
858.0
860.0
865.0
864.0
865.0
865.0
864.0
866.0
862.0
863.0
861.0
863.0
867.0
868.0
870.0
872.0
873.0
872.0
869.0
863.0
859.0
858.0
857.0
856.0
855.0
853.0
857.0
853.0
849.0
848.0
844.0
839.0
834.0
832.0
833.0
831.0
829.0
832.0
833.0
831.0
824.0
828.0
828.0
826.0
826.0
824.0
825.0
828.0
831.0
832.0
833.0
832.0
829.0
830.0
828.0
830.0
830.0
834.0
842.0
853.0
871.0
888.0
912.0
938.0
960.0
981.0
993.0
993.0
978.0
954.0
927.0
902.0
874.0
842.0
809.0
784.0
770.0
768.0
770.0
775.0
774.0
774.0
779.0
782.0
789.0
795.0
799.0
804.0
807.0
806.0
803.0
803.0
800.0
798.0
799.0
800.0
802.0
802.0
800.0
797.0
797.0
796.0
794.0
792.0
795.0
791.0
793.0
794.0
795.0
798.0
801.0
800.0
799.0
799.0
796.0
793.0
791.0
790.0
791.0
793.0
793.0
792.0
793.0
794.0
793.0
792.0
789.0
787.0
785.0
782.0
783.0
783.0
785.0
786.0
787.0
789.0
785.0
785.0
782.0
782.0
780.0
780.0
779.0
779.0
781.0
780.0
782.0
779.0
779.0
780.0
779.0
778.0
779.0
779.0
782.0
783.0
783.0
783.0
786.0
783.0
787.0
787.0
788.0
790.0
791.0
793.0
795.0
797.0
799.0
805.0
809.0
812.0
815.0
819.0
823.0
829.0
832.0
834.0
836.0
838.0
841.0
844.0
846.0
850.0
849.0
852.0
851.0
852.0
851.0
850.0
849.0
848.0
847.0
848.0
847.0
847.0
845.0
843.0
841.0
841.0
834.0
832.0
834.0
834.0
835.0
838.0
838.0
840.0
838.0
836.0
834.0
832.0
828.0
825.0
829.0
825.0
826.0
829.0
829.0
833.0
831.0
830.0
830.0
827.0
822.0
821.0
820.0
821.0
823.0
826.0
825.0
827.0
829.0
830.0
826.0
825.0
823.0
822.0
822.0
820.0
822.0
824.0
827.0
828.0
825.0
824.0
823.0
820.0
820.0
821.0
824.0
827.0
833.0
835.0
839.0
840.0
843.0
840.0
841.0
839.0
839.0
836.0
838.0
838.0
842.0
842.0
844.0
849.0
848.0
848.0
846.0
843.0
838.0
834.0
832.0
829.0
829.0
828.0
829.0
826.0
823.0
820.0
815.0
812.0
810.0
809.0
805.0
803.0
805.0
806.0
809.0
809.0
808.0
808.0
810.0
804.0
805.0
804.0
804.0
804.0
805.0
809.0
811.0
814.0
812.0
813.0
815.0
817.0
823.0
834.0
851.0
873.0
901.0
931.0
954.0
976.0
984.0
978.0
960.0
925.0
893.0
863.0
828.0
793.0
760.0
738.0
735.0
741.0
755.0
760.0
761.0
755.0
748.0
746.0
752.0
763.0
768.0
778.0
782.0
786.0
784.0
783.0
778.0
778.0
778.0
778.0
779.0
780.0
782.0
780.0
782.0
779.0
778.0
777.0
779.0
775.0
772.0
771.0
772.0
771.0
773.0
778.0
778.0
779.0
778.0
774.0
770.0
770.0
769.0
767.0
768.0
765.0
768.0
768.0
769.0
773.0
771.0
772.0
770.0
769.0
764.0
762.0
764.0
764.0
760.0
763.0
765.0
767.0
763.0
763.0
762.0
760.0
760.0
759.0
756.0
756.0
757.0
757.0
756.0
759.0
761.0
761.0
763.0
762.0
761.0
760.0
759.0
763.0
764.0
768.0
770.0
771.0
772.0
773.0
774.0
779.0
782.0
784.0
791.0
796.0
799.0
806.0
812.0
818.0
819.0
821.0
823.0
824.0
823.0
825.0
827.0
830.0
834.0
833.0
834.0
834.0
832.0
832.0
828.0
823.0
822.0
820.0
821.0
821.0
821.0
822.0
822.0
825.0
823.0
823.0
821.0
820.0
818.0
817.0
815.0
815.0
815.0
816.0
819.0
820.0
818.0
819.0
817.0
816.0
816.0
813.0
813.0
813.0
815.0
816.0
817.0
818.0
817.0
817.0
817.0
816.0
815.0
811.0
810.0
811.0
811.0
811.0
813.0
815.0
817.0
818.0
817.0
813.0
815.0
815.0
816.0
816.0
818.0
821.0
822.0
823.0
826.0
827.0
827.0
828.0
828.0
826.0
826.0
825.0
827.0
827.0
831.0
836.0
837.0
837.0
838.0
837.0
832.0
831.0
827.0
825.0
826.0
828.0
829.0
829.0
829.0
826.0
819.0
815.0
810.0
809.0
807.0
805.0
807.0
806.0
806.0
806.0
806.0
804.0
801.0
801.0
799.0
799.0
801.0
798.0
799.0
799.0
800.0
801.0
802.0
802.0
801.0
804.0
802.0
807.0
808.0
810.0
818.0
828.0
846.0
869.0
897.0
926.0
956.0
976.0
987.0
977.0
951.0
919.0
884.0
847.0
805.0
768.0
739.0
728.0
734.0
740.0
742.0
743.0
745.0
745.0
753.0
762.0
770.0
779.0
783.0
786.0
785.0
782.0
782.0
781.0
777.0
777.0
782.0
782.0
782.0
783.0
782.0
782.0
783.0
783.0
780.0
779.0
777.0
778.0
777.0
775.0
777.0
780.0
779.0
780.0
778.0
773.0
774.0
774.0
773.0
774.0
777.0
776.0
779.0
778.0
777.0
775.0
772.0
774.0
773.0
772.0
771.0
772.0
772.0
770.0
768.0
770.0
769.0
768.0
769.0
767.0
767.0
764.0
762.0
760.0
762.0
763.0
762.0
766.0
763.0
765.0
764.0
764.0
763.0
764.0
764.0
766.0
767.0
769.0
771.0
770.0
771.0
772.0
771.0
772.0
774.0
774.0
779.0
782.0
787.0
789.0
792.0
797.0
800.0
801.0
805.0
808.0
813.0
814.0
819.0
824.0
829.0
832.0
835.0
837.0
836.0
839.0
840.0
839.0
836.0
835.0
839.0
837.0
838.0
837.0
838.0
838.0
838.0
839.0
836.0
834.0
833.0
832.0
832.0
830.0
830.0
830.0
831.0
831.0
829.0
827.0
824.0
826.0
824.0
822.0
823.0
825.0
826.0
827.0
824.0
825.0
824.0
823.0
821.0
819.0
823.0
822.0
821.0
821.0
821.0
823.0
823.0
825.0
824.0
824.0
822.0
819.0
817.0
817.0
819.0
820.0
821.0
824.0
828.0
829.0
826.0
828.0
825.0
827.0
828.0
830.0
828.0
835.0
838.0
841.0
844.0
843.0
841.0
842.0
840.0
839.0
839.0
839.0
840.0
843.0
845.0
849.0
850.0
853.0
849.0
847.0
845.0
842.0
838.0
837.0
835.0
834.0
834.0
832.0
830.0
828.0
827.0
823.0
820.0
818.0
814.0
812.0
814.0
813.0
816.0
815.0
815.0
816.0
813.0
815.0
813.0
812.0
811.0
810.0
813.0
812.0
813.0
815.0
817.0
816.0
818.0
817.0
817.0
822.0
832.0
843.0
857.0
880.0
908.0
938.0
966.0
990.0
1001.0
1002.0
985.0
956.0
926.0
895.0
862.0
829.0
793.0
765.0
750.0
749.0
754.0
757.0
760.0
762.0
768.0
773.0
775.0
782.0
786.0
792.0
793.0
797.0
794.0
794.0
795.0
793.0
791.0
792.0
791.0
792.0
791.0
792.0
793.0
794.0
793.0
794.0
793.0
793.0
791.0
786.0
787.0
789.0
790.0
791.0
790.0
790.0
788.0
787.0
785.0
784.0
782.0
778.0
780.0
779.0
780.0
780.0
784.0
782.0
783.0
781.0
779.0
778.0
777.0
774.0
773.0
775.0
774.0
775.0
778.0
775.0
774.0
774.0
772.0
771.0
767.0
765.0
766.0
765.0
765.0
765.0
768.0
768.0
768.0
767.0
767.0
766.0
765.0
764.0
764.0
766.0
772.0
772.0
776.0
779.0
779.0
779.0
781.0
782.0
782.0
783.0
787.0
790.0
793.0
798.0
802.0
805.0
810.0
813.0
816.0
819.0
821.0
824.0
829.0
831.0
835.0
838.0
841.0
846.0
843.0
844.0
844.0
845.0
842.0
841.0
838.0
840.0
840.0
843.0
842.0
842.0
841.0
840.0
839.0
839.0
837.0
835.0
835.0
836.0
834.0
833.0
834.0
834.0
833.0
831.0
830.0
832.0
828.0
830.0
827.0
830.0
830.0
832.0
832.0
832.0
830.0
831.0
829.0
828.0
828.0
828.0
828.0
828.0
829.0
829.0
830.0
830.0
829.0
825.0
826.0
824.0
824.0
823.0
823.0
823.0
827.0
826.0
829.0
830.0
831.0
834.0
833.0
836.0
835.0
835.0
837.0
840.0
841.0
841.0
842.0
845.0
848.0
849.0
851.0
851.0
850.0
850.0
845.0
843.0
845.0
843.0
843.0
842.0
839.0
838.0
834.0
831.0
827.0
824.0
822.0
819.0
818.0
819.0
818.0
821.0
818.0
817.0
815.0
814.0
813.0
815.0
815.0
816.0
816.0
817.0
818.0
816.0
819.0
817.0
816.0
815.0
814.0
815.0
814.0
815.0
816.0
819.0
820.0
824.0
831.0
840.0
853.0
869.0
891.0
917.0
945.0
970.0
990.0
1000.0
997.0
981.0
955.0
929.0
902.0
874.0
844.0
813.0
783.0
768.0
761.0
765.0
770.0
778.0
785.0
790.0
794.0
792.0
792.0
791.0
791.0
792.0
795.0
796.0
796.0
797.0
796.0
797.0
795.0
794.0
792.0
791.0
791.0
790.0
791.0
791.0
791.0
794.0
793.0
792.0
793.0
792.0
787.0
789.0
787.0
790.0
790.0
791.0
789.0
791.0
789.0
787.0
788.0
784.0
785.0
784.0
780.0
779.0
780.0
780.0
780.0
781.0
781.0
780.0
778.0
773.0
776.0
773.0
772.0
771.0
775.0
773.0
771.0
772.0
771.0
771.0
771.0
769.0
769.0
768.0
767.0
765.0
762.0
766.0
768.0
766.0
766.0
768.0
768.0
768.0
767.0
767.0
768.0
770.0
776.0
780.0
783.0
786.0
789.0
793.0
795.0
799.0
803.0
806.0
809.0
814.0
820.0
824.0
830.0
835.0
837.0
841.0
841.0
842.0
842.0
842.0
839.0
841.0
843.0
844.0
846.0
847.0
843.0
845.0
842.0
842.0
840.0
840.0
839.0
839.0
840.0
841.0
842.0
843.0
843.0
840.0
838.0
839.0
836.0
836.0
835.0
835.0
835.0
837.0
839.0
838.0
839.0
834.0
833.0
829.0
829.0
827.0
828.0
829.0
830.0
833.0
832.0
832.0
834.0
829.0
831.0
828.0
828.0
828.0
827.0
830.0
833.0
833.0
835.0
837.0
836.0
833.0
833.0
832.0
828.0
829.0
828.0
829.0
826.0
831.0
834.0
840.0
842.0
842.0
842.0
842.0
845.0
844.0
844.0
844.0
848.0
847.0
850.0
851.0
853.0
854.0
855.0
855.0
855.0
855.0
851.0
848.0
848.0
843.0
840.0
838.0
834.0
833.0
832.0
830.0
826.0
824.0
818.0
815.0
815.0
814.0
812.0
813.0
815.0
813.0
813.0
811.0
808.0
808.0
808.0
809.0
808.0
808.0
815.0
817.0
816.0
815.0
815.0
815.0
814.0
812.0
811.0
814.0
815.0
823.0
835.0
849.0
872.0
898.0
929.0
957.0
979.0
991.0
992.0
974.0
950.0
924.0
899.0
871.0
843.0
807.0
781.0
765.0
761.0
762.0
768.0
778.0
785.0
792.0
799.0
798.0
797.0
795.0
791.0
791.0
791.0
789.0
789.0
789.0
791.0
789.0
791.0
792.0
791.0
794.0
792.0
793.0
790.0
790.0
790.0
790.0
790.0
794.0
793.0
794.0
794.0
794.0
793.0
791.0
792.0
786.0
789.0
789.0
789.0
790.0
791.0
789.0
790.0
