# Simple Text Format
# Sampling Rate (Hz):= 360.00
# Resolution:= 12
# Labels:= ECG
995.0
1002.0
1004.0
1005.0
1005.0
1005.0
1006.0
1011.0
1012.0
1013.0
1019.0
1017.0
1018.0
1023.0
1026.0
1033.0
1031.0
1033.0
1034.0
1041.0
1045.0
1048.0
1047.0
1050.0
1054.0
1061.0
1067.0
1071.0
1075.0
1077.0
1080.0
1088.0
1096.0
1101.0
1105.0
1108.0
1112.0
1120.0
1129.0
1132.0
1135.0
1134.0
1141.0
1151.0
1159.0
1161.0
1164.0
1168.0
1172.0
1178.0
1184.0
1189.0
1188.0
1185.0
1183.0
1183.0
1182.0
1174.0
1165.0
1151.0
1142.0
1131.0
1122.0
1110.0
1096.0
1081.0
1066.0
1058.0
1052.0
1040.0
1029.0
1015.0
1007.0
1000.0
998.0
991.0
983.0
978.0
974.0
973.0
971.0
967.0
966.0
961.0
958.0
960.0
960.0
961.0
956.0
954.0
951.0
952.0
954.0
955.0
952.0
951.0
949.0
953.0
956.0
954.0
950.0
949.0
950.0
954.0
958.0
955.0
954.0
952.0
952.0
956.0
957.0
958.0
956.0
955.0
953.0
956.0
959.0
959.0
954.0
952.0
953.0
957.0
959.0
955.0
952.0
949.0
955.0
957.0
958.0
958.0
955.0
952.0
950.0
953.0
955.0
956.0
953.0
950.0
950.0
953.0
954.0
952.0
951.0
950.0
947.0
951.0
951.0
950.0
947.0
944.0
947.0
949.0
952.0
948.0
948.0
944.0
945.0
947.0
948.0
948.0
947.0
947.0
946.0
948.0
950.0
946.0
946.0
942.0
944.0
945.0
948.0
947.0
946.0
944.0
941.0
944.0
948.0
946.0
944.0
946.0
940.0
943.0
948.0
948.0
947.0
944.0
942.0
943.0
947.0
948.0
946.0
940.0
938.0
944.0
949.0
947.0
946.0
941.0
941.0
945.0
946.0
946.0
946.0
941.0
942.0
943.0
947.0
948.0
946.0
943.0
940.0
944.0
946.0
946.0
943.0
943.0
941.0
944.0
946.0
947.0
946.0
943.0
940.0
945.0
946.0
945.0
948.0
943.0
944.0
944.0
946.0
947.0
947.0
939.0
943.0
945.0
948.0
947.0
944.0
942.0
944.0
947.0
947.0
949.0
948.0
946.0
945.0
943.0
946.0
946.0
946.0
945.0
945.0
946.0
951.0
952.0
948.0
947.0
948.0
949.0
953.0
951.0
952.0
949.0
946.0
953.0
960.0
959.0
960.0
961.0
960.0
961.0
966.0
969.0
969.0
966.0
963.0
962.0
966.0
968.0
966.0
963.0
958.0
961.0
961.0
958.0
952.0
949.0
950.0
952.0
953.0
954.0
955.0
950.0
951.0
953.0
955.0
955.0
952.0
953.0
951.0
954.0
959.0
960.0
960.0
955.0
953.0
950.0
940.0
936.0
941.0
961.0
1023.0
1136.0
1263.0
1380.0
1435.0
1413.0
1302.0
1174.0
1046.0
918.0
902.0
931.0
933.0
931.0
931.0
938.0
951.0
962.0
965.0
966.0
970.0
970.0
967.0
968.0
967.0
969.0
975.0
975.0
973.0
973.0
971.0
975.0
976.0
978.0
976.0
974.0
977.0
979.0
981.0
979.0
979.0
978.0
978.0
979.0
983.0
984.0
984.0
986.0
982.0
987.0
988.0
991.0
987.0
985.0
986.0
990.0
995.0
996.0
994.0
991.0
991.0
995.0
1002.0
1002.0
1004.0
1001.0
1002.0
1008.0
1010.0
1013.0
1011.0
1011.0
1015.0
1016.0
1024.0
1024.0
1021.0
1025.0
1027.0
1031.0
1037.0
1039.0
1041.0
1044.0
1048.0
1055.0
1057.0
1063.0
1066.0
1066.0
1072.0
1076.0
1086.0
1091.0
1095.0
1099.0
1102.0
1109.0
1118.0
1125.0
1130.0
1132.0
1137.0
1145.0
1151.0
1157.0
1158.0
1161.0
1168.0
1175.0
1182.0
1184.0
1184.0
1184.0
1184.0
1185.0
1184.0
1181.0
1172.0
1162.0
1150.0
1142.0
1134.0
1123.0
1108.0
1094.0
1081.0
1068.0
1057.0
1046.0
1033.0
1023.0
1015.0
1006.0
1004.0
996.0
990.0
983.0
978.0
978.0
979.0
977.0
971.0
965.0
963.0
967.0
967.0
967.0
964.0
959.0
961.0
963.0
965.0
962.0
963.0
958.0
961.0
959.0
961.0
962.0
961.0
960.0
957.0
961.0
966.0
966.0
964.0
963.0
962.0
963.0
966.0
965.0
964.0
961.0
962.0
963.0
964.0
963.0
962.0
960.0
961.0
964.0
965.0
966.0
965.0
963.0
962.0
965.0
967.0
965.0
965.0
962.0
961.0
964.0
966.0
962.0
964.0
960.0
960.0
959.0
962.0
964.0
962.0
960.0
958.0
958.0
963.0
965.0
958.0
960.0
960.0
961.0
964.0
964.0
959.0
960.0
959.0
960.0
961.0
961.0
960.0
956.0
957.0
957.0
960.0
962.0
958.0
957.0
957.0
960.0
965.0
961.0
959.0
957.0
956.0
960.0
959.0
960.0
961.0
957.0
955.0
958.0
959.0
962.0
961.0
958.0
958.0
959.0
963.0
963.0
961.0
957.0
959.0
958.0
962.0
960.0
960.0
956.0
956.0
959.0
962.0
960.0
959.0
960.0
957.0
960.0
962.0
963.0
961.0
958.0
958.0
956.0
963.0
963.0
962.0
959.0
959.0
960.0
965.0
964.0
959.0
959.0
957.0
960.0
964.0
964.0
960.0
960.0
958.0
963.0
964.0
965.0
964.0
963.0
963.0
963.0
968.0
969.0
965.0
962.0
962.0
964.0
966.0
967.0
965.0
963.0
964.0
967.0
970.0
968.0
968.0
964.0
964.0
963.0
968.0
969.0
969.0
966.0
966.0
967.0
972.0
970.0
969.0
966.0
968.0
969.0
974.0
977.0
974.0
974.0
973.0
979.0
979.0
979.0
978.0
981.0
983.0
987.0
989.0
985.0
983.0
980.0
981.0
982.0
984.0
984.0
982.0
977.0
974.0
973.0
974.0
976.0
972.0
972.0
969.0
972.0
976.0
978.0
975.0
975.0
975.0
975.0
978.0
980.0
978.0
977.0
975.0
978.0
985.0
986.0
985.0
981.0
980.0
977.0
972.0
967.0
960.0
958.0
971.0
1003.0
1059.0
1143.0
1235.0
1322.0
1389.0
1433.0
1443.0
1400.0
1301.0
1173.0
1045.0
922.0
920.0
941.0
952.0
949.0
945.0
944.0
950.0
954.0
962.0
967.0
980.0
985.0
992.0
990.0
990.0
991.0
991.0
994.0
996.0
998.0
997.0
991.0
991.0
996.0
1002.0
1000.0
999.0
997.0
998.0
1002.0
1004.0
1003.0
1000.0
1002.0
998.0
1004.0
1007.0
1008.0
1007.0
1005.0
1006.0
1006.0
1010.0
1012.0
1010.0
1010.0
1010.0
1015.0
1016.0
1017.0
1015.0
1015.0
1014.0
1019.0
1021.0
1021.0
1016.0
1015.0
1018.0
1022.0
1026.0
1028.0
1027.0
1025.0
1027.0
1030.0
1036.0
1038.0
1037.0
1038.0
1035.0
1041.0
1047.0
1047.0
1048.0
1049.0
1051.0
1054.0
1060.0
1061.0
1064.0
1066.0
1071.0
1076.0
1080.0
1084.0
1087.0
1088.0
1091.0
1100.0
1104.0
1109.0
1110.0
1113.0
1118.0
1125.0
1130.0
1134.0
1138.0
1140.0
1145.0
1153.0
1156.0
1162.0
1167.0
1167.0
1173.0
1179.0
1185.0
1189.0
1192.0
1195.0
1199.0
1202.0
1206.0
1208.0
1205.0
1197.0
1199.0
1198.0
1194.0
1186.0
1175.0
1162.0
1150.0
1145.0
1133.0
1123.0
1106.0
1094.0
1083.0
1076.0
1069.0
1058.0
1046.0
1034.0
1026.0
1021.0
1019.0
1014.0
1004.0
998.0
996.0
993.0
993.0
990.0
986.0
982.0
980.0
981.0
984.0
983.0
978.0
977.0
973.0
975.0
976.0
976.0
975.0
971.0
971.0
971.0
974.0
976.0
973.0
968.0
972.0
973.0
976.0
974.0
974.0
970.0
971.0
972.0
976.0
976.0
977.0
975.0
972.0
975.0
977.0
978.0
975.0
973.0
971.0
973.0
980.0
977.0
976.0
974.0
974.0
975.0
976.0
977.0
975.0
973.0
973.0
974.0
976.0
976.0
975.0
972.0
972.0
974.0
975.0
974.0
972.0
972.0
971.0
971.0
973.0
973.0
971.0
969.0
970.0
970.0
972.0
973.0
971.0
966.0
968.0
970.0
972.0
971.0
970.0
963.0
967.0
969.0
968.0
968.0
968.0
965.0
964.0
969.0
969.0
967.0
968.0
966.0
965.0
967.0
970.0
970.0
968.0
962.0
963.0
967.0
969.0
970.0
966.0
965.0
964.0
965.0
969.0
970.0
966.0
966.0
965.0
968.0
971.0
970.0
968.0
965.0
964.0
967.0
970.0
970.0
969.0
965.0
965.0
969.0
968.0
972.0
969.0
966.0
967.0
972.0
973.0
973.0
970.0
967.0
967.0
970.0
972.0
972.0
972.0
970.0
970.0
973.0
977.0
977.0
978.0
975.0
980.0
981.0
983.0
986.0
985.0
984.0
986.0
990.0
992.0
989.0
988.0
983.0
985.0
987.0
987.0
985.0
980.0
978.0
972.0
973.0
974.0
974.0
971.0
969.0
969.0
971.0
973.0
971.0
971.0
968.0
971.0
973.0
976.0
974.0
974.0
970.0
970.0
972.0
974.0
975.0
974.0
972.0
975.0
977.0
975.0
975.0
968.0
961.0
956.0
953.0
957.0
961.0
976.0
1011.0
1080.0
1168.0
1262.0
1341.0
1400.0
1427.0
1419.0
1368.0
1265.0
1137.0
1009.0
922.0
916.0
935.0
946.0
943.0
940.0
937.0
939.0
946.0
953.0
964.0
967.0
973.0
981.0
985.0
988.0
987.0
987.0
982.0
983.0
987.0
992.0
991.0
991.0
986.0
986.0
990.0
993.0
993.0
989.0
987.0
990.0
992.0
996.0
995.0
993.0
993.0
991.0
994.0
996.0
995.0
994.0
994.0
991.0
995.0
999.0
1000.0
995.0
995.0
997.0
996.0
1000.0
1003.0
999.0
1003.0
1000.0
1001.0
1010.0
1008.0
1009.0
1008.0
1008.0
1008.0
1012.0
1016.0
1017.0
1011.0
1015.0
1017.0
1023.0
1025.0
1019.0
1020.0
1022.0
1028.0
1030.0
1033.0
1032.0
1030.0
1035.0
1038.0
1042.0
1044.0
1042.0
1047.0
1048.0
1052.0
1058.0
1061.0
1062.0
1065.0
1070.0
1075.0
1085.0
1087.0
1087.0
1091.0
1096.0
1104.0
1113.0
1116.0
1120.0
1122.0
1127.0
1134.0
1139.0
1146.0
1149.0
1152.0
1157.0
1164.0
1170.0
1172.0
1179.0
1179.0
1179.0
1188.0
1194.0
1194.0
1189.0
1186.0
1187.0
1187.0
1183.0
1174.0
1164.0
1153.0
1144.0
1133.0
1122.0
1113.0
1097.0
1083.0
1072.0
1063.0
1053.0
1043.0
1032.0
1020.0
1013.0
1007.0
1002.0
996.0
988.0
980.0
976.0
975.0
977.0
973.0
969.0
965.0
963.0
964.0
964.0
961.0
957.0
953.0
954.0
958.0
960.0
959.0
952.0
950.0
951.0
954.0
957.0
955.0
954.0
952.0
947.0
955.0
956.0
957.0
954.0
953.0
951.0
953.0
958.0
954.0
954.0
952.0
953.0
955.0
957.0
956.0
954.0
953.0
955.0
959.0
960.0
960.0
956.0
954.0
954.0
956.0
960.0
960.0
955.0
955.0
954.0
957.0
960.0
957.0
955.0
950.0
949.0
955.0
958.0
956.0
952.0
949.0
950.0
950.0
955.0
954.0
950.0
948.0
947.0
949.0
952.0
951.0
950.0
944.0
947.0
951.0
953.0
951.0
946.0
946.0
944.0
946.0
947.0
947.0
946.0
941.0
941.0
945.0
946.0
946.0
944.0
942.0
943.0
944.0
949.0
946.0
945.0
942.0
944.0
945.0
949.0
946.0
942.0
939.0
942.0
941.0
944.0
945.0
942.0
940.0
938.0
940.0
946.0
946.0
943.0
940.0
938.0
941.0
947.0
947.0
943.0
938.0
937.0
943.0
945.0
943.0
944.0
941.0
941.0
943.0
946.0
944.0
939.0
937.0
938.0
940.0
942.0
943.0
940.0
937.0
935.0
940.0
945.0
943.0
941.0
940.0
939.0
943.0
944.0
939.0
940.0
936.0
937.0
942.0
944.0
943.0
938.0
939.0
940.0
942.0
946.0
944.0
940.0
938.0
940.0
946.0
949.0
949.0
951.0
950.0
950.0
953.0
959.0
961.0
957.0
956.0
955.0
959.0
964.0
966.0
963.0
960.0
957.0
962.0
965.0
963.0
959.0
955.0
953.0
952.0
956.0
953.0
950.0
948.0
947.0
950.0
950.0
952.0
949.0
949.0
951.0
953.0
956.0
955.0
955.0
953.0
955.0
958.0
959.0
960.0
960.0
961.0
962.0
963.0
963.0
958.0
950.0
944.0
940.0
939.0
950.0
971.0
1011.0
1076.0
1168.0
1269.0
1354.0
1413.0
1436.0
1419.0
1351.0
1223.0
1095.0
967.0
900.0
915.0
935.0
943.0
943.0
942.0
943.0
947.0
958.0
971.0
982.0
988.0
987.0
987.0
985.0
988.0
990.0
991.0
993.0
990.0
989.0
994.0
1000.0
1001.0
999.0
996.0
1000.0
1002.0
1007.0
1006.0
1006.0
1005.0
1006.0
1009.0
1011.0
1012.0
1014.0
1011.0
1011.0
1013.0
1020.0
1017.0
1018.0
1017.0
1020.0
1021.0
1025.0
1026.0
1025.0
1023.0
1026.0
1030.0
1033.0
1036.0
1034.0
1033.0
1035.0
1040.0
1042.0
1042.0
1043.0
1039.0
1045.0
1050.0
1055.0
1057.0
1058.0
1056.0
1058.0
1062.0
1066.0
1069.0
1071.0
1072.0
1073.0
1080.0
1085.0
1089.0
1091.0
1092.0
1097.0
1102.0
1107.0
1110.0
1113.0
1116.0
1121.0
1127.0
1133.0
1139.0
1144.0
1146.0
1149.0
1159.0
1168.0
1169.0
1176.0
1179.0
1184.0
1191.0
1197.0
1203.0
1208.0
1211.0
1215.0
1222.0
1230.0
1237.0
1238.0
1239.0
1241.0
1244.0
1249.0
1246.0
1243.0
1235.0
1226.0
1223.0
1216.0
1203.0
1189.0
1176.0
1161.0
1155.0
1150.0
1134.0
1123.0
1110.0
1098.0
1095.0
1090.0
1087.0
1075.0
1070.0
1063.0
1062.0
1063.0
1058.0
1055.0
1049.0
1050.0
1049.0
1052.0
1051.0
1048.0
1046.0
1045.0
1047.0
1050.0
1047.0
1044.0
1044.0
1046.0
1046.0
1049.0
1049.0
1049.0
1044.0
1046.0
1049.0
1052.0
1052.0
1049.0
1048.0
1050.0
1055.0
1054.0
1053.0
1055.0
1053.0
1053.0
1054.0
1057.0
1059.0
1059.0
1056.0
1058.0
1059.0
1064.0
1063.0
1062.0
1059.0
1060.0
1063.0
1066.0
1068.0
1067.0
1064.0
1063.0
1066.0
1070.0
1070.0
1067.0
1065.0
1065.0
1070.0
1071.0
1070.0
1068.0
1066.0
1066.0
1067.0
1071.0
1068.0
1068.0
1067.0
1066.0
1071.0
1073.0
1071.0
1070.0
1069.0
1067.0
1071.0
1076.0
1075.0
1072.0
1072.0
1071.0
1075.0
1077.0
1077.0
1075.0
1074.0
1072.0
1073.0
1078.0
1080.0
1077.0
1075.0
1074.0
1077.0
1081.0
1080.0
1078.0
1075.0
1077.0
1078.0
1082.0
1083.0
1080.0
1080.0
1078.0
1082.0
1088.0
1086.0
1083.0
1083.0
1081.0
1082.0
1086.0
1088.0
1086.0
1085.0
1086.0
1087.0
1091.0
1093.0
1091.0
1086.0
1086.0
1089.0
1091.0
1094.0
1090.0
1088.0
1088.0
1091.0
1095.0
1093.0
1091.0
1091.0
1090.0
1094.0
1096.0
1095.0
1091.0
1092.0
1092.0
1093.0
1099.0
1098.0
1096.0
1095.0
1096.0
1099.0
1101.0
1099.0
1097.0
1097.0
1097.0
1102.0
1103.0
1100.0
1097.0
1098.0
1099.0
1101.0
1105.0
1106.0
1099.0
1099.0
1100.0
1105.0
1107.0
1105.0
1105.0
1103.0
1098.0
1102.0
1106.0
1101.0
1103.0
1103.0
1105.0
1107.0
1108.0
1110.0
1104.0
1104.0
1108.0
1111.0
1114.0
1115.0
1115.0
1113.0
1114.0
1118.0
1126.0
1125.0
1118.0
1118.0
1122.0
1126.0
1128.0
1127.0
1122.0
1121.0
1121.0
1123.0
1128.0
1125.0
1122.0
1116.0
1116.0
1118.0
1116.0
1114.0
1111.0
1110.0
1112.0
1106.0
1111.0
1114.0
1115.0
1108.0
1111.0
1115.0
1118.0
1118.0
1116.0
1111.0
1112.0
1115.0
1117.0
1114.0
1113.0
1116.0
1117.0
1119.0
1120.0
1115.0
1107.0
1097.0
1092.0
1093.0
1096.0
1106.0
1128.0
1169.0
1235.0
1316.0
1393.0
1450.0
1479.0
1484.0
1468.0
1418.0
1316.0
1188.0
1069.0
1045.0
1068.0
1093.0
1099.0
1091.0
1091.0
1092.0
1096.0
1110.0
1124.0
1130.0
1129.0
1131.0
1132.0
1135.0
1137.0
1138.0
1135.0
1132.0
1135.0
1137.0
1138.0
1138.0
1139.0
1137.0
1137.0
1138.0
1142.0
1142.0
1140.0
1138.0
1137.0
1140.0
1142.0
1142.0
1141.0
1140.0
1136.0
1140.0
1140.0
1144.0
1141.0
1139.0
1137.0
1145.0
1148.0
1145.0
1145.0
1142.0
1144.0
1143.0
1145.0
1147.0
1143.0
1144.0
1142.0
1149.0
1153.0
1152.0
1150.0
1149.0
1150.0
1154.0
1157.0
1159.0
1155.0
1154.0
1160.0
1160.0
1166.0
1166.0
1168.0
1168.0
1169.0
1173.0
1177.0
1181.0
1182.0
1182.0
1184.0
1188.0
1194.0
1193.0
1201.0
1201.0
1204.0
1209.0
1216.0
1222.0
1225.0
1229.0
1233.0
1238.0
1246.0
1249.0
1256.0
1257.0
1257.0
1266.0
1272.0
1278.0
1281.0
1285.0
1284.0
1291.0
1300.0
1302.0
1303.0
1301.0
1298.0
1298.0
1295.0
1285.0
1272.0
1260.0
1252.0
1243.0
1233.0
1221.0
1205.0
1192.0
1179.0
1171.0
1166.0
1154.0
1141.0
1129.0
1127.0
1121.0
1119.0
1115.0
1109.0
1105.0
1101.0
1099.0
1101.0
1097.0
1090.0
1089.0
1085.0
1084.0
1086.0
1087.0
1082.0
1080.0
1079.0
1083.0
1084.0
1078.0
1076.0
1074.0
1075.0
1075.0
1079.0
1076.0
1075.0
1072.0
1072.0
1075.0
1076.0
1073.0
1070.0
1069.0
1071.0
1072.0
1076.0
1076.0
1070.0
1068.0
1070.0
1074.0
1071.0
1069.0
1066.0
1067.0
1066.0
1071.0
1071.0
1072.0
1070.0
1067.0
1066.0
1070.0
1067.0
1070.0
1063.0
1063.0
1062.0
1064.0
1064.0
1065.0
1060.0
1057.0
1055.0
1059.0
1061.0
1060.0
1055.0
1054.0
1054.0
1056.0
1058.0
1059.0
1053.0
1051.0
1052.0
1052.0
1054.0
1055.0
1047.0
1049.0
1047.0
1047.0
1049.0
1048.0
1045.0
1044.0
1046.0
1046.0
1050.0
1046.0
1046.0
1041.0
1041.0
1043.0
1044.0
1041.0
1041.0
1037.0
1038.0
1040.0
1043.0
1041.0
1038.0
1032.0
1038.0
1039.0
1043.0
1039.0
1038.0
1036.0
1035.0
1033.0
1040.0
1037.0
1033.0
1032.0
1033.0
1038.0
1038.0
1037.0
1033.0
1031.0
1031.0
1033.0
1035.0
1032.0
1031.0
1029.0
1028.0
1032.0
1035.0
1031.0
1030.0
1028.0
1027.0
1030.0
1031.0
1029.0
1027.0
1026.0
1026.0
1025.0
1029.0
1028.0
1023.0
1022.0
1021.0
1020.0
1022.0
1022.0
1019.0
1018.0
1019.0
1020.0
1021.0
1023.0
1020.0
1018.0
1019.0
1019.0
1023.0
1022.0
1021.0
1017.0
1020.0
1018.0
1023.0
1021.0
1018.0
1016.0
1019.0
1021.0
1025.0
1023.0
1023.0
1021.0
1023.0
1024.0
1025.0
1025.0
1022.0
1026.0
1022.0
1027.0
1026.0
1026.0
1023.0
1024.0
1019.0
1019.0
1022.0
1018.0
1015.0
1009.0
1009.0
1011.0
1011.0
1010.0
1008.0
1007.0
1005.0
1007.0
1010.0
1008.0
1005.0
1005.0
1006.0
1005.0
1011.0
1009.0
1007.0
1006.0
1004.0
1006.0
1010.0
1007.0
1004.0
996.0
986.0
982.0
982.0
981.0
986.0
1005.0
1047.0
1121.0
1206.0
1288.0
1344.0
1369.0
1368.0
1334.0
1253.0
1125.0
997.0
922.0
935.0
964.0
977.0
971.0
964.0
962.0
969.0
976.0
989.0
996.0
1005.0
1005.0
1007.0
1008.0
1009.0
1008.0
1007.0
1004.0
1006.0
1008.0
1010.0
1011.0
1007.0
1004.0
1008.0
1009.0
1013.0
1010.0
1010.0
1009.0
1009.0
1010.0
1016.0
1016.0
1014.0
1013.0
1012.0
1016.0
1017.0
1017.0
1014.0
1013.0
1014.0
1015.0
1020.0
1016.0
1014.0
1016.0
1015.0
1018.0
1019.0
1022.0
1019.0
1015.0
1016.0
1022.0
1024.0
1025.0
1024.0
1022.0
1021.0
1025.0
1029.0
1030.0
1030.0
1030.0
1028.0
1032.0
1039.0
1038.0
1038.0
1039.0
1040.0
1041.0
1049.0
1050.0
1049.0
1051.0
1054.0
1058.0
1065.0
1068.0
1069.0
1072.0
1076.0
1083.0
1090.0
1094.0
1098.0
1099.0
1102.0
1110.0
1118.0
1121.0
1124.0
1128.0
1133.0
1140.0
1147.0
1154.0
1155.0
1155.0
1160.0
1165.0
1173.0
1173.0
1171.0
1172.0
1168.0
1167.0
1165.0
1157.0
1146.0
1131.0
1122.0
1111.0
1100.0
1087.0
1071.0
1056.0
1042.0
1037.0
1030.0
1018.0
1007.0
998.0
991.0
987.0
985.0
981.0
973.0
968.0
965.0
967.0
966.0
964.0
959.0
956.0
953.0
956.0
956.0
954.0
951.0
945.0
946.0
948.0
947.0
949.0
944.0
940.0
942.0
944.0
947.0
945.0
943.0
940.0
940.0
940.0
945.0
945.0
941.0
938.0
939.0
940.0
943.0
942.0
940.0
936.0
933.0
936.0
940.0
942.0
939.0
937.0
940.0
942.0
944.0
940.0
939.0
936.0
937.0
938.0
939.0
936.0
936.0
934.0
932.0
932.0
936.0
935.0
929.0
931.0
929.0
931.0
934.0
933.0
927.0
926.0
922.0
927.0
930.0
928.0
925.0
922.0
922.0
922.0
926.0
927.0
923.0
921.0
920.0
924.0
923.0
923.0
919.0
917.0
916.0
920.0
921.0
922.0
919.0
915.0
915.0
918.0
920.0
919.0
918.0
915.0
913.0
915.0
917.0
918.0
918.0
913.0
910.0
911.0
915.0
916.0
912.0
907.0
907.0
909.0
908.0
910.0
908.0
908.0
906.0
909.0
913.0
910.0
906.0
906.0
905.0
910.0
910.0
911.0
908.0
906.0
906.0
908.0
906.0
910.0
908.0
908.0
906.0
914.0
918.0
920.0
917.0
915.0
915.0
921.0
924.0
922.0
916.0
911.0
914.0
914.0
918.0
913.0
908.0
903.0
902.0
900.0
906.0
902.0
899.0
896.0
897.0
898.0
902.0
902.0
898.0
897.0
897.0
897.0
901.0
901.0
897.0
901.0
901.0
904.0
903.0
905.0
902.0
894.0
889.0
883.0
878.0
876.0
878.0
889.0
926.0
983.0
1063.0
1150.0
1225.0
1283.0
1315.0
1316.0
1279.0
1185.0
1057.0
929.0
836.0
829.0
853.0
867.0
863.0
855.0
859.0
864.0
874.0
880.0
889.0
896.0
903.0
909.0
910.0
910.0
909.0
905.0
906.0
909.0
912.0
912.0
910.0
907.0
909.0
913.0
914.0
914.0
912.0
911.0
909.0
914.0
918.0
916.0
913.0
912.0
913.0
915.0
920.0
920.0
917.0
914.0
915.0
917.0
921.0
924.0
919.0
920.0
920.0
924.0
927.0
926.0
922.0
917.0
923.0
925.0
926.0
926.0
928.0
923.0
926.0
929.0
931.0
934.0
933.0
929.0
931.0
935.0
939.0
940.0
939.0
937.0
939.0
945.0
951.0
950.0
948.0
950.0
953.0
957.0
961.0
964.0
965.0
964.0
966.0
971.0
978.0
981.0
983.0
984.0
990.0
997.0
1002.0
1007.0
1009.0
1009.0
1017.0
1022.0
1030.0
1034.0
1035.0
1040.0
1042.0
1049.0
1054.0
1066.0
1066.0
1065.0
1073.0
1079.0
1087.0
1089.0
1092.0
1093.0
1096.0
1100.0
1105.0
1101.0
1096.0
1093.0
1085.0
1079.0
1075.0
1066.0
1052.0
1037.0
1028.0
1021.0
1010.0
996.0
984.0
973.0
960.0
954.0
946.0
936.0
927.0
918.0
911.0
907.0
904.0
899.0
892.0
884.0
883.0
883.0
882.0
879.0
873.0
870.0
870.0
872.0
872.0
867.0
867.0
865.0
866.0
867.0
867.0
866.0
862.0
862.0
860.0
864.0
865.0
866.0
863.0
858.0
860.0
864.0
866.0
866.0
863.0
861.0
860.0
863.0
867.0
864.0
864.0
862.0
860.0
864.0
866.0
867.0
862.0
859.0
859.0
864.0
866.0
866.0
860.0
860.0
861.0
864.0
866.0
866.0
864.0
857.0
861.0
861.0
865.0
863.0
863.0
857.0
857.0
858.0
859.0
862.0
859.0
853.0
855.0
856.0
861.0
858.0
858.0
854.0
854.0
857.0
859.0
856.0
853.0
850.0
851.0
853.0
855.0
856.0
853.0
848.0
851.0
853.0
852.0
855.0
850.0
849.0
849.0
852.0
853.0
853.0
849.0
847.0
847.0
848.0
851.0
853.0
848.0
845.0
845.0
847.0
852.0
850.0
849.0
846.0
843.0
847.0
851.0
848.0
851.0
845.0
844.0
849.0
849.0
847.0
844.0
843.0
843.0
847.0
849.0
845.0
843.0
841.0
842.0
845.0
848.0
847.0
843.0
843.0
844.0
845.0
846.0
847.0
845.0
844.0
842.0
843.0
845.0
848.0
842.0
842.0
841.0
843.0
844.0
844.0
845.0
842.0
841.0
841.0
849.0
845.0
841.0
842.0
841.0
842.0
844.0
843.0
838.0
837.0
840.0
841.0
844.0
844.0
841.0
839.0
841.0
843.0
846.0
845.0
842.0
840.0
838.0
841.0
844.0
843.0
841.0
838.0
841.0
842.0
846.0
844.0
840.0
840.0
839.0
844.0
848.0
847.0
845.0
845.0
847.0
852.0
858.0
856.0
854.0
850.0
852.0
858.0
863.0
862.0
856.0
854.0
855.0
857.0
860.0
858.0
854.0
850.0
849.0
850.0
848.0
847.0
843.0
841.0
843.0
843.0
845.0
847.0
844.0
844.0
842.0
848.0
849.0
846.0
846.0
843.0
845.0
849.0
852.0
850.0
848.0
845.0
850.0
851.0
854.0
852.0
846.0
836.0
831.0
828.0
832.0
835.0
847.0
873.0
925.0
1008.0
1099.0
1181.0
1248.0
1290.0
1306.0
1291.0
1225.0
1102.0
974.0
846.0
782.0
796.0
815.0
821.0
815.0
809.0
812.0
820.0
830.0
838.0
842.0
847.0
853.0
854.0
857.0
857.0
857.0
855.0
856.0
859.0
861.0
859.0
859.0
856.0
857.0
863.0
862.0
866.0
863.0
861.0
863.0
865.0
867.0
864.0
865.0
865.0
865.0
867.0
868.0
869.0
866.0
865.0
867.0
867.0
872.0
872.0
870.0
870.0
869.0
875.0
879.0
875.0
876.0
876.0
872.0
876.0
880.0
883.0
881.0
878.0
882.0
884.0
888.0
887.0
886.0
884.0
888.0
890.0
894.0
897.0
896.0
894.0
894.0
897.0
906.0
903.0
902.0
905.0
905.0
912.0
915.0
918.0
918.0
920.0
924.0
929.0
934.0
937.0
939.0
940.0
944.0
950.0
958.0
961.0
963.0
967.0
971.0
981.0
987.0
991.0
995.0
999.0
1004.0
1011.0
1019.0
1024.0
1026.0
1029.0
1032.0
1038.0
1045.0
1053.0
1053.0
1053.0
1059.0
1065.0
1070.0
1069.0
1065.0
1061.0
1061.0
1061.0
1059.0
1050.0
1039.0
1028.0
1017.0
1009.0
1000.0
986.0
972.0
959.0
949.0
941.0
934.0
923.0
912.0
899.0
893.0
890.0
886.0
876.0
870.0
865.0
860.0
860.0
860.0
856.0
849.0
847.0
849.0
849.0
851.0
847.0
842.0
842.0
841.0
843.0
844.0
845.0
842.0
839.0
839.0
840.0
843.0
844.0
841.0
842.0
839.0
842.0
843.0
848.0
845.0
840.0
844.0
845.0
851.0
848.0
847.0
842.0
844.0
844.0
847.0
849.0
847.0
842.0
844.0
847.0
850.0
849.0
847.0
845.0
847.0
850.0
853.0
851.0
850.0
847.0
847.0
851.0
851.0
847.0
846.0
846.0
845.0
846.0
851.0
850.0
847.0
846.0
846.0
847.0
848.0
846.0
841.0
843.0
847.0
848.0
849.0
850.0
846.0
842.0
843.0
846.0
848.0
849.0
845.0
843.0
842.0
846.0
849.0
847.0
847.0
843.0
845.0
845.0
846.0
847.0
846.0
845.0
845.0
846.0
849.0
848.0
844.0
844.0
844.0
845.0
847.0
849.0
845.0
843.0
845.0
848.0
851.0
850.0
848.0
845.0
847.0
850.0
852.0
850.0
847.0
847.0
848.0
850.0
852.0
850.0
849.0
848.0
846.0
851.0
853.0
853.0
852.0
849.0
849.0
854.0
858.0
852.0
853.0
850.0
849.0
851.0
857.0
856.0
852.0
851.0
853.0
856.0
858.0
858.0
854.0
854.0
854.0
858.0
860.0
859.0
856.0
856.0
856.0
858.0
862.0
859.0
859.0
858.0
855.0
858.0
863.0
860.0
860.0
857.0
859.0
862.0
864.0
863.0
862.0
860.0
859.0
859.0
863.0
863.0
862.0
859.0
860.0
865.0
866.0
867.0
862.0
862.0
860.0
865.0
868.0
867.0
864.0
863.0
866.0
867.0
870.0
871.0
870.0
870.0
871.0
877.0
882.0
880.0
877.0
874.0
878.0
885.0
887.0
887.0
883.0
880.0
882.0
884.0
888.0
884.0
881.0
877.0
877.0
876.0
878.0
875.0
870.0
870.0
870.0
874.0
876.0
878.0
874.0
873.0
875.0
873.0
878.0
880.0
880.0
877.0
879.0
881.0
884.0
887.0
885.0
883.0
886.0
887.0
886.0
880.0
872.0
864.0
860.0
870.0
892.0
930.0
993.0
1080.0
1179.0
1268.0
1329.0
1356.0
1350.0
1299.0
1202.0
1074.0
946.0
849.0
833.0
844.0
860.0
858.0
860.0
858.0
860.0
864.0
873.0
883.0
891.0
901.0
901.0
898.0
898.0
901.0
903.0
901.0
900.0
900.0
901.0
904.0
908.0
908.0
906.0
905.0
906.0
909.0
912.0
911.0
908.0
909.0
908.0
913.0
917.0
917.0
915.0
912.0
915.0
915.0
921.0
918.0
918.0
917.0
917.0
921.0
923.0
923.0
922.0
920.0
921.0
923.0
930.0
931.0
928.0
924.0
928.0
931.0
934.0
934.0
934.0
933.0
935.0
940.0
942.0
943.0
941.0
943.0
945.0
951.0
953.0
954.0
947.0
949.0
953.0
959.0
962.0
962.0
960.0
962.0
965.0
971.0
975.0
977.0
980.0
980.0
984.0
991.0
998.0
1001.0
1002.0
1003.0
1008.0
1015.0
1023.0
1027.0
1029.0
1031.0
1037.0
1046.0
1054.0
1058.0
1060.0
1064.0
1070.0
1076.0
1084.0
1089.0
1091.0
1094.0
1097.0
1108.0
1115.0
1121.0
1123.0
1125.0
1126.0
1134.0
1137.0
1135.0
1131.0
1125.0
1122.0
1116.0
1113.0
1103.0
1090.0
1076.0
1061.0
1051.0
1043.0
1029.0
1013.0
999.0
991.0
984.0
976.0
967.0
956.0
949.0
942.0
941.0
940.0
935.0
927.0
923.0
919.0
921.0
922.0
921.0
915.0
914.0
914.0
917.0
920.0
917.0
914.0
911.0
910.0
914.0
915.0
915.0
911.0
910.0
914.0
916.0
919.0
918.0
915.0
915.0
915.0
918.0
921.0
920.0
916.0
915.0
913.0
919.0
922.0
921.0
919.0
917.0
918.0
923.0
925.0
922.0
919.0
919.0
919.0
922.0
926.0
925.0
923.0
922.0
922.0
923.0
927.0
925.0
922.0
922.0
924.0
924.0
925.0
926.0
922.0
921.0
922.0
924.0
927.0
927.0
924.0
921.0
922.0
923.0
929.0
925.0
926.0
921.0
921.0
925.0
926.0
927.0
924.0
921.0
919.0
923.0
926.0
926.0
925.0
923.0
924.0
927.0
927.0
928.0
926.0
925.0
925.0
928.0
927.0
928.0
927.0
925.0
926.0
928.0
927.0
930.0
927.0
927.0
926.0
930.0
933.0
931.0
930.0
928.0
930.0
930.0
932.0
929.0
926.0
926.0
929.0
933.0
935.0
934.0
933.0
932.0
