# Simple Text Format
# Sampling Rate (Hz):= 360.00
# Resolution:= 12
# Labels:= ECG
1010.0
1015.0
1013.0
1017.0
1013.0
1011.0
1010.0
1012.0
1013.0
1018.0
1016.0
1013.0
1010.0
1009.0
1013.0
1017.0
1016.0
1014.0
1010.0
1011.0
1015.0
1017.0
1014.0
1012.0
1009.0
1007.0
1012.0
1017.0
1012.0
1011.0
1008.0
1008.0
1010.0
1011.0
1011.0
1008.0
1007.0
1007.0
1012.0
1015.0
1012.0
1008.0
1008.0
1008.0
1009.0
1014.0
1012.0
1010.0
1011.0
1012.0
1014.0
1012.0
1013.0
1010.0
1009.0
1010.0
1013.0
1015.0
1013.0
1012.0
1010.0
1009.0
1012.0
1013.0
1014.0
1012.0
1009.0
1010.0
1013.0
1016.0
1014.0
1011.0
1011.0
1010.0
1012.0
1015.0
1014.0
1013.0
1011.0
1012.0
1016.0
1016.0
1016.0
1015.0
1015.0
1018.0
1018.0
1025.0
1024.0
1021.0
1020.0
1021.0
1023.0
1028.0
1026.0
1022.0
1020.0
1020.0
1022.0
1024.0
1022.0
1020.0
1016.0
1019.0
1021.0
1024.0
1022.0
1021.0
1019.0
1023.0
1026.0
1027.0
1026.0
1022.0
1020.0
1019.0
1020.0
1018.0
1016.0
1014.0
1012.0
1014.0
1017.0
1019.0
1016.0
1011.0
1011.0
1014.0
1013.0
1018.0
1017.0
1012.0
1010.0
1011.0
1014.0
1018.0
1018.0
1013.0
1009.0
1012.0
1016.0
1018.0
1018.0
1014.0
1013.0
1015.0
1019.0
1020.0
1021.0
1018.0
1015.0
1021.0
1026.0
1031.0
1034.0
1036.0
1048.0
1060.0
1074.0
1087.0
1101.0
1121.0
1151.0
1182.0
1215.0
1248.0
1277.0
1308.0
1339.0
1382.0
1422.0
1442.0
1433.0
1390.0
1308.0
1208.0
1122.0
1066.0
1032.0
1015.0
1008.0
1012.0
1015.0
1017.0
1015.0
1012.0
1006.0
1005.0
1005.0
1003.0
999.0
998.0
992.0
993.0
995.0
995.0
995.0
993.0
991.0
990.0
994.0
994.0
993.0
990.0
989.0
990.0
989.0
990.0
989.0
987.0
985.0
986.0
986.0
991.0
986.0
987.0
982.0
982.0
984.0
985.0
986.0
984.0
982.0
982.0
984.0
983.0
985.0
982.0
980.0
981.0
983.0
987.0
984.0
982.0
978.0
980.0
982.0
987.0
987.0
984.0
980.0
983.0
984.0
986.0
987.0
985.0
982.0
983.0
986.0
992.0
986.0
987.0
986.0
989.0
990.0
997.0
998.0
996.0
994.0
997.0
1002.0
1007.0
1009.0
1008.0
1010.0
1008.0
1018.0
1026.0
1026.0
1029.0
1030.0
1035.0
1040.0
1046.0
1049.0
1047.0
1049.0
1051.0
1052.0
1054.0
1051.0
1050.0
1048.0
1045.0
1047.0
1046.0
1042.0
1041.0
1033.0
1034.0
1032.0
1034.0
1030.0
1026.0
1025.0
1025.0
1025.0
1026.0
1027.0
1023.0
1019.0
1018.0
1022.0
1022.0
1023.0
1020.0
1019.0
1018.0
1019.0
1021.0
1019.0
1016.0
1017.0
1015.0
1016.0
1017.0
1016.0
1013.0
1015.0
1014.0
1016.0
1016.0
1014.0
1013.0
1012.0
1011.0
1014.0
1018.0
1015.0
1012.0
1010.0
1012.0
1013.0
1015.0
1012.0
1013.0
1011.0
1011.0
1015.0
1019.0
1017.0
1013.0
1013.0
1012.0
1017.0
1019.0
1017.0
1014.0
1012.0
1014.0
1017.0
1020.0
1017.0
1014.0
1010.0
1013.0
1014.0
1018.0
1016.0
1014.0
1011.0
1012.0
1015.0
1016.0
1013.0
1010.0
1008.0
1011.0
1012.0
1015.0
1012.0
1010.0
1010.0
1009.0
1013.0
1014.0
1012.0
1010.0
1009.0
1010.0
1011.0
1013.0
1012.0
1010.0
1009.0
1009.0
1011.0
1011.0
1013.0
1009.0
1006.0
1008.0
1011.0
1013.0
1015.0
1011.0
1008.0
1008.0
1012.0
1013.0
1011.0
1011.0
1010.0
1008.0
1010.0
1012.0
1013.0
1011.0
1008.0
1009.0
1010.0
1012.0
1012.0
1011.0
1007.0
1008.0
1011.0
1014.0
1012.0
1012.0
1009.0
1008.0
1011.0
1014.0
1013.0
1011.0
1010.0
1010.0
1013.0
1014.0
1011.0
1010.0
1006.0
1009.0
1012.0
1013.0
1013.0
1011.0
1010.0
1009.0
1011.0
1013.0
1014.0
1012.0
1010.0
1011.0
1013.0
1017.0
1014.0
1016.0
1014.0
1018.0
1020.0
1024.0
1024.0
1021.0
1020.0
1022.0
1024.0
1027.0
1027.0
1024.0
1024.0
1025.0
1026.0
1026.0
1024.0
1021.0
1018.0
1020.0
1018.0
1023.0
1022.0
1023.0
1020.0
1021.0
1023.0
1026.0
1025.0
1022.0
1023.0
1023.0
1024.0
1025.0
1021.0
1014.0
1013.0
1015.0
1015.0
1017.0
1016.0
1015.0
1013.0
1011.0
1014.0
1017.0
1016.0
1014.0
1012.0
1013.0
1013.0
1016.0
1014.0
1012.0
1011.0
1010.0
1014.0
1016.0
1016.0
1013.0
1011.0
1010.0
1015.0
1016.0
1017.0
1014.0
1012.0
1013.0
1016.0
1021.0
1019.0
1022.0
1021.0
1028.0
1035.0
1046.0
1055.0
1065.0
1072.0
1090.0
1111.0
1139.0
1167.0
1197.0
1226.0
1259.0
1290.0
1320.0
1354.0
1394.0
1427.0
1445.0
1442.0
1408.0
1332.0
1238.0
1148.0
1084.0
1047.0
1024.0
1014.0
1011.0
1010.0
1011.0
1014.0
1014.0
1012.0
1009.0
1004.0
1002.0
999.0
1000.0
997.0
993.0
993.0
991.0
994.0
997.0
994.0
991.0
987.0
987.0
992.0
994.0
992.0
988.0
987.0
988.0
989.0
990.0
989.0
987.0
984.0
983.0
985.0
988.0
986.0
981.0
978.0
982.0
981.0
985.0
987.0
982.0
978.0
977.0
980.0
982.0
981.0
979.0
979.0
979.0
983.0
983.0
982.0
980.0
978.0
981.0
981.0
984.0
982.0
981.0
981.0
981.0
984.0
986.0
985.0
985.0
985.0
985.0
986.0
988.0
987.0
984.0
983.0
987.0
989.0
993.0
991.0
989.0
991.0
991.0
994.0
997.0
1000.0
1000.0
999.0
1003.0
1007.0
1014.0
1014.0
1013.0
1015.0
1018.0
1023.0
1029.0
1031.0
1034.0
1034.0
1036.0
1040.0
1047.0
1049.0
1049.0
1052.0
1053.0
1059.0
1061.0
1061.0
1060.0
1055.0
1057.0
1060.0
1060.0
1056.0
1051.0
1048.0
1047.0
1045.0
1048.0
1042.0
1039.0
1035.0
1035.0
1034.0
1033.0
1028.0
1026.0
1023.0
1021.0
1023.0
1024.0
1023.0
1021.0
1019.0
1019.0
1021.0
1023.0
1021.0
1017.0
1017.0
1018.0
1019.0
1024.0
1021.0
1019.0
1015.0
1015.0
1015.0
1019.0
1019.0
1015.0
1014.0
1014.0
1014.0
1017.0
1016.0
1010.0
1010.0
1011.0
1013.0
1013.0
1014.0
1012.0
1008.0
1009.0
1008.0
1010.0
1010.0
1007.0
1005.0
1006.0
1009.0
1009.0
1009.0
1006.0
1006.0
1006.0
1008.0
1011.0
1010.0
1008.0
1003.0
1004.0
1008.0
1011.0
1008.0
1008.0
1008.0
1009.0
1010.0
1015.0
1012.0
1010.0
1011.0
1009.0
1014.0
1016.0
1014.0
1011.0
1011.0
1012.0
1014.0
1016.0
1016.0
1014.0
1009.0
1010.0
1012.0
1015.0
1015.0
1010.0
1007.0
1011.0
1012.0
1017.0
1013.0
1011.0
1009.0
1010.0
1010.0
1013.0
1015.0
1013.0
1007.0
1010.0
1012.0
1012.0
1013.0
1011.0
1006.0
1008.0
1010.0
1014.0
1011.0
1008.0
1006.0
1007.0
1011.0
1012.0
1013.0
1010.0
1005.0
1007.0
1007.0
1011.0
1006.0
1006.0
1006.0
1004.0
1009.0
1011.0
1009.0
1006.0
1004.0
1005.0
1008.0
1010.0
1011.0
1005.0
1002.0
1005.0
1007.0
1012.0
1010.0
1008.0
1006.0
1006.0
1008.0
1008.0
1005.0
1004.0
1003.0
1006.0
1009.0
1010.0
1007.0
1008.0
1002.0
1003.0
1008.0
1009.0
1008.0
1003.0
1003.0
1006.0
1008.0
1008.0
1006.0
1003.0
1002.0
1004.0
1007.0
1007.0
1005.0
1003.0
1001.0
1002.0
1007.0
1010.0
1009.0
1005.0
1002.0
1005.0
1008.0
1017.0
1016.0
1016.0
1013.0
1015.0
1016.0
1018.0
1016.0
1017.0
1016.0
1018.0
1021.0
1023.0
1021.0
1017.0
1012.0
1012.0
1015.0
1018.0
1016.0
1014.0
1013.0
1016.0
1016.0
1018.0
1018.0
1018.0
1016.0
1018.0
1020.0
1022.0
1019.0
1017.0
1008.0
1009.0
1009.0
1010.0
1011.0
1011.0
1006.0
1009.0
1010.0
1013.0
1009.0
1009.0
1005.0
1008.0
1010.0
1014.0
1012.0
1010.0
1008.0
1008.0
1011.0
1011.0
1011.0
1011.0
1007.0
1008.0
1010.0
1011.0
1009.0
1011.0
1007.0
1011.0
1012.0
1014.0
1011.0
1012.0
1010.0
1012.0
1019.0
1023.0
1026.0
1028.0
1034.0
1044.0
1059.0
1071.0
1080.0
1093.0
1111.0
1139.0
1175.0
1204.0
1231.0
1254.0
1278.0
1311.0
1351.0
1388.0
1409.0
1410.0
1383.0
1322.0
1238.0
1149.0
1083.0
1034.0
1009.0
999.0
998.0
1003.0
1007.0
1008.0
1004.0
1006.0
1006.0
1007.0
1001.0
997.0
992.0
991.0
996.0
998.0
995.0
992.0
989.0
990.0
991.0
993.0
993.0
989.0
987.0
992.0
991.0
994.0
992.0
987.0
986.0
986.0
988.0
993.0
991.0
991.0
986.0
986.0
988.0
991.0
987.0
985.0
982.0
983.0
986.0
991.0
987.0
985.0
981.0
982.0
986.0
988.0
987.0
984.0
982.0
983.0
985.0
986.0
985.0
987.0
985.0
987.0
988.0
990.0
988.0
985.0
985.0
984.0
990.0
990.0
989.0
985.0
987.0
987.0
989.0
992.0
992.0
991.0
986.0
990.0
995.0
996.0
994.0
994.0
995.0
996.0
1003.0
1004.0
1005.0
1005.0
1006.0
1007.0
1012.0
1018.0
1019.0
1020.0
1018.0
1025.0
1031.0
1035.0
1036.0
1039.0
1039.0
1043.0
1049.0
1054.0
1054.0
1053.0
1051.0
1054.0
1057.0
1058.0
1058.0
1054.0
1050.0
1050.0
1049.0
1049.0
1049.0
1042.0
1039.0
1040.0
1036.0
1036.0
1033.0
1029.0
1025.0
1024.0
1027.0
1029.0
1024.0
1023.0
1018.0
1020.0
1021.0
1023.0
1023.0
1019.0
1019.0
1021.0
1021.0
1023.0
1021.0
1017.0
1016.0
1017.0
1022.0
1020.0
1019.0
1016.0
1014.0
1014.0
1013.0
1017.0
1015.0
1012.0
1009.0
1009.0
1011.0
1013.0
1009.0
1007.0
1004.0
1007.0
1010.0
1010.0
1012.0
1006.0
1004.0
1004.0
1009.0
1010.0
1009.0
1006.0
1007.0
1006.0
1009.0
1010.0
1010.0
1010.0
1007.0
1009.0
1011.0
1011.0
1011.0
1008.0
1006.0
1009.0
1014.0
1014.0
1013.0
1011.0
1006.0
1009.0
1012.0
1014.0
1013.0
1010.0
1008.0
1008.0
1010.0
1014.0
1012.0
1009.0
1006.0
1008.0
1010.0
1011.0
1010.0
1005.0
1003.0
1005.0
1009.0
1012.0
1009.0
1008.0
1003.0
1005.0
1007.0
1009.0
1009.0
1004.0
1003.0
1003.0
1004.0
1009.0
1007.0
1005.0
1004.0
1004.0
1006.0
1008.0
1005.0
1003.0
1001.0
1001.0
1006.0
1008.0
1006.0
1003.0
1002.0
1002.0
1004.0
1007.0
1004.0
1002.0
999.0
1000.0
1003.0
1006.0
1005.0
1000.0
1002.0
1002.0
1004.0
1005.0
1005.0
1002.0
999.0
1000.0
1004.0
1007.0
1003.0
1003.0
1002.0
1002.0
1003.0
1004.0
1004.0
999.0
998.0
999.0
1002.0
1007.0
1004.0
1000.0
999.0
1000.0
1003.0
1006.0
1004.0
1001.0
1000.0
1001.0
1005.0
1006.0
1004.0
1003.0
1003.0
1005.0
1008.0
1010.0
1008.0
1007.0
1007.0
1010.0
1013.0
1015.0
1013.0
1013.0
1012.0
1014.0
1016.0
1019.0
1018.0
1015.0
1014.0
1012.0
1014.0
1012.0
1012.0
1009.0
1006.0
1011.0
1013.0
1015.0
1015.0
1011.0
1011.0
1010.0
1015.0
1019.0
1017.0
1016.0
1012.0
1011.0
1007.0
1012.0
1006.0
1002.0
1001.0
1006.0
1008.0
1009.0
1006.0
1004.0
1001.0
1004.0
1004.0
1007.0
1007.0
1001.0
1001.0
1000.0
1003.0
1006.0
1004.0
1003.0
1001.0
1001.0
1006.0
1006.0
1003.0
1002.0
1001.0
1003.0
1004.0
1008.0
1007.0
1004.0
1003.0
1005.0
1010.0
1014.0
1013.0
1013.0
1019.0
1025.0
1034.0
1050.0
1058.0
1066.0
1073.0
1093.0
1120.0
1149.0
1177.0
1199.0
1223.0
1254.0
1283.0
1318.0
1355.0
1390.0
1409.0
1410.0
1380.0
1321.0
1230.0
1141.0
1075.0
1034.0
1012.0
1001.0
1002.0
1000.0
1000.0
1002.0
1003.0
1003.0
1003.0
997.0
991.0
990.0
989.0
992.0
991.0
987.0
986.0
986.0
991.0
990.0
989.0
985.0
984.0
986.0
989.0
988.0
988.0
984.0
980.0
984.0
986.0
986.0
984.0
983.0
983.0
983.0
983.0
986.0
982.0
981.0
979.0
982.0
983.0
987.0
983.0
981.0
977.0
979.0
983.0
987.0
984.0
981.0
981.0
982.0
983.0
985.0
984.0
982.0
983.0
983.0
987.0
987.0
989.0
985.0
985.0
986.0
990.0
991.0
991.0
987.0
987.0
988.0
993.0
993.0
994.0
990.0
990.0
992.0
995.0
998.0
997.0
998.0
999.0
1002.0
1006.0
1009.0
1011.0
1008.0
1010.0
1013.0
1019.0
1023.0
1026.0
1027.0
1027.0
1032.0
1037.0
1043.0
1044.0
1044.0
1044.0
1051.0
1056.0
1059.0
1055.0
1054.0
1052.0
1053.0
1056.0
1055.0
1054.0
1050.0
1044.0
1046.0
1044.0
1044.0
1042.0
1039.0
1035.0
1033.0
1034.0
1033.0
1031.0
1028.0
1023.0
1026.0
1029.0
1030.0
1026.0
1023.0
1021.0
1023.0
1023.0
1026.0
1025.0
1023.0
1017.0
1019.0
1019.0
1023.0
1021.0
1017.0
1015.0
1016.0
1018.0
1018.0
1017.0
1014.0
1011.0
1013.0
1016.0
1020.0
1016.0
1012.0
1010.0
1013.0
1014.0
1018.0
1016.0
1011.0
1011.0
1012.0
1014.0
1019.0
1016.0
1015.0
1012.0
1013.0
1018.0
1020.0
1019.0
1018.0
1013.0
1015.0
1020.0
1020.0
1019.0
1016.0
1013.0
1015.0
1019.0
1020.0
1020.0
1017.0
1014.0
1017.0
1017.0
1019.0
1018.0
1016.0
1015.0
1017.0
1018.0
1021.0
1017.0
1016.0
1014.0
1016.0
1017.0
1019.0
1017.0
1015.0
1010.0
1011.0
1013.0
1017.0
1017.0
1012.0
1009.0
1013.0
1013.0
1015.0
1014.0
1009.0
1009.0
1012.0
1013.0
1015.0
1014.0
1009.0
1009.0
1010.0
1010.0
1014.0
1011.0
1009.0
1008.0
1010.0
1010.0
1013.0
1010.0
1007.0
1008.0
1007.0
1009.0
1012.0
1011.0
1010.0
1007.0
1010.0
1011.0
1013.0
1012.0
1011.0
1008.0
1009.0
1013.0
1012.0
1012.0
1007.0
1008.0
1009.0
1013.0
1017.0
1012.0
1010.0
1008.0
1010.0
1011.0
1013.0
1014.0
1009.0
1005.0
1010.0
1011.0
1013.0
1012.0
1009.0
1009.0
1009.0
1012.0
1014.0
1014.0
1011.0
1008.0
1008.0
1012.0
1014.0
1012.0
1010.0
1007.0
1009.0
1012.0
1013.0
1013.0
1008.0
1009.0
1009.0
1013.0
1014.0
1014.0
1010.0
1009.0
1009.0
1014.0
1020.0
1018.0
1017.0
1015.0
1021.0
1021.0
1025.0
1022.0
1022.0
1021.0
1025.0
1027.0
1029.0
1026.0
1027.0
1023.0
1025.0
1025.0
1026.0
1020.0
1019.0
1021.0
1020.0
1020.0
1024.0
1022.0
1023.0
1018.0
1021.0
1024.0
1026.0
1024.0
1019.0
1020.0
1018.0
1020.0
1019.0
1013.0
1012.0
1011.0
1011.0
1014.0
1017.0
1015.0
1012.0
1011.0
1011.0
1013.0
1017.0
1017.0
1013.0
1011.0
1011.0
1017.0
1018.0
1018.0
1013.0
1014.0
1016.0
1016.0
1018.0
1016.0
1016.0
1014.0
1014.0
1017.0
1019.0
1017.0
1016.0
1015.0
1020.0
1025.0
1028.0
1028.0
1036.0
1037.0
1052.0
1069.0
1079.0
1088.0
1104.0
1124.0
1155.0
1191.0
1226.0
1255.0
1285.0
1311.0
1350.0
1394.0
1433.0
1452.0
1440.0
1396.0
1318.0
1222.0
1139.0
1071.0
1031.0
1014.0
1012.0
1016.0
1021.0
1018.0
1012.0
1010.0
1009.0
1006.0
1006.0
1002.0
997.0
997.0
995.0
998.0
999.0
997.0
993.0
991.0
992.0
996.0
997.0
994.0
990.0
990.0
990.0
992.0
993.0
994.0
990.0
985.0
985.0
989.0
990.0
988.0
986.0
984.0
988.0
990.0
989.0
990.0
986.0
984.0
987.0
989.0
989.0
989.0
984.0
986.0
987.0
988.0
990.0
990.0
986.0
987.0
988.0
990.0
990.0
991.0
986.0
984.0
989.0
993.0
995.0
993.0
990.0
990.0
989.0
995.0
997.0
995.0
992.0
993.0
996.0
997.0
1000.0
1000.0
998.0
999.0
1003.0
1007.0
1010.0
1008.0
1008.0
1007.0
1013.0
1017.0
1021.0
1025.0
1024.0
1025.0
1031.0
1039.0
1039.0
1043.0
1045.0
1045.0
1050.0
1056.0
1060.0
1061.0
1060.0
1061.0
1063.0
1068.0
1071.0
1066.0
1063.0
1061.0
1062.0
1061.0
1062.0
1057.0
1050.0
1049.0
1048.0
1046.0
1046.0
1043.0
1037.0
1036.0
1035.0
1035.0
1038.0
1035.0
1032.0
1029.0
1029.0
1032.0
1033.0
1031.0
1030.0
1028.0
1030.0
1031.0
1032.0
1029.0
1027.0
1027.0
1028.0
1030.0
1030.0
1026.0
1024.0
1021.0
1025.0
1028.0
1029.0
1028.0
1024.0
1020.0
1022.0
1024.0
1028.0
1026.0
1024.0
1020.0
1023.0
1025.0
1026.0
1024.0
1021.0
1018.0
1021.0
1022.0
1025.0
1021.0
1021.0
1020.0
1022.0
1024.0
1026.0
1027.0
1025.0
1022.0
1023.0
1026.0
1027.0
1026.0
1024.0
1023.0
1026.0
1028.0
1029.0
1027.0
1024.0
1025.0
1026.0
1031.0
1029.0
1026.0
1025.0
1024.0
1024.0
1030.0
1029.0
1027.0
1025.0
1025.0
1027.0
1027.0
1030.0
1026.0
1024.0
1024.0
1026.0
1027.0
1027.0
1024.0
1022.0
1020.0
1022.0
1025.0
1027.0
1024.0
1022.0
1019.0
1020.0
1024.0
1026.0
1023.0
1021.0
1018.0
1018.0
1022.0
1025.0
1024.0
1024.0
1019.0
1022.0
1024.0
1025.0
1023.0
1019.0
1019.0
1023.0
1024.0
1024.0
1022.0
1016.0
1018.0
1018.0
1022.0
1026.0
1023.0
1021.0
1019.0
1018.0
1022.0
1023.0
1022.0
1022.0
1019.0
1021.0
1022.0
1024.0
1021.0
1020.0
1019.0
1021.0
1023.0
1023.0
1024.0
1022.0
1019.0
1021.0
1023.0
1027.0
1024.0
1022.0
1020.0
1020.0
1020.0
1024.0
1023.0
1021.0
1020.0
1023.0
1025.0
1028.0
1025.0
1024.0
1026.0
1028.0
1030.0
1033.0
1031.0
1030.0
1030.0
1032.0
1035.0
1038.0
1036.0
1034.0
1030.0
1032.0
1032.0
1031.0
1031.0
1026.0
1025.0
1028.0
1032.0
1034.0
1034.0
1031.0
1031.0
1032.0
1034.0
1033.0
1032.0
1028.0
1023.0
1025.0
1025.0
1026.0
1024.0
1022.0
1020.0
1019.0
1024.0
1024.0
1023.0
1020.0
1023.0
1023.0
1023.0
1025.0
1024.0
1019.0
1021.0
1021.0
1025.0
1023.0
1022.0
1022.0
1021.0
1021.0
1023.0
1027.0
1023.0
1022.0
1021.0
1023.0
1025.0
1028.0
1031.0
1030.0
1036.0
1044.0
1052.0
1065.0
1076.0
1085.0
1100.0
1119.0
1149.0
1180.0
1211.0
1237.0
1265.0
1297.0
1330.0
1374.0
1411.0
1427.0
1418.0
1375.0
1293.0
1194.0
1108.0
1054.0
1026.0
1017.0
1017.0
1019.0
1023.0
1020.0
1017.0
1018.0
1017.0
1014.0
1010.0
1001.0
999.0
1002.0
1002.0
1004.0
1001.0
999.0
996.0
997.0
998.0
998.0
999.0
996.0
996.0
997.0
999.0
997.0
999.0
995.0
992.0
994.0
996.0
997.0
998.0
992.0
991.0
993.0
996.0
996.0
993.0
990.0
988.0
988.0
991.0
994.0
992.0
990.0
991.0
992.0
993.0
994.0
991.0
989.0
989.0
990.0
993.0
994.0
992.0
990.0
988.0
990.0
992.0
994.0
995.0
992.0
991.0
990.0
993.0
993.0
992.0
992.0
992.0
995.0
996.0
1000.0
997.0
995.0
996.0
996.0
1002.0
1006.0
1006.0
1005.0
1005.0
1009.0
1013.0
1019.0
1021.0
1017.0
1018.0
1024.0
1030.0
1033.0
1036.0
1039.0
1041.0
1046.0
1050.0
1055.0
1054.0
1052.0
1051.0
1049.0
1055.0
1057.0
1054.0
1049.0
1047.0
1047.0
1048.0
1047.0
1044.0
1039.0
1036.0
1036.0
1034.0
1034.0
1033.0
1025.0
1024.0
1024.0
1028.0
1027.0
1026.0
1021.0
1020.0
1023.0
1026.0
1023.0
1023.0
1020.0
1018.0
1021.0
1026.0
1022.0
1022.0
1017.0
1016.0
1019.0
1018.0
1020.0
1018.0
1014.0
1014.0
1014.0
1016.0
1017.0
1016.0
1012.0
1012.0
1014.0
1016.0
1015.0
1015.0
1011.0
1012.0
1012.0
1014.0
1014.0
1013.0
1012.0
1012.0
1013.0
1015.0
1015.0
1012.0
1014.0
1011.0
1015.0
1016.0
1017.0
1014.0
1012.0
1009.0
1013.0
1017.0
1018.0
1016.0
1014.0
1011.0
1013.0
1015.0
1015.0
1014.0
1012.0
1011.0
1012.0
1014.0
1017.0
1013.0
1010.0
1010.0
1012.0
1015.0
1014.0
1010.0
1009.0
1006.0
1011.0
1013.0
1013.0
1011.0
1008.0
1005.0
1008.0
1010.0
1012.0
1011.0
1005.0
1005.0
1009.0
1012.0
1012.0
1009.0
1006.0
1004.0
1005.0
1010.0
1012.0
1012.0
1008.0
1005.0
1006.0
1008.0
1009.0
1008.0
1006.0
1006.0
1007.0
1009.0
1009.0
1008.0
1006.0
1007.0
1007.0
1009.0
1007.0
1006.0
1002.0
1003.0
1007.0
1008.0
1009.0
1008.0
1006.0
1008.0
1009.0
1010.0
1011.0
1008.0
1008.0
1005.0
1006.0
1009.0
1010.0
1009.0
1005.0
1006.0
1006.0
1008.0
1010.0
1009.0
1005.0
1005.0
1008.0
1008.0
1011.0
1008.0
1005.0
1006.0
1009.0
1011.0
1010.0
1008.0
1007.0
1008.0
1009.0
1013.0
1014.0
1012.0
1011.0
1009.0
1010.0
1017.0
1019.0
1019.0
1017.0
1016.0
1014.0
1019.0
1025.0
1023.0
1020.0
1019.0
1019.0
1022.0
1024.0
1019.0
1016.0
1012.0
1014.0
1019.0
1017.0
1016.0
1015.0
1014.0
1015.0
1020.0
1020.0
1020.0
1017.0
1017.0
1017.0
1019.0
1015.0
1014.0
1011.0
1007.0
1010.0
1012.0
1011.0
1011.0
1009.0
1009.0
1010.0
1011.0
1011.0
1013.0
1013.0
1007.0
1009.0
1012.0
1011.0
1014.0
1010.0
1008.0
1008.0
1013.0
1014.0
1010.0
1010.0
1008.0
1011.0
1016.0
1017.0
1014.0
1012.0
1013.0
1016.0
1023.0
1027.0
1031.0
1039.0
1050.0
1067.0
1084.0
1106.0
1137.0
1177.0
1220.0
1266.0
1315.0
1371.0
1429.0
1449.0
1397.0
1277.0
1149.0
1059.0
1018.0
1005.0
1007.0
1013.0
1015.0
1015.0
1011.0
1002.0
998.0
997.0
999.0
996.0
995.0
992.0
991.0
991.0
995.0
999.0
993.0
990.0
990.0
989.0
992.0
993.0
991.0
988.0
987.0
989.0
989.0
989.0
988.0
986.0
984.0
985.0
986.0
987.0
986.0
981.0
982.0
982.0
988.0
988.0
986.0
982.0
982.0
985.0
990.0
990.0
988.0
985.0
985.0
987.0
990.0
991.0
990.0
989.0
989.0
991.0
992.0
994.0
991.0
991.0
989.0
993.0
995.0
997.0
997.0
995.0
995.0
997.0
1002.0
1004.0
1007.0
1007.0
1005.0
1012.0
1012.0
1016.0
1017.0
1018.0
1023.0
1030.0
1032.0
1037.0
1039.0
1041.0
1040.0
1047.0
1054.0
1058.0
1057.0
1056.0
1059.0
1059.0
1063.0
1065.0
1062.0
1056.0
1058.0
1056.0
1059.0
1057.0
1054.0
1047.0
1045.0
1045.0
1047.0
1045.0
1040.0
1036.0
1032.0
1035.0
1035.0
1035.0
1030.0
1029.0
1028.0
1027.0
1029.0
1028.0
1027.0
1024.0
1024.0
1025.0
1030.0
1032.0
1026.0
1024.0
1023.0
1023.0
1026.0
1027.0
1024.0
1022.0
1020.0
1024.0
1024.0
1024.0
1021.0
1021.0
1017.0
1021.0
1022.0
1022.0
1022.0
1017.0
1016.0
1019.0
1021.0
1022.0
1021.0
1017.0
1018.0
1018.0
1019.0
1022.0
1018.0
1016.0
1015.0
1016.0
1018.0
1019.0
1018.0
1016.0
1017.0
1019.0
1022.0
1023.0
1022.0
1021.0
1021.0
1022.0
1024.0
1024.0
1022.0
1019.0
1020.0
1021.0
1024.0
1028.0
1022.0
1021.0
1022.0
1022.0
1026.0
1025.0
1024.0
1023.0
1022.0
1024.0
1028.0
1027.0
1025.0
1021.0
1021.0
1023.0
1026.0
1027.0
1026.0
1023.0
1022.0
1022.0
1025.0
1026.0
1024.0
1022.0
1021.0
1021.0
1025.0
1024.0
1025.0
1022.0
1018.0
1022.0
1022.0
1023.0
1021.0
1018.0
1018.0
1021.0
1021.0
1022.0
1023.0
1018.0
1019.0
1021.0
1023.0
1023.0
1021.0
1018.0
1018.0
1018.0
1021.0
1020.0
1020.0
1019.0
1017.0
1018.0
1020.0
1022.0
1019.0
1016.0
1018.0
1019.0
1021.0
1020.0
1021.0
1016.0
1016.0
1017.0
1021.0
1021.0
1021.0
1019.0
1016.0
1018.0
1021.0
1023.0
1020.0
1017.0
1016.0
1018.0
1022.0
1024.0
1020.0
1017.0
1017.0
1022.0
1025.0
1023.0
1026.0
1022.0
1021.0
1022.0
1023.0
1023.0
1022.0
1019.0
1020.0
1021.0
1026.0
1024.0
1020.0
1020.0
1020.0
1022.0
1024.0
1026.0
1023.0
1022.0
1023.0
1025.0
1027.0
1028.0
1027.0
1027.0
1027.0
1031.0
1032.0
1033.0
1031.0
1030.0
1028.0
1032.0
1038.0
1037.0
1035.0
1031.0
1031.0
1033.0
1035.0
1037.0
1033.0
1027.0
1025.0
1026.0
1030.0
1031.0
1029.0
1028.0
1025.0
1029.0
1033.0
1033.0
1032.0
1031.0
1029.0
1030.0
1032.0
1032.0
1027.0
1023.0
1022.0
1022.0
1024.0
1025.0
1023.0
1021.0
1021.0
1023.0
1025.0
1026.0
1024.0
1022.0
1019.0
1021.0
1025.0
1024.0
1023.0
1021.0
1017.0
1017.0
1023.0
1021.0
1022.0
1020.0
1020.0
1021.0
1027.0
1025.0
1024.0
1023.0
1020.0
1024.0
1026.0
1028.0
1027.0
1024.0
1025.0
1030.0
1036.0
1041.0
1046.0
1051.0
1064.0
1077.0
1090.0
1100.0
1113.0
1136.0
1165.0
1199.0
1232.0
1264.0
1293.0
1319.0
1355.0
1396.0
1434.0
1445.0
1434.0
1399.0
1334.0
1253.0
1172.0
1104.0
1055.0
1026.0
1013.0
1011.0
1014.0
1022.0
1020.0
1014.0
1016.0
1016.0
1014.0
1014.0
1010.0
1006.0
1005.0
1004.0
1008.0
1007.0
1003.0
1000.0
1000.0
1004.0
1005.0
1004.0
1004.0
1001.0
999.0
1002.0
1002.0
1004.0
1004.0
1003.0
1000.0
1002.0
1002.0
1004.0
1000.0
997.0
996.0
998.0
1003.0
1002.0
1001.0
1000.0
997.0
997.0
1002.0
1003.0
1001.0
1000.0
999.0
1001.0
1000.0
1000.0
999.0
996.0
995.0
1000.0
1001.0
1004.0
1002.0
997.0
999.0
1000.0
1003.0
1001.0
1002.0
999.0
999.0
1001.0
1003.0
1003.0
1001.0
999.0
999.0
1002.0
1007.0
1006.0
1006.0
1005.0
1003.0
1003.0
1008.0
1008.0
1007.0
1009.0
1010.0
1012.0
1013.0
1015.0
1016.0
1015.0
1016.0
1022.0
1023.0
1030.0
1028.0
1030.0
1030.0
1035.0
1041.0
1043.0
1043.0
1044.0
1048.0
1054.0
1058.0
1061.0
1064.0
1065.0
1066.0
1067.0
1073.0
1075.0
1070.0
1069.0
1067.0
1067.0
1065.0
1065.0
1063.0
1058.0
1054.0
1052.0
1053.0
1049.0
1046.0
1043.0
1038.0
1040.0
1037.0
1038.0
1037.0
1035.0
1031.0
1033.0
1034.0
1030.0
1028.0
1029.0
1030.0
1031.0
1031.0
1029.0
1028.0
1025.0
1022.0
1028.0
1026.0
1028.0
1024.0
1021.0
1022.0
1022.0
1025.0
1025.0
1023.0
1020.0
1020.0
1022.0
1022.0
1023.0
1017.0
1015.0
1018.0
1017.0
1019.0
1020.0
1018.0
1014.0
1016.0
1017.0
1018.0
1020.0
1019.0
1014.0
1014.0
1016.0
1018.0
1019.0
1016.0
1017.0
1017.0
1019.0
1021.0
1023.0
1022.0
1018.0
1019.0
1020.0
1024.0
1023.0
1024.0
1022.0
1019.0
1020.0
1025.0
1024.0
1019.0
1021.0
1020.0
1023.0
1024.0
1023.0
1022.0
1021.0
1019.0
1021.0
1022.0
1022.0
1020.0
1014.0
1016.0
1017.0
1021.0
1021.0
1020.0
1019.0
1018.0
1018.0
1020.0
1022.0
1020.0
1018.0
1019.0
1020.0
1020.0
1018.0
1018.0
1015.0
1016.0
1020.0
1021.0
1019.0
1015.0
1014.0
1015.0
1018.0
1020.0
1020.0
1018.0
1013.0
1012.0
1013.0
1018.0
1018.0
1017.0
1016.0
1014.0
1019.0
1018.0
1021.0
1019.0
1014.0
1015.0
1014.0
1020.0
1018.0
1015.0
1014.0
1014.0
1017.0
1018.0
1015.0
1014.0
1014.0
1014.0
1017.0
1015.0
1016.0
1014.0
1013.0
1013.0
1015.0
1018.0
1017.0
1016.0
1012.0
1010.0
1014.0
1017.0
1017.0
1018.0
1011.0
1012.0
1016.0
1016.0
1017.0
1016.0
1014.0
1015.0
1017.0
1018.0
1019.0
1018.0
1014.0
1015.0
1015.0
1021.0
1020.0
1019.0
1018.0
1018.0
1020.0
1025.0
1024.0
1023.0
1023.0
1023.0
1029.0
1031.0
1028.0
1028.0
1024.0
1026.0
1027.0
1026.0
1024.0
1022.0
1017.0
1020.0
1021.0
1024.0
1023.0
1023.0
1023.0
1023.0
1025.0
1026.0
1026.0
1027.0
1023.0
1027.0
1028.0
1029.0
1026.0
1023.0
1015.0
1013.0
1020.0
1021.0
1021.0
1020.0
1018.0
1018.0
1017.0
1021.0
1020.0
1019.0
1015.0
1013.0
1018.0
1021.0
1022.0
1019.0
1013.0
1016.0
1016.0
1017.0
1019.0
1019.0
1020.0
1018.0
1020.0
1022.0
1021.0
1021.0
1018.0
1020.0
1020.0
1023.0
1024.0
1024.0
1024.0
1025.0
1031.0
1041.0
1049.0
1059.0
1065.0
1075.0
1085.0
1105.0
1122.0
1146.0
1171.0
1200.0
1228.0
1259.0
1284.0
1313.0
1345.0
1385.0
1421.0
1436.0
1417.0
1363.0
1269.0
1173.0
1092.0
1047.0
1023.0
1016.0
1014.0
1018.0
1018.0
1021.0
1020.0
1016.0
1011.0
1009.0
1006.0
1006.0
1004.0
1002.0
1001.0
1000.0
1000.0
1002.0
1002.0
1001.0
996.0
997.0
1000.0
1001.0
1000.0
999.0
995.0
996.0
998.0
999.0
999.0
997.0
994.0
993.0
995.0
997.0
997.0
994.0
992.0
992.0
992.0
995.0
995.0
994.0
991.0
989.0
991.0
993.0
993.0
992.0
989.0
989.0
993.0
995.0
995.0
995.0
989.0
989.0
991.0
994.0
992.0
993.0
990.0
992.0
994.0
996.0
996.0
995.0
992.0
993.0
994.0
996.0
997.0
996.0
995.0
995.0
998.0
1001.0
1002.0
1002.0
1002.0
1002.0
1004.0
1008.0
1010.0
1010.0
1011.0
1013.0
1014.0
1019.0
1021.0
1024.0
1022.0
1025.0
1031.0
1038.0
1039.0
1041.0
1041.0
1042.0
1048.0
1054.0
1054.0
1059.0
1056.0
1057.0
1058.0
1061.0
1061.0
1056.0
1054.0
1053.0
1052.0
1054.0
1048.0
1048.0
1041.0
1039.0
1042.0
1044.0
1042.0
1039.0
1035.0
1033.0
1032.0
1037.0
1035.0
1029.0
1030.0
1028.0
1029.0
1034.0
1032.0
1027.0
1024.0
1024.0
1028.0
1033.0
1031.0
1029.0
1026.0
1026.0
1027.0
1028.0
1026.0
1025.0
1019.0
1024.0
1024.0
1025.0
1025.0
1021.0
1019.0
1019.0
1021.0
1027.0
1026.0
1024.0
1021.0
1020.0
1021.0
1024.0
1025.0
1021.0
1020.0
1020.0
1022.0
1023.0
1025.0
1024.0
1018.0
1021.0
1024.0
1025.0
1026.0
1023.0
1021.0
1021.0
1022.0
1025.0
1025.0
1023.0
1020.0
1022.0
1023.0
1026.0
1026.0
1022.0
1022.0
1020.0
1021.0
1027.0
1023.0
1021.0
1019.0
1020.0
1020.0
1023.0
1023.0
1020.0
1017.0
1015.0
1019.0
1023.0
1022.0
1018.0
1018.0
1018.0
1020.0
1022.0
1022.0
1019.0
1015.0
1017.0
1021.0
1020.0
1022.0
1020.0
1016.0
1014.0
1019.0
1021.0
1018.0
1020.0
1016.0
1015.0
1019.0
1021.0
1021.0
1018.0
1016.0
1016.0
1019.0
1016.0
1021.0
1019.0
1016.0
1014.0
1019.0
1019.0
1019.0
1017.0
1016.0
1015.0
1018.0
1020.0
1019.0
1017.0
1016.0
1017.0
1018.0
1022.0
1020.0
1015.0
1016.0
1017.0
1018.0
1021.0
1020.0
1018.0
1014.0
1015.0
1019.0
1020.0
1020.0
1019.0
1015.0
1017.0
1018.0
1022.0
1021.0
1019.0
1017.0
1018.0
1017.0
1022.0
1021.0
1019.0
1018.0
1016.0
1019.0
1023.0
1021.0
1022.0
1020.0
1019.0
1023.0
1026.0
1023.0
1019.0
1021.0
1021.0
1024.0
1028.0
1026.0
1027.0
1024.0
1027.0
1031.0
1032.0
1037.0
1034.0
1031.0
1030.0
1034.0
1041.0
1036.0
1037.0
1036.0
1035.0
1034.0
1033.0
1031.0
1028.0
1027.0
1024.0
1030.0
1031.0
1032.0
1029.0
1027.0
