# Simple Text Format
# Sampling Rate (Hz):= 360.00
# Resolution:= 12
# Labels:= ECG
1029.0
1036.0
1033.0
1030.0
1029.0
1031.0
1030.0
1029.0
1020.0
1016.0
1015.0
1019.0
1021.0
1019.0
1017.0
1013.0
1012.0
1016.0
1017.0
1019.0
1013.0
1013.0
1010.0
1010.0
1014.0
1017.0
1012.0
1010.0
1008.0
1013.0
1011.0
1013.0
1009.0
1005.0
1007.0
1010.0
1013.0
1012.0
1010.0
1005.0
1006.0
1009.0
1009.0
1010.0
1008.0
1005.0
1007.0
1006.0
1012.0
1012.0
1011.0
1008.0
1006.0
1010.0
1012.0
1012.0
1010.0
1010.0
1009.0
1011.0
1015.0
1015.0
1011.0
1008.0
1009.0
1014.0
1016.0
1017.0
1016.0
1012.0
1015.0
1017.0
1019.0
1023.0
1022.0
1020.0
1022.0
1026.0
1031.0
1032.0
1034.0
1033.0
1036.0
1042.0
1047.0
1048.0
1049.0
1051.0
1054.0
1059.0
1065.0
1070.0
1071.0
1068.0
1073.0
1074.0
1076.0
1074.0
1075.0
1073.0
1071.0
1072.0
1075.0
1073.0
1068.0
1064.0
1061.0
1061.0
1062.0
1061.0
1054.0
1050.0
1050.0
1049.0
1052.0
1048.0
1045.0
1043.0
1042.0
1041.0
1044.0
1042.0
1041.0
1037.0
1037.0
1039.0
1039.0
1042.0
1039.0
1037.0
1036.0
1037.0
1039.0
1040.0
1039.0
1035.0
1031.0
1035.0
1037.0
1039.0
1039.0
1036.0
1033.0
1032.0
1037.0
1037.0
1037.0
1034.0
1034.0
1034.0
1038.0
1036.0
1034.0
1032.0
1030.0
1034.0
1036.0
1038.0
1036.0
1033.0
1034.0
1037.0
1037.0
1038.0
1039.0
1035.0
1034.0
1036.0
1038.0
1039.0
1036.0
1034.0
1035.0
1035.0
1039.0
1038.0
1037.0
1032.0
1033.0
1034.0
1037.0
1037.0
1035.0
1035.0
1035.0
1037.0
1038.0
1038.0
1036.0
1033.0
1035.0
1037.0
1038.0
1037.0
1036.0
1033.0
1031.0
1034.0
1037.0
1037.0
1036.0
1031.0
1031.0
1034.0
1038.0
1036.0
1034.0
1031.0
1034.0
1033.0
1035.0
1036.0
1034.0
1031.0
1031.0
1031.0
1036.0
1035.0
1033.0
1032.0
1031.0
1031.0
1035.0
1038.0
1034.0
1030.0
1031.0
1032.0
1034.0
1033.0
1031.0
1030.0
1031.0
1030.0
1035.0
1033.0
1030.0
1029.0
1030.0
1031.0
1034.0
1034.0
1030.0
1029.0
1030.0
1031.0
1034.0
1032.0
1032.0
1030.0
1029.0
1032.0
1035.0
1033.0
1031.0
1027.0
1029.0
1032.0
1035.0
1033.0
1032.0
1028.0
1030.0
1030.0
1036.0
1035.0
1033.0
1029.0
1030.0
1030.0
1034.0
1033.0
1032.0
1031.0
1029.0
1033.0
1031.0
1035.0
1031.0
1030.0
1032.0
1031.0
1035.0
1035.0
1032.0
1030.0
1029.0
1034.0
1037.0
1037.0
1037.0
1033.0
1036.0
1039.0
1043.0
1045.0
1043.0
1043.0
1044.0
1045.0
1046.0
1047.0
1042.0
1037.0
1035.0
1034.0
1042.0
1040.0
1040.0
1038.0
1038.0
1039.0
1045.0
1045.0
1041.0
1038.0
1032.0
1034.0
1034.0
1036.0
1033.0
1031.0
1033.0
1036.0
1035.0
1037.0
1031.0
1031.0
1032.0
1033.0
1034.0
1036.0
1033.0
1032.0
1031.0
1034.0
1035.0
1034.0
1032.0
1034.0
1034.0
1036.0
1037.0
1038.0
1039.0
1038.0
1045.0
1052.0
1060.0
1071.0
1078.0
1086.0
1094.0
1112.0
1133.0
1158.0
1183.0
1208.0
1236.0
1266.0
1300.0
1336.0
1376.0
1413.0
1426.0
1415.0
1370.0
1295.0
1196.0
1118.0
1066.0
1038.0
1025.0
1023.0
1027.0
1027.0
1028.0
1030.0
1032.0
1030.0
1024.0
1021.0
1017.0
1020.0
1018.0
1018.0
1016.0
1012.0
1012.0
1015.0
1014.0
1015.0
1016.0
1013.0
1013.0
1017.0
1016.0
1014.0
1014.0
1012.0
1013.0
1013.0
1015.0
1014.0
1013.0
1009.0
1008.0
1011.0
1012.0
1014.0
1010.0
1005.0
1007.0
1011.0
1013.0
1011.0
1009.0
1006.0
1006.0
1010.0
1012.0
1011.0
1007.0
1009.0
1008.0
1009.0
1012.0
1010.0
1010.0
1008.0
1005.0
1009.0
1012.0
1013.0
1009.0
1013.0
1009.0
1012.0
1014.0
1014.0
1012.0
1010.0
1011.0
1011.0
1015.0
1016.0
1014.0
1012.0
1013.0
1017.0
1022.0
1022.0
1021.0
1018.0
1020.0
1025.0
1031.0
1033.0
1033.0
1030.0
1033.0
1037.0
1041.0
1045.0
1045.0
1047.0
1048.0
1055.0
1057.0
1059.0
1061.0
1061.0
1065.0
1070.0
1071.0
1074.0
1074.0
1073.0
1073.0
1078.0
1079.0
1078.0
1077.0
1073.0
1073.0
1075.0
1076.0
1071.0
1068.0
1063.0
1060.0
1060.0
1063.0
1057.0
1055.0
1052.0
1050.0
1053.0
1051.0
1049.0
1045.0
1042.0
1041.0
1045.0
1045.0
1045.0
1041.0
1039.0
1041.0
1039.0
1040.0
1041.0
1041.0
1038.0
1040.0
1039.0
1043.0
1042.0
1038.0
1036.0
1034.0
1038.0
1042.0
1040.0
1039.0
1036.0
1034.0
1035.0
1038.0
1040.0
1038.0
1034.0
1035.0
1035.0
1035.0
1038.0
1033.0
1031.0
1032.0
1035.0
1036.0
1035.0
1033.0
1031.0
1033.0
1033.0
1035.0
1035.0
1033.0
1033.0
1032.0
1036.0
1038.0
1038.0
1034.0
1030.0
1033.0
1036.0
1038.0
1040.0
1037.0
1033.0
1034.0
1035.0
1040.0
1039.0
1037.0
1034.0
1035.0
1034.0
1040.0
1040.0
1036.0
1034.0
1034.0
1037.0
1041.0
1041.0
1036.0
1032.0
1030.0
1035.0
1039.0
1037.0
1036.0
1032.0
1033.0
1036.0
1037.0
1036.0
1036.0
1033.0
1031.0
1033.0
1035.0
1034.0
1034.0
1030.0
1031.0
1030.0
1034.0
1033.0
1034.0
1031.0
1029.0
1033.0
1031.0
1031.0
1033.0
1028.0
1030.0
1032.0
1033.0
1031.0
1032.0
1030.0
1029.0
1033.0
1035.0
1033.0
1031.0
1030.0
1032.0
1030.0
1032.0
1030.0
1031.0
1026.0
1025.0
1030.0
1035.0
1031.0
1030.0
1029.0
1029.0
1032.0
1035.0
1032.0
1031.0
1029.0
1027.0
1031.0
1035.0
1033.0
1032.0
1031.0
1028.0
1031.0
1034.0
1034.0
1030.0
1028.0
1028.0
1031.0
1035.0
1034.0
1032.0
1031.0
1030.0
1033.0
1034.0
1034.0
1033.0
1032.0
1031.0
1033.0
1035.0
1032.0
1031.0
1031.0
1032.0
1035.0
1036.0
1034.0
1033.0
1032.0
1032.0
1035.0
1037.0
1037.0
1036.0
1033.0
1033.0
1034.0
1035.0
1035.0
1036.0
1030.0
1033.0
1035.0
1038.0
1036.0
1037.0
1035.0
1039.0
1041.0
1042.0
1044.0
1042.0
1039.0
1042.0
1044.0
1048.0
1047.0
1045.0
1042.0
1045.0
1044.0
1046.0
1045.0
1041.0
1036.0
1036.0
1039.0
1041.0
1040.0
1041.0
1038.0
1039.0
1042.0
1044.0
1043.0
1042.0
1044.0
1040.0
1046.0
1046.0
1044.0
1037.0
1036.0
1030.0
1036.0
1037.0
1036.0
1037.0
1032.0
1036.0
1034.0
1037.0
1035.0
1033.0
1029.0
1033.0
1036.0
1036.0
1035.0
1031.0
1028.0
1031.0
1036.0
1034.0
1036.0
1033.0
1030.0
1031.0
1034.0
1033.0
1033.0
1033.0
1029.0
1030.0
1031.0
1033.0
1036.0
1031.0
1032.0
1030.0
1035.0
1040.0
1042.0
1042.0
1042.0
1050.0
1058.0
1070.0
1079.0
1087.0
1095.0
1106.0
1126.0
1152.0
1178.0
1202.0
1225.0
1251.0
1279.0
1309.0
1341.0
1377.0
1409.0
1436.0
1442.0
1428.0
1380.0
1302.0
1218.0
1138.0
1084.0
1048.0
1029.0
1021.0
1020.0
1025.0
1026.0
1029.0
1028.0
1026.0
1020.0
1019.0
1016.0
1019.0
1015.0
1010.0
1008.0
1009.0
1012.0
1011.0
1011.0
1009.0
1006.0
1005.0
1009.0
1012.0
1009.0
1006.0
1004.0
1005.0
1005.0
1007.0
1005.0
1003.0
1002.0
1006.0
1006.0
1008.0
1006.0
1002.0
999.0
1002.0
1002.0
1004.0
1004.0
1000.0
999.0
998.0
1001.0
1005.0
1002.0
1001.0
1000.0
999.0
999.0
1003.0
1003.0
999.0
997.0
1000.0
1001.0
1005.0
1004.0
1002.0
1000.0
1001.0
1003.0
1006.0
1007.0
1005.0
1002.0
1002.0
1005.0
1007.0
1007.0
1005.0
1005.0
1004.0
1009.0
1012.0
1010.0
1009.0
1007.0
1011.0
1013.0
1019.0
1023.0
1020.0
1020.0
1024.0
1030.0
1033.0
1036.0
1035.0
1034.0
1039.0
1043.0
1052.0
1050.0
1053.0
1053.0
1060.0
1065.0
1071.0
1071.0
1069.0
1065.0
1068.0
1069.0
1072.0
1072.0
1070.0
1065.0
1065.0
1065.0
1063.0
1062.0
1057.0
1050.0
1051.0
1053.0
1051.0
1048.0
1042.0
1039.0
1039.0
1037.0
1038.0
1038.0
1036.0
1032.0
1032.0
1035.0
1035.0
1034.0
1031.0
1030.0
1031.0
1032.0
1034.0
1032.0
1032.0
1030.0
1027.0
1030.0
1034.0
1032.0
1028.0
1026.0
1028.0
1031.0
1032.0
1030.0
1028.0
1027.0
1026.0
1029.0
1029.0
1029.0
1026.0
1023.0
1026.0
1026.0
1029.0
1027.0
1026.0
1023.0
1028.0
1027.0
1030.0
1029.0
1027.0
1028.0
1026.0
1029.0
1030.0
1031.0
1030.0
1026.0
1029.0
1032.0
1033.0
1032.0
1030.0
1026.0
1029.0
1031.0
1032.0
1034.0
1032.0
1031.0
1031.0
1034.0
1036.0
1035.0
1031.0
1032.0
1031.0
1034.0
1035.0
1033.0
1028.0
1030.0
1028.0
1033.0
1033.0
1032.0
1030.0
1029.0
1029.0
1032.0
1035.0
1033.0
1030.0
1028.0
1027.0
1029.0
1032.0
1030.0
1028.0
1026.0
1026.0
1030.0
1031.0
1029.0
1028.0
1026.0
1025.0
1031.0
1032.0
1031.0
1028.0
1026.0
1026.0
1028.0
1029.0
1029.0
1027.0
1024.0
1023.0
1026.0
1029.0
1030.0
1025.0
1024.0
1027.0
1029.0
1030.0
1030.0
1027.0
1027.0
1026.0
1026.0
1028.0
1027.0
1029.0
1027.0
1026.0
1027.0
1032.0
1029.0
1027.0
1024.0
1025.0
1026.0
1029.0
1028.0
1024.0
1025.0
1024.0
1029.0
1029.0
1031.0
1029.0
1023.0
1027.0
1028.0
1031.0
1030.0
1027.0
1026.0
1026.0
1027.0
1032.0
1030.0
1028.0
1024.0
1024.0
1027.0
1029.0
1029.0
1028.0
1028.0
1027.0
1027.0
1032.0
1028.0
1026.0
1027.0
1027.0
1029.0
1032.0
1031.0
1029.0
1027.0
1025.0
1031.0
1033.0
1030.0
1029.0
1028.0
1030.0
1034.0
1037.0
1037.0
1032.0
1034.0
1036.0
1037.0
1041.0
1041.0
1039.0
1037.0
1039.0
1038.0
1042.0
1039.0
1035.0
1033.0
1032.0
1035.0
1037.0
1034.0
1032.0
1032.0
1033.0
1038.0
1041.0
1042.0
1036.0
1033.0
1034.0
1036.0
1040.0
1035.0
1031.0
1025.0
1026.0
1025.0
1031.0
1029.0
1028.0
1024.0
1026.0
1030.0
1031.0
1030.0
1029.0
1026.0
1025.0
1027.0
1030.0
1028.0
1026.0
1026.0
1026.0
1026.0
1030.0
1028.0
1028.0
1027.0
1025.0
1029.0
1033.0
1031.0
1028.0
1027.0
1030.0
1035.0
1039.0
1041.0
1043.0
1045.0
1054.0
1066.0
1079.0
1086.0
1091.0
1100.0
1121.0
1149.0
1178.0
1205.0
1227.0
1252.0
1281.0
1313.0
1356.0
1392.0
1412.0
1409.0
1377.0
1315.0
1232.0
1146.0
1082.0
1043.0
1027.0
1025.0
1027.0
1028.0
1028.0
1026.0
1022.0
1022.0
1026.0
1021.0
1014.0
1012.0
1011.0
1012.0
1012.0
1010.0
1006.0
1005.0
1008.0
1009.0
1012.0
1010.0
1008.0
1004.0
1003.0
1008.0
1010.0
1010.0
1008.0
1005.0
1006.0
1008.0
1008.0
1007.0
1005.0
1004.0
1004.0
1006.0
1008.0
1005.0
1002.0
1000.0
1001.0
1004.0
1007.0
1004.0
1001.0
1001.0
1001.0
1001.0
1006.0
1005.0
1003.0
1001.0
1000.0
1004.0
1005.0
1005.0
1004.0
1003.0
1004.0
1007.0
1011.0
1007.0
1003.0
1003.0
1005.0
1008.0
1009.0
1009.0
1006.0
1005.0
1008.0
1009.0
1013.0
1011.0
1010.0
1008.0
1009.0
1014.0
1019.0
1018.0
1017.0
1015.0
1014.0
1020.0
1026.0
1027.0
1028.0
1027.0
1029.0
1030.0
1035.0
1035.0
1040.0
1040.0
1044.0
1048.0
1055.0
1056.0
1056.0
1055.0
1059.0
1066.0
1069.0
1069.0
1067.0
1068.0
1067.0
1071.0
1071.0
1068.0
1066.0
1064.0
1066.0
1062.0
1062.0
1059.0
1054.0
1051.0
1052.0
1050.0
1051.0
1048.0
1042.0
1041.0
1039.0
1041.0
1042.0
1039.0
1039.0
1036.0
1036.0
1040.0
1039.0
1040.0
1036.0
1033.0
1033.0
1037.0
1038.0
1037.0
1035.0
1033.0
1034.0
1037.0
1037.0
1036.0
1032.0
1030.0
1030.0
1034.0
1036.0
1031.0
1032.0
1029.0
1030.0
1031.0
1033.0
1031.0
1029.0
1028.0
1027.0
1030.0
1034.0
1032.0
1030.0
1028.0
1028.0
1029.0
1032.0
1029.0
1030.0
1027.0
1030.0
1032.0
1035.0
1034.0
1029.0
1028.0
1030.0
1035.0
1034.0
1032.0
1031.0
1029.0
1027.0
1033.0
1036.0
1033.0
1033.0
1032.0
1031.0
1034.0
1033.0
1032.0
1031.0
1029.0
1031.0
1033.0
1033.0
1033.0
1028.0
1028.0
1029.0
1032.0
1033.0
1034.0
1030.0
1027.0
1026.0
1030.0
1034.0
1030.0
1032.0
1027.0
1026.0
1029.0
1030.0
1030.0
1027.0
1022.0
1025.0
1031.0
1030.0
1031.0
1027.0
1027.0
1024.0
1028.0
1029.0
1030.0
1026.0
1024.0
1027.0
1027.0
1030.0
1028.0
1027.0
1024.0
1027.0
1029.0
1031.0
1027.0
1026.0
1023.0
1026.0
1029.0
1029.0
1027.0
1024.0
1023.0
1026.0
1028.0
1030.0
1028.0
1028.0
1025.0
1025.0
1030.0
1031.0
1028.0
1027.0
1026.0
1028.0
1027.0
1029.0
1027.0
1027.0
1027.0
1029.0
1029.0
1031.0
1029.0
1028.0
1026.0
1027.0
1029.0
1032.0
1030.0
1028.0
1023.0
1028.0
1030.0
1033.0
1033.0
1030.0
1029.0
1031.0
1031.0
1034.0
1032.0
1031.0
1029.0
1031.0
1034.0
1036.0
1033.0
1033.0
1031.0
1032.0
1037.0
1038.0
1040.0
1038.0
1035.0
1036.0
1042.0
1045.0
1043.0
1044.0
1041.0
1042.0
1044.0
1045.0
1044.0
1041.0
1039.0
1038.0
1041.0
1041.0
1040.0
1036.0
1034.0
1035.0
1038.0
1042.0
1043.0
1040.0
1037.0
1036.0
1041.0
1042.0
1040.0
1036.0
1034.0
1030.0
1034.0
1035.0
1032.0
1030.0
1027.0
1029.0
1031.0
1033.0
1031.0
1030.0
1028.0
1030.0
1032.0
1032.0
1032.0
1030.0
1026.0
1029.0
1031.0
1034.0
1031.0
1027.0
1027.0
1024.0
1032.0
1034.0
1032.0
1029.0
1028.0
1030.0
1035.0
1036.0
1035.0
1033.0
1031.0
1034.0
1038.0
1043.0
1045.0
1046.0
1051.0
1060.0
1075.0
1088.0
1096.0
1104.0
1120.0
1143.0
1174.0
1204.0
1230.0
1252.0
1280.0
1312.0
1349.0
1390.0
1423.0
1438.0
1429.0
1389.0
1314.0
1229.0
1146.0
1085.0
1046.0
1028.0
1021.0
1026.0
1029.0
1031.0
1027.0
1029.0
1031.0
1031.0
1024.0
1020.0
1015.0
1014.0
1017.0
1018.0
1018.0
1014.0
1010.0
1009.0
1014.0
1013.0
1013.0
1010.0
1010.0
1010.0
1015.0
1014.0
1012.0
1011.0
1010.0
1010.0
1011.0
1012.0
1012.0
1007.0
1007.0
1009.0
1008.0
1010.0
1011.0
1006.0
1003.0
1006.0
1009.0
1009.0
1008.0
1006.0
1003.0
1005.0
1009.0
1012.0
1010.0
1008.0
1003.0
1005.0
1009.0
1011.0
1011.0
1009.0
1006.0
1008.0
1012.0
1013.0
1012.0
1007.0
1007.0
1008.0
1011.0
1013.0
1013.0
1010.0
1008.0
1010.0
1013.0
1014.0
1015.0
1015.0
1014.0
1015.0
1015.0
1018.0
1017.0
1017.0
1017.0
1017.0
1025.0
1027.0
1027.0
1024.0
1023.0
1030.0
1033.0
1039.0
1039.0
1039.0
1040.0
1043.0
1049.0
1056.0
1055.0
1056.0
1057.0
1063.0
1069.0
1073.0
1072.0
1072.0
1072.0
1073.0
1079.0
1080.0
1079.0
1075.0
1074.0
1074.0
1073.0
1074.0
1072.0
1067.0
1063.0
1061.0
1062.0
1059.0
1057.0
1052.0
1049.0
1049.0
1051.0
1051.0
1050.0
1047.0
1041.0
1042.0
1044.0
1045.0
1043.0
1040.0
1040.0
1041.0
1039.0
1043.0
1044.0
1037.0
1037.0
1038.0
1041.0
1042.0
1041.0
1039.0
1037.0
1037.0
1041.0
1041.0
1040.0
1038.0
1034.0
1036.0
1038.0
1039.0
1036.0
1036.0
1033.0
1035.0
1039.0
1039.0
1038.0
1036.0
1035.0
1036.0
1038.0
1042.0
1040.0
1037.0
1037.0
1036.0
1040.0
1043.0
1041.0
1039.0
1037.0
1041.0
1041.0
1044.0
1044.0
1042.0
1039.0
1039.0
1044.0
1045.0
1044.0
1042.0
1040.0
1041.0
1045.0
1045.0
1043.0
1041.0
1039.0
1039.0
1045.0
1044.0
1044.0
1039.0
1036.0
1039.0
1040.0
1043.0
1042.0
1040.0
1039.0
1038.0
1040.0
1041.0
1041.0
1038.0
1035.0
1037.0
1040.0
1042.0
1041.0
1040.0
1037.0
1036.0
1039.0
1042.0
1039.0
1037.0
1034.0
1036.0
1038.0
1040.0
1038.0
1037.0
1034.0
1036.0
1039.0
1042.0
1038.0
1035.0
1035.0
1035.0
1039.0
1040.0
1038.0
1038.0
1035.0
1033.0
1036.0
1037.0
1037.0
1035.0
1034.0
1036.0
1037.0
1039.0
1037.0
1037.0
1036.0
1038.0
1037.0
1043.0
1038.0
1036.0
1033.0
1038.0
1039.0
1041.0
1039.0
1036.0
1034.0
1036.0
1041.0
1042.0
1039.0
1037.0
1035.0
1036.0
1039.0
1040.0
1038.0
1037.0
1035.0
1039.0
1040.0
1041.0
1039.0
1037.0
1035.0
1037.0
1040.0
1044.0
1043.0
1037.0
1038.0
1039.0
1042.0
1044.0
1042.0
1041.0
1036.0
1040.0
1040.0
1045.0
1043.0
1044.0
1041.0
1046.0
1049.0
1051.0
1050.0
1048.0
1046.0
1050.0
1055.0
1057.0
1055.0
1052.0
1050.0
1053.0
1052.0
1051.0
1052.0
1049.0
1046.0
1046.0
1049.0
1052.0
1053.0
1051.0
1047.0
1049.0
1054.0
1055.0
1055.0
1052.0
1051.0
1047.0
1047.0
1050.0
1047.0
1042.0
1040.0
1042.0
1046.0
1048.0
1046.0
1041.0
1042.0
1044.0
1044.0
1048.0
1045.0
1040.0
1037.0
1041.0
1044.0
1045.0
1044.0
1040.0
1038.0
1042.0
1043.0
1044.0
1042.0
1040.0
1038.0
1041.0
1044.0
1045.0
1048.0
1046.0
1044.0
1045.0
1052.0
1058.0
1059.0
1064.0
1069.0
1080.0
1095.0
1109.0
1118.0
1132.0
1156.0
1187.0
1220.0
1247.0
1272.0
1300.0
1330.0
1374.0
1416.0
1443.0
1440.0
1397.0
1319.0
1224.0
1140.0
1087.0
1054.0
1038.0
1031.0
1037.0
1043.0
1046.0
1040.0
1038.0
1038.0
1034.0
1033.0
1034.0
1031.0
1026.0
1025.0
1025.0
1025.0
1026.0
1025.0
1022.0
1023.0
1022.0
1024.0
1027.0
1026.0
1024.0
1018.0
1020.0
1024.0
1025.0
1022.0
1020.0
1020.0
1021.0
1023.0
1022.0
1020.0
1015.0
1016.0
1017.0
1020.0
1019.0
1019.0
1016.0
1014.0
1017.0
1019.0
1022.0
1020.0
1016.0
1014.0
1017.0
1019.0
1020.0
1021.0
1017.0
1016.0
1017.0
1018.0
1020.0
1019.0
1018.0
1016.0
1019.0
1022.0
1021.0
1021.0
1020.0
1019.0
1024.0
1026.0
1030.0
1027.0
1023.0
1023.0
1026.0
1032.0
1036.0
1034.0
1036.0
1034.0
1040.0
1042.0
1045.0
1048.0
1046.0
1050.0
1055.0
1060.0
1066.0
1066.0
1066.0
1071.0
1074.0
1081.0
1084.0
1089.0
1084.0
1084.0
1086.0
1087.0
1089.0
1088.0
1085.0
1081.0
1077.0
1078.0
1078.0
1074.0
1069.0
1065.0
1063.0
1064.0
1061.0
1060.0
1054.0
1053.0
1053.0
1054.0
1056.0
1051.0
1050.0
1047.0
1046.0
1049.0
1050.0
1050.0
1046.0
1044.0
1046.0
1048.0
1050.0
1049.0
1045.0
1043.0
1045.0
1044.0
1046.0
1046.0
1044.0
1043.0
1041.0
1045.0
1044.0
1040.0
1038.0
1037.0
1037.0
1041.0
1043.0
1040.0
1037.0
1035.0
1035.0
1039.0
1041.0
1039.0
1038.0
1037.0
1039.0
1040.0
1042.0
1041.0
1038.0
1037.0
1039.0
1042.0
1043.0
1040.0
1041.0
1038.0
1038.0
1041.0
1044.0
1044.0
1042.0
1040.0
1040.0
1043.0
1042.0
1043.0
1039.0
1039.0
1042.0
1044.0
1044.0
1037.0
1037.0
1038.0
1042.0
1041.0
1042.0
1038.0
1036.0
1037.0
1037.0
1041.0
1042.0
1039.0
1037.0
1038.0
1038.0
1040.0
1041.0
1038.0
1036.0
1033.0
1035.0
1040.0
1040.0
1037.0
1035.0
1033.0
1037.0
1040.0
1039.0
1037.0
1033.0
1035.0
1035.0
1037.0
1038.0
1038.0
1035.0
1034.0
1036.0
1036.0
1039.0
1036.0
1035.0
1034.0
1036.0
1035.0
1039.0
1036.0
1035.0
1031.0
1034.0
1037.0
1037.0
1037.0
1033.0
1035.0
1035.0
1037.0
1037.0
1037.0
1033.0
1032.0
1034.0
1036.0
1039.0
1035.0
1032.0
1035.0
1035.0
1037.0
1039.0
1036.0
1036.0
1034.0
1036.0
1037.0
1038.0
1036.0
1032.0
1032.0
1036.0
1038.0
1039.0
1035.0
1033.0
1032.0
1034.0
1037.0
1038.0
1037.0
1032.0
1031.0
1032.0
1037.0
1040.0
1039.0
1036.0
1035.0
1036.0
1038.0
1041.0
1039.0
1041.0
1040.0
1042.0
1044.0
1044.0
1044.0
1042.0
1042.0
1045.0
1051.0
1053.0
1051.0
1048.0
1046.0
1044.0
1046.0
1046.0
1047.0
1042.0
1039.0
1044.0
1044.0
1046.0
1049.0
1046.0
1048.0
1047.0
1048.0
1049.0
1048.0
1043.0
1039.0
1040.0
1041.0
1040.0
1039.0
1039.0
1037.0
1036.0
1041.0
1042.0
1039.0
1036.0
1034.0
1035.0
1037.0
1039.0
1037.0
1037.0
1036.0
1036.0
1038.0
1040.0
1038.0
1034.0
1034.0
1038.0
1039.0
1043.0
1041.0
1038.0
1036.0
1041.0
1044.0
1048.0
1050.0
1050.0
1052.0
1064.0
1072.0
1087.0
1095.0
1102.0
1112.0
1136.0
1160.0
1191.0
1215.0
1243.0
1271.0
1306.0
1341.0
1382.0
1422.0
1444.0
1437.0
1398.0
1324.0
1224.0
1136.0
1077.0
1047.0
1033.0
1032.0
1038.0
1037.0
1035.0
1032.0
1033.0
1036.0
1033.0
1027.0
1021.0
1019.0
1018.0
1020.0
1022.0
1021.0
1016.0
1014.0
1014.0
1018.0
1018.0
1019.0
1016.0
1013.0
1014.0
1016.0
1016.0
1013.0
1010.0
1008.0
1012.0
1014.0
1017.0
1015.0
1013.0
1011.0
1011.0
1015.0
1013.0
1014.0
1008.0
1010.0
1009.0
1012.0
1011.0
1008.0
1007.0
1008.0
1011.0
1011.0
1012.0
1009.0
1009.0
1005.0
1008.0
1014.0
1012.0
1013.0
1011.0
1008.0
1010.0
1014.0
1015.0
1015.0
1012.0
1010.0
1013.0
1015.0
1016.0
1014.0
1015.0
1017.0
1017.0
1018.0
1024.0
1023.0
1023.0
1023.0
1028.0
1029.0
1035.0
1034.0
1036.0
1035.0
1040.0
1044.0
1049.0
1049.0
1052.0
1054.0
1060.0
1065.0
1070.0
1070.0
1069.0
1071.0
1073.0
1073.0
1076.0
1075.0
1068.0
1066.0
1066.0
1066.0
1066.0
1061.0
1056.0
1051.0
1051.0
1052.0
1050.0
1049.0
1043.0
1039.0
1042.0
1043.0
1042.0
1040.0
1037.0
1037.0
1037.0
1039.0
1039.0
1038.0
1032.0
1035.0
1036.0
1038.0
1037.0
1036.0
1035.0
1033.0
1035.0
1037.0
1039.0
1036.0
1034.0
1032.0
1034.0
1035.0
1036.0
1032.0
1031.0
1032.0
1031.0
1035.0
1032.0
1034.0
1028.0
1029.0
1029.0
1035.0
1033.0
1034.0
1032.0
1031.0
1031.0
1036.0
1035.0
1036.0
1033.0
1030.0
1033.0
1036.0
1037.0
1034.0
1032.0
1029.0
1033.0
1038.0
1036.0
1034.0
1032.0
1030.0
1032.0
1036.0
1035.0
1035.0
1030.0
1029.0
1029.0
1033.0
1031.0
1030.0
1028.0
1027.0
1028.0
1031.0
1033.0
1028.0
1028.0
1028.0
1027.0
1027.0
1030.0
1028.0
1025.0
1023.0
1025.0
1029.0
1031.0
1028.0
1027.0
1026.0
1027.0
1027.0
1030.0
1030.0
1025.0
1025.0
1025.0
1026.0
1028.0
1026.0
1023.0
1023.0
1027.0
1026.0
1027.0
1024.0
1023.0
1025.0
1024.0
1027.0
1029.0
1028.0
1024.0
1022.0
1023.0
1027.0
1027.0
1027.0
1023.0
1021.0
1024.0
1027.0
1028.0
1025.0
1022.0
1023.0
1025.0
1027.0
1030.0
1025.0
1022.0
1023.0
1023.0
1029.0
1029.0
1027.0
1023.0
1022.0
1025.0
1026.0
1029.0
1027.0
1023.0
1024.0
1026.0
1029.0
1028.0
1027.0
1022.0
1023.0
1026.0
1029.0
1029.0
1027.0
1025.0
1024.0
1025.0
1028.0
1031.0
1030.0
1025.0
1025.0
1028.0
1030.0
1031.0
1027.0
1026.0
1026.0
1028.0
1033.0
1033.0
1031.0
1028.0
1029.0
1032.0
1038.0
1039.0
1039.0
1037.0
1034.0
1035.0
1039.0
1039.0
1039.0
1038.0
1040.0
1042.0
1041.0
1042.0
1040.0
1035.0
1034.0
1034.0
1036.0
1037.0
1035.0
1035.0
1035.0
1035.0
1037.0
1039.0
1038.0
1038.0
1037.0
1039.0
1042.0
1043.0
1040.0
1032.0
1031.0
1033.0
1032.0
1034.0
1034.0
1031.0
1029.0
1034.0
1035.0
1034.0
1033.0
1025.0
1030.0
1029.0
1033.0
1035.0
1031.0
1028.0
1028.0
1029.0
1031.0
1032.0
1033.0
1029.0
1030.0
1028.0
1033.0
1033.0
1032.0
1030.0
1030.0
1032.0
1034.0
1035.0
1034.0
1033.0
1034.0
1034.0
1041.0
1044.0
1046.0
1051.0
1059.0
1071.0
1087.0
1096.0
1105.0
1119.0
1142.0
1170.0
1199.0
1226.0
1252.0
1277.0
1303.0
1335.0
1372.0
1411.0
1438.0
1450.0
1443.0
1408.0
1344.0
1259.0
1176.0
1109.0
1066.0
1040.0
1031.0
1031.0
1032.0
1029.0
1027.0
1028.0
1031.0
1028.0
1022.0
1021.0
1015.0
1014.0
1013.0
1016.0
1015.0
1010.0
1008.0
1012.0
1014.0
1013.0
1011.0
1009.0
1010.0
1009.0
1013.0
1011.0
1010.0
1005.0
1006.0
1007.0
1009.0
1009.0
1005.0
1004.0
1004.0
1004.0
1008.0
1009.0
1005.0
1005.0
1003.0
1003.0
1006.0
1008.0
1007.0
1002.0
1003.0
1004.0
1005.0
1007.0
1004.0
1002.0
1002.0
1004.0
1006.0
1008.0
1004.0
1003.0
1002.0
1004.0
1009.0
1006.0
1006.0
1006.0
1005.0
1005.0
1007.0
1007.0
1009.0
1007.0
1004.0
1008.0
1012.0
1011.0
1014.0
1010.0
1011.0
1015.0
1015.0
1018.0
1018.0
1017.0
1019.0
1023.0
1026.0
1029.0
1031.0
1029.0
1033.0
1035.0
1040.0
1044.0
1046.0
1046.0
1047.0
1053.0
1060.0
1061.0
1065.0
1064.0
1066.0
1070.0
1074.0
1077.0
1079.0
1077.0
1076.0
1080.0
1081.0
1082.0
1080.0
1076.0
1074.0
1075.0
1075.0
1073.0
1070.0
1064.0
1062.0
1060.0
1061.0
1061.0
1056.0
1050.0
1047.0
1048.0
1051.0
1050.0
1046.0
1043.0
1045.0
1046.0
1049.0
1048.0
1044.0
1042.0
1040.0
1042.0
1046.0
1047.0
1044.0
1041.0
1039.0
1041.0
1044.0
1041.0
1042.0
1036.0
1036.0
1040.0
1041.0
1044.0
1041.0
1037.0
1034.0
1035.0
1041.0
1040.0
1038.0
1037.0
1036.0
1036.0
1038.0
1039.0
1036.0
1032.0
1032.0
1035.0
1037.0
1037.0
1033.0
1030.0
1030.0
1033.0
1034.0
1037.0
1033.0
1030.0
1031.0
1033.0
1036.0
1040.0
1036.0
1034.0
1035.0
1036.0
1035.0
1034.0
1037.0
1035.0
1032.0
1035.0
1036.0
1038.0
1040.0
1036.0
1035.0
1036.0
1036.0
1037.0
1037.0
1035.0
1034.0
1037.0
1037.0
1036.0
1034.0
1031.0
1031.0
1034.0
1037.0
1039.0
1037.0
1035.0
1034.0
1036.0
1036.0
1036.0
1036.0
1033.0
1034.0
1036.0
1039.0
1037.0
1033.0
1031.0
1030.0
1033.0
1034.0
1034.0
1034.0
1029.0
1030.0
1032.0
1034.0
1035.0
1033.0
1031.0
1029.0
1032.0
1034.0
1034.0
1034.0
1032.0
1029.0
1030.0
1033.0
1035.0
1036.0
1030.0
1032.0
1031.0
1034.0
1037.0
1031.0
1031.0
1031.0
1034.0
1034.0
1036.0
1033.0
1028.0
1028.0
1031.0
1033.0
1034.0
1033.0
1032.0
1030.0
1032.0
1034.0
1032.0
1031.0
1031.0
1030.0
1034.0
1035.0
1034.0
1031.0
1030.0
1029.0
1030.0
1035.0
1036.0
1034.0
1031.0
1031.0
1032.0
1035.0
1035.0
1033.0
1031.0
1031.0
1033.0
1038.0
1036.0
1037.0
1035.0
1032.0
1035.0
1037.0
1037.0
1035.0
1030.0
1031.0
1034.0
1037.0
1037.0
1036.0
1034.0
1031.0
1037.0
1038.0
1040.0
1039.0
1038.0
1041.0
1044.0
1044.0
1046.0
1046.0
1044.0
1046.0
1046.0
1050.0
1050.0
1048.0
1048.0
1048.0
1049.0
1049.0
1044.0
1043.0
1040.0
1039.0
1041.0
1044.0
1043.0
1043.0
1041.0
1042.0
1044.0
1046.0
1048.0
1046.0
1042.0
1042.0
1041.0
1042.0
1041.0
1036.0
1033.0
1034.0
1036.0
1040.0
1039.0
1038.0
1033.0
1033.0
1032.0
1036.0
1036.0
1035.0
1031.0
1031.0
1033.0
1036.0
1034.0
1034.0
1031.0
1031.0
1033.0
1034.0
1033.0
1035.0
1032.0
1031.0
1033.0
1038.0
1038.0
1038.0
1037.0
1037.0
1039.0
1046.0
1048.0
1053.0
1057.0
1068.0
1081.0
1092.0
1101.0
1114.0
1131.0
1157.0
1185.0
1214.0
1236.0
1261.0
1284.0
1311.0
1347.0
1389.0
1420.0
1432.0
1413.0
1360.0
1280.0
1194.0
1122.0
1074.0
1041.0
1031.0
1030.0
1034.0
1035.0
1030.0
1027.0
1026.0
1027.0
1024.0
1023.0
1018.0
1014.0
1011.0
1015.0
1015.0
1016.0
1013.0
1011.0
1007.0
1011.0
1012.0
1011.0
1010.0
1008.0
1006.0
1010.0
1011.0
1011.0
1008.0
1006.0
1003.0
1007.0
1010.0
1009.0
1008.0
1005.0
1005.0
1006.0
1011.0
1008.0
1007.0
1003.0
1004.0
1004.0
1007.0
1008.0
1005.0
1001.0
1002.0
1003.0
1008.0
1006.0
1005.0
1004.0
1005.0
1006.0
1008.0
1005.0
1003.0
1000.0
1002.0
1007.0
1009.0
1010.0
1007.0
1003.0
1002.0
1007.0
1009.0
1011.0
1011.0
1006.0
1004.0
1006.0
1010.0
1011.0
1010.0
1007.0
1010.0
1014.0
1019.0
1019.0
1018.0
1018.0
1018.0
1021.0
1024.0
1025.0
1026.0
1025.0
1026.0
1030.0
1036.0
1037.0
1039.0
1041.0
1042.0
1049.0
1054.0
1055.0
1056.0
1056.0
1058.0
1063.0
1065.0
1068.0
1069.0
1068.0
1069.0
1070.0
1073.0
1073.0
1069.0
1067.0
1066.0
1065.0
1067.0
1065.0
1060.0
1055.0
1053.0
1055.0
1054.0
1055.0
1049.0
1045.0
1043.0
1041.0
1046.0
1043.0
1042.0
1040.0
1038.0
1041.0
1040.0
1039.0
1036.0
1035.0
1038.0
1037.0
1042.0
1041.0
1036.0
1036.0
1032.0
1035.0
1040.0
1037.0
1035.0
1034.0
1035.0
1033.0
1036.0
1037.0
1034.0
1031.0
1030.0
1031.0
1036.0
1033.0
1033.0
1029.0
1027.0
1030.0
1032.0
1033.0
1031.0
1030.0
1028.0
1031.0
1032.0
1033.0
1033.0
1028.0
1028.0
1032.0
1035.0
1035.0
1032.0
1031.0
1028.0
1034.0
1035.0
1033.0
1033.0
1031.0
1032.0
1031.0
1035.0
1034.0
1033.0
1030.0
1029.0
1033.0
1035.0
1034.0
1030.0
1028.0
1029.0
1028.0
1034.0
1033.0
1031.0
1027.0
1024.0
1027.0
1031.0
1030.0
1030.0
1028.0
1026.0
1029.0
1030.0
1029.0
1030.0
1026.0
1025.0
1027.0
1031.0
1032.0
1028.0
1026.0
1027.0
1027.0
1031.0
1031.0
1027.0
1024.0
1024.0
1024.0
1029.0
1027.0
1028.0
1023.0
1024.0
1027.0
1028.0
1027.0
1022.0
1022.0
1023.0
1025.0
1027.0
1028.0
1023.0
1022.0
1021.0
1023.0
1026.0
1026.0
1026.0
1024.0
1024.0
1026.0
1026.0
1023.0
1023.0
1020.0
1020.0
1023.0
1027.0
1025.0
1022.0
1020.0
1020.0
1021.0
1026.0
1027.0
1024.0
1021.0
1019.0
1020.0
1025.0
1025.0
1023.0
1022.0
1022.0
1023.0
1025.0
1026.0
1025.0
1020.0
1024.0
1026.0
1028.0
1027.0
1027.0
1022.0
1024.0
1025.0
1027.0
1027.0
1026.0
1023.0
1026.0
1025.0
1028.0
1028.0
1027.0
1025.0
1027.0
1027.0
1030.0
1033.0
1033.0
1032.0
1032.0
1034.0
1035.0
1038.0
1038.0
1037.0
1038.0
1038.0
1043.0
1041.0
1039.0
1036.0
1037.0
1037.0
1039.0
1035.0
1033.0
1030.0
1031.0
1033.0
1036.0
1037.0
1038.0
1034.0
1035.0
1038.0
1039.0
1040.0
1037.0
1035.0
1032.0
1030.0
1031.0
1032.0
1029.0
1027.0
1029.0
1030.0
1031.0
1032.0
1029.0
1026.0
1028.0
1028.0
1031.0
1032.0
1030.0
1027.0
1025.0
1028.0
1030.0
1029.0
1030.0
1027.0
1029.0
1031.0
1031.0
1032.0
1030.0
1028.0
1029.0
1033.0
1035.0
1035.0
1038.0
1037.0
1045.0
1058.0
1071.0
1080.0
1087.0
1098.0
1111.0
1140.0
1173.0
1202.0
1231.0
1262.0
1292.0
1330.0
1378.0
1419.0
1445.0
1440.0
1400.0
1323.0
1230.0
1147.0
1085.0
1044.0
1025.0
1024.0
1030.0
1034.0
1029.0
1027.0
1025.0
1023.0
1022.0
1020.0
1016.0
1009.0
1010.0
1010.0
1011.0
