# Simple Text Format
# Sampling Rate (Hz):= 360.00
# Resolution:= 12
# Labels:= ECG
1030.0
1027.0
1026.0
1026.0
1030.0
1034.0
1036.0
1038.0
1034.0
1033.0
1037.0
1037.0
1040.0
1039.0
1037.0
1034.0
1037.0
1035.0
1036.0
1034.0
1031.0
1027.0
1032.0
1036.0
1039.0
1036.0
1033.0
1034.0
1035.0
1038.0
1040.0
1039.0
1034.0
1033.0
1032.0
1031.0
1032.0
1029.0
1026.0
1025.0
1026.0
1032.0
1031.0
1031.0
1027.0
1026.0
1027.0
1028.0
1031.0
1030.0
1027.0
1026.0
1025.0
1027.0
1028.0
1031.0
1027.0
1027.0
1026.0
1030.0
1029.0
1031.0
1028.0
1024.0
1025.0
1030.0
1032.0
1032.0
1030.0
1028.0
1032.0
1036.0
1042.0
1049.0
1056.0
1063.0
1077.0
1086.0
1098.0
1115.0
1137.0
1168.0
1203.0
1236.0
1270.0
1298.0
1330.0
1367.0
1415.0
1447.0
1456.0
1426.0
1366.0
1279.0
1189.0
1118.0
1069.0
1039.0
1023.0
1019.0
1024.0
1030.0
1029.0
1028.0
1023.0
1016.0
1015.0
1016.0
1013.0
1010.0
1008.0
1006.0
1004.0
1008.0
1008.0
1008.0
1002.0
1003.0
1005.0
1004.0
1005.0
1006.0
1002.0
1000.0
1003.0
1005.0
1007.0
1005.0
1001.0
998.0
997.0
1002.0
1004.0
1004.0
998.0
998.0
998.0
1000.0
1002.0
1000.0
999.0
997.0
998.0
1001.0
1004.0
1000.0
999.0
999.0
998.0
1001.0
1005.0
1004.0
1001.0
999.0
1000.0
1002.0
1004.0
1004.0
1001.0
1001.0
1004.0
1003.0
1006.0
1006.0
1001.0
1002.0
1003.0
1008.0
1008.0
1009.0
1006.0
1005.0
1008.0
1012.0
1015.0
1016.0
1016.0
1015.0
1017.0
1021.0
1028.0
1027.0
1027.0
1028.0
1032.0
1036.0
1040.0
1041.0
1041.0
1044.0
1049.0
1056.0
1061.0
1063.0
1060.0
1063.0
1064.0
1070.0
1072.0
1073.0
1069.0
1067.0
1066.0
1069.0
1070.0
1067.0
1064.0
1061.0
1059.0
1060.0
1059.0
1054.0
1050.0
1045.0
1046.0
1047.0
1046.0
1042.0
1039.0
1035.0
1036.0
1038.0
1041.0
1038.0
1035.0
1034.0
1035.0
1035.0
1037.0
1038.0
1035.0
1030.0
1032.0
1034.0
1036.0
1033.0
1031.0
1028.0
1033.0
1034.0
1035.0
1032.0
1028.0
1029.0
1028.0
1031.0
1032.0
1032.0
1030.0
1027.0
1026.0
1030.0
1031.0
1028.0
1032.0
1027.0
1027.0
1030.0
1031.0
1031.0
1029.0
1029.0
1031.0
1035.0
1035.0
1035.0
1032.0
1029.0
1031.0
1032.0
1036.0
1033.0
1030.0
1028.0
1032.0
1033.0
1034.0
1033.0
1032.0
1029.0
1029.0
1030.0
1033.0
1033.0
1030.0
1028.0
1029.0
1031.0
1033.0
1031.0
1027.0
1026.0
1027.0
1027.0
1030.0
1029.0
1026.0
1025.0
1027.0
1030.0
1030.0
1026.0
1024.0
1024.0
1026.0
1026.0
1028.0
1028.0
1026.0
1023.0
1026.0
1027.0
1025.0
1027.0
1026.0
1023.0
1025.0
1028.0
1029.0
1029.0
1024.0
1024.0
1026.0
1028.0
1030.0
1028.0
1023.0
1023.0
1025.0
1028.0
1029.0
1027.0
1025.0
1024.0
1025.0
1030.0
1031.0
1031.0
1026.0
1025.0
1024.0
1027.0
1030.0
1031.0
1027.0
1027.0
1027.0
1029.0
1032.0
1030.0
1025.0
1025.0
1028.0
1028.0
1031.0
1029.0
1027.0
1024.0
1027.0
1030.0
1033.0
1033.0
1030.0
1026.0
1027.0
1031.0
1031.0
1033.0
1031.0
1029.0
1031.0
1034.0
1039.0
1038.0
1036.0
1035.0
1037.0
1039.0
1042.0
1041.0
1042.0
1038.0
1041.0
1042.0
1045.0
1042.0
1037.0
1035.0
1035.0
1035.0
1038.0
1035.0
1036.0
1034.0
1037.0
1037.0
1039.0
1037.0
1036.0
1035.0
1036.0
1039.0
1039.0
1037.0
1033.0
1027.0
1027.0
1029.0
1031.0
1032.0
1026.0
1025.0
1027.0
1029.0
1031.0
1029.0
1026.0
1024.0
1028.0
1031.0
1031.0
1031.0
1027.0
1025.0
1026.0
1029.0
1032.0
1032.0
1028.0
1027.0
1030.0
1031.0
1031.0
1032.0
1031.0
1028.0
1031.0
1037.0
1038.0
1038.0
1034.0
1036.0
1042.0
1052.0
1059.0
1069.0
1074.0
1087.0
1098.0
1115.0
1140.0
1164.0
1189.0
1211.0
1238.0
1269.0
1296.0
1328.0
1366.0
1402.0
1426.0
1421.0
1385.0
1311.0
1219.0
1136.0
1080.0
1043.0
1031.0
1024.0
1021.0
1024.0
1028.0
1032.0
1032.0
1029.0
1025.0
1020.0
1020.0
1023.0
1019.0
1016.0
1014.0
1011.0
1013.0
1015.0
1015.0
1014.0
1008.0
1008.0
1010.0
1011.0
1014.0
1012.0
1011.0
1010.0
1009.0
1013.0
1014.0
1013.0
1010.0
1006.0
1008.0
1012.0
1013.0
1009.0
1010.0
1008.0
1006.0
1008.0
1009.0
1007.0
1003.0
1003.0
1004.0
1008.0
1009.0
1008.0
1005.0
1004.0
1005.0
1009.0
1012.0
1010.0
1009.0
1009.0
1010.0
1011.0
1010.0
1012.0
1010.0
1009.0
1009.0
1010.0
1011.0
1011.0
1008.0
1006.0
1009.0
1011.0
1016.0
1014.0
1013.0
1010.0
1012.0
1016.0
1017.0
1018.0
1015.0
1016.0
1018.0
1021.0
1023.0
1021.0
1021.0
1022.0
1025.0
1030.0
1031.0
1033.0
1033.0
1033.0
1037.0
1043.0
1046.0
1048.0
1048.0
1048.0
1051.0
1057.0
1062.0
1062.0
1063.0
1063.0
1068.0
1072.0
1074.0
1075.0
1070.0
1071.0
1073.0
1072.0
1078.0
1073.0
1067.0
1065.0
1065.0
1066.0
1063.0
1061.0
1056.0
1053.0
1053.0
1053.0
1050.0
1048.0
1043.0
1043.0
1043.0
1048.0
1047.0
1046.0
1041.0
1038.0
1041.0
1043.0
1042.0
1043.0
1036.0
1037.0
1038.0
1040.0
1043.0
1041.0
1035.0
1034.0
1035.0
1038.0
1040.0
1039.0
1036.0
1034.0
1036.0
1036.0
1039.0
1037.0
1035.0
1031.0
1034.0
1037.0
1040.0
1037.0
1033.0
1030.0
1029.0
1032.0
1033.0
1032.0
1032.0
1031.0
1031.0
1034.0
1035.0
1033.0
1032.0
1029.0
1032.0
1035.0
1038.0
1033.0
1031.0
1030.0
1032.0
1034.0
1037.0
1036.0
1035.0
1034.0
1036.0
1039.0
1041.0
1036.0
1033.0
1034.0
1036.0
1038.0
1037.0
1037.0
1034.0
1032.0
1034.0
1038.0
1037.0
1037.0
1032.0
1033.0
1036.0
1038.0
1037.0
1034.0
1030.0
1030.0
1033.0
1034.0
1036.0
1035.0
1031.0
1030.0
1032.0
1032.0
1036.0
1036.0
1032.0
1031.0
1033.0
1034.0
1035.0
1032.0
1030.0
1031.0
1031.0
1035.0
1038.0
1036.0
1030.0
1029.0
1030.0
1032.0
1032.0
1034.0
1032.0
1029.0
1032.0
1034.0
1038.0
1033.0
1030.0
1029.0
1031.0
1033.0
1035.0
1034.0
1032.0
1029.0
1031.0
1034.0
1033.0
1032.0
1031.0
1030.0
1030.0
1034.0
1034.0
1032.0
1029.0
1029.0
1030.0
1034.0
1036.0
1032.0
1032.0
1028.0
1030.0
1031.0
1033.0
1034.0
1031.0
1032.0
1032.0
1032.0
1036.0
1033.0
1031.0
1028.0
1032.0
1035.0
1038.0
1034.0
1032.0
1032.0
1031.0
1034.0
1034.0
1034.0
1033.0
1031.0
1033.0
1031.0
1035.0
1034.0
1032.0
1030.0
1035.0
1036.0
1039.0
1035.0
1034.0
1031.0
1032.0
1034.0
1034.0
1035.0
1034.0
1035.0
1036.0
1040.0
1041.0
1042.0
1041.0
1041.0
1044.0
1046.0
1049.0
1047.0
1045.0
1044.0
1044.0
1048.0
1049.0
1047.0
1041.0
1038.0
1039.0
1042.0
1044.0
1042.0
1037.0
1039.0
1044.0
1046.0
1050.0
1048.0
1045.0
1044.0
1042.0
1046.0
1046.0
1040.0
1038.0
1032.0
1035.0
1039.0
1038.0
1036.0
1034.0
1034.0
1034.0
1038.0
1037.0
1036.0
1031.0
1033.0
1035.0
1037.0
1038.0
1036.0
1034.0
1031.0
1032.0
1035.0
1037.0
1037.0
1031.0
1031.0
1034.0
1039.0
1037.0
1036.0
1033.0
1034.0
1036.0
1041.0
1042.0
1043.0
1042.0
1044.0
1049.0
1059.0
1070.0
1079.0
1088.0
1092.0
1103.0
1124.0
1145.0
1170.0
1195.0
1220.0
1251.0
1285.0
1320.0
1359.0
1400.0
1431.0
1438.0
1417.0
1361.0
1273.0
1176.0
1105.0
1057.0
1032.0
1023.0
1024.0
1028.0
1028.0
1030.0
1030.0
1030.0
1026.0
1022.0
1016.0
1016.0
1017.0
1017.0
1014.0
1012.0
1010.0
1010.0
1013.0
1013.0
1011.0
1006.0
1006.0
1009.0
1010.0
1012.0
1007.0
1006.0
1004.0
1006.0
1007.0
1008.0
1007.0
1002.0
1002.0
1002.0
1006.0
1005.0
1002.0
1000.0
1002.0
1001.0
1001.0
1002.0
1001.0
1001.0
996.0
999.0
1004.0
1002.0
1004.0
999.0
998.0
1000.0
1004.0
1002.0
1002.0
1002.0
998.0
999.0
1003.0
1004.0
999.0
1002.0
999.0
1003.0
1005.0
1003.0
1001.0
1002.0
998.0
1002.0
1005.0
1008.0
1006.0
1003.0
1005.0
1003.0
1008.0
1009.0
1009.0
1007.0
1008.0
1013.0
1013.0
1015.0
1015.0
1013.0
1014.0
1016.0
1022.0
1024.0
1025.0
1024.0
1025.0
1030.0
1032.0
1035.0
1036.0
1034.0
1039.0
1043.0
1048.0
1051.0
1051.0
1051.0
1054.0
1057.0
1062.0
1065.0
1065.0
1064.0
1063.0
1063.0
1066.0
1066.0
1065.0
1060.0
1058.0
1058.0
1059.0
1059.0
1055.0
1050.0
1047.0
1047.0
1048.0
1046.0
1047.0
1041.0
1038.0
1040.0
1039.0
1040.0
1040.0
1035.0
1033.0
1035.0
1037.0
1037.0
1036.0
1032.0
1031.0
1031.0
1034.0
1035.0
1032.0
1031.0
1029.0
1029.0
1032.0
1034.0
1030.0
1027.0
1028.0
1030.0
1034.0
1033.0
1033.0
1028.0
1026.0
1030.0
1031.0
1032.0
1030.0
1026.0
1027.0
1027.0
1030.0
1031.0
1030.0
1029.0
1026.0
1029.0
1030.0
1033.0
1031.0
1031.0
1028.0
1028.0
1033.0
1035.0
1035.0
1029.0
1032.0
1032.0
1033.0
1034.0
1034.0
1031.0
1031.0
1031.0
1033.0
1032.0
1033.0
1029.0
1027.0
1029.0
1032.0
1030.0
1030.0
1027.0
1026.0
1028.0
1031.0
1032.0
1028.0
1026.0
1024.0
1025.0
1028.0
1029.0
1029.0
1025.0
1023.0
1027.0
1029.0
1029.0
1025.0
1024.0
1024.0
1026.0
1027.0
1028.0
1029.0
1023.0
1024.0
1023.0
1025.0
1030.0
1028.0
1022.0
1023.0
1025.0
1025.0
1027.0
1027.0
1022.0
1022.0
1024.0
1026.0
1027.0
1027.0
1023.0
1024.0
1026.0
1027.0
1028.0
1029.0
1027.0
1022.0
1025.0
1028.0
1030.0
1028.0
1028.0
1024.0
1026.0
1030.0
1028.0
1028.0
1026.0
1026.0
1029.0
1030.0
1029.0
1028.0
1027.0
1023.0
1024.0
1027.0
1030.0
1029.0
1028.0
1025.0
1027.0
1028.0
1031.0
1028.0
1027.0
1025.0
1029.0
1030.0
1032.0
1029.0
1026.0
1028.0
1030.0
1034.0
1031.0
1031.0
1030.0
1028.0
1028.0
1032.0
1034.0
1031.0
1027.0
1027.0
1030.0
1031.0
1032.0
1031.0
1028.0
1026.0
1031.0
1036.0
1040.0
1039.0
1036.0
1037.0
1038.0
1042.0
1045.0
1043.0
1042.0
1040.0
1044.0
1047.0
1046.0
1048.0
1042.0
1039.0
1042.0
1043.0
1042.0
1039.0
1036.0
1038.0
1040.0
1042.0
1043.0
1041.0
1040.0
1039.0
1041.0
1046.0
1046.0
1043.0
1041.0
1039.0
1034.0
1034.0
1035.0
1032.0
1031.0
1030.0
1033.0
1036.0
1039.0
1034.0
1031.0
1032.0
1034.0
1034.0
1037.0
1035.0
1031.0
1030.0
1033.0
1034.0
1034.0
1034.0
1030.0
1031.0
1034.0
1035.0
1037.0
1035.0
1034.0
1033.0
1036.0
1036.0
1040.0
1039.0
1035.0
1037.0
1039.0
1045.0
1047.0
1049.0
1053.0
1063.0
1077.0
1090.0
1098.0
1106.0
1118.0
1144.0
1175.0
1206.0
1236.0
1263.0
1289.0
1316.0
1355.0
1397.0
1432.0
1455.0
1452.0
1416.0
1349.0
1263.0
1178.0
1112.0
1065.0
1037.0
1029.0
1032.0
1038.0
1037.0
1033.0
1028.0
1030.0
1030.0
1027.0
1022.0
1017.0
1016.0
1015.0
1018.0
1018.0
1016.0
1010.0
1010.0
1014.0
1016.0
1018.0
1015.0
1009.0
1010.0
1010.0
1012.0
1013.0
1013.0
1012.0
1010.0
1009.0
1009.0
1011.0
1009.0
1007.0
1006.0
1006.0
1010.0
1011.0
1007.0
1006.0
1003.0
1006.0
1008.0
1011.0
1008.0
1005.0
1002.0
1006.0
1008.0
1011.0
1007.0
1003.0
1005.0
1006.0
1009.0
1008.0
1006.0
1004.0
1005.0
1010.0
1011.0
1010.0
1010.0
1007.0
1007.0
1010.0
1011.0
1017.0
1015.0
1013.0
1011.0
1014.0
1017.0
1017.0
1019.0
1018.0
1017.0
1022.0
1025.0
1027.0
1026.0
1026.0
1028.0
1032.0
1037.0
1041.0
1044.0
1042.0
1043.0
1047.0
1052.0
1057.0
1060.0
1058.0
1060.0
1067.0
1072.0
1073.0
1076.0
1075.0
1075.0
1078.0
1084.0
1085.0
1082.0
1076.0
1076.0
1078.0
1078.0
1076.0
1077.0
1070.0
1066.0
1066.0
1067.0
1063.0
1062.0
1056.0
1054.0
1054.0
1057.0
1055.0
1053.0
1050.0
1048.0
1047.0
1047.0
1052.0
1049.0
1044.0
1044.0
1046.0
1050.0
1048.0
1047.0
1044.0
1042.0
1044.0
1043.0
1047.0
1045.0
1044.0
1044.0
1045.0
1048.0
1047.0
1043.0
1043.0
1043.0
1043.0
1045.0
1045.0
1043.0
1042.0
1040.0
1043.0
1044.0
1043.0
1044.0
1040.0
1039.0
1041.0
1045.0
1043.0
1041.0
1039.0
1038.0
1041.0
1044.0
1046.0
1047.0
1041.0
1042.0
1043.0
1048.0
1048.0
1046.0
1043.0
1043.0
1046.0
1046.0
1049.0
1049.0
1047.0
1044.0
1045.0
1048.0
1047.0
1046.0
1043.0
1041.0
1044.0
1046.0
1048.0
1044.0
1039.0
1041.0
1041.0
1044.0
1044.0
1043.0
1040.0
1040.0
1042.0
1042.0
1042.0
1040.0
1038.0
1037.0
1041.0
1042.0
1044.0
1042.0
1038.0
1039.0
1042.0
1043.0
1044.0
1043.0
1042.0
1042.0
1044.0
1045.0
1045.0
1042.0
1038.0
1038.0
1040.0
1043.0
1047.0
1041.0
1038.0
1038.0
1038.0
1040.0
1042.0
1038.0
1037.0
1037.0
1039.0
1040.0
1041.0
1040.0
1036.0
1036.0
1039.0
1044.0
1043.0
1042.0
1039.0
1037.0
1039.0
1041.0
1042.0
1039.0
1037.0
1038.0
1039.0
1043.0
1041.0
1041.0
1038.0
1038.0
1038.0
1037.0
1039.0
1039.0
1039.0
1037.0
1039.0
1039.0
1040.0
1041.0
1039.0
1038.0
1040.0
1042.0
1042.0
1043.0
1037.0
1039.0
1041.0
1044.0
1043.0
1045.0
1041.0
1041.0
1042.0
1045.0
1047.0
1046.0
1046.0
1047.0
1049.0
1054.0
1054.0
1052.0
1052.0
1051.0
1054.0
1055.0
1057.0
1053.0
1050.0
1048.0
1050.0
1051.0
1052.0
1050.0
1046.0
1046.0
1047.0
1052.0
1054.0
1054.0
1051.0
1050.0
1050.0
1052.0
1050.0
1046.0
1044.0
1041.0
1045.0
1045.0
1046.0
1042.0
1038.0
1037.0
1041.0
1042.0
1044.0
1043.0
1040.0
1041.0
1040.0
1043.0
1043.0
1043.0
1042.0
1039.0
1038.0
1041.0
1042.0
1041.0
1039.0
1042.0
1042.0
1045.0
1045.0
1043.0
1042.0
1044.0
1047.0
1052.0
1053.0
1059.0
1060.0
1068.0
1079.0
1094.0
1105.0
1113.0
1127.0
1151.0
1181.0
1212.0
1238.0
1268.0
1289.0
1324.0
1365.0
1412.0
1439.0
1441.0
1408.0
1344.0
1254.0
1173.0
1111.0
1068.0
1045.0
1033.0
1036.0
1043.0
1044.0
1038.0
1036.0
1038.0
1037.0
1036.0
1033.0
1025.0
1024.0
1022.0
1021.0
1027.0
1025.0
1025.0
1019.0
1018.0
1023.0
1025.0
1026.0
1022.0
1020.0
1016.0
1020.0
1021.0
1023.0
1019.0
1017.0
1020.0
1019.0
1022.0
1023.0
1018.0
1015.0
1013.0
1016.0
1017.0
1018.0
1016.0
1013.0
1014.0
1016.0
1017.0
1017.0
1015.0
1013.0
1012.0
1014.0
1019.0
1019.0
1018.0
1016.0
1012.0
1014.0
1018.0
1017.0
1015.0
1013.0
1012.0
1014.0
1016.0
1017.0
1014.0
1012.0
1012.0
1013.0
1017.0
1019.0
1018.0
1014.0
1013.0
1018.0
1020.0
1019.0
1018.0
1017.0
1018.0
1020.0
1023.0
1025.0
1025.0
1025.0
1025.0
1030.0
1033.0
1033.0
1033.0
1031.0
1032.0
1038.0
1042.0
1043.0
1045.0
1045.0
1047.0
1052.0
1058.0
1061.0
1061.0
1061.0
1063.0
1067.0
1073.0
1077.0
1074.0
1074.0
1073.0
1075.0
1079.0
1080.0
1079.0
1070.0
1070.0
1069.0
1072.0
1068.0
1069.0
1063.0
1060.0
1060.0
1059.0
1058.0
1056.0
1052.0
1051.0
1054.0
1053.0
1053.0
1047.0
1043.0
1044.0
1045.0
1047.0
1049.0
1047.0
1042.0
1043.0
1045.0
1046.0
1046.0
1044.0
1041.0
1042.0
1043.0
1044.0
1043.0
1042.0
1038.0
1039.0
1043.0
1044.0
1044.0
1042.0
1039.0
1036.0
1038.0
1039.0
1041.0
1040.0
1036.0
1035.0
1038.0
1039.0
1041.0
1038.0
1035.0
1035.0
1037.0
1040.0
1040.0
1038.0
1036.0
1035.0
1036.0
1038.0
1038.0
1038.0
1032.0
1033.0
1034.0
1038.0
1038.0
1035.0
1031.0
1033.0
1032.0
1035.0
1035.0
1032.0
1032.0
1029.0
1031.0
1033.0
1035.0
1033.0
1029.0
1028.0
1030.0
1031.0
1033.0
1031.0
1030.0
1026.0
1027.0
1028.0
1030.0
1028.0
1025.0
1027.0
1026.0
1028.0
1028.0
1026.0
1024.0
1023.0
1027.0
1028.0
1029.0
1025.0
1023.0
1022.0
1025.0
1027.0
1027.0
1023.0
1019.0
1019.0
1023.0
1025.0
1024.0
1021.0
1020.0
1021.0
1021.0
1023.0
1023.0
1022.0
1020.0
1017.0
1023.0
1025.0
1023.0
1021.0
1018.0
1019.0
1021.0
1021.0
1024.0
1021.0
1021.0
1022.0
1022.0
1026.0
1025.0
1021.0
1019.0
1017.0
1022.0
1023.0
1025.0
1021.0
1018.0
1020.0
1021.0
1023.0
1024.0
1020.0
1020.0
1017.0
1020.0
1024.0
1023.0
1021.0
1018.0
1018.0
1020.0
1023.0
1021.0
1020.0
1015.0
1018.0
1018.0
1024.0
1020.0
1022.0
1018.0
1017.0
1020.0
1024.0
1024.0
1022.0
1018.0
1021.0
1022.0
1026.0
1026.0
1026.0
1027.0
1025.0
1029.0
1031.0
1032.0
1032.0
1029.0
1030.0
1034.0
1037.0
1036.0
1033.0
1030.0
1028.0
1028.0
1033.0
1028.0
1029.0
1027.0
1028.0
1028.0
1029.0
1030.0
1032.0
1029.0
1029.0
1032.0
1035.0
1034.0
1029.0
1024.0
1024.0
1024.0
1024.0
1023.0
1024.0
1022.0
1020.0
1022.0
1026.0
1026.0
1024.0
1023.0
1023.0
1022.0
1025.0
1025.0
1024.0
1019.0
1021.0
1024.0
1025.0
1026.0
1025.0
1021.0
1022.0
1022.0
1025.0
1027.0
1024.0
1024.0
1021.0
1025.0
1027.0
1028.0
1028.0
1028.0
1031.0
1037.0
1047.0
1055.0
1061.0
1072.0
1079.0
1090.0
1108.0
1130.0
1155.0
1183.0
1213.0
1244.0
1276.0
1308.0
1344.0
1385.0
1422.0
1445.0
1438.0
1397.0
1321.0
1230.0
1149.0
1092.0
1052.0
1029.0
1018.0
1018.0
1018.0
1021.0
1023.0
1023.0
1017.0
1014.0
1010.0
1008.0
1009.0
1005.0
1005.0
999.0
1001.0
1001.0
1004.0
1002.0
1001.0
999.0
998.0
998.0
1001.0
1003.0
1001.0
997.0
997.0
999.0
999.0
1000.0
998.0
998.0
995.0
997.0
1000.0
1000.0
994.0
993.0
992.0
993.0
999.0
998.0
997.0
994.0
995.0
995.0
999.0
996.0
997.0
994.0
998.0
996.0
999.0
999.0
998.0
992.0
996.0
999.0
1001.0
1001.0
1001.0
998.0
998.0
1002.0
1003.0
1002.0
1003.0
999.0
1000.0
1002.0
1004.0
1007.0
1006.0
1004.0
1006.0
1007.0
1012.0
1014.0
1015.0
1011.0
1016.0
1020.0
1024.0
1027.0
1027.0
1028.0
1033.0
1037.0
1040.0
1044.0
1047.0
1048.0
1050.0
1055.0
1060.0
1063.0
1065.0
1065.0
1067.0
1067.0
1071.0
1071.0
1069.0
1068.0
1066.0
1066.0
1065.0
1064.0
1058.0
1053.0
1051.0
1050.0
1051.0
1049.0
1046.0
1041.0
1038.0
1038.0
1040.0
1041.0
1037.0
1033.0
1031.0
1034.0
1035.0
1035.0
1031.0
1032.0
1031.0
1033.0
1034.0
1032.0
1030.0
1029.0
1027.0
1032.0
1033.0
1032.0
1029.0
1027.0
1027.0
1028.0
1030.0
1031.0
1030.0
1027.0
1027.0
1026.0
1029.0
1028.0
1026.0
1024.0
1028.0
1027.0
1029.0
1029.0
1026.0
1025.0
1023.0
1028.0
1029.0
1032.0
1028.0
1026.0
1026.0
1029.0
1032.0
1032.0
1032.0
1029.0
1029.0
1034.0
1034.0
1035.0
1030.0
1028.0
1029.0
1029.0
1034.0
1034.0
1030.0
1027.0
1029.0
1031.0
1033.0
1033.0
1031.0
1027.0
1029.0
1028.0
1033.0
1031.0
1031.0
1026.0
1028.0
1027.0
1031.0
1029.0
1030.0
1024.0
1025.0
1028.0
1030.0
1029.0
1027.0
1026.0
1024.0
1026.0
1027.0
1028.0
1028.0
1024.0
1025.0
1026.0
1028.0
1025.0
1025.0
1023.0
1023.0
1025.0
1026.0
1025.0
1024.0
1021.0
1022.0
1025.0
1028.0
1027.0
1024.0
1022.0
1024.0
1026.0
1026.0
1027.0
1024.0
1025.0
1024.0
1025.0
1027.0
1026.0
1023.0
1023.0
1024.0
1024.0
1028.0
1028.0
1024.0
1024.0
1022.0
1027.0
1026.0
1030.0
1025.0
1025.0
1025.0
1024.0
1028.0
1029.0
1029.0
1026.0
1027.0
1029.0
1028.0
1028.0
1025.0
1023.0
1026.0
1028.0
1028.0
1030.0
1027.0
1024.0
1023.0
1024.0
1027.0
1029.0
1027.0
1023.0
1025.0
1027.0
1028.0
1030.0
1028.0
1027.0
1030.0
1033.0
1036.0
1038.0
1036.0
1033.0
1036.0
1037.0
1042.0
1041.0
1039.0
1037.0
1038.0
1041.0
1041.0
1040.0
1035.0
1034.0
1033.0
1033.0
1035.0
1035.0
1033.0
1032.0
1033.0
1037.0
1039.0
1040.0
1038.0
1037.0
1038.0
1036.0
1035.0
1034.0
1030.0
1027.0
1028.0
1029.0
1030.0
1030.0
1029.0
1025.0
1024.0
1027.0
1028.0
1029.0
1027.0
1023.0
1025.0
1027.0
1029.0
1029.0
1025.0
1025.0
1026.0
1026.0
1028.0
1027.0
1027.0
1025.0
1026.0
1027.0
1028.0
1029.0
1029.0
1029.0
1030.0
1035.0
1038.0
1044.0
1049.0
1059.0
1071.0
1085.0
1098.0
1113.0
1133.0
1161.0
1188.0
1221.0
1252.0
1279.0
1308.0
1347.0
1392.0
1426.0
1430.0
1397.0
1319.0
1218.0
1128.0
1064.0
1033.0
1017.0
1014.0
1017.0
1022.0
1029.0
1027.0
1025.0
1022.0
1015.0
1014.0
1013.0
1015.0
1014.0
1010.0
1006.0
1008.0
1009.0
1012.0
1013.0
1010.0
1008.0
1006.0
1008.0
1011.0
1010.0
1008.0
1006.0
1005.0
1006.0
1007.0
1009.0
1005.0
1003.0
1002.0
1003.0
1005.0
1008.0
1007.0
1003.0
1003.0
1005.0
1007.0
1010.0
1008.0
1006.0
1005.0
1005.0
1008.0
1009.0
1007.0
1008.0
1007.0
1010.0
1011.0
1014.0
1013.0
1011.0
1013.0
1014.0
1017.0
1017.0
1017.0
1018.0
1019.0
1022.0
1028.0
1028.0
1030.0
1030.0
1032.0
1033.0
1041.0
1042.0
1043.0
1042.0
1047.0
1051.0
1059.0
1059.0
1064.0
1063.0
1066.0
1069.0
1073.0
1074.0
1075.0
1070.0
1072.0
1075.0
1078.0
1079.0
1073.0
1068.0
1067.0
1067.0
1065.0
1065.0
1060.0
1054.0
1052.0
1052.0
1053.0
1050.0
1046.0
1044.0
1043.0
1043.0
1044.0
1042.0
1041.0
1037.0
1036.0
1040.0
1038.0
1039.0
1038.0
1033.0
1034.0
1037.0
1038.0
1038.0
1036.0
1034.0
1034.0
1032.0
1036.0
1035.0
1032.0
1031.0
1033.0
1035.0
1035.0
1031.0
1031.0
1027.0
1030.0
1031.0
1035.0
1034.0
1029.0
1027.0
1026.0
1027.0
1032.0
1031.0
1029.0
1028.0
1026.0
1029.0
1028.0
1026.0
1025.0
1024.0
1027.0
1030.0
1033.0
1033.0
1028.0
1027.0
1025.0
1028.0
1032.0
1032.0
1031.0
1028.0
1027.0
1029.0
1033.0
1031.0
1029.0
1027.0
1028.0
1027.0
1029.0
1030.0
1027.0
1023.0
1025.0
1027.0
1031.0
1030.0
1028.0
1024.0
1024.0
1026.0
1026.0
1025.0
1025.0
1026.0
1027.0
1026.0
1029.0
1025.0
1024.0
1021.0
1023.0
1026.0
1030.0
1028.0
1027.0
1023.0
1020.0
1023.0
1026.0
1024.0
1026.0
1023.0
1020.0
1019.0
1022.0
1024.0
1022.0
1020.0
1022.0
1024.0
1024.0
1023.0
1020.0
1015.0
1019.0
1020.0
1024.0
1023.0
1022.0
1018.0
1019.0
1019.0
1021.0
1022.0
1021.0
1019.0
1015.0
1020.0
1023.0
1022.0
1022.0
1018.0
1018.0
1022.0
1023.0
1025.0
1022.0
1019.0
1018.0
1020.0
1023.0
1024.0
1024.0
1021.0
1022.0
1022.0
1025.0
1023.0
1022.0
1018.0
1021.0
1021.0
1025.0
1023.0
1021.0
1020.0
1020.0
1021.0
1023.0
1021.0
1025.0
1021.0
1021.0
1022.0
1023.0
1023.0
1021.0
1019.0
1019.0
1024.0
1026.0
1028.0
1026.0
1026.0
1025.0
1029.0
1032.0
1029.0
1030.0
1027.0
1030.0
1033.0
1034.0
1033.0
1032.0
1031.0
1033.0
1035.0
1036.0
1034.0
1033.0
1028.0
1025.0
1026.0
1031.0
1032.0
1028.0
1029.0
1033.0
1035.0
1035.0
1034.0
1033.0
1030.0
1030.0
1032.0
1033.0
1031.0
1026.0
1022.0
1022.0
1023.0
1027.0
1024.0
1024.0
1022.0
1021.0
1023.0
1025.0
1023.0
1022.0
1022.0
1020.0
1023.0
1026.0
1023.0
1022.0
1020.0
1020.0
1023.0
1027.0
1025.0
1024.0
1022.0
1023.0
1025.0
1027.0
1028.0
1026.0
1024.0
1024.0
1029.0
1032.0
1033.0
1032.0
1031.0
1036.0
1042.0
1048.0
1056.0
1066.0
1073.0
1083.0
1093.0
1111.0
1133.0
1158.0
1182.0
1208.0
1236.0
1262.0
1289.0
1319.0
1355.0
1392.0
1417.0
1416.0
1386.0
1319.0
1235.0
1150.0
1091.0
1052.0
1027.0
1015.0
1013.0
1015.0
1019.0
1021.0
1020.0
1017.0
1012.0
1012.0
1011.0
1011.0
1006.0
1004.0
1000.0
1000.0
1001.0
1003.0
1001.0
1000.0
997.0
999.0
1001.0
1002.0
1002.0
998.0
994.0
995.0
996.0
1000.0
1000.0
997.0
993.0
994.0
994.0
999.0
994.0
994.0
992.0
991.0
994.0
996.0
994.0
992.0
991.0
990.0
994.0
995.0
996.0
991.0
990.0
991.0
993.0
994.0
994.0
992.0
990.0
991.0
993.0
997.0
995.0
992.0
991.0
990.0
994.0
997.0
998.0
995.0
993.0
996.0
996.0
999.0
998.0
995.0
994.0
993.0
998.0
1002.0
998.0
999.0
996.0
996.0
999.0
1002.0
1002.0
1001.0
1003.0
1002.0
1005.0
1008.0
1008.0
1007.0
1007.0
1009.0
1013.0
1017.0
1020.0
1016.0
1017.0
1016.0
1023.0
1027.0
1029.0
1029.0
1030.0
1031.0
1039.0
1040.0
1044.0
1043.0
1042.0
1046.0
1051.0
1054.0
1056.0
1052.0
1050.0
1051.0
1052.0
1053.0
1052.0
1049.0
1046.0
1046.0
1044.0
1045.0
1043.0
1041.0
1036.0
1034.0
1038.0
1035.0
1034.0
1031.0
1028.0
1026.0
1030.0
1032.0
1029.0
1027.0
1023.0
1026.0
1026.0
1027.0
1027.0
1025.0
1020.0
1019.0
1024.0
1025.0
1023.0
1021.0
1017.0
1018.0
1018.0
1021.0
1021.0
1020.0
1016.0
1015.0
1016.0
1018.0
1017.0
1016.0
1011.0
1015.0
1019.0
1020.0
1018.0
1016.0
1013.0
1014.0
1014.0
1016.0
1016.0
1016.0
1015.0
1014.0
1018.0
1019.0
1017.0
1016.0
1013.0
1014.0
1016.0
1018.0
1018.0
1018.0
1012.0
1013.0
1016.0
1019.0
1020.0
1016.0
1013.0
1012.0
1015.0
1015.0
1016.0
1012.0
1012.0
1012.0
1014.0
1015.0
1014.0
1011.0
1007.0
1009.0
1011.0
1013.0
1013.0
1011.0
1010.0
1007.0
1009.0
1012.0
1011.0
1010.0
1008.0
1009.0
1010.0
1011.0
1012.0
1008.0
1008.0
1007.0
1012.0
1013.0
1012.0
1009.0
1007.0
1006.0
1009.0
1014.0
1012.0
1010.0
1007.0
1008.0
1008.0
1014.0
1011.0
1009.0
1006.0
1008.0
1010.0
1012.0
1013.0
1009.0
1005.0
1008.0
1010.0
1014.0
1013.0
1012.0
1008.0
1006.0
1009.0
1012.0
1013.0
1010.0
1010.0
1006.0
1012.0
1014.0
1011.0
1010.0
1009.0
1008.0
1013.0
1012.0
1013.0
1011.0
1007.0
1007.0
1011.0
1012.0
1013.0
1011.0
1007.0
1007.0
1010.0
1014.0
1012.0
1012.0
1009.0
1009.0
1010.0
1016.0
1012.0
1012.0
1011.0
1011.0
1014.0
1014.0
1014.0
1013.0
1009.0
1010.0
1013.0
1013.0
1015.0
1011.0
1011.0
1011.0
1014.0
1016.0
1015.0
1013.0
1012.0
1012.0
1013.0
1020.0
1022.0
1020.0
1020.0
1019.0
1020.0
1023.0
1024.0
1022.0
1022.0
1024.0
1026.0
1027.0
1026.0
1023.0
1021.0
1018.0
1020.0
1022.0
1022.0
1019.0
1016.0
1018.0
1020.0
1021.0
1022.0
1018.0
1021.0
1022.0
1024.0
1025.0
1023.0
1019.0
1016.0
1015.0
1013.0
1015.0
1014.0
1012.0
1010.0
1011.0
1015.0
1018.0
1017.0
1015.0
1013.0
1012.0
1014.0
1016.0
1017.0
1012.0
1011.0
1011.0
1014.0
1017.0
1016.0
1014.0
1010.0
1010.0
1013.0
1016.0
1014.0
1013.0
1009.0
1009.0
1012.0
1014.0
1015.0
1013.0
1011.0
1014.0
1016.0
1021.0
1023.0
1025.0
1026.0
1032.0
1043.0
1053.0
1063.0
1071.0
1077.0
1092.0
1118.0
1149.0
1174.0
1206.0
1235.0
1267.0
1303.0
1344.0
1383.0
1416.0
1434.0
1424.0
1389.0
1320.0
1235.0
1152.0
1086.0
1048.0
1022.0
1012.0
1011.0
1009.0
1009.0
1010.0
1011.0
1014.0
1011.0
1002.0
996.0
993.0
996.0
998.0
996.0
993.0
990.0
991.0
991.0
995.0
991.0
990.0
987.0
990.0
989.0
992.0
992.0
989.0
989.0
985.0
990.0
992.0
990.0
987.0
986.0
984.0
986.0
988.0
984.0
984.0
981.0
981.0
987.0
988.0
987.0
983.0
981.0
982.0
985.0
986.0
986.0
984.0
982.0
984.0
983.0
986.0
986.0
985.0
983.0
984.0
986.0
989.0
990.0
987.0
986.0
987.0
992.0
994.0
991.0
991.0
989.0
990.0
994.0
995.0
994.0
995.0
994.0
994.0
999.0
999.0
1001.0
1001.0
1004.0
1003.0
1010.0
1012.0
1011.0
1012.0
1012.0
1016.0
1021.0
1026.0
1028.0
1026.0
1030.0
1032.0
1038.0
1043.0
1046.0
1048.0
1049.0
1050.0
1057.0
1059.0
1060.0
1058.0
1055.0
1055.0
1057.0
1057.0
1056.0
1050.0
1047.0
1045.0
1044.0
1048.0
1044.0
1038.0
1033.0
1032.0
1032.0
1034.0
1031.0
1027.0
1023.0
1024.0
1025.0
1026.0
1022.0
1020.0
1017.0
1019.0
1020.0
1020.0
1022.0
1019.0
1015.0
1015.0
1019.0
1020.0
1022.0
1018.0
1013.0
1014.0
1015.0
1018.0
1017.0
1015.0
1012.0
1012.0
1013.0
1016.0
1016.0
1014.0
1011.0
1011.0
1013.0
1015.0
1015.0
1013.0
1010.0
1010.0
1011.0
1013.0
1014.0
1011.0
1012.0
1014.0
1014.0
1017.0
1015.0
1011.0
1011.0
1011.0
1015.0
1019.0
1017.0
1015.0
1012.0
1014.0
1016.0
1017.0
1015.0
1017.0
1014.0
1014.0
1016.0
1017.0
1018.0
1016.0
1013.0
1014.0
1017.0
1017.0
1017.0
1015.0
1012.0
1014.0
1017.0
1017.0
1014.0
1016.0
1014.0
1013.0
1015.0
1016.0
1017.0
1013.0
1011.0
1012.0
1014.0
1017.0
1015.0
1013.0
1011.0
1007.0
1012.0
1015.0
1016.0
1013.0
1010.0
1009.0
1013.0
1016.0
1013.0
1011.0
1007.0
1011.0
1013.0
1013.0
1013.0
1010.0
1008.0
1008.0
1011.0
1011.0
1012.0
1011.0
1011.0
1009.0
1011.0
1011.0
1011.0
1009.0
1010.0
1008.0
1009.0
1013.0
1013.0
1009.0
1009.0
1009.0
1011.0
1014.0
1014.0
1010.0
1009.0
1008.0
1011.0
1014.0
1015.0
1011.0
1009.0
1010.0
1013.0
1016.0
1015.0
1013.0
1013.0
1011.0
1012.0
1018.0
1015.0
1012.0
1007.0
1010.0
1011.0
1015.0
1016.0
1012.0
1008.0
1012.0
1015.0
1016.0
1014.0
1011.0
1009.0
1013.0
1015.0
1016.0
1015.0
1014.0
1011.0
1012.0
1015.0
1020.0
1020.0
1019.0
1018.0
1021.0
1022.0
1024.0
1023.0
1024.0
1023.0
1025.0
1027.0
1029.0
1029.0
1026.0
1022.0
1022.0
1024.0
1023.0
1023.0
1021.0
1018.0
1020.0
1023.0
1025.0
1023.0
1025.0
1023.0
1022.0
1024.0
1025.0
1026.0
1022.0
1015.0
1013.0
1017.0
1018.0
1018.0
1016.0
1014.0
1016.0
1019.0
1018.0
1017.0
1015.0
1013.0
1012.0
1015.0
1018.0
1018.0
1014.0
1010.0
1011.0
1013.0
1016.0
1016.0
1012.0
1011.0
1013.0
1014.0
1015.0
1015.0
1012.0
1011.0
1014.0
1018.0
1023.0
1025.0
1027.0
1033.0
1039.0
1056.0
1068.0
