# Simple Text Format
# Sampling Rate (Hz):= 360.00
# Resolution:= 12
# Labels:= ECG
1038.0
1046.0
1047.0
1046.0
1046.0
1052.0
1055.0
1060.0
1062.0
1059.0
1057.0
1059.0
1064.0
1066.0
1064.0
1059.0
1053.0
1053.0
1054.0
1055.0
1054.0
1047.0
1044.0
1040.0
1042.0
1043.0
1039.0
1031.0
1030.0
1026.0
1031.0
1032.0
1030.0
1026.0
1022.0
1025.0
1025.0
1025.0
1024.0
1022.0
1020.0
1021.0
1024.0
1026.0
1022.0
1021.0
1018.0
1019.0
1022.0
1023.0
1022.0
1023.0
1018.0
1019.0
1019.0
1021.0
1018.0
1018.0
1013.0
1017.0
1017.0
1019.0
1015.0
1011.0
1011.0
1010.0
1012.0
1017.0
1013.0
1011.0
1009.0
1009.0
1010.0
1013.0
1012.0
1011.0
1008.0
1010.0
1011.0
1014.0
1012.0
1010.0
1008.0
1010.0
1012.0
1013.0
1011.0
1013.0
1011.0
1013.0
1015.0
1014.0
1014.0
1013.0
1010.0
1014.0
1017.0
1020.0
1019.0
1015.0
1013.0
1015.0
1016.0
1020.0
1014.0
1014.0
1012.0
1014.0
1016.0
1018.0
1018.0
1014.0
1011.0
1012.0
1015.0
1014.0
1014.0
1010.0
1009.0
1011.0
1015.0
1015.0
1015.0
1012.0
1012.0
1013.0
1016.0
1015.0
1015.0
1013.0
1008.0
1011.0
1013.0
1017.0
1014.0
1011.0
1007.0
1009.0
1012.0
1014.0
1013.0
1012.0
1010.0
1012.0
1015.0
1016.0
1015.0
1012.0
1009.0
1010.0
1012.0
1014.0
1012.0
1010.0
1008.0
1009.0
1011.0
1012.0
1012.0
1012.0
1010.0
1009.0
1011.0
1014.0
1012.0
1010.0
1005.0
1009.0
1010.0
1016.0
1012.0
1011.0
1007.0
1008.0
1013.0
1015.0
1015.0
1012.0
1009.0
1009.0
1013.0
1012.0
1015.0
1011.0
1009.0
1012.0
1012.0
1018.0
1016.0
1012.0
1009.0
1010.0
1013.0
1015.0
1013.0
1010.0
1014.0
1013.0
1015.0
1014.0
1014.0
1011.0
1010.0
1010.0
1015.0
1013.0
1014.0
1012.0
1010.0
1011.0
1013.0
1018.0
1016.0
1016.0
1015.0
1017.0
1020.0
1021.0
1021.0
1022.0
1022.0
1023.0
1024.0
1028.0
1029.0
1027.0
1024.0
1026.0
1029.0
1028.0
1028.0
1025.0
1022.0
1021.0
1021.0
1021.0
1021.0
1022.0
1017.0
1022.0
1023.0
1028.0
1026.0
1023.0
1023.0
1023.0
1026.0
1029.0
1024.0
1022.0
1016.0
1013.0
1017.0
1019.0
1016.0
1015.0
1014.0
1014.0
1019.0
1020.0
1016.0
1014.0
1012.0
1012.0
1018.0
1018.0
1018.0
1016.0
1013.0
1015.0
1017.0
1019.0
1019.0
1016.0
1010.0
1013.0
1014.0
1018.0
1015.0
1015.0
1015.0
1017.0
1018.0
1020.0
1020.0
1018.0
1018.0
1023.0
1025.0
1032.0
1038.0
1044.0
1054.0
1068.0
1080.0
1091.0
1102.0
1125.0
1151.0
1180.0
1215.0
1248.0
1276.0
1301.0
1334.0
1374.0
1416.0
1443.0
1440.0
1405.0
1336.0
1247.0
1160.0
1094.0
1050.0
1024.0
1011.0
1011.0
1017.0
1023.0
1018.0
1015.0
1012.0
1009.0
1007.0
1006.0
1004.0
999.0
999.0
997.0
997.0
1000.0
997.0
995.0
990.0
991.0
994.0
998.0
994.0
992.0
989.0
990.0
993.0
997.0
993.0
991.0
990.0
991.0
992.0
995.0
994.0
988.0
986.0
989.0
992.0
992.0
990.0
986.0
984.0
986.0
988.0
990.0
990.0
988.0
986.0
986.0
990.0
989.0
990.0
989.0
986.0
986.0
986.0
990.0
985.0
984.0
982.0
984.0
988.0
989.0
989.0
986.0
984.0
986.0
990.0
992.0
993.0
988.0
988.0
989.0
990.0
992.0
995.0
993.0
993.0
997.0
997.0
1001.0
1000.0
1001.0
998.0
1002.0
1009.0
1014.0
1013.0
1015.0
1016.0
1017.0
1022.0
1028.0
1032.0
1030.0
1033.0
1038.0
1043.0
1048.0
1050.0
1051.0
1050.0
1054.0
1059.0
1061.0
1059.0
1053.0
1051.0
1051.0
1054.0
1056.0
1053.0
1046.0
1045.0
1040.0
1043.0
1044.0
1039.0
1034.0
1031.0
1032.0
1031.0
1032.0
1031.0
1028.0
1024.0
1028.0
1030.0
1028.0
1028.0
1026.0
1023.0
1022.0
1024.0
1026.0
1024.0
1022.0
1018.0
1022.0
1024.0
1024.0
1023.0
1018.0
1016.0
1018.0
1021.0
1021.0
1018.0
1015.0
1014.0
1015.0
1018.0
1019.0
1018.0
1015.0
1011.0
1014.0
1016.0
1016.0
1014.0
1009.0
1010.0
1011.0
1013.0
1013.0
1013.0
1011.0
1009.0
1011.0
1011.0
1015.0
1013.0
1011.0
1009.0
1011.0
1014.0
1014.0
1012.0
1013.0
1012.0
1014.0
1016.0
1016.0
1016.0
1013.0
1010.0
1013.0
1016.0
1020.0
1018.0
1011.0
1012.0
1014.0
1018.0
1016.0
1012.0
1010.0
1010.0
1012.0
1015.0
1018.0
1014.0
1010.0
1008.0
1009.0
1014.0
1016.0
1015.0
1009.0
1009.0
1011.0
1013.0
1016.0
1013.0
1010.0
1006.0
1011.0
1013.0
1016.0
1012.0
1011.0
1009.0
1008.0
1013.0
1011.0
1010.0
1007.0
1007.0
1008.0
1013.0
1013.0
1012.0
1007.0
1008.0
1008.0
1012.0
1013.0
1015.0
1007.0
1007.0
1009.0
1013.0
1011.0
1010.0
1008.0
1007.0
1010.0
1012.0
1011.0
1010.0
1008.0
1005.0
1008.0
1010.0
1011.0
1013.0
1008.0
1006.0
1008.0
1011.0
1013.0
1011.0
1008.0
1007.0
1007.0
1011.0
1011.0
1012.0
1009.0
1006.0
1008.0
1012.0
1014.0
1011.0
1008.0
1005.0
1007.0
1010.0
1016.0
1012.0
1010.0
1005.0
1009.0
1012.0
1014.0
1012.0
1012.0
1007.0
1009.0
1012.0
1013.0
1010.0
1009.0
1008.0
1010.0
1014.0
1015.0
1012.0
1008.0
1007.0
1011.0
1015.0
1016.0
1017.0
1014.0
1016.0
1016.0
1020.0
1022.0
1023.0
1019.0
1021.0
1021.0
1025.0
1027.0
1027.0
1023.0
1020.0
1021.0
1022.0
1023.0
1019.0
1017.0
1016.0
1017.0
1020.0
1021.0
1020.0
1018.0
1020.0
1024.0
1023.0
1024.0
1021.0
1018.0
1018.0
1015.0
1015.0
1016.0
1013.0
1009.0
1010.0
1014.0
1013.0
1014.0
1015.0
1008.0
1010.0
1011.0
1016.0
1016.0
1014.0
1013.0
1008.0
1012.0
1010.0
1015.0
1011.0
1008.0
1009.0
1013.0
1015.0
1014.0
1015.0
1011.0
1010.0
1011.0
1017.0
1017.0
1020.0
1017.0
1019.0
1022.0
1032.0
1041.0
1052.0
1063.0
1073.0
1087.0
1112.0
1140.0
1171.0
1206.0
1240.0
1275.0
1311.0
1350.0
1396.0
1432.0
1458.0
1452.0
1409.0
1329.0
1221.0
1126.0
1061.0
1025.0
1010.0
1012.0
1014.0
1013.0
1011.0
1010.0
1012.0
1009.0
1003.0
997.0
994.0
994.0
993.0
997.0
994.0
990.0
989.0
989.0
991.0
992.0
992.0
989.0
983.0
987.0
989.0
991.0
989.0
986.0
984.0
985.0
988.0
988.0
986.0
982.0
981.0
984.0
987.0
986.0
987.0
981.0
980.0
981.0
984.0
986.0
984.0
980.0
978.0
981.0
983.0
984.0
984.0
981.0
980.0
981.0
983.0
986.0
984.0
983.0
985.0
985.0
988.0
992.0
988.0
985.0
988.0
986.0
993.0
992.0
993.0
991.0
993.0
995.0
1001.0
1002.0
1002.0
1002.0
1003.0
1008.0
1011.0
1018.0
1020.0
1021.0
1021.0
1025.0
1030.0
1035.0
1039.0
1038.0
1042.0
1047.0
1051.0
1055.0
1058.0
1056.0
1058.0
1061.0
1065.0
1065.0
1067.0
1061.0
1060.0
1057.0
1060.0
1057.0
1054.0
1050.0
1047.0
1048.0
1044.0
1043.0
1041.0
1034.0
1033.0
1033.0
1035.0
1033.0
1030.0
1025.0
1024.0
1024.0
1025.0
1027.0
1025.0
1021.0
1023.0
1023.0
1026.0
1024.0
1021.0
1019.0
1018.0
1019.0
1021.0
1024.0
1023.0
1018.0
1020.0
1018.0
1020.0
1023.0
1022.0
1018.0
1016.0
1017.0
1018.0
1020.0
1017.0
1013.0
1014.0
1014.0
1017.0
1019.0
1015.0
1013.0
1012.0
1014.0
1016.0
1018.0
1013.0
1012.0
1012.0
1011.0
1014.0
1013.0
1013.0
1013.0
1011.0
1014.0
1013.0
1016.0
1013.0
1012.0
1013.0
1015.0
1018.0
1020.0
1019.0
1016.0
1015.0
1016.0
1020.0
1021.0
1022.0
1016.0
1018.0
1016.0
1020.0
1019.0
1020.0
1016.0
1016.0
1017.0
1018.0
1023.0
1017.0
1013.0
1017.0
1019.0
1020.0
1024.0
1020.0
1018.0
1017.0
1017.0
1020.0
1022.0
1020.0
1020.0
1018.0
1019.0
1020.0
1020.0
1017.0
1016.0
1015.0
1015.0
1019.0
1021.0
1020.0
1016.0
1015.0
1016.0
1020.0
1022.0
1020.0
1015.0
1015.0
1016.0
1017.0
1017.0
1017.0
1013.0
1014.0
1015.0
1018.0
1019.0
1017.0
1014.0
1013.0
1015.0
1019.0
1018.0
1018.0
1015.0
1015.0
1014.0
1017.0
1018.0
1018.0
1014.0
1015.0
1016.0
1017.0
1019.0
1018.0
1017.0
1016.0
1016.0
1020.0
1021.0
1019.0
1014.0
1014.0
1015.0
1018.0
1022.0
1022.0
1018.0
1017.0
1018.0
1020.0
1021.0
1019.0
1016.0
1017.0
1017.0
1019.0
1022.0
1020.0
1017.0
1016.0
1017.0
1022.0
1023.0
1022.0
1021.0
1018.0
1020.0
1022.0
1024.0
1023.0
1024.0
1024.0
1027.0
1031.0
1032.0
1030.0
1029.0
1028.0
1031.0
1036.0
1039.0
1036.0
1035.0
1032.0
1035.0
1038.0
1038.0
1033.0
1031.0
1029.0
1030.0
1031.0
1030.0
1028.0
1027.0
1027.0
1029.0
1031.0
1034.0
1032.0
1030.0
1028.0
1032.0
1033.0
1030.0
1026.0
1022.0
1019.0
1021.0
1024.0
1027.0
1024.0
1019.0
1018.0
1022.0
1023.0
1025.0
1026.0
1020.0
1020.0
1022.0
1024.0
1024.0
1023.0
1020.0
1021.0
1019.0
1025.0
1023.0
1023.0
1022.0
1019.0
1021.0
1025.0
1025.0
1023.0
1021.0
1023.0
1025.0
1029.0
1032.0
1032.0
1029.0
1030.0
1038.0
1048.0
1059.0
1071.0
1079.0
1088.0
1103.0
1123.0
1147.0
1175.0
1204.0
1228.0
1258.0
1286.0
1315.0
1351.0
1389.0
1420.0
1431.0
1416.0
1370.0
1288.0
1189.0
1105.0
1055.0
1032.0
1021.0
1019.0
1020.0
1017.0
1023.0
1024.0
1024.0
1022.0
1017.0
1012.0
1011.0
1013.0
1014.0
1009.0
1008.0
1005.0
1006.0
1009.0
1010.0
1008.0
1010.0
1004.0
1007.0
1008.0
1010.0
1008.0
1004.0
1005.0
1007.0
1008.0
1007.0
1007.0
1004.0
1000.0
1003.0
1006.0
1008.0
1002.0
1001.0
997.0
999.0
1004.0
1005.0
1005.0
1000.0
999.0
1001.0
1003.0
1006.0
1002.0
1004.0
999.0
1000.0
1001.0
1003.0
999.0
1001.0
1000.0
1001.0
1005.0
1004.0
1004.0
1003.0
1003.0
1005.0
1006.0
1006.0
1007.0
1004.0
1003.0
1007.0
1010.0
1013.0
1013.0
1010.0
1013.0
1017.0
1021.0
1022.0
1026.0
1026.0
1026.0
1031.0
1036.0
1039.0
1042.0
1040.0
1044.0
1050.0
1056.0
1063.0
1063.0
1065.0
1065.0
1070.0
1073.0
1075.0
1077.0
1074.0
1072.0
1070.0
1072.0
1073.0
1070.0
1066.0
1062.0
1061.0
1062.0
1059.0
1056.0
1053.0
1053.0
1050.0
1052.0
1048.0
1044.0
1041.0
1041.0
1043.0
1042.0
1042.0
1042.0
1039.0
1037.0
1040.0
1041.0
1041.0
1039.0
1037.0
1036.0
1037.0
1039.0
1042.0
1037.0
1035.0
1034.0
1034.0
1040.0
1040.0
1035.0
1034.0
1033.0
1033.0
1033.0
1034.0
1034.0
1033.0
1030.0
1031.0
1032.0
1031.0
1030.0
1030.0
1026.0
1030.0
1032.0
1031.0
1029.0
1027.0
1027.0
1029.0
1036.0
1035.0
1031.0
1028.0
1029.0
1033.0
1035.0
1036.0
1034.0
1030.0
1030.0
1033.0
1036.0
1038.0
1036.0
1032.0
1031.0
1035.0
1035.0
1036.0
1034.0
1031.0
1029.0
1032.0
1034.0
1037.0
1034.0
1029.0
1032.0
1031.0
1034.0
1035.0
1031.0
1032.0
1032.0
1034.0
1035.0
1035.0
1033.0
1030.0
1028.0
1030.0
1035.0
1036.0
1034.0
1031.0
1031.0
1032.0
1036.0
1037.0
1032.0
1030.0
1030.0
1033.0
1032.0
1032.0
1032.0
1029.0
1028.0
1030.0
1034.0
1031.0
1031.0
1029.0
1029.0
1031.0
1032.0
1034.0
1033.0
1029.0
1027.0
1031.0
1031.0
1034.0
1031.0
1032.0
1028.0
1030.0
1035.0
1033.0
1029.0
1027.0
1028.0
1028.0
1032.0
1032.0
1030.0
1028.0
1028.0
1029.0
1034.0
1033.0
1030.0
1030.0
1029.0
1031.0
1033.0
1033.0
1030.0
1028.0
1030.0
1031.0
1035.0
1035.0
1030.0
1028.0
1028.0
1030.0
1031.0
1034.0
1034.0
1030.0
1030.0
1030.0
1033.0
1036.0
1031.0
1032.0
1029.0
1034.0
1035.0
1038.0
1035.0
1031.0
1031.0
1035.0
1036.0
1040.0
1041.0
1039.0
1038.0
1041.0
1043.0
1043.0
1046.0
1045.0
1043.0
1046.0
1049.0
1049.0
1046.0
1043.0
1041.0
1041.0
1042.0
1045.0
1045.0
1041.0
1039.0
1043.0
1046.0
1046.0
1046.0
1044.0
1043.0
1045.0
1048.0
1047.0
1043.0
1038.0
1038.0
1039.0
1040.0
1041.0
1037.0
1036.0
1036.0
1039.0
1040.0
1041.0
1040.0
1038.0
1034.0
1038.0
1041.0
1043.0
1039.0
1037.0
1037.0
1039.0
1041.0
1042.0
1043.0
1037.0
1038.0
1041.0
1042.0
1046.0
1043.0
1039.0
1042.0
1046.0
1049.0
1052.0
1052.0
1053.0
1055.0
1065.0
1075.0
1090.0
1098.0
1110.0
1122.0
1147.0
1180.0
1213.0
1242.0
1271.0
1301.0
1338.0
1383.0
1426.0
1455.0
1454.0
1427.0
1367.0
1280.0
1191.0
1121.0
1073.0
1046.0
1035.0
1036.0
1043.0
1041.0
1040.0
1037.0
1040.0
1038.0
1035.0
1030.0
1026.0
1024.0
1027.0
1027.0
1025.0
1023.0
1018.0
1020.0
1022.0
1022.0
1026.0
1020.0
1017.0
1017.0
1017.0
1021.0
1021.0
1020.0
1016.0
1016.0
1017.0
1019.0
1019.0
1016.0
1010.0
1011.0
1013.0
1015.0
1016.0
1013.0
1012.0
1012.0
1012.0
1012.0
1013.0
1010.0
1011.0
1010.0
1011.0
1011.0
1012.0
1011.0
1009.0
1011.0
1011.0
1015.0
1016.0
1013.0
1011.0
1009.0
1009.0
1014.0
1015.0
1014.0
1012.0
1015.0
1013.0
1016.0
1016.0
1017.0
1014.0
1014.0
1018.0
1021.0
1021.0
1020.0
1016.0
1019.0
1022.0
1025.0
1025.0
1026.0
1026.0
1027.0
1032.0
1034.0
1035.0
1038.0
1039.0
1041.0
1045.0
1046.0
1051.0
1053.0
1051.0
1054.0
1062.0
1068.0
1072.0
1072.0
1072.0
1074.0
1080.0
1083.0
1084.0
1085.0
1081.0
1081.0
1081.0
1081.0
1080.0
1077.0
1074.0
1071.0
1071.0
1072.0
1073.0
1067.0
1062.0
1057.0
1056.0
1058.0
1061.0
1055.0
1052.0
1049.0
1051.0
1051.0
1050.0
1050.0
1045.0
1047.0
1050.0
1050.0
1048.0
1047.0
1044.0
1043.0
1047.0
1048.0
1048.0
1046.0
1044.0
1042.0
1046.0
1045.0
1045.0
1043.0
1041.0
1040.0
1043.0
1043.0
1045.0
1043.0
1038.0
1039.0
1037.0
1043.0
1044.0
1041.0
1039.0
1037.0
1038.0
1041.0
1043.0
1041.0
1037.0
1037.0
1039.0
1041.0
1041.0
1041.0
1038.0
1039.0
1040.0
1045.0
1043.0
1042.0
1039.0
1039.0
1042.0
1044.0
1044.0
1044.0
1042.0
1040.0
1040.0
1043.0
1042.0
1044.0
1042.0
1042.0
1044.0
1045.0
1047.0
1043.0
1039.0
1040.0
1041.0
1046.0
1045.0
1043.0
1040.0
1039.0
1039.0
1044.0
1042.0
1042.0
1039.0
1037.0
1040.0
1040.0
1041.0
1040.0
1038.0
1036.0
1038.0
1043.0
1040.0
1037.0
1036.0
1034.0
1037.0
1038.0
1038.0
1037.0
1033.0
1033.0
1036.0
1036.0
1040.0
1038.0
1032.0
1033.0
1035.0
1037.0
1038.0
1036.0
1032.0
1034.0
1035.0
1038.0
1038.0
1035.0
1032.0
1031.0
1034.0
1037.0
1038.0
1038.0
1033.0
1033.0
1036.0
1038.0
1038.0
1036.0
1032.0
1035.0
1035.0
1037.0
1038.0
1035.0
1033.0
1034.0
1036.0
1035.0
1037.0
1034.0
1035.0
1031.0
1036.0
1038.0
1038.0
1035.0
1034.0
1035.0
1037.0
1038.0
1037.0
1036.0
1035.0
1034.0
1035.0
1039.0
1037.0
1034.0
1032.0
1033.0
1034.0
1038.0
1039.0
1038.0
1036.0
1040.0
1040.0
1046.0
1045.0
1043.0
1042.0
1043.0
1043.0
1047.0
1049.0
1046.0
1042.0
1040.0
1040.0
1041.0
1043.0
1042.0
1040.0
1040.0
1042.0
1046.0
1047.0
1046.0
1043.0
1043.0
1041.0
1041.0
1037.0
1036.0
1032.0
1032.0
1036.0
1038.0
1038.0
1036.0
1031.0
1034.0
1034.0
1038.0
1039.0
1034.0
1032.0
1033.0
1034.0
1034.0
1037.0
1033.0
1032.0
1032.0
1037.0
1035.0
1036.0
1035.0
1031.0
1032.0
1035.0
1037.0
1038.0
1034.0
1031.0
1032.0
1036.0
1039.0
1044.0
1046.0
1048.0
1053.0
1065.0
1078.0
1088.0
1098.0
1109.0
1127.0
1157.0
1194.0
1224.0
1256.0
1284.0
1317.0
1353.0
1399.0
1435.0
1458.0
1457.0
1426.0
1363.0
1280.0
1193.0
1120.0
1068.0
1040.0
1030.0
1028.0
1032.0
1030.0
1028.0
1026.0
1027.0
1026.0
1024.0
1019.0
1015.0
1011.0
1012.0
1013.0
1013.0
1011.0
1006.0
1006.0
1009.0
1010.0
1012.0
1009.0
1006.0
1007.0
1007.0
1010.0
1011.0
1007.0
1004.0
1003.0
1007.0
1008.0
1009.0
1008.0
1005.0
1002.0
1006.0
1005.0
1005.0
1002.0
998.0
997.0
1000.0
1005.0
1004.0
1001.0
997.0
997.0
1001.0
1001.0
1002.0
1000.0
997.0
998.0
999.0
1002.0
1002.0
1000.0
998.0
998.0
1001.0
1002.0
1004.0
1002.0
999.0
1000.0
1004.0
1005.0
1007.0
1007.0
1005.0
1003.0
1005.0
1008.0
1007.0
1006.0
1005.0
1005.0
1007.0
1011.0
1010.0
1012.0
1009.0
1011.0
1015.0
1019.0
1020.0
1021.0
1021.0
1021.0
1027.0
1031.0
1031.0
1033.0
1031.0
1037.0
1041.0
1046.0
1049.0
1051.0
1050.0
1054.0
1057.0
1064.0
1065.0
1069.0
1067.0
1067.0
1071.0
1075.0
1074.0
1071.0
1069.0
1069.0
1070.0
1067.0
1068.0
1063.0
1059.0
1055.0
1053.0
1057.0
1053.0
1048.0
1046.0
1044.0
1042.0
1044.0
1045.0
1042.0
1036.0
1036.0
1036.0
1040.0
1037.0
1036.0
1033.0
1035.0
1036.0
1038.0
1037.0
1035.0
1031.0
1029.0
1032.0
1032.0
1034.0
1031.0
1030.0
1028.0
1030.0
1033.0
1033.0
1031.0
1028.0
1026.0
1029.0
1029.0
1031.0
1028.0
1025.0
1025.0
1026.0
1029.0
1025.0
1025.0
1023.0
1022.0
1024.0
1026.0
1027.0
1024.0
1024.0
1022.0
1023.0
1027.0
1026.0
1027.0
1026.0
1026.0
1028.0
1031.0
1030.0
1028.0
1026.0
1026.0
1030.0
1035.0
1033.0
1031.0
1029.0
1026.0
1029.0
1032.0
1034.0
1031.0
1027.0
1029.0
1032.0
1032.0
1033.0
1029.0
1028.0
1028.0
1030.0
1032.0
1032.0
1031.0
1027.0
1028.0
1030.0
1033.0
1031.0
1031.0
1028.0
1029.0
1028.0
1030.0
1030.0
1029.0
1026.0
1024.0
1028.0
1029.0
1030.0
1027.0
1023.0
1026.0
1025.0
1030.0
1027.0
1025.0
1022.0
1024.0
1025.0
1026.0
1027.0
1025.0
1022.0
1022.0
1025.0
1026.0
1026.0
1024.0
1021.0
1023.0
1026.0
1027.0
1026.0
1023.0
1022.0
1021.0
1023.0
1027.0
1026.0
1023.0
1020.0
1023.0
1024.0
1026.0
1027.0
1024.0
1023.0
1022.0
1025.0
1025.0
1027.0
1024.0
1020.0
1021.0
1024.0
1028.0
1028.0
1022.0
1020.0
1022.0
1023.0
1025.0
1025.0
1022.0
1020.0
1021.0
1023.0
1024.0
1024.0
1023.0
1021.0
1023.0
1026.0
1025.0
1026.0
1024.0
1022.0
1020.0
1023.0
1026.0
1027.0
1028.0
1024.0
1024.0
1029.0
1029.0
1028.0
1027.0
1023.0
1024.0
1030.0
1031.0
1033.0
1031.0
1028.0
1029.0
1033.0
1038.0
1035.0
1034.0
1033.0
1034.0
1036.0
1039.0
1040.0
1041.0
1036.0
1037.0
1037.0
1041.0
1039.0
1035.0
1030.0
1032.0
1035.0
1036.0
1035.0
1034.0
1030.0
1033.0
1034.0
1035.0
1035.0
1037.0
1032.0
1033.0
1035.0
1036.0
1034.0
1030.0
1023.0
1025.0
1027.0
1029.0
1029.0
1027.0
1028.0
1024.0
1027.0
1029.0
1028.0
1026.0
1022.0
1023.0
1026.0
1026.0
1028.0
1025.0
1022.0
1024.0
1023.0
1031.0
1029.0
1028.0
1024.0
1027.0
1026.0
1029.0
1028.0
1028.0
1028.0
1025.0
1027.0
1030.0
1031.0
1030.0
1030.0
1032.0
1038.0
1041.0
1047.0
1050.0
1053.0
1058.0
1073.0
1086.0
1094.0
1102.0
1119.0
1143.0
1173.0
1201.0
1229.0
1255.0
1277.0
1309.0
1351.0
1393.0
1419.0
1415.0
1382.0
1315.0
1225.0
1138.0
1074.0
1039.0
1019.0
1012.0
1016.0
1023.0
1023.0
1023.0
1021.0
1021.0
1023.0
1025.0
1020.0
1016.0
1012.0
1010.0
1011.0
1014.0
1013.0
1012.0
1009.0
1009.0
1010.0
1012.0
1013.0
1011.0
1007.0
1007.0
1010.0
1012.0
1016.0
1012.0
1009.0
1006.0
1012.0
1010.0
1011.0
1009.0
1006.0
1005.0
1008.0
1010.0
1009.0
1007.0
1005.0
1004.0
1007.0
1008.0
1007.0
1004.0
1002.0
1003.0
1004.0
1009.0
1008.0
1007.0
1003.0
1005.0
1004.0
1008.0
1005.0
1007.0
1003.0
1004.0
1007.0
1008.0
1008.0
1007.0
1003.0
1004.0
1007.0
1009.0
1010.0
1009.0
1007.0
1007.0
1009.0
1010.0
1010.0
1010.0
1010.0
1013.0
1014.0
1014.0
1014.0
1015.0
1013.0
1013.0
1018.0
1023.0
1025.0
1025.0
1023.0
1027.0
1029.0
1033.0
1039.0
1037.0
1039.0
1038.0
1045.0
1052.0
1053.0
1051.0
1055.0
1056.0
1060.0
1064.0
1067.0
1066.0
1066.0
1068.0
1069.0
1073.0
1074.0
1072.0
1069.0
1067.0
1068.0
1068.0
1064.0
1062.0
1054.0
1055.0
1057.0
1058.0
1054.0
1049.0
1046.0
1043.0
1043.0
1046.0
1042.0
1040.0
1036.0
1035.0
1036.0
1040.0
1041.0
1035.0
1033.0
1031.0
1034.0
1037.0
1035.0
1033.0
1029.0
1030.0
1031.0
1034.0
1034.0
1030.0
1028.0
1030.0
1031.0
1031.0
1031.0
1030.0
1025.0
1024.0
1029.0
1031.0
1029.0
1025.0
1026.0
1025.0
1028.0
1029.0
1028.0
1025.0
1023.0
1022.0
1023.0
1026.0
1026.0
1022.0
1020.0
1022.0
1021.0
1026.0
1025.0
1025.0
1022.0
1021.0
1025.0
1028.0
1027.0
1026.0
1022.0
1023.0
1025.0
1026.0
1027.0
1025.0
1021.0
1024.0
1025.0
1028.0
1027.0
1024.0
1023.0
1024.0
1024.0
1028.0
1029.0
1026.0
1023.0
1022.0
1027.0
1030.0
1028.0
1024.0
1019.0
1021.0
1024.0
1029.0
1026.0
1025.0
1021.0
1022.0
1024.0
1022.0
1024.0
1021.0
1021.0
1022.0
1022.0
1024.0
1023.0
1021.0
1019.0
1018.0
1019.0
1024.0
1021.0
1018.0
1018.0
1017.0
1020.0
1022.0
1021.0
1019.0
1016.0
1016.0
1019.0
1021.0
1022.0
1017.0
1016.0
1017.0
1018.0
1020.0
1020.0
1017.0
1017.0
1016.0
1019.0
1018.0
1018.0
1016.0
1015.0
1016.0
1019.0
1021.0
1020.0
1018.0
1015.0
1014.0
1017.0
1018.0
1020.0
1018.0
1016.0
1017.0
1019.0
1022.0
1022.0
1019.0
1016.0
1018.0
1020.0
1022.0
1021.0
1023.0
1018.0
1018.0
1020.0
1021.0
1022.0
1024.0
1021.0
1020.0
1020.0
1023.0
1020.0
1020.0
1016.0
1019.0
1020.0
1026.0
1021.0
1022.0
1017.0
1018.0
1020.0
1024.0
1024.0
1022.0
1019.0
1019.0
1022.0
1024.0
1024.0
1023.0
1020.0
1021.0
1024.0
1025.0
1024.0
1022.0
1020.0
1021.0
1024.0
1030.0
1029.0
1026.0
1026.0
1027.0
1031.0
1034.0
1034.0
1032.0
1031.0
1035.0
1037.0
1037.0
1037.0
1036.0
1036.0
1036.0
1035.0
1034.0
1035.0
1031.0
1030.0
1029.0
1034.0
1036.0
1036.0
1034.0
1034.0
1034.0
1037.0
1040.0
1038.0
1037.0
1033.0
1032.0
1033.0
1032.0
1029.0
1024.0
1025.0
1026.0
1027.0
1032.0
1031.0
1031.0
1026.0
1023.0
1030.0
1029.0
1030.0
1029.0
1025.0
1026.0
1032.0
1030.0
1030.0
1025.0
1023.0
1026.0
1029.0
1029.0
1031.0
1028.0
1024.0
1024.0
1028.0
1030.0
1031.0
1030.0
1028.0
1026.0
1031.0
1033.0
1035.0
1036.0
1037.0
1041.0
1046.0
1060.0
1069.0
1074.0
1083.0
1092.0
1113.0
1139.0
1166.0
1198.0
1225.0
1257.0
1288.0
1323.0
1360.0
1399.0
1428.0
1442.0
1435.0
1398.0
1326.0
1229.0
1142.0
1078.0
1041.0
1024.0
1015.0
1016.0
1019.0
1024.0
1022.0
1025.0
1023.0
1020.0
1014.0
1012.0
1012.0
1012.0
1009.0
1006.0
1001.0
1003.0
1009.0
1009.0
1009.0
1007.0
1005.0
1004.0
1004.0
1008.0
1008.0
1006.0
1002.0
1002.0
1005.0
1005.0
1006.0
1001.0
998.0
1001.0
999.0
1002.0
1000.0
1000.0
998.0
997.0
998.0
999.0
997.0
999.0
996.0
992.0
997.0
998.0
999.0
997.0
993.0
996.0
1000.0
1001.0
1002.0
998.0
995.0
997.0
996.0
1001.0
1003.0
998.0
998.0
1001.0
999.0
1001.0
1001.0
1002.0
1000.0
1001.0
1003.0
1005.0
1007.0
1003.0
1002.0
1002.0
1005.0
1007.0
1012.0
1009.0
1007.0
1010.0
1012.0
1015.0
1017.0
1016.0
1016.0
1019.0
1023.0
1028.0
1030.0
1029.0
1029.0
1031.0
1038.0
1043.0
1045.0
1047.0
1047.0
1050.0
1056.0
1059.0
1062.0
1062.0
1061.0
1066.0
1067.0
1072.0
1071.0
1068.0
1063.0
1064.0
1065.0
1066.0
1062.0
1059.0
1053.0
1051.0
1052.0
1054.0
1051.0
1046.0
1041.0
1043.0
1043.0
1044.0
1040.0
1039.0
1037.0
1035.0
1039.0
1039.0
1039.0
1036.0
1033.0
1030.0
1032.0
1036.0
1035.0
1033.0
1032.0
1029.0
1032.0
1035.0
1032.0
1029.0
1028.0
1028.0
1030.0
1031.0
1030.0
1027.0
1026.0
1026.0
1028.0
1032.0
1030.0
1026.0
1023.0
1024.0
1026.0
1030.0
1027.0
1025.0
1024.0
1023.0
1027.0
1028.0
1029.0
1026.0
1025.0
1026.0
1029.0
1030.0
1031.0
1028.0
1026.0
1027.0
1032.0
1031.0
1034.0
1030.0
1027.0
1029.0
1032.0
1035.0
1033.0
1030.0
1028.0
1026.0
1029.0
1033.0
1034.0
1031.0
1027.0
1026.0
1030.0
1033.0
1030.0
1027.0
1026.0
1026.0
1029.0
1032.0
1031.0
1026.0
1024.0
1022.0
1025.0
1028.0
1028.0
1025.0
1024.0
1023.0
1023.0
1028.0
1024.0
1021.0
1020.0
1021.0
1022.0
1023.0
1022.0
1019.0
1018.0
1020.0
1020.0
1026.0
1024.0
1021.0
1020.0
1018.0
1023.0
1024.0
1023.0
1022.0
1017.0
1020.0
1024.0
1022.0
1020.0
1020.0
1018.0
1017.0
1019.0
1022.0
1021.0
1017.0
1017.0
1019.0
1020.0
1023.0
1022.0
1019.0
1017.0
1018.0
1022.0
1024.0
1024.0
1020.0
1019.0
1018.0
1019.0
1021.0
1019.0
1018.0
1019.0
1019.0
1021.0
1022.0
1023.0
1021.0
1019.0
1018.0
1020.0
1024.0
1023.0
1021.0
1017.0
1018.0
1020.0
1024.0
1022.0
1021.0
1019.0
1020.0
1021.0
1025.0
1024.0
1022.0
1017.0
1020.0
1021.0
1024.0
1025.0
1022.0
1019.0
1020.0
1024.0
1028.0
1030.0
1027.0
1023.0
1027.0
1031.0
1033.0
1033.0
1033.0
1031.0
1032.0
1036.0
1038.0
1034.0
1033.0
1028.0
1027.0
1025.0
1031.0
1028.0
1027.0
1026.0
1025.0
1028.0
1034.0
1033.0
1029.0
1027.0
1030.0
1031.0
1031.0
1029.0
1027.0
1024.0
1022.0
1023.0
1023.0
1026.0
1023.0
1020.0
1022.0
1021.0
1023.0
1022.0
1021.0
1021.0
1021.0
1023.0
1026.0
1023.0
1022.0
1019.0
1018.0
1022.0
1024.0
1024.0
1021.0
1020.0
1019.0
1023.0
1027.0
1025.0
1021.0
1020.0
1021.0
1022.0
1024.0
1023.0
1023.0
1022.0
1025.0
1029.0
1035.0
1038.0
1043.0
1048.0
1058.0
1075.0
1087.0
1097.0
1112.0
1133.0
1162.0
1194.0
1227.0
1254.0
1283.0
1309.0
1344.0
1387.0
1422.0
1445.0
1434.0
1386.0
1307.0
1210.0
1125.0
1064.0
1029.0
1012.0
1007.0
1014.0
1021.0
1021.0
1019.0
1014.0
1013.0
1012.0
1011.0
1008.0
1004.0
1002.0
1001.0
1003.0
1004.0
1000.0
1001.0
999.0
999.0
999.0
1002.0
1001.0
996.0
995.0
996.0
999.0
1001.0
1000.0
998.0
996.0
993.0
998.0
1000.0
997.0
995.0
993.0
994.0
1000.0
999.0
997.0
994.0
994.0
993.0
995.0
999.0
997.0
994.0
992.0
992.0
994.0
998.0
996.0
994.0
994.0
992.0
995.0
997.0
997.0
995.0
994.0
994.0
999.0
1001.0
1001.0
998.0
998.0
998.0
999.0
1001.0
1003.0
1001.0
1001.0
999.0
1003.0
1008.0
1006.0
1004.0
1004.0
1007.0
1012.0
1014.0
1015.0
1015.0
1014.0
1017.0
1025.0
1026.0
1029.0
1028.0
1029.0
1033.0
1038.0
1043.0
1046.0
1047.0
1047.0
1051.0
1057.0
1059.0
1062.0
1062.0
1061.0
1064.0
1065.0
1068.0
1068.0
1064.0
1059.0
1058.0
1057.0
1060.0
1058.0
1052.0
1048.0
1046.0
1044.0
1046.0
1044.0
1040.0
1037.0
1036.0
1036.0
1039.0
1036.0
1031.0
1030.0
1031.0
1033.0
1034.0
1034.0
1032.0
1030.0
1028.0
1031.0
1032.0
1032.0
1029.0
1026.0
1028.0
1030.0
1029.0
1029.0
1028.0
1024.0
1025.0
1026.0
1027.0
1028.0
1024.0
1023.0
1024.0
1027.0
1030.0
1027.0
1022.0
1023.0
1023.0
1023.0
1025.0
1025.0
1022.0
1022.0
1024.0
1027.0
1027.0
1027.0
1023.0
1022.0
1024.0
1029.0
1030.0
1031.0
1027.0
1024.0
1026.0
1027.0
1032.0
1031.0
1028.0
1026.0
1025.0
1030.0
1032.0
1031.0
1029.0
1026.0
1026.0
1029.0
1034.0
1030.0
1029.0
1026.0
1025.0
1026.0
1032.0
1029.0
1026.0
1027.0
1026.0
1028.0
1028.0
1027.0
1026.0
1024.0
1024.0
1028.0
1029.0
1030.0
1026.0
1025.0
1026.0
1030.0
1030.0
1029.0
1025.0
1023.0
1023.0
1025.0
1029.0
1029.0
1026.0
1024.0
1025.0
1027.0
1028.0
1028.0
1026.0
1021.0
1023.0
1027.0
1029.0
1029.0
1024.0
1022.0
1024.0
1025.0
1028.0
1029.0
1026.0
1022.0
1022.0
1024.0
1026.0
1027.0
1021.0
1021.0
1021.0
1024.0
1027.0
1026.0
1021.0
1021.0
1021.0
1026.0
1028.0
1026.0
1024.0
1022.0
1025.0
1025.0
1026.0
1028.0
1023.0
1025.0
1027.0
1025.0
1030.0
1028.0
1026.0
1023.0
1023.0
1026.0
1031.0
1028.0
1024.0
1022.0
1025.0
1026.0
1030.0
1027.0
1025.0
1022.0
1024.0
1024.0
1029.0
1028.0
1026.0
1022.0
1025.0
1025.0
1027.0
1026.0
1025.0
1023.0
1023.0
1025.0
1030.0
1030.0
1026.0
1024.0
1026.0
1027.0
1029.0
1031.0
1029.0
1026.0
1028.0
1031.0
1035.0
1035.0
1034.0
1031.0
1034.0
1036.0
1039.0
1041.0
1038.0
1035.0
1038.0
1041.0
1042.0
1038.0
1036.0
1031.0
1029.0
1032.0
1037.0
1035.0
1035.0
1033.0
1032.0
1035.0
1038.0
1039.0
1033.0
1036.0
1038.0
1039.0
1037.0
1034.0
1028.0
1024.0
1027.0
1029.0
1030.0
1031.0
1029.0
1026.0
1024.0
1027.0
1030.0
1029.0
1025.0
1024.0
1024.0
1027.0
1025.0
1027.0
1026.0
1023.0
1026.0
1026.0
1025.0
1026.0
1023.0
1024.0
1023.0
1027.0
1030.0
1029.0
1027.0
1025.0
1026.0
1030.0
1033.0
1035.0
1039.0
1043.0
1050.0
1064.0
1077.0
1086.0
1098.0
1118.0
1145.0
1181.0
1214.0
1245.0
1273.0
1305.0
1346.0
1389.0
1424.0
1431.0
1402.0
1335.0
1244.0
1155.0
1084.0
1042.0
1017.0
1010.0
1011.0
1019.0
1024.0
1023.0
1019.0
1016.0
1014.0
1015.0
1014.0
1008.0
1005.0
1003.0
1005.0
1007.0
1006.0
1008.0
1004.0
1002.0
1002.0
1003.0
1007.0
1005.0
1003.0
1000.0
1000.0
1003.0
1001.0
1001.0
998.0
999.0
997.0
1001.0
1002.0
1001.0
996.0
995.0
994.0
999.0
1000.0
998.0
997.0
996.0
995.0
998.0
998.0
1000.0
997.0
998.0
994.0
999.0
1000.0
999.0
996.0
994.0
999.0
999.0
1001.0
999.0
1000.0
997.0
998.0
1001.0
1003.0
1003.0
1001.0
999.0
1001.0
1002.0
1005.0
1005.0
1004.0
1002.0
1004.0
1007.0
1008.0
1010.0
1008.0
1008.0
1010.0
1016.0
1020.0
1019.0
1018.0
1018.0
1021.0
1025.0
1031.0
1031.0
1032.0
1034.0
1036.0
1042.0
