# Simple Text Format
# Sampling Rate (Hz):= 360.00
# Resolution:= 12
# Labels:= ECG
1078.0
1088.0
1103.0
1134.0
1166.0
1199.0
1229.0
1258.0
1287.0
1322.0
1368.0
1405.0
1415.0
1397.0
1342.0
1257.0
1161.0
1089.0
1037.0
1007.0
996.0
999.0
1007.0
1014.0
1013.0
1005.0
1002.0
999.0
999.0
997.0
997.0
995.0
991.0
993.0
992.0
993.0
995.0
991.0
990.0
990.0
992.0
993.0
991.0
991.0
988.0
990.0
990.0
992.0
991.0
991.0
987.0
987.0
989.0
992.0
990.0
988.0
986.0
987.0
989.0
992.0
990.0
987.0
985.0
984.0
989.0
991.0
992.0
989.0
990.0
988.0
992.0
992.0
990.0
989.0
986.0
989.0
989.0
995.0
995.0
994.0
991.0
992.0
994.0
996.0
997.0
992.0
993.0
992.0
996.0
999.0
999.0
999.0
997.0
1000.0
1003.0
1008.0
1010.0
1006.0
1006.0
1010.0
1014.0
1019.0
1022.0
1018.0
1018.0
1023.0
1028.0
1031.0
1033.0
1033.0
1035.0
1039.0
1043.0
1050.0
1051.0
1051.0
1051.0
1052.0
1058.0
1063.0
1062.0
1061.0
1058.0
1057.0
1058.0
1057.0
1054.0
1051.0
1049.0
1048.0
1047.0
1048.0
1045.0
1041.0
1035.0
1035.0
1033.0
1034.0
1030.0
1028.0
1025.0
1023.0
1022.0
1022.0
1023.0
1019.0
1018.0
1021.0
1021.0
1023.0
1022.0
1018.0
1016.0
1015.0
1016.0
1021.0
1019.0
1018.0
1016.0
1015.0
1018.0
1018.0
1018.0
1014.0
1014.0
1013.0
1014.0
1017.0
1015.0
1011.0
1010.0
1010.0
1012.0
1015.0
1014.0
1012.0
1009.0
1010.0
1012.0
1013.0
1012.0
1009.0
1009.0
1009.0
1011.0
1014.0
1011.0
1008.0
1009.0
1011.0
1012.0
1015.0
1015.0
1011.0
1010.0
1011.0
1013.0
1016.0
1015.0
1010.0
1009.0
1009.0
1014.0
1016.0
1014.0
1008.0
1008.0
1008.0
1011.0
1012.0
1012.0
1011.0
1008.0
1008.0
1009.0
1010.0
1012.0
1006.0
1005.0
1007.0
1008.0
1011.0
1012.0
1009.0
1004.0
1006.0
1008.0
1008.0
1009.0
1007.0
1003.0
1004.0
1009.0
1008.0
1008.0
1006.0
1002.0
1005.0
1006.0
1008.0
1006.0
1003.0
1000.0
1001.0
1004.0
1010.0
1008.0
1005.0
1001.0
1002.0
1004.0
1008.0
1006.0
1004.0
1004.0
1003.0
1006.0
1007.0
1004.0
1002.0
1003.0
1003.0
1007.0
1009.0
1007.0
1003.0
1000.0
1002.0
1008.0
1010.0
1010.0
1006.0
1000.0
1003.0
1005.0
1007.0
1008.0
1004.0
1002.0
1004.0
1007.0
1010.0
1007.0
1006.0
1004.0
1004.0
1008.0
1009.0
1010.0
1006.0
1004.0
1004.0
1007.0
1008.0
1007.0
1005.0
1004.0
1001.0
1006.0
1010.0
1008.0
1009.0
1009.0
1009.0
1014.0
1016.0
1017.0
1015.0
1012.0
1015.0
1017.0
1023.0
1023.0
1019.0
1020.0
1019.0
1020.0
1019.0
1019.0
1015.0
1013.0
1013.0
1013.0
1017.0
1011.0
1013.0
1013.0
1014.0
1020.0
1022.0
1022.0
1018.0
1013.0
1016.0
1016.0
1017.0
1014.0
1006.0
1007.0
1008.0
1010.0
1014.0
1012.0
1009.0
1007.0
1008.0
1009.0
1013.0
1011.0
1006.0
1007.0
1009.0
1010.0
1010.0
1008.0
1009.0
1006.0
1004.0
1009.0
1011.0
1010.0
1009.0
1008.0
1009.0
1011.0
1011.0
1010.0
1010.0
1011.0
1013.0
1018.0
1021.0
1021.0
1025.0
1030.0
1039.0
1051.0
1065.0
1071.0
1079.0
1090.0
1112.0
1139.0
1167.0
1192.0
1216.0
1240.0
1270.0
1311.0
1358.0
1391.0
1401.0
1382.0
1328.0
1241.0
1155.0
1085.0
1040.0
1010.0
1001.0
1003.0
1007.0
1010.0
1009.0
1006.0
1005.0
1005.0
1007.0
1003.0
995.0
993.0
992.0
996.0
994.0
995.0
993.0
991.0
990.0
992.0
994.0
992.0
990.0
989.0
988.0
991.0
991.0
988.0
987.0
987.0
986.0
990.0
992.0
989.0
985.0
983.0
983.0
986.0
990.0
987.0
985.0
983.0
983.0
985.0
988.0
984.0
985.0
984.0
983.0
985.0
986.0
986.0
983.0
982.0
983.0
986.0
988.0
986.0
984.0
984.0
982.0
985.0
987.0
989.0
987.0
986.0
987.0
990.0
994.0
993.0
989.0
989.0
990.0
993.0
996.0
998.0
995.0
994.0
994.0
1000.0
1002.0
1003.0
999.0
1001.0
1003.0
1006.0
1009.0
1013.0
1013.0
1011.0
1012.0
1021.0
1023.0
1027.0
1028.0
1027.0
1030.0
1037.0
1041.0
1041.0
1041.0
1042.0
1044.0
1045.0
1049.0
1049.0
1047.0
1042.0
1042.0
1044.0
1045.0
1041.0
1037.0
1036.0
1033.0
1035.0
1034.0
1030.0
1025.0
1023.0
1023.0
1025.0
1026.0
1023.0
1018.0
1016.0
1018.0
1019.0
1022.0
1021.0
1016.0
1017.0
1017.0
1019.0
1018.0
1018.0
1016.0
1013.0
1015.0
1014.0
1014.0
1014.0
1013.0
1009.0
1009.0
1011.0
1013.0
1012.0
1009.0
1008.0
1009.0
1010.0
1015.0
1012.0
1010.0
1009.0
1008.0
1010.0
1012.0
1012.0
1008.0
1006.0
1010.0
1012.0
1015.0
1014.0
1009.0
1008.0
1008.0
1011.0
1014.0
1014.0
1013.0
1010.0
1008.0
1010.0
1014.0
1014.0
1009.0
1009.0
1008.0
1012.0
1014.0
1011.0
1009.0
1006.0
1005.0
1010.0
1010.0
1008.0
1009.0
1005.0
1003.0
1007.0
1011.0
1008.0
1007.0
1005.0
1005.0
1007.0
1009.0
1006.0
1005.0
1001.0
1005.0
1005.0
1007.0
1007.0
1000.0
1000.0
999.0
1003.0
1007.0
1005.0
1003.0
999.0
999.0
1002.0
1004.0
1003.0
1002.0
998.0
1000.0
1002.0
1004.0
1003.0
1000.0
999.0
998.0
1002.0
1005.0
1002.0
1000.0
997.0
998.0
999.0
1004.0
1003.0
999.0
1000.0
1000.0
1000.0
1005.0
1003.0
1002.0
998.0
999.0
1003.0
1002.0
1002.0
998.0
999.0
998.0
1003.0
1004.0
1005.0
1002.0
1000.0
1001.0
1003.0
1003.0
1004.0
1001.0
1002.0
1002.0
1004.0
1008.0
1006.0
1002.0
1001.0
1002.0
1004.0
1006.0
1006.0
1004.0
1001.0
1002.0
1005.0
1006.0
1007.0
1004.0
1002.0
1002.0
1006.0
1009.0
1005.0
1003.0
1003.0
1006.0
1009.0
1011.0
1012.0
1008.0
1007.0
1008.0
1015.0
1016.0
1016.0
1013.0
1010.0
1015.0
1018.0
1022.0
1020.0
1016.0
1016.0
1014.0
1016.0
1015.0
1010.0
1009.0
1004.0
1008.0
1011.0
1013.0
1014.0
1009.0
1008.0
1009.0
1012.0
1015.0
1015.0
1012.0
1011.0
1013.0
1012.0
1011.0
1007.0
1002.0
1001.0
1002.0
1007.0
1010.0
1010.0
1005.0
1003.0
1003.0
1007.0
1009.0
1010.0
1004.0
1004.0
1002.0
1008.0
1009.0
1006.0
1004.0
1002.0
1004.0
1005.0
1009.0
1007.0
1004.0
1004.0
1004.0
1007.0
1014.0
1014.0
1007.0
1007.0
1009.0
1013.0
1023.0
1030.0
1034.0
1043.0
1053.0
1066.0
1081.0
1101.0
1126.0
1155.0
1186.0
1218.0
1248.0
1271.0
1300.0
1343.0
1387.0
1417.0
1418.0
1377.0
1297.0
1201.0
1117.0
1060.0
1025.0
1004.0
1000.0
1001.0
1005.0
1009.0
1007.0
1006.0
1000.0
995.0
992.0
994.0
993.0
992.0
989.0
986.0
986.0
989.0
993.0
992.0
986.0
985.0
984.0
988.0
988.0
986.0
985.0
984.0
984.0
985.0
987.0
987.0
983.0
981.0
985.0
984.0
984.0
982.0
981.0
979.0
979.0
983.0
985.0
981.0
980.0
978.0
978.0
981.0
982.0
984.0
982.0
980.0
981.0
983.0
985.0
986.0
981.0
980.0
984.0
985.0
988.0
986.0
986.0
983.0
985.0
988.0
993.0
988.0
990.0
987.0
988.0
991.0
992.0
994.0
990.0
991.0
993.0
997.0
1000.0
999.0
1000.0
1000.0
1005.0
1008.0
1014.0
1015.0
1014.0
1013.0
1017.0
1025.0
1029.0
1030.0
1032.0
1035.0
1035.0
1040.0
1045.0
1048.0
1049.0
1049.0
1050.0
1052.0
1055.0
1054.0
1050.0
1047.0
1048.0
1049.0
1048.0
1044.0
1039.0
1035.0
1031.0
1033.0
1034.0
1028.0
1025.0
1021.0
1021.0
1021.0
1023.0
1021.0
1018.0
1016.0
1017.0
1019.0
1022.0
1018.0
1015.0
1012.0
1015.0
1017.0
1018.0
1017.0
1013.0
1011.0
1013.0
1015.0
1015.0
1014.0
1013.0
1008.0
1008.0
1012.0
1014.0
1011.0
1010.0
1010.0
1010.0
1012.0
1015.0
1013.0
1009.0
1009.0
1007.0
1011.0
1014.0
1011.0
1008.0
1008.0
1010.0
1011.0
1013.0
1014.0
1012.0
1009.0
1007.0
1011.0
1015.0
1012.0
1010.0
1008.0
1010.0
1014.0
1015.0
1014.0
1013.0
1011.0
1011.0
1014.0
1015.0
1014.0
1010.0
1010.0
1009.0
1011.0
1014.0
1014.0
1010.0
1010.0
1009.0
1014.0
1013.0
1013.0
1009.0
1008.0
1010.0
1011.0
1011.0
1012.0
1008.0
1005.0
1007.0
1011.0
1013.0
1012.0
1011.0
1007.0
1008.0
1009.0
1011.0
1011.0
1008.0
1006.0
1006.0
1009.0
1010.0
1007.0
1007.0
1005.0
1006.0
1006.0
1009.0
1008.0
1003.0
1001.0
1004.0
1007.0
1008.0
1009.0
1004.0
1003.0
1005.0
1007.0
1007.0
1011.0
1005.0
1004.0
1006.0
1009.0
1012.0
1007.0
1007.0
1005.0
1003.0
1008.0
1011.0
1008.0
1008.0
1004.0
1006.0
1008.0
1012.0
1011.0
1006.0
1007.0
1006.0
1009.0
1013.0
1010.0
1008.0
1006.0
1008.0
1010.0
1013.0
1013.0
1009.0
1011.0
1012.0
1014.0
1019.0
1019.0
1017.0
1016.0
1018.0
1024.0
1024.0
1027.0
1022.0
1022.0
1023.0
1023.0
1023.0
1020.0
1013.0
1011.0
1011.0
1017.0
1022.0
1019.0
1017.0
1014.0
1017.0
1020.0
1023.0
1022.0
1022.0
1020.0
1020.0
1018.0
1018.0
1014.0
1009.0
1007.0
1013.0
1012.0
1015.0
1014.0
1012.0
1010.0
1010.0
1016.0
1016.0
1011.0
1010.0
1006.0
1009.0
1012.0
1014.0
1015.0
1010.0
1008.0
1008.0
1010.0
1015.0
1012.0
1010.0
1008.0
1010.0
1014.0
1017.0
1017.0
1016.0
1015.0
1016.0
1024.0
1032.0
1038.0
1044.0
1054.0
1066.0
1081.0
1097.0
1119.0
1144.0
1173.0
1199.0
1231.0
1257.0
1288.0
1324.0
1362.0
1395.0
1404.0
1384.0
1328.0
1240.0
1152.0
1076.0
1033.0
1011.0
1001.0
1001.0
1003.0
1010.0
1010.0
1012.0
1009.0
1006.0
1001.0
999.0
999.0
1001.0
999.0
995.0
994.0
997.0
998.0
1000.0
996.0
995.0
992.0
992.0
995.0
997.0
998.0
995.0
992.0
991.0
996.0
997.0
993.0
991.0
991.0
992.0
995.0
994.0
993.0
989.0
987.0
990.0
990.0
993.0
991.0
985.0
986.0
987.0
992.0
995.0
991.0
990.0
988.0
990.0
990.0
992.0
991.0
988.0
985.0
987.0
990.0
993.0
992.0
990.0
988.0
990.0
993.0
996.0
996.0
993.0
992.0
994.0
995.0
1000.0
1002.0
996.0
995.0
1001.0
1002.0
1006.0
1005.0
1003.0
1004.0
1006.0
1010.0
1015.0
1015.0
1014.0
1013.0
1018.0
1020.0
1026.0
1028.0
1028.0
1033.0
1034.0
1040.0
1043.0
1042.0
1044.0
1043.0
1049.0
1055.0
1059.0
1058.0
1058.0
1056.0
1057.0
1060.0
1062.0
1058.0
1055.0
1052.0
1052.0
1055.0
1052.0
1051.0
1044.0
1042.0
1038.0
1043.0
1041.0
1037.0
1032.0
1028.0
1028.0
1027.0
1031.0
1027.0
1025.0
1023.0
1023.0
1023.0
1024.0
1024.0
1020.0
1020.0
1018.0
1021.0
1021.0
1021.0
1017.0
1018.0
1017.0
1019.0
1021.0
1020.0
1017.0
1016.0
1016.0
1015.0
1019.0
1017.0
1014.0
1011.0
1014.0
1014.0
1018.0
1017.0
1013.0
1010.0
1011.0
1012.0
1014.0
1013.0
1007.0
1006.0
1008.0
1012.0
1012.0
1011.0
1012.0
1012.0
1009.0
1013.0
1013.0
1013.0
1009.0
1007.0
1008.0
1011.0
1015.0
1015.0
1010.0
1010.0
1009.0
1014.0
1014.0
1013.0
1012.0
1010.0
1011.0
1015.0
1015.0
1014.0
1009.0
1008.0
1010.0
1011.0
1014.0
1010.0
1011.0
1008.0
1009.0
1012.0
1013.0
1012.0
1008.0
1009.0
1009.0
1010.0
1011.0
1007.0
1006.0
1002.0
1004.0
1009.0
1011.0
1009.0
1007.0
1004.0
1006.0
1006.0
1009.0
1005.0
1003.0
1002.0
1006.0
1007.0
1011.0
1012.0
1007.0
1005.0
1007.0
1007.0
1009.0
1006.0
1005.0
1002.0
1006.0
1004.0
1006.0
1006.0
1005.0
1003.0
1006.0
1009.0
1008.0
1007.0
1003.0
1001.0
1002.0
1006.0
1009.0
1008.0
1006.0
1005.0
1004.0
1007.0
1009.0
1008.0
1007.0
1003.0
1004.0
1007.0
1008.0
1005.0
1004.0
1003.0
1002.0
1007.0
1008.0
1008.0
1006.0
1002.0
1003.0
1007.0
1006.0
1007.0
1003.0
1000.0
1003.0
1006.0
1010.0
1008.0
1004.0
1001.0
1002.0
1005.0
1005.0
1006.0
1005.0
1002.0
1004.0
1007.0
1009.0
1008.0
1007.0
1007.0
1007.0
1011.0
1011.0
1010.0
1007.0
1008.0
1008.0
1012.0
1017.0
1015.0
1014.0
1012.0
1014.0
1014.0
1017.0
1021.0
1017.0
1020.0
1018.0
1015.0
1014.0
1013.0
1011.0
1007.0
1008.0
1013.0
1011.0
1011.0
1009.0
1009.0
1010.0
1014.0
1018.0
1016.0
1013.0
1014.0
1015.0
1015.0
1014.0
1012.0
1008.0
1003.0
1003.0
1007.0
1010.0
1009.0
1007.0
1003.0
1005.0
1006.0
1009.0
1008.0
1004.0
1004.0
1006.0
1006.0
1009.0
1009.0
1006.0
1002.0
1005.0
1006.0
1009.0
1008.0
1006.0
1002.0
1007.0
1008.0
1010.0
1007.0
1001.0
1005.0
1006.0
1009.0
1012.0
1009.0
1007.0
1006.0
1008.0
1012.0
1016.0
1017.0
1023.0
1023.0
1032.0
1044.0
1057.0
1062.0
1068.0
1073.0
1092.0
1115.0
1141.0
1163.0
1185.0
1206.0
1233.0
1261.0
1294.0
1332.0
1367.0
1390.0
1391.0
1366.0
1308.0
1228.0
1143.0
1080.0
1038.0
1013.0
1004.0
998.0
999.0
998.0
998.0
1003.0
1003.0
1001.0
995.0
994.0
992.0
991.0
994.0
988.0
987.0
985.0
984.0
987.0
989.0
986.0
984.0
984.0
983.0
985.0
987.0
985.0
981.0
980.0
981.0
985.0
988.0
986.0
981.0
976.0
976.0
981.0
982.0
982.0
981.0
976.0
977.0
980.0
981.0
979.0
976.0
973.0
976.0
979.0
982.0
980.0
975.0
973.0
976.0
980.0
982.0
981.0
977.0
973.0
976.0
979.0
981.0
977.0
977.0
975.0
978.0
982.0
983.0
983.0
980.0
978.0
979.0
983.0
985.0
986.0
981.0
983.0
985.0
985.0
987.0
985.0
984.0
987.0
988.0
991.0
995.0
992.0
991.0
989.0
993.0
997.0
1004.0
1005.0
1002.0
1005.0
1008.0
1013.0
1015.0
1017.0
1016.0
1017.0
1021.0
1026.0
1030.0
1032.0
1030.0
1032.0
1035.0
1039.0
1041.0
1040.0
1039.0
1037.0
1035.0
1041.0
1040.0
1039.0
1034.0
1029.0
1029.0
1029.0
1029.0
1025.0
1023.0
1019.0
1017.0
1021.0
1021.0
1017.0
1014.0
1012.0
1013.0
1015.0
1016.0
1014.0
1010.0
1008.0
1008.0
1013.0
1013.0
1011.0
1008.0
1007.0
1009.0
1011.0
1010.0
1007.0
1003.0
1003.0
1005.0
1008.0
1007.0
1007.0
1004.0
1002.0
1003.0
1005.0
1007.0
1003.0
1002.0
1000.0
1000.0
1004.0
1004.0
1004.0
1002.0
1000.0
1002.0
1005.0
1005.0
1004.0
1000.0
1002.0
1001.0
1005.0
1006.0
1002.0
1003.0
998.0
1003.0
1004.0
1006.0
1005.0
1002.0
1001.0
1001.0
1005.0
1003.0
1003.0
1001.0
1001.0
1000.0
1003.0
1004.0
1003.0
1000.0
1001.0
999.0
1003.0
1004.0
1001.0
997.0
996.0
998.0
1000.0
1000.0
1000.0
997.0
995.0
996.0
999.0
1001.0
999.0
995.0
993.0
997.0
997.0
1002.0
998.0
996.0
994.0
994.0
997.0
999.0
999.0
995.0
991.0
994.0
999.0
1001.0
998.0
996.0
993.0
995.0
999.0
998.0
1000.0
996.0
994.0
996.0
1000.0
1000.0
999.0
998.0
993.0
997.0
998.0
1001.0
1001.0
996.0
994.0
996.0
1000.0
1000.0
1001.0
996.0
994.0
998.0
1000.0
1002.0
998.0
998.0
996.0
995.0
1001.0
1004.0
1001.0
999.0
995.0
996.0
1000.0
1000.0
1000.0
999.0
994.0
999.0
1000.0
1001.0
1000.0
995.0
997.0
997.0
1000.0
1001.0
1000.0
997.0
995.0
998.0
1002.0
1002.0
1002.0
999.0
1000.0
997.0
1001.0
1004.0
1002.0
1001.0
999.0
1001.0
1003.0
1005.0
1004.0
1001.0
999.0
1004.0
1008.0
1011.0
1012.0
1008.0
1009.0
1009.0
1013.0
1014.0
1014.0
1013.0
1012.0
1013.0
1017.0
1017.0
1016.0
1010.0
1008.0
1008.0
1010.0
1011.0
1009.0
1007.0
1007.0
1010.0
1011.0
1015.0
1015.0
1013.0
1011.0
1010.0
1014.0
1014.0
1010.0
1004.0
1003.0
1003.0
1004.0
1006.0
1007.0
1003.0
1000.0
1003.0
1007.0
1007.0
1005.0
1003.0
1001.0
1001.0
1004.0
1007.0
1006.0
1002.0
1000.0
1000.0
1006.0
1005.0
1004.0
1001.0
1000.0
1001.0
1004.0
1006.0
1005.0
1001.0
1000.0
1002.0
1005.0
1009.0
1009.0
1009.0
1013.0
1019.0
1027.0
1037.0
1046.0
1055.0
1063.0
1080.0
1103.0
1135.0
1164.0
1187.0
1215.0
1247.0
1280.0
1312.0
1352.0
1385.0
1405.0
1405.0
1374.0
1311.0
1222.0
1137.0
1071.0
1031.0
1006.0
997.0
996.0
995.0
995.0
998.0
999.0
999.0
996.0
988.0
984.0
985.0
986.0
986.0
985.0
980.0
982.0
983.0
981.0
983.0
982.0
980.0
979.0
981.0
983.0
983.0
980.0
977.0
977.0
978.0
980.0
982.0
980.0
975.0
975.0
973.0
978.0
980.0
977.0
973.0
973.0
972.0
975.0
977.0
976.0
974.0
974.0
975.0
978.0
979.0
977.0
974.0
971.0
975.0
978.0
980.0
977.0
976.0
974.0
975.0
978.0
982.0
980.0
979.0
981.0
980.0
982.0
986.0
983.0
981.0
981.0
984.0
987.0
990.0
986.0
986.0
986.0
991.0
995.0
999.0
1000.0
998.0
1001.0
1003.0
1008.0
1011.0
1012.0
1013.0
1015.0
1018.0
1021.0
1027.0
1029.0
1028.0
1029.0
1034.0
1040.0
1044.0
1046.0
1044.0
1046.0
1049.0
1052.0
1053.0
1052.0
1050.0
1048.0
1049.0
1048.0
1047.0
1046.0
1039.0
1038.0
1036.0
1035.0
1033.0
1030.0
1024.0
1022.0
1021.0
1023.0
1023.0
1019.0
1016.0
1013.0
1013.0
1013.0
1016.0
1016.0
1011.0
1011.0
1011.0
1014.0
1016.0
1012.0
1013.0
1009.0
1012.0
1014.0
1016.0
1013.0
1011.0
1009.0
1010.0
1010.0
1011.0
1012.0
1008.0
1005.0
1007.0
1010.0
1007.0
1007.0
1006.0
1002.0
1003.0
1007.0
1011.0
1005.0
1003.0
1001.0
1004.0
1005.0
1006.0
1004.0
1003.0
1003.0
1003.0
1008.0
1009.0
1008.0
1003.0
1004.0
1003.0
1008.0
1009.0
1008.0
1007.0
1005.0
1008.0
1011.0
1014.0
1011.0
1008.0
1007.0
1006.0
1009.0
1010.0
1010.0
1010.0
1007.0
1008.0
1011.0
1010.0
1008.0
1006.0
1006.0
1009.0
1012.0
1013.0
1009.0
1007.0
1005.0
1006.0
1011.0
1014.0
1010.0
1008.0
1005.0
1005.0
1006.0
1008.0
1010.0
1006.0
1005.0
1006.0
1008.0
1009.0
1007.0
1005.0
1005.0
1007.0
1008.0
1011.0
1009.0
1006.0
1004.0
1007.0
1009.0
1011.0
1009.0
1006.0
1005.0
1007.0
1010.0
1012.0
1010.0
1007.0
1008.0
1009.0
1012.0
1014.0
1012.0
1006.0
1006.0
1007.0
1012.0
1011.0
1010.0
1008.0
1005.0
1007.0
1010.0
1011.0
1012.0
1010.0
1007.0
1008.0
1012.0
1012.0
1010.0
1007.0
1006.0
1011.0
1013.0
1012.0
1009.0
1008.0
1004.0
1007.0
1011.0
1013.0
1009.0
1008.0
1008.0
1010.0
1012.0
1014.0
1012.0
1012.0
1009.0
1012.0
1019.0
1021.0
1019.0
1018.0
1016.0
1020.0
1024.0
1024.0
1023.0
1022.0
1020.0
1020.0
1023.0
1026.0
1024.0
1018.0
1018.0
1017.0
1017.0
1020.0
1017.0
1015.0
1016.0
1018.0
1021.0
1022.0
1020.0
1019.0
1017.0
1021.0
1021.0
1024.0
1020.0
1018.0
1013.0
1010.0
1013.0
1013.0
1009.0
1010.0
1009.0
1011.0
1013.0
1015.0
1010.0
1010.0
1007.0
1009.0
1010.0
1013.0
1011.0
1009.0
1007.0
1010.0
1012.0
1012.0
1009.0
1008.0
1005.0
1010.0
1012.0
1014.0
1012.0
1011.0
1008.0
1010.0
1016.0
1017.0
1015.0
1013.0
1014.0
1015.0
1020.0
1024.0
1026.0
1028.0
1034.0
1043.0
1059.0
1070.0
1072.0
1084.0
1098.0
1124.0
1151.0
1180.0
1202.0
1226.0
1252.0
1284.0
1325.0
1366.0
1395.0
1401.0
1381.0
1328.0
1250.0
1162.0
1089.0
1038.0
1012.0
1003.0
1003.0
1009.0
1010.0
1009.0
1004.0
1007.0
1008.0
1007.0
1003.0
1000.0
997.0
999.0
998.0
1000.0
995.0
993.0
992.0
996.0
997.0
998.0
996.0
993.0
991.0
992.0
994.0
995.0
994.0
990.0
992.0
992.0
995.0
994.0
992.0
990.0
987.0
989.0
992.0
993.0
991.0
987.0
988.0
989.0
992.0
992.0
991.0
986.0
986.0
990.0
992.0
990.0
990.0
990.0
989.0
992.0
994.0
993.0
994.0
988.0
990.0
990.0
993.0
997.0
995.0
991.0
991.0
994.0
995.0
997.0
997.0
995.0
994.0
996.0
1000.0
1000.0
998.0
996.0
998.0
1002.0
1007.0
1009.0
1008.0
1007.0
1005.0
1007.0
1013.0
1016.0
1015.0
1017.0
1019.0
1023.0
1026.0
1030.0
1033.0
1031.0
1034.0
1040.0
1046.0
1046.0
1049.0
1049.0
1053.0
1054.0
1060.0
1061.0
1060.0
1055.0
1055.0
1056.0
1057.0
1055.0
1054.0
1045.0
1043.0
1042.0
1039.0
1040.0
1037.0
1034.0
1033.0
1028.0
1032.0
1031.0
1031.0
1024.0
1026.0
1022.0
1025.0
1022.0
1024.0
1020.0
1019.0
1018.0
1022.0
1021.0
1019.0
1017.0
1016.0
1016.0
1021.0
1021.0
1018.0
1018.0
1015.0
1016.0
1017.0
1019.0
1019.0
1017.0
1016.0
1015.0
1016.0
1018.0
1016.0
1012.0
1010.0
1012.0
1015.0
1015.0
1014.0
1011.0
1010.0
1012.0
1014.0
1016.0
1014.0
1012.0
1009.0
1011.0
1012.0
1016.0
1013.0
1010.0
1010.0
1014.0
1017.0
1017.0
1015.0
1014.0
1013.0
1014.0
1017.0
1017.0
1013.0
1010.0
1011.0
1014.0
1014.0
1016.0
1012.0
1009.0
1011.0
1011.0
1016.0
1017.0
1014.0
1011.0
1009.0
1012.0
1012.0
1015.0
1013.0
1010.0
1010.0
1007.0
1011.0
1015.0
1013.0
1008.0
1008.0
1010.0
1011.0
1013.0
1012.0
1009.0
1008.0
1008.0
1011.0
1012.0
1011.0
1006.0
1006.0
1008.0
1010.0
1013.0
1009.0
1006.0
1006.0
1009.0
1011.0
1010.0
1008.0
1006.0
1008.0
1007.0
1011.0
1013.0
1011.0
1007.0
1007.0
1007.0
1010.0
1010.0
1012.0
1010.0
1004.0
1007.0
1010.0
1011.0
1008.0
1007.0
1008.0
1008.0
1009.0
1011.0
1010.0
1007.0
1004.0
1006.0
1008.0
1011.0
1009.0
1005.0
1004.0
1007.0
1012.0
1010.0
1008.0
1006.0
1006.0
1011.0
1009.0
1012.0
1010.0
1007.0
1006.0
1010.0
1012.0
1012.0
1011.0
1009.0
1006.0
1009.0
1013.0
1014.0
1011.0
1009.0
1008.0
1012.0
1018.0
1019.0
1016.0
1014.0
1013.0
1017.0
1021.0
1024.0
1022.0
1021.0
1018.0
1022.0
1025.0
1026.0
1021.0
1020.0
1017.0
1016.0
1017.0
1019.0
1018.0
1015.0
1016.0
1015.0
1021.0
1021.0
1021.0
1020.0
1018.0
1019.0
1022.0
1022.0
1016.0
1011.0
1008.0
1008.0
1012.0
1013.0
1014.0
1009.0
1010.0
1011.0
1012.0
1012.0
1012.0
1009.0
1008.0
1011.0
1014.0
1016.0
1011.0
1010.0
1009.0
1009.0
1014.0
1017.0
1015.0
1010.0
1008.0
1013.0
1014.0
1017.0
1014.0
1013.0
1013.0
1017.0
1021.0
1023.0
1022.0
1023.0
1030.0
1039.0
1051.0
1062.0
1067.0
1073.0
1087.0
1107.0
1133.0
1163.0
1187.0
1213.0
1241.0
1276.0
1316.0
1362.0
1402.0
1411.0
1384.0
1321.0
1230.0
1136.0
1068.0
1027.0
1009.0
1008.0
1013.0
1015.0
1013.0
1010.0
1008.0
1007.0
1008.0
1007.0
1003.0
1001.0
997.0
998.0
999.0
999.0
999.0
995.0
995.0
996.0
996.0
997.0
995.0
996.0
997.0
999.0
998.0
998.0
994.0
994.0
991.0
993.0
996.0
997.0
993.0
990.0
991.0
993.0
995.0
994.0
992.0
990.0
992.0
990.0
993.0
995.0
991.0
989.0
990.0
992.0
995.0
993.0
992.0
989.0
989.0
992.0
995.0
995.0
994.0
990.0
990.0
992.0
994.0
994.0
995.0
993.0
995.0
998.0
999.0
1000.0
999.0
998.0
998.0
1002.0
1005.0
1007.0
1004.0
1002.0
1000.0
1006.0
1010.0
1012.0
1014.0
1010.0
1014.0
1016.0
1020.0
1025.0
1023.0
1022.0
1025.0
1030.0
1034.0
1039.0
1039.0
1038.0
1042.0
1045.0
1051.0
1051.0
1049.0
1049.0
1048.0
1050.0
1052.0
1052.0
1049.0
1046.0
1045.0
1043.0
1048.0
1044.0
1040.0
1036.0
1037.0
1036.0
1038.0
1036.0
1031.0
1029.0
1026.0
1027.0
1028.0
1029.0
1026.0
1023.0
1021.0
1024.0
1024.0
1023.0
1022.0
1021.0
1020.0
1023.0
1024.0
1023.0
1021.0
1020.0
1018.0
1019.0
1022.0
1023.0
1019.0
1017.0
1015.0
1017.0
1019.0
1020.0
1017.0
1015.0
1015.0
1016.0
1017.0
1019.0
1014.0
1014.0
1014.0
1017.0
1019.0
1019.0
1018.0
1015.0
1014.0
1019.0
1021.0
1019.0
1017.0
1016.0
1015.0
1017.0
1019.0
1021.0
1020.0
1017.0
1018.0
1017.0
1020.0
1020.0
1017.0
1015.0
1015.0
1018.0
1021.0
1023.0
1021.0
1018.0
1015.0
1017.0
1019.0
1021.0
1020.0
1016.0
1015.0
1016.0
1019.0
1018.0
1015.0
1014.0
1011.0
1015.0
1017.0
1016.0
1016.0
1011.0
1010.0
1011.0
1016.0
1018.0
1016.0
1012.0
1011.0
1011.0
1017.0
1016.0
1013.0
1010.0
1007.0
1012.0
1015.0
1014.0
1016.0
1011.0
1009.0
1013.0
1013.0
1013.0
1013.0
1009.0
1008.0
1011.0
1011.0
1013.0
1013.0
1010.0
1010.0
1010.0
1011.0
1013.0
1011.0
1011.0
1009.0
1012.0
1013.0
1013.0
1014.0
1010.0
1010.0
1010.0
1015.0
1013.0
1014.0
1011.0
1012.0
1011.0
1014.0
1014.0
1011.0
1011.0
1012.0
1012.0
1014.0
1014.0
1012.0
1010.0
1012.0
1012.0
1015.0
1016.0
1014.0
1011.0
1011.0
1015.0
1014.0
1017.0
1016.0
1013.0
1013.0
1014.0
1016.0
1017.0
1013.0
1013.0
1011.0
1015.0
1015.0
1015.0
1016.0
1010.0
1012.0
1014.0
1018.0
1021.0
1020.0
1017.0
1018.0
1020.0
1025.0
1027.0
1024.0
1025.0
1023.0
1027.0
1029.0
1030.0
1027.0
1025.0
1025.0
1025.0
1023.0
1021.0
1022.0
1019.0
1020.0
1022.0
1024.0
1026.0
1027.0
1025.0
1023.0
1025.0
1027.0
1028.0
1026.0
1019.0
1017.0
1016.0
1018.0
1022.0
1019.0
1015.0
1016.0
1017.0
1020.0
1019.0
1018.0
1015.0
1014.0
1018.0
1019.0
1018.0
1018.0
1014.0
1014.0
1015.0
1017.0
1018.0
1018.0
1013.0
1013.0
1016.0
1017.0
1018.0
1017.0
1014.0
1014.0
1017.0
1022.0
1022.0
1024.0
1027.0
1030.0
1039.0
1052.0
1065.0
1072.0
1079.0
1092.0
1119.0
1154.0
1185.0
1214.0
1242.0
1272.0
1308.0
1350.0
1391.0
1422.0
1428.0
1395.0
1327.0
1237.0
1144.0
1073.0
1031.0
1012.0
1009.0
1016.0
1020.0
1018.0
1013.0
1010.0
1011.0
1012.0
1007.0
1004.0
1000.0
999.0
1000.0
1000.0
999.0
998.0
997.0
996.0
998.0
999.0
1000.0
997.0
994.0
994.0
997.0
1001.0
997.0
997.0
993.0
991.0
993.0
996.0
998.0
995.0
992.0
991.0
993.0
994.0
994.0
992.0
989.0
991.0
994.0
994.0
994.0
993.0
988.0
989.0
992.0
995.0
995.0
995.0
992.0
992.0
993.0
994.0
997.0
994.0
994.0
992.0
996.0
998.0
998.0
999.0
997.0
995.0
1001.0
1003.0
1001.0
999.0
1000.0
999.0
1005.0
1007.0
1009.0
1010.0
1010.0
1010.0
1017.0
1023.0
1022.0
1027.0
1028.0
1031.0
1035.0
1042.0
1047.0
1049.0
1051.0
1051.0
1059.0
1065.0
1067.0
1066.0
1064.0
1063.0
1065.0
1063.0
1064.0
1059.0
1055.0
1053.0
1051.0
1051.0
1048.0
1043.0
1038.0
1037.0
1034.0
1036.0
1034.0
1031.0
1030.0
1030.0
1031.0
1031.0
1032.0
1029.0
1027.0
1027.0
1029.0
1030.0
1030.0
1030.0
1025.0
1024.0
1026.0
1029.0
1027.0
1027.0
1024.0
1021.0
1026.0
1025.0
1026.0
1023.0
1020.0
1022.0
1024.0
1026.0
1024.0
1022.0
1022.0
1019.0
1024.0
1027.0
1024.0
1022.0
1019.0
1020.0
1021.0
1024.0
1025.0
1024.0
1022.0
1022.0
1025.0
1026.0
1025.0
1027.0
1022.0
1023.0
1027.0
1029.0
1028.0
1028.0
1022.0
1023.0
1026.0
1029.0
1029.0
1027.0
1024.0
1023.0
1025.0
1027.0
1028.0
1026.0
1023.0
1024.0
1025.0
1028.0
1029.0
1023.0
1021.0
1021.0
1023.0
1029.0
1028.0
1023.0
1023.0
1020.0
1022.0
1025.0
1025.0
1022.0
1020.0
1021.0
1022.0
1025.0
1025.0
1024.0
1019.0
1021.0
1020.0
1025.0
1023.0
1021.0
1019.0
1021.0
1020.0
1025.0
1024.0
1021.0
1019.0
1019.0
1021.0
1024.0
1024.0
1022.0
1020.0
1020.0
1021.0
1023.0
1025.0
1023.0
1021.0
1019.0
1022.0
1025.0
1023.0
1023.0
1020.0
1021.0
1024.0
1026.0
1025.0
1025.0
1020.0
1021.0
1023.0
1023.0
1023.0
1023.0
1020.0
1021.0
1022.0
1023.0
1025.0
1022.0
1019.0
1019.0
1022.0
1024.0
1024.0
1023.0
1019.0
1018.0
1022.0
1024.0
1025.0
1027.0
1020.0
1021.0
1023.0
1027.0
1025.0
1024.0
1022.0
1019.0
1023.0
1026.0
1025.0
1023.0
1020.0
1023.0
1025.0
1026.0
1027.0
1027.0
1026.0
1026.0
1029.0
1034.0
1033.0
1034.0
1031.0
1031.0
1034.0
1037.0
1039.0
1037.0
1034.0
1035.0
1037.0
1042.0
1039.0
1036.0
1031.0
1030.0
1033.0
1034.0
1034.0
1034.0
1030.0
1032.0
1033.0
1036.0
1036.0
1036.0
1036.0
1033.0
1034.0
1035.0
1034.0
1027.0
1023.0
1025.0
1026.0
1027.0
1030.0
1030.0
1025.0
1026.0
1028.0
1032.0
1029.0
1028.0
1025.0
1025.0
1026.0
1028.0
1028.0
1025.0
1024.0
1022.0
1024.0
1027.0
1027.0
1024.0
1023.0
1022.0
1024.0
1027.0
1026.0
1025.0
1026.0
1025.0
1025.0
1031.0
1031.0
1031.0
1027.0
1035.0
1040.0
1049.0
1051.0
1058.0
1066.0
1074.0
1086.0
1098.0
1115.0
1134.0
1156.0
1183.0
1211.0
1237.0
1261.0
1289.0
1323.0
1360.0
1390.0
1401.0
1385.0
1341.0
1266.0
1179.0
1106.0
1061.0
1034.0
1020.0
1011.0
1014.0
1022.0
1027.0
1025.0
1022.0
1019.0
1018.0
1018.0
1016.0
1013.0
1012.0
1006.0
1008.0
1007.0
1010.0
1012.0
1007.0
1005.0
1005.0
1009.0
1010.0
1010.0
1007.0
1005.0
1004.0
1007.0
1009.0
1008.0
1005.0
1005.0
1003.0
1005.0
1006.0
1005.0
1003.0
1002.0
1001.0
1005.0
1004.0
1006.0
1004.0
1002.0
1002.0
1001.0
1000.0
1003.0
1003.0
1002.0
1004.0
1002.0
1008.0
1007.0
1003.0
1001.0
1001.0
1003.0
1005.0
1005.0
1004.0
1004.0
1005.0
1004.0
1006.0
1005.0
1006.0
1004.0
999.0
1004.0
1009.0
1008.0
1004.0
1005.0
1007.0
1010.0
1011.0
1012.0
1011.0
1009.0
1010.0
1014.0
1019.0
1020.0
1018.0
1017.0
1017.0
1022.0
1027.0
1029.0
1027.0
1028.0
1031.0
1033.0
1043.0
1043.0
1043.0
1042.0
1045.0
1049.0
1056.0
1055.0
1058.0
1060.0
1060.0
1063.0
1070.0
1070.0
1070.0
1066.0
1062.0
1067.0
1068.0
1066.0
