# Simple Text Format
# Sampling Rate (Hz):= 360.00
# Resolution:= 12
# Labels:= ECG
1027.0
1027.0
1027.0
1027.0
1027.0
1027.0
1027.0
1027.0
1027.0
1032.0
1037.0
1038.0
1039.0
1040.0
1045.0
1051.0
1056.0
1056.0
1057.0
1058.0
1065.0
1066.0
1069.0
1068.0
1066.0
1061.0
1062.0
1063.0
1063.0
1060.0
1053.0
1049.0
1047.0
1050.0
1049.0
1044.0
1039.0
1035.0
1036.0
1036.0
1036.0
1034.0
1028.0
1029.0
1028.0
1029.0
1032.0
1028.0
1027.0
1023.0
1024.0
1027.0
1029.0
1028.0
1027.0
1023.0
1024.0
1025.0
1027.0
1025.0
1024.0
1023.0
1024.0
1026.0
1028.0
1022.0
1020.0
1020.0
1018.0
1024.0
1026.0
1022.0
1020.0
1017.0
1019.0
1019.0
1023.0
1022.0
1019.0
1016.0
1018.0
1021.0
1019.0
1020.0
1016.0
1016.0
1017.0
1019.0
1021.0
1018.0
1016.0
1015.0
1019.0
1020.0
1023.0
1022.0
1019.0
1017.0
1020.0
1023.0
1023.0
1022.0
1021.0
1020.0
1021.0
1024.0
1025.0
1023.0
1021.0
1021.0
1021.0
1026.0
1025.0
1024.0
1019.0
1020.0
1021.0
1024.0
1025.0
1024.0
1021.0
1020.0
1018.0
1024.0
1026.0
1024.0
1021.0
1020.0
1019.0
1022.0
1025.0
1024.0
1021.0
1020.0
1020.0
1023.0
1023.0
1021.0
1019.0
1017.0
1021.0
1021.0
1022.0
1021.0
1020.0
1018.0
1016.0
1018.0
1020.0
1020.0
1018.0
1016.0
1018.0
1019.0
1020.0
1018.0
1017.0
1017.0
1017.0
1018.0
1021.0
1019.0
1016.0
1013.0
1018.0
1018.0
1021.0
1018.0
1015.0
1015.0
1016.0
1016.0
1021.0
1018.0
1016.0
1015.0
1018.0
1020.0
1021.0
1018.0
1015.0
1015.0
1018.0
1017.0
1019.0
1017.0
1018.0
1013.0
1016.0
1019.0
1021.0
1021.0
1018.0
1015.0
1016.0
1018.0
1019.0
1018.0
1017.0
1014.0
1013.0
1016.0
1020.0
1019.0
1016.0
1014.0
1018.0
1020.0
1021.0
1021.0
1014.0
1014.0
1019.0
1021.0
1022.0
1020.0
1018.0
1018.0
1018.0
1020.0
1024.0
1022.0
1019.0
1016.0
1021.0
1022.0
1025.0
1026.0
1025.0
1024.0
1026.0
1031.0
1031.0
1028.0
1029.0
1026.0
1031.0
1033.0
1035.0
1034.0
1029.0
1028.0
1028.0
1027.0
1029.0
1027.0
1025.0
1023.0
1027.0
1030.0
1030.0
1031.0
1030.0
1029.0
1031.0
1035.0
1036.0
1030.0
1025.0
1023.0
1023.0
1025.0
1028.0
1025.0
1023.0
1023.0
1021.0
1023.0
1025.0
1023.0
1020.0
1020.0
1021.0
1023.0
1024.0
1021.0
1019.0
1018.0
1021.0
1023.0
1025.0
1023.0
1019.0
1018.0
1021.0
1022.0
1025.0
1024.0
1023.0
1020.0
1023.0
1027.0
1029.0
1029.0
1028.0
1030.0
1037.0
1046.0
1052.0
1062.0
1071.0
1081.0
1095.0
1121.0
1151.0
1184.0
1217.0
1249.0
1289.0
1331.0
1376.0
1420.0
1434.0
1400.0
1304.0
1178.0
1080.0
1026.0
1010.0
1013.0
1019.0
1023.0
1024.0
1023.0
1016.0
1011.0
1009.0
1012.0
1010.0
1010.0
1006.0
1002.0
1005.0
1006.0
1009.0
1008.0
1005.0
1003.0
1008.0
1006.0
1007.0
1006.0
1003.0
1003.0
1003.0
1006.0
1007.0
1004.0
999.0
997.0
1001.0
1002.0
1005.0
1000.0
995.0
999.0
1000.0
999.0
1003.0
1001.0
997.0
995.0
999.0
999.0
1001.0
1001.0
998.0
998.0
1000.0
999.0
1002.0
1001.0
999.0
999.0
1003.0
1003.0
1005.0
1003.0
999.0
1001.0
1002.0
1005.0
1007.0
1007.0
1003.0
1004.0
1005.0
1012.0
1012.0
1013.0
1012.0
1010.0
1016.0
1019.0
1023.0
1024.0
1023.0
1025.0
1030.0
1035.0
1043.0
1042.0
1043.0
1044.0
1050.0
1056.0
1062.0
1062.0
1060.0
1061.0
1065.0
1070.0
1072.0
1071.0
1068.0
1067.0
1067.0
1067.0
1069.0
1066.0
1060.0
1055.0
1056.0
1056.0
1055.0
1051.0
1046.0
1043.0
1042.0
1044.0
1042.0
1039.0
1037.0
1032.0
1035.0
1036.0
1038.0
1034.0
1031.0
1029.0
1032.0
1033.0
1033.0
1031.0
1028.0
1027.0
1027.0
1030.0
1034.0
1030.0
1028.0
1026.0
1029.0
1031.0
1029.0
1027.0
1027.0
1024.0
1027.0
1027.0
1028.0
1026.0
1023.0
1023.0
1023.0
1026.0
1030.0
1025.0
1022.0
1023.0
1021.0
1024.0
1025.0
1024.0
1020.0
1020.0
1022.0
1027.0
1027.0
1023.0
1023.0
1022.0
1022.0
1026.0
1028.0
1026.0
1024.0
1022.0
1024.0
1027.0
1027.0
1025.0
1024.0
1024.0
1027.0
1029.0
1028.0
1026.0
1023.0
1024.0
1026.0
1030.0
1030.0
1028.0
1027.0
1026.0
1026.0
1031.0
1031.0
1030.0
1028.0
1025.0
1027.0
1029.0
1030.0
1028.0
1025.0
1023.0
1025.0
1026.0
1028.0
1027.0
1024.0
1022.0
1023.0
1026.0
1030.0
1024.0
1025.0
1021.0
1023.0
1027.0
1030.0
1026.0
1023.0
1020.0
1023.0
1024.0
1027.0
1025.0
1022.0
1021.0
1022.0
1024.0
1027.0
1023.0
1020.0
1018.0
1023.0
1024.0
1023.0
1024.0
1023.0
1021.0
1022.0
1022.0
1025.0
1023.0
1022.0
1022.0
1023.0
1023.0
1023.0
1022.0
1019.0
1020.0
1020.0
1022.0
1023.0
1023.0
1020.0
1018.0
1021.0
1022.0
1025.0
1024.0
1020.0
1022.0
1020.0
1024.0
1024.0
1023.0
1020.0
1018.0
1021.0
1024.0
1024.0
1023.0
1022.0
1019.0
1019.0
1021.0
1023.0
1023.0
1019.0
1018.0
1022.0
1025.0
1023.0
1022.0
1019.0
1017.0
1022.0
1024.0
1024.0
1023.0
1019.0
1018.0
1019.0
1022.0
1024.0
1023.0
1020.0
1020.0
1020.0
1024.0
1024.0
1023.0
1019.0
1018.0
1020.0
1023.0
1026.0
1023.0
1021.0
1018.0
1023.0
1022.0
1024.0
1024.0
1021.0
1020.0
1025.0
1025.0
1024.0
1024.0
1022.0
1022.0
1029.0
1029.0
1032.0
1032.0
1028.0
1027.0
1030.0
1033.0
1034.0
1036.0
1033.0
1030.0
1034.0
1035.0
1038.0
1033.0
1027.0
1024.0
1029.0
1029.0
1029.0
1032.0
1030.0
1028.0
1030.0
1034.0
1035.0
1035.0
1030.0
1029.0
1032.0
1033.0
1031.0
1026.0
1021.0
1022.0
1023.0
1026.0
1026.0
1024.0
1023.0
1022.0
1025.0
1026.0
1024.0
1024.0
1021.0
1019.0
1021.0
1024.0
1024.0
1021.0
1022.0
1022.0
1023.0
1024.0
1026.0
1022.0
1019.0
1020.0
1022.0
1026.0
1025.0
1024.0
1024.0
1021.0
1021.0
1027.0
1029.0
1028.0
1027.0
1031.0
1040.0
1049.0
1055.0
1066.0
1072.0
1084.0
1101.0
1122.0
1149.0
1177.0
1203.0
1231.0
1264.0
1294.0
1327.0
1361.0
1397.0
1427.0
1430.0
1407.0
1349.0
1254.0
1163.0
1091.0
1046.0
1025.0
1015.0
1011.0
1010.0
1015.0
1018.0
1021.0
1021.0
1018.0
1011.0
1008.0
1007.0
1006.0
1006.0
1006.0
1002.0
1000.0
1004.0
1002.0
1004.0
1001.0
1001.0
1000.0
1002.0
1005.0
1003.0
1001.0
997.0
997.0
999.0
1002.0
1001.0
1000.0
999.0
997.0
996.0
1000.0
999.0
996.0
994.0
992.0
995.0
998.0
997.0
996.0
990.0
991.0
992.0
994.0
996.0
994.0
991.0
991.0
992.0
994.0
994.0
993.0
991.0
992.0
994.0
996.0
996.0
994.0
991.0
990.0
993.0
998.0
1000.0
997.0
995.0
993.0
996.0
1000.0
998.0
997.0
996.0
997.0
998.0
1003.0
1003.0
1003.0
1002.0
1002.0
1003.0
1010.0
1012.0
1012.0
1011.0
1014.0
1018.0
1024.0
1026.0
1027.0
1026.0
1028.0
1034.0
1037.0
1041.0
1044.0
1044.0
1047.0
1051.0
1057.0
1058.0
1061.0
1060.0
1059.0
1064.0
1064.0
1068.0
1066.0
1063.0
1060.0
1060.0
1061.0
1057.0
1054.0
1051.0
1045.0
1046.0
1047.0
1043.0
1041.0
1036.0
1034.0
1032.0
1035.0
1035.0
1033.0
1030.0
1027.0
1030.0
1031.0
1030.0
1029.0
1025.0
1026.0
1027.0
1029.0
1027.0
1025.0
1023.0
1023.0
1024.0
1027.0
1027.0
1027.0
1022.0
1021.0
1022.0
1021.0
1024.0
1022.0
1020.0
1021.0
1020.0
1025.0
1023.0
1021.0
1016.0
1018.0
1019.0
1022.0
1022.0
1019.0
1017.0
1018.0
1017.0
1020.0
1020.0
1019.0
1016.0
1013.0
1017.0
1021.0
1018.0
1017.0
1013.0
1016.0
1018.0
1020.0
1022.0
1021.0
1018.0
1017.0
1018.0
1020.0
1023.0
1020.0
1016.0
1018.0
1019.0
1024.0
1022.0
1021.0
1019.0
1019.0
1022.0
1023.0
1024.0
1023.0
1019.0
1020.0
1022.0
1022.0
1023.0
1024.0
1021.0
1019.0
1021.0
1024.0
1022.0
1021.0
1020.0
1019.0
1021.0
1024.0
1024.0
1020.0
1018.0
1017.0
1020.0
1022.0
1023.0
1022.0
1016.0
1016.0
1016.0
1019.0
1021.0
1019.0
1016.0
1017.0
1019.0
1021.0
1019.0
1018.0
1014.0
1015.0
1017.0
1019.0
1018.0
1020.0
1013.0
1013.0
1016.0
1018.0
1017.0
1014.0
1016.0
1014.0
1017.0
1021.0
1019.0
1017.0
1014.0
1015.0
1016.0
1021.0
1020.0
1019.0
1016.0
1013.0
1016.0
1016.0
1016.0
1015.0
1014.0
1016.0
1019.0
1018.0
1019.0
1016.0
1016.0
1016.0
1022.0
1021.0
1018.0
1015.0
1016.0
1018.0
1020.0
1019.0
1018.0
1017.0
1015.0
1019.0
1023.0
1022.0
1019.0
1017.0
1018.0
1018.0
1020.0
1021.0
1017.0
1016.0
1016.0
1019.0
1023.0
1021.0
1020.0
1016.0
1014.0
1016.0
1021.0
1022.0
1020.0
1019.0
1015.0
1018.0
1022.0
1024.0
1021.0
1018.0
1020.0
1021.0
1023.0
1023.0
1024.0
1022.0
1023.0
1027.0
1028.0
1029.0
1030.0
1026.0
1025.0
1030.0
1032.0
1033.0
1032.0
1031.0
1030.0
1031.0
1033.0
1031.0
1027.0
1027.0
1025.0
1028.0
1031.0
1032.0
1027.0
1028.0
1027.0
1032.0
1034.0
1032.0
1032.0
1029.0
1025.0
1024.0
1025.0
1025.0
1020.0
1020.0
1020.0
1021.0
1024.0
1023.0
1023.0
1021.0
1018.0
1021.0
1024.0
1024.0
1022.0
1019.0
1018.0
1021.0
1023.0
1023.0
1023.0
1020.0
1021.0
1021.0
1022.0
1025.0
1019.0
1019.0
1018.0
1021.0
1024.0
1023.0
1023.0
1019.0
1020.0
1021.0
1029.0
1030.0
1032.0
1034.0
1039.0
1048.0
1062.0
1070.0
1079.0
1086.0
1100.0
1127.0
1159.0
1187.0
1214.0
1239.0
1265.0
1297.0
1336.0
1379.0
1409.0
1412.0
1389.0
1333.0
1255.0
1170.0
1099.0
1050.0
1024.0
1014.0
1012.0
1014.0
1017.0
1015.0
1014.0
1015.0
1015.0
1019.0
1013.0
1009.0
1006.0
1003.0
1007.0
1006.0
1002.0
1002.0
1001.0
1002.0
1007.0
1007.0
1000.0
1000.0
998.0
1002.0
1002.0
1004.0
1002.0
999.0
999.0
1000.0
1000.0
1000.0
1002.0
998.0
995.0
998.0
1000.0
1001.0
997.0
995.0
994.0
998.0
1000.0
999.0
996.0
995.0
995.0
995.0
1000.0
997.0
998.0
994.0
995.0
997.0
1000.0
998.0
997.0
994.0
993.0
995.0
997.0
1001.0
999.0
995.0
994.0
995.0
998.0
1000.0
1000.0
997.0
998.0
1001.0
1004.0
1003.0
1001.0
1000.0
1000.0
1004.0
1006.0
1008.0
1007.0
1008.0
1008.0
1010.0
1013.0
1014.0
1014.0
1015.0
1018.0
1020.0
1025.0
1027.0
1028.0
1030.0
1031.0
1036.0
1042.0
1045.0
1044.0
1048.0
1048.0
1054.0
1060.0
1063.0
1061.0
1062.0
1063.0
1066.0
1068.0
1066.0
1067.0
1063.0
1060.0
1064.0
1060.0
1059.0
1056.0
1051.0
1048.0
1050.0
1049.0
1049.0
1044.0
1039.0
1037.0
1038.0
1040.0
1040.0
1037.0
1032.0
1033.0
1034.0
1035.0
1035.0
1032.0
1028.0
1031.0
1034.0
1034.0
1035.0
1030.0
1027.0
1027.0
1029.0
1034.0
1032.0
1031.0
1027.0
1027.0
1027.0
1029.0
1029.0
1027.0
1026.0
1024.0
1024.0
1029.0
1027.0
1025.0
1021.0
1019.0
1025.0
1026.0
1028.0
1024.0
1022.0
1018.0
1020.0
1023.0
1024.0
1021.0
1019.0
1022.0
1022.0
1025.0
1023.0
1020.0
1021.0
1020.0
1022.0
1026.0
1028.0
1026.0
1023.0
1023.0
1024.0
1026.0
1028.0
1027.0
1024.0
1023.0
1025.0
1029.0
1028.0
1026.0
1023.0
1023.0
1026.0
1030.0
1028.0
1026.0
1022.0
1025.0
1023.0
1026.0
1027.0
1024.0
1022.0
1023.0
1024.0
1026.0
1025.0
1023.0
1020.0
1021.0
1021.0
1024.0
1025.0
1022.0
1019.0
1020.0
1023.0
1025.0
1022.0
1022.0
1017.0
1018.0
1017.0
1021.0
1021.0
1020.0
1015.0
1016.0
1018.0
1021.0
1021.0
1016.0
1016.0
1016.0
1019.0
1020.0
1021.0
1019.0
1017.0
1016.0
1018.0
1020.0
1019.0
1019.0
1016.0
1017.0
1019.0
1020.0
1021.0
1020.0
1015.0
1014.0
1018.0
1021.0
1022.0
1018.0
1013.0
1017.0
1017.0
1020.0
1019.0
1020.0
1017.0
1014.0
1018.0
1020.0
1019.0
1020.0
1017.0
1017.0
1019.0
1021.0
1021.0
1019.0
1016.0
1015.0
1018.0
1021.0
1022.0
1020.0
1017.0
1015.0
1017.0
1021.0
1022.0
1022.0
1018.0
1017.0
1019.0
1020.0
1021.0
1020.0
1014.0
1017.0
1019.0
1019.0
1021.0
1017.0
1016.0
1015.0
1019.0
1022.0
1022.0
1019.0
1016.0
1017.0
1020.0
1021.0
1023.0
1020.0
1020.0
1019.0
1022.0
1022.0
1025.0
1023.0
1023.0
1026.0
1027.0
1031.0
1029.0
1026.0
1029.0
1028.0
1028.0
1031.0
1031.0
1031.0
1027.0
1024.0
1026.0
1026.0
1027.0
1026.0
1022.0
1024.0
1025.0
1031.0
1031.0
1029.0
1027.0
1024.0
1023.0
1023.0
1018.0
1019.0
1016.0
1018.0
1019.0
1020.0
1018.0
1016.0
1015.0
1016.0
1017.0
1021.0
1020.0
1019.0
1014.0
1015.0
1017.0
1020.0
1019.0
1019.0
1015.0
1014.0
1018.0
1020.0
1019.0
1018.0
1017.0
1015.0
1018.0
1021.0
1022.0
1023.0
1020.0
1023.0
1031.0
1037.0
1046.0
1053.0
1064.0
1077.0
1091.0
1115.0
1146.0
1177.0
1205.0
1240.0
1273.0
1307.0
1339.0
1380.0
1413.0
1431.0
1421.0
1371.0
1284.0
1180.0
1101.0
1050.0
1026.0
1016.0
1015.0
1013.0
1013.0
1016.0
1015.0
1017.0
1014.0
1012.0
1002.0
1000.0
999.0
1002.0
1002.0
998.0
997.0
996.0
998.0
1000.0
998.0
995.0
992.0
995.0
995.0
998.0
998.0
996.0
994.0
994.0
995.0
998.0
996.0
995.0
992.0
989.0
992.0
993.0
994.0
989.0
989.0
989.0
991.0
993.0
994.0
990.0
986.0
987.0
989.0
990.0
992.0
991.0
989.0
986.0
990.0
993.0
993.0
994.0
988.0
988.0
990.0
993.0
992.0
991.0
989.0
992.0
993.0
995.0
997.0
995.0
992.0
992.0
996.0
998.0
1000.0
1000.0
994.0
998.0
1001.0
1003.0
1003.0
1002.0
1002.0
1007.0
1008.0
1015.0
1015.0
1015.0
1014.0
1019.0
1024.0
1031.0
1033.0
1033.0
1034.0
1037.0
1043.0
1050.0
1052.0
1053.0
1052.0
1057.0
1061.0
1065.0
1066.0
1066.0
1060.0
1062.0
1063.0
1063.0
1062.0
1060.0
1054.0
1052.0
1051.0
1051.0
1049.0
1046.0
1041.0
1038.0
1040.0
1038.0
1038.0
1032.0
1030.0
1030.0
1028.0
1032.0
1031.0
1026.0
1027.0
1024.0
1026.0
1030.0
1029.0
1026.0
1023.0
1024.0
1026.0
1027.0
1027.0
1024.0
1021.0
1023.0
1026.0
1029.0
1027.0
1025.0
1021.0
1021.0
1024.0
1023.0
1023.0
1022.0
1019.0
1019.0
1019.0
1020.0
1021.0
1018.0
1018.0
1017.0
1017.0
1022.0
1020.0
1017.0
1016.0
1016.0
1017.0
1019.0
1018.0
1017.0
1016.0
1016.0
1018.0
1020.0
1018.0
1017.0
1016.0
1015.0
1020.0
1021.0
1019.0
1018.0
1016.0
1017.0
1019.0
1023.0
1023.0
1021.0
1018.0
1019.0
1020.0
1024.0
1026.0
1023.0
1020.0
1021.0
1022.0
1026.0
1025.0
1023.0
1020.0
1020.0
1023.0
1026.0
1026.0
1026.0
1022.0
1021.0
1022.0
1024.0
1024.0
1025.0
1021.0
1020.0
1022.0
1023.0
1023.0
1023.0
1022.0
1019.0
1021.0
1024.0
1023.0
1022.0
1019.0
1022.0
1020.0
1025.0
1022.0
1022.0
1019.0
1018.0
1020.0
1022.0
1022.0
1021.0
1019.0
1015.0
1022.0
1021.0
1020.0
1020.0
1018.0
1016.0
1023.0
1024.0
1024.0
1022.0
1017.0
1019.0
1020.0
1025.0
1023.0
1023.0
1020.0
1018.0
1023.0
1024.0
1024.0
1023.0
1018.0
1019.0
1022.0
1024.0
1025.0
1021.0
1020.0
1018.0
1022.0
1025.0
1024.0
1025.0
1020.0
1020.0
1021.0
1025.0
1024.0
1023.0
1020.0
1018.0
1023.0
1026.0
1022.0
1020.0
1021.0
1020.0
1024.0
1025.0
1025.0
1022.0
1019.0
1021.0
1020.0
1025.0
1025.0
1023.0
1020.0
1020.0
1024.0
1024.0
1024.0
1023.0
1018.0
1020.0
1023.0
1023.0
1022.0
1019.0
1018.0
1019.0
1023.0
1027.0
1027.0
1026.0
1026.0
1026.0
1028.0
1032.0
1034.0
1030.0
1030.0
1032.0
1032.0
1036.0
1036.0
1033.0
1031.0
1030.0
1034.0
1035.0
1033.0
1028.0
1023.0
1024.0
1027.0
1027.0
1029.0
1029.0
1026.0
1028.0
1030.0
1037.0
1033.0
1032.0
1029.0
1031.0
1028.0
1027.0
1025.0
1021.0
1021.0
1021.0
1023.0
1027.0
1028.0
1026.0
1022.0
1021.0
1022.0
1025.0
1026.0
1024.0
1021.0
1020.0
1020.0
1023.0
1024.0
1022.0
1019.0
1020.0
1021.0
1022.0
1024.0
1023.0
1018.0
1020.0
1024.0
1026.0
1025.0
1025.0
1024.0
1023.0
1025.0
1031.0
1034.0
1037.0
1040.0
1046.0
1057.0
1071.0
1082.0
1087.0
1099.0
1123.0
1154.0
1187.0
1218.0
1246.0
1273.0
1300.0
1332.0
1375.0
1415.0
1437.0
1436.0
1403.0
1334.0
1244.0
1151.0
1079.0
1038.0
1018.0
1014.0
1017.0
1019.0
1017.0
1016.0
1017.0
1017.0
1017.0
1016.0
1009.0
1007.0
1004.0
1003.0
1005.0
1002.0
1001.0
999.0
1000.0
1002.0
1003.0
1001.0
1000.0
999.0
997.0
1002.0
1004.0
1003.0
1001.0
997.0
998.0
999.0
1002.0
1001.0
997.0
995.0
996.0
1000.0
1002.0
999.0
995.0
994.0
994.0
998.0
998.0
1001.0
995.0
994.0
997.0
997.0
1000.0
998.0
997.0
996.0
995.0
998.0
999.0
999.0
998.0
993.0
995.0
1000.0
1000.0
1000.0
1000.0
996.0
997.0
1000.0
1004.0
1001.0
1001.0
1000.0
1001.0
1003.0
1006.0
1005.0
1005.0
1004.0
1003.0
1007.0
1010.0
1009.0
1010.0
1010.0
1012.0
1016.0
1023.0
1025.0
1024.0
1024.0
1028.0
1033.0
1040.0
1039.0
1043.0
1043.0
1049.0
1056.0
1058.0
1061.0
1063.0
1066.0
1067.0
1071.0
1077.0
1075.0
1074.0
1071.0
1071.0
1071.0
1072.0
1070.0
1066.0
1060.0
1058.0
1057.0
1060.0
1055.0
1050.0
1045.0
1043.0
1044.0
1043.0
1041.0
1038.0
1035.0
1036.0
1037.0
1039.0
1036.0
1034.0
1031.0
1034.0
1033.0
1037.0
1035.0
1035.0
1033.0
1030.0
1034.0
1034.0
1034.0
1034.0
1029.0
1028.0
1031.0
1031.0
1031.0
1029.0
1025.0
1027.0
1030.0
1032.0
1030.0
1027.0
1023.0
1025.0
1026.0
1031.0
1030.0
1027.0
1023.0
1025.0
1026.0
1028.0
1029.0
1026.0
1022.0
1024.0
1025.0
1027.0
1028.0
1028.0
1026.0
1028.0
1029.0
1032.0
1030.0
1029.0
1025.0
1027.0
1030.0
1034.0
1030.0
1030.0
1025.0
1028.0
1030.0
1031.0
1029.0
1029.0
1027.0
1027.0
1027.0
1031.0
1030.0
1028.0
1026.0
1027.0
1029.0
1029.0
1029.0
1028.0
1027.0
1026.0
1027.0
1030.0
1031.0
1025.0
1024.0
1025.0
1027.0
1029.0
1028.0
1027.0
1025.0
1024.0
1027.0
1028.0
1026.0
1027.0
1023.0
1025.0
1026.0
1029.0
1028.0
1025.0
1022.0
1024.0
1024.0
1028.0
1027.0
1026.0
1021.0
1021.0
1025.0
1027.0
1026.0
1027.0
1022.0
1023.0
1025.0
1026.0
1024.0
1023.0
1022.0
1024.0
1024.0
1027.0
1029.0
1023.0
1022.0
1020.0
1024.0
1027.0
1026.0
1026.0
1023.0
1023.0
1024.0
1027.0
1026.0
1023.0
1021.0
1023.0
1026.0
1027.0
1029.0
1027.0
1022.0
1022.0
1025.0
1027.0
1028.0
1024.0
1023.0
1023.0
1026.0
1028.0
1026.0
1026.0
1024.0
1025.0
1025.0
1028.0
1028.0
1026.0
1022.0
1024.0
1027.0
1028.0
1029.0
1026.0
1024.0
1025.0
1028.0
1033.0
1030.0
1028.0
1026.0
1031.0
1035.0
1037.0
1037.0
1035.0
1033.0
1035.0
1038.0
1041.0
1041.0
1039.0
1038.0
1039.0
1042.0
1043.0
1040.0
1035.0
1034.0
1033.0
1034.0
1039.0
1040.0
1041.0
1034.0
1038.0
1036.0
1040.0
1039.0
1038.0
1036.0
1036.0
1035.0
1035.0
1033.0
1028.0
1025.0
1026.0
1029.0
1031.0
1029.0
1028.0
1025.0
1025.0
1027.0
1029.0
1028.0
1025.0
1023.0
1024.0
1027.0
1030.0
1027.0
1024.0
1023.0
1023.0
1029.0
1030.0
1027.0
1025.0
1023.0
1025.0
1028.0
1032.0
1030.0
1030.0
1031.0
1031.0
1034.0
1040.0
1045.0
1052.0
1060.0
1073.0
1086.0
1100.0
1116.0
1140.0
1172.0
1204.0
1242.0
1274.0
1302.0
1333.0
1372.0
1416.0
1443.0
1437.0
1388.0
1300.0
1193.0
1106.0
1055.0
1031.0
1020.0
1015.0
1016.0
1023.0
1024.0
1023.0
1022.0
1020.0
1016.0
1014.0
1013.0
1014.0
1011.0
1009.0
1004.0
1005.0
1008.0
1013.0
1011.0
1008.0
1004.0
1006.0
1007.0
1008.0
1009.0
1007.0
1006.0
1004.0
1006.0
1007.0
1007.0
1005.0
1004.0
1004.0
1004.0
1007.0
1005.0
1002.0
999.0
1001.0
1005.0
1009.0
1007.0
1003.0
1000.0
1000.0
1003.0
1006.0
1006.0
1003.0
1004.0
1005.0
1006.0
1006.0
1007.0
1004.0
1002.0
1005.0
1006.0
1011.0
1008.0
1007.0
1004.0
1007.0
1009.0
1012.0
1013.0
1011.0
1011.0
1009.0
1013.0
1019.0
1018.0
1018.0
1018.0
1020.0
1023.0
1025.0
1026.0
1027.0
1030.0
1034.0
1036.0
1043.0
1043.0
1045.0
1047.0
1052.0
1058.0
1064.0
1064.0
1067.0
1067.0
1071.0
1077.0
1082.0
1080.0
1079.0
1075.0
1073.0
1075.0
1074.0
1073.0
1068.0
1061.0
1059.0
1057.0
1054.0
1052.0
1048.0
1044.0
1044.0
1044.0
1043.0
1041.0
1039.0
1036.0
1037.0
1037.0
1038.0
1038.0
1034.0
1031.0
1032.0
1036.0
1037.0
1035.0
1032.0
1028.0
1032.0
1030.0
1032.0
1031.0
1027.0
1027.0
1028.0
1028.0
1029.0
1027.0
1024.0
1024.0
1023.0
1025.0
1029.0
1026.0
1023.0
1018.0
1019.0
1023.0
1025.0
1024.0
1024.0
1022.0
1022.0
1023.0
1025.0
1026.0
1023.0
1021.0
1023.0
1027.0
1027.0
1026.0
1023.0
1023.0
1024.0
1026.0
1027.0
1029.0
1024.0
1023.0
1022.0
1027.0
1030.0
1026.0
1023.0
1024.0
1024.0
1024.0
1025.0
1025.0
1022.0
1022.0
1020.0
1024.0
1023.0
1022.0
1021.0
1021.0
1020.0
1024.0
1024.0
1021.0
1019.0
1016.0
1018.0
1020.0
1024.0
1024.0
1021.0
1019.0
1022.0
1021.0
1024.0
1023.0
1022.0
1018.0
1022.0
1021.0
1023.0
1022.0
1019.0
1014.0
1019.0
1018.0
1024.0
1023.0
1018.0
1017.0
1018.0
1019.0
1023.0
1021.0
1021.0
1016.0
1020.0
1019.0
1020.0
1020.0
1021.0
1020.0
1019.0
1022.0
1024.0
1021.0
1017.0
1016.0
1017.0
1020.0
1021.0
1021.0
1018.0
1018.0
1018.0
1021.0
1020.0
1021.0
1019.0
1017.0
1018.0
1018.0
1023.0
1022.0
1020.0
1016.0
1019.0
1020.0
1023.0
1023.0
1019.0
1018.0
1019.0
1019.0
1022.0
1020.0
1019.0
1017.0
1019.0
1020.0
1024.0
1023.0
1018.0
1018.0
1019.0
1022.0
1024.0
1021.0
1019.0
1016.0
1019.0
1021.0
1025.0
1025.0
1025.0
1025.0
1025.0
1029.0
1030.0
1030.0
1028.0
1028.0
1029.0
1031.0
1032.0
1032.0
1029.0
1027.0
1028.0
1028.0
1029.0
1027.0
1026.0
1024.0
1025.0
1027.0
1031.0
1029.0
1028.0
1026.0
1030.0
1031.0
1032.0
1030.0
1027.0
1022.0
1020.0
1023.0
1023.0
1021.0
1019.0
1017.0
1021.0
1022.0
1023.0
1023.0
1021.0
1018.0
1020.0
1021.0
1021.0
1019.0
1020.0
1017.0
1017.0
1019.0
1023.0
1021.0
1017.0
1018.0
1017.0
1021.0
1021.0
1021.0
1019.0
1015.0
1020.0
1021.0
1026.0
1026.0
1024.0
1020.0
1021.0
1027.0
1029.0
1028.0
1029.0
1031.0
1036.0
1047.0
1053.0
1059.0
1071.0
1077.0
1082.0
1098.0
1117.0
1141.0
1164.0
1188.0
1216.0
1246.0
1276.0
1301.0
1328.0
1363.0
1399.0
1424.0
1429.0
1396.0
1328.0
1236.0
1147.0
1087.0
1051.0
1028.0
1016.0
1016.0
1018.0
1022.0
1023.0
1020.0
1018.0
1014.0
1012.0
1012.0
1011.0
1005.0
1003.0
1000.0
1000.0
1003.0
1006.0
1004.0
1000.0
996.0
999.0
1001.0
1004.0
1004.0
1000.0
996.0
997.0
1002.0
1005.0
1002.0
1001.0
999.0
999.0
1000.0
1004.0
1001.0
997.0
996.0
995.0
1000.0
1003.0
998.0
994.0
994.0
995.0
998.0
1003.0
1000.0
995.0
994.0
997.0
998.0
1000.0
997.0
998.0
995.0
996.0
997.0
1000.0
1001.0
998.0
996.0
998.0
997.0
999.0
998.0
996.0
999.0
1000.0
1001.0
1004.0
1000.0
999.0
997.0
997.0
1001.0
1005.0
1006.0
1003.0
1002.0
1002.0
1005.0
1007.0
1008.0
1006.0
1004.0
1009.0
1011.0
1017.0
1013.0
1013.0
1014.0
1016.0
1020.0
1027.0
1027.0
1028.0
1029.0
1032.0
1036.0
1044.0
1044.0
1046.0
1049.0
1051.0
1058.0
1062.0
1064.0
1063.0
1063.0
1065.0
1070.0
1074.0
1073.0
1070.0
1071.0
1071.0
1068.0
1072.0
1065.0
1063.0
1058.0
1059.0
1059.0
1058.0
1056.0
1052.0
1047.0
1046.0
1044.0
1049.0
1046.0
1042.0
1038.0
1039.0
1043.0
1044.0
1041.0
1037.0
1038.0
1035.0
1041.0
1041.0
1037.0
1036.0
1034.0
1035.0
1039.0
1038.0
1039.0
1038.0
1034.0
1035.0
1038.0
1037.0
1036.0
1035.0
1033.0
1031.0
1037.0
1039.0
1035.0
1035.0
1029.0
1031.0
1031.0
1033.0
1032.0
1029.0
1027.0
1028.0
1029.0
1030.0
1029.0
1028.0
1027.0
1029.0
1030.0
1031.0
1030.0
1028.0
1026.0
1025.0
1027.0
1032.0
1031.0
1031.0
1029.0
1029.0
1032.0
1032.0
1031.0
1028.0
1026.0
1029.0
1032.0
1034.0
1034.0
1032.0
1029.0
1029.0
1031.0
1033.0
1029.0
1028.0
1026.0
1030.0
1030.0
1031.0
1031.0
1030.0
1028.0
1030.0
1031.0
1033.0
1033.0
1030.0
1030.0
1026.0
1029.0
1033.0
1033.0
1029.0
1027.0
1027.0
1028.0
1029.0
1030.0
1029.0
1025.0
1028.0
1030.0
1032.0
1030.0
1028.0
1023.0
1023.0
1028.0
1029.0
1028.0
1027.0
1023.0
1024.0
1028.0
1030.0
1029.0
1026.0
1027.0
1026.0
1027.0
1031.0
1028.0
1024.0
1025.0
1024.0
1027.0
1030.0
1031.0
1029.0
1025.0
1025.0
1027.0
1028.0
1029.0
1026.0
1026.0
1026.0
1027.0
1030.0
1028.0
1026.0
1024.0
1027.0
1027.0
1031.0
1026.0
1028.0
1022.0
1026.0
1030.0
1030.0
1029.0
1026.0
1025.0
1025.0
1028.0
1027.0
1030.0
1029.0
1028.0
1028.0
1032.0
1031.0
1032.0
1026.0
1027.0
1029.0
1032.0
1034.0
1030.0
1026.0
1025.0
1028.0
1027.0
1031.0
1031.0
1029.0
1025.0
1029.0
1031.0
1032.0
1030.0
1028.0
1027.0
1029.0
1031.0
1036.0
1033.0
1031.0
1030.0
1030.0
1033.0
1036.0
1038.0
1035.0
1036.0
1037.0
1040.0
1041.0
1042.0
1041.0
1037.0
1040.0
1043.0
1043.0
1043.0
1040.0
1039.0
1038.0
1037.0
1040.0
1040.0
1035.0
1032.0
1035.0
1038.0
1040.0
1038.0
1037.0
1039.0
1038.0
1038.0
1043.0
1040.0
1037.0
1031.0
1033.0
1033.0
1035.0
1032.0
1032.0
1027.0
1027.0
1030.0
1032.0
1031.0
1030.0
1026.0
1028.0
1030.0
1032.0
1031.0
1028.0
1026.0
1027.0
1030.0
1032.0
1028.0
1029.0
1022.0
1027.0
1027.0
1030.0
1031.0
1029.0
1024.0
1024.0
1027.0
1030.0
1028.0
1027.0
1027.0
1028.0
1033.0
1037.0
1038.0
1039.0
1043.0
1050.0
1061.0
1075.0
1086.0
1094.0
1104.0
1128.0
1156.0
1190.0
1223.0
1252.0
1282.0
1315.0
1352.0
1391.0
1433.0
1465.0
1472.0
1459.0
1417.0
1351.0
1269.0
1184.0
1119.0
1073.0
1043.0
1029.0
1023.0
1024.0
1022.0
1024.0
1026.0
1025.0
1024.0
1016.0
1014.0
1009.0
1010.0
1011.0
1008.0
1007.0
1003.0
1005.0
1007.0
1008.0
1007.0
1004.0
1002.0
1000.0
1006.0
1007.0
1006.0
1003.0
1002.0
1000.0
1002.0
1006.0
1003.0
1002.0
999.0
999.0
999.0
1000.0
999.0
997.0
995.0
994.0
999.0
1000.0
999.0
997.0
991.0
994.0
997.0
1000.0
998.0
995.0
995.0
995.0
998.0
998.0
997.0
996.0
994.0
998.0
999.0
999.0
999.0
994.0
993.0
996.0
998.0
1001.0
1000.0
998.0
996.0
997.0
1001.0
1003.0
1005.0
1003.0
1001.0
1002.0
1007.0
1008.0
1007.0
1005.0
1005.0
1010.0
1014.0
1017.0
1019.0
1019.0
1018.0
1023.0
1030.0
1035.0
1036.0
1037.0
1039.0
1044.0
1050.0
1058.0
1058.0
1058.0
1061.0
1063.0
1071.0
1073.0
1076.0
1074.0
1071.0
1071.0
1075.0
1076.0
1075.0
1067.0
1062.0
1063.0
1062.0
1061.0
1062.0
1056.0
1051.0
1049.0
1049.0
1049.0
1046.0
1042.0
1041.0
1040.0
1041.0
1042.0
1037.0
1038.0
1034.0
1034.0
1037.0
1039.0
1038.0
1038.0
1034.0
1036.0
1036.0
1037.0
1037.0
1036.0
1031.0
1034.0
1036.0
1039.0
1036.0
1035.0
1032.0
1034.0
1037.0
1037.0
1034.0
1033.0
1030.0
1030.0
1034.0
1034.0
1032.0
1029.0
1028.0
1028.0
1032.0
1033.0
1032.0
1030.0
1027.0
1030.0
1030.0
1032.0
1029.0
1027.0
1028.0
1026.0
1031.0
1034.0
1033.0
1029.0
1027.0
1030.0
1033.0
1038.0
1037.0
1034.0
1033.0
1032.0
1033.0
1037.0
1037.0
1035.0
1033.0
1035.0
1038.0
1039.0
1035.0
1034.0
1034.0
1035.0
1038.0
1039.0
1037.0
1035.0
1033.0
1033.0
1035.0
1038.0
1037.0
1034.0
1032.0
1031.0
1035.0
1035.0
1035.0
1032.0
1031.0
1031.0
1034.0
1035.0
1032.0
1031.0
1029.0
1031.0
1030.0
1032.0
1034.0
1030.0
1028.0
1029.0
1031.0
1035.0
1031.0
1029.0
1029.0
1029.0
1032.0
1034.0
1031.0
1030.0
1027.0
1029.0
1032.0
1032.0
1032.0
1029.0
1026.0
1028.0
1031.0
1033.0
1032.0
1030.0
1026.0
1028.0
1031.0
1030.0
1030.0
1027.0
1026.0
1027.0
1031.0
1035.0
1032.0
1031.0
1029.0
1030.0
1031.0
1032.0
1031.0
1029.0
1028.0
1030.0
1033.0
1033.0
1034.0
1030.0
1029.0
1028.0
1031.0
1036.0
1034.0
1030.0
1028.0
1031.0
1033.0
1035.0
1035.0
1032.0
1031.0
1029.0
1031.0
1035.0
1034.0
1031.0
1030.0
1033.0
1033.0
1038.0
1037.0
1032.0
1029.0
1033.0
1036.0
1037.0
1037.0
1033.0
1031.0
1034.0
1035.0
1038.0
1040.0
1038.0
1037.0
1041.0
1043.0
1042.0
1042.0
1041.0
1038.0
1042.0
1048.0
1048.0
1048.0
1044.0
1039.0
1040.0
1041.0
1044.0
1040.0
1039.0
1039.0
1039.0
1042.0
1044.0
1043.0
1042.0
1038.0
1041.0
1044.0
1045.0
1044.0
1042.0
1040.0
1035.0
1038.0
1039.0
1039.0
1034.0
1032.0
1033.0
1034.0
1035.0
1032.0
1032.0
1030.0
1032.0
1034.0
1038.0
1037.0
1033.0
1031.0
1032.0
1034.0
1036.0
1034.0
1030.0
1029.0
1031.0
1032.0
1036.0
1034.0
1031.0
1029.0
1032.0
1037.0
1040.0
1038.0
1038.0
1038.0
1043.0
1050.0
1058.0
1068.0
1077.0
1088.0
1102.0
1121.0
1144.0
1172.0
1207.0
1235.0
1269.0
1303.0
1333.0
1370.0
1408.0
1446.0
1457.0
1439.0
1380.0
1283.0
1176.0
1095.0
1053.0
1034.0
1027.0
1027.0
1026.0
1029.0
1028.0
1030.0
1028.0
1025.0
1021.0
1016.0
1016.0
1016.0
1019.0
1015.0
1013.0
1013.0
1013.0
1015.0
1015.0
1014.0
1011.0
1008.0
