# Simple Text Format
# Sampling Rate (Hz):= 360.00
# Resolution:= 12
# Labels:= ECG
979.0
984.0
985.0
982.0
980.0
978.0
978.0
980.0
978.0
977.0
979.0
983.0
985.0
991.0
991.0
992.0
989.0
990.0
993.0
1000.0
1003.0
1004.0
1008.0
1013.0
1017.0
1024.0
1025.0
1027.0
1030.0
1038.0
1044.0
1053.0
1054.0
1056.0
1057.0
1063.0
1065.0
1067.0
1071.0
1071.0
1067.0
1064.0
1063.0
1060.0
1057.0
1055.0
1053.0
1054.0
1053.0
1054.0
1052.0
1051.0
1046.0
1046.0
1047.0
1047.0
1045.0
1042.0
1041.0
1045.0
1049.0
1050.0
1046.0
1040.0
1040.0
1043.0
1047.0
1047.0
1042.0
1038.0
1036.0
1041.0
1044.0
1045.0
1042.0
1038.0
1036.0
1036.0
1035.0
1037.0
1036.0
1033.0
1035.0
1035.0
1038.0
1036.0
1031.0
1029.0
1028.0
1023.0
1027.0
1031.0
1032.0
1028.0
1028.0
1028.0
1031.0
1034.0
1031.0
1027.0
1024.0
1025.0
1030.0
1031.0
1030.0
1029.0
1028.0
1029.0
1033.0
1034.0
1031.0
1029.0
1028.0
1030.0
1031.0
1031.0
1031.0
1029.0
1029.0
1033.0
1033.0
1036.0
1035.0
1033.0
1031.0
1027.0
1030.0
1035.0
1032.0
1030.0
1031.0
1032.0
1031.0
1032.0
1033.0
1033.0
1031.0
1035.0
1035.0
1034.0
1025.0
1022.0
1023.0
1024.0
1027.0
1032.0
1035.0
1033.0
1029.0
1029.0
1033.0
1032.0
1030.0
1031.0
1030.0
1032.0
1033.0
1031.0
1026.0
1021.0
1021.0
1023.0
1028.0
1028.0
1026.0
1024.0
1022.0
1024.0
1028.0
1031.0
1031.0
1025.0
1023.0
1025.0
1026.0
1031.0
1032.0
1029.0
1028.0
1033.0
1035.0
1036.0
1033.0
1027.0
1019.0
1016.0
1017.0
1026.0
1029.0
1029.0
1028.0
1029.0
1030.0
1031.0
1029.0
1025.0
1027.0
1029.0
1034.0
1036.0
1033.0
1031.0
1028.0
1030.0
1032.0
1035.0
1034.0
1034.0
1033.0
1034.0
1034.0
1034.0
1036.0
1039.0
1040.0
1041.0
1041.0
1044.0
1043.0
1039.0
1041.0
1045.0
1051.0
1052.0
1051.0
1047.0
1043.0
1043.0
1041.0
1043.0
1045.0
1044.0
1043.0
1044.0
1046.0
1043.0
1042.0
1040.0
1043.0
1046.0
1046.0
1044.0
1040.0
1038.0
1031.0
1032.0
1036.0
1036.0
1035.0
1034.0
1033.0
1037.0
1040.0
1042.0
1040.0
1035.0
1029.0
1029.0
1032.0
1033.0
1034.0
1032.0
1031.0
1036.0
1041.0
1043.0
1038.0
1034.0
1032.0
1036.0
1041.0
1041.0
1040.0
1036.0
1034.0
1037.0
1046.0
1052.0
1062.0
1072.0
1087.0
1102.0
1122.0
1145.0
1169.0
1200.0
1237.0
1274.0
1312.0
1347.0
1374.0
1404.0
1442.0
1476.0
1494.0
1475.0
1416.0
1323.0
1222.0
1149.0
1110.0
1082.0
1060.0
1048.0
1045.0
1044.0
1043.0
1037.0
1028.0
1022.0
1018.0
1019.0
1019.0
1021.0
1017.0
1014.0
1010.0
1007.0
1010.0
1011.0
1007.0
1006.0
1005.0
1006.0
1009.0
1009.0
1007.0
1006.0
1004.0
1003.0
1007.0
1007.0
1002.0
997.0
998.0
1001.0
1003.0
1003.0
1002.0
996.0
994.0
995.0
998.0
997.0
995.0
991.0
990.0
993.0
994.0
997.0
994.0
994.0
992.0
995.0
995.0
990.0
983.0
980.0
983.0
989.0
990.0
991.0
992.0
987.0
984.0
984.0
982.0
982.0
981.0
981.0
980.0
983.0
986.0
989.0
985.0
983.0
981.0
984.0
985.0
988.0
987.0
987.0
989.0
992.0
996.0
999.0
998.0
996.0
998.0
1004.0
1009.0
1013.0
1016.0
1012.0
1015.0
1022.0
1026.0
1034.0
1037.0
1039.0
1044.0
1052.0
1058.0
1061.0
1061.0
1057.0
1057.0
1059.0
1065.0
1068.0
1068.0
1064.0
1059.0
1057.0
1061.0
1062.0
1064.0
1056.0
1054.0
1051.0
1048.0
1048.0
1047.0
1045.0
1045.0
1045.0
1051.0
1053.0
1051.0
1046.0
1041.0
1040.0
1043.0
1046.0
1045.0
1042.0
1041.0
1040.0
1042.0
1041.0
1041.0
1039.0
1038.0
1039.0
1043.0
1042.0
1037.0
1032.0
1030.0
1031.0
1032.0
1034.0
1036.0
1035.0
1035.0
1034.0
1036.0
1033.0
1031.0
1028.0
1033.0
1034.0
1036.0
1036.0
1031.0
1025.0
1022.0
1025.0
1032.0
1033.0
1034.0
1029.0
1028.0
1031.0
1036.0
1038.0
1033.0
1029.0
1027.0
1031.0
1036.0
1036.0
1032.0
1029.0
1029.0
1030.0
1035.0
1036.0
1035.0
1033.0
1032.0
1030.0
1033.0
1032.0
1031.0
1030.0
1029.0
1034.0
1035.0
1034.0
1028.0
1025.0
1027.0
1030.0
1035.0
1034.0
1028.0
1024.0
1027.0
1030.0
1031.0
1032.0
1030.0
1027.0
1026.0
1031.0
1030.0
1030.0
1027.0
1026.0
1027.0
1031.0
1028.0
1027.0
1027.0
1029.0
1030.0
1030.0
1031.0
1029.0
1028.0
1026.0
1024.0
1023.0
1024.0
1025.0
1025.0
1023.0
1024.0
1028.0
1027.0
1029.0
1025.0
1025.0
1024.0
1025.0
1027.0
1030.0
1030.0
1029.0
1031.0
1029.0
1030.0
1026.0
1022.0
1024.0
1026.0
1026.0
1029.0
1028.0
1021.0
1022.0
1024.0
1029.0
1030.0
1034.0
1034.0
1034.0
1034.0
1039.0
1040.0
1038.0
1038.0
1032.0
1031.0
1034.0
1039.0
1042.0
1040.0
1037.0
1038.0
1040.0
1041.0
1043.0
1040.0
1037.0
1032.0
1034.0
1040.0
1041.0
1038.0
1037.0
1038.0
1038.0
1039.0
1035.0
1030.0
1024.0
1020.0
1020.0
1025.0
1029.0
1028.0
1024.0
1027.0
1024.0
1022.0
1024.0
1026.0
1025.0
1024.0
1022.0
1022.0
1023.0
1022.0
1018.0
1017.0
1022.0
1026.0
1030.0
1029.0
1026.0
1021.0
1020.0
1025.0
1027.0
1028.0
1028.0
1030.0
1034.0
1043.0
1049.0
1059.0
1071.0
1082.0
1102.0
1126.0
1156.0
1193.0
1230.0
1270.0
1310.0
1344.0
1376.0
1406.0
1441.0
1472.0
1485.0
1470.0
1415.0
1322.0
1220.0
1140.0
1092.0
1068.0
1051.0
1038.0
1028.0
1026.0
1022.0
1023.0
1020.0
1017.0
1009.0
1004.0
1006.0
1008.0
1009.0
1007.0
1003.0
998.0
995.0
1000.0
1004.0
1002.0
998.0
994.0
992.0
993.0
993.0
990.0
989.0
989.0
987.0
989.0
992.0
992.0
990.0
991.0
991.0
992.0
986.0
984.0
982.0
983.0
983.0
984.0
987.0
984.0
979.0
984.0
984.0
987.0
985.0
982.0
979.0
980.0
982.0
983.0
981.0
977.0
975.0
976.0
979.0
984.0
982.0
980.0
977.0
972.0
976.0
981.0
982.0
983.0
978.0
978.0
978.0
982.0
984.0
981.0
981.0
983.0
989.0
994.0
992.0
992.0
988.0
985.0
992.0
1001.0
1008.0
1008.0
1009.0
1011.0
1017.0
1024.0
1028.0
1033.0
1035.0
1038.0
1043.0
1052.0
1053.0
1053.0
1048.0
1047.0
1049.0
1055.0
1057.0
1056.0
1050.0
1049.0
1050.0
1051.0
1050.0
1042.0
1037.0
1037.0
1039.0
1042.0
1041.0
1037.0
1032.0
1030.0
1032.0
1035.0
1036.0
1031.0
1030.0
1030.0
1030.0
1035.0
1032.0
1032.0
1028.0
1026.0
1025.0
1032.0
1030.0
1028.0
1028.0
1027.0
1026.0
1028.0
1026.0
1022.0
1019.0
1019.0
1023.0
1025.0
1025.0
1018.0
1016.0
1019.0
1021.0
1024.0
1022.0
1017.0
1014.0
1017.0
1021.0
1021.0
1022.0
1018.0
1017.0
1016.0
1016.0
1021.0
1019.0
1018.0
1015.0
1017.0
1019.0
1027.0
1026.0
1021.0
1016.0
1014.0
1018.0
1020.0
1020.0
1018.0
1014.0
1012.0
1015.0
1022.0
1022.0
1018.0
1014.0
1009.0
1012.0
1016.0
1018.0
1012.0
1008.0
1008.0
1013.0
1015.0
1018.0
1017.0
1014.0
1013.0
1013.0
1015.0
1016.0
1014.0
1012.0
1015.0
1013.0
1014.0
1013.0
1011.0
1012.0
1009.0
1013.0
1013.0
1012.0
1010.0
1009.0
1010.0
1010.0
1011.0
1010.0
1011.0
1010.0
1012.0
1015.0
1012.0
1008.0
1007.0
1011.0
1010.0
1011.0
1010.0
1010.0
1006.0
1008.0
1009.0
1014.0
1017.0
1016.0
1013.0
1008.0
1005.0
1009.0
1012.0
1015.0
1013.0
1010.0
1009.0
1008.0
1011.0
1014.0
1013.0
1015.0
1014.0
1018.0
1019.0
1021.0
1018.0
1015.0
1017.0
1021.0
1029.0
1029.0
1028.0
1024.0
1024.0
1022.0
1024.0
1025.0
1023.0
1022.0
1020.0
1022.0
1019.0
1021.0
1020.0
1019.0
1021.0
1025.0
1028.0
1030.0
1027.0
1024.0
1026.0
1025.0
1023.0
1020.0
1016.0
1012.0
1017.0
1016.0
1019.0
1016.0
1014.0
1011.0
1006.0
1012.0
1015.0
1016.0
1016.0
1011.0
1012.0
1013.0
1016.0
1016.0
1014.0
1013.0
1015.0
1015.0
1016.0
1014.0
1011.0
1012.0
1015.0
1016.0
1019.0
1021.0
1022.0
1018.0
1024.0
1028.0
1031.0
1035.0
1038.0
1044.0
1058.0
1076.0
1095.0
1114.0
1137.0
1166.0
1203.0
1244.0
1281.0
1312.0
1345.0
1369.0
1406.0
1448.0
1475.0
1483.0
1457.0
1393.0
1299.0
1203.0
1134.0
1089.0
1060.0
1043.0
1032.0
1030.0
1028.0
1025.0
1020.0
1012.0
1007.0
1004.0
1001.0
1000.0
996.0
994.0
991.0
994.0
993.0
995.0
993.0
989.0
990.0
989.0
992.0
992.0
988.0
985.0
983.0
983.0
984.0
984.0
984.0
983.0
983.0
984.0
988.0
988.0
987.0
983.0
980.0
983.0
986.0
982.0
978.0
976.0
980.0
983.0
985.0
982.0
976.0
971.0
973.0
980.0
984.0
984.0
981.0
979.0
977.0
976.0
980.0
983.0
985.0
983.0
983.0
983.0
980.0
976.0
972.0
970.0
972.0
975.0
979.0
976.0
975.0
973.0
976.0
981.0
987.0
987.0
984.0
982.0
982.0
985.0
990.0
991.0
991.0
996.0
1003.0
1006.0
1011.0
1009.0
1008.0
1010.0
1017.0
1022.0
1031.0
1034.0
1037.0
1039.0
1037.0
1042.0
1041.0
1043.0
1042.0
1042.0
1044.0
1046.0
1046.0
1046.0
1049.0
1044.0
1043.0
1040.0
1040.0
1036.0
1034.0
1033.0
1030.0
1030.0
1028.0
1028.0
1024.0
1027.0
1028.0
1032.0
1036.0
1032.0
1024.0
1021.0
1021.0
1025.0
1031.0
1030.0
1027.0
1023.0
1025.0
1026.0
1028.0
1024.0
1020.0
1017.0
1016.0
1019.0
1020.0
1018.0
1018.0
1015.0
1015.0
1019.0
1021.0
1022.0
1020.0
1014.0
1015.0
1017.0
1021.0
1021.0
1021.0
1014.0
1014.0
1014.0
1020.0
1023.0
1021.0
1018.0
1019.0
1019.0
1020.0
1019.0
1018.0
1020.0
1016.0
1018.0
1015.0
1018.0
1017.0
1017.0
1017.0
1021.0
1022.0
1021.0
1019.0
1016.0
1017.0
1018.0
1016.0
1016.0
1017.0
1015.0
1015.0
1018.0
1021.0
1022.0
1022.0
1018.0
1017.0
1016.0
1017.0
1016.0
1013.0
1012.0
1014.0
1019.0
1021.0
1024.0
1020.0
1013.0
1009.0
1011.0
1013.0
1013.0
1012.0
1013.0
1018.0
1020.0
1020.0
1021.0
1016.0
1009.0
1009.0
1013.0
1017.0
1018.0
1015.0
1014.0
1012.0
1013.0
1014.0
1015.0
1013.0
1014.0
1010.0
1012.0
1016.0
1015.0
1015.0
1011.0
1013.0
1013.0
1012.0
1012.0
1014.0
1019.0
1020.0
1021.0
1023.0
1020.0
1016.0
1015.0
1017.0
1018.0
1016.0
1013.0
1012.0
1016.0
1019.0
1021.0
1021.0
1018.0
1020.0
1020.0
1024.0
1027.0
1035.0
1039.0
1036.0
1032.0
1026.0
1025.0
1023.0
1023.0
1027.0
1025.0
1027.0
1030.0
1034.0
1030.0
1027.0
1020.0
1023.0
1031.0
1037.0
1038.0
1036.0
1028.0
1028.0
1027.0
1030.0
1025.0
1020.0
1019.0
1020.0
1026.0
1032.0
1031.0
1026.0
1020.0
1021.0
1019.0
1021.0
1022.0
1018.0
1014.0
1017.0
1023.0
1022.0
1022.0
1020.0
1019.0
1017.0
1021.0
1026.0
1028.0
1028.0
1026.0
1025.0
1024.0
1032.0
1038.0
1045.0
1048.0
1059.0
1079.0
1099.0
1118.0
1141.0
1176.0
1222.0
1271.0
1313.0
1352.0
1384.0
1413.0
1456.0
1499.0
1527.0
1520.0
1479.0
1392.0
1283.0
1187.0
1123.0
1085.0
1065.0
1052.0
1049.0
1036.0
1027.0
1023.0
1019.0
1012.0
1008.0
1006.0
1006.0
1005.0
998.0
996.0
996.0
999.0
1002.0
999.0
997.0
989.0
990.0
989.0
990.0
986.0
985.0
990.0
990.0
989.0
990.0
983.0
980.0
981.0
983.0
983.0
978.0
976.0
974.0
975.0
978.0
979.0
978.0
973.0
971.0
970.0
971.0
974.0
978.0
977.0
975.0
970.0
968.0
971.0
973.0
973.0
967.0
960.0
960.0
962.0
968.0
968.0
967.0
961.0
961.0
962.0
966.0
966.0
962.0
959.0
957.0
958.0
964.0
967.0
967.0
967.0
967.0
972.0
974.0
974.0
973.0
974.0
979.0
982.0
987.0
990.0
992.0
998.0
1006.0
1010.0
1017.0
1019.0
1024.0
1029.0
1033.0
1046.0
1050.0
1053.0
1050.0
1049.0
1044.0
1049.0
1055.0
1051.0
1047.0
1041.0
1042.0
1044.0
1048.0
1047.0
1042.0
1038.0
1034.0
1032.0
1033.0
1036.0
1034.0
1032.0
1032.0
1036.0
1039.0
1036.0
1030.0
1025.0
1023.0
1027.0
1033.0
1032.0
1030.0
1025.0
1024.0
1029.0
1034.0
1031.0
1027.0
1019.0
1018.0
1021.0
1026.0
1025.0
1021.0
1020.0
1020.0
1023.0
1026.0
1025.0
1025.0
1017.0
1016.0
1015.0
1021.0
1022.0
1022.0
1019.0
1016.0
1016.0
1014.0
1014.0
1013.0
1011.0
1013.0
1014.0
1019.0
1018.0
1013.0
1011.0
1014.0
1019.0
1024.0
1023.0
1021.0
1015.0
1014.0
1015.0
1016.0
1021.0
1022.0
1019.0
1020.0
1020.0
1023.0
1019.0
1016.0
1015.0
1013.0
1017.0
1018.0
1021.0
1018.0
1017.0
1015.0
1016.0
1019.0
1021.0
1018.0
1018.0
1017.0
1019.0
1019.0
1019.0
1018.0
1016.0
1015.0
1017.0
1018.0
1019.0
1017.0
1015.0
1013.0
1013.0
1017.0
1018.0
1018.0
1019.0
1019.0
1016.0
1012.0
1009.0
1011.0
1016.0
1019.0
1019.0
1020.0
1013.0
1011.0
1010.0
1014.0
1015.0
1019.0
1016.0
1014.0
1015.0
1018.0
1019.0
1022.0
1019.0
1017.0
1017.0
1017.0
1022.0
1023.0
1020.0
1019.0
1017.0
1016.0
1021.0
1021.0
1019.0
1018.0
1021.0
1022.0
1021.0
1020.0
1020.0
1023.0
1024.0
1024.0
1028.0
1033.0
1032.0
1032.0
1030.0
1026.0
1027.0
1026.0
1029.0
1027.0
1028.0
1028.0
1030.0
1030.0
1030.0
1028.0
1032.0
1031.0
1033.0
1033.0
1030.0
1025.0
1024.0
1027.0
1022.0
1021.0
1016.0
1015.0
1014.0
1020.0
1020.0
1024.0
1019.0
1016.0
1016.0
1016.0
1018.0
1021.0
1020.0
1019.0
1016.0
1013.0
1015.0
1023.0
1024.0
1023.0
1020.0
1019.0
1023.0
1025.0
1021.0
1021.0
1023.0
1031.0
1037.0
1044.0
1053.0
1067.0
1092.0
1122.0
1159.0
1209.0
1265.0
1318.0
1372.0
1420.0
1475.0
1519.0
1530.0
1480.0
1359.0
1231.0
1129.0
1084.0
1062.0
1049.0
1039.0
1034.0
1027.0
1023.0
1014.0
1007.0
1002.0
1003.0
1005.0
1007.0
1003.0
997.0
986.0
985.0
993.0
999.0
999.0
994.0
988.0
987.0
991.0
994.0
993.0
990.0
985.0
980.0
979.0
981.0
982.0
980.0
978.0
978.0
979.0
981.0
979.0
979.0
974.0
974.0
976.0
975.0
978.0
976.0
972.0
974.0
977.0
978.0
977.0
975.0
971.0
968.0
970.0
972.0
973.0
973.0
972.0
972.0
968.0
970.0
967.0
968.0
971.0
975.0
980.0
983.0
979.0
972.0
970.0
972.0
979.0
987.0
988.0
988.0
990.0
990.0
997.0
1005.0
1012.0
1014.0
1017.0
1020.0
1026.0
1032.0
1036.0
1041.0
1045.0
1050.0
1057.0
1059.0
1061.0
1059.0
1062.0
1061.0
1061.0
1061.0
1062.0
1058.0
1053.0
1054.0
1051.0
1052.0
1047.0
1043.0
1042.0
1045.0
1043.0
1046.0
1044.0
1038.0
1037.0
1035.0
1036.0
1038.0
1036.0
1034.0
1032.0
1033.0
1036.0
1041.0
1042.0
1041.0
1042.0
1038.0
1040.0
1041.0
1042.0
1038.0
1035.0
1033.0
1032.0
1035.0
1037.0
1030.0
1027.0
1026.0
1027.0
1030.0
1028.0
1021.0
1022.0
1022.0
1027.0
1028.0
1023.0
1021.0
1020.0
1022.0
1024.0
1028.0
1026.0
1023.0
1019.0
1020.0
1021.0
1023.0
1025.0
1022.0
1019.0
1022.0
1025.0
1026.0
1024.0
1023.0
1019.0
1022.0
1028.0
1031.0
1029.0
1026.0
1024.0
1024.0
1028.0
1031.0
1029.0
1025.0
1019.0
1015.0
1017.0
1024.0
1023.0
1022.0
1019.0
1020.0
1022.0
1028.0
1028.0
1027.0
1025.0
1023.0
1025.0
1029.0
1027.0
1026.0
1023.0
1025.0
1026.0
1028.0
1027.0
1026.0
1024.0
1026.0
1026.0
1026.0
1026.0
1026.0
1022.0
1021.0
1023.0
1026.0
1024.0
1020.0
1018.0
1018.0
1021.0
1022.0
1023.0
1017.0
1019.0
1019.0
1024.0
1024.0
1026.0
1023.0
1022.0
1019.0
1021.0
1024.0
1027.0
1023.0
1023.0
1022.0
1022.0
1024.0
1022.0
1019.0
1019.0
1016.0
1018.0
1019.0
1022.0
1021.0
1017.0
1018.0
1019.0
1021.0
1019.0
1018.0
1017.0
1021.0
1024.0
1028.0
1030.0
1030.0
1030.0
1030.0
1031.0
1032.0
1033.0
1027.0
1024.0
1028.0
1031.0
1034.0
1033.0
1029.0
1026.0
1026.0
1030.0
1034.0
1032.0
1031.0
1030.0
1033.0
1036.0
1038.0
1038.0
1035.0
1032.0
1032.0
1038.0
1039.0
1034.0
1028.0
1022.0
1022.0
1025.0
1029.0
1025.0
1022.0
1019.0
1022.0
1026.0
1026.0
1024.0
1022.0
1020.0
1021.0
1024.0
1027.0
1028.0
1027.0
1028.0
1026.0
1027.0
1027.0
1023.0
1019.0
1018.0
1021.0
1024.0
1024.0
1023.0
1024.0
1022.0
1024.0
1026.0
1027.0
1031.0
1033.0
1034.0
1040.0
1042.0
1048.0
1060.0
1075.0
1091.0
1113.0
1137.0
1165.0
1196.0
1233.0
1269.0
1308.0
1343.0
1376.0
1402.0
1429.0
1460.0
1494.0
1517.0
1525.0
1512.0
1479.0
1419.0
1335.0
1253.0
1184.0
1132.0
1095.0
1069.0
1057.0
1050.0
1046.0
1037.0
1030.0
1025.0
1023.0
1022.0
1021.0
1018.0
1007.0
1003.0
1004.0
1002.0
1004.0
1003.0
999.0
996.0
996.0
998.0
999.0
998.0
995.0
993.0
996.0
999.0
1000.0
996.0
990.0
987.0
985.0
988.0
993.0
992.0
990.0
987.0
990.0
989.0
987.0
987.0
983.0
981.0
983.0
984.0
986.0
986.0
985.0
978.0
978.0
978.0
979.0
979.0
977.0
977.0
975.0
977.0
977.0
975.0
973.0
972.0
975.0
975.0
977.0
974.0
973.0
971.0
976.0
975.0
977.0
975.0
972.0
971.0
971.0
974.0
977.0
974.0
970.0
969.0
970.0
974.0
974.0
977.0
972.0
972.0
970.0
975.0
976.0
978.0
976.0
975.0
979.0
984.0
990.0
991.0
988.0
992.0
997.0
999.0
1003.0
1006.0
1007.0
1012.0
1020.0
1028.0
1034.0
1036.0
1038.0
1042.0
1047.0
1053.0
1059.0
1060.0
1057.0
1055.0
1054.0
1055.0
1058.0
1055.0
1051.0
1047.0
1048.0
1051.0
1055.0
1050.0
1047.0
1042.0
1039.0
1040.0
1043.0
1044.0
1040.0
1036.0
1037.0
1037.0
1038.0
1034.0
1034.0
1029.0
1032.0
1034.0
1037.0
1035.0
1031.0
1029.0
1029.0
1033.0
1036.0
1034.0
1031.0
1029.0
1028.0
1030.0
1034.0
1031.0
1031.0
1027.0
1029.0
1033.0
1032.0
1025.0
1016.0
1011.0
1014.0
1023.0
1025.0
1025.0
1020.0
1020.0
1019.0
1022.0
1022.0
1021.0
1017.0
1016.0
1020.0
1020.0
1021.0
1023.0
1016.0
1013.0
1016.0
1022.0
1023.0
1022.0
1020.0
1018.0
1019.0
1020.0
1024.0
1022.0
1021.0
1019.0
1023.0
1025.0
1027.0
1023.0
1023.0
1022.0
1023.0
1026.0
1026.0
1025.0
1021.0
1020.0
1025.0
1031.0
1033.0
1029.0
1024.0
1025.0
1026.0
1030.0
1029.0
1024.0
1017.0
1019.0
1022.0
1025.0
1027.0
1025.0
1022.0
1020.0
1018.0
1023.0
1026.0
1024.0
1023.0
1021.0
1021.0
1023.0
1026.0
1024.0
1024.0
1020.0
1024.0
1025.0
1027.0
1024.0
1021.0
1018.0
1023.0
1024.0
1026.0
1023.0
1018.0
1015.0
1017.0
1020.0
1022.0
1024.0
1023.0
1021.0
1023.0
1025.0
1028.0
1024.0
1020.0
1016.0
1019.0
1023.0
1024.0
1022.0
1019.0
1018.0
1023.0
1026.0
1026.0
1024.0
1021.0
1020.0
1023.0
1024.0
1030.0
1030.0
1031.0
1030.0
1031.0
1035.0
1037.0
1034.0
1033.0
1030.0
1034.0
1035.0
1036.0
1037.0
1035.0
1032.0
1031.0
1033.0
1036.0
1035.0
1035.0
1032.0
1033.0
1031.0
1037.0
1036.0
1038.0
1038.0
1041.0
1041.0
1040.0
1036.0
1031.0
1024.0
1021.0
1022.0
1027.0
1024.0
1025.0
1024.0
1027.0
1029.0
1031.0
1030.0
1024.0
1025.0
1024.0
1028.0
1031.0
1033.0
1032.0
1029.0
1027.0
1027.0
1029.0
1027.0
1028.0
1024.0
1031.0
1031.0
1032.0
1027.0
1021.0
1020.0
1025.0
1031.0
1034.0
1035.0
1032.0
1036.0
1042.0
1050.0
1064.0
1073.0
1086.0
1101.0
1119.0
1143.0
1175.0
1213.0
1247.0
1279.0
1317.0
1353.0
1383.0
1405.0
1435.0
1465.0
1494.0
1511.0
1509.0
1481.0
1421.0
1335.0
1242.0
1173.0
1129.0
1092.0
1062.0
1047.0
1039.0
1040.0
1035.0
1030.0
1025.0
1022.0
1020.0
1021.0
1018.0
1012.0
1004.0
1002.0
1001.0
1004.0
1006.0
1002.0
997.0
995.0
994.0
994.0
998.0
996.0
994.0
995.0
998.0
996.0
998.0
995.0
991.0
988.0
988.0
989.0
992.0
989.0
987.0
986.0
985.0
986.0
989.0
988.0
986.0
983.0
984.0
985.0
983.0
983.0
979.0
975.0
978.0
982.0
981.0
979.0
978.0
977.0
979.0
988.0
985.0
984.0
981.0
975.0
970.0
972.0
975.0
975.0
975.0
975.0
973.0
978.0
976.0
973.0
971.0
969.0
972.0
979.0
980.0
978.0
976.0
977.0
978.0
981.0
986.0
985.0
987.0
987.0
992.0
996.0
1006.0
1010.0
1011.0
1010.0
1007.0
1015.0
1024.0
1031.0
1034.0
1039.0
1045.0
1052.0
1054.0
1053.0
1051.0
1050.0
1052.0
1053.0
1059.0
1052.0
1049.0
1044.0
1044.0
1047.0
1047.0
1042.0
1037.0
1036.0
1037.0
1040.0
1041.0
1041.0
1034.0
1032.0
1028.0
1030.0
1031.0
1030.0
1029.0
1030.0
1028.0
1031.0
1033.0
1034.0
1033.0
1028.0
1027.0
1024.0
1028.0
1025.0
1024.0
1023.0
1025.0
1027.0
1028.0
1025.0
1019.0
1017.0
1018.0
1021.0
1023.0
1021.0
1018.0
1018.0
1018.0
1023.0
1025.0
1021.0
1020.0
1017.0
1018.0
1020.0
1020.0
1022.0
1019.0
1018.0
1019.0
1019.0
1019.0
1015.0
1016.0
1014.0
1018.0
1020.0
1023.0
1017.0
1016.0
1015.0
1017.0
1021.0
1021.0
1023.0
1021.0
1021.0
1019.0
1020.0
1023.0
1022.0
1019.0
1019.0
1023.0
1023.0
1024.0
1022.0
1020.0
1017.0
1019.0
1025.0
1026.0
1024.0
1019.0
1016.0
1018.0
1019.0
1024.0
1026.0
1023.0
1020.0
1020.0
1020.0
1020.0
1022.0
1021.0
1018.0
1014.0
1018.0
1017.0
1020.0
1019.0
1017.0
1017.0
1019.0
1022.0
1020.0
1017.0
1013.0
1017.0
1018.0
1022.0
1016.0
1017.0
1016.0
1017.0
1019.0
1022.0
1020.0
1018.0
1016.0
1020.0
1022.0
1025.0
1024.0
1020.0
1014.0
1015.0
1015.0
1020.0
1018.0
1016.0
1014.0
1018.0
1022.0
1019.0
1020.0
1017.0
1016.0
1018.0
1021.0
1022.0
1018.0
1016.0
1017.0
1023.0
1024.0
1026.0
1026.0
1026.0
1025.0
1027.0
1030.0
1033.0
1033.0
1031.0
1028.0
1028.0
1035.0
1030.0
1027.0
1024.0
1019.0
1020.0
1023.0
1028.0
1029.0
1026.0
1026.0
1027.0
1028.0
1030.0
1030.0
1030.0
1030.0
1029.0
1027.0
1027.0
1022.0
1016.0
1016.0
1017.0
1023.0
1027.0
1027.0
1021.0
1015.0
1018.0
1019.0
1024.0
1020.0
1017.0
1018.0
1018.0
1022.0
1024.0
1019.0
1017.0
1016.0
1018.0
1018.0
1020.0
1017.0
1019.0
1017.0
1019.0
1022.0
1022.0
1022.0
1018.0
1021.0
1025.0
1035.0
1050.0
1060.0
1072.0
1085.0
1105.0
1132.0
1162.0
1203.0
1241.0
1280.0
1321.0
1359.0
1386.0
1417.0
1452.0
1482.0
1492.0
1470.0
1409.0
1313.0
1211.0
1133.0
1086.0
1056.0
1040.0
1030.0
1026.0
1025.0
1022.0
1018.0
1015.0
1011.0
1007.0
1003.0
1003.0
1000.0
997.0
996.0
994.0
988.0
988.0
994.0
996.0
990.0
987.0
988.0
989.0
995.0
997.0
992.0
985.0
981.0
980.0
983.0
983.0
982.0
981.0
977.0
979.0
981.0
982.0
978.0
972.0
971.0
976.0
978.0
980.0
979.0
976.0
973.0
976.0
978.0
975.0
976.0
972.0
974.0
973.0
976.0
972.0
967.0
966.0
969.0
973.0
975.0
975.0
972.0
970.0
968.0
969.0
974.0
976.0
973.0
972.0
972.0
977.0
984.0
983.0
978.0
974.0
970.0
974.0
980.0
983.0
991.0
988.0
988.0
996.0
1003.0
1008.0
1011.0
1009.0
1016.0
1027.0
1036.0
1041.0
1042.0
1045.0
1048.0
1058.0
1063.0
1056.0
1047.0
1038.0
1039.0
1041.0
1042.0
1044.0
1041.0
1038.0
1036.0
1038.0
1039.0
1040.0
1033.0
1032.0
1031.0
1034.0
1035.0
1034.0
1032.0
1030.0
1031.0
1029.0
1030.0
1030.0
1027.0
1024.0
1023.0
1025.0
1027.0
1028.0
1029.0
1027.0
1026.0
1028.0
1026.0
1024.0
1026.0
1019.0
1021.0
1023.0
1026.0
1023.0
1023.0
1021.0
1021.0
1022.0
1025.0
1024.0
1021.0
1018.0
1013.0
1015.0
1023.0
1021.0
1023.0
1019.0
1020.0
1018.0
1019.0
1024.0
1025.0
1020.0
1018.0
1022.0
1024.0
1026.0
1024.0
1020.0
1019.0
1019.0
1021.0
1023.0
1024.0
1019.0
1018.0
1023.0
1024.0
1026.0
1024.0
1019.0
1017.0
1022.0
1023.0
1026.0
1026.0
1021.0
1021.0
1022.0
1025.0
1026.0
1024.0
1020.0
1020.0
1023.0
1022.0
1022.0
1020.0
1019.0
1018.0
1020.0
1025.0
1026.0
1021.0
1014.0
1016.0
1020.0
1023.0
1025.0
1018.0
1015.0
1016.0
1022.0
1023.0
1023.0
1020.0
1017.0
1016.0
1018.0
1019.0
1021.0
1021.0
1014.0
1010.0
1011.0
1018.0
1020.0
1020.0
1017.0
1014.0
1013.0
1016.0
1019.0
1020.0
1018.0
1017.0
1021.0
1024.0
1025.0
1021.0
1012.0
1012.0
1016.0
1019.0
1019.0
1019.0
1017.0
1016.0
1020.0
1020.0
1021.0
1020.0
1018.0
1018.0
1023.0
1021.0
1021.0
1022.0
1020.0
1022.0
1027.0
1035.0
1036.0
1029.0
1020.0
1021.0
1025.0
1032.0
1033.0
1034.0
1029.0
1028.0
1027.0
1027.0
1025.0
1027.0
1029.0
1027.0
1028.0
1031.0
1034.0
1035.0
1032.0
1034.0
1035.0
1031.0
1029.0
1027.0
1020.0
1020.0
1020.0
1022.0
1022.0
1021.0
1020.0
1018.0
1023.0
1022.0
1026.0
1024.0
1020.0
1019.0
1017.0
1021.0
1023.0
1019.0
1017.0
1016.0
1018.0
1023.0
1026.0
1023.0
1020.0
1021.0
1023.0
1030.0
1028.0
1031.0
1027.0
1028.0
1032.0
1037.0
1047.0
1056.0
1065.0
1082.0
1097.0
1118.0
1143.0
1172.0
1203.0
1240.0
1279.0
1322.0
1358.0
1388.0
1423.0
1456.0
1480.0
1477.0
1440.0
1367.0
1271.0
1182.0
1118.0
1083.0
1061.0
1044.0
1033.0
1028.0
1027.0
1028.0
1029.0
1021.0
1015.0
1009.0
1003.0
1004.0
1003.0
1002.0
1002.0
1001.0
1003.0
1006.0
1008.0
998.0
994.0
993.0
995.0
998.0
999.0
998.0
996.0
993.0
993.0
994.0
992.0
993.0
993.0
991.0
991.0
988.0
989.0
986.0
988.0
990.0
992.0
990.0
988.0
984.0
984.0
981.0
986.0
989.0
986.0
984.0
982.0
981.0
985.0
987.0
988.0
983.0
979.0
978.0
982.0
987.0
989.0
987.0
986.0
983.0
979.0
980.0
981.0
984.0
982.0
981.0
985.0
985.0
986.0
983.0
981.0
979.0
981.0
983.0
984.0
985.0
985.0
985.0
989.0
993.0
994.0
994.0
991.0
994.0
1003.0
1006.0
1010.0
1013.0
1011.0
1014.0
1018.0
1028.0
1033.0
1040.0
1042.0
1044.0
1051.0
1056.0
1058.0
1054.0
1053.0
1051.0
1056.0
1061.0
1063.0
1060.0
1054.0
1053.0
1055.0
1055.0
1056.0
1051.0
1048.0
1045.0
1048.0
1050.0
1048.0
1043.0
1041.0
1040.0
1042.0
1046.0
1047.0
1043.0
1042.0
1042.0
1042.0
1038.0
1036.0
1040.0
1037.0
1039.0
1044.0
1046.0
1040.0
1033.0
1029.0
1028.0
1032.0
1034.0
1033.0
1030.0
1030.0
1031.0
1035.0
1033.0
1028.0
1027.0
1026.0
1028.0
1027.0
1033.0
1031.0
1028.0
1027.0
1027.0
1031.0
1029.0
1027.0
1024.0
1025.0
1028.0
1032.0
1033.0
1031.0
1026.0
1025.0
1028.0
1031.0
1036.0
1037.0
1034.0
1029.0
1028.0
1029.0
1032.0
1032.0
1032.0
1032.0
1030.0
1030.0
1028.0
1029.0
1027.0
1023.0
1026.0
1029.0
1030.0
1027.0
1028.0
1024.0
1025.0
1028.0
1030.0
1030.0
1028.0
1025.0
1025.0
1027.0
1034.0
1032.0
1033.0
1033.0
1029.0
1030.0
1029.0
1024.0
1022.0
1020.0
1019.0
1023.0
1027.0
1029.0
1026.0
1024.0
1023.0
1023.0
1024.0
1027.0
1028.0
1025.0
1022.0
1022.0
1024.0
1026.0
1028.0
1023.0
1021.0
1023.0
1026.0
1025.0
1027.0
1024.0
1026.0
1026.0
1028.0
1022.0
1014.0
1011.0
1013.0
1020.0
1024.0
1025.0
1024.0
1021.0
1020.0
1019.0
1020.0
1020.0
1023.0
1018.0
1022.0
1027.0
1027.0
1026.0
1029.0
1025.0
1025.0
1031.0
1035.0
1037.0
1036.0
1037.0
1035.0
1033.0
1031.0
1028.0
1025.0
1023.0
1023.0
1024.0
1029.0
1028.0
1029.0
1030.0
1035.0
1039.0
1041.0
1034.0
1028.0
1026.0
1028.0
1027.0
1027.0
1024.0
1023.0
1019.0
1016.0
1018.0
1022.0
1021.0
1021.0
1018.0
1016.0
1018.0
1021.0
1023.0
1024.0
1023.0
1021.0
1023.0
1021.0
1021.0
1017.0
1012.0
1013.0
1014.0
1021.0
1024.0
1020.0
1016.0
1016.0
1020.0
1024.0
1027.0
1022.0
1021.0
1026.0
1036.0
1045.0
1051.0
1063.0
1074.0
1089.0
1109.0
1138.0
1167.0
1205.0
1239.0
1275.0
1314.0
1346.0
1372.0
1400.0
1438.0
1469.0
1485.0
1467.0
1413.0
1326.0
1226.0
1149.0
1098.0
1070.0
1048.0
1034.0
1025.0
1023.0
1024.0
1023.0
1020.0
1013.0
1006.0
999.0
996.0
996.0
998.0
996.0
995.0
991.0
995.0
995.0
994.0
991.0
989.0
985.0
992.0
995.0
994.0
990.0
985.0
983.0
985.0
988.0
986.0
982.0
978.0
977.0
982.0
987.0
986.0
986.0
983.0
981.0
983.0
985.0
986.0
982.0
977.0
978.0
981.0
986.0
984.0
983.0
980.0
976.0
980.0
983.0
984.0
980.0
975.0
978.0
979.0
981.0
983.0
977.0
977.0
976.0
975.0
975.0
978.0
979.0
977.0
978.0
982.0
983.0
985.0
980.0
975.0
973.0
981.0
985.0
988.0
991.0
989.0
990.0
992.0
993.0
989.0
991.0
992.0
996.0
1000.0
1008.0
1012.0
1018.0
1023.0
1023.0
1027.0
1032.0
1036.0
1039.0
1039.0
1043.0
1044.0
1047.0
1049.0
1048.0
1044.0
1045.0
1047.0
1046.0
1044.0
1041.0
1039.0
1036.0
1036.0
1037.0
1037.0
1035.0
1032.0
1028.0
1029.0
1032.0
1034.0
1030.0
1026.0
1025.0
1027.0
1029.0
1028.0
1026.0
1023.0
1024.0
1025.0
1024.0
1023.0
1024.0
1023.0
1022.0
1023.0
1024.0
1023.0
1021.0
1019.0
1016.0
1022.0
1027.0
1024.0
1021.0
1016.0
1017.0
1020.0
1019.0
1018.0
1017.0
1016.0
1015.0
1017.0
1022.0
1022.0
1020.0
1016.0
1012.0
1012.0
1017.0
1017.0
1017.0
1018.0
1019.0
1017.0
1015.0
