# Simple Text Format
# Sampling Rate (Hz):= 360.00
# Resolution:= 12
# Labels:= ECG
1029.0
1032.0
1035.0
1034.0
1032.0
1033.0
1028.0
1030.0
1030.0
1027.0
1026.0
1023.0
1022.0
1025.0
1029.0
1031.0
1027.0
1023.0
1021.0
1028.0
1030.0
1028.0
1025.0
1022.0
1023.0
1026.0
1028.0
1026.0
1024.0
1023.0
1024.0
1026.0
1029.0
1029.0
1027.0
1024.0
1026.0
1028.0
1032.0
1031.0
1031.0
1029.0
1034.0
1041.0
1051.0
1063.0
1073.0
1087.0
1100.0
1126.0
1162.0
1200.0
1237.0
1270.0
1305.0
1342.0
1390.0
1435.0
1464.0
1457.0
1408.0
1328.0
1230.0
1146.0
1083.0
1042.0
1024.0
1022.0
1027.0
1028.0
1028.0
1023.0
1022.0
1023.0
1023.0
1019.0
1016.0
1009.0
1007.0
1009.0
1010.0
1009.0
1008.0
1006.0
1007.0
1008.0
1011.0
1011.0
1006.0
1007.0
1007.0
1008.0
1011.0
1011.0
1008.0
1003.0
1005.0
1006.0
1009.0
1007.0
1005.0
1004.0
1004.0
1006.0
1007.0
1008.0
1004.0
1000.0
1002.0
1003.0
1004.0
1007.0
1002.0
1001.0
1001.0
1001.0
1006.0
1004.0
1005.0
1004.0
1003.0
1007.0
1008.0
1008.0
1006.0
1003.0
1006.0
1005.0
1009.0
1009.0
1009.0
1007.0
1005.0
1010.0
1012.0
1010.0
1010.0
1008.0
1011.0
1011.0
1014.0
1014.0
1012.0
1014.0
1014.0
1017.0
1020.0
1020.0
1018.0
1018.0
1020.0
1025.0
1029.0
1029.0
1028.0
1028.0
1031.0
1037.0
1044.0
1044.0
1048.0
1045.0
1051.0
1054.0
1060.0
1062.0
1067.0
1069.0
1070.0
1074.0
1080.0
1084.0
1083.0
1079.0
1084.0
1083.0
1084.0
1083.0
1081.0
1079.0
1079.0
1076.0
1078.0
1074.0
1068.0
1066.0
1063.0
1065.0
1067.0
1060.0
1058.0
1053.0
1056.0
1056.0
1058.0
1054.0
1052.0
1053.0
1051.0
1054.0
1056.0
1055.0
1050.0
1047.0
1049.0
1051.0
1055.0
1053.0
1052.0
1048.0
1047.0
1050.0
1052.0
1051.0
1050.0
1047.0
1047.0
1049.0
1050.0
1049.0
1046.0
1044.0
1043.0
1045.0
1048.0
1049.0
1044.0
1044.0
1045.0
1044.0
1043.0
1047.0
1044.0
1042.0
1041.0
1039.0
1044.0
1044.0
1042.0
1041.0
1042.0
1044.0
1046.0
1045.0
1045.0
1044.0
1042.0
1046.0
1048.0
1049.0
1047.0
1042.0
1045.0
1046.0
1049.0
1049.0
1049.0
1045.0
1047.0
1050.0
1050.0
1048.0
1045.0
1045.0
1045.0
1048.0
1050.0
1049.0
1049.0
1045.0
1046.0
1047.0
1048.0
1045.0
1047.0
1044.0
1047.0
1048.0
1049.0
1049.0
1047.0
1046.0
1043.0
1047.0
1049.0
1049.0
1045.0
1043.0
1045.0
1043.0
1047.0
1047.0
1046.0
1043.0
1044.0
1047.0
1048.0
1045.0
1042.0
1043.0
1044.0
1047.0
1051.0
1048.0
1046.0
1043.0
1045.0
1045.0
1047.0
1046.0
1044.0
1040.0
1043.0
1042.0
1046.0
1044.0
1045.0
1042.0
1042.0
1044.0
1046.0
1045.0
1042.0
1040.0
1042.0
1045.0
1045.0
1043.0
1042.0
1040.0
1039.0
1042.0
1045.0
1044.0
1042.0
1039.0
1040.0
1042.0
1045.0
1043.0
1042.0
1040.0
1042.0
1043.0
1044.0
1042.0
1041.0
1039.0
1040.0
1044.0
1048.0
1045.0
1042.0
1037.0
1041.0
1047.0
1046.0
1045.0
1042.0
1042.0
1044.0
1049.0
1050.0
1051.0
1049.0
1051.0
1050.0
1055.0
1054.0
1053.0
1054.0
1049.0
1054.0
1056.0
1057.0
1055.0
1054.0
1051.0
1050.0
1050.0
1053.0
1049.0
1046.0
1046.0
1047.0
1054.0
1057.0
1056.0
1053.0
1050.0
1049.0
1052.0
1053.0
1053.0
1047.0
1043.0
1042.0
1044.0
1048.0
1047.0
1043.0
1040.0
1041.0
1043.0
1045.0
1044.0
1045.0
1041.0
1043.0
1044.0
1044.0
1046.0
1045.0
1042.0
1043.0
1044.0
1046.0
1048.0
1043.0
1042.0
1041.0
1046.0
1047.0
1044.0
1047.0
1045.0
1048.0
1048.0
1053.0
1052.0
1054.0
1058.0
1067.0
1077.0
1090.0
1100.0
1107.0
1119.0
1138.0
1166.0
1197.0
1225.0
1252.0
1279.0
1304.0
1334.0
1373.0
1413.0
1447.0
1463.0
1449.0
1404.0
1317.0
1215.0
1128.0
1076.0
1051.0
1042.0
1047.0
1047.0
1047.0
1042.0
1041.0
1041.0
1044.0
1038.0
1032.0
1027.0
1025.0
1026.0
1029.0
1026.0
1022.0
1022.0
1023.0
1026.0
1027.0
1027.0
1023.0
1017.0
1019.0
1022.0
1024.0
1023.0
1020.0
1019.0
1019.0
1021.0
1021.0
1022.0
1019.0
1016.0
1021.0
1022.0
1021.0
1020.0
1016.0
1016.0
1016.0
1016.0
1018.0
1017.0
1014.0
1014.0
1014.0
1017.0
1016.0
1018.0
1016.0
1013.0
1014.0
1016.0
1019.0
1018.0
1017.0
1014.0
1014.0
1015.0
1020.0
1017.0
1017.0
1015.0
1017.0
1016.0
1021.0
1020.0
1020.0
1016.0
1015.0
1022.0
1023.0
1024.0
1022.0
1020.0
1019.0
1024.0
1027.0
1028.0
1026.0
1024.0
1029.0
1033.0
1037.0
1037.0
1038.0
1039.0
1042.0
1046.0
1052.0
1053.0
1057.0
1057.0
1060.0
1064.0
1067.0
1073.0
1075.0
1075.0
1077.0
1082.0
1085.0
1082.0
1080.0
1079.0
1079.0
1081.0
1082.0
1077.0
1075.0
1070.0
1072.0
1069.0
1071.0
1069.0
1063.0
1060.0
1059.0
1058.0
1061.0
1057.0
1054.0
1052.0
1052.0
1055.0
1053.0
1054.0
1052.0
1050.0
1052.0
1050.0
1053.0
1052.0
1049.0
1046.0
1045.0
1048.0
1049.0
1048.0
1043.0
1043.0
1043.0
1045.0
1048.0
1046.0
1044.0
1043.0
1045.0
1045.0
1047.0
1045.0
1041.0
1038.0
1042.0
1044.0
1045.0
1043.0
1044.0
1041.0
1041.0
1041.0
1045.0
1047.0
1046.0
1041.0
1043.0
1044.0
1047.0
1048.0
1046.0
1043.0
1044.0
1047.0
1049.0
1046.0
1045.0
1043.0
1044.0
1048.0
1050.0
1046.0
1044.0
1039.0
1041.0
1044.0
1048.0
1046.0
1045.0
1039.0
1040.0
1045.0
1047.0
1045.0
1040.0
1040.0
1041.0
1041.0
1044.0
1041.0
1041.0
1041.0
1041.0
1044.0
1045.0
1042.0
1040.0
1036.0
1038.0
1038.0
1043.0
1042.0
1038.0
1036.0
1036.0
1039.0
1041.0
1040.0
1039.0
1036.0
1037.0
1037.0
1039.0
1041.0
1038.0
1037.0
1036.0
1037.0
1039.0
1038.0
1036.0
1033.0
1035.0
1039.0
1039.0
1039.0
1036.0
1036.0
1035.0
1036.0
1041.0
1042.0
1036.0
1036.0
1033.0
1037.0
1039.0
1039.0
1036.0
1035.0
1034.0
1037.0
1040.0
1038.0
1035.0
1034.0
1036.0
1040.0
1040.0
1039.0
1033.0
1032.0
1035.0
1037.0
1038.0
1039.0
1036.0
1037.0
1035.0
1037.0
1039.0
1037.0
1037.0
1035.0
1036.0
1041.0
1043.0
1040.0
1043.0
1042.0
1043.0
1045.0
1050.0
1050.0
1046.0
1048.0
1047.0
1050.0
1053.0
1053.0
1049.0
1049.0
1047.0
1046.0
1048.0
1046.0
1044.0
1043.0
1043.0
1046.0
1050.0
1048.0
1045.0
1045.0
1046.0
1047.0
1049.0
1047.0
1043.0
1038.0
1035.0
1036.0
1040.0
1040.0
1037.0
1036.0
1037.0
1041.0
1043.0
1039.0
1037.0
1035.0
1037.0
1038.0
1042.0
1042.0
1038.0
1036.0
1038.0
1038.0
1041.0
1040.0
1039.0
1036.0
1037.0
1039.0
1041.0
1039.0
1038.0
1038.0
1038.0
1041.0
1045.0
1046.0
1047.0
1048.0
1055.0
1064.0
1078.0
1088.0
1099.0
1105.0
1124.0
1148.0
1184.0
1215.0
1246.0
1277.0
1310.0
1349.0
1392.0
1436.0
1470.0
1470.0
1434.0
1359.0
1258.0
1166.0
1100.0
1059.0
1037.0
1035.0
1039.0
1040.0
1035.0
1034.0
1030.0
1032.0
1032.0
1027.0
1022.0
1020.0
1018.0
1021.0
1022.0
1020.0
1018.0
1015.0
1015.0
1019.0
1021.0
1016.0
1015.0
1013.0
1014.0
1014.0
1018.0
1013.0
1012.0
1010.0
1011.0
1014.0
1014.0
1014.0
1011.0
1010.0
1011.0
1013.0
1014.0
1011.0
1010.0
1007.0
1009.0
1010.0
1013.0
1013.0
1009.0
1007.0
1007.0
1009.0
1011.0
1013.0
1011.0
1006.0
1008.0
1011.0
1013.0
1013.0
1011.0
1008.0
1009.0
1011.0
1013.0
1015.0
1013.0
1011.0
1013.0
1017.0
1016.0
1017.0
1018.0
1015.0
1016.0
1019.0
1023.0
1023.0
1022.0
1021.0
1021.0
1025.0
1031.0
1033.0
1035.0
1035.0
1039.0
1044.0
1046.0
1049.0
1053.0
1051.0
1057.0
1064.0
1069.0
1071.0
1072.0
1073.0
1074.0
1080.0
1083.0
1084.0
1082.0
1080.0
1080.0
1078.0
1082.0
1080.0
1075.0
1072.0
1072.0
1069.0
1070.0
1066.0
1062.0
1059.0
1058.0
1057.0
1056.0
1057.0
1052.0
1050.0
1047.0
1049.0
1051.0
1049.0
1048.0
1045.0
1046.0
1048.0
1045.0
1046.0
1043.0
1043.0
1045.0
1045.0
1048.0
1044.0
1041.0
1041.0
1041.0
1043.0
1047.0
1043.0
1039.0
1037.0
1039.0
1039.0
1040.0
1039.0
1041.0
1038.0
1041.0
1040.0
1040.0
1039.0
1037.0
1035.0
1038.0
1039.0
1044.0
1043.0
1038.0
1037.0
1038.0
1043.0
1046.0
1046.0
1042.0
1041.0
1042.0
1046.0
1047.0
1047.0
1044.0
1043.0
1043.0
1048.0
1047.0
1045.0
1043.0
1042.0
1042.0
1047.0
1047.0
1047.0
1044.0
1042.0
1043.0
1045.0
1048.0
1047.0
1047.0
1044.0
1045.0
1044.0
1047.0
1045.0
1040.0
1040.0
1045.0
1044.0
1045.0
1041.0
1041.0
1042.0
1044.0
1046.0
1046.0
1045.0
1041.0
1040.0
1041.0
1042.0
1047.0
1045.0
1041.0
1039.0
1038.0
1041.0
1043.0
1044.0
1044.0
1038.0
1041.0
1041.0
1046.0
1042.0
1041.0
1036.0
1038.0
1043.0
1046.0
1046.0
1042.0
1037.0
1039.0
1043.0
1047.0
1043.0
1040.0
1038.0
1038.0
1041.0
1046.0
1045.0
1043.0
1042.0
1039.0
1040.0
1044.0
1042.0
1041.0
1039.0
1041.0
1043.0
1045.0
1044.0
1041.0
1039.0
1043.0
1044.0
1047.0
1046.0
1041.0
1040.0
1043.0
1046.0
1052.0
1052.0
1050.0
1046.0
1047.0
1049.0
1055.0
1054.0
1055.0
1052.0
1052.0
1054.0
1055.0
1053.0
1051.0
1045.0
1048.0
1050.0
1053.0
1050.0
1047.0
1045.0
1046.0
1048.0
1051.0
1053.0
1050.0
1047.0
1048.0
1050.0
1050.0
1045.0
1040.0
1039.0
1042.0
1044.0
1045.0
1043.0
1042.0
1038.0
1042.0
1041.0
1044.0
1043.0
1039.0
1039.0
1039.0
1043.0
1043.0
1041.0
1039.0
1038.0
1039.0
1040.0
1043.0
1043.0
1041.0
1039.0
1039.0
1044.0
1044.0
1045.0
1042.0
1040.0
1044.0
1049.0
1053.0
1057.0
1059.0
1065.0
1080.0
1093.0
1106.0
1119.0
1139.0
1165.0
1198.0
1226.0
1261.0
1288.0
1315.0
1344.0
1382.0
1425.0
1456.0
1453.0
1420.0
1351.0
1251.0
1160.0
1103.0
1065.0
1044.0
1034.0
1041.0
1043.0
1043.0
1042.0
1036.0
1033.0
1031.0
1032.0
1030.0
1027.0
1023.0
1020.0
1020.0
1022.0
1023.0
1021.0
1018.0
1016.0
1016.0
1015.0
1020.0
1017.0
1017.0
1013.0
1016.0
1016.0
1016.0
1016.0
1014.0
1013.0
1014.0
1015.0
1016.0
1014.0
1011.0
1008.0
1009.0
1010.0
1011.0
1010.0
1010.0
1009.0
1009.0
1011.0
1010.0
1010.0
1006.0
1005.0
1005.0
1009.0
1011.0
1010.0
1006.0
1005.0
1007.0
1009.0
1010.0
1009.0
1008.0
1009.0
1008.0
1011.0
1012.0
1011.0
1005.0
1004.0
1005.0
1008.0
1012.0
1011.0
1008.0
1007.0
1008.0
1011.0
1011.0
1010.0
1008.0
1006.0
1011.0
1011.0
1016.0
1017.0
1012.0
1013.0
1014.0
1019.0
1021.0
1025.0
1024.0
1021.0
1021.0
1028.0
1033.0
1035.0
1036.0
1036.0
1042.0
1044.0
1048.0
1052.0
1049.0
1050.0
1055.0
1060.0
1067.0
1067.0
1069.0
1068.0
1074.0
1073.0
1077.0
1076.0
1075.0
1074.0
1076.0
1078.0
1078.0
1074.0
1069.0
1067.0
1067.0
1068.0
1071.0
1067.0
1062.0
1058.0
1058.0
1057.0
1058.0
1055.0
1054.0
1050.0
1052.0
1052.0
1053.0
1050.0
1048.0
1043.0
1045.0
1047.0
1048.0
1047.0
1046.0
1041.0
1044.0
1045.0
1047.0
1046.0
1043.0
1039.0
1042.0
1045.0
1044.0
1042.0
1039.0
1038.0
1037.0
1039.0
1043.0
1039.0
1039.0
1034.0
1037.0
1038.0
1040.0
1041.0
1039.0
1035.0
1036.0
1038.0
1040.0
1038.0
1035.0
1034.0
1037.0
1039.0
1040.0
1040.0
1037.0
1037.0
1037.0
1040.0
1041.0
1040.0
1037.0
1036.0
1035.0
1040.0
1042.0
1039.0
1039.0
1038.0
1039.0
1043.0
1043.0
1042.0
1036.0
1034.0
1035.0
1037.0
1041.0
1040.0
1038.0
1037.0
1037.0
1037.0
1038.0
1036.0
1033.0
1032.0
1031.0
1035.0
1035.0
1033.0
1032.0
1031.0
1032.0
1040.0
1044.0
1044.0
1039.0
1032.0
1034.0
1037.0
1039.0
1039.0
1036.0
1035.0
1033.0
1036.0
1035.0
1033.0
1028.0
1027.0
1031.0
1035.0
1041.0
1038.0
1036.0
1031.0
1032.0
1034.0
1039.0
1035.0
1032.0
1033.0
1033.0
1038.0
1039.0
1034.0
1029.0
1028.0
1030.0
1036.0
1042.0
1038.0
1033.0
1030.0
1034.0
1036.0
1038.0
1037.0
1034.0
1034.0
1033.0
1036.0
1036.0
1039.0
1036.0
1035.0
1038.0
1042.0
1043.0
1039.0
1037.0
1034.0
1035.0
1038.0
1041.0
1039.0
1036.0
1034.0
1039.0
1039.0
1041.0
1040.0
1037.0
1034.0
1037.0
1038.0
1041.0
1039.0
1037.0
1036.0
1036.0
1038.0
1041.0
1040.0
1037.0
1039.0
1040.0
1044.0
1047.0
1047.0
1044.0
1043.0
1044.0
1048.0
1053.0
1051.0
1048.0
1049.0
1050.0
1056.0
1058.0
1054.0
1052.0
1050.0
1051.0
1053.0
1052.0
1051.0
1046.0
1045.0
1046.0
1051.0
1053.0
1052.0
1051.0
1050.0
1052.0
1054.0
1055.0
1055.0
1052.0
1049.0
1049.0
1052.0
1054.0
1050.0
1046.0
1043.0
1045.0
1048.0
1052.0
1052.0
1047.0
1045.0
1047.0
1048.0
1048.0
1046.0
1046.0
1044.0
1047.0
1049.0
1052.0
1050.0
1046.0
1046.0
1044.0
1048.0
1052.0
1051.0
1049.0
1048.0
1047.0
1051.0
1053.0
1051.0
1050.0
1051.0
1051.0
1053.0
1058.0
1061.0
1064.0
1067.0
1077.0
1090.0
1102.0
1108.0
1117.0
1131.0
1151.0
1182.0
1209.0
1233.0
1257.0
1282.0
1311.0
1345.0
1382.0
1422.0
1447.0
1451.0
1430.0
1378.0
1300.0
1210.0
1137.0
1089.0
1059.0
1045.0
1043.0
1045.0
1045.0
1045.0
1042.0
1045.0
1046.0
1041.0
1033.0
1027.0
1027.0
1028.0
1031.0
1030.0
1024.0
1022.0
1022.0
1026.0
1027.0
1025.0
1020.0
1018.0
1022.0
1023.0
1026.0
1024.0
1020.0
1018.0
1021.0
1020.0
1020.0
1021.0
1016.0
1015.0
1015.0
1015.0
1016.0
1012.0
1011.0
1011.0
1013.0
1016.0
1016.0
1013.0
1011.0
1005.0
1011.0
1012.0
1013.0
1014.0
1010.0
1008.0
1009.0
1012.0
1014.0
1011.0
1009.0
1009.0
1009.0
1010.0
1014.0
1015.0
1013.0
1008.0
1010.0
1015.0
1013.0
1015.0
1012.0
1008.0
1013.0
1014.0
1017.0
1019.0
1014.0
1012.0
1015.0
1018.0
1019.0
1019.0
1020.0
1018.0
1021.0
1024.0
1026.0
1028.0
1026.0
1030.0
1030.0
1034.0
1041.0
1041.0
1041.0
1042.0
1047.0
1052.0
1059.0
1059.0
1059.0
1061.0
1065.0
1072.0
1076.0
1074.0
1074.0
1072.0
1075.0
1079.0
1081.0
1077.0
1072.0
1069.0
1069.0
1068.0
1068.0
1069.0
1064.0
1062.0
1059.0
1058.0
1058.0
1054.0
1050.0
1048.0
1051.0
1053.0
1054.0
1051.0
1047.0
1044.0
1044.0
1047.0
1049.0
1050.0
1048.0
1042.0
1042.0
1044.0
1046.0
1044.0
1039.0
1041.0
1043.0
1043.0
1045.0
1045.0
1041.0
1039.0
1041.0
1042.0
1044.0
1040.0
1037.0
1034.0
1036.0
1040.0
1042.0
1039.0
1038.0
1037.0
1037.0
1039.0
1041.0
1037.0
1036.0
1034.0
1037.0
1041.0
1045.0
1042.0
1039.0
1035.0
1037.0
1040.0
1043.0
1044.0
1040.0
1038.0
1039.0
1041.0
1043.0
1042.0
1042.0
1038.0
1039.0
1043.0
1043.0
1039.0
1038.0
1038.0
1041.0
1042.0
1043.0
1039.0
1034.0
1038.0
1038.0
1039.0
1041.0
1041.0
1038.0
1037.0
1038.0
1037.0
1038.0
1037.0
1037.0
1035.0
1037.0
1039.0
1041.0
1037.0
1034.0
1032.0
1036.0
1038.0
1039.0
1036.0
1035.0
1033.0
1033.0
1036.0
1037.0
1036.0
1031.0
1032.0
1031.0
1036.0
1036.0
1035.0
1032.0
1028.0
1032.0
1033.0
1036.0
1035.0
1031.0
1030.0
1032.0
1035.0
1034.0
1034.0
1034.0
1031.0
1032.0
1038.0
1038.0
1036.0
1035.0
1031.0
1033.0
1036.0
1039.0
1037.0
1035.0
1032.0
1032.0
1035.0
1035.0
1037.0
1033.0
1032.0
1037.0
1038.0
1038.0
1036.0
1033.0
1032.0
1033.0
1038.0
1040.0
1037.0
1032.0
1032.0
1031.0
1035.0
1039.0
1037.0
1035.0
1034.0
1037.0
1036.0
1036.0
1035.0
1033.0
1035.0
1035.0
1037.0
1040.0
1038.0
1038.0
1035.0
1041.0
1041.0
1044.0
1047.0
1043.0
1042.0
1041.0
1047.0
1050.0
1049.0
1047.0
1047.0
1050.0
1054.0
1054.0
1048.0
1045.0
1042.0
1044.0
1047.0
1051.0
1046.0
1044.0
1043.0
1047.0
1049.0
1051.0
1051.0
1048.0
1048.0
1047.0
1050.0
1050.0
1045.0
1041.0
1036.0
1038.0
1040.0
1046.0
1043.0
1043.0
1041.0
1041.0
1045.0
1044.0
1044.0
1042.0
1038.0
1040.0
1043.0
1043.0
1043.0
1040.0
1040.0
1041.0
1045.0
1046.0
1045.0
1040.0
1039.0
1040.0
1045.0
1048.0
1046.0
1043.0
1043.0
1046.0
1052.0
1059.0
1061.0
1065.0
1076.0
1090.0
1103.0
1114.0
1126.0
1145.0
1173.0
1206.0
1239.0
1270.0
1299.0
1325.0
1359.0
1406.0
1451.0
1475.0
1463.0
1412.0
1328.0
1227.0
1147.0
1093.0
1059.0
1041.0
1041.0
1043.0
1047.0
1045.0
1042.0
1038.0
1034.0
1035.0
1032.0
1033.0
1030.0
1026.0
1023.0
1023.0
1024.0
1027.0
1023.0
1022.0
1020.0
1022.0
1024.0
1026.0
1024.0
1022.0
1019.0
1020.0
1024.0
1025.0
1023.0
1018.0
1019.0
1017.0
1018.0
1021.0
1018.0
1015.0
1014.0
1017.0
1018.0
1017.0
1017.0
1013.0
1013.0
1016.0
1018.0
1015.0
1015.0
1013.0
1012.0
1013.0
1017.0
1015.0
1015.0
1013.0
1011.0
1013.0
1014.0
1017.0
1018.0
1014.0
1014.0
1014.0
1017.0
1020.0
1017.0
1015.0
1014.0
1017.0
1020.0
1020.0
1020.0
1017.0
1016.0
1019.0
1022.0
1024.0
1024.0
1023.0
1020.0
1023.0
1030.0
1032.0
1032.0
1033.0
1031.0
1037.0
1044.0
1048.0
1048.0
1047.0
1049.0
1053.0
1056.0
1064.0
1066.0
1068.0
1071.0
1072.0
1077.0
1083.0
1085.0
1084.0
1085.0
1086.0
1089.0
1090.0
1088.0
1084.0
1080.0
1082.0
1083.0
1082.0
1074.0
1071.0
1067.0
1068.0
1065.0
1066.0
1062.0
1058.0
1056.0
1057.0
1058.0
1056.0
1054.0
1054.0
1053.0
1050.0
1055.0
1056.0
1051.0
1049.0
1050.0
1050.0
1052.0
1052.0
1051.0
1047.0
1045.0
1046.0
1050.0
1050.0
1047.0
1043.0
1043.0
1039.0
1044.0
1045.0
1043.0
1039.0
1040.0
1041.0
1044.0
1046.0
1042.0
1039.0
1037.0
1040.0
1038.0
1041.0
1039.0
1037.0
1037.0
1036.0
1041.0
1040.0
1038.0
1038.0
1038.0
1038.0
1041.0
1042.0
1042.0
1037.0
1039.0
1039.0
1043.0
1043.0
1043.0
1039.0
1040.0
1042.0
1044.0
1046.0
1043.0
1040.0
1040.0
1040.0
1041.0
1043.0
1043.0
1040.0
1043.0
1040.0
1044.0
1043.0
1041.0
1040.0
1040.0
1042.0
1045.0
1045.0
1043.0
1040.0
1038.0
1041.0
1043.0
1045.0
1041.0
1042.0
1038.0
1042.0
1043.0
1045.0
1042.0
1041.0
1039.0
1042.0
1041.0
1045.0
1039.0
1039.0
1038.0
1040.0
1039.0
1042.0
1040.0
1034.0
1033.0
1036.0
1039.0
1039.0
1038.0
1035.0
1036.0
1036.0
1040.0
1040.0
1042.0
1037.0
1037.0
1037.0
1040.0
1038.0
1039.0
1037.0
1039.0
1039.0
1041.0
1041.0
1040.0
1037.0
1035.0
1037.0
1040.0
1041.0
1039.0
1034.0
1035.0
1037.0
1039.0
1041.0
1038.0
1035.0
1036.0
1036.0
1042.0
1042.0
1039.0
1037.0
1036.0
1039.0
1042.0
1044.0
1042.0
1039.0
1036.0
1040.0
1043.0
1042.0
1044.0
1042.0
1045.0
1046.0
1048.0
1048.0
1046.0
1046.0
1045.0
1046.0
1051.0
1053.0
1052.0
1050.0
1049.0
1049.0
1051.0
1052.0
1048.0
1044.0
1044.0
1042.0
1046.0
1046.0
1045.0
1044.0
1046.0
1045.0
1048.0
1051.0
1049.0
1048.0
1045.0
1046.0
1048.0
1049.0
1046.0
1039.0
1035.0
1037.0
1041.0
1040.0
1041.0
1037.0
1036.0
1038.0
1040.0
1040.0
1040.0
1036.0
1035.0
1038.0
1040.0
1040.0
1039.0
1037.0
1033.0
1035.0
1036.0
1041.0
1039.0
1037.0
1039.0
1039.0
1045.0
1043.0
1041.0
1038.0
1040.0
1043.0
1046.0
1048.0
1050.0
1052.0
1055.0
1064.0
1074.0
1088.0
1099.0
1107.0
1122.0
1147.0
1178.0
1209.0
1236.0
1262.0
1292.0
1319.0
1349.0
1385.0
1422.0
1455.0
1470.0
1468.0
1434.0
1371.0
1279.0
1193.0
1124.0
1078.0
1051.0
1038.0
1036.0
1034.0
1037.0
1038.0
1039.0
1041.0
1037.0
1032.0
1027.0
1026.0
1026.0
1027.0
1023.0
1020.0
1022.0
1019.0
1021.0
1022.0
1019.0
1016.0
1016.0
1017.0
1020.0
1022.0
1017.0
1014.0
1011.0
1016.0
1017.0
1020.0
1017.0
1014.0
1012.0
1015.0
1017.0
1018.0
1015.0
1013.0
1011.0
1013.0
1015.0
1016.0
1014.0
1011.0
1012.0
1013.0
1016.0
1018.0
1015.0
1011.0
1012.0
1012.0
1016.0
1014.0
1014.0
1011.0
1014.0
1015.0
1017.0
1017.0
1016.0
1012.0
1011.0
1013.0
1017.0
1020.0
1018.0
1014.0
1013.0
1017.0
1018.0
1019.0
1017.0
1016.0
1016.0
1016.0
1019.0
1022.0
1021.0
1019.0
1018.0
1021.0
1024.0
1025.0
1027.0
1027.0
1028.0
1031.0
1035.0
1038.0
1040.0
1038.0
1043.0
1045.0
1051.0
1055.0
1055.0
1057.0
1059.0
1065.0
1072.0
1076.0
1078.0
1076.0
1079.0
1081.0
1087.0
1087.0
1087.0
1086.0
1086.0
1085.0
1089.0
1090.0
1085.0
1080.0
1077.0
1077.0
1077.0
1075.0
1073.0
1066.0
1065.0
1064.0
1065.0
1061.0
1060.0
1055.0
1054.0
1055.0
1057.0
1054.0
1052.0
1049.0
1047.0
1049.0
1051.0
1052.0
1050.0
1046.0
1046.0
1048.0
1047.0
1051.0
1048.0
1046.0
1044.0
1046.0
1048.0
1044.0
1043.0
1040.0
1043.0
1044.0
1046.0
1046.0
1043.0
1040.0
1041.0
1041.0
1043.0
1044.0
1044.0
1041.0
1037.0
1039.0
1042.0
1039.0
1040.0
1040.0
1038.0
1038.0
1042.0
1042.0
1040.0
1040.0
1038.0
1040.0
1045.0
1046.0
1044.0
1043.0
1041.0
1041.0
1046.0
1047.0
1044.0
1042.0
1041.0
1043.0
1046.0
1047.0
1044.0
1043.0
1041.0
1043.0
1045.0
1045.0
1041.0
1042.0
1036.0
1039.0
1046.0
1044.0
1045.0
1040.0
1038.0
1039.0
1044.0
1045.0
1043.0
1041.0
1038.0
1040.0
1044.0
1044.0
1040.0
1040.0
1037.0
1040.0
1042.0
1042.0
1038.0
1038.0
1036.0
1040.0
1041.0
1040.0
1041.0
1035.0
1034.0
1036.0
1039.0
1041.0
1040.0
1037.0
1036.0
1037.0
1039.0
1041.0
1039.0
1035.0
1032.0
1037.0
1039.0
1040.0
1037.0
1036.0
1033.0
1038.0
1037.0
1038.0
1038.0
1032.0
1035.0
1034.0
1038.0
1038.0
1035.0
1035.0
1033.0
1037.0
1038.0
1039.0
1033.0
1036.0
1033.0
1035.0
1038.0
1040.0
1037.0
1032.0
1031.0
1036.0
1035.0
1039.0
1038.0
1036.0
1033.0
1036.0
1038.0
1039.0
1038.0
1038.0
1036.0
1038.0
1041.0
1043.0
1044.0
1040.0
1042.0
1047.0
1050.0
1049.0
1050.0
1048.0
1047.0
1047.0
1053.0
1054.0
1051.0
1050.0
1047.0
1045.0
1047.0
1046.0
1046.0
1044.0
1044.0
1045.0
1048.0
1049.0
1047.0
1047.0
1046.0
1047.0
1049.0
1050.0
1044.0
1039.0
1034.0
1039.0
1041.0
1041.0
1040.0
1040.0
1037.0
1038.0
1041.0
1042.0
1039.0
1037.0
1037.0
1039.0
1041.0
1041.0
1039.0
1036.0
1037.0
1041.0
1044.0
1041.0
1043.0
1038.0
1036.0
1038.0
1040.0
1041.0
1042.0
1037.0
1040.0
1043.0
1045.0
1046.0
1049.0
1048.0
1053.0
1062.0
1076.0
1088.0
1100.0
1107.0
1118.0
1144.0
1176.0
1209.0
1236.0
1261.0
1293.0
1322.0
1361.0
1402.0
1439.0
1457.0
1446.0
1398.0
1318.0
1215.0
1129.0
1072.0
1044.0
1032.0
1034.0
1041.0
1043.0
1040.0
1037.0
1036.0
1036.0
1037.0
1032.0
1027.0
1022.0
1023.0
1025.0
1029.0
1026.0
1021.0
1023.0
1023.0
1024.0
1026.0
1023.0
1020.0
1019.0
1019.0
1023.0
1024.0
1021.0
1016.0
1016.0
1016.0
1022.0
1024.0
1021.0
1017.0
1017.0
1019.0
1020.0
1019.0
1016.0
1015.0
1015.0
1019.0
1017.0
1019.0
1016.0
1015.0
1013.0
1016.0
1020.0
1021.0
1018.0
1017.0
1013.0
1015.0
1019.0
1019.0
1018.0
1014.0
1014.0
1018.0
1020.0
1017.0
1018.0
1017.0
1015.0
1020.0
1022.0
1021.0
1018.0
1018.0
1018.0
1020.0
1023.0
1029.0
1027.0
1025.0
1023.0
1028.0
1030.0
1036.0
1034.0
1037.0
1039.0
1043.0
1049.0
1053.0
1056.0
1054.0
1056.0
1063.0
1067.0
1073.0
1073.0
1074.0
1076.0
1081.0
1087.0
1088.0
1088.0
1082.0
1081.0
1083.0
1085.0
1084.0
1081.0
1077.0
1073.0
1070.0
1070.0
1068.0
1063.0
1058.0
1059.0
1059.0
1058.0
1057.0
1053.0
1052.0
1048.0
1051.0
1055.0
1053.0
1049.0
1046.0
1046.0
1047.0
1050.0
1052.0
1049.0
1050.0
1046.0
1047.0
1050.0
1046.0
1045.0
1040.0
1039.0
1041.0
1044.0
1045.0
1040.0
1037.0
1037.0
1038.0
1043.0
1040.0
1038.0
1035.0
1035.0
1037.0
1040.0
1038.0
1037.0
1036.0
1034.0
1038.0
1041.0
1040.0
1037.0
1035.0
1037.0
1037.0
1042.0
1040.0
1039.0
1039.0
1039.0
1040.0
1040.0
1043.0
1041.0
1039.0
1037.0
1042.0
1043.0
1042.0
1042.0
1037.0
1037.0
1038.0
1041.0
1042.0
1040.0
1038.0
1034.0
1036.0
1039.0
1041.0
1036.0
1035.0
1035.0
1036.0
1036.0
1037.0
1035.0
1034.0
1032.0
1034.0
1038.0
1041.0
1038.0
1033.0
1032.0
1034.0
1034.0
1038.0
1038.0
1033.0
1033.0
1033.0
1037.0
1038.0
1037.0
1032.0
1033.0
1035.0
1036.0
1037.0
1033.0
1033.0
1031.0
1033.0
1035.0
1035.0
1035.0
1034.0
1035.0
1037.0
1038.0
1038.0
1034.0
1032.0
1033.0
1033.0
1037.0
1037.0
1035.0
1034.0
1031.0
1036.0
1039.0
1039.0
1035.0
1033.0
1033.0
1033.0
1034.0
1035.0
1035.0
1032.0
1033.0
1036.0
1036.0
1034.0
1034.0
1032.0
1034.0
1034.0
1037.0
1039.0
1037.0
1032.0
1032.0
1036.0
1038.0
1035.0
1034.0
1034.0
1034.0
1035.0
1041.0
1041.0
1042.0
1039.0
1039.0
1044.0
1046.0
1049.0
1045.0
1044.0
1045.0
1049.0
1053.0
1053.0
1049.0
1045.0
1042.0
1043.0
1046.0
1046.0
1046.0
1042.0
1041.0
1044.0
1048.0
1047.0
1048.0
1048.0
1045.0
1046.0
1049.0
1046.0
1042.0
1036.0
1034.0
1038.0
1041.0
1040.0
1040.0
1036.0
1038.0
1038.0
1043.0
1042.0
1040.0
1036.0
1037.0
1037.0
1039.0
1039.0
1037.0
1038.0
1036.0
1040.0
1042.0
1043.0
1041.0
1039.0
1038.0
1040.0
1044.0
1043.0
1042.0
1043.0
1043.0
1048.0
1052.0
1057.0
1062.0
1067.0
1079.0
1090.0
1102.0
1115.0
1131.0
1155.0
1185.0
1216.0
1250.0
1280.0
1310.0
1342.0
1385.0
1433.0
1457.0
1449.0
1396.0
1302.0
1192.0
1108.0
1060.0
1042.0
1033.0
1035.0
1036.0
1040.0
1040.0
1038.0
1035.0
1031.0
1028.0
1028.0
1024.0
1024.0
1022.0
1021.0
1017.0
1021.0
1022.0
1023.0
1019.0
1020.0
1017.0
1020.0
1020.0
1020.0
1018.0
1014.0
1014.0
1016.0
1016.0
1017.0
1016.0
1013.0
1012.0
1015.0
1014.0
1015.0
1011.0
1009.0
1010.0
1013.0
1012.0
1013.0
1010.0
1009.0
1008.0
1011.0
1011.0
1013.0
1008.0
1008.0
1008.0
1010.0
1012.0
1011.0
1011.0
1008.0
1009.0
1012.0
1013.0
1012.0
1012.0
1008.0
1009.0
1009.0
1015.0
1016.0
1014.0
1012.0
1013.0
1015.0
1018.0
1016.0
1016.0
1016.0
1014.0
1017.0
1020.0
1022.0
1021.0
1022.0
1024.0
1029.0
1033.0
1037.0
1037.0
1036.0
1042.0
1049.0
1056.0
1059.0
1061.0
1062.0
1065.0
1070.0
1076.0
1074.0
1074.0
1071.0
1072.0
1074.0
1077.0
1074.0
1072.0
1067.0
1066.0
1064.0
1065.0
1061.0
1057.0
1055.0
1051.0
1052.0
1052.0
1054.0
1048.0
1047.0
1048.0
1046.0
1049.0
1050.0
1047.0
1043.0
1043.0
1044.0
1045.0
1046.0
1043.0
1042.0
1042.0
1041.0
1042.0
1042.0
1045.0
1041.0
1038.0
1042.0
1044.0
1043.0
1041.0
1039.0
1038.0
1041.0
1041.0
1042.0
1042.0
1039.0
1038.0
1039.0
1043.0
1042.0
1042.0
1039.0
1040.0
1043.0
1044.0
1044.0
1041.0
1041.0
1040.0
1045.0
1046.0
1048.0
1045.0
1043.0
1041.0
1045.0
1046.0
1046.0
1043.0
1040.0
1042.0
1045.0
1044.0
1047.0
1043.0
1042.0
1041.0
1042.0
1046.0
1045.0
1041.0
1038.0
1038.0
1042.0
1044.0
1044.0
1040.0
1040.0
1038.0
1040.0
1044.0
1042.0
1041.0
1039.0
1036.0
1038.0
1042.0
1039.0
1041.0
1035.0
1033.0
1038.0
1041.0
1039.0
1038.0
1035.0
1036.0
1034.0
1040.0
1038.0
1036.0
1033.0
1033.0
1035.0
1037.0
1037.0
1036.0
1035.0
1034.0
1037.0
1040.0
1039.0
1037.0
1034.0
1034.0
1036.0
1039.0
1037.0
1035.0
1035.0
1036.0
1037.0
1039.0
1039.0
1036.0
1033.0
1032.0
1034.0
1037.0
1038.0
1035.0
1032.0
1032.0
1035.0
1039.0
1038.0
1037.0
1037.0
1033.0
1037.0
1041.0
1041.0
1038.0
1034.0
1033.0
1036.0
1039.0
1038.0
1039.0
1037.0
1037.0
1038.0
1040.0
1040.0
1037.0
1034.0
1036.0
1039.0
1043.0
1043.0
1042.0
1038.0
1040.0
1043.0
1047.0
1050.0
1047.0
1048.0
1047.0
1050.0
1051.0
1053.0
1052.0
1048.0
1048.0
1050.0
1052.0
1050.0
1050.0
1043.0
1043.0
1045.0
1047.0
1049.0
1049.0
1045.0
1045.0
1048.0
1051.0
1053.0
1051.0
1050.0
1051.0
1049.0
1049.0
1044.0
1041.0
1037.0
1040.0
1040.0
1045.0
1043.0
1043.0
1038.0
1039.0
1043.0
1044.0
1043.0
1042.0
1041.0
1040.0
1042.0
1046.0
1045.0
1042.0
1039.0
1040.0
1041.0
1046.0
1046.0
1043.0
1039.0
1037.0
1042.0
1045.0
1044.0
1045.0
1042.0
1041.0
1045.0
1050.0
1050.0
1052.0
1051.0
1056.0
1067.0
1076.0
1088.0
1098.0
1106.0
1116.0
1136.0
1164.0
1195.0
1224.0
1250.0
1280.0
1309.0
1343.0
1376.0
1415.0
1451.0
1472.0
1468.0
1434.0
1363.0
1271.0
1178.0
1114.0
1074.0
1051.0
1040.0
1037.0
1038.0
1039.0
1043.0
1044.0
1041.0
1036.0
1032.0
1030.0
1029.0
1030.0
1028.0
1025.0
1022.0
1021.0
1024.0
1027.0
1025.0
1024.0
1021.0
1020.0
1023.0
1023.0
1024.0
1021.0
1020.0
1022.0
1021.0
1023.0
1023.0
1021.0
1015.0
1018.0
1020.0
1022.0
1022.0
1019.0
1018.0
1017.0
1017.0
1019.0
1017.0
1018.0
1013.0
1014.0
1017.0
1022.0
1020.0
1016.0
1013.0
1015.0
1015.0
1017.0
1019.0
1016.0
1013.0
1013.0
1013.0
1017.0
1016.0
1016.0
1013.0
1016.0
1014.0
1019.0
1018.0
1017.0
1016.0
1014.0
1015.0
1020.0
1020.0
1019.0
1014.0
1018.0
1021.0
1023.0
1024.0
1022.0
1021.0
1021.0
1025.0
1027.0
1030.0
1028.0
1027.0
1028.0
1033.0
1038.0
1039.0
1039.0
1038.0
1042.0
1044.0
1052.0
1053.0
1057.0
1058.0
1062.0
1067.0
1071.0
1076.0
1079.0
1077.0
1077.0
1084.0
1085.0
1089.0
1086.0
1081.0
1083.0
1084.0
1084.0
1082.0
1080.0
1076.0
1074.0
1075.0
1072.0
1069.0
1064.0
1059.0
1057.0
