# Simple Text Format
# Sampling Rate (Hz):= 360.00
# Resolution:= 12
# Labels:= ECG
1065.0
1061.0
1058.0
1057.0
1058.0
1056.0
1050.0
1049.0
1043.0
1044.0
1043.0
1043.0
1039.0
1035.0
1035.0
1035.0
1035.0
1034.0
1034.0
1031.0
1030.0
1030.0
1032.0
1030.0
1027.0
1027.0
1027.0
1029.0
1032.0
1029.0
1028.0
1024.0
1023.0
1025.0
1026.0
1027.0
1025.0
1021.0
1021.0
1022.0
1023.0
1024.0
1018.0
1019.0
1018.0
1019.0
1024.0
1020.0
1021.0
1015.0
1016.0
1020.0
1022.0
1020.0
1018.0
1015.0
1017.0
1018.0
1019.0
1022.0
1019.0
1019.0
1018.0
1020.0
1022.0
1022.0
1020.0
1016.0
1016.0
1018.0
1020.0
1022.0
1019.0
1015.0
1016.0
1019.0
1022.0
1020.0
1021.0
1018.0
1019.0
1020.0
1021.0
1019.0
1017.0
1015.0
1016.0
1019.0
1021.0
1020.0
1018.0
1015.0
1014.0
1016.0
1019.0
1018.0
1014.0
1014.0
1013.0
1016.0
1017.0
1016.0
1014.0
1010.0
1009.0
1013.0
1016.0
1015.0
1015.0
1011.0
1012.0
1012.0
1015.0
1013.0
1011.0
1007.0
1009.0
1012.0
1014.0
1014.0
1011.0
1006.0
1007.0
1010.0
1011.0
1012.0
1011.0
1008.0
1007.0
1010.0
1012.0
1011.0
1010.0
1006.0
1007.0
1009.0
1012.0
1009.0
1010.0
1006.0
1007.0
1009.0
1012.0
1011.0
1010.0
1009.0
1008.0
1010.0
1012.0
1011.0
1010.0
1008.0
1009.0
1011.0
1014.0
1014.0
1013.0
1010.0
1010.0
1011.0
1010.0
1009.0
1009.0
1008.0
1008.0
1010.0
1011.0
1014.0
1010.0
1007.0
1008.0
1009.0
1014.0
1012.0
1011.0
1009.0
1007.0
1010.0
1012.0
1012.0
1010.0
1010.0
1012.0
1013.0
1014.0
1013.0
1012.0
1009.0
1010.0
1014.0
1013.0
1013.0
1012.0
1010.0
1010.0
1011.0
1015.0
1014.0
1014.0
1013.0
1016.0
1018.0
1021.0
1021.0
1020.0
1020.0
1019.0
1023.0
1026.0
1025.0
1026.0
1023.0
1021.0
1024.0
1027.0
1024.0
1021.0
1019.0
1019.0
1018.0
1021.0
1020.0
1021.0
1018.0
1018.0
1021.0
1024.0
1026.0
1023.0
1019.0
1021.0
1021.0
1021.0
1018.0
1016.0
1014.0
1013.0
1014.0
1018.0
1017.0
1015.0
1012.0
1014.0
1016.0
1017.0
1015.0
1014.0
1012.0
1012.0
1014.0
1018.0
1016.0
1017.0
1013.0
1015.0
1013.0
1015.0
1019.0
1014.0
1012.0
1014.0
1015.0
1017.0
1019.0
1016.0
1014.0
1016.0
1018.0
1022.0
1022.0
1021.0
1024.0
1029.0
1038.0
1051.0
1058.0
1067.0
1071.0
1082.0
1102.0
1126.0
1152.0
1179.0
1203.0
1229.0
1262.0
1294.0
1335.0
1370.0
1395.0
1399.0
1370.0
1317.0
1233.0
1148.0
1078.0
1035.0
1011.0
1004.0
1004.0
1007.0
1005.0
1006.0
1009.0
1010.0
1010.0
1005.0
994.0
999.0
998.0
997.0
997.0
995.0
991.0
989.0
993.0
994.0
993.0
992.0
990.0
989.0
993.0
992.0
991.0
989.0
988.0
987.0
990.0
992.0
991.0
987.0
984.0
984.0
985.0
988.0
987.0
985.0
981.0
983.0
983.0
988.0
984.0
985.0
980.0
980.0
985.0
986.0
985.0
983.0
981.0
981.0
984.0
985.0
986.0
987.0
984.0
983.0
987.0
987.0
987.0
987.0
984.0
987.0
990.0
991.0
989.0
990.0
987.0
990.0
990.0
996.0
995.0
994.0
992.0
991.0
993.0
999.0
999.0
996.0
997.0
999.0
1002.0
1006.0
1007.0
1007.0
1009.0
1009.0
1014.0
1020.0
1020.0
1023.0
1022.0
1025.0
1030.0
1032.0
1034.0
1037.0
1036.0
1038.0
1045.0
1046.0
1050.0
1050.0
1051.0
1049.0
1051.0
1054.0
1052.0
1049.0
1047.0
1045.0
1043.0
1046.0
1044.0
1039.0
1036.0
1036.0
1035.0
1036.0
1032.0
1028.0
1023.0
1025.0
1026.0
1026.0
1025.0
1021.0
1019.0
1018.0
1022.0
1022.0
1020.0
1020.0
1015.0
1019.0
1019.0
1022.0
1019.0
1019.0
1015.0
1015.0
1018.0
1019.0
1015.0
1017.0
1014.0
1013.0
1016.0
1018.0
1018.0
1015.0
1012.0
1012.0
1013.0
1015.0
1014.0
1012.0
1012.0
1012.0
1013.0
1016.0
1015.0
1011.0
1008.0
1010.0
1013.0
1016.0
1018.0
1014.0
1013.0
1013.0
1014.0
1017.0
1016.0
1014.0
1011.0
1013.0
1017.0
1018.0
1017.0
1014.0
1014.0
1015.0
1016.0
1020.0
1018.0
1017.0
1014.0
1013.0
1016.0
1019.0
1018.0
1016.0
1016.0
1012.0
1015.0
1018.0
1020.0
1015.0
1012.0
1013.0
1015.0
1018.0
1017.0
1014.0
1012.0
1011.0
1013.0
1017.0
1015.0
1011.0
1011.0
1012.0
1013.0
1015.0
1012.0
1010.0
1009.0
1011.0
1012.0
1013.0
1012.0
1012.0
1008.0
1008.0
1011.0
1014.0
1013.0
1010.0
1008.0
1009.0
1009.0
1013.0
1011.0
1011.0
1008.0
1010.0
1011.0
1013.0
1010.0
1010.0
1008.0
1008.0
1008.0
1015.0
1012.0
1010.0
1008.0
1009.0
1008.0
1013.0
1012.0
1010.0
1007.0
1011.0
1011.0
1014.0
1012.0
1010.0
1007.0
1009.0
1013.0
1016.0
1013.0
1009.0
1009.0
1011.0
1011.0
1014.0
1013.0
1011.0
1010.0
1011.0
1012.0
1016.0
1013.0
1012.0
1012.0
1012.0
1014.0
1018.0
1016.0
1012.0
1011.0
1012.0
1017.0
1018.0
1017.0
1015.0
1012.0
1011.0
1013.0
1020.0
1016.0
1015.0
1013.0
1014.0
1015.0
1019.0
1017.0
1015.0
1015.0
1015.0
1018.0
1023.0
1025.0
1024.0
1021.0
1023.0
1026.0
1028.0
1028.0
1028.0
1025.0
1026.0
1030.0
1028.0
1030.0
1026.0
1024.0
1024.0
1023.0
1026.0
1024.0
1021.0
1020.0
1021.0
1026.0
1030.0
1029.0
1026.0
1024.0
1024.0
1026.0
1030.0
1025.0
1022.0
1017.0
1018.0
1020.0
1020.0
1021.0
1019.0
1016.0
1019.0
1020.0
1022.0
1020.0
1018.0
1015.0
1016.0
1019.0
1022.0
1020.0
1015.0
1015.0
1016.0
1020.0
1022.0
1020.0
1017.0
1016.0
1016.0
1018.0
1020.0
1020.0
1017.0
1019.0
1018.0
1022.0
1027.0
1023.0
1026.0
1027.0
1033.0
1042.0
1054.0
1066.0
1072.0
1081.0
1098.0
1123.0
1152.0
1181.0
1206.0
1233.0
1261.0
1297.0
1336.0
1378.0
1411.0
1421.0
1397.0
1342.0
1255.0
1163.0
1081.0
1034.0
1014.0
1008.0
1015.0
1018.0
1018.0
1013.0
1011.0
1013.0
1010.0
1007.0
1002.0
999.0
1000.0
1000.0
1001.0
1000.0
998.0
996.0
997.0
999.0
1002.0
999.0
998.0
994.0
994.0
995.0
998.0
999.0
997.0
990.0
993.0
996.0
996.0
997.0
994.0
990.0
992.0
993.0
994.0
992.0
991.0
989.0
989.0
991.0
992.0
994.0
991.0
989.0
989.0
991.0
993.0
994.0
993.0
990.0
991.0
992.0
996.0
995.0
994.0
992.0
992.0
996.0
998.0
998.0
996.0
993.0
995.0
998.0
1001.0
999.0
1000.0
998.0
1002.0
1004.0
1009.0
1011.0
1009.0
1009.0
1012.0
1019.0
1024.0
1027.0
1026.0
1024.0
1029.0
1032.0
1040.0
1041.0
1042.0
1043.0
1048.0
1051.0
1055.0
1058.0
1055.0
1055.0
1057.0
1059.0
1064.0
1062.0
1060.0
1053.0
1054.0
1054.0
1053.0
1050.0
1047.0
1040.0
1039.0
1036.0
1037.0
1033.0
1029.0
1027.0
1024.0
1027.0
1028.0
1026.0
1022.0
1021.0
1020.0
1021.0
1023.0
1023.0
1021.0
1017.0
1016.0
1020.0
1022.0
1022.0
1018.0
1016.0
1018.0
1021.0
1020.0
1020.0
1017.0
1014.0
1016.0
1016.0
1019.0
1016.0
1016.0
1015.0
1014.0
1016.0
1020.0
1020.0
1016.0
1014.0
1014.0
1016.0
1016.0
1015.0
1013.0
1012.0
1010.0
1013.0
1016.0
1014.0
1012.0
1013.0
1013.0
1015.0
1018.0
1015.0
1016.0
1014.0
1015.0
1016.0
1019.0
1019.0
1017.0
1016.0
1016.0
1019.0
1023.0
1021.0
1020.0
1017.0
1020.0
1023.0
1023.0
1021.0
1018.0
1017.0
1015.0
1019.0
1021.0
1019.0
1018.0
1014.0
1016.0
1017.0
1018.0
1017.0
1019.0
1015.0
1018.0
1019.0
1020.0
1017.0
1016.0
1012.0
1015.0
1014.0
1019.0
1018.0
1014.0
1012.0
1013.0
1014.0
1018.0
1016.0
1015.0
1013.0
1014.0
1015.0
1020.0
1016.0
1014.0
1013.0
1014.0
1017.0
1018.0
1017.0
1013.0
1011.0
1014.0
1017.0
1019.0
1016.0
1014.0
1011.0
1013.0
1012.0
1014.0
1016.0
1013.0
1011.0
1013.0
1013.0
1017.0
1015.0
1013.0
1007.0
1011.0
1014.0
1017.0
1014.0
1013.0
1009.0
1012.0
1013.0
1015.0
1015.0
1012.0
1011.0
1012.0
1015.0
1015.0
1014.0
1012.0
1008.0
1011.0
1012.0
1014.0
1014.0
1012.0
1009.0
1010.0
1011.0
1016.0
1016.0
1012.0
1011.0
1011.0
1015.0
1016.0
1014.0
1011.0
1009.0
1011.0
1014.0
1017.0
1015.0
1012.0
1010.0
1011.0
1011.0
1017.0
1017.0
1017.0
1015.0
1017.0
1021.0
1023.0
1023.0
1021.0
1019.0
1021.0
1022.0
1026.0
1025.0
1024.0
1024.0
1023.0
1024.0
1026.0
1024.0
1019.0
1017.0
1015.0
1020.0
1020.0
1020.0
1019.0
1020.0
1020.0
1022.0
1026.0
1021.0
1021.0
1019.0
1020.0
1021.0
1020.0
1017.0
1012.0
1011.0
1011.0
1014.0
1018.0
1016.0
1013.0
1013.0
1009.0
1013.0
1016.0
1013.0
1013.0
1010.0
1009.0
1013.0
1015.0
1013.0
1009.0
1009.0
1010.0
1009.0
1013.0
1013.0
1009.0
1009.0
1010.0
1013.0
1013.0
1013.0
1013.0
1012.0
1014.0
1017.0
1021.0
1023.0
1026.0
1032.0
1041.0
1054.0
1068.0
1075.0
1085.0
1103.0
1128.0
1157.0
1187.0
1210.0
1238.0
1265.0
1299.0
1342.0
1380.0
1388.0
1367.0
1307.0
1218.0
1130.0
1066.0
1026.0
1002.0
998.0
1000.0
1009.0
1011.0
1011.0
1006.0
1002.0
1000.0
1000.0
998.0
1000.0
993.0
990.0
991.0
992.0
993.0
991.0
991.0
985.0
989.0
988.0
992.0
991.0
989.0
986.0
985.0
992.0
992.0
990.0
986.0
986.0
982.0
986.0
990.0
989.0
986.0
985.0
981.0
985.0
987.0
984.0
984.0
982.0
983.0
984.0
987.0
986.0
985.0
982.0
983.0
985.0
987.0
985.0
985.0
982.0
983.0
984.0
989.0
988.0
984.0
984.0
987.0
988.0
990.0
988.0
988.0
987.0
987.0
990.0
991.0
991.0
990.0
987.0
990.0
994.0
996.0
994.0
995.0
995.0
998.0
1003.0
1006.0
1009.0
1008.0
1008.0
1011.0
1016.0
1019.0
1021.0
1023.0
1025.0
1027.0
1036.0
1039.0
1039.0
1039.0
1041.0
1043.0
1045.0
1047.0
1048.0
1044.0
1042.0
1042.0
1042.0
1044.0
1041.0
1036.0
1034.0
1031.0
1033.0
1034.0
1028.0
1024.0
1023.0
1019.0
1020.0
1022.0
1019.0
1017.0
1012.0
1016.0
1015.0
1018.0
1016.0
1014.0
1011.0
1012.0
1013.0
1011.0
1012.0
1012.0
1009.0
1008.0
1008.0
1010.0
1011.0
1007.0
1007.0
1005.0
1009.0
1012.0
1009.0
1008.0
1005.0
1005.0
1007.0
1010.0
1008.0
1005.0
1004.0
1004.0
1007.0
1008.0
1006.0
1004.0
1003.0
1004.0
1006.0
1008.0
1007.0
1006.0
1002.0
1003.0
1008.0
1009.0
1007.0
1007.0
1004.0
1007.0
1007.0
1010.0
1008.0
1007.0
1008.0
1006.0
1010.0
1013.0
1012.0
1008.0
1006.0
1005.0
1009.0
1011.0
1012.0
1007.0
1007.0
1006.0
1010.0
1011.0
1009.0
1007.0
1007.0
1007.0
1007.0
1010.0
1008.0
1007.0
1006.0
1006.0
1005.0
1009.0
1006.0
1005.0
999.0
1004.0
1006.0
1008.0
1006.0
1005.0
1001.0
1003.0
1004.0
1006.0
1003.0
999.0
1001.0
1001.0
1003.0
1005.0
1005.0
1002.0
1000.0
1000.0
1002.0
1004.0
1004.0
1003.0
999.0
1001.0
1001.0
1002.0
1000.0
999.0
998.0
997.0
999.0
1000.0
1003.0
999.0
996.0
997.0
1001.0
1003.0
1003.0
997.0
998.0
997.0
1001.0
1002.0
1002.0
999.0
998.0
998.0
999.0
1002.0
1001.0
1000.0
999.0
999.0
1003.0
1004.0
1001.0
998.0
999.0
998.0
1004.0
1003.0
1002.0
998.0
997.0
996.0
997.0
1002.0
1002.0
1001.0
999.0
1000.0
1001.0
1004.0
1001.0
1001.0
1000.0
1002.0
1004.0
1005.0
1005.0
999.0
1000.0
1003.0
1004.0
1006.0
1009.0
1008.0
1005.0
1010.0
1011.0
1013.0
1013.0
1012.0
1011.0
1013.0
1015.0
1018.0
1018.0
1015.0
1011.0
1011.0
1013.0
1013.0
1012.0
1009.0
1006.0
1007.0
1009.0
1015.0
1012.0
1011.0
1010.0
1009.0
1010.0
1012.0
1013.0
1009.0
1006.0
1004.0
1003.0
1007.0
1006.0
1003.0
1001.0
1003.0
1005.0
1006.0
1007.0
1005.0
1001.0
1001.0
1003.0
1006.0
1004.0
1002.0
1001.0
999.0
1004.0
1004.0
1001.0
1001.0
1000.0
1000.0
1003.0
1005.0
1006.0
1001.0
998.0
1002.0
1005.0
1006.0
1007.0
1006.0
1006.0
1007.0
1011.0
1021.0
1023.0
1030.0
1038.0
1048.0
1062.0
1073.0
1084.0
1102.0
1128.0
1158.0
1189.0
1219.0
1246.0
1273.0
1304.0
1343.0
1387.0
1414.0
1408.0
1369.0
1298.0
1208.0
1122.0
1064.0
1022.0
1000.0
992.0
995.0
1003.0
1006.0
1003.0
998.0
996.0
994.0
994.0
994.0
989.0
987.0
985.0
984.0
985.0
985.0
985.0
985.0
980.0
984.0
984.0
986.0
984.0
984.0
980.0
980.0
982.0
984.0
983.0
980.0
979.0
978.0
978.0
979.0
979.0
978.0
975.0
976.0
976.0
979.0
979.0
976.0
974.0
975.0
978.0
980.0
979.0
976.0
974.0
973.0
977.0
981.0
979.0
980.0
975.0
978.0
977.0
981.0
980.0
979.0
976.0
976.0
981.0
984.0
985.0
982.0
979.0
980.0
984.0
988.0
986.0
984.0
982.0
984.0
986.0
990.0
992.0
989.0
987.0
992.0
997.0
997.0
999.0
998.0
999.0
1001.0
1007.0
1011.0
1011.0
1012.0
1014.0
1017.0
1021.0
1028.0
1030.0
1029.0
1031.0
1035.0
1041.0
1043.0
1045.0
1045.0
1045.0
1046.0
1051.0
1052.0
1053.0
1048.0
1044.0
1045.0
1045.0
1045.0
1042.0
1038.0
1033.0
1031.0
1030.0
1030.0
1026.0
1022.0
1019.0
1018.0
1016.0
1017.0
1016.0
1013.0
1012.0
1011.0
1015.0
1018.0
1017.0
1011.0
1010.0
1008.0
1012.0
1015.0
1014.0
1013.0
1011.0
1011.0
1010.0
1015.0
1013.0
1010.0
1007.0
1010.0
1010.0
1010.0
1011.0
1006.0
1007.0
1008.0
1008.0
1010.0
1009.0
1007.0
1005.0
1006.0
1008.0
1011.0
1008.0
1007.0
1005.0
1005.0
1007.0
1010.0
1008.0
1007.0
1006.0
1008.0
1008.0
1012.0
1010.0
1007.0
1006.0
1008.0
1010.0
1013.0
1011.0
1008.0
1009.0
1008.0
1011.0
1015.0
1011.0
1009.0
1009.0
1008.0
1010.0
1014.0
1013.0
1008.0
1005.0
1005.0
1010.0
1011.0
1011.0
1008.0
1005.0
1005.0
1010.0
1009.0
1008.0
1007.0
1003.0
1004.0
1009.0
1010.0
1010.0
1005.0
1003.0
1004.0
1006.0
1007.0
1006.0
1004.0
1001.0
1002.0
1004.0
1006.0
1005.0
1001.0
1002.0
1004.0
1006.0
1005.0
1006.0
1004.0
999.0
1003.0
1006.0
1007.0
1009.0
1006.0
1004.0
1005.0
1006.0
1010.0
1010.0
1004.0
1003.0
1006.0
1008.0
1011.0
1007.0
1006.0
1005.0
1005.0
1010.0
1010.0
1010.0
1006.0
1004.0
1004.0
1006.0
1010.0
1010.0
1007.0
1003.0
1007.0
1008.0
1008.0
1008.0
1006.0
1003.0
1005.0
1009.0
1010.0
1011.0
1008.0
1004.0
1006.0
1007.0
1012.0
1010.0
1007.0
1003.0
1007.0
1009.0
1009.0
1012.0
1008.0
1006.0
1009.0
1012.0
1015.0
1017.0
1014.0
1014.0
1017.0
1021.0
1023.0
1023.0
1018.0
1020.0
1022.0
1023.0
1021.0
1022.0
1013.0
1013.0
1013.0
1020.0
1022.0
1019.0
1017.0
1017.0
1016.0
1022.0
1022.0
1023.0
1020.0
1014.0
1015.0
1014.0
1016.0
1015.0
1010.0
1009.0
1010.0
1013.0
1014.0
1012.0
1011.0
1009.0
1010.0
1012.0
1014.0
1014.0
1011.0
1008.0
1010.0
1009.0
1013.0
1013.0
1012.0
1008.0
1009.0
1011.0
1012.0
1013.0
1011.0
1010.0
1010.0
1014.0
1017.0
1014.0
1012.0
1009.0
1015.0
1019.0
1022.0
1027.0
1028.0
1034.0
1042.0
1054.0
1064.0
1075.0
1082.0
1100.0
1125.0
1155.0
1184.0
1210.0
1237.0
1261.0
1296.0
1336.0
1375.0
1395.0
1388.0
1351.0
1288.0
1209.0
1137.0
1081.0
1036.0
1015.0
1004.0
1003.0
1005.0
1009.0
1006.0
1006.0
1006.0
1007.0
1009.0
1004.0
1000.0
994.0
995.0
996.0
999.0
997.0
993.0
992.0
991.0
993.0
996.0
994.0
991.0
989.0
989.0
993.0
994.0
995.0
990.0
986.0
989.0
991.0
993.0
992.0
990.0
987.0
988.0
992.0
991.0
992.0
988.0
989.0
989.0
992.0
992.0
992.0
989.0
986.0
985.0
990.0
992.0
992.0
989.0
988.0
987.0
990.0
996.0
993.0
990.0
989.0
987.0
992.0
993.0
990.0
991.0
988.0
991.0
995.0
999.0
997.0
994.0
993.0
995.0
996.0
1000.0
998.0
999.0
998.0
998.0
1003.0
1007.0
1006.0
1006.0
1004.0
1009.0
1013.0
1017.0
1018.0
1016.0
1020.0
1020.0
1026.0
1032.0
1035.0
1034.0
1034.0
1039.0
1045.0
1047.0
1048.0
1050.0
1051.0
1053.0
1057.0
1061.0
1060.0
1056.0
1055.0
1056.0
1058.0
1060.0
1054.0
1052.0
1046.0
1044.0
1049.0
1047.0
1044.0
1038.0
1035.0
1033.0
1033.0
1033.0
1030.0
1024.0
1023.0
1025.0
1025.0
1027.0
1024.0
1023.0
1021.0
1021.0
1023.0
1024.0
1022.0
1022.0
1018.0
1018.0
1020.0
1019.0
1021.0
1019.0
1018.0
1020.0
1021.0
1021.0
1019.0
1015.0
1013.0
1015.0
1018.0
1021.0
1018.0
1017.0
1015.0
1017.0
1019.0
1016.0
1014.0
1012.0
1010.0
1013.0
1015.0
1017.0
1016.0
1013.0
1011.0
1014.0
1016.0
1020.0
1017.0
1014.0
1011.0
1014.0
1017.0
1015.0
1016.0
1015.0
1014.0
1014.0
1016.0
1021.0
1018.0
1016.0
1014.0
1016.0
1021.0
1019.0
1017.0
1015.0
1014.0
1015.0
1018.0
1019.0
1017.0
1015.0
1014.0
1017.0
1016.0
1020.0
1017.0
1019.0
1014.0
1014.0
1016.0
1018.0
1018.0
1013.0
1013.0
1014.0
1018.0
1019.0
1017.0
1014.0
1011.0
1010.0
1014.0
1015.0
1014.0
1014.0
1009.0
1011.0
1013.0
1013.0
1011.0
1011.0
1009.0
1008.0
1012.0
1011.0
1012.0
1010.0
1005.0
1008.0
1010.0
1011.0
1010.0
1011.0
1007.0
1010.0
1011.0
1012.0
1012.0
1011.0
1008.0
1010.0
1012.0
1015.0
1011.0
1009.0
1006.0
1006.0
1008.0
1014.0
1014.0
1011.0
1009.0
1010.0
1013.0
1011.0
1011.0
1008.0
1009.0
1010.0
1012.0
1013.0
1011.0
1010.0
1008.0
1008.0
1012.0
1013.0
1012.0
1013.0
1008.0
1009.0
1011.0
1015.0
1013.0
1009.0
1008.0
1010.0
1012.0
1014.0
1013.0
1010.0
1007.0
1010.0
1014.0
1012.0
1014.0
1011.0
1010.0
1013.0
1014.0
1016.0
1013.0
1010.0
1008.0
1012.0
1016.0
1021.0
1019.0
1018.0
1016.0
1021.0
1023.0
1025.0
1024.0
1023.0
1021.0
1022.0
1027.0
1028.0
1031.0
1025.0
1023.0
1023.0
1024.0
1027.0
1023.0
1019.0
1016.0
1018.0
1021.0
1023.0
1025.0
1022.0
1021.0
1023.0
1024.0
1025.0
1024.0
1022.0
1020.0
1018.0
1020.0
1019.0
1017.0
1012.0
1014.0
1014.0
1017.0
1019.0
1018.0
1015.0
1013.0
1012.0
1018.0
1017.0
1019.0
1016.0
1013.0
1012.0
1017.0
1016.0
1015.0
1010.0
1011.0
1013.0
1017.0
1016.0
1017.0
1015.0
1012.0
1015.0
1018.0
1020.0
1017.0
1017.0
1015.0
1017.0
1021.0
1024.0
1024.0
1024.0
1028.0
1036.0
1047.0
1060.0
1069.0
1072.0
1080.0
1095.0
1120.0
1147.0
1171.0
1194.0
1217.0
1246.0
1272.0
1304.0
1341.0
1375.0
1396.0
1400.0
1371.0
1316.0
1230.0
1135.0
1070.0
1032.0
1014.0
1009.0
1008.0
1009.0
1008.0
1012.0
1013.0
1014.0
1009.0
1005.0
1002.0
1002.0
1004.0
1003.0
998.0
996.0
993.0
995.0
999.0
997.0
997.0
995.0
994.0
995.0
998.0
994.0
996.0
994.0
989.0
994.0
995.0
999.0
995.0
993.0
989.0
992.0
992.0
995.0
991.0
990.0
988.0
990.0
991.0
993.0
992.0
990.0
989.0
989.0
993.0
991.0
990.0
986.0
986.0
988.0
992.0
993.0
993.0
990.0
992.0
990.0
993.0
994.0
992.0
990.0
987.0
990.0
995.0
997.0
994.0
992.0
990.0
992.0
997.0
998.0
996.0
996.0
995.0
996.0
996.0
1001.0
1001.0
998.0
999.0
1001.0
1005.0
1007.0
1005.0
1005.0
1004.0
1008.0
1013.0
1017.0
1015.0
1017.0
1016.0
1020.0
1024.0
1028.0
1027.0
1029.0
1027.0
1033.0
1038.0
1042.0
1044.0
1042.0
1042.0
1046.0
1053.0
1055.0
1056.0
1054.0
1054.0
1055.0
1056.0
1056.0
1056.0
1051.0
1050.0
1048.0
1048.0
1051.0
1045.0
1042.0
1038.0
1037.0
1039.0
1038.0
1038.0
1033.0
1031.0
1029.0
1032.0
1030.0
1028.0
1026.0
1024.0
1026.0
1029.0
1029.0
1026.0
1024.0
1023.0
1024.0
1027.0
1029.0
1027.0
1023.0
1021.0
1022.0
1023.0
1027.0
1023.0
1019.0
1020.0
1021.0
1024.0
1027.0
1024.0
1020.0
1018.0
1024.0
1022.0
1024.0
1022.0
1020.0
1017.0
1021.0
1023.0
1023.0
1023.0
1018.0
1019.0
1021.0
1024.0
1025.0
1023.0
1021.0
1020.0
1020.0
1023.0
1025.0
1022.0
1021.0
1019.0
1024.0
1024.0
1028.0
1026.0
1022.0
1022.0
1023.0
1024.0
1027.0
1026.0
1022.0
1021.0
1023.0
1024.0
1028.0
1024.0
1023.0
1021.0
1020.0
1026.0
1026.0
1023.0
1021.0
1021.0
1020.0
1025.0
1026.0
1023.0
1021.0
1017.0
1022.0
1022.0
1024.0
1022.0
1021.0
1018.0
1018.0
1022.0
1022.0
1020.0
1017.0
1016.0
1017.0
1020.0
1022.0
1021.0
1016.0
1016.0
1016.0
1019.0
1022.0
1019.0
1016.0
1015.0
1017.0
1019.0
1022.0
1017.0
1016.0
1015.0
1016.0
1020.0
1020.0
1020.0
1017.0
1015.0
1017.0
1019.0
1021.0
1020.0
1016.0
1016.0
1017.0
1020.0
1021.0
1021.0
1018.0
1015.0
1018.0
1021.0
1018.0
1019.0
1015.0
1015.0
1018.0
1024.0
1023.0
1023.0
1019.0
1018.0
1019.0
1020.0
1021.0
1022.0
1020.0
1019.0
1022.0
1021.0
1023.0
1022.0
1019.0
1016.0
1019.0
1022.0
1025.0
1024.0
1019.0
1019.0
1019.0
1024.0
1023.0
1021.0
1020.0
1021.0
1020.0
1023.0
1025.0
1024.0
1020.0
1022.0
1021.0
1022.0
1026.0
1024.0
1020.0
1019.0
1023.0
1024.0
1025.0
1025.0
1022.0
1023.0
1024.0
1029.0
1030.0
1029.0
1030.0
1029.0
1031.0
1034.0
1035.0
1033.0
1032.0
1032.0
1034.0
1036.0
1034.0
1032.0
1027.0
1025.0
1026.0
1029.0
1029.0
1033.0
1030.0
1028.0
1030.0
1033.0
1035.0
1034.0
1032.0
1031.0
1031.0
1032.0
1031.0
1024.0
1020.0
1020.0
1024.0
1028.0
1029.0
1025.0
1024.0
1022.0
1023.0
1024.0
1024.0
1025.0
1024.0
1021.0
1023.0
1024.0
1025.0
1023.0
1020.0
1021.0
1021.0
1024.0
1025.0
1023.0
1023.0
1020.0
1022.0
1025.0
1026.0
1023.0
1024.0
1023.0
1024.0
1027.0
1029.0
1031.0
1033.0
1034.0
1041.0
1051.0
1062.0
1071.0
1079.0
1089.0
1106.0
1128.0
1153.0
1180.0
1203.0
1231.0
1260.0
1290.0
1322.0
1356.0
1394.0
1422.0
1438.0
1430.0
1392.0
1327.0
1238.0
1156.0
1093.0
1051.0
1029.0
1016.0
1013.0
1014.0
1022.0
1022.0
1022.0
1022.0
1018.0
1013.0
1013.0
1009.0
1011.0
1006.0
1004.0
1003.0
1003.0
1007.0
1005.0
1004.0
1003.0
999.0
1000.0
1004.0
1005.0
1004.0
1000.0
1001.0
1001.0
1004.0
1005.0
1002.0
999.0
998.0
1001.0
1002.0
1002.0
999.0
998.0
993.0
998.0
999.0
998.0
999.0
997.0
994.0
996.0
996.0
998.0
997.0
994.0
995.0
996.0
999.0
1001.0
999.0
996.0
996.0
998.0
999.0
999.0
1000.0
998.0
995.0
997.0
1000.0
1002.0
998.0
997.0
998.0
999.0
1003.0
1005.0
1003.0
998.0
998.0
1001.0
1005.0
1007.0
1007.0
1005.0
1006.0
1009.0
1011.0
1013.0
1013.0
1012.0
1014.0
1015.0
1021.0
1023.0
1025.0
1024.0
1027.0
1029.0
1034.0
1037.0
1041.0
1041.0
1045.0
1048.0
1053.0
1055.0
1057.0
1059.0
1059.0
1063.0
1067.0
1070.0
1067.0
1067.0
1065.0
1067.0
1070.0
1069.0
1064.0
1061.0
1056.0
1055.0
1056.0
1055.0
1050.0
1043.0
1041.0
1041.0
1041.0
1041.0
1036.0
1035.0
1033.0
1036.0
1035.0
1035.0
1031.0
1028.0
1028.0
1027.0
1032.0
1034.0
1032.0
1029.0
1027.0
1030.0
1033.0
1030.0
1031.0
1028.0
1026.0
1027.0
1027.0
1030.0
1027.0
1025.0
1023.0
1025.0
1029.0
1028.0
1026.0
1023.0
1021.0
1022.0
1024.0
1027.0
1026.0
1021.0
1021.0
1021.0
1025.0
1026.0
1024.0
1024.0
1022.0
1024.0
1028.0
1026.0
1026.0
1024.0
1023.0
1025.0
1026.0
1030.0
1029.0
1025.0
1025.0
1027.0
1031.0
1032.0
1031.0
1028.0
1028.0
1027.0
1029.0
1030.0
1030.0
1027.0
1024.0
1027.0
1030.0
1031.0
1030.0
1026.0
1026.0
1026.0
1029.0
1031.0
1027.0
1025.0
1024.0
1027.0
1028.0
1030.0
1028.0
1023.0
1024.0
1024.0
1028.0
1029.0
1028.0
1025.0
1022.0
1027.0
1028.0
1029.0
1024.0
1024.0
1023.0
1025.0
1029.0
1026.0
1026.0
1021.0
1020.0
1025.0
1027.0
1027.0
1026.0
1024.0
1025.0
1025.0
1029.0
1028.0
1026.0
1027.0
1021.0
1026.0
1029.0
1030.0
1028.0
1030.0
1024.0
1023.0
1027.0
1029.0
1028.0
1026.0
1027.0
1025.0
1029.0
1027.0
1028.0
1024.0
1023.0
1026.0
1029.0
1031.0
1028.0
1027.0
1024.0
1028.0
1030.0
1031.0
1029.0
1028.0
1023.0
1027.0
1030.0
1030.0
1030.0
1028.0
1025.0
1027.0
1029.0
1030.0
1030.0
1027.0
1026.0
1028.0
1031.0
1033.0
1031.0
1027.0
1029.0
1029.0
1034.0
1036.0
1034.0
1033.0
1033.0
1036.0
1039.0
1041.0
1039.0
1035.0
1036.0
1039.0
1041.0
1043.0
1040.0
1036.0
1034.0
1034.0
1035.0
1034.0
1037.0
1033.0
1032.0
1034.0
1036.0
1039.0
1033.0
1035.0
1034.0
1037.0
1037.0
1038.0
1039.0
1033.0
1030.0
1030.0
1026.0
1031.0
1029.0
1027.0
1026.0
1028.0
1031.0
1032.0
1029.0
1027.0
1024.0
1026.0
1029.0
1029.0
1027.0
1023.0
1024.0
1028.0
1029.0
1029.0
1029.0
1025.0
1022.0
1026.0
1026.0
1028.0
1029.0
1028.0
1026.0
1030.0
1032.0
1034.0
1032.0
1028.0
1028.0
1033.0
1039.0
1043.0
1044.0
1052.0
1060.0
1075.0
1085.0
1098.0
1109.0
1126.0
1150.0
1179.0
1206.0
1230.0
1254.0
1278.0
1310.0
1350.0
1389.0
1412.0
1409.0
1373.0
1302.0
1210.0
1127.0
1069.0
1036.0
1017.0
1011.0
1017.0
1023.0
1027.0
1028.0
1024.0
1020.0
1021.0
1021.0
1018.0
1013.0
1007.0
1008.0
1009.0
1011.0
1012.0
1010.0
1008.0
1009.0
1005.0
1011.0
1009.0
1007.0
1005.0
1004.0
1007.0
1008.0
1007.0
1005.0
1002.0
1004.0
1007.0
1008.0
1005.0
1004.0
1003.0
1003.0
1003.0
1007.0
1007.0
1005.0
1001.0
1001.0
1000.0
1006.0
1004.0
1003.0
999.0
1001.0
1001.0
1006.0
1003.0
1002.0
997.0
1000.0
1003.0
1008.0
1010.0
1006.0
1003.0
1001.0
1005.0
1008.0
1007.0
1009.0
1006.0
1003.0
1007.0
1008.0
1008.0
1008.0
1005.0
1008.0
1009.0
1015.0
1015.0
1015.0
1015.0
1015.0
1018.0
1023.0
1026.0
1023.0
1025.0
1025.0
1033.0
1036.0
1039.0
1040.0
1039.0
1041.0
1047.0
1052.0
1056.0
1057.0
1058.0
1062.0
1064.0
1071.0
1073.0
1072.0
1068.0
1068.0
1072.0
1074.0
1073.0
1070.0
1064.0
1063.0
1062.0
1062.0
1059.0
1056.0
1052.0
1050.0
1047.0
1049.0
1047.0
1043.0
1039.0
1037.0
1039.0
1040.0
1041.0
1039.0
1035.0
1032.0
1032.0
1037.0
1036.0
1035.0
1034.0
1032.0
1032.0
1035.0
1035.0
1031.0
1030.0
1030.0
1031.0
1034.0
1031.0
1031.0
1029.0
1024.0
1026.0
1030.0
1030.0
1027.0
1025.0
1026.0
1026.0
1028.0
1028.0
1027.0
1024.0
1024.0
1027.0
1030.0
1027.0
1025.0
1025.0
1021.0
1026.0
1029.0
1028.0
1028.0
1025.0
1023.0
1025.0
1028.0
1028.0
1030.0
1026.0
1026.0
1027.0
1030.0
1029.0
1026.0
1024.0
1028.0
1029.0
1031.0
1033.0
1031.0
1027.0
1024.0
1025.0
1028.0
1030.0
1028.0
1026.0
1023.0
1026.0
1028.0
1030.0
1026.0
1024.0
1022.0
1023.0
1027.0
1025.0
1024.0
1021.0
1023.0
1025.0
1028.0
1026.0
1023.0
1021.0
1021.0
1023.0
1025.0
1025.0
1023.0
1021.0
1022.0
1022.0
1024.0
1025.0
1024.0
1021.0
1021.0
1021.0
1024.0
1023.0
1021.0
1020.0
1020.0
1022.0
1024.0
1024.0
1023.0
1020.0
1019.0
1023.0
1022.0
1024.0
1021.0
1022.0
1018.0
1020.0
1024.0
1024.0
1021.0
1019.0
1019.0
1021.0
1023.0
1024.0
1022.0
1018.0
1019.0
1019.0
1024.0
1024.0
1024.0
1019.0
1020.0
1022.0
1022.0
1023.0
1021.0
1019.0
1020.0
1021.0
1024.0
1023.0
1024.0
1020.0
1021.0
1023.0
1024.0
1025.0
1023.0
1020.0
1022.0
1022.0
1023.0
1024.0
1022.0
1020.0
1018.0
1022.0
1028.0
1027.0
1025.0
1020.0
1022.0
1023.0
1028.0
1030.0
1029.0
1030.0
1027.0
1031.0
1032.0
1037.0
1033.0
1035.0
1034.0
1035.0
1036.0
1038.0
1034.0
1029.0
1029.0
1030.0
1030.0
1032.0
1029.0
1027.0
1027.0
1030.0
1033.0
1035.0
1034.0
1032.0
1029.0
1029.0
1033.0
1031.0
1027.0
1024.0
1022.0
1027.0
1027.0
1029.0
1025.0
1022.0
1022.0
1023.0
1027.0
1028.0
1028.0
1023.0
1023.0
1025.0
1027.0
1026.0
1026.0
1022.0
1022.0
1025.0
1024.0
1025.0
1023.0
1022.0
1024.0
1023.0
1028.0
1028.0
1029.0
1025.0
1026.0
1028.0
1033.0
1034.0
1037.0
1038.0
1045.0
1057.0
1068.0
1082.0
1089.0
1099.0
1120.0
1148.0
1178.0
1207.0
1232.0
1263.0
1293.0
1330.0
1376.0
1412.0
1428.0
1410.0
1363.0
1283.0
1194.0
1115.0
1058.0
1027.0
1013.0
1012.0
1017.0
1021.0
1019.0
1018.0
1018.0
1017.0
1016.0
1011.0
1008.0
1003.0
1002.0
1004.0
1004.0
1002.0
1002.0
998.0
1000.0
1000.0
1001.0
1001.0
1000.0
999.0
999.0
1002.0
999.0
999.0
999.0
996.0
999.0
998.0
999.0
1000.0
997.0
994.0
994.0
991.0
997.0
997.0
994.0
991.0
993.0
994.0
994.0
996.0
994.0
990.0
992.0
996.0
996.0
996.0
992.0
989.0
991.0
994.0
996.0
999.0
998.0
995.0
992.0
997.0
996.0
999.0
1000.0
997.0
999.0
1000.0
1001.0
1000.0
1003.0
998.0
1001.0
1006.0
1007.0
1008.0
1008.0
1003.0
1009.0
1010.0
1014.0
1017.0
1018.0
1018.0
1016.0
1022.0
1024.0
1027.0
1028.0
1027.0
1031.0
1035.0
1043.0
1043.0
1043.0
1044.0
1047.0
1054.0
1059.0
1062.0
1060.0
1061.0
1063.0
1063.0
1065.0
1067.0
1063.0
1060.0
1058.0
1059.0
1059.0
1056.0
1052.0
1048.0
1045.0
1046.0
1046.0
1043.0
1041.0
1036.0
1031.0
1032.0
1036.0
1034.0
1032.0
1028.0
1030.0
1027.0
1029.0
1031.0
1026.0
1024.0
1026.0
1027.0
1028.0
1029.0
1026.0
1025.0
1025.0
1027.0
1029.0
1030.0
1029.0
1025.0
1021.0
1025.0
1027.0
1026.0
1025.0
