# Simple Text Format
# Sampling Rate (Hz):= 360.00
# Resolution:= 12
# Labels:= ECG
1027.0
1028.0
1025.0
1021.0
1020.0
1020.0
1022.0
1023.0
1022.0
1023.0
1020.0
1021.0
1023.0
1024.0
1021.0
1019.0
1018.0
1020.0
1024.0
1025.0
1024.0
1022.0
1019.0
1018.0
1023.0
1025.0
1024.0
1022.0
1020.0
1023.0
1024.0
1026.0
1023.0
1019.0
1016.0
1018.0
1019.0
1022.0
1019.0
1017.0
1018.0
1020.0
1023.0
1023.0
1020.0
1019.0
1018.0
1021.0
1023.0
1024.0
1020.0
1018.0
1020.0
1022.0
1027.0
1029.0
1027.0
1026.0
1025.0
1028.0
1030.0
1031.0
1031.0
1029.0
1029.0
1031.0
1032.0
1033.0
1031.0
1029.0
1026.0
1027.0
1028.0
1029.0
1026.0
1025.0
1024.0
1027.0
1028.0
1029.0
1030.0
1028.0
1027.0
1029.0
1033.0
1031.0
1027.0
1021.0
1023.0
1022.0
1025.0
1023.0
1025.0
1022.0
1020.0
1020.0
1022.0
1025.0
1023.0
1022.0
1021.0
1021.0
1021.0
1024.0
1023.0
1022.0
1024.0
1021.0
1025.0
1025.0
1022.0
1020.0
1018.0
1024.0
1027.0
1025.0
1025.0
1023.0
1023.0
1024.0
1027.0
1030.0
1029.0
1028.0
1029.0
1036.0
1044.0
1048.0
1052.0
1059.0
1066.0
1081.0
1086.0
1099.0
1113.0
1128.0
1157.0
1188.0
1218.0
1247.0
1275.0
1306.0
1338.0
1384.0
1424.0
1444.0
1431.0
1389.0
1312.0
1225.0
1152.0
1095.0
1057.0
1032.0
1023.0
1024.0
1029.0
1028.0
1028.0
1023.0
1024.0
1023.0
1022.0
1016.0
1011.0
1009.0
1004.0
1005.0
1008.0
1009.0
1007.0
1001.0
999.0
1001.0
1004.0
1004.0
1003.0
997.0
998.0
1000.0
1002.0
1002.0
998.0
996.0
994.0
998.0
999.0
1001.0
997.0
995.0
993.0
994.0
998.0
998.0
996.0
994.0
993.0
993.0
996.0
996.0
993.0
992.0
990.0
992.0
997.0
997.0
995.0
992.0
991.0
993.0
994.0
997.0
997.0
994.0
992.0
994.0
999.0
1001.0
997.0
994.0
994.0
996.0
999.0
1001.0
998.0
996.0
997.0
997.0
1003.0
1005.0
1003.0
998.0
999.0
1002.0
1004.0
1004.0
1006.0
1003.0
1005.0
1011.0
1013.0
1014.0
1011.0
1013.0
1012.0
1016.0
1022.0
1024.0
1025.0
1023.0
1027.0
1030.0
1033.0
1039.0
1041.0
1043.0
1044.0
1047.0
1052.0
1055.0
1054.0
1056.0
1054.0
1056.0
1060.0
1057.0
1057.0
1051.0
1051.0
1050.0
1051.0
1052.0
1048.0
1046.0
1042.0
1040.0
1041.0
1042.0
1039.0
1034.0
1033.0
1031.0
1034.0
1035.0
1032.0
1028.0
1027.0
1029.0
1029.0
1029.0
1028.0
1023.0
1023.0
1024.0
1026.0
1029.0
1025.0
1022.0
1024.0
1024.0
1027.0
1027.0
1026.0
1022.0
1021.0
1024.0
1027.0
1029.0
1025.0
1023.0
1023.0
1023.0
1025.0
1028.0
1027.0
1024.0
1022.0
1025.0
1029.0
1030.0
1028.0
1024.0
1024.0
1028.0
1029.0
1031.0
1027.0
1026.0
1027.0
1028.0
1031.0
1029.0
1027.0
1025.0
1024.0
1026.0
1028.0
1032.0
1029.0
1023.0
1026.0
1028.0
1029.0
1029.0
1026.0
1023.0
1022.0
1022.0
1026.0
1025.0
1023.0
1021.0
1019.0
1020.0
1023.0
1026.0
1022.0
1020.0
1019.0
1020.0
1022.0
1022.0
1020.0
1016.0
1016.0
1020.0
1022.0
1022.0
1020.0
1016.0
1017.0
1017.0
1021.0
1022.0
1019.0
1015.0
1016.0
1016.0
1018.0
1019.0
1019.0
1017.0
1017.0
1016.0
1021.0
1020.0
1019.0
1017.0
1016.0
1020.0
1020.0
1021.0
1017.0
1017.0
1018.0
1016.0
1021.0
1021.0
1020.0
1020.0
1017.0
1018.0
1021.0
1021.0
1021.0
1019.0
1019.0
1020.0
1023.0
1023.0
1020.0
1020.0
1020.0
1024.0
1025.0
1025.0
1027.0
1023.0
1022.0
1021.0
1026.0
1026.0
1023.0
1021.0
1021.0
1022.0
1027.0
1028.0
1025.0
1022.0
1022.0
1025.0
1026.0
1026.0
1028.0
1024.0
1025.0
1024.0
1027.0
1025.0
1024.0
1025.0
1023.0
1027.0
1027.0
1026.0
1026.0
1023.0
1023.0
1028.0
1029.0
1027.0
1029.0
1027.0
1030.0
1032.0
1035.0
1035.0
1037.0
1035.0
1036.0
1038.0
1041.0
1042.0
1042.0
1038.0
1038.0
1040.0
1042.0
1039.0
1035.0
1033.0
1030.0
1033.0
1037.0
1038.0
1034.0
1034.0
1035.0
1035.0
1039.0
1039.0
1037.0
1036.0
1035.0
1037.0
1036.0
1035.0
1032.0
1030.0
1026.0
1030.0
1034.0
1033.0
1031.0
1028.0
1030.0
1030.0
1029.0
1032.0
1030.0
1029.0
1030.0
1030.0
1031.0
1031.0
1030.0
1027.0
1028.0
1028.0
1031.0
1031.0
1030.0
1025.0
1026.0
1031.0
1034.0
1032.0
1031.0
1029.0
1032.0
1037.0
1039.0
1047.0
1054.0
1059.0
1070.0
1081.0
1093.0
1103.0
1121.0
1147.0
1181.0
1214.0
1249.0
1279.0
1311.0
1344.0
1386.0
1429.0
1452.0
1450.0
1414.0
1346.0
1259.0
1176.0
1113.0
1069.0
1041.0
1026.0
1022.0
1027.0
1030.0
1030.0
1026.0
1025.0
1021.0
1023.0
1022.0
1019.0
1016.0
1011.0
1008.0
1010.0
1013.0
1012.0
1011.0
1007.0
1008.0
1012.0
1012.0
1011.0
1012.0
1006.0
1007.0
1009.0
1011.0
1010.0
1011.0
1004.0
1004.0
1005.0
1008.0
1008.0
1007.0
1004.0
1002.0
1004.0
1008.0
1006.0
1007.0
1003.0
1003.0
1005.0
1007.0
1007.0
1008.0
1005.0
1002.0
1005.0
1008.0
1008.0
1006.0
1003.0
1003.0
1006.0
1009.0
1007.0
1005.0
1004.0
1006.0
1010.0
1011.0
1011.0
1011.0
1007.0
1009.0
1013.0
1014.0
1017.0
1016.0
1013.0
1012.0
1018.0
1018.0
1019.0
1018.0
1017.0
1021.0
1022.0
1027.0
1027.0
1027.0
1026.0
1027.0
1031.0
1037.0
1040.0
1041.0
1040.0
1042.0
1046.0
1055.0
1053.0
1056.0
1059.0
1059.0
1065.0
1072.0
1073.0
1073.0
1076.0
1075.0
1081.0
1085.0
1085.0
1085.0
1082.0
1082.0
1080.0
1082.0
1081.0
1079.0
1075.0
1072.0
1072.0
1071.0
1067.0
1065.0
1062.0
1058.0
1059.0
1060.0
1056.0
1054.0
1050.0
1049.0
1052.0
1053.0
1053.0
1051.0
1048.0
1045.0
1047.0
1049.0
1049.0
1047.0
1045.0
1046.0
1047.0
1049.0
1049.0
1047.0
1044.0
1042.0
1045.0
1046.0
1047.0
1044.0
1040.0
1036.0
1041.0
1043.0
1047.0
1043.0
1041.0
1041.0
1040.0
1044.0
1043.0
1041.0
1041.0
1041.0
1043.0
1045.0
1046.0
1044.0
1040.0
1041.0
1043.0
1045.0
1046.0
1045.0
1043.0
1043.0
1046.0
1047.0
1048.0
1047.0
1046.0
1046.0
1047.0
1049.0
1049.0
1046.0
1048.0
1046.0
1047.0
1050.0
1048.0
1047.0
1046.0
1045.0
1046.0
1049.0
1051.0
1048.0
1043.0
1041.0
1044.0
1044.0
1047.0
1047.0
1042.0
1041.0
1040.0
1045.0
1045.0
1045.0
1042.0
1040.0
1044.0
1045.0
1043.0
1040.0
1039.0
1037.0
1040.0
1042.0
1042.0
1039.0
1041.0
1039.0
1041.0
1043.0
1042.0
1038.0
1036.0
1037.0
1038.0
1041.0
1041.0
1039.0
1036.0
1034.0
1039.0
1041.0
1042.0
1040.0
1038.0
1036.0
1036.0
1040.0
1041.0
1040.0
1038.0
1038.0
1041.0
1041.0
1041.0
1037.0
1038.0
1033.0
1038.0
1042.0
1042.0
1040.0
1033.0
1034.0
1034.0
1040.0
1040.0
1042.0
1038.0
1038.0
1039.0
1040.0
1039.0
1038.0
1036.0
1036.0
1040.0
1040.0
1041.0
1038.0
1036.0
1038.0
1041.0
1042.0
1043.0
1041.0
1036.0
1039.0
1039.0
1040.0
1041.0
1042.0
1040.0
1042.0
1046.0
1047.0
1047.0
1047.0
1043.0
1048.0
1048.0
1053.0
1054.0
1053.0
1054.0
1051.0
1052.0
1053.0
1050.0
1046.0
1045.0
1044.0
1045.0
1048.0
1049.0
1047.0
1043.0
1047.0
1051.0
1053.0
1053.0
1053.0
1049.0
1047.0
1045.0
1047.0
1044.0
1042.0
1038.0
1037.0
1040.0
1044.0
1044.0
1040.0
1040.0
1039.0
1042.0
1045.0
1042.0
1042.0
1037.0
1038.0
1041.0
1045.0
1045.0
1041.0
1041.0
1038.0
1041.0
1045.0
1041.0
1040.0
1039.0
1041.0
1041.0
1043.0
1043.0
1041.0
1041.0
1041.0
1046.0
1048.0
1050.0
1049.0
1050.0
1056.0
1061.0
1071.0
1081.0
1091.0
1096.0
1106.0
1119.0
1143.0
1169.0
1198.0
1224.0
1251.0
1282.0
1310.0
1344.0
1380.0
1414.0
1443.0
1450.0
1429.0
1367.0
1279.0
1190.0
1123.0
1078.0
1051.0
1041.0
1038.0
1038.0
1037.0
1041.0
1041.0
1038.0
1034.0
1028.0
1026.0
1024.0
1023.0
1022.0
1021.0
1016.0
1019.0
1018.0
1021.0
1020.0
1018.0
1015.0
1016.0
1017.0
1017.0
1017.0
1016.0
1013.0
1015.0
1013.0
1016.0
1014.0
1014.0
1011.0
1009.0
1014.0
1014.0
1016.0
1011.0
1007.0
1009.0
1011.0
1012.0
1010.0
1009.0
1005.0
1006.0
1008.0
1012.0
1012.0
1011.0
1008.0
1009.0
1012.0
1012.0
1011.0
1011.0
1009.0
1009.0
1010.0
1013.0
1013.0
1010.0
1008.0
1011.0
1011.0
1015.0
1017.0
1015.0
1014.0
1014.0
1016.0
1016.0
1018.0
1017.0
1013.0
1015.0
1019.0
1019.0
1021.0
1019.0
1019.0
1019.0
1024.0
1028.0
1029.0
1025.0
1025.0
1027.0
1029.0
1035.0
1039.0
1038.0
1036.0
1038.0
1043.0
1048.0
1049.0
1052.0
1049.0
1054.0
1059.0
1063.0
1068.0
1066.0
1063.0
1066.0
1072.0
1075.0
1074.0
1072.0
1069.0
1068.0
1069.0
1072.0
1070.0
1066.0
1062.0
1060.0
1060.0
1061.0
1059.0
1056.0
1050.0
1048.0
1051.0
1050.0
1052.0
1047.0
1042.0
1041.0
1046.0
1047.0
1046.0
1043.0
1039.0
1041.0
1038.0
1042.0
1042.0
1039.0
1036.0
1036.0
1041.0
1039.0
1042.0
1038.0
1033.0
1033.0
1035.0
1037.0
1038.0
1038.0
1033.0
1032.0
1033.0
1037.0
1036.0
1036.0
1030.0
1035.0
1035.0
1034.0
1037.0
1031.0
1033.0
1034.0
1035.0
1038.0
1036.0
1034.0
1033.0
1034.0
1036.0
1039.0
1039.0
1036.0
1034.0
1035.0
1038.0
1038.0
1038.0
1036.0
1033.0
1034.0
1034.0
1037.0
1038.0
1033.0
1032.0
1031.0
1033.0
1038.0
1037.0
1036.0
1031.0
1030.0
1034.0
1034.0
1033.0
1033.0
1030.0
1028.0
1031.0
1033.0
1032.0
1029.0
1027.0
1028.0
1030.0
1031.0
1032.0
1030.0
1028.0
1025.0
1027.0
1031.0
1030.0
1030.0
1024.0
1027.0
1027.0
1028.0
1028.0
1026.0
1026.0
1026.0
1029.0
1029.0
1030.0
1026.0
1025.0
1027.0
1028.0
1029.0
1029.0
1029.0
1026.0
1025.0
1027.0
1031.0
1029.0
1026.0
1027.0
1026.0
1027.0
1029.0
1028.0
1028.0
1025.0
1025.0
1028.0
1032.0
1030.0
1027.0
1024.0
1023.0
1026.0
1030.0
1029.0
1029.0
1024.0
1026.0
1027.0
1029.0
1027.0
1028.0
1025.0
1025.0
1027.0
1032.0
1029.0
1029.0
1024.0
1025.0
1027.0
1029.0
1029.0
1027.0
1025.0
1026.0
1028.0
1029.0
1031.0
1027.0
1025.0
1027.0
1031.0
1031.0
1031.0
1027.0
1024.0
1025.0
1028.0
1031.0
1032.0
1027.0
1029.0
1027.0
1029.0
1031.0
1033.0
1033.0
1031.0
1033.0
1036.0
1040.0
1040.0
1038.0
1036.0
1040.0
1041.0
1044.0
1044.0
1042.0
1039.0
1038.0
1040.0
1040.0
1039.0
1034.0
1034.0
1035.0
1037.0
1042.0
1038.0
1039.0
1038.0
1039.0
1040.0
1044.0
1045.0
1040.0
1038.0
1036.0
1034.0
1032.0
1031.0
1032.0
1031.0
1029.0
1031.0
1031.0
1034.0
1031.0
1030.0
1028.0
1030.0
1030.0
1028.0
1027.0
1026.0
1025.0
1029.0
1032.0
1031.0
1029.0
1027.0
1028.0
1030.0
1029.0
1031.0
1031.0
1029.0
1027.0
1033.0
1035.0
1036.0
1034.0
1034.0
1035.0
1042.0
1051.0
1059.0
1066.0
1076.0
1089.0
1102.0
1120.0
1145.0
1179.0
1206.0
1234.0
1267.0
1296.0
1329.0
1369.0
1407.0
1435.0
1440.0
1408.0
1335.0
1242.0
1152.0
1089.0
1053.0
1035.0
1028.0
1030.0
1030.0
1029.0
1030.0
1027.0
1025.0
1020.0
1015.0
1014.0
1016.0
1017.0
1016.0
1012.0
1011.0
1011.0
1014.0
1016.0
1013.0
1013.0
1008.0
1008.0
1009.0
1010.0
1009.0
1012.0
1008.0
1005.0
1007.0
1010.0
1007.0
1006.0
1003.0
1005.0
1004.0
1007.0
1006.0
1003.0
999.0
1002.0
1006.0
1009.0
1007.0
1003.0
1001.0
1002.0
1005.0
1008.0
1006.0
1008.0
1001.0
1006.0
1008.0
1009.0
1011.0
1007.0
1006.0
1004.0
1009.0
1012.0
1012.0
1012.0
1011.0
1012.0
1014.0
1015.0
1016.0
1016.0
1016.0
1016.0
1018.0
1022.0
1022.0
1022.0
1020.0
1021.0
1027.0
1032.0
1035.0
1034.0
1034.0
1037.0
1039.0
1048.0
1048.0
1050.0
1051.0
1056.0
1059.0
1065.0
1069.0
1067.0
1066.0
1069.0
1074.0
1075.0
1078.0
1077.0
1075.0
1074.0
1073.0
1074.0
1073.0
1070.0
1068.0
1065.0
1066.0
1068.0
1061.0
1058.0
1052.0
1052.0
1051.0
1051.0
1049.0
1045.0
1043.0
1042.0
1045.0
1046.0
1043.0
1042.0
1039.0
1038.0
1040.0
1042.0
1041.0
1038.0
1034.0
1035.0
1038.0
1041.0
1041.0
1035.0
1033.0
1034.0
1034.0
1036.0
1036.0
1033.0
1032.0
1034.0
1034.0
1034.0
1033.0
1030.0
1027.0
1028.0
1030.0
1032.0
1031.0
1029.0
1026.0
1023.0
1027.0
1030.0
1031.0
1027.0
1024.0
1025.0
1024.0
1028.0
1029.0
1029.0
1028.0
1027.0
1028.0
1032.0
1032.0
1029.0
1029.0
1029.0
1028.0
1032.0
1032.0
1029.0
1027.0
1027.0
1030.0
1031.0
1031.0
1029.0
1025.0
1024.0
1028.0
1031.0
1031.0
1027.0
1027.0
1027.0
1030.0
1032.0
1028.0
1025.0
1023.0
1025.0
1026.0
1029.0
1028.0
1025.0
1024.0
1024.0
1027.0
1029.0
1028.0
1027.0
1023.0
1022.0
1025.0
1029.0
1026.0
1023.0
1021.0
1021.0
1025.0
1028.0
1026.0
1022.0
1021.0
1021.0
1022.0
1026.0
1027.0
1024.0
1022.0
1021.0
1023.0
1025.0
1025.0
1022.0
1018.0
1019.0
1023.0
1028.0
1025.0
1024.0
1019.0
1019.0
1023.0
1024.0
1023.0
1024.0
1020.0
1021.0
1023.0
1026.0
1025.0
1023.0
1017.0
1018.0
1022.0
1024.0
1023.0
1023.0
1022.0
1020.0
1021.0
1027.0
1021.0
1025.0
1020.0
1022.0
1024.0
1025.0
1023.0
1021.0
1021.0
1020.0
1021.0
1025.0
1028.0
1023.0
1020.0
1021.0
1023.0
1025.0
1026.0
1023.0
1023.0
1023.0
1025.0
1029.0
1030.0
1029.0
1027.0
1029.0
1030.0
1034.0
1034.0
1033.0
1031.0
1032.0
1036.0
1038.0
1036.0
1033.0
1027.0
1026.0
1028.0
1032.0
1031.0
1027.0
1027.0
1030.0
1031.0
1032.0
1036.0
1036.0
1032.0
1030.0
1031.0
1033.0
1026.0
1023.0
1020.0
1024.0
1024.0
1024.0
1026.0
1023.0
1020.0
1020.0
1024.0
1027.0
1026.0
1024.0
1022.0
1021.0
1023.0
1023.0
1024.0
1022.0
1020.0
1020.0
1023.0
1027.0
1023.0
1022.0
1021.0
1022.0
1025.0
1028.0
1028.0
1024.0
1023.0
1026.0
1030.0
1037.0
1039.0
1048.0
1052.0
1064.0
1080.0
1090.0
1104.0
1119.0
1142.0
1174.0
1207.0
1240.0
1267.0
1295.0
1329.0
1373.0
1419.0
1441.0
1427.0
1367.0
1270.0
1171.0
1096.0
1051.0
1027.0
1020.0
1018.0
1025.0
1026.0
1024.0
1023.0
1017.0
1013.0
1011.0
1012.0
1013.0
1009.0
1005.0
1003.0
1003.0
1004.0
1007.0
1005.0
1001.0
1000.0
1001.0
999.0
1005.0
1001.0
1000.0
999.0
997.0
998.0
1001.0
999.0
998.0
994.0
994.0
993.0
996.0
996.0
994.0
991.0
993.0
993.0
997.0
995.0
995.0
989.0
992.0
995.0
997.0
997.0
993.0
992.0
992.0
995.0
997.0
995.0
994.0
993.0
996.0
998.0
1002.0
997.0
999.0
997.0
999.0
1002.0
1005.0
1005.0
1006.0
1004.0
1005.0
1009.0
1013.0
1017.0
1016.0
1016.0
1019.0
1025.0
1030.0
1033.0
1033.0
1033.0
1037.0
1041.0
1043.0
1047.0
1049.0
1047.0
1050.0
1055.0
1057.0
1056.0
1052.0
1053.0
1051.0
1052.0
1054.0
1055.0
1049.0
1046.0
1046.0
1043.0
1046.0
1045.0
1040.0
1035.0
1036.0
1034.0
1032.0
1032.0
1029.0
1029.0
1028.0
1026.0
1029.0
1026.0
1023.0
1019.0
1022.0
1024.0
1025.0
1025.0
1022.0
1021.0
1021.0
1021.0
1021.0
1021.0
1020.0
1018.0
1018.0
1022.0
1022.0
1020.0
1018.0
1016.0
1016.0
1020.0
1021.0
1019.0
1017.0
1015.0
1015.0
1018.0
1019.0
1019.0
1017.0
1016.0
1016.0
1018.0
1021.0
1020.0
1017.0
1017.0
1015.0
1018.0
1021.0
1020.0
1016.0
1015.0
1017.0
1019.0
1022.0
1021.0
1019.0
1015.0
1018.0
1020.0
1023.0
1019.0
1018.0
1016.0
1016.0
1017.0
1022.0
1021.0
1018.0
1015.0
1014.0
1017.0
1019.0
1016.0
1015.0
1013.0
1012.0
1016.0
1019.0
1018.0
1014.0
1011.0
1013.0
1014.0
1014.0
1016.0
1013.0
1012.0
1013.0
1012.0
1018.0
1015.0
1014.0
1010.0
1012.0
1015.0
1016.0
1015.0
1012.0
1009.0
1011.0
1013.0
1015.0
1013.0
1011.0
1009.0
1010.0
1012.0
1012.0
1011.0
1012.0
1008.0
1006.0
1010.0
1012.0
1012.0
1009.0
1009.0
1009.0
1010.0
1014.0
1014.0
1009.0
1008.0
1011.0
1013.0
1013.0
1014.0
1012.0
1008.0
1008.0
1010.0
1011.0
1013.0
1009.0
1008.0
1009.0
1011.0
1014.0
1012.0
1011.0
1007.0
1008.0
1010.0
1014.0
1013.0
1014.0
1007.0
1010.0
1010.0
1015.0
1011.0
1009.0
1010.0
1011.0
1012.0
1013.0
1014.0
1013.0
1011.0
1009.0
1016.0
1017.0
1016.0
1013.0
1011.0
1011.0
1013.0
1016.0
1015.0
1014.0
1011.0
1012.0
1015.0
1016.0
1016.0
1011.0
1012.0
1012.0
1015.0
1014.0
1015.0
1014.0
1013.0
1015.0
1015.0
1018.0
1017.0
1016.0
1015.0
1018.0
1021.0
1024.0
1023.0
1023.0
1021.0
1019.0
1024.0
1028.0
1028.0
1027.0
1025.0
1025.0
1027.0
1031.0
1027.0
1023.0
1019.0
1021.0
1020.0
1024.0
1023.0
1021.0
1018.0
1017.0
1022.0
1025.0
1026.0
1021.0
1021.0
1022.0
1024.0
1027.0
1025.0
1024.0
1016.0
1017.0
1017.0
1019.0
1019.0
1015.0
1014.0
1011.0
1016.0
1017.0
1016.0
1014.0
1013.0
1013.0
1016.0
1018.0
1017.0
1015.0
1011.0
1013.0
1014.0
1018.0
1017.0
1014.0
1013.0
1014.0
1013.0
1017.0
1016.0
1014.0
1010.0
1013.0
1016.0
1018.0
1018.0
1016.0
1015.0
1015.0
1017.0
1022.0
1023.0
1027.0
1028.0
1035.0
1043.0
1056.0
1063.0
1072.0
1079.0
1093.0
1113.0
1140.0
1166.0
1193.0
1221.0
1248.0
1279.0
1312.0
1344.0
1385.0
1416.0
1429.0
1421.0
1385.0
1316.0
1233.0
1155.0
1093.0
1051.0
1027.0
1011.0
1006.0
1006.0
1011.0
1012.0
1016.0
1011.0
1009.0
1004.0
1001.0
1001.0
1002.0
1001.0
998.0
997.0
996.0
997.0
1000.0
997.0
996.0
992.0
996.0
997.0
997.0
996.0
995.0
991.0
991.0
992.0
995.0
995.0
993.0
989.0
991.0
994.0
994.0
993.0
990.0
990.0
989.0
991.0
994.0
993.0
990.0
987.0
989.0
991.0
996.0
996.0
993.0
991.0
991.0
993.0
996.0
993.0
991.0
990.0
990.0
993.0
994.0
995.0
992.0
990.0
993.0
994.0
996.0
997.0
998.0
996.0
995.0
997.0
1001.0
1000.0
999.0
998.0
1000.0
1003.0
1006.0
1009.0
1008.0
1004.0
1006.0
1008.0
1015.0
1016.0
1016.0
1016.0
1016.0
1021.0
1027.0
1029.0
1027.0
1027.0
1031.0
1037.0
1042.0
1042.0
1041.0
1043.0
1049.0
1053.0
1058.0
1060.0
1058.0
1059.0
1061.0
1062.0
1068.0
1068.0
1064.0
1063.0
1062.0
1061.0
1062.0
1056.0
1053.0
1049.0
1048.0
1049.0
1048.0
1045.0
1040.0
1037.0
1037.0
1036.0
1038.0
1035.0
1031.0
1028.0
1026.0
1029.0
1031.0
1029.0
1025.0
1023.0
1023.0
1027.0
1031.0
1028.0
1025.0
1024.0
1024.0
1024.0
1029.0
1028.0
1024.0
1023.0
1022.0
1023.0
1023.0
1026.0
1022.0
1020.0
1023.0
1022.0
1024.0
1023.0
1021.0
1020.0
1020.0
1021.0
1023.0
1023.0
1018.0
1016.0
1016.0
1017.0
1022.0
1020.0
1019.0
1016.0
1019.0
1020.0
1022.0
1020.0
1018.0
1017.0
1021.0
1021.0
1026.0
1024.0
1021.0
1018.0
1021.0
1020.0
1024.0
1025.0
1023.0
1021.0
1019.0
1020.0
1023.0
1021.0
1020.0
1016.0
1017.0
1019.0
1020.0
1021.0
1020.0
1017.0
1016.0
1020.0
1019.0
1019.0
1021.0
1015.0
1014.0
1017.0
1018.0
1020.0
1018.0
1018.0
1016.0
1017.0
1019.0
1019.0
1014.0
1012.0
1013.0
1015.0
1016.0
1016.0
1012.0
1011.0
1009.0
1014.0
1017.0
1014.0
1014.0
1013.0
1012.0
1013.0
1015.0
1014.0
1012.0
1010.0
1011.0
1013.0
1016.0
1019.0
1016.0
1011.0
1013.0
1016.0
1016.0
1018.0
1014.0
1011.0
1012.0
1013.0
1016.0
1014.0
1013.0
1010.0
1013.0
1016.0
1017.0
1018.0
1012.0
1010.0
1009.0
1015.0
1018.0
1016.0
1014.0
1015.0
1012.0
1013.0
1016.0
1016.0
1014.0
1013.0
1012.0
1016.0
1018.0
1019.0
1013.0
1012.0
1012.0
1014.0
1015.0
1015.0
1014.0
1012.0
1014.0
1011.0
1015.0
1017.0
1012.0
1013.0
1012.0
1016.0
1019.0
1017.0
1016.0
1014.0
1013.0
1017.0
1020.0
1019.0
1016.0
1016.0
1015.0
1017.0
1019.0
1019.0
1020.0
1020.0
1022.0
1025.0
1027.0
1025.0
1022.0
1022.0
1025.0
1026.0
1029.0
1031.0
1026.0
1023.0
1023.0
1025.0
1026.0
1026.0
1021.0
1022.0
1021.0
1022.0
1026.0
1025.0
1022.0
1023.0
1026.0
1028.0
1031.0
1029.0
1023.0
1023.0
1020.0
1021.0
1020.0
1021.0
1018.0
1017.0
1017.0
1018.0
1019.0
1018.0
1017.0
1017.0
1017.0
1019.0
1019.0
1019.0
1017.0
1016.0
1015.0
1018.0
1020.0
1021.0
1016.0
1015.0
1015.0
1017.0
1021.0
1021.0
1016.0
1018.0
1016.0
1018.0
1022.0
1021.0
1021.0
1021.0
1023.0
1026.0
1035.0
1037.0
1046.0
1054.0
1067.0
1076.0
1088.0
1104.0
1124.0
1147.0
1178.0
1207.0
1240.0
1270.0
1299.0
1335.0
1379.0
1415.0
1430.0
1402.0
1332.0
1234.0
1139.0
1072.0
1037.0
1015.0
1011.0
1012.0
1017.0
1018.0
1020.0
1015.0
1011.0
1005.0
1003.0
1003.0
1002.0
1001.0
998.0
998.0
999.0
998.0
1001.0
999.0
997.0
992.0
994.0
996.0
998.0
999.0
994.0
990.0
989.0
993.0
995.0
995.0
992.0
990.0
988.0
991.0
994.0
993.0
990.0
988.0
990.0
990.0
991.0
992.0
991.0
986.0
988.0
990.0
995.0
994.0
990.0
990.0
991.0
992.0
994.0
995.0
991.0
992.0
992.0
992.0
997.0
997.0
992.0
994.0
993.0
997.0
1001.0
1001.0
998.0
993.0
995.0
996.0
998.0
1000.0
999.0
999.0
1000.0
1002.0
1005.0
1006.0
1006.0
1002.0
1006.0
1007.0
1012.0
1013.0
1010.0
1009.0
1011.0
1015.0
1020.0
1021.0
1021.0
1021.0
1024.0
1030.0
1034.0
1033.0
1034.0
1035.0
1038.0
1045.0
1049.0
1050.0
1047.0
1048.0
1050.0
1056.0
1058.0
1057.0
1052.0
1049.0
1051.0
1051.0
1052.0
1051.0
1048.0
1045.0
1041.0
1045.0
1044.0
1041.0
1037.0
1033.0
1032.0
1034.0
1037.0
1034.0
1029.0
1027.0
1027.0
1027.0
1029.0
1029.0
1025.0
1024.0
1025.0
1026.0
1027.0
1026.0
1020.0
1022.0
1022.0
1025.0
1025.0
1025.0
1021.0
1020.0
1017.0
1020.0
1024.0
1022.0
1022.0
1018.0
1020.0
1022.0
1024.0
1021.0
1019.0
1017.0
1016.0
1019.0
1021.0
1023.0
1019.0
1016.0
1018.0
1019.0
1022.0
1019.0
1018.0
1016.0
1020.0
1023.0
1025.0
1023.0
1020.0
1020.0
1020.0
1019.0
1024.0
1022.0
1020.0
1018.0
1022.0
1022.0
1025.0
1022.0
1022.0
1019.0
1019.0
1020.0
1024.0
1019.0
1019.0
1018.0
1020.0
1020.0
1023.0
1020.0
1019.0
1016.0
1016.0
1019.0
1021.0
1019.0
1017.0
1016.0
1015.0
1018.0
1019.0
1018.0
1017.0
1015.0
1015.0
1019.0
1019.0
1019.0
1016.0
1016.0
1017.0
1020.0
1022.0
1020.0
1017.0
1016.0
1016.0
1019.0
1021.0
1019.0
1018.0
1016.0
1018.0
1017.0
1018.0
1016.0
1015.0
1014.0
1015.0
1018.0
1018.0
1019.0
1014.0
1015.0
1014.0
1016.0
1021.0
1019.0
1016.0
1016.0
1013.0
1017.0
1020.0
1019.0
1018.0
1017.0
1015.0
1019.0
1019.0
1019.0
1020.0
1017.0
1019.0
1021.0
1023.0
1022.0
1019.0
1019.0
1018.0
1019.0
1023.0
1023.0
1019.0
1017.0
1020.0
1021.0
1023.0
1022.0
1020.0
1019.0
1022.0
1026.0
1026.0
1026.0
1021.0
1020.0
1019.0
1023.0
1027.0
1027.0
1024.0
1019.0
1020.0
1024.0
1027.0
1023.0
1025.0
1022.0
1024.0
1025.0
1028.0
1026.0
1023.0
1023.0
1022.0
1026.0
1028.0
1029.0
1029.0
1026.0
1025.0
1031.0
1032.0
1032.0
1031.0
1035.0
1032.0
1035.0
1039.0
1039.0
1037.0
1035.0
1037.0
1040.0
1043.0
1042.0
1036.0
1032.0
1031.0
1033.0
1035.0
1035.0
1035.0
1033.0
1033.0
1034.0
1037.0
1038.0
1036.0
1035.0
1038.0
1037.0
1038.0
1035.0
1029.0
1027.0
1026.0
1029.0
1033.0
1030.0
1029.0
1028.0
1024.0
1026.0
1030.0
1031.0
1029.0
1028.0
1027.0
1028.0
1029.0
1029.0
1028.0
1027.0
1025.0
1029.0
1031.0
1030.0
1028.0
1024.0
1024.0
1028.0
1031.0
1032.0
1029.0
1027.0
1028.0
1031.0
1035.0
1033.0
1036.0
1037.0
1042.0
1054.0
1063.0
1075.0
1081.0
1093.0
1107.0
1131.0
1160.0
1192.0
1223.0
1255.0
1285.0
1321.0
1363.0
1410.0
1438.0
1443.0
1404.0
1324.0
1223.0
1129.0
1064.0
1033.0
1024.0
1028.0
1033.0
1033.0
1028.0
1024.0
1020.0
1018.0
1015.0
1012.0
1012.0
1010.0
1008.0
1008.0
1013.0
1010.0
1008.0
1005.0
1007.0
1009.0
1013.0
1008.0
1009.0
1005.0
1005.0
1006.0
1009.0
1011.0
1006.0
1004.0
1004.0
1009.0
1008.0
1006.0
1005.0
1003.0
1003.0
1008.0
1009.0
1005.0
1003.0
1001.0
1000.0
1004.0
1007.0
1005.0
1002.0
1002.0
1003.0
1004.0
1008.0
1006.0
1003.0
1004.0
1005.0
1009.0
1012.0
1008.0
1008.0
1006.0
1004.0
1011.0
1014.0
1012.0
1011.0
1009.0
1010.0
1015.0
1015.0
1015.0
1015.0
1014.0
1016.0
1019.0
1024.0
1023.0
1023.0
1023.0
1026.0
1027.0
1035.0
1036.0
1035.0
1036.0
1038.0
1045.0
1049.0
1054.0
1051.0
1052.0
1058.0
1062.0
1067.0
1069.0
1070.0
1071.0
1072.0
1077.0
1080.0
1080.0
1081.0
1078.0
1078.0
1080.0
1081.0
1076.0
1071.0
1065.0
1066.0
1066.0
1067.0
1062.0
1059.0
1055.0
1052.0
1055.0
1055.0
1050.0
1050.0
1046.0
1046.0
1049.0
1050.0
1045.0
1043.0
1039.0
1041.0
1045.0
1045.0
1045.0
1043.0
1038.0
1040.0
1044.0
1045.0
1044.0
1040.0
1037.0
1037.0
1041.0
1043.0
1042.0
1036.0
1035.0
1037.0
1039.0
1041.0
1039.0
1037.0
1035.0
1037.0
1037.0
1042.0
1039.0
1036.0
1035.0
1037.0
1041.0
1041.0
1041.0
1039.0
1037.0
1037.0
1039.0
1043.0
1041.0
1037.0
1040.0
1037.0
1042.0
1043.0
1044.0
1042.0
1038.0
1039.0
1040.0
1044.0
1044.0
1041.0
1037.0
1040.0
1042.0
1043.0
1040.0
1039.0
1037.0
1038.0
1043.0
1043.0
1040.0
1038.0
1035.0
1035.0
1037.0
1040.0
1041.0
1036.0
1036.0
1035.0
1038.0
1038.0
1039.0
1035.0
1035.0
1037.0
1038.0
1042.0
1039.0
1035.0
1035.0
1032.0
1035.0
1037.0
1038.0
1034.0
1032.0
1033.0
1036.0
1039.0
1038.0
1034.0
1029.0
1031.0
1036.0
1036.0
1036.0
1032.0
1031.0
1031.0
1034.0
1036.0
1035.0
1032.0
1030.0
1033.0
1035.0
1036.0
1035.0
1033.0
1031.0
1031.0
1035.0
1036.0
1035.0
1033.0
1031.0
1030.0
1034.0
1035.0
1035.0
1033.0
1032.0
1032.0
1035.0
1037.0
1035.0
1034.0
1032.0
1032.0
1037.0
1038.0
1035.0
1034.0
1031.0
1032.0
1032.0
1035.0
1035.0
1031.0
1031.0
1033.0
1034.0
1035.0
1037.0
1035.0
1032.0
1035.0
1036.0
1039.0
1037.0
1033.0
1030.0
1034.0
1033.0
1035.0
1034.0
1030.0
1029.0
1033.0
1034.0
1038.0
1037.0
1036.0
1031.0
1033.0
1035.0
1040.0
1038.0
1038.0
1037.0
1038.0
1041.0
1043.0
1041.0
1040.0
1041.0
1042.0
1044.0
1046.0
1046.0
1048.0
1045.0
1043.0
1048.0
1045.0
1042.0
1039.0
1038.0
1041.0
1043.0
1043.0
1043.0
1041.0
1038.0
1043.0
1046.0
1049.0
1044.0
1040.0
1037.0
1038.0
1037.0
1040.0
1037.0
1034.0
1033.0
1034.0
1037.0
1038.0
1038.0
1035.0
1034.0
1033.0
1038.0
1038.0
1035.0
1031.0
1030.0
1032.0
1034.0
1037.0
1035.0
1033.0
1032.0
1033.0
1034.0
1037.0
1037.0
1035.0
1034.0
1032.0
1035.0
1040.0
1039.0
1037.0
1040.0
1043.0
1049.0
1054.0
1061.0
1074.0
1084.0
1094.0
1110.0
1129.0
1154.0
1178.0
1203.0
1231.0
1261.0
1287.0
1315.0
1352.0
1385.0
1420.0
1434.0
1411.0
1349.0
1261.0
1169.0
1103.0
1061.0
1041.0
1029.0
1027.0
1028.0
1032.0
1032.0
1034.0
1030.0
1025.0
1021.0
1018.0
1017.0
1018.0
1017.0
1016.0
1014.0
1014.0
1014.0
1016.0
1014.0
1013.0
1010.0
1011.0
1014.0
1015.0
1010.0
1009.0
1006.0
1007.0
1012.0
1015.0
1012.0
1009.0
1006.0
1008.0
1009.0
1012.0
1009.0
1006.0
1007.0
1003.0
1006.0
1009.0
1009.0
1008.0
1005.0
1007.0
1007.0
1008.0
1006.0
1005.0
1002.0
1002.0
1006.0
1005.0
1008.0
1007.0
1003.0
1005.0
1006.0
1010.0
1007.0
1008.0
1003.0
1005.0
1010.0
1010.0
1012.0
1005.0
1002.0
1006.0
1009.0
1011.0
1011.0
1009.0
1007.0
1009.0
1013.0
1014.0
1017.0
1014.0
1013.0
1016.0
1020.0
1025.0
1023.0
1021.0
1022.0
1024.0
1029.0
1032.0
1036.0
1034.0
1034.0
1035.0
1042.0
1047.0
1049.0
1052.0
1053.0
1052.0
1058.0
1064.0
1063.0
1064.0
1063.0
1064.0
1068.0
1072.0
1069.0
1068.0
1061.0
1062.0
1063.0
1066.0
1062.0
1058.0
1054.0
1052.0
1052.0
1050.0
1049.0
1046.0
1042.0
1044.0
1045.0
1045.0
1044.0
1039.0
1037.0
1037.0
1039.0
1041.0
1042.0
1036.0
1032.0
1036.0
1036.0
1037.0
1036.0
1033.0
1031.0
1033.0
1034.0
1038.0
1034.0
1032.0
1029.0
1030.0
1035.0
1036.0
1034.0
1027.0
1027.0
1028.0
1029.0
1034.0
1033.0
1030.0
1027.0
1029.0
1032.0
1031.0
1029.0
1027.0
1027.0
1030.0
1032.0
1033.0
1031.0
1029.0
1027.0
1028.0
1030.0
1034.0
1032.0
1031.0
1027.0
1027.0
1030.0
1032.0
1032.0
1028.0
1027.0
1028.0
1030.0
1029.0
1030.0
1026.0
1027.0
1027.0
1030.0
1030.0
1026.0
1024.0
1023.0
1024.0
1026.0
1029.0
1029.0
1026.0
1023.0
1023.0
1027.0
1028.0
1023.0
1024.0
1022.0
1023.0
1026.0
1026.0
1026.0
1023.0
1021.0
1024.0
1027.0
1026.0
1026.0
1022.0
1021.0
1021.0
1023.0
1025.0
1023.0
1021.0
1020.0
1019.0
1021.0
1024.0
1024.0
1022.0
1020.0
1022.0
1022.0
1026.0
1024.0
1021.0
1016.0
1022.0
1024.0
1025.0
1024.0
1021.0
1018.0
1020.0
1024.0
1024.0
1024.0
1021.0
1018.0
1021.0
1023.0
1025.0
1025.0
1022.0
1020.0
1023.0
1023.0
1024.0
1025.0
1022.0
1020.0
1021.0
1027.0
1028.0
1025.0
1022.0
1019.0
1022.0
1024.0
1028.0
1026.0
1023.0
1021.0
1024.0
1027.0
1027.0
1026.0
1026.0
1021.0
1024.0
1026.0
1027.0
1025.0
1025.0
1020.0
1022.0
1027.0
1030.0
1027.0
1021.0
1021.0
1024.0
1027.0
