# Simple Text Format
# Sampling Rate (Hz):= 360.00
# Resolution:= 12
# Labels:= ECG
1038.0
1042.0
1042.0
1043.0
1044.0
1042.0
1042.0
1044.0
1045.0
1045.0
1042.0
1042.0
1043.0
1043.0
1045.0
1042.0
1033.0
1034.0
1033.0
1038.0
1038.0
1035.0
1034.0
1032.0
1035.0
1036.0
1035.0
1036.0
1032.0
1033.0
1035.0
1036.0
1038.0
1035.0
1034.0
1034.0
1035.0
1036.0
1038.0
1034.0
1033.0
1033.0
1035.0
1037.0
1037.0
1037.0
1036.0
1033.0
1037.0
1037.0
1039.0
1039.0
1038.0
1041.0
1047.0
1055.0
1061.0
1068.0
1077.0
1085.0
1097.0
1109.0
1129.0
1154.0
1178.0
1207.0
1237.0
1271.0
1299.0
1332.0
1369.0
1405.0
1434.0
1442.0
1422.0
1373.0
1298.0
1209.0
1137.0
1088.0
1053.0
1033.0
1023.0
1023.0
1029.0
1032.0
1035.0
1031.0
1030.0
1029.0
1027.0
1025.0
1023.0
1022.0
1018.0
1014.0
1016.0
1019.0
1017.0
1017.0
1012.0
1012.0
1014.0
1016.0
1016.0
1015.0
1014.0
1013.0
1013.0
1014.0
1016.0
1012.0
1010.0
1009.0
1010.0
1012.0
1011.0
1010.0
1008.0
1008.0
1010.0
1013.0
1012.0
1009.0
1007.0
1006.0
1008.0
1009.0
1009.0
1010.0
1005.0
1004.0
1006.0
1011.0
1011.0
1008.0
1005.0
1005.0
1008.0
1012.0
1012.0
1011.0
1009.0
1008.0
1010.0
1010.0
1009.0
1010.0
1009.0
1010.0
1012.0
1015.0
1015.0
1014.0
1011.0
1011.0
1015.0
1017.0
1020.0
1020.0
1018.0
1019.0
1023.0
1025.0
1028.0
1027.0
1027.0
1027.0
1032.0
1036.0
1038.0
1038.0
1037.0
1038.0
1047.0
1050.0
1056.0
1056.0
1057.0
1058.0
1061.0
1069.0
1074.0
1073.0
1073.0
1075.0
1079.0
1082.0
1083.0
1081.0
1079.0
1080.0
1080.0
1081.0
1080.0
1075.0
1071.0
1069.0
1068.0
1068.0
1066.0
1064.0
1060.0
1056.0
1055.0
1052.0
1052.0
1050.0
1047.0
1046.0
1045.0
1047.0
1046.0
1045.0
1042.0
1043.0
1043.0
1044.0
1048.0
1044.0
1043.0
1042.0
1040.0
1044.0
1043.0
1043.0
1040.0
1038.0
1042.0
1044.0
1041.0
1041.0
1040.0
1037.0
1040.0
1040.0
1042.0
1035.0
1033.0
1033.0
1037.0
1039.0
1040.0
1035.0
1033.0
1031.0
1035.0
1036.0
1037.0
1036.0
1033.0
1036.0
1037.0
1039.0
1039.0
1036.0
1034.0
1035.0
1036.0
1039.0
1040.0
1038.0
1035.0
1034.0
1036.0
1040.0
1040.0
1039.0
1038.0
1033.0
1038.0
1042.0
1040.0
1039.0
1037.0
1035.0
1038.0
1042.0
1040.0
1040.0
1036.0
1035.0
1036.0
1039.0
1038.0
1036.0
1033.0
1034.0
1036.0
1037.0
1038.0
1037.0
1033.0
1030.0
1032.0
1034.0
1037.0
1036.0
1032.0
1030.0
1031.0
1035.0
1035.0
1033.0
1028.0
1027.0
1031.0
1033.0
1032.0
1031.0
1031.0
1029.0
1029.0
1032.0
1033.0
1031.0
1027.0
1030.0
1032.0
1033.0
1035.0
1031.0
1026.0
1028.0
1030.0
1031.0
1034.0
1030.0
1030.0
1030.0
1030.0
1034.0
1033.0
1031.0
1028.0
1028.0
1031.0
1034.0
1033.0
1031.0
1029.0
1028.0
1030.0
1033.0
1032.0
1030.0
1027.0
1026.0
1031.0
1032.0
1032.0
1030.0
1029.0
1028.0
1031.0
1031.0
1031.0
1029.0
1027.0
1027.0
1032.0
1034.0
1034.0
1033.0
1029.0
1029.0
1031.0
1036.0
1037.0
1036.0
1035.0
1036.0
1038.0
1040.0
1042.0
1040.0
1038.0
1042.0
1046.0
1047.0
1049.0
1045.0
1041.0
1039.0
1041.0
1042.0
1041.0
1036.0
1034.0
1033.0
1037.0
1039.0
1042.0
1042.0
1040.0
1042.0
1043.0
1044.0
1042.0
1041.0
1037.0
1035.0
1035.0
1037.0
1035.0
1036.0
1032.0
1030.0
1032.0
1033.0
1035.0
1034.0
1031.0
1027.0
1027.0
1032.0
1034.0
1030.0
1025.0
1028.0
1030.0
1033.0
1032.0
1033.0
1030.0
1027.0
1032.0
1032.0
1034.0
1034.0
1030.0
1032.0
1033.0
1033.0
1036.0
1036.0
1036.0
1036.0
1039.0
1044.0
1046.0
1050.0
1053.0
1064.0
1076.0
1088.0
1098.0
1105.0
1123.0
1145.0
1176.0
1205.0
1227.0
1250.0
1276.0
1305.0
1342.0
1379.0
1405.0
1414.0
1395.0
1342.0
1270.0
1186.0
1114.0
1063.0
1034.0
1020.0
1019.0
1026.0
1028.0
1029.0
1025.0
1024.0
1027.0
1028.0
1026.0
1018.0
1016.0
1015.0
1017.0
1018.0
1018.0
1015.0
1011.0
1013.0
1014.0
1016.0
1018.0
1016.0
1010.0
1012.0
1012.0
1015.0
1015.0
1012.0
1010.0
1011.0
1009.0
1013.0
1014.0
1009.0
1004.0
1006.0
1006.0
1008.0
1010.0
1007.0
1005.0
1004.0
1004.0
1005.0
1009.0
1006.0
1006.0
1005.0
1008.0
1009.0
1009.0
1005.0
1004.0
1002.0
1004.0
1010.0
1006.0
1006.0
1004.0
1005.0
1006.0
1008.0
1007.0
1009.0
1005.0
1004.0
1008.0
1009.0
1009.0
1007.0
1005.0
1005.0
1010.0
1012.0
1013.0
1013.0
1009.0
1009.0
1013.0
1016.0
1018.0
1017.0
1015.0
1016.0
1022.0
1023.0
1023.0
1024.0
1023.0
1023.0
1028.0
1031.0
1033.0
1036.0
1033.0
1036.0
1040.0
1045.0
1049.0
1050.0
1052.0
1053.0
1056.0
1063.0
1064.0
1064.0
1064.0
1065.0
1069.0
1071.0
1071.0
1072.0
1067.0
1066.0
1068.0
1069.0
1068.0
1064.0
1060.0
1058.0
1057.0
1059.0
1057.0
1054.0
1047.0
1048.0
1049.0
1050.0
1049.0
1044.0
1040.0
1039.0
1041.0
1042.0
1045.0
1040.0
1038.0
1038.0
1038.0
1040.0
1040.0
1037.0
1036.0
1034.0
1038.0
1040.0
1038.0
1037.0
1033.0
1032.0
1034.0
1035.0
1037.0
1033.0
1030.0
1031.0
1032.0
1032.0
1033.0
1030.0
1026.0
1031.0
1034.0
1036.0
1035.0
1032.0
1028.0
1029.0
1029.0
1032.0
1033.0
1031.0
1029.0
1028.0
1030.0
1030.0
1034.0
1033.0
1031.0
1031.0
1033.0
1036.0
1038.0
1034.0
1030.0
1031.0
1035.0
1036.0
1036.0
1035.0
1035.0
1031.0
1033.0
1035.0
1034.0
1033.0
1034.0
1030.0
1033.0
1035.0
1035.0
1031.0
1029.0
1030.0
1029.0
1034.0
1033.0
1032.0
1029.0
1028.0
1030.0
1033.0
1032.0
1028.0
1030.0
1026.0
1029.0
1032.0
1030.0
1028.0
1024.0
1024.0
1026.0
1031.0
1031.0
1028.0
1026.0
1026.0
1027.0
1031.0
1029.0
1030.0
1024.0
1026.0
1027.0
1029.0
1029.0
1028.0
1026.0
1025.0
1028.0
1034.0
1028.0
1028.0
1025.0
1026.0
1028.0
1030.0
1030.0
1028.0
1024.0
1025.0
1027.0
1029.0
1028.0
1028.0
1025.0
1024.0
1028.0
1029.0
1030.0
1024.0
1023.0
1023.0
1026.0
1029.0
1029.0
1028.0
1024.0
1024.0
1027.0
1028.0
1027.0
1025.0
1024.0
1022.0
1026.0
1029.0
1028.0
1026.0
1022.0
1023.0
1027.0
1029.0
1027.0
1029.0
1024.0
1024.0
1027.0
1027.0
1029.0
1028.0
1025.0
1026.0
1027.0
1033.0
1035.0
1035.0
1033.0
1033.0
1036.0
1038.0
1040.0
1038.0
1038.0
1037.0
1038.0
1041.0
1037.0
1036.0
1031.0
1032.0
1033.0
1034.0
1035.0
1034.0
1032.0
1031.0
1033.0
1036.0
1037.0
1033.0
1034.0
1035.0
1034.0
1038.0
1035.0
1033.0
1028.0
1028.0
1030.0
1028.0
1029.0
1028.0
1024.0
1027.0
1027.0
1029.0
1028.0
1027.0
1024.0
1027.0
1028.0
1028.0
1030.0
1027.0
1025.0
1024.0
1027.0
1029.0
1030.0
1025.0
1022.0
1024.0
1025.0
1028.0
1029.0
1028.0
1024.0
1026.0
1028.0
1032.0
1032.0
1031.0
1030.0
1031.0
1036.0
1042.0
1047.0
1051.0
1059.0
1071.0
1084.0
1094.0
1106.0
1125.0
1148.0
1172.0
1204.0
1233.0
1260.0
1285.0
1312.0
1350.0
1387.0
1421.0
1434.0
1421.0
1380.0
1311.0
1226.0
1146.0
1083.0
1043.0
1020.0
1015.0
1020.0
1024.0
1026.0
1026.0
1023.0
1019.0
1021.0
1017.0
1015.0
1010.0
1009.0
1006.0
1007.0
1011.0
1009.0
1009.0
1003.0
1003.0
1005.0
1007.0
1007.0
1004.0
1003.0
1002.0
1002.0
1004.0
1004.0
1005.0
1000.0
1000.0
1001.0
1003.0
1001.0
999.0
995.0
995.0
998.0
1000.0
1001.0
1001.0
997.0
997.0
998.0
1000.0
1000.0
997.0
995.0
998.0
998.0
1000.0
1000.0
997.0
997.0
1000.0
1003.0
1002.0
1003.0
1001.0
999.0
999.0
1001.0
1003.0
1002.0
1003.0
1003.0
1004.0
1005.0
1008.0
1008.0
1005.0
1007.0
1007.0
1012.0
1014.0
1013.0
1011.0
1014.0
1015.0
1019.0
1024.0
1023.0
1026.0
1025.0
1027.0
1030.0
1034.0
1039.0
1040.0
1040.0
1044.0
1048.0
1052.0
1056.0
1056.0
1059.0
1062.0
1066.0
1072.0
1073.0
1073.0
1071.0
1072.0
1075.0
1077.0
1074.0
1072.0
1071.0
1069.0
1068.0
1067.0
1062.0
1060.0
1057.0
1055.0
1054.0
1054.0
1050.0
1045.0
1040.0
1039.0
1042.0
1045.0
1042.0
1040.0
1034.0
1035.0
1036.0
1039.0
1038.0
1037.0
1033.0
1034.0
1035.0
1038.0
1036.0
1036.0
1032.0
1033.0
1036.0
1037.0
1036.0
1032.0
1030.0
1030.0
1030.0
1031.0
1030.0
1031.0
1029.0
1027.0
1028.0
1031.0
1031.0
1029.0
1028.0
1027.0
1027.0
1030.0
1029.0
1027.0
1025.0
1025.0
1027.0
1029.0
1029.0
1027.0
1024.0
1025.0
1026.0
1029.0
1029.0
1027.0
1023.0
1026.0
1029.0
1029.0
1029.0
1024.0
1024.0
1026.0
1031.0
1032.0
1030.0
1030.0
1029.0
1028.0
1031.0
1033.0
1032.0
1029.0
1029.0
1027.0
1029.0
1031.0
1031.0
1029.0
1026.0
1031.0
1030.0
1034.0
1032.0
1026.0
1025.0
1026.0
1029.0
1031.0
1029.0
1028.0
1025.0
1023.0
1028.0
1030.0
1030.0
1026.0
1025.0
1025.0
1028.0
1031.0
1028.0
1024.0
1024.0
1024.0
1027.0
1026.0
1029.0
1023.0
1021.0
1020.0
1023.0
1025.0
1026.0
1024.0
1021.0
1022.0
1025.0
1026.0
1026.0
1025.0
1023.0
1024.0
1024.0
1027.0
1026.0
1027.0
1021.0
1022.0
1024.0
1030.0
1029.0
1026.0
1023.0
1023.0
1027.0
1028.0
1030.0
1028.0
1025.0
1025.0
1025.0
1029.0
1028.0
1028.0
1027.0
1026.0
1030.0
1032.0
1030.0
1027.0
1026.0
1027.0
1028.0
1030.0
1029.0
1028.0
1025.0
1026.0
1028.0
1031.0
1031.0
1030.0
1028.0
1027.0
1031.0
1034.0
1035.0
1032.0
1033.0
1035.0
1037.0
1039.0
1038.0
1039.0
1036.0
1039.0
1041.0
1045.0
1042.0
1039.0
1036.0
1033.0
1035.0
1036.0
1035.0
1034.0
1031.0
1032.0
1036.0
1037.0
1041.0
1039.0
1034.0
1038.0
1039.0
1039.0
1035.0
1029.0
1027.0
1027.0
1026.0
1032.0
1031.0
1029.0
1027.0
1027.0
1029.0
1030.0
1031.0
1027.0
1025.0
1027.0
1028.0
1032.0
1031.0
1027.0
1023.0
1023.0
1027.0
1031.0
1029.0
1027.0
1027.0
1027.0
1029.0
1031.0
1030.0
1029.0
1028.0
1031.0
1033.0
1041.0
1044.0
1048.0
1054.0
1067.0
1083.0
1094.0
1109.0
1125.0
1145.0
1178.0
1209.0
1239.0
1267.0
1297.0
1328.0
1374.0
1414.0
1437.0
1419.0
1356.0
1261.0
1161.0
1082.0
1044.0
1023.0
1016.0
1019.0
1025.0
1031.0
1030.0
1030.0
1026.0
1020.0
1018.0
1017.0
1019.0
1016.0
1015.0
1012.0
1010.0
1012.0
1015.0
1016.0
1014.0
1011.0
1012.0
1015.0
1016.0
1013.0
1011.0
1009.0
1009.0
1011.0
1015.0
1013.0
1011.0
1005.0
1008.0
1011.0
1011.0
1010.0
1009.0
1008.0
1008.0
1009.0
1011.0
1007.0
1007.0
1004.0
1006.0
1008.0
1009.0
1008.0
1004.0
1005.0
1005.0
1007.0
1010.0
1008.0
1008.0
1003.0
1006.0
1008.0
1009.0
1007.0
1009.0
1007.0
1007.0
1012.0
1013.0
1012.0
1010.0
1008.0
1008.0
1012.0
1015.0
1015.0
1011.0
1010.0
1014.0
1016.0
1020.0
1020.0
1021.0
1020.0
1022.0
1025.0
1029.0
1029.0
1030.0
1031.0
1035.0
1040.0
1047.0
1046.0
1047.0
1046.0
1049.0
1058.0
1065.0
1065.0
1065.0
1065.0
1070.0
1072.0
1076.0
1074.0
1074.0
1071.0
1070.0
1071.0
1071.0
1068.0
1063.0
1058.0
1057.0
1055.0
1054.0
1050.0
1045.0
1041.0
1038.0
1041.0
1043.0
1042.0
1036.0
1033.0
1033.0
1033.0
1035.0
1036.0
1032.0
1028.0
1029.0
1031.0
1033.0
1032.0
1030.0
1030.0
1030.0
1032.0
1033.0
1029.0
1027.0
1024.0
1026.0
1027.0
1030.0
1030.0
1027.0
1023.0
1023.0
1024.0
1027.0
1027.0
1023.0
1023.0
1021.0
1024.0
1026.0
1026.0
1022.0
1019.0
1022.0
1023.0
1025.0
1023.0
1021.0
1019.0
1019.0
1024.0
1028.0
1026.0
1026.0
1022.0
1023.0
1025.0
1026.0
1025.0
1025.0
1023.0
1025.0
1025.0
1026.0
1025.0
1024.0
1022.0
1021.0
1025.0
1026.0
1022.0
1021.0
1018.0
1020.0
1018.0
1023.0
1023.0
1022.0
1020.0
1021.0
1023.0
1025.0
1023.0
1019.0
1020.0
1019.0
1019.0
1023.0
1020.0
1017.0
1016.0
1016.0
1021.0
1021.0
1018.0
1018.0
1014.0
1016.0
1018.0
1019.0
1019.0
1018.0
1014.0
1014.0
1016.0
1017.0
1018.0
1016.0
1014.0
1015.0
1018.0
1018.0
1020.0
1016.0
1012.0
1014.0
1014.0
1016.0
1018.0
1014.0
1011.0
1013.0
1014.0
1016.0
1018.0
1016.0
1013.0
1012.0
1014.0
1017.0
1017.0
1013.0
1011.0
1012.0
1015.0
1016.0
1015.0
1013.0
1012.0
1015.0
1015.0
1015.0
1014.0
1013.0
1010.0
1010.0
1011.0
1016.0
1015.0
1011.0
1011.0
1013.0
1016.0
1018.0
1015.0
1013.0
1008.0
1011.0
1014.0
1016.0
1016.0
1013.0
1011.0
1009.0
1016.0
1020.0
1019.0
1017.0
1020.0
1021.0
1023.0
1025.0
1023.0
1023.0
1024.0
1025.0
1028.0
1032.0
1030.0
1028.0
1022.0
1022.0
1023.0
1024.0
1023.0
1021.0
1020.0
1020.0
1021.0
1025.0
1026.0
1021.0
1023.0
1022.0
1026.0
1028.0
1026.0
1023.0
1019.0
1018.0
1018.0
1019.0
1017.0
1015.0
1011.0
1016.0
1016.0
1019.0
1018.0
1016.0
1015.0
1015.0
1018.0
1018.0
1017.0
1014.0
1012.0
1011.0
1016.0
1019.0
1018.0
1014.0
1014.0
1015.0
1015.0
1019.0
1018.0
1017.0
1016.0
1015.0
1019.0
1022.0
1020.0
1017.0
1013.0
1016.0
1021.0
1025.0
1029.0
1030.0
1034.0
1042.0
1052.0
1069.0
1077.0
1087.0
1100.0
1125.0
1155.0
1186.0
1214.0
1238.0
1264.0
1301.0
1346.0
1386.0
1409.0
1404.0
1360.0
1278.0
1183.0
1104.0
1048.0
1015.0
998.0
1003.0
1012.0
1016.0
1015.0
1013.0
1010.0
1009.0
1006.0
1005.0
1003.0
999.0
999.0
996.0
995.0
1000.0
1000.0
996.0
994.0
996.0
999.0
1001.0
998.0
995.0
991.0
994.0
995.0
997.0
997.0
995.0
992.0
991.0
993.0
992.0
994.0
991.0
989.0
988.0
992.0
992.0
991.0
989.0
988.0
988.0
991.0
992.0
991.0
988.0
988.0
989.0
990.0
995.0
993.0
989.0
987.0
989.0
990.0
996.0
995.0
993.0
989.0
989.0
994.0
997.0
997.0
994.0
994.0
995.0
998.0
1000.0
1000.0
998.0
997.0
1001.0
1006.0
1009.0
1006.0
1007.0
1008.0
1010.0
1016.0
1021.0
1022.0
1022.0
1022.0
1026.0
1030.0
1034.0
1037.0
1038.0
1039.0
1042.0
1047.0
1052.0
1051.0
1049.0
1050.0
1054.0
1055.0
1055.0
1053.0
1049.0
1043.0
1044.0
1045.0
1046.0
1040.0
1034.0
1028.0
1027.0
1028.0
1029.0
1028.0
1024.0
1021.0
1020.0
1020.0
1024.0
1023.0
1021.0
1017.0
1018.0
1022.0
1022.0
1020.0
1015.0
1014.0
1012.0
1014.0
1018.0
1019.0
1013.0
1011.0
1014.0
1015.0
1015.0
1015.0
1011.0
1012.0
1010.0
1014.0
1016.0
1013.0
1012.0
1009.0
1009.0
1013.0
1016.0
1014.0
1010.0
1011.0
1011.0
1015.0
1018.0
1018.0
1014.0
1014.0
1012.0
1017.0
1015.0
1018.0
1018.0
1016.0
1014.0
1017.0
1019.0
1016.0
1016.0
1012.0
1013.0
1017.0
1016.0
1017.0
1014.0
1011.0
1013.0
1013.0
1016.0
1016.0
1013.0
1008.0
1008.0
1011.0
1013.0
1013.0
1014.0
1009.0
1010.0
1011.0
1013.0
1013.0
1009.0
1008.0
1007.0
1010.0
1012.0
1012.0
1010.0
1009.0
1008.0
1009.0
1010.0
1011.0
1006.0
1005.0
1008.0
1009.0
1013.0
1009.0
1005.0
1006.0
1005.0
1007.0
1011.0
1008.0
1004.0
1003.0
1004.0
1008.0
1011.0
1010.0
1006.0
1006.0
1005.0
1008.0
1009.0
1009.0
1007.0
1004.0
1006.0
1009.0
1010.0
1009.0
1007.0
1004.0
1007.0
1008.0
1012.0
1011.0
1007.0
1006.0
1005.0
1008.0
1009.0
1012.0
1011.0
1007.0
1009.0
1011.0
1011.0
1011.0
1008.0
1006.0
1009.0
1013.0
1013.0
1013.0
1012.0
1008.0
1009.0
1013.0
1015.0
1013.0
1010.0
1011.0
1010.0
1012.0
1016.0
1012.0
1011.0
1010.0
1013.0
1012.0
1019.0
1021.0
1016.0
1015.0
1017.0
1021.0
1025.0
1025.0
1023.0
1020.0
1022.0
1026.0
1030.0
1030.0
1027.0
1023.0
1025.0
1026.0
1023.0
1023.0
1020.0
1018.0
1019.0
1024.0
1026.0
1025.0
1021.0
1018.0
1020.0
1025.0
1028.0
1029.0
1027.0
1025.0
1023.0
1024.0
1023.0
1022.0
1017.0
1015.0
1016.0
1020.0
1022.0
1023.0
1019.0
1017.0
1020.0
1018.0
1021.0
1022.0
1020.0
1016.0
1018.0
1017.0
1021.0
1021.0
1019.0
1017.0
1016.0
1020.0
1020.0
1019.0
1017.0
1017.0
1018.0
1023.0
1022.0
1022.0
1017.0
1016.0
1018.0
1022.0
1025.0
1023.0
1024.0
1023.0
1029.0
1038.0
1043.0
1052.0
1060.0
1068.0
1078.0
1090.0
1106.0
1125.0
1145.0
1168.0
1196.0
1224.0
1252.0
1277.0
1304.0
1337.0
1377.0
1415.0
1432.0
1423.0
1382.0
1312.0
1230.0
1156.0
1097.0
1053.0
1022.0
1009.0
1009.0
1014.0
1021.0
1023.0
1018.0
1017.0
1013.0
1017.0
1015.0
1010.0
1008.0
1002.0
1002.0
1004.0
1007.0
1006.0
999.0
999.0
1000.0
1003.0
1003.0
1003.0
1001.0
999.0
999.0
1002.0
1006.0
1003.0
1001.0
996.0
999.0
1002.0
1002.0
1002.0
998.0
996.0
998.0
1000.0
1001.0
999.0
997.0
996.0
995.0
998.0
1001.0
999.0
997.0
993.0
995.0
1000.0
1003.0
1001.0
998.0
997.0
998.0
1002.0
1003.0
1003.0
1000.0
998.0
1001.0
1003.0
1004.0
1004.0
1004.0
1001.0
1002.0
1005.0
1007.0
1004.0
1003.0
1004.0
1004.0
1006.0
1008.0
1009.0
1006.0
1006.0
1007.0
1011.0
1012.0
1012.0
1012.0
1009.0
1012.0
1018.0
1023.0
1023.0
1019.0
1021.0
1024.0
1027.0
1035.0
1034.0
1036.0
1038.0
1042.0
1046.0
1051.0
1052.0
1051.0
1054.0
1056.0
1065.0
1068.0
1068.0
1070.0
1067.0
1070.0
1070.0
1073.0
1074.0
1069.0
1069.0
1069.0
1068.0
1069.0
1067.0
1062.0
1058.0
1057.0
1059.0
1057.0
1054.0
1047.0
1045.0
1040.0
1044.0
1045.0
1041.0
1039.0
1035.0
1036.0
1038.0
1036.0
1036.0
1035.0
1030.0
1031.0
1034.0
1036.0
1035.0
1033.0
1029.0
1031.0
1035.0
1037.0
1035.0
1034.0
1030.0
1029.0
1031.0
1033.0
1034.0
1029.0
1027.0
1028.0
1033.0
1034.0
1031.0
1028.0
1029.0
1028.0
1030.0
1033.0
1029.0
1028.0
1023.0
1026.0
1030.0
1030.0
1027.0
1027.0
1024.0
1027.0
1030.0
1032.0
1029.0
1028.0
1026.0
1026.0
1030.0
1033.0
1033.0
1029.0
1029.0
1031.0
1034.0
1034.0
1036.0
1033.0
1028.0
1032.0
1034.0
1035.0
1034.0
1032.0
1031.0
1031.0
1034.0
1036.0
1035.0
1033.0
1030.0
1031.0
1034.0
1036.0
1034.0
1032.0
1028.0
1033.0
1034.0
1034.0
1034.0
1033.0
1029.0
1034.0
1034.0
1034.0
1034.0
1028.0
1028.0
1029.0
1033.0
1033.0
1033.0
1030.0
1031.0
1030.0
1031.0
1032.0
1032.0
1029.0
1028.0
1026.0
1030.0
1033.0
1031.0
1030.0
1026.0
1025.0
1028.0
1029.0
1030.0
1031.0
1027.0
1028.0
1028.0
1029.0
1028.0
1027.0
1027.0
1026.0
1028.0
1030.0
1028.0
1027.0
1027.0
1028.0
1030.0
1029.0
1029.0
1024.0
1024.0
1026.0
1025.0
1030.0
1030.0
1028.0
1025.0
1026.0
1026.0
1027.0
1025.0
1023.0
1023.0
1025.0
1026.0
1028.0
1029.0
1026.0
1020.0
1023.0
1024.0
1029.0
1028.0
1024.0
1022.0
1026.0
1027.0
1028.0
1027.0
1025.0
1022.0
1026.0
1029.0
1029.0
1027.0
1024.0
1025.0
1026.0
1029.0
1032.0
1033.0
1031.0
1031.0
1032.0
1033.0
1037.0
1037.0
1035.0
1033.0
1035.0
1039.0
1040.0
1038.0
1039.0
1035.0
1039.0
1039.0
1041.0
1038.0
1033.0
1031.0
1028.0
1032.0
1034.0
1036.0
1033.0
1032.0
1030.0
1034.0
1038.0
1038.0
1035.0
1035.0
1036.0
1039.0
1039.0
1036.0
1029.0
1027.0
1026.0
1027.0
1031.0
1029.0
1028.0
1025.0
1026.0
1029.0
1031.0
1028.0
1026.0
1025.0
1025.0
1029.0
1027.0
1028.0
1023.0
1024.0
1024.0
1027.0
1030.0
1028.0
1027.0
1025.0
1025.0
1029.0
1029.0
1030.0
1027.0
1026.0
1027.0
1031.0
1032.0
1031.0
1028.0
1028.0
1032.0
1038.0
1044.0
1047.0
1052.0
1059.0
1073.0
1081.0
1096.0
1104.0
1118.0
1139.0
1161.0
1186.0
1213.0
1235.0
1256.0
1280.0
1315.0
1356.0
1391.0
1412.0
1405.0
1370.0
1305.0
1222.0
1138.0
1077.0
1036.0
1019.0
1015.0
1021.0
1026.0
1024.0
1021.0
1018.0
1019.0
1022.0
1019.0
1016.0
1013.0
1009.0
1011.0
1010.0
1012.0
1010.0
1006.0
1005.0
1008.0
1008.0
1010.0
1006.0
1005.0
1003.0
1005.0
1009.0
1010.0
1010.0
1006.0
1002.0
1004.0
1006.0
1008.0
1003.0
1003.0
999.0
1002.0
1003.0
1006.0
1006.0
1003.0
1000.0
999.0
1002.0
1004.0
1003.0
998.0
999.0
1000.0
1002.0
1008.0
1005.0
1002.0
999.0
1000.0
1003.0
1003.0
1002.0
1002.0
999.0
1002.0
1004.0
1005.0
1006.0
1001.0
1001.0
1003.0
1007.0
1009.0
1008.0
1004.0
1003.0
1003.0
1008.0
1009.0
1008.0
1005.0
1006.0
1006.0
1012.0
1014.0
1017.0
1012.0
1013.0
1018.0
1017.0
1024.0
1025.0
1025.0
1024.0
1025.0
1032.0
1037.0
1038.0
1040.0
1041.0
1047.0
1050.0
1054.0
1056.0
1056.0
1057.0
1059.0
1062.0
1068.0
1068.0
1065.0
1064.0
1064.0
1068.0
1067.0
1064.0
1062.0
1060.0
1058.0
1057.0
1057.0
1053.0
1049.0
1045.0
1046.0
1046.0
1046.0
1041.0
1039.0
1034.0
1035.0
1039.0
1041.0
1038.0
1034.0
1032.0
1033.0
1034.0
1036.0
1035.0
1032.0
1029.0
1031.0
1032.0
1034.0
1031.0
1028.0
1027.0
1027.0
1029.0
1033.0
1031.0
1026.0
1025.0
1027.0
1028.0
1031.0
1029.0
1025.0
1023.0
1025.0
1026.0
1028.0
1027.0
1022.0
1022.0
1020.0
1024.0
1028.0
1025.0
1023.0
1019.0
1024.0
1024.0
1030.0
1028.0
1025.0
1023.0
1023.0
1026.0
1026.0
1026.0
1026.0
1024.0
1025.0
1027.0
1026.0
1025.0
1025.0
1021.0
1023.0
1026.0
1030.0
1028.0
1024.0
1023.0
1025.0
1025.0
1028.0
1026.0
1021.0
1021.0
1022.0
1023.0
1025.0
1021.0
1021.0
1019.0
1021.0
1023.0
1024.0
1022.0
1021.0
1018.0
1020.0
1022.0
1026.0
1023.0
1019.0
1017.0
1020.0
1025.0
1022.0
1023.0
1019.0
1018.0
1020.0
1021.0
1024.0
1024.0
1020.0
1020.0
1022.0
1023.0
1025.0
1021.0
1017.0
1017.0
1019.0
1021.0
1022.0
1021.0
1017.0
1017.0
1017.0
1019.0
1021.0
1019.0
1016.0
1016.0
1018.0
1019.0
1021.0
1017.0
1015.0
1014.0
1015.0
1018.0
1020.0
1018.0
1017.0
1016.0
1016.0
1019.0
1022.0
1020.0
1019.0
1016.0
1019.0
1020.0
1020.0
1019.0
1016.0
1016.0
1017.0
1020.0
1022.0
1019.0
1017.0
1016.0
1018.0
1021.0
1020.0
1022.0
1021.0
1018.0
1018.0
1020.0
1023.0
1022.0
1017.0
1018.0
1019.0
1023.0
1024.0
1023.0
1021.0
1020.0
1021.0
1022.0
1026.0
1024.0
1023.0
1025.0
1028.0
1030.0
1031.0
1032.0
1027.0
1030.0
1033.0
1035.0
1038.0
1035.0
1032.0
1032.0
1032.0
1033.0
1032.0
1030.0
1026.0
1025.0
1027.0
1028.0
1028.0
1028.0
1029.0
1027.0
1029.0
1032.0
1035.0
1031.0
1030.0
1028.0
1028.0
1030.0
1032.0
1028.0
1025.0
1022.0
1020.0
1022.0
1024.0
1023.0
1022.0
1021.0
1022.0
1024.0
1024.0
1022.0
1022.0
1019.0
1023.0
1022.0
1026.0
1022.0
1020.0
1018.0
1021.0
1024.0
1025.0
1022.0
1022.0
1019.0
1023.0
1025.0
1025.0
1024.0
1021.0
1019.0
1022.0
1027.0
1027.0
1027.0
1026.0
1024.0
1030.0
1039.0
1043.0
1050.0
1059.0
1067.0
1077.0
1086.0
1102.0
1121.0
1143.0
1169.0
1197.0
1227.0
1256.0
1283.0
1315.0
1357.0
1399.0
1423.0
1420.0
1381.0
1302.0
1213.0
1130.0
1069.0
1035.0
1016.0
1008.0
1010.0
1017.0
1020.0
1022.0
1023.0
1017.0
1014.0
1011.0
1012.0
1012.0
1008.0
1004.0
1003.0
1004.0
1006.0
1008.0
1005.0
1002.0
1002.0
1004.0
1005.0
1007.0
1004.0
1001.0
1001.0
1003.0
1007.0
1006.0
1003.0
998.0
998.0
998.0
1000.0
1002.0
1001.0
999.0
998.0
997.0
1000.0
1001.0
999.0
995.0
996.0
1000.0
1001.0
1000.0
999.0
995.0
996.0
996.0
1001.0
1002.0
1001.0
999.0
998.0
1000.0
998.0
1003.0
1001.0
999.0
999.0
1000.0
1001.0
1004.0
1002.0
998.0
1000.0
1002.0
1005.0
1009.0
1006.0
1005.0
1001.0
1006.0
1009.0
1012.0
1011.0
1011.0
1009.0
1014.0
1019.0
1021.0
1019.0
1022.0
1021.0
1025.0
1028.0
1033.0
1035.0
1036.0
1038.0
1043.0
1045.0
1050.0
1052.0
1056.0
1053.0
1059.0
1063.0
1068.0
1069.0
1068.0
1067.0
1070.0
1072.0
1070.0
1065.0
1062.0
1060.0
1057.0
1059.0
1055.0
1051.0
1043.0
1041.0
1041.0
1042.0
1042.0
1039.0
1035.0
1031.0
1034.0
1033.0
1035.0
1030.0
1030.0
1028.0
1028.0
1030.0
1031.0
1032.0
1030.0
1027.0
1030.0
1031.0
1031.0
1029.0
1026.0
1025.0
1027.0
1028.0
1030.0
1031.0
1027.0
1026.0
1027.0
1029.0
1031.0
1030.0
1028.0
1027.0
1028.0
1030.0
1030.0
1029.0
1024.0
1026.0
1029.0
1028.0
1031.0
1030.0
1028.0
1026.0
1027.0
1032.0
1032.0
1030.0
1028.0
1027.0
1030.0
1031.0
1032.0
1031.0
1030.0
1029.0
1031.0
1035.0
1035.0
1031.0
1029.0
1028.0
1031.0
1033.0
1032.0
1033.0
1034.0
1031.0
1033.0
1034.0
1032.0
1032.0
1030.0
1028.0
1032.0
1032.0
1033.0
1033.0
1030.0
1028.0
1029.0
1030.0
1032.0
1033.0
1029.0
1026.0
1030.0
1031.0
1029.0
1031.0
1024.0
1024.0
1028.0
1031.0
1029.0
1029.0
1024.0
1024.0
1028.0
1027.0
1028.0
1028.0
1026.0
1025.0
1024.0
1025.0
1028.0
1025.0
1024.0
1024.0
1024.0
1028.0
1030.0
1026.0
1025.0
1022.0
1025.0
1027.0
1027.0
1026.0
1026.0
1025.0
1025.0
1028.0
1029.0
1026.0
1023.0
1022.0
1024.0
1027.0
1028.0
1025.0
1026.0
1025.0
1026.0
1029.0
1028.0
1030.0
1026.0
1025.0
1026.0
1029.0
1029.0
1029.0
1025.0
1026.0
1027.0
1028.0
1030.0
1027.0
1024.0
1023.0
1026.0
1030.0
1029.0
1029.0
1027.0
1024.0
1028.0
1029.0
1030.0
1028.0
1026.0
1024.0
1027.0
1031.0
1029.0
1030.0
1028.0
1025.0
1028.0
1031.0
1033.0
1028.0
1027.0
1027.0
1029.0
1028.0
1034.0
1032.0
1029.0
1029.0
1031.0
1034.0
1035.0
1035.0
1032.0
1035.0
1036.0
1039.0
1041.0
1040.0
1038.0
1040.0
1040.0
1044.0
1047.0
1045.0
1042.0
1040.0
1042.0
1042.0
1042.0
1039.0
1034.0
1033.0
1034.0
1037.0
1039.0
1034.0
1035.0
1033.0
1036.0
1042.0
1044.0
1040.0
1037.0
1036.0
1037.0
1038.0
1037.0
1032.0
1031.0
1029.0
1031.0
1035.0
1035.0
1031.0
1029.0
1028.0
1028.0
1035.0
1035.0
1032.0
1027.0
1029.0
1029.0
1033.0
1033.0
1032.0
1029.0
1027.0
1028.0
1032.0
1035.0
1033.0
1029.0
1026.0
1031.0
1033.0
1032.0
1030.0
1029.0
1030.0
1038.0
1036.0
1043.0
1045.0
1044.0
1050.0
1063.0
1076.0
1089.0
1097.0
1106.0
1123.0
1148.0
1178.0
1207.0
1232.0
1257.0
1285.0
1318.0
1356.0
1398.0
1435.0
1445.0
1427.0
1373.0
1287.0
1191.0
1110.0
1059.0
1030.0
1021.0
1025.0
1031.0
1034.0
1030.0
1027.0
1026.0
1027.0
1025.0
1021.0
1015.0
1015.0
1015.0
1016.0
1015.0
1013.0
1011.0
1012.0
1012.0
1016.0
1015.0
1013.0
1010.0
1010.0
1011.0
1016.0
1014.0
1011.0
1011.0
1011.0
1010.0
1012.0
1013.0
1011.0
1008.0
1005.0
1006.0
1010.0
1011.0
1008.0
1007.0
1005.0
1007.0
1010.0
1011.0
1011.0
1006.0
1005.0
1010.0
1012.0
1011.0
1009.0
1010.0
1006.0
1011.0
1014.0
1014.0
1012.0
1009.0
1008.0
1008.0
1013.0
1012.0
1014.0
1012.0
1010.0
1012.0
1013.0
1013.0
1014.0
1012.0
1013.0
1014.0
1018.0
1019.0
1019.0
1017.0
1015.0
1020.0
1023.0
1025.0
1026.0
1026.0
1026.0
1028.0
1037.0
1037.0
1039.0
1037.0
1038.0
1044.0
1048.0
1051.0
1051.0
1054.0
1057.0
1063.0
1068.0
1073.0
1072.0
1074.0
1074.0
1078.0
1081.0
1081.0
1082.0
1081.0
1079.0
1080.0
1080.0
1078.0
1075.0
1072.0
1069.0
1070.0
1068.0
1067.0
1061.0
1056.0
1054.0
1055.0
1056.0
1054.0
1052.0
1047.0
1044.0
1045.0
1047.0
1046.0
1045.0
1041.0
1042.0
1041.0
1044.0
1047.0
1042.0
1040.0
1040.0
1043.0
1044.0
1043.0
1040.0
1039.0
1037.0
1037.0
1039.0
1041.0
1039.0
1036.0
1035.0
1037.0
1037.0
1040.0
1035.0
1036.0
1033.0
1037.0
1036.0
1036.0
1034.0
1031.0
1032.0
1035.0
1038.0
1038.0
1035.0
1033.0
1034.0
1037.0
1037.0
1040.0
1038.0
1036.0
1036.0
1036.0
1039.0
1040.0
1040.0
1039.0
1036.0
1039.0
1040.0
1041.0
1038.0
1037.0
1039.0
1040.0
1044.0
1042.0
1041.0
1036.0
1036.0
1041.0
1043.0
1043.0
1042.0
1035.0
1037.0
1040.0
1041.0
1042.0
1039.0
1037.0
1035.0
1038.0
1041.0
1039.0
1036.0
1034.0
1035.0
1035.0
1037.0
1038.0
1036.0
1033.0
1033.0
1033.0
1038.0
1037.0
1036.0
1033.0
1032.0
1035.0
1036.0
1036.0
1033.0
1031.0
1030.0
1034.0
1035.0
1037.0
1034.0
1033.0
1030.0
1033.0
1035.0
1035.0
1032.0
1031.0
1028.0
1032.0
1033.0
1035.0
1032.0
1030.0
1028.0
1032.0
1037.0
1033.0
1034.0
1029.0
1030.0
1034.0
1032.0
1035.0
1034.0
1031.0
1031.0
1034.0
1037.0
1034.0
1033.0
1032.0
1033.0
1032.0
1038.0
1037.0
1035.0
1031.0
1032.0
1034.0
1037.0
1036.0
1035.0
1031.0
1034.0
1034.0
1038.0
1039.0
1036.0
1034.0
1034.0
1038.0
1038.0
1042.0
1038.0
1036.0
1036.0
1038.0
1042.0
1042.0
1040.0
1036.0
1038.0
1040.0
1044.0
1044.0
1045.0
1045.0
1045.0
1045.0
1049.0
1051.0
1050.0
1047.0
1047.0
1050.0
1049.0
1046.0
1043.0
1039.0
1039.0
1042.0
1045.0
1046.0
1042.0
1038.0
1040.0
1043.0
1049.0
1049.0
1047.0
1044.0
1042.0
1045.0
1044.0
1041.0
1038.0
1034.0
1033.0
1038.0
1040.0
1041.0
1038.0
1035.0
1033.0
1036.0
1039.0
1039.0
1037.0
1033.0
1032.0
1034.0
1039.0
1039.0
1036.0
1034.0
1034.0
1035.0
1037.0
1035.0
1035.0
1033.0
1031.0
1036.0
1038.0
1038.0
1037.0
1036.0
1037.0
1039.0
1044.0
1046.0
1048.0
1049.0
1053.0
1066.0
1078.0
1089.0
1095.0
1103.0
1120.0
1144.0
1172.0
1199.0
1223.0
1247.0
1274.0
1307.0
1348.0
1388.0
1416.0
1416.0
1382.0
1314.0
1226.0
1139.0
1074.0
1040.0
1027.0
1022.0
