# Simple Text Format
# Sampling Rate (Hz):= 360.00
# Resolution:= 12
# Labels:= ECG
1004.0
1000.0
997.0
997.0
998.0
1002.0
1002.0
998.0
998.0
992.0
998.0
1000.0
1001.0
1000.0
997.0
998.0
999.0
1002.0
1000.0
997.0
998.0
998.0
1001.0
1005.0
1004.0
1004.0
1000.0
1003.0
1004.0
1007.0
1009.0
1005.0
1007.0
1005.0
1008.0
1013.0
1015.0
1016.0
1015.0
1019.0
1023.0
1026.0
1029.0
1032.0
1033.0
1036.0
1044.0
1047.0
1050.0
1054.0
1058.0
1059.0
1068.0
1071.0
1075.0
1071.0
1071.0
1072.0
1073.0
1074.0
1075.0
1073.0
1067.0
1066.0
1065.0
1065.0
1064.0
1061.0
1056.0
1054.0
1054.0
1053.0
1053.0
1049.0
1044.0
1044.0
1045.0
1046.0
1046.0
1044.0
1038.0
1039.0
1040.0
1045.0
1042.0
1042.0
1043.0
1042.0
1044.0
1045.0
1043.0
1043.0
1040.0
1039.0
1041.0
1044.0
1044.0
1039.0
1037.0
1035.0
1038.0
1039.0
1039.0
1038.0
1036.0
1035.0
1035.0
1040.0
1037.0
1036.0
1033.0
1033.0
1035.0
1037.0
1035.0
1034.0
1031.0
1034.0
1034.0
1037.0
1036.0
1034.0
1034.0
1030.0
1034.0
1037.0
1035.0
1036.0
1035.0
1038.0
1040.0
1041.0
1042.0
1039.0
1036.0
1035.0
1039.0
1043.0
1044.0
1040.0
1038.0
1038.0
1039.0
1043.0
1041.0
1040.0
1038.0
1038.0
1042.0
1043.0
1041.0
1040.0
1039.0
1041.0
1041.0
1042.0
1042.0
1042.0
1038.0
1038.0
1041.0
1041.0
1043.0
1042.0
1035.0
1037.0
1039.0
1041.0
1042.0
1040.0
1038.0
1039.0
1041.0
1043.0
1043.0
1037.0
1039.0
1036.0
1041.0
1044.0
1042.0
1039.0
1036.0
1036.0
1037.0
1041.0
1042.0
1041.0
1039.0
1038.0
1038.0
1039.0
1038.0
1038.0
1036.0
1039.0
1042.0
1044.0
1045.0
1043.0
1039.0
1040.0
1043.0
1043.0
1044.0
1038.0
1039.0
1039.0
1043.0
1044.0
1042.0
1042.0
1042.0
1039.0
1042.0
1045.0
1045.0
1039.0
1038.0
1040.0
1045.0
1046.0
1049.0
1044.0
1040.0
1039.0
1043.0
1047.0
1045.0
1046.0
1043.0
1042.0
1046.0
1048.0
1047.0
1047.0
1043.0
1045.0
1049.0
1051.0
1048.0
1047.0
1046.0
1044.0
1047.0
1049.0
1049.0
1053.0
1052.0
1050.0
1056.0
1058.0
1058.0
1056.0
1055.0
1057.0
1059.0
1061.0
1062.0
1060.0
1059.0
1059.0
1061.0
1062.0
1057.0
1054.0
1051.0
1052.0
1056.0
1060.0
1057.0
1055.0
1054.0
1054.0
1058.0
1062.0
1060.0
1059.0
1056.0
1055.0
1053.0
1053.0
1051.0
1049.0
1047.0
1048.0
1049.0
1052.0
1051.0
1050.0
1048.0
1048.0
1049.0
1052.0
1052.0
1049.0
1047.0
1046.0
1050.0
1053.0
1054.0
1050.0
1050.0
1048.0
1048.0
1053.0
1051.0
1050.0
1053.0
1054.0
1056.0
1059.0
1058.0
1056.0
1055.0
1056.0
1060.0
1068.0
1074.0
1079.0
1086.0
1096.0
1110.0
1120.0
1135.0
1153.0
1177.0
1209.0
1238.0
1270.0
1297.0
1327.0
1359.0
1404.0
1444.0
1465.0
1449.0
1399.0
1319.0
1227.0
1143.0
1093.0
1066.0
1051.0
1046.0
1050.0
1056.0
1055.0
1054.0
1048.0
1045.0
1041.0
1044.0
1042.0
1039.0
1034.0
1032.0
1033.0
1036.0
1038.0
1036.0
1036.0
1034.0
1031.0
1033.0
1031.0
1031.0
1031.0
1029.0
1027.0
1030.0
1033.0
1031.0
1029.0
1025.0
1026.0
1028.0
1031.0
1030.0
1027.0
1026.0
1023.0
1027.0
1028.0
1029.0
1027.0
1025.0
1023.0
1025.0
1026.0
1025.0
1023.0
1022.0
1023.0
1024.0
1027.0
1026.0
1024.0
1022.0
1022.0
1025.0
1029.0
1033.0
1030.0
1027.0
1024.0
1025.0
1031.0
1030.0
1029.0
1027.0
1028.0
1030.0
1032.0
1035.0
1032.0
1031.0
1031.0
1036.0
1038.0
1039.0
1041.0
1038.0
1043.0
1045.0
1050.0
1053.0
1055.0
1051.0
1053.0
1059.0
1062.0
1062.0
1063.0
1065.0
1072.0
1077.0
1081.0
1080.0
1083.0
1081.0
1085.0
1090.0
1096.0
1097.0
1096.0
1094.0
1093.0
1093.0
1096.0
1092.0
1091.0
1085.0
1085.0
1083.0
1084.0
1082.0
1079.0
1076.0
1074.0
1073.0
1075.0
1070.0
1066.0
1063.0
1063.0
1065.0
1068.0
1067.0
1065.0
1061.0
1058.0
1062.0
1061.0
1062.0
1059.0
1057.0
1059.0
1059.0
1061.0
1060.0
1058.0
1053.0
1054.0
1057.0
1059.0
1055.0
1053.0
1052.0
1051.0
1053.0
1055.0
1058.0
1054.0
1050.0
1052.0
1052.0
1055.0
1055.0
1053.0
1046.0
1051.0
1053.0
1054.0
1054.0
1053.0
1047.0
1049.0
1050.0
1058.0
1055.0
1052.0
1051.0
1051.0
1053.0
1055.0
1056.0
1054.0
1052.0
1051.0
1053.0
1055.0
1054.0
1053.0
1050.0
1051.0
1053.0
1054.0
1053.0
1049.0
1047.0
1048.0
1050.0
1054.0
1050.0
1050.0
1046.0
1046.0
1051.0
1049.0
1049.0
1046.0
1046.0
1044.0
1047.0
1047.0
1048.0
1047.0
1042.0
1044.0
1046.0
1047.0
1048.0
1046.0
1042.0
1043.0
1043.0
1046.0
1046.0
1045.0
1041.0
1043.0
1047.0
1046.0
1046.0
1044.0
1043.0
1042.0
1045.0
1046.0
1048.0
1044.0
1041.0
1040.0
1042.0
1047.0
1045.0
1046.0
1041.0
1041.0
1043.0
1045.0
1047.0
1046.0
1045.0
1041.0
1043.0
1045.0
1045.0
1043.0
1042.0
1040.0
1046.0
1047.0
1046.0
1045.0
1041.0
1041.0
1044.0
1048.0
1046.0
1045.0
1043.0
1041.0
1044.0
1045.0
1045.0
1044.0
1042.0
1042.0
1044.0
1047.0
1046.0
1043.0
1040.0
1043.0
1042.0
1048.0
1044.0
1042.0
1040.0
1040.0
1044.0
1047.0
1045.0
1043.0
1042.0
1042.0
1045.0
1050.0
1047.0
1042.0
1042.0
1043.0
1046.0
1052.0
1052.0
1049.0
1049.0
1049.0
1050.0
1055.0
1054.0
1052.0
1052.0
1052.0
1055.0
1056.0
1056.0
1052.0
1049.0
1047.0
1049.0
1051.0
1048.0
1046.0
1045.0
1045.0
1045.0
1052.0
1053.0
1051.0
1050.0
1048.0
1050.0
1051.0
1048.0
1046.0
1038.0
1041.0
1041.0
1045.0
1040.0
1040.0
1038.0
1036.0
1039.0
1045.0
1044.0
1037.0
1038.0
1036.0
1039.0
1042.0
1041.0
1041.0
1040.0
1039.0
1040.0
1044.0
1044.0
1038.0
1037.0
1038.0
1041.0
1043.0
1039.0
1041.0
1040.0
1039.0
1041.0
1045.0
1048.0
1047.0
1049.0
1053.0
1063.0
1073.0
1084.0
1093.0
1102.0
1116.0
1138.0
1167.0
1198.0
1228.0
1257.0
1291.0
1326.0
1369.0
1412.0
1454.0
1472.0
1460.0
1414.0
1330.0
1230.0
1143.0
1086.0
1054.0
1035.0
1034.0
1036.0
1036.0
1033.0
1032.0
1034.0
1037.0
1032.0
1025.0
1020.0
1020.0
1018.0
1022.0
1019.0
1018.0
1014.0
1014.0
1015.0
1020.0
1018.0
1016.0
1013.0
1013.0
1015.0
1017.0
1016.0
1011.0
1008.0
1009.0
1011.0
1014.0
1010.0
1010.0
1003.0
1006.0
1009.0
1010.0
1010.0
1004.0
1003.0
1003.0
1003.0
1008.0
1006.0
1006.0
1002.0
1002.0
1005.0
1005.0
1005.0
1003.0
1002.0
1003.0
1004.0
1005.0
1006.0
1004.0
1005.0
1006.0
1008.0
1009.0
1009.0
1008.0
1007.0
1005.0
1008.0
1011.0
1009.0
1011.0
1009.0
1011.0
1015.0
1016.0
1019.0
1015.0
1014.0
1017.0
1022.0
1024.0
1027.0
1027.0
1026.0
1029.0
1034.0
1039.0
1045.0
1044.0
1042.0
1046.0
1052.0
1057.0
1061.0
1063.0
1065.0
1067.0
1072.0
1078.0
1077.0
1076.0
1075.0
1075.0
1077.0
1077.0
1077.0
1073.0
1067.0
1066.0
1066.0
1064.0
1062.0
1059.0
1054.0
1051.0
1052.0
1051.0
1048.0
1045.0
1041.0
1042.0
1045.0
1043.0
1042.0
1039.0
1038.0
1038.0
1038.0
1040.0
1039.0
1037.0
1034.0
1037.0
1037.0
1039.0
1038.0
1035.0
1035.0
1033.0
1035.0
1036.0
1036.0
1030.0
1029.0
1030.0
1032.0
1034.0
1032.0
1029.0
1027.0
1027.0
1029.0
1031.0
1031.0
1029.0
1027.0
1028.0
1030.0
1032.0
1029.0
1028.0
1027.0
1028.0
1028.0
1030.0
1031.0
1028.0
1029.0
1027.0
1029.0
1033.0
1033.0
1030.0
1031.0
1031.0
1034.0
1034.0
1035.0
1031.0
1030.0
1032.0
1035.0
1033.0
1034.0
1030.0
1031.0
1031.0
1035.0
1037.0
1033.0
1029.0
1028.0
1029.0
1032.0
1034.0
1033.0
1031.0
1027.0
1028.0
1030.0
1030.0
1031.0
1028.0
1026.0
1024.0
1026.0
1030.0
1028.0
1027.0
1023.0
1026.0
1028.0
1029.0
1030.0
1027.0
1025.0
1023.0
1023.0
1028.0
1027.0
1025.0
1022.0
1022.0
1026.0
1026.0
1025.0
1020.0
1022.0
1021.0
1024.0
1024.0
1026.0
1022.0
1021.0
1021.0
1023.0
1028.0
1027.0
1022.0
1019.0
1021.0
1024.0
1023.0
1024.0
1022.0
1022.0
1022.0
1022.0
1022.0
1023.0
1020.0
1020.0
1020.0
1023.0
1025.0
1022.0
1019.0
1018.0
1019.0
1017.0
1023.0
1021.0
1020.0
1019.0
1018.0
1019.0
1021.0
1023.0
1019.0
1020.0
1019.0
1022.0
1022.0
1021.0
1019.0
1017.0
1016.0
1023.0
1027.0
1024.0
1023.0
1017.0
1019.0
1023.0
1026.0
1025.0
1023.0
1022.0
1023.0
1024.0
1025.0
1028.0
1028.0
1029.0
1030.0
1031.0
1035.0
1035.0
1033.0
1031.0
1031.0
1036.0
1036.0
1032.0
1031.0
1025.0
1027.0
1027.0
1031.0
1030.0
1031.0
1027.0
1029.0
1030.0
1035.0
1031.0
1023.0
1019.0
1020.0
1023.0
1025.0
1023.0
1020.0
1018.0
1020.0
1021.0
1022.0
1021.0
1020.0
1018.0
1018.0
1020.0
1021.0
1021.0
1019.0
1014.0
1017.0
1018.0
1023.0
1020.0
1015.0
1017.0
1020.0
1025.0
1028.0
1031.0
1032.0
1037.0
1047.0
1063.0
1077.0
1089.0
1105.0
1134.0
1167.0
1206.0
1240.0
1273.0
1306.0
1341.0
1387.0
1431.0
1455.0
1447.0
1398.0
1317.0
1216.0
1133.0
1076.0
1039.0
1020.0
1009.0
1011.0
1017.0
1021.0
1017.0
1013.0
1011.0
1006.0
1006.0
1004.0
1003.0
999.0
998.0
997.0
998.0
1001.0
999.0
996.0
994.0
994.0
996.0
998.0
998.0
994.0
991.0
990.0
996.0
993.0
994.0
991.0
990.0
990.0
991.0
995.0
990.0
988.0
987.0
990.0
993.0
992.0
988.0
985.0
986.0
985.0
989.0
991.0
989.0
988.0
985.0
985.0
987.0
989.0
990.0
987.0
985.0
989.0
990.0
993.0
991.0
989.0
989.0
987.0
992.0
996.0
994.0
992.0
989.0
992.0
994.0
997.0
996.0
996.0
994.0
996.0
998.0
1000.0
1003.0
1002.0
1001.0
1003.0
1012.0
1013.0
1015.0
1014.0
1013.0
1015.0
1022.0
1025.0
1028.0
1029.0
1031.0
1035.0
1040.0
1047.0
1048.0
1049.0
1049.0
1054.0
1058.0
1062.0
1064.0
1058.0
1060.0
1059.0
1061.0
1062.0
1060.0
1055.0
1054.0
1052.0
1051.0
1054.0
1048.0
1044.0
1038.0
1036.0
1038.0
1038.0
1036.0
1030.0
1026.0
1027.0
1029.0
1033.0
1030.0
1024.0
1021.0
1022.0
1024.0
1024.0
1024.0
1023.0
1018.0
1020.0
1022.0
1022.0
1022.0
1019.0
1016.0
1018.0
1022.0
1020.0
1020.0
1020.0
1016.0
1016.0
1019.0
1020.0
1020.0
1016.0
1015.0
1017.0
1016.0
1018.0
1016.0
1014.0
1011.0
1012.0
1016.0
1017.0
1015.0
1011.0
1009.0
1009.0
1013.0
1018.0
1015.0
1013.0
1010.0
1008.0
1011.0
1017.0
1014.0
1011.0
1014.0
1014.0
1017.0
1019.0
1016.0
1014.0
1012.0
1014.0
1017.0
1020.0
1019.0
1019.0
1014.0
1016.0
1018.0
1020.0
1021.0
1018.0
1012.0
1014.0
1016.0
1019.0
1018.0
1017.0
1015.0
1014.0
1020.0
1020.0
1018.0
1014.0
1012.0
1012.0
1015.0
1018.0
1015.0
1015.0
1012.0
1014.0
1015.0
1018.0
1017.0
1012.0
1011.0
1010.0
1015.0
1017.0
1016.0
1011.0
1008.0
1011.0
1014.0
1015.0
1014.0
1011.0
1011.0
1011.0
1012.0
1016.0
1014.0
1009.0
1011.0
1007.0
1011.0
1013.0
1011.0
1011.0
1009.0
1009.0
1014.0
1016.0
1015.0
1008.0
1009.0
1011.0
1014.0
1015.0
1016.0
1012.0
1012.0
1012.0
1014.0
1016.0
1016.0
1013.0
1007.0
1010.0
1011.0
1013.0
1013.0
1010.0
1008.0
1009.0
1013.0
1016.0
1012.0
1011.0
1009.0
1010.0
1012.0
1014.0
1014.0
1011.0
1009.0
1009.0
1011.0
1015.0
1013.0
1010.0
1011.0
1010.0
1013.0
1015.0
1014.0
1011.0
1011.0
1011.0
1014.0
1015.0
1015.0
1013.0
1012.0
1011.0
1016.0
1018.0
1020.0
1020.0
1020.0
1018.0
1023.0
1024.0
1024.0
1024.0
1022.0
1023.0
1026.0
1029.0
1027.0
1025.0
1021.0
1021.0
1020.0
1021.0
1020.0
1017.0
1018.0
1022.0
1025.0
1025.0
1025.0
1022.0
1020.0
1024.0
1028.0
1028.0
1025.0
1022.0
1019.0
1018.0
1017.0
1021.0
1017.0
1014.0
1013.0
1014.0
1017.0
1017.0
1016.0
1013.0
1011.0
1015.0
1017.0
1019.0
1017.0
1014.0
1015.0
1016.0
1015.0
1017.0
1015.0
1013.0
1012.0
1014.0
1017.0
1019.0
1019.0
1015.0
1012.0
1016.0
1016.0
1019.0
1018.0
1019.0
1015.0
1019.0
1021.0
1025.0
1026.0
1025.0
1027.0
1033.0
1043.0
1050.0
1063.0
1069.0
1073.0
1086.0
1106.0
1131.0
1156.0
1181.0
1204.0
1234.0
1265.0
1293.0
1325.0
1362.0
1396.0
1419.0
1419.0
1392.0
1328.0
1237.0
1147.0
1080.0
1042.0
1021.0
1009.0
1005.0
1007.0
1009.0
1013.0
1010.0
1010.0
1006.0
1003.0
1001.0
1001.0
1001.0
1000.0
996.0
993.0
995.0
998.0
996.0
995.0
996.0
993.0
995.0
996.0
995.0
994.0
990.0
988.0
993.0
995.0
996.0
994.0
991.0
988.0
988.0
990.0
994.0
991.0
991.0
989.0
987.0
990.0
992.0
988.0
986.0
984.0
985.0
989.0
988.0
987.0
984.0
982.0
984.0
985.0
987.0
986.0
984.0
981.0
984.0
989.0
993.0
988.0
986.0
984.0
985.0
987.0
991.0
991.0
989.0
990.0
989.0
992.0
992.0
994.0
990.0
991.0
990.0
996.0
998.0
998.0
995.0
996.0
997.0
1004.0
1005.0
1005.0
1007.0
1004.0
1010.0
1011.0
1017.0
1018.0
1018.0
1021.0
1027.0
1031.0
1037.0
1037.0
1038.0
1038.0
1044.0
1048.0
1054.0
1054.0
1053.0
1053.0
1053.0
1054.0
1054.0
1053.0
1049.0
1047.0
1045.0
1047.0
1042.0
1040.0
1039.0
1034.0
1035.0
1034.0
1035.0
1031.0
1027.0
1024.0
1023.0
1024.0
1027.0
1022.0
1021.0
1019.0
1020.0
1022.0
1024.0
1022.0
1019.0
1018.0
1016.0
1020.0
1019.0
1017.0
1016.0
1014.0
1014.0
1015.0
1019.0
1016.0
1014.0
1009.0
1013.0
1014.0
1015.0
1016.0
1014.0
1009.0
1013.0
1014.0
1015.0
1012.0
1010.0
1006.0
1010.0
1011.0
1013.0
1013.0
1010.0
1008.0
1009.0
1012.0
1014.0
1014.0
1010.0
1010.0
1010.0
1013.0
1014.0
1013.0
1011.0
1009.0
1011.0
1017.0
1017.0
1016.0
1010.0
1010.0
1012.0
1015.0
1016.0
1014.0
1013.0
1013.0
1013.0
1016.0
1018.0
1016.0
1012.0
1010.0
1012.0
1014.0
1017.0
1015.0
1011.0
1007.0
1011.0
1011.0
1012.0
1013.0
1011.0
1010.0
1011.0
1011.0
1013.0
1011.0
1009.0
1007.0
1011.0
1011.0
1014.0
1012.0
1006.0
1004.0
1006.0
1010.0
1012.0
1010.0
1009.0
1005.0
1008.0
1009.0
1010.0
1010.0
1006.0
1006.0
1006.0
1011.0
1011.0
1010.0
1006.0
1006.0
1006.0
1008.0
1011.0
1007.0
1009.0
1007.0
1006.0
1009.0
1011.0
1009.0
1007.0
1007.0
1007.0
1010.0
1012.0
1010.0
1005.0
1006.0
1005.0
1009.0
1011.0
1008.0
1008.0
1005.0
1007.0
1009.0
1010.0
1010.0
1006.0
1005.0
1004.0
1010.0
1010.0
1008.0
1007.0
1006.0
1006.0
1009.0
1009.0
1009.0
1006.0
1007.0
1010.0
1010.0
1010.0
1008.0
1006.0
1005.0
1006.0
1008.0
1011.0
1007.0
1007.0
1007.0
1007.0
1011.0
1012.0
1012.0
1008.0
1006.0
1008.0
1011.0
1013.0
1011.0
1005.0
1008.0
1011.0
1014.0
1016.0
1017.0
1015.0
1015.0
1014.0
1017.0
1019.0
1022.0
1017.0
1018.0
1022.0
1023.0
1025.0
1024.0
1023.0
1020.0
1020.0
1020.0
1022.0
1020.0
1017.0
1012.0
1017.0
1019.0
1021.0
1018.0
1019.0
1017.0
1019.0
1022.0
1023.0
1019.0
1019.0
1017.0
1016.0
1013.0
1013.0
1010.0
1011.0
1007.0
1009.0
1012.0
1015.0
1014.0
1011.0
1006.0
1009.0
1013.0
1013.0
1010.0
1009.0
1009.0
1010.0
1011.0
1010.0
1009.0
1007.0
1010.0
1008.0
1012.0
1013.0
1012.0
1007.0
1007.0
1006.0
1014.0
1013.0
1014.0
1011.0
1013.0
1016.0
1021.0
1025.0
1030.0
1034.0
1045.0
1058.0
1069.0
1082.0
1100.0
1124.0
1157.0
1190.0
1226.0
1258.0
1288.0
1322.0
1361.0
1409.0
1443.0
1449.0
1417.0
1350.0
1260.0
1169.0
1097.0
1052.0
1020.0
1003.0
1003.0
1005.0
1010.0
1012.0
1012.0
1004.0
1003.0
1001.0
999.0
998.0
997.0
993.0
992.0
989.0
994.0
995.0
991.0
987.0
987.0
988.0
992.0
991.0
991.0
989.0
987.0
987.0
990.0
988.0
990.0
987.0
985.0
985.0
988.0
989.0
986.0
983.0
984.0
986.0
986.0
986.0
987.0
982.0
980.0
984.0
987.0
985.0
986.0
985.0
985.0
985.0
985.0
986.0
984.0
983.0
983.0
984.0
988.0
990.0
989.0
985.0
983.0
985.0
988.0
990.0
990.0
989.0
987.0
990.0
991.0
993.0
991.0
989.0
991.0
992.0
997.0
997.0
996.0
994.0
993.0
996.0
999.0
1003.0
1002.0
1002.0
1001.0
1003.0
1010.0
1012.0
1014.0
1011.0
1011.0
1017.0
1021.0
1023.0
1027.0
1027.0
1028.0
1032.0
1037.0
1040.0
1042.0
1046.0
1047.0
1053.0
1055.0
1060.0
1057.0
1059.0
1058.0
1061.0
1065.0
1067.0
1064.0
1061.0
1058.0
1059.0
1058.0
1058.0
1055.0
1052.0
1049.0
1049.0
1047.0
1047.0
1042.0
1039.0
1036.0
1035.0
1035.0
1037.0
1035.0
1030.0
1029.0
1029.0
1031.0
1031.0
1030.0
1028.0
1026.0
1030.0
1032.0
1029.0
1027.0
1027.0
1025.0
1027.0
1030.0
1029.0
1028.0
1025.0
1024.0
1024.0
1026.0
1025.0
1024.0
1023.0
1021.0
1023.0
1023.0
1026.0
1023.0
1019.0
1018.0
1023.0
1024.0
1025.0
1023.0
1019.0
1018.0
1020.0
1023.0
1025.0
1023.0
1021.0
1019.0
1023.0
1024.0
1024.0
1024.0
1022.0
1021.0
1024.0
1026.0
1027.0
1025.0
1024.0
1023.0
1025.0
1028.0
1028.0
1026.0
1025.0
1023.0
1027.0
1027.0
1029.0
1027.0
1025.0
1023.0
1026.0
1028.0
1029.0
1026.0
1022.0
1022.0
1023.0
1027.0
1027.0
1025.0
1019.0
1020.0
1022.0
1023.0
1024.0
1024.0
1022.0
1021.0
1021.0
1025.0
1024.0
1022.0
1023.0
1020.0
1021.0
1022.0
1024.0
1021.0
1019.0
1018.0
1019.0
1023.0
1021.0
1021.0
1018.0
1016.0
1020.0
1025.0
1025.0
1023.0
1019.0
1019.0
1021.0
1023.0
1022.0
1020.0
1019.0
1020.0
1021.0
1022.0
1022.0
1021.0
1019.0
1019.0
1022.0
1023.0
1025.0
1025.0
1020.0
1019.0
1019.0
1024.0
1024.0
1025.0
1019.0
1020.0
1018.0
1022.0
1023.0
1023.0
1019.0
1018.0
1022.0
1025.0
1024.0
1023.0
1018.0
1019.0
1023.0
1024.0
1025.0
1022.0
1020.0
1018.0
1021.0
1027.0
1027.0
1022.0
1024.0
1021.0
1022.0
1024.0
1027.0
1025.0
1022.0
1021.0
1022.0
1029.0
1028.0
1026.0
1026.0
1027.0
1029.0
1033.0
1032.0
1031.0
1032.0
1031.0
1034.0
1039.0
1039.0
1038.0
1033.0
1033.0
1034.0
1034.0
1032.0
1032.0
1030.0
1030.0
1034.0
1036.0
1037.0
1037.0
1032.0
1031.0
1032.0
1033.0
1033.0
1028.0
1024.0
1024.0
1026.0
1027.0
1027.0
1026.0
1024.0
1024.0
1027.0
1028.0
1028.0
1027.0
1022.0
1023.0
1023.0
1028.0
1028.0
1026.0
1024.0
1022.0
1024.0
1026.0
1026.0
1022.0
1020.0
1022.0
1025.0
1027.0
1026.0
1025.0
1023.0
1025.0
1027.0
1029.0
1032.0
1034.0
1033.0
1038.0
1044.0
1053.0
1067.0
1075.0
1084.0
1095.0
1112.0
1139.0
1168.0
1201.0
1231.0
1263.0
1295.0
1330.0
1368.0
1408.0
1440.0
1453.0
1439.0
1398.0
1325.0
1233.0
1151.0
1090.0
1053.0
1031.0
1023.0
1019.0
1019.0
1019.0
1023.0
1025.0
1024.0
1018.0
1014.0
1008.0
1008.0
1010.0
1011.0
1008.0
1005.0
1003.0
1004.0
1004.0
1004.0
1003.0
1001.0
1001.0
1002.0
1005.0
1004.0
1002.0
999.0
997.0
1001.0
1004.0
1002.0
999.0
997.0
996.0
997.0
999.0
1000.0
998.0
995.0
994.0
996.0
999.0
999.0
997.0
996.0
995.0
994.0
998.0
999.0
996.0
992.0
993.0
994.0
999.0
998.0
997.0
998.0
995.0
997.0
1001.0
998.0
999.0
994.0
995.0
1001.0
1001.0
1001.0
1003.0
999.0
998.0
1000.0
1005.0
1005.0
1006.0
1000.0
1002.0
1004.0
1009.0
1009.0
1009.0
1008.0
1010.0
1015.0
1019.0
1021.0
1020.0
1017.0
1019.0
1025.0
1030.0
1034.0
1033.0
1034.0
1039.0
1044.0
1048.0
1050.0
1054.0
1056.0
1058.0
1063.0
1066.0
1067.0
1069.0
1066.0
1065.0
1067.0
1069.0
1066.0
1064.0
1061.0
1058.0
1059.0
1060.0
1058.0
1053.0
1048.0
1044.0
1047.0
1045.0
1046.0
1040.0
1036.0
1033.0
1035.0
1037.0
1035.0
1034.0
1029.0
1026.0
1030.0
1033.0
1032.0
1031.0
1027.0
1025.0
1026.0
1031.0
1030.0
1028.0
1023.0
1024.0
1025.0
1029.0
1027.0
1024.0
1020.0
1025.0
1026.0
1027.0
1025.0
1023.0
1021.0
1021.0
1022.0
1025.0
1025.0
1023.0
1020.0
1018.0
1021.0
1021.0
1023.0
1022.0
1019.0
1019.0
1021.0
1023.0
1021.0
1021.0
1018.0
1021.0
1021.0
1025.0
1025.0
1021.0
1021.0
1021.0
1023.0
1024.0
1026.0
1023.0
1023.0
1021.0
1024.0
1025.0
1024.0
1024.0
1022.0
1020.0
1021.0
1023.0
1025.0
1024.0
1020.0
1018.0
1022.0
1023.0
1023.0
1021.0
1017.0
1016.0
1018.0
1021.0
1022.0
1019.0
1016.0
1014.0
1017.0
1018.0
1018.0
1015.0
1014.0
1014.0
1016.0
1020.0
1016.0
1015.0
1013.0
1015.0
1019.0
1018.0
1017.0
1016.0
1011.0
1010.0
1014.0
1015.0
1017.0
1015.0
1013.0
1012.0
1014.0
1015.0
1017.0
1016.0
1012.0
1014.0
1014.0
1017.0
1016.0
1012.0
1009.0
1011.0
1013.0
1016.0
1018.0
1013.0
1011.0
1012.0
1011.0
1015.0
1017.0
1015.0
1012.0
1014.0
1013.0
1016.0
1016.0
1011.0
1011.0
1011.0
1014.0
1016.0
1015.0
1014.0
1010.0
1010.0
1013.0
1015.0
1016.0
1015.0
1013.0
1012.0
1015.0
1015.0
1016.0
1014.0
1012.0
1010.0
1013.0
1017.0
1016.0
1016.0
1016.0
1013.0
1012.0
1016.0
1014.0
1017.0
1012.0
1012.0
1016.0
1024.0
1023.0
1022.0
1023.0
1021.0
1023.0
1026.0
1027.0
1026.0
1023.0
1025.0
1028.0
1031.0
1029.0
1025.0
1022.0
1020.0
1021.0
1022.0
1021.0
1018.0
1021.0
1019.0
1021.0
1026.0
1025.0
1023.0
1023.0
1022.0
1024.0
1024.0
1024.0
1021.0
1016.0
1013.0
1016.0
1017.0
1020.0
1019.0
1014.0
1014.0
1015.0
1016.0
1016.0
1016.0
1012.0
1012.0
1015.0
1016.0
1017.0
1017.0
1009.0
1012.0
1013.0
1016.0
1018.0
1012.0
1010.0
1013.0
1013.0
1016.0
1018.0
1013.0
1012.0
1014.0
1019.0
1022.0
1022.0
1024.0
1022.0
1025.0
1035.0
1046.0
1055.0
1063.0
1071.0
1084.0
1100.0
1127.0
1153.0
1182.0
1205.0
1233.0
1262.0
1294.0
1331.0
1369.0
1400.0
1414.0
1396.0
1344.0
1259.0
1157.0
1079.0
1036.0
1012.0
1006.0
1007.0
1009.0
1008.0
1013.0
1010.0
1013.0
1009.0
1006.0
1000.0
993.0
996.0
999.0
998.0
999.0
994.0
995.0
996.0
995.0
996.0
993.0
991.0
993.0
993.0
996.0
995.0
993.0
989.0
989.0
992.0
995.0
994.0
990.0
987.0
986.0
987.0
990.0
989.0
987.0
984.0
981.0
986.0
988.0
987.0
985.0
983.0
984.0
985.0
988.0
985.0
986.0
982.0
984.0
986.0
987.0
989.0
986.0
987.0
985.0
985.0
987.0
988.0
987.0
983.0
986.0
989.0
989.0
990.0
988.0
987.0
989.0
993.0
995.0
997.0
995.0
992.0
994.0
998.0
1001.0
1003.0
1001.0
999.0
1004.0
1008.0
1013.0
1013.0
1014.0
1012.0
1016.0
1019.0
1026.0
1027.0
1028.0
1029.0
1031.0
1037.0
1044.0
1044.0
1044.0
1046.0
1049.0
1052.0
1055.0
1055.0
1055.0
1052.0
1051.0
1052.0
1054.0
1051.0
1047.0
1045.0
1038.0
1040.0
1040.0
1037.0
1033.0
1030.0
1027.0
1027.0
1029.0
1026.0
1024.0
1018.0
1019.0
1019.0
1023.0
1019.0
1018.0
1014.0
1012.0
1015.0
1018.0
1018.0
1014.0
1013.0
1013.0
1016.0
1017.0
1016.0
1012.0
1009.0
1011.0
1013.0
1013.0
1013.0
1010.0
1007.0
1008.0
1010.0
1013.0
1011.0
1007.0
1003.0
1005.0
1007.0
1010.0
1011.0
1007.0
1003.0
1002.0
1005.0
1009.0
1008.0
1006.0
1006.0
1004.0
1009.0
1009.0
1007.0
1008.0
1006.0
1007.0
1007.0
1009.0
1009.0
1008.0
1007.0
1008.0
1008.0
1011.0
1011.0
1008.0
1006.0
1004.0
1008.0
1010.0
1009.0
1008.0
1005.0
1005.0
1006.0
1010.0
1009.0
1006.0
1005.0
1004.0
1005.0
1011.0
1007.0
1008.0
1006.0
1003.0
1006.0
1008.0
1006.0
1003.0
1003.0
1001.0
1004.0
1008.0
1005.0
1007.0
1003.0
1005.0
1004.0
1007.0
1005.0
1004.0
1004.0
1001.0
1005.0
1008.0
1006.0
1004.0
1002.0
1002.0
1006.0
1005.0
1003.0
1005.0
1002.0
1001.0
1002.0
1004.0
1003.0
1002.0
1002.0
1000.0
1003.0
1004.0
1005.0
1004.0
999.0
998.0
1002.0
1004.0
1007.0
1003.0
1002.0
1001.0
1003.0
1008.0
1004.0
1001.0
1000.0
1001.0
1004.0
1006.0
1008.0
1003.0
1000.0
1000.0
1003.0
1005.0
1006.0
1006.0
1003.0
1003.0
1006.0
1005.0
1004.0
1003.0
1000.0
1001.0
1005.0
1007.0
1005.0
1005.0
1004.0
1001.0
1004.0
1007.0
1006.0
1006.0
1004.0
1005.0
1005.0
1007.0
1006.0
1004.0
1002.0
1004.0
1008.0
1009.0
1006.0
1007.0
1008.0
1010.0
1014.0
1017.0
1016.0
1016.0
1013.0
1015.0
1017.0
1019.0
1021.0
1018.0
1015.0
1014.0
1015.0
1014.0
1016.0
1012.0
1008.0
1010.0
1012.0
1015.0
1018.0
1013.0
1013.0
1016.0
1018.0
1022.0
1020.0
1017.0
1013.0
1011.0
1010.0
1010.0
1009.0
1009.0
1006.0
1006.0
1008.0
1008.0
1011.0
1009.0
1006.0
1003.0
1007.0
1010.0
1008.0
1006.0
1003.0
1003.0
1006.0
1008.0
1008.0
1007.0
1006.0
1005.0
1006.0
1009.0
1007.0
1006.0
1005.0
1006.0
1007.0
1012.0
1011.0
1008.0
1013.0
1019.0
1025.0
1034.0
1046.0
1057.0
1065.0
1078.0
1102.0
1132.0
1163.0
1198.0
1225.0
1261.0
1298.0
1339.0
1382.0
1415.0
1422.0
1396.0
1336.0
1253.0
1165.0
1092.0
1039.0
1015.0
1003.0
1004.0
1005.0
1002.0
1000.0
998.0
1001.0
1001.0
997.0
991.0
987.0
987.0
987.0
989.0
987.0
983.0
982.0
982.0
985.0
987.0
987.0
982.0
980.0
982.0
983.0
984.0
981.0
981.0
976.0
977.0
979.0
979.0
981.0
977.0
973.0
973.0
975.0
978.0
978.0
977.0
971.0
974.0
975.0
976.0
975.0
975.0
973.0
974.0
978.0
979.0
978.0
977.0
973.0
976.0
978.0
982.0
982.0
981.0
978.0
978.0
983.0
982.0
983.0
982.0
981.0
982.0
984.0
987.0
984.0
985.0
984.0
988.0
988.0
994.0
991.0
991.0
989.0
991.0
995.0
1000.0
1001.0
1004.0
1003.0
1006.0
1012.0
1016.0
1017.0
1018.0
1020.0
1022.0
1030.0
1035.0
1037.0
1036.0
1036.0
1040.0
1045.0
1050.0
1051.0
1051.0
1049.0
1046.0
1051.0
1052.0
1050.0
1048.0
1042.0
1039.0
1040.0
1039.0
1036.0
1030.0
1029.0
1027.0
1023.0
1024.0
1023.0
1017.0
1019.0
1017.0
1017.0
1020.0
1017.0
1017.0
1016.0
1018.0
1018.0
1020.0
1017.0
1014.0
1012.0
1016.0
1018.0
1019.0
1016.0
1014.0
1009.0
1010.0
1011.0
1017.0
1016.0
1012.0
1011.0
1009.0
1014.0
1015.0
1016.0
1014.0
1009.0
1009.0
1015.0
1015.0
1016.0
1016.0
1012.0
1014.0
1016.0
1017.0
1018.0
1017.0
1012.0
1016.0
1017.0
1020.0
1018.0
1019.0
1016.0
1018.0
1019.0
1019.0
1019.0
1017.0
1015.0
1015.0
1016.0
1020.0
1020.0
1017.0
1015.0
1014.0
1016.0
1018.0
1017.0
1013.0
1015.0
1016.0
1016.0
1018.0
1015.0
1015.0
1012.0
1013.0
1016.0
1016.0
1017.0
1014.0
1012.0
1014.0
1016.0
1015.0
1016.0
1015.0
1013.0
1014.0
1017.0
1017.0
1015.0
1015.0
1011.0
1013.0
1015.0
1019.0
1016.0
1015.0
1011.0
1013.0
1014.0
1018.0
1014.0
1016.0
1014.0
1013.0
1013.0
1016.0
1017.0
1012.0
1012.0
1015.0
1015.0
1017.0
1017.0
1012.0
1012.0
1011.0
1017.0
1018.0
1018.0
1015.0
1014.0
1015.0
1015.0
1017.0
1016.0
1014.0
1012.0
1013.0
1016.0
1016.0
1015.0
1013.0
1014.0
1014.0
1013.0
1017.0
1016.0
1012.0
1012.0
1011.0
1015.0
1016.0
1014.0
1014.0
1015.0
1014.0
1016.0
1018.0
1020.0
1016.0
1013.0
1013.0
1017.0
1019.0
1017.0
1015.0
1015.0
1016.0
1019.0
1020.0
1019.0
1018.0
1019.0
1021.0
1025.0
1027.0
1027.0
1028.0
1025.0
1024.0
1028.0
1029.0
1032.0
1030.0
1025.0
1029.0
1029.0
1030.0
1028.0
1023.0
1022.0
1022.0
1025.0
1028.0
1024.0
1023.0
1020.0
1025.0
1026.0
1029.0
1028.0
1027.0
1023.0
1021.0
1023.0
1021.0
1020.0
1018.0
1013.0
1015.0
1020.0
1022.0
1023.0
1017.0
1015.0
1016.0
1018.0
1023.0
1016.0
1016.0
1014.0
1013.0
1016.0
1018.0
1017.0
1015.0
1011.0
1012.0
1017.0
1017.0
1016.0
1015.0
1014.0
1014.0
1017.0
1018.0
1019.0
1015.0
1015.0
1016.0
1022.0
1026.0
1030.0
1031.0
1037.0
1049.0
1058.0
1073.0
1082.0
1091.0
1107.0
1136.0
1166.0
1195.0
1226.0
1250.0
1275.0
1306.0
1341.0
1381.0
1420.0
1442.0
1443.0
1418.0
1365.0
1284.0
1187.0
1106.0
1051.0
1022.0
1010.0
1009.0
1010.0
1012.0
1010.0
1009.0
1011.0
1013.0
1009.0
1004.0
1000.0
996.0
998.0
999.0
996.0
993.0
993.0
990.0
994.0
995.0
993.0
990.0
987.0
987.0
991.0
993.0
992.0
990.0
986.0
987.0
989.0
991.0
989.0
985.0
982.0
985.0
987.0
991.0
988.0
984.0
984.0
983.0
987.0
989.0
988.0
986.0
984.0
981.0
984.0
986.0
986.0
984.0
982.0
984.0
985.0
990.0
987.0
985.0
983.0
985.0
989.0
991.0
991.0
988.0
987.0
984.0
991.0
992.0
991.0
988.0
988.0
988.0
990.0
994.0
992.0
990.0
991.0
992.0
995.0
997.0
998.0
997.0
999.0
997.0
1002.0
1005.0
1007.0
1006.0
1007.0
1010.0
1013.0
1018.0
1020.0
1022.0
1022.0
1026.0
1032.0
1038.0
1040.0
1037.0
1041.0
1045.0
1051.0
1056.0
1056.0
1054.0
1055.0
1055.0
1059.0
1061.0
1060.0
1055.0
1053.0
1054.0
1055.0
1054.0
1048.0
1045.0
1039.0
1039.0
1037.0
1038.0
1035.0
1032.0
1027.0
1026.0
1027.0
1027.0
1027.0
1023.0
1022.0
1021.0
1022.0
1024.0
1020.0
1018.0
1018.0
1019.0
1020.0
1024.0
1022.0
1019.0
1014.0
1016.0
1020.0
1023.0
1020.0
