# Simple Text Format
# Sampling Rate (Hz):= 360.00
# Resolution:= 12
# Labels:= ECG
1032.0
1036.0
1038.0
1035.0
1030.0
1026.0
1030.0
1031.0
1033.0
1033.0
1032.0
1030.0
1030.0
1032.0
1031.0
1031.0
1030.0
1028.0
1031.0
1034.0
1035.0
1033.0
1029.0
1023.0
1028.0
1030.0
1031.0
1032.0
1027.0
1027.0
1027.0
1029.0
1031.0
1031.0
1028.0
1026.0
1024.0
1029.0
1028.0
1029.0
1026.0
1023.0
1025.0
1031.0
1031.0
1029.0
1031.0
1029.0
1028.0
1027.0
1028.0
1026.0
1024.0
1025.0
1028.0
1028.0
1030.0
1024.0
1022.0
1023.0
1027.0
1031.0
1026.0
1029.0
1025.0
1026.0
1027.0
1028.0
1028.0
1029.0
1026.0
1027.0
1029.0
1031.0
1032.0
1029.0
1027.0
1028.0
1027.0
1029.0
1034.0
1034.0
1033.0
1031.0
1033.0
1032.0
1029.0
1027.0
1029.0
1029.0
1027.0
1029.0
1029.0
1028.0
1029.0
1030.0
1028.0
1033.0
1035.0
1033.0
1030.0
1030.0
1034.0
1038.0
1035.0
1030.0
1026.0
1025.0
1030.0
1038.0
1041.0
1039.0
1031.0
1027.0
1029.0
1036.0
1036.0
1037.0
1038.0
1037.0
1037.0
1039.0
1035.0
1027.0
1027.0
1032.0
1039.0
1042.0
1043.0
1040.0
1041.0
1042.0
1047.0
1051.0
1048.0
1044.0
1044.0
1046.0
1047.0
1048.0
1044.0
1039.0
1037.0
1036.0
1038.0
1039.0
1042.0
1043.0
1041.0
1045.0
1048.0
1048.0
1043.0
1040.0
1040.0
1042.0
1041.0
1041.0
1038.0
1035.0
1035.0
1038.0
1038.0
1040.0
1040.0
1038.0
1038.0
1037.0
1037.0
1039.0
1037.0
1034.0
1033.0
1032.0
1036.0
1038.0
1039.0
1035.0
1033.0
1034.0
1038.0
1039.0
1040.0
1037.0
1031.0
1034.0
1039.0
1042.0
1041.0
1041.0
1038.0
1037.0
1044.0
1053.0
1060.0
1065.0
1069.0
1078.0
1089.0
1100.0
1115.0
1134.0
1158.0
1180.0
1207.0
1238.0
1269.0
1301.0
1332.0
1375.0
1419.0
1448.0
1455.0
1428.0
1366.0
1279.0
1188.0
1119.0
1073.0
1045.0
1031.0
1031.0
1033.0
1036.0
1038.0
1037.0
1034.0
1031.0
1031.0
1030.0
1026.0
1024.0
1021.0
1018.0
1019.0
1020.0
1023.0
1021.0
1019.0
1017.0
1018.0
1020.0
1021.0
1022.0
1020.0
1019.0
1016.0
1017.0
1016.0
1013.0
1012.0
1013.0
1015.0
1019.0
1017.0
1017.0
1015.0
1010.0
1013.0
1017.0
1017.0
1017.0
1012.0
1014.0
1011.0
1010.0
1015.0
1015.0
1013.0
1011.0
1014.0
1018.0
1021.0
1015.0
1011.0
1008.0
1012.0
1018.0
1018.0
1017.0
1018.0
1019.0
1019.0
1015.0
1020.0
1019.0
1017.0
1017.0
1018.0
1021.0
1022.0
1021.0
1022.0
1024.0
1029.0
1030.0
1025.0
1022.0
1021.0
1026.0
1031.0
1035.0
1032.0
1029.0
1027.0
1030.0
1035.0
1041.0
1044.0
1044.0
1045.0
1046.0
1051.0
1055.0
1052.0
1052.0
1054.0
1056.0
1062.0
1069.0
1074.0
1079.0
1076.0
1074.0
1069.0
1071.0
1077.0
1080.0
1078.0
1082.0
1084.0
1085.0
1084.0
1081.0
1076.0
1071.0
1070.0
1070.0
1072.0
1067.0
1065.0
1063.0
1064.0
1065.0
1064.0
1060.0
1053.0
1052.0
1056.0
1059.0
1058.0
1052.0
1047.0
1045.0
1046.0
1054.0
1051.0
1050.0
1046.0
1043.0
1042.0
1048.0
1047.0
1046.0
1045.0
1046.0
1046.0
1049.0
1046.0
1041.0
1039.0
1038.0
1041.0
1043.0
1045.0
1043.0
1041.0
1041.0
1044.0
1045.0
1045.0
1045.0
1041.0
1045.0
1044.0
1047.0
1050.0
1046.0
1043.0
1042.0
1043.0
1046.0
1047.0
1043.0
1043.0
1043.0
1048.0
1049.0
1048.0
1047.0
1043.0
1045.0
1046.0
1050.0
1051.0
1047.0
1046.0
1044.0
1046.0
1050.0
1052.0
1049.0
1046.0
1045.0
1045.0
1049.0
1049.0
1047.0
1045.0
1046.0
1048.0
1047.0
1043.0
1044.0
1042.0
1042.0
1042.0
1044.0
1041.0
1040.0
1040.0
1041.0
1041.0
1044.0
1042.0
1043.0
1045.0
1043.0
1041.0
1039.0
1035.0
1037.0
1038.0
1039.0
1042.0
1044.0
1043.0
1042.0
1037.0
1039.0
1039.0
1039.0
1041.0
1038.0
1040.0
1037.0
1035.0
1039.0
1039.0
1038.0
1038.0
1037.0
1041.0
1047.0
1047.0
1045.0
1039.0
1038.0
1039.0
1041.0
1041.0
1040.0
1037.0
1037.0
1039.0
1040.0
1038.0
1037.0
1035.0
1038.0
1039.0
1040.0
1040.0
1041.0
1036.0
1035.0
1038.0
1042.0
1041.0
1040.0
1037.0
1039.0
1040.0
1041.0
1042.0
1041.0
1039.0
1045.0
1047.0
1047.0
1044.0
1035.0
1035.0
1036.0
1039.0
1046.0
1051.0
1047.0
1040.0
1037.0
1038.0
1045.0
1047.0
1044.0
1042.0
1039.0
1041.0
1043.0
1043.0
1045.0
1046.0
1052.0
1053.0
1054.0
1052.0
1050.0
1052.0
1053.0
1057.0
1059.0
1057.0
1056.0
1051.0
1053.0
1054.0
1055.0
1052.0
1051.0
1051.0
1050.0
1055.0
1054.0
1054.0
1048.0
1047.0
1050.0
1049.0
1052.0
1054.0
1053.0
1049.0
1043.0
1045.0
1045.0
1046.0
1048.0
1041.0
1041.0
1045.0
1051.0
1051.0
1053.0
1047.0
1044.0
1039.0
1043.0
1043.0
1045.0
1040.0
1038.0
1040.0
1047.0
1048.0
1044.0
1037.0
1034.0
1040.0
1044.0
1046.0
1044.0
1045.0
1047.0
1050.0
1048.0
1046.0
1042.0
1046.0
1051.0
1057.0
1065.0
1069.0
1077.0
1082.0
1092.0
1103.0
1123.0
1146.0
1171.0
1197.0
1224.0
1253.0
1278.0
1307.0
1341.0
1381.0
1411.0
1425.0
1413.0
1364.0
1281.0
1184.0
1107.0
1065.0
1048.0
1041.0
1036.0
1035.0
1036.0
1043.0
1044.0
1042.0
1035.0
1031.0
1029.0
1029.0
1029.0
1026.0
1028.0
1023.0
1024.0
1025.0
1026.0
1025.0
1026.0
1024.0
1022.0
1021.0
1023.0
1027.0
1028.0
1024.0
1021.0
1022.0
1023.0
1024.0
1024.0
1021.0
1016.0
1018.0
1022.0
1023.0
1021.0
1017.0
1020.0
1022.0
1024.0
1022.0
1016.0
1014.0
1013.0
1014.0
1016.0
1014.0
1018.0
1014.0
1016.0
1019.0
1023.0
1024.0
1023.0
1021.0
1021.0
1020.0
1021.0
1024.0
1022.0
1021.0
1022.0
1020.0
1021.0
1023.0
1022.0
1021.0
1021.0
1024.0
1028.0
1030.0
1030.0
1025.0
1023.0
1023.0
1026.0
1032.0
1031.0
1032.0
1032.0
1039.0
1044.0
1043.0
1045.0
1045.0
1046.0
1053.0
1056.0
1059.0
1059.0
1055.0
1061.0
1067.0
1074.0
1076.0
1075.0
1072.0
1072.0
1074.0
1083.0
1080.0
1076.0
1070.0
1071.0
1074.0
1078.0
1073.0
1070.0
1067.0
1062.0
1057.0
1060.0
1061.0
1058.0
1052.0
1049.0
1050.0
1051.0
1051.0
1049.0
1045.0
1045.0
1045.0
1042.0
1041.0
1039.0
1040.0
1042.0
1043.0
1044.0
1041.0
1037.0
1032.0
1031.0
1038.0
1041.0
1039.0
1039.0
1037.0
1034.0
1039.0
1040.0
1035.0
1031.0
1031.0
1031.0
1032.0
1033.0
1034.0
1035.0
1035.0
1032.0
1034.0
1038.0
1039.0
1038.0
1034.0
1033.0
1036.0
1037.0
1039.0
1037.0
1032.0
1029.0
1031.0
1040.0
1038.0
1038.0
1034.0
1034.0
1037.0
1038.0
1039.0
1038.0
1036.0
1037.0
1037.0
1038.0
1036.0
1035.0
1034.0
1035.0
1034.0
1036.0
1034.0
1031.0
1031.0
1031.0
1034.0
1037.0
1032.0
1029.0
1025.0
1028.0
1033.0
1037.0
1035.0
1031.0
1024.0
1021.0
1024.0
1031.0
1028.0
1027.0
1026.0
1027.0
1031.0
1031.0
1027.0
1025.0
1024.0
1024.0
1030.0
1031.0
1031.0
1028.0
1026.0
1024.0
1028.0
1031.0
1031.0
1026.0
1021.0
1021.0
1026.0
1029.0
1029.0
1028.0
1026.0
1023.0
1022.0
1025.0
1029.0
1027.0
1024.0
1016.0
1024.0
1029.0
1030.0
1026.0
1019.0
1019.0
1024.0
1027.0
1026.0
1022.0
1018.0
1019.0
1026.0
1027.0
1030.0
1026.0
1026.0
1024.0
1025.0
1027.0
1026.0
1023.0
1022.0
1024.0
1026.0
1031.0
1027.0
1026.0
1023.0
1021.0
1025.0
1027.0
1029.0
1030.0
1029.0
1027.0
1029.0
1030.0
1029.0
1027.0
1024.0
1022.0
1026.0
1028.0
1030.0
1025.0
1022.0
1022.0
1028.0
1036.0
1037.0
1041.0
1039.0
1035.0
1033.0
1036.0
1038.0
1039.0
1037.0
1037.0
1035.0
1037.0
1038.0
1033.0
1029.0
1031.0
1031.0
1033.0
1036.0
1033.0
1030.0
1032.0
1035.0
1037.0
1037.0
1035.0
1032.0
1034.0
1035.0
1039.0
1038.0
1036.0
1029.0
1029.0
1030.0
1033.0
1030.0
1026.0
1024.0
1027.0
1032.0
1032.0
1029.0
1028.0
1028.0
1030.0
1034.0
1034.0
1030.0
1029.0
1029.0
1031.0
1033.0
1029.0
1029.0
1027.0
1026.0
1030.0
1031.0
1031.0
1031.0
1028.0
1027.0
1029.0
1036.0
1039.0
1042.0
1043.0
1047.0
1050.0
1062.0
1075.0
1086.0
1091.0
1101.0
1120.0
1148.0
1179.0
1208.0
1233.0
1257.0
1287.0
1327.0
1373.0
1412.0
1430.0
1413.0
1357.0
1271.0
1177.0
1097.0
1046.0
1024.0
1021.0
1027.0
1031.0
1033.0
1032.0
1030.0
1030.0
1026.0
1024.0
1018.0
1015.0
1016.0
1016.0
1021.0
1023.0
1021.0
1012.0
1006.0
1009.0
1015.0
1020.0
1018.0
1019.0
1010.0
1012.0
1011.0
1013.0
1013.0
1011.0
1010.0
1012.0
1014.0
1009.0
1007.0
1007.0
1011.0
1009.0
1010.0
1013.0
1012.0
1011.0
1007.0
1010.0
1010.0
1011.0
1013.0
1013.0
1010.0
1008.0
1015.0
1016.0
1015.0
1011.0
1007.0
1008.0
1013.0
1018.0
1018.0
1017.0
1017.0
1015.0
1019.0
1023.0
1023.0
1021.0
1021.0
1024.0
1029.0
1035.0
1036.0
1031.0
1028.0
1030.0
1038.0
1044.0
1047.0
1045.0
1042.0
1047.0
1052.0
1056.0
1060.0
1059.0
1059.0
1066.0
1070.0
1074.0
1075.0
1073.0
1071.0
1075.0
1077.0
1083.0
1081.0
1080.0
1078.0
1078.0
1079.0
1080.0
1078.0
1071.0
1064.0
1062.0
1063.0
1066.0
1063.0
1058.0
1054.0
1052.0
1053.0
1055.0
1054.0
1051.0
1051.0
1050.0
1050.0
1047.0
1045.0
1042.0
1043.0
1044.0
1046.0
1047.0
1047.0
1044.0
1040.0
1040.0
1042.0
1046.0
1047.0
1043.0
1039.0
1034.0
1036.0
1039.0
1038.0
1040.0
1037.0
1038.0
1037.0
1041.0
1041.0
1042.0
1040.0
1041.0
1040.0
1040.0
1039.0
1034.0
1032.0
1034.0
1042.0
1043.0
1043.0
1040.0
1035.0
1034.0
1039.0
1044.0
1047.0
1043.0
1041.0
1039.0
1041.0
1046.0
1047.0
1046.0
1044.0
1043.0
1043.0
1043.0
1046.0
1044.0
1043.0
1041.0
1042.0
1048.0
1046.0
1046.0
1045.0
1043.0
1042.0
1044.0
1044.0
1042.0
1040.0
1044.0
1044.0
1042.0
1042.0
1039.0
1037.0
1039.0
1041.0
1046.0
1044.0
1044.0
1039.0
1038.0
1036.0
1039.0
1039.0
1041.0
1040.0
1039.0
1043.0
1043.0
1043.0
1040.0
1038.0
1041.0
1043.0
1043.0
1043.0
1036.0
1034.0
1032.0
1036.0
1041.0
1042.0
1042.0
1038.0
1038.0
1036.0
1037.0
1038.0
1038.0
1036.0
1037.0
1042.0
1043.0
1044.0
1044.0
1036.0
1036.0
1036.0
1038.0
1035.0
1037.0
1037.0
1037.0
1040.0
1043.0
1041.0
1038.0
1037.0
1037.0
1039.0
1040.0
1040.0
1038.0
1034.0
1037.0
1038.0
1041.0
1044.0
1042.0
1041.0
1042.0
1042.0
1042.0
1038.0
1036.0
1036.0
1036.0
1041.0
1042.0
1043.0
1041.0
1039.0
1039.0
1039.0
1045.0
1043.0
1044.0
1039.0
1037.0
1039.0
1041.0
1045.0
1042.0
1038.0
1037.0
1042.0
1045.0
1043.0
1043.0
1041.0
1042.0
1041.0
1043.0
1042.0
1037.0
1038.0
1039.0
1041.0
1044.0
1045.0
1044.0
1044.0
1045.0
1048.0
1050.0
1049.0
1049.0
1049.0
1053.0
1055.0
1054.0
1051.0
1049.0
1050.0
1054.0
1055.0
1061.0
1058.0
1055.0
1052.0
1051.0
1057.0
1057.0
1051.0
1047.0
1046.0
1045.0
1047.0
1052.0
1050.0
1048.0
1048.0
1050.0
1051.0
1054.0
1055.0
1055.0
1053.0
1052.0
1050.0
1046.0
1044.0
1040.0
1038.0
1041.0
1046.0
1050.0
1050.0
1047.0
1044.0
1042.0
1044.0
1048.0
1050.0
1047.0
1041.0
1041.0
1044.0
1047.0
1048.0
1046.0
1042.0
1042.0
1045.0
1051.0
1048.0
1047.0
1041.0
1041.0
1043.0
1046.0
1047.0
1047.0
1045.0
1049.0
1054.0
1057.0
1058.0
1062.0
1066.0
1078.0
1091.0
1102.0
1107.0
1118.0
1137.0
1162.0
1193.0
1220.0
1241.0
1267.0
1287.0
1315.0
1355.0
1394.0
1423.0
1433.0
1420.0
1377.0
1310.0
1226.0
1140.0
1079.0
1044.0
1034.0
1031.0
1034.0
1036.0
1038.0
1036.0
1038.0
1037.0
1035.0
1032.0
1029.0
1026.0
1027.0
1028.0
1028.0
1028.0
1024.0
1021.0
1020.0
1022.0
1027.0
1025.0
1026.0
1023.0
1023.0
1024.0
1025.0
1022.0
1020.0
1018.0
1018.0
1022.0
1026.0
1024.0
1021.0
1019.0
1021.0
1023.0
1025.0
1023.0
1023.0
1022.0
1021.0
1024.0
1029.0
1027.0
1023.0
1016.0
1014.0
1017.0
1022.0
1022.0
1021.0
1021.0
1018.0
1019.0
1024.0
1023.0
1024.0
1022.0
1023.0
1027.0
1029.0
1026.0
1024.0
1021.0
1023.0
1026.0
1030.0
1028.0
1027.0
1025.0
1026.0
1027.0
1032.0
1036.0
1030.0
1026.0
1030.0
1032.0
1038.0
1037.0
1037.0
1037.0
1040.0
1047.0
1046.0
1048.0
1044.0
1044.0
1050.0
1053.0
1059.0
1059.0
1052.0
1049.0
1055.0
1063.0
1071.0
1075.0
1072.0
1073.0
1076.0
1081.0
1087.0
1088.0
1085.0
1084.0
1085.0
1089.0
1091.0
1090.0
1090.0
1086.0
1084.0
1085.0
1086.0
1084.0
1077.0
1074.0
1074.0
1075.0
1074.0
1071.0
1065.0
1061.0
1060.0
1062.0
1063.0
1062.0
1059.0
1055.0
1054.0
1055.0
1054.0
1050.0
1049.0
1050.0
1053.0
1051.0
1053.0
1051.0
1053.0
1052.0
1052.0
1051.0
1056.0
1052.0
1051.0
1050.0
1053.0
1053.0
1053.0
1053.0
1051.0
1050.0
1053.0
1053.0
1051.0
1047.0
1049.0
1049.0
1049.0
1051.0
1050.0
1046.0
1047.0
1044.0
1047.0
1051.0
1053.0
1050.0
1047.0
1050.0
1051.0
1054.0
1055.0
1051.0
1051.0
1050.0
1051.0
1051.0
1051.0
1052.0
1049.0
1048.0
1050.0
1053.0
1054.0
1053.0
1048.0
1047.0
1048.0
1051.0
1056.0
1058.0
1055.0
1050.0
1051.0
1053.0
1055.0
1048.0
1043.0
1043.0
1045.0
1049.0
1052.0
1050.0
1045.0
1043.0
1043.0
1046.0
1046.0
1048.0
1045.0
1041.0
1043.0
1044.0
1046.0
1048.0
1047.0
1046.0
1042.0
1046.0
1045.0
1047.0
1047.0
1041.0
1039.0
1039.0
1043.0
1043.0
1042.0
1039.0
1041.0
1043.0
1046.0
1045.0
1042.0
1036.0
1039.0
1042.0
1047.0
1044.0
1041.0
1037.0
1038.0
1043.0
1044.0
1044.0
1039.0
1040.0
1039.0
1042.0
1043.0
1042.0
1040.0
1039.0
1039.0
1040.0
1044.0
1044.0
1037.0
1035.0
1038.0
1040.0
1041.0
1040.0
1035.0
1035.0
1036.0
1041.0
1042.0
1037.0
1035.0
1036.0
1036.0
1038.0
1040.0
1034.0
1034.0
1033.0
1034.0
1036.0
1038.0
1038.0
1035.0
1033.0
1035.0
1039.0
1042.0
1037.0
1035.0
1033.0
1037.0
1040.0
1040.0
1038.0
1035.0
1038.0
1040.0
1041.0
1043.0
1043.0
1043.0
1040.0
1041.0
1045.0
1050.0
1050.0
1047.0
1047.0
1044.0
1046.0
1047.0
1047.0
1047.0
1039.0
1041.0
1042.0
1047.0
1048.0
1043.0
1038.0
1038.0
1041.0
1044.0
1045.0
1049.0
1045.0
1043.0
1045.0
1048.0
1048.0
1044.0
1041.0
1040.0
1040.0
1041.0
1037.0
1037.0
1038.0
1037.0
1040.0
1039.0
1037.0
1039.0
1038.0
1040.0
1039.0
1039.0
1040.0
1037.0
1036.0
1034.0
1040.0
1042.0
1042.0
1040.0
1036.0
1037.0
1040.0
1041.0
1037.0
1036.0
1036.0
1039.0
1042.0
1048.0
1048.0
1047.0
1045.0
1042.0
1045.0
1053.0
1060.0
1069.0
1072.0
1082.0
1085.0
1093.0
1097.0
1110.0
1128.0
1155.0
1182.0
1207.0
1225.0
1248.0
1272.0
1303.0
1345.0
1384.0
1405.0
1403.0
1373.0
1310.0
1222.0
1141.0
1083.0
1048.0
1034.0
1032.0
1037.0
1036.0
1035.0
1033.0
1029.0
1031.0
1033.0
1032.0
1029.0
1024.0
1021.0
1021.0
1022.0
1023.0
1021.0
1019.0
1016.0
1019.0
1020.0
1022.0
1020.0
1017.0
1012.0
1012.0
1018.0
1021.0
1020.0
1016.0
1015.0
1014.0
1019.0
1020.0
1018.0
1014.0
1011.0
1013.0
1011.0
1014.0
1015.0
1010.0
1007.0
1009.0
1014.0
1014.0
1012.0
1011.0
1010.0
1010.0
1015.0
1016.0
1016.0
1016.0
1015.0
1015.0
1016.0
1021.0
1019.0
1016.0
1014.0
1015.0
1017.0
1021.0
1021.0
1020.0
1018.0
1022.0
1026.0
1024.0
1021.0
1015.0
1013.0
1016.0
1018.0
1023.0
1021.0
1023.0
1020.0
1020.0
1024.0
1029.0
1032.0
1030.0
1032.0
1030.0
1034.0
1037.0
1040.0
1037.0
1037.0
1042.0
1046.0
1049.0
1050.0
1053.0
1050.0
1054.0
1058.0
1060.0
1061.0
1061.0
1064.0
1064.0
1069.0
1071.0
1067.0
1063.0
1062.0
1063.0
1065.0
1065.0
1065.0
1061.0
1058.0
1055.0
1056.0
1058.0
1055.0
1051.0
1049.0
1048.0
1050.0
1048.0
1043.0
1040.0
1036.0
1038.0
1042.0
1046.0
1045.0
1045.0
1040.0
1040.0
1042.0
1040.0
1033.0
1031.0
1032.0
1033.0
1035.0
1036.0
1031.0
1029.0
1028.0
1031.0
1033.0
1034.0
1034.0
1031.0
1028.0
1029.0
1032.0
1035.0
1032.0
1028.0
1029.0
1026.0
1030.0
1029.0
1027.0
1028.0
1030.0
1033.0
1034.0
1034.0
1032.0
1033.0
1033.0
1034.0
1035.0
1035.0
1031.0
1027.0
1031.0
1031.0
1033.0
1034.0
1032.0
1029.0
1030.0
1027.0
1031.0
1033.0
1032.0
1027.0
1026.0
1028.0
1030.0
1031.0
1030.0
1024.0
1027.0
1025.0
1030.0
1032.0
1031.0
1025.0
1026.0
1027.0
1027.0
1029.0
1028.0
1028.0
1026.0
1028.0
1028.0
1031.0
1029.0
1029.0
1025.0
1020.0
1022.0
1021.0
1021.0
1023.0
1020.0
1020.0
1022.0
1026.0
1027.0
1027.0
1021.0
1022.0
1024.0
1025.0
1026.0
1022.0
1019.0
1021.0
1025.0
1026.0
1023.0
1021.0
1023.0
1023.0
1025.0
1026.0
1025.0
1021.0
1021.0
1023.0
1026.0
1026.0
1025.0
1024.0
1020.0
1022.0
1023.0
1026.0
1027.0
1023.0
1020.0
1018.0
1018.0
1022.0
1018.0
1015.0
1012.0
1014.0
1020.0
1026.0
1023.0
1021.0
1017.0
1019.0
1021.0
1022.0
1023.0
1020.0
1022.0
1023.0
1025.0
1024.0
1022.0
1017.0
1017.0
1022.0
1025.0
1027.0
1026.0
1023.0
1024.0
1026.0
1029.0
1028.0
1024.0
1016.0
1011.0
1014.0
1023.0
1028.0
1027.0
1021.0
1020.0
1021.0
1028.0
1031.0
1031.0
1029.0
1026.0
1029.0
1027.0
1031.0
1029.0
1028.0
1029.0
1033.0
1037.0
1040.0
1037.0
1037.0
1036.0
1035.0
1034.0
1039.0
1044.0
1041.0
1038.0
1037.0
1038.0
1039.0
1036.0
1035.0
1034.0
1038.0
1038.0
1040.0
1036.0
1032.0
1033.0
1037.0
1035.0
1039.0
1041.0
1045.0
1044.0
1041.0
1033.0
1036.0
1036.0
1034.0
1027.0
1026.0
1030.0
1037.0
1041.0
1035.0
1033.0
1033.0
1035.0
1038.0
1036.0
1030.0
1030.0
1034.0
1041.0
1040.0
1036.0
1030.0
1032.0
1035.0
1040.0
1042.0
1041.0
1039.0
1035.0
1034.0
1035.0
1041.0
1042.0
1048.0
1049.0
1054.0
1065.0
1078.0
1096.0
1103.0
1114.0
1132.0
1164.0
1200.0
1231.0
1259.0
1286.0
1321.0
1370.0
1420.0
1456.0
1462.0
1422.0
1334.0
1217.0
1119.0
1055.0
1033.0
1035.0
1040.0
1042.0
1039.0
1035.0
1030.0
1024.0
1023.0
1022.0
1021.0
1021.0
1020.0
1019.0
1021.0
1021.0
1021.0
1018.0
1017.0
1014.0
1012.0
1016.0
1017.0
1020.0
1020.0
1018.0
1014.0
1012.0
1012.0
1014.0
1015.0
1016.0
1018.0
1018.0
1017.0
1014.0
1015.0
1014.0
1015.0
1019.0
1021.0
1018.0
1012.0
1009.0
1005.0
1006.0
1009.0
1014.0
1008.0
1008.0
1012.0
1018.0
1022.0
1022.0
1014.0
1013.0
1011.0
1015.0
1017.0
1017.0
1017.0
1019.0
1020.0
1023.0
1023.0
1021.0
1016.0
1015.0
1017.0
1022.0
1023.0
1023.0
1023.0
1027.0
1030.0
1030.0
1030.0
1028.0
1027.0
1030.0
1032.0
1035.0
1036.0
1034.0
1034.0
1033.0
1041.0
1052.0
1059.0
1058.0
1057.0
1055.0
1060.0
1063.0
1071.0
1074.0
1074.0
1073.0
1079.0
1081.0
1085.0
1085.0
1084.0
1081.0
1084.0
1085.0
1087.0
1087.0
1083.0
1081.0
1079.0
1080.0
1081.0
1080.0
1073.0
1067.0
1066.0
1070.0
1070.0
1066.0
1063.0
1059.0
1058.0
1057.0
1058.0
1059.0
1056.0
1051.0
1051.0
1050.0
1052.0
1052.0
1047.0
1045.0
1047.0
1053.0
1054.0
1055.0
1052.0
1050.0
1047.0
1046.0
1050.0
1049.0
1048.0
1045.0
1046.0
1048.0
1049.0
1048.0
1045.0
1042.0
1045.0
1043.0
1044.0
1044.0
1043.0
1043.0
1044.0
1050.0
1050.0
1048.0
1043.0
1040.0
1040.0
1042.0
1043.0
1043.0
1041.0
1042.0
1047.0
1050.0
1053.0
1051.0
1050.0
1047.0
1047.0
1046.0
1047.0
1048.0
1046.0
1043.0
1041.0
1044.0
1050.0
1051.0
1048.0
1046.0
1043.0
1046.0
1047.0
1049.0
1052.0
1046.0
1043.0
1043.0
1041.0
1044.0
1047.0
1047.0
1046.0
1046.0
1046.0
1046.0
1043.0
1043.0
1044.0
1044.0
1048.0
1045.0
1042.0
1037.0
1041.0
1042.0
1046.0
1045.0
1041.0
1039.0
1043.0
1044.0
1046.0
1041.0
1039.0
1041.0
1042.0
1043.0
1046.0
1040.0
1040.0
1039.0
1040.0
1041.0
1043.0
1042.0
1036.0
1037.0
1038.0
1042.0
1047.0
1046.0
1044.0
1041.0
1039.0
1041.0
1042.0
1042.0
1040.0
1038.0
1040.0
1046.0
1046.0
1043.0
1040.0
1039.0
1038.0
1044.0
1045.0
1047.0
1045.0
1040.0
1037.0
1037.0
1040.0
1040.0
1042.0
1039.0
1041.0
1043.0
1045.0
1044.0
1042.0
1039.0
1042.0
1043.0
1045.0
1047.0
1045.0
1041.0
1042.0
1044.0
1049.0
1046.0
1041.0
1038.0
1037.0
1038.0
1043.0
1047.0
1045.0
1045.0
1042.0
1045.0
1046.0
1047.0
1045.0
1044.0
1041.0
1043.0
1049.0
1051.0
1050.0
1045.0
1049.0
1050.0
1049.0
1052.0
1053.0
1057.0
1059.0
1058.0
1059.0
1056.0
1052.0
1050.0
1050.0
1052.0
1052.0
1051.0
1051.0
1049.0
1052.0
1057.0
1054.0
1053.0
1049.0
1050.0
1055.0
1061.0
1063.0
1059.0
1054.0
1047.0
1044.0
1045.0
1047.0
1046.0
1045.0
1044.0
1048.0
1051.0
1051.0
1046.0
1043.0
1039.0
1042.0
1043.0
1046.0
1043.0
1041.0
1042.0
1042.0
1046.0
1045.0
1048.0
1045.0
1042.0
1045.0
1049.0
1048.0
1046.0
1044.0
1043.0
1043.0
1046.0
1050.0
1047.0
1048.0
1053.0
1055.0
1056.0
1063.0
1067.0
1079.0
1091.0
1104.0
1119.0
1138.0
1160.0
1188.0
1215.0
1245.0
1275.0
1304.0
1330.0
1360.0
1395.0
1429.0
1454.0
1458.0
1436.0
1380.0
1294.0
1202.0
1128.0
1084.0
1061.0
1046.0
1042.0
1044.0
1046.0
1047.0
1046.0
1044.0
1040.0
1036.0
1032.0
1033.0
1033.0
1032.0
1030.0
1027.0
1026.0
1030.0
1026.0
1026.0
1022.0
1023.0
1023.0
1026.0
1025.0
1021.0
1018.0
1017.0
1023.0
1026.0
1028.0
1026.0
1020.0
1021.0
1021.0
1023.0
1021.0
1019.0
1015.0
1016.0
1019.0
1021.0
1020.0
1019.0
1016.0
1019.0
1022.0
1024.0
1023.0
1019.0
1017.0
1020.0
1021.0
1022.0
1023.0
1014.0
1014.0
1014.0
1016.0
1020.0
1022.0
1020.0
1019.0
1023.0
1021.0
1025.0
1025.0
1022.0
1021.0
1023.0
1026.0
1028.0
1026.0
1025.0
1023.0
1025.0
1032.0
1034.0
1033.0
1031.0
1032.0
1032.0
1037.0
1040.0
1044.0
1044.0
1045.0
1047.0
1049.0
1054.0
1057.0
1060.0
1058.0
1064.0
1069.0
1073.0
1074.0
1077.0
1078.0
1083.0
1087.0
1091.0
1088.0
1086.0
1087.0
1089.0
1090.0
1088.0
1085.0
1081.0
1076.0
1077.0
1080.0
1079.0
1076.0
1070.0
1065.0
1062.0
1064.0
1066.0
1061.0
1057.0
1052.0
1050.0
1055.0
1056.0
1056.0
1054.0
1051.0
1053.0
1052.0
1054.0
1052.0
1047.0
1044.0
1045.0
1048.0
1051.0
1050.0
1046.0
1046.0
1045.0
1045.0
1046.0
1046.0
1045.0
1044.0
1046.0
1048.0
1048.0
1045.0
1039.0
1036.0
1036.0
1040.0
1043.0
1040.0
1039.0
1037.0
1038.0
1041.0
1042.0
1043.0
1043.0
1042.0
1042.0
1044.0
1044.0
1041.0
1039.0
1038.0
1039.0
1042.0
1045.0
1046.0
1046.0
1040.0
1039.0
1042.0
1047.0
1049.0
1046.0
1043.0
1040.0
1040.0
1046.0
1042.0
1040.0
1040.0
1040.0
1044.0
1044.0
1042.0
1041.0
1036.0
1039.0
1042.0
1046.0
1049.0
1046.0
1038.0
1038.0
1041.0
1041.0
1041.0
1035.0
1033.0
1036.0
1040.0
1040.0
1038.0
1036.0
1032.0
1029.0
1034.0
1037.0
1040.0
1038.0
1033.0
1034.0
1036.0
1036.0
1035.0
1032.0
1035.0
1037.0
1039.0
1037.0
1035.0
1031.0
1031.0
1031.0
1037.0
1038.0
1036.0
1032.0
1030.0
1031.0
1031.0
1033.0
1031.0
1030.0
1033.0
1032.0
1035.0
1033.0
1033.0
1031.0
1031.0
1029.0
1031.0
1035.0
1034.0
1031.0
1028.0
1030.0
1032.0
1036.0
1036.0
1032.0
1031.0
1030.0
1029.0
1032.0
1034.0
1033.0
1035.0
1036.0
1038.0
1036.0
1036.0
1031.0
1030.0
1031.0
1032.0
1034.0
1034.0
1032.0
1034.0
1032.0
1036.0
1038.0
1038.0
1037.0
1036.0
1037.0
1036.0
1040.0
1038.0
1036.0
1035.0
1037.0
1040.0
1044.0
1044.0
1040.0
1038.0
1036.0
1040.0
1044.0
1046.0
1046.0
1042.0
1038.0
1041.0
1041.0
1040.0
1039.0
1036.0
1037.0
1042.0
1043.0
1041.0
1039.0
1040.0
1042.0
1044.0
1044.0
1042.0
1037.0
1035.0
1036.0
1037.0
1039.0
1034.0
1031.0
1028.0
1032.0
1031.0
1034.0
1028.0
1027.0
1029.0
1032.0
1032.0
1033.0
1030.0
1027.0
1028.0
1028.0
1032.0
1035.0
1035.0
1036.0
1033.0
1031.0
1031.0
1032.0
1031.0
1028.0
1031.0
1034.0
1037.0
1038.0
1037.0
1035.0
1036.0
1042.0
1052.0
1064.0
1075.0
1083.0
1089.0
1102.0
1122.0
1149.0
1177.0
1201.0
1228.0
1256.0
1291.0
1326.0
1368.0
1405.0
1422.0
1406.0
1345.0
1241.0
1136.0
1068.0
1036.0
1027.0
1030.0
1034.0
1031.0
1028.0
1027.0
1025.0
1024.0
1019.0
1012.0
1008.0
1007.0
1010.0
1013.0
1014.0
1010.0
1003.0
1005.0
1007.0
1006.0
1006.0
1005.0
1006.0
1005.0
1003.0
1006.0
1007.0
1004.0
1002.0
1001.0
1005.0
1004.0
1006.0
1003.0
1001.0
996.0
997.0
999.0
997.0
994.0
994.0
995.0
997.0
999.0
1002.0
998.0
994.0
991.0
992.0
993.0
998.0
997.0
994.0
997.0
995.0
1000.0
1004.0
1001.0
996.0
990.0
990.0
993.0
994.0
994.0
990.0
988.0
988.0
993.0
998.0
1001.0
999.0
999.0
1001.0
1004.0
1004.0
1005.0
1004.0
1005.0
1007.0
1006.0
1009.0
1009.0
1010.0
1009.0
1015.0
1021.0
1025.0
1024.0
1026.0
1029.0
1036.0
1040.0
1044.0
1043.0
1041.0
1042.0
1043.0
1047.0
1050.0
1049.0
1049.0
1052.0
1053.0
1056.0
1056.0
1054.0
1049.0
1047.0
1051.0
1051.0
1049.0
1045.0
1039.0
1040.0
1041.0
1045.0
1040.0
1036.0
1029.0
1026.0
1028.0
1031.0
1034.0
1029.0
1028.0
1024.0
1027.0
1029.0
1028.0
1029.0
1026.0
1025.0
1024.0
1024.0
1026.0
1023.0
1017.0
1016.0
1022.0
1027.0
1027.0
1025.0
1019.0
1017.0
1017.0
1022.0
1025.0
1024.0
1022.0
1021.0
1022.0
1024.0
1024.0
1022.0
1020.0
1021.0
1022.0
1023.0
1025.0
1024.0
1018.0
1019.0
1017.0
1025.0
1029.0
1032.0
1028.0
1025.0
1023.0
1027.0
1029.0
1027.0
1024.0
1022.0
1024.0
1027.0
1028.0
1027.0
1024.0
1019.0
1020.0
1021.0
1024.0
1024.0
1019.0
1016.0
1017.0
1018.0
1019.0
1022.0
1022.0
1018.0
1019.0
1020.0
1021.0
1019.0
1016.0
1012.0
1015.0
1015.0
1016.0
1014.0
1011.0
1010.0
1012.0
1015.0
1020.0
1014.0
1012.0
1009.0
1013.0
1015.0
1016.0
1012.0
1007.0
1005.0
1007.0
1009.0
1012.0
1009.0
1007.0
1004.0
1008.0
1009.0
1011.0
1011.0
1008.0
1008.0
1011.0
1015.0
1016.0
1013.0
1009.0
1007.0
1010.0
1013.0
1016.0
1013.0
1011.0
1009.0
1010.0
1013.0
1013.0
1014.0
1015.0
1016.0
1017.0
1015.0
1016.0
1014.0
1011.0
1013.0
1013.0
1016.0
1018.0
1016.0
1011.0
1010.0
1012.0
1013.0
1015.0
1016.0
1011.0
1009.0
1013.0
1016.0
1016.0
1012.0
1008.0
1008.0
1009.0
1014.0
1019.0
1018.0
1015.0
1015.0
1019.0
1022.0
1021.0
1019.0
1017.0
1018.0
1018.0
1027.0
1028.0
1025.0
1023.0
1021.0
1024.0
1024.0
1024.0
1022.0
1018.0
1017.0
1018.0
1019.0
1020.0
1018.0
1019.0
1017.0
1020.0
1022.0
1023.0
1022.0
1021.0
1019.0
1020.0
1020.0
1022.0
1018.0
1014.0
1014.0
1014.0
1017.0
1018.0
1018.0
1017.0
1017.0
1018.0
1022.0
1021.0
1020.0
1013.0
1013.0
1009.0
1010.0
1015.0
1015.0
1013.0
1011.0
1011.0
1013.0
1016.0
1013.0
1011.0
1012.0
1015.0
1015.0
1018.0
1018.0
1015.0
1016.0
1018.0
1021.0
1020.0
1024.0
1026.0
1030.0
1042.0
1055.0
1066.0
1075.0
1080.0
1088.0
1108.0
1136.0
1162.0
1187.0
1212.0
1239.0
1271.0
1305.0
1342.0
1383.0
1414.0
1431.0
1426.0
1392.0
1327.0
1236.0
1149.0
1081.0
1040.0
1024.0
1014.0
1013.0
1013.0
1014.0
1016.0
1017.0
1016.0
1011.0
1006.0
1000.0
997.0
1001.0
1001.0
998.0
996.0
992.0
995.0
995.0
994.0
995.0
993.0
990.0
991.0
994.0
996.0
993.0
990.0
988.0
988.0
990.0
990.0
988.0
985.0
986.0
989.0
992.0
992.0
989.0
987.0
985.0
989.0
988.0
990.0
989.0
989.0
985.0
986.0
988.0
991.0
988.0
985.0
986.0
988.0
988.0
991.0
989.0
987.0
986.0
988.0
991.0
994.0
990.0
988.0
989.0
992.0
996.0
997.0
995.0
992.0
991.0
991.0
990.0
993.0
992.0
990.0
989.0
994.0
995.0
996.0
997.0
994.0
996.0
997.0
1002.0
1006.0
1002.0
1001.0
1002.0
1005.0
1011.0
1013.0
1012.0
1011.0
1012.0
1015.0
1017.0
1023.0
1023.0
1022.0
1024.0
1027.0
1034.0
1037.0
1039.0
1040.0
1043.0
1046.0
1051.0
1052.0
1053.0
1053.0
1053.0
1055.0
1059.0
1060.0
1060.0
1059.0
1058.0
1060.0
1061.0
1062.0
1059.0
1058.0
1052.0
1052.0
1053.0
1052.0
1049.0
1044.0
1045.0
1043.0
1044.0
1040.0
1037.0
1033.0
1034.0
1032.0
1035.0
1034.0
1033.0
1026.0
1027.0
1029.0
1033.0
1033.0
1031.0
1027.0
1026.0
1025.0
1027.0
1028.0
1025.0
1022.0
1023.0
1024.0
1029.0
1029.0
1029.0
1027.0
1025.0
1029.0
1029.0
1030.0
1025.0
1021.0
1018.0
1017.0
1022.0
1022.0
1019.0
1020.0
1018.0
1019.0
1021.0
1022.0
1022.0
1020.0
1017.0
1021.0
1022.0
1023.0
1024.0
1020.0
1016.0
1021.0
1021.0
1023.0
1022.0
1021.0
1022.0
1025.0
1028.0
1027.0
1026.0
1022.0
1023.0
1022.0
1026.0
1027.0
1025.0
1022.0
1020.0
1022.0
1025.0
1028.0
1027.0
1026.0
1023.0
1024.0
1025.0
1026.0
1021.0
1021.0
1019.0
1022.0
1024.0
1024.0
1019.0
1018.0
1016.0
1019.0
1022.0
1022.0
1026.0
1022.0
1019.0
1023.0
1021.0
1022.0
1018.0
1018.0
1016.0
1019.0
1022.0
1021.0
1018.0
1017.0
1016.0
1016.0
1019.0
1021.0
1020.0
1016.0
1013.0
1016.0
1020.0
1022.0
1017.0
1017.0
1015.0
1015.0
1020.0
1023.0
1020.0
1017.0
1020.0
1022.0
