# Simple Text Format
# Sampling Rate (Hz):= 360.00
# Resolution:= 12
# Labels:= ECG
1014.0
1016.0
1017.0
1015.0
1009.0
1008.0
1009.0
1012.0
1014.0
1009.0
1009.0
1004.0
1007.0
1010.0
1013.0
1008.0
1007.0
1005.0
1008.0
1011.0
1010.0
1009.0
1005.0
1003.0
1007.0
1008.0
1011.0
1009.0
1005.0
1004.0
1005.0
1006.0
1008.0
1008.0
1006.0
1005.0
1007.0
1009.0
1011.0
1010.0
1006.0
1007.0
1007.0
1010.0
1014.0
1012.0
1009.0
1008.0
1013.0
1016.0
1018.0
1019.0
1015.0
1014.0
1020.0
1027.0
1027.0
1032.0
1031.0
1033.0
1035.0
1044.0
1047.0
1050.0
1049.0
1051.0
1057.0
1063.0
1069.0
1070.0
1072.0
1073.0
1075.0
1080.0
1080.0
1079.0
1074.0
1075.0
1074.0
1075.0
1078.0
1073.0
1069.0
1068.0
1063.0
1063.0
1063.0
1058.0
1054.0
1050.0
1050.0
1050.0
1051.0
1045.0
1043.0
1038.0
1037.0
1041.0
1046.0
1041.0
1037.0
1034.0
1036.0
1037.0
1038.0
1039.0
1034.0
1032.0
1033.0
1036.0
1038.0
1038.0
1033.0
1030.0
1032.0
1033.0
1035.0
1035.0
1033.0
1032.0
1032.0
1033.0
1033.0
1034.0
1030.0
1027.0
1030.0
1031.0
1035.0
1031.0
1026.0
1027.0
1029.0
1029.0
1029.0
1028.0
1024.0
1023.0
1023.0
1025.0
1028.0
1025.0
1023.0
1022.0
1025.0
1026.0
1028.0
1025.0
1023.0
1024.0
1024.0
1028.0
1031.0
1028.0
1025.0
1024.0
1026.0
1027.0
1029.0
1026.0
1026.0
1027.0
1027.0
1029.0
1030.0
1029.0
1026.0
1025.0
1027.0
1029.0
1031.0
1026.0
1026.0
1022.0
1027.0
1031.0
1031.0
1030.0
1028.0
1024.0
1024.0
1028.0
1027.0
1027.0
1025.0
1023.0
1024.0
1027.0
1028.0
1027.0
1026.0
1024.0
1024.0
1028.0
1028.0
1025.0
1022.0
1023.0
1022.0
1023.0
1027.0
1025.0
1022.0
1019.0
1022.0
1023.0
1025.0
1023.0
1021.0
1020.0
1023.0
1025.0
1024.0
1021.0
1019.0
1019.0
1021.0
1025.0
1026.0
1024.0
1023.0
1019.0
1020.0
1022.0
1024.0
1025.0
1021.0
1019.0
1019.0
1023.0
1023.0
1023.0
1022.0
1020.0
1023.0
1025.0
1026.0
1021.0
1019.0
1021.0
1020.0
1021.0
1026.0
1023.0
1017.0
1018.0
1019.0
1022.0
1022.0
1020.0
1015.0
1014.0
1017.0
1021.0
1022.0
1022.0
1017.0
1017.0
1019.0
1020.0
1023.0
1021.0
1019.0
1016.0
1017.0
1022.0
1025.0
1025.0
1019.0
1018.0
1018.0
1021.0
1023.0
1024.0
1025.0
1025.0
1024.0
1028.0
1029.0
1029.0
1029.0
1027.0
1031.0
1037.0
1037.0
1035.0
1032.0
1029.0
1031.0
1030.0
1031.0
1033.0
1029.0
1030.0
1031.0
1031.0
1030.0
1030.0
1030.0
1028.0
1031.0
1033.0
1035.0
1032.0
1030.0
1026.0
1026.0
1023.0
1023.0
1023.0
1023.0
1021.0
1023.0
1025.0
1025.0
1025.0
1023.0
1022.0
1024.0
1026.0
1025.0
1024.0
1022.0
1021.0
1019.0
1023.0
1023.0
1022.0
1019.0
1017.0
1019.0
1025.0
1027.0
1024.0
1021.0
1019.0
1020.0
1023.0
1025.0
1023.0
1022.0
1021.0
1026.0
1032.0
1035.0
1039.0
1040.0
1047.0
1061.0
1073.0
1083.0
1093.0
1107.0
1129.0
1159.0
1192.0
1221.0
1247.0
1271.0
1299.0
1334.0
1375.0
1409.0
1417.0
1399.0
1345.0
1257.0
1161.0
1093.0
1052.0
1025.0
1014.0
1011.0
1018.0
1021.0
1020.0
1020.0
1012.0
1016.0
1015.0
1016.0
1009.0
1004.0
1002.0
1001.0
1002.0
1004.0
1002.0
998.0
997.0
997.0
1001.0
1000.0
1002.0
1000.0
998.0
998.0
1000.0
1001.0
1000.0
995.0
995.0
996.0
997.0
998.0
998.0
994.0
991.0
994.0
996.0
995.0
994.0
990.0
988.0
991.0
995.0
996.0
995.0
994.0
992.0
991.0
992.0
995.0
989.0
989.0
988.0
990.0
995.0
994.0
992.0
989.0
987.0
988.0
988.0
990.0
991.0
991.0
990.0
990.0
994.0
996.0
996.0
990.0
992.0
993.0
998.0
998.0
998.0
997.0
995.0
996.0
999.0
1002.0
1006.0
1004.0
1005.0
1008.0
1010.0
1015.0
1015.0
1017.0
1018.0
1021.0
1026.0
1031.0
1034.0
1039.0
1040.0
1045.0
1050.0
1053.0
1056.0
1058.0
1059.0
1061.0
1062.0
1060.0
1058.0
1055.0
1053.0
1054.0
1055.0
1054.0
1051.0
1043.0
1040.0
1040.0
1041.0
1038.0
1034.0
1030.0
1029.0
1029.0
1032.0
1033.0
1030.0
1024.0
1021.0
1022.0
1029.0
1030.0
1029.0
1022.0
1021.0
1023.0
1026.0
1027.0
1027.0
1023.0
1024.0
1021.0
1024.0
1028.0
1025.0
1022.0
1019.0
1019.0
1022.0
1021.0
1021.0
1020.0
1017.0
1017.0
1018.0
1022.0
1019.0
1015.0
1014.0
1015.0
1017.0
1020.0
1019.0
1015.0
1016.0
1015.0
1017.0
1018.0
1017.0
1014.0
1012.0
1013.0
1017.0
1020.0
1018.0
1015.0
1015.0
1016.0
1019.0
1022.0
1021.0
1017.0
1016.0
1015.0
1016.0
1018.0
1019.0
1013.0
1014.0
1018.0
1019.0
1020.0
1020.0
1014.0
1010.0
1013.0
1018.0
1020.0
1015.0
1015.0
1013.0
1014.0
1017.0
1018.0
1015.0
1011.0
1010.0
1014.0
1016.0
1017.0
1015.0
1014.0
1010.0
1014.0
1017.0
1017.0
1015.0
1012.0
1009.0
1012.0
1015.0
1016.0
1017.0
1014.0
1011.0
1013.0
1013.0
1018.0
1015.0
1013.0
1010.0
1012.0
1016.0
1019.0
1016.0
1013.0
1011.0
1014.0
1015.0
1018.0
1014.0
1013.0
1012.0
1013.0
1018.0
1019.0
1016.0
1016.0
1015.0
1018.0
1017.0
1018.0
1017.0
1013.0
1011.0
1013.0
1018.0
1018.0
1016.0
1014.0
1014.0
1014.0
1015.0
1020.0
1016.0
1014.0
1013.0
1013.0
1016.0
1020.0
1015.0
1016.0
1014.0
1017.0
1018.0
1017.0
1018.0
1015.0
1012.0
1015.0
1017.0
1019.0
1017.0
1014.0
1013.0
1014.0
1016.0
1017.0
1016.0
1013.0
1013.0
1018.0
1018.0
1019.0
1018.0
1016.0
1014.0
1018.0
1020.0
1023.0
1023.0
1020.0
1021.0
1023.0
1025.0
1029.0
1027.0
1027.0
1024.0
1025.0
1030.0
1029.0
1027.0
1025.0
1022.0
1021.0
1023.0
1023.0
1020.0
1019.0
1018.0
1020.0
1023.0
1026.0
1024.0
1022.0
1025.0
1024.0
1025.0
1028.0
1024.0
1022.0
1018.0
1016.0
1015.0
1018.0
1017.0
1014.0
1013.0
1014.0
1018.0
1017.0
1016.0
1014.0
1011.0
1013.0
1016.0
1018.0
1017.0
1013.0
1012.0
1014.0
1014.0
1017.0
1015.0
1013.0
1010.0
1013.0
1017.0
1018.0
1017.0
1014.0
1016.0
1020.0
1024.0
1028.0
1028.0
1031.0
1038.0
1049.0
1066.0
1075.0
1086.0
1096.0
1114.0
1144.0
1180.0
1214.0
1247.0
1277.0
1309.0
1346.0
1394.0
1435.0
1454.0
1442.0
1385.0
1300.0
1201.0
1124.0
1067.0
1032.0
1020.0
1020.0
1025.0
1023.0
1019.0
1015.0
1010.0
1010.0
1006.0
1003.0
1001.0
997.0
995.0
997.0
998.0
999.0
996.0
992.0
992.0
994.0
994.0
995.0
992.0
990.0
988.0
990.0
995.0
996.0
992.0
991.0
989.0
989.0
990.0
991.0
991.0
988.0
989.0
987.0
988.0
991.0
988.0
986.0
986.0
987.0
994.0
991.0
990.0
987.0
986.0
986.0
989.0
993.0
992.0
987.0
988.0
989.0
991.0
991.0
991.0
989.0
989.0
991.0
992.0
992.0
991.0
992.0
989.0
994.0
995.0
998.0
994.0
994.0
994.0
999.0
1000.0
1005.0
1005.0
1004.0
1002.0
1008.0
1013.0
1016.0
1018.0
1017.0
1020.0
1025.0
1031.0
1035.0
1038.0
1039.0
1038.0
1046.0
1051.0
1057.0
1060.0
1059.0
1060.0
1064.0
1067.0
1072.0
1070.0
1069.0
1066.0
1070.0
1070.0
1068.0
1066.0
1060.0
1057.0
1057.0
1058.0
1055.0
1051.0
1046.0
1042.0
1040.0
1042.0
1041.0
1038.0
1034.0
1032.0
1030.0
1033.0
1035.0
1033.0
1028.0
1031.0
1030.0
1034.0
1033.0
1032.0
1029.0
1029.0
1031.0
1033.0
1032.0
1033.0
1031.0
1029.0
1029.0
1034.0
1035.0
1033.0
1031.0
1029.0
1031.0
1030.0
1033.0
1031.0
1028.0
1026.0
1028.0
1030.0
1034.0
1028.0
1026.0
1024.0
1027.0
1027.0
1029.0
1028.0
1027.0
1024.0
1025.0
1030.0
1031.0
1030.0
1028.0
1025.0
1028.0
1032.0
1031.0
1027.0
1029.0
1026.0
1028.0
1033.0
1034.0
1033.0
1030.0
1027.0
1030.0
1031.0
1034.0
1031.0
1029.0
1028.0
1029.0
1031.0
1032.0
1031.0
1030.0
1028.0
1032.0
1032.0
1034.0
1031.0
1028.0
1027.0
1027.0
1031.0
1033.0
1031.0
1027.0
1025.0
1028.0
1028.0
1029.0
1029.0
1026.0
1027.0
1028.0
1029.0
1029.0
1026.0
1026.0
1024.0
1026.0
1029.0
1030.0
1026.0
1025.0
1021.0
1024.0
1029.0
1028.0
1026.0
1024.0
1022.0
1024.0
1027.0
1026.0
1026.0
1023.0
1022.0
1025.0
1025.0
1029.0
1026.0
1023.0
1021.0
1025.0
1029.0
1028.0
1027.0
1020.0
1023.0
1024.0
1028.0
1027.0
1027.0
1024.0
1024.0
1026.0
1029.0
1028.0
1028.0
1023.0
1024.0
1027.0
1026.0
1027.0
1024.0
1022.0
1020.0
1023.0
1027.0
1027.0
1024.0
1022.0
1022.0
1024.0
1028.0
1028.0
1027.0
1022.0
1020.0
1023.0
1027.0
1027.0
1025.0
1023.0
1024.0
1025.0
1026.0
1027.0
1027.0
1027.0
1026.0
1027.0
1032.0
1034.0
1036.0
1036.0
1034.0
1036.0
1040.0
1041.0
1042.0
1038.0
1038.0
1039.0
1037.0
1037.0
1035.0
1032.0
1030.0
1033.0
1036.0
1037.0
1037.0
1039.0
1035.0
1039.0
1039.0
1039.0
1034.0
1028.0
1028.0
1031.0
1033.0
1034.0
1030.0
1027.0
1026.0
1027.0
1031.0
1033.0
1030.0
1026.0
1025.0
1028.0
1031.0
1032.0
1028.0
1026.0
1025.0
1026.0
1028.0
1030.0
1029.0
1027.0
1027.0
1030.0
1031.0
1032.0
1033.0
1031.0
1031.0
1039.0
1044.0
1050.0
1055.0
1062.0
1075.0
1091.0
1106.0
1124.0
1148.0
1181.0
1213.0
1251.0
1288.0
1323.0
1356.0
1392.0
1432.0
1468.0
1484.0
1469.0
1416.0
1333.0
1237.0
1155.0
1097.0
1061.0
1037.0
1027.0
1028.0
1034.0
1033.0
1033.0
1028.0
1022.0
1021.0
1016.0
1015.0
1015.0
1011.0
1009.0
1005.0
1008.0
1009.0
1012.0
1009.0
1005.0
1004.0
1004.0
1009.0
1010.0
1009.0
1006.0
1002.0
1004.0
1007.0
1007.0
1005.0
1000.0
1001.0
1002.0
1003.0
1003.0
1003.0
1000.0
1001.0
1001.0
1002.0
1002.0
999.0
999.0
998.0
999.0
1001.0
1005.0
999.0
999.0
998.0
999.0
1002.0
1001.0
1001.0
998.0
999.0
999.0
1002.0
1004.0
1002.0
998.0
1000.0
1001.0
1003.0
1003.0
1004.0
998.0
999.0
1002.0
1007.0
1006.0
1006.0
1005.0
1003.0
1006.0
1009.0
1009.0
1009.0
1009.0
1011.0
1014.0
1019.0
1022.0
1024.0
1023.0
1023.0
1027.0
1033.0
1037.0
1040.0
1043.0
1044.0
1049.0
1056.0
1059.0
1063.0
1062.0
1065.0
1072.0
1074.0
1078.0
1076.0
1077.0
1076.0
1081.0
1083.0
1081.0
1081.0
1075.0
1073.0
1073.0
1072.0
1072.0
1067.0
1062.0
1060.0
1058.0
1057.0
1056.0
1052.0
1046.0
1045.0
1047.0
1049.0
1051.0
1046.0
1043.0
1042.0
1043.0
1048.0
1046.0
1043.0
1043.0
1039.0
1042.0
1042.0
1044.0
1039.0
1038.0
1039.0
1040.0
1041.0
1040.0
1039.0
1037.0
1037.0
1037.0
1041.0
1040.0
1038.0
1035.0
1035.0
1035.0
1037.0
1039.0
1036.0
1033.0
1031.0
1033.0
1036.0
1035.0
1035.0
1030.0
1030.0
1031.0
1034.0
1034.0
1032.0
1028.0
1030.0
1030.0
1032.0
1031.0
1031.0
1029.0
1029.0
1031.0
1033.0
1031.0
1031.0
1025.0
1029.0
1031.0
1035.0
1036.0
1033.0
1030.0
1031.0
1034.0
1037.0
1034.0
1034.0
1031.0
1031.0
1036.0
1038.0
1038.0
1036.0
1032.0
1032.0
1033.0
1036.0
1036.0
1032.0
1032.0
1030.0
1032.0
1036.0
1036.0
1033.0
1030.0
1029.0
1031.0
1035.0
1033.0
1031.0
1029.0
1027.0
1029.0
1035.0
1031.0
1030.0
1028.0
1027.0
1027.0
1027.0
1030.0
1028.0
1024.0
1025.0
1028.0
1029.0
1035.0
1029.0
1026.0
1024.0
1028.0
1028.0
1029.0
1028.0
1025.0
1022.0
1022.0
1027.0
1027.0
1029.0
1026.0
1025.0
1027.0
1028.0
1030.0
1026.0
1025.0
1023.0
1025.0
1027.0
1026.0
1024.0
1023.0
1020.0
1023.0
1025.0
1026.0
1025.0
1023.0
1024.0
1027.0
1031.0
1028.0
1025.0
1025.0
1023.0
1026.0
1029.0
1028.0
1028.0
1025.0
1025.0
1028.0
1031.0
1027.0
1027.0
1024.0
1022.0
1024.0
1027.0
1027.0
1025.0
1020.0
1023.0
1024.0
1025.0
1027.0
1021.0
1021.0
1021.0
1025.0
1028.0
1028.0
1027.0
1024.0
1023.0
1030.0
1029.0
1029.0
1027.0
1027.0
1027.0
1029.0
1031.0
1036.0
1033.0
1030.0
1032.0
1036.0
1040.0
1040.0
1038.0
1038.0
1039.0
1039.0
1042.0
1042.0
1037.0
1034.0
1032.0
1034.0
1036.0
1035.0
1034.0
1031.0
1033.0
1033.0
1037.0
1038.0
1039.0
1038.0
1039.0
1038.0
1040.0
1039.0
1038.0
1031.0
1032.0
1032.0
1033.0
1033.0
1029.0
1029.0
1027.0
1031.0
1033.0
1035.0
1034.0
1029.0
1028.0
1029.0
1033.0
1031.0
1028.0
1026.0
1025.0
1028.0
1031.0
1034.0
1029.0
1023.0
1021.0
1026.0
1029.0
1033.0
1032.0
1031.0
1028.0
1030.0
1034.0
1034.0
1034.0
1032.0
1030.0
1035.0
1041.0
1044.0
1047.0
1050.0
1057.0
1067.0
1081.0
1088.0
1097.0
1107.0
1122.0
1147.0
1176.0
1206.0
1231.0
1257.0
1285.0
1313.0
1347.0
1381.0
1417.0
1442.0
1450.0
1437.0
1396.0
1323.0
1235.0
1155.0
1101.0
1063.0
1043.0
1032.0
1027.0
1027.0
1025.0
1030.0
1033.0
1030.0
1025.0
1020.0
1016.0
1015.0
1015.0
1014.0
1011.0
1009.0
1009.0
1008.0
1012.0
1008.0
1005.0
1004.0
1009.0
1008.0
1009.0
1009.0
1006.0
1002.0
1002.0
1003.0
1004.0
1006.0
1005.0
1002.0
1000.0
1003.0
1007.0
1005.0
999.0
997.0
999.0
1002.0
1005.0
1006.0
1003.0
1000.0
998.0
999.0
1002.0
1002.0
1003.0
999.0
996.0
998.0
1000.0
998.0
997.0
994.0
997.0
997.0
1001.0
1000.0
1001.0
994.0
996.0
995.0
997.0
999.0
999.0
996.0
999.0
999.0
1001.0
999.0
999.0
998.0
998.0
998.0
1002.0
1003.0
1000.0
1003.0
1004.0
1004.0
1009.0
1008.0
1009.0
1008.0
1014.0
1018.0
1020.0
1025.0
1027.0
1028.0
1031.0
1036.0
1041.0
1044.0
1045.0
1048.0
1052.0
1059.0
1065.0
1067.0
1068.0
1065.0
1068.0
1074.0
1079.0
1078.0
1076.0
1071.0
1068.0
1068.0
1069.0
1067.0
1066.0
1063.0
1058.0
1057.0
1056.0
1055.0
1051.0
1047.0
1044.0
1044.0
1045.0
1045.0
1041.0
1036.0
1037.0
1038.0
1041.0
1042.0
1041.0
1036.0
1034.0
1034.0
1035.0
1037.0
1037.0
1035.0
1035.0
1038.0
1040.0
1039.0
1036.0
1031.0
1031.0
1033.0
1038.0
1036.0
1033.0
1031.0
1028.0
1030.0
1031.0
1032.0
1031.0
1027.0
1027.0
1027.0
1030.0
1029.0
1026.0
1024.0
1027.0
1027.0
1031.0
1032.0
1028.0
1027.0
1024.0
1025.0
1027.0
1028.0
1027.0
1025.0
1028.0
1028.0
1030.0
1029.0
1025.0
1022.0
1024.0
1028.0
1031.0
1032.0
1028.0
1027.0
1026.0
1029.0
1029.0
1032.0
1031.0
1027.0
1027.0
1030.0
1031.0
1028.0
1029.0
1025.0
1027.0
1028.0
1032.0
1030.0
1028.0
1026.0
1025.0
1028.0
1027.0
1032.0
1029.0
1026.0
1025.0
1029.0
1030.0
1029.0
1027.0
1025.0
1026.0
1029.0
1029.0
1032.0
1030.0
1025.0
1027.0
1027.0
1030.0
1030.0
1027.0
1027.0
1025.0
1027.0
1026.0
1026.0
1026.0
1022.0
1024.0
1027.0
1028.0
1028.0
1026.0
1025.0
1024.0
1026.0
1029.0
1027.0
1027.0
1025.0
1023.0
1023.0
1027.0
1027.0
1024.0
1021.0
1022.0
1026.0
1026.0
1026.0
1026.0
1025.0
1024.0
1026.0
1026.0
1029.0
1024.0
1024.0
1021.0
1025.0
1027.0
1029.0
1027.0
1023.0
1022.0
1026.0
1028.0
1029.0
1027.0
1022.0
1024.0
1025.0
1026.0
1028.0
1027.0
1023.0
1023.0
1026.0
1026.0
1029.0
1025.0
1022.0
1023.0
1027.0
1026.0
1028.0
1025.0
1025.0
1024.0
1025.0
1028.0
1027.0
1025.0
1023.0
1023.0
1024.0
1026.0
1028.0
1025.0
1025.0
1028.0
1029.0
1034.0
1032.0
1031.0
1030.0
1029.0
1032.0
1036.0
1038.0
1034.0
1034.0
1035.0
1037.0
1039.0
1037.0
1034.0
1029.0
1028.0
1030.0
1031.0
1031.0
1030.0
1027.0
1028.0
1030.0
1034.0
1037.0
1033.0
1033.0
1031.0
1033.0
1035.0
1035.0
1032.0
1026.0
1023.0
1023.0
1025.0
1023.0
1025.0
1021.0
1023.0
1023.0
1026.0
1024.0
1023.0
1019.0
1020.0
1021.0
1023.0
1023.0
1022.0
1020.0
1021.0
1023.0
1023.0
1022.0
1019.0
1019.0
1021.0
1023.0
1026.0
1023.0
1023.0
1021.0
1022.0
1025.0
1030.0
1032.0
1034.0
1034.0
1039.0
1050.0
1061.0
1074.0
1083.0
1092.0
1100.0
1128.0
1158.0
1189.0
1217.0
1245.0
1279.0
1312.0
1348.0
1387.0
1428.0
1453.0
1452.0
1414.0
1345.0
1248.0
1162.0
1101.0
1056.0
1030.0
1020.0
1021.0
1021.0
1021.0
1018.0
1021.0
1021.0
1020.0
1014.0
1007.0
1004.0
1005.0
1004.0
1003.0
1000.0
996.0
998.0
998.0
999.0
1001.0
1000.0
996.0
994.0
998.0
998.0
998.0
996.0
991.0
992.0
996.0
995.0
995.0
990.0
988.0
988.0
991.0
993.0
993.0
990.0
986.0
986.0
988.0
988.0
990.0
988.0
984.0
986.0
987.0
990.0
989.0
987.0
984.0
984.0
988.0
990.0
993.0
991.0
985.0
986.0
988.0
991.0
991.0
989.0
986.0
990.0
992.0
995.0
992.0
992.0
991.0
990.0
993.0
998.0
999.0
996.0
996.0
997.0
1002.0
1008.0
1008.0
1008.0
1010.0
1012.0
1017.0
1022.0
1024.0
1025.0
1027.0
1030.0
1035.0
1042.0
1043.0
1044.0
1046.0
1052.0
1056.0
1065.0
1068.0
1067.0
1068.0
1068.0
1072.0
1076.0
1075.0
1073.0
1072.0
1069.0
1074.0
1073.0
1070.0
1067.0
1063.0
1060.0
1061.0
1061.0
1059.0
1053.0
1048.0
1048.0
1047.0
1048.0
1045.0
1044.0
1038.0
1039.0
1039.0
1042.0
1039.0
1040.0
1036.0
1035.0
1037.0
1040.0
1039.0
1036.0
1032.0
1034.0
1036.0
1039.0
1037.0
1035.0
1032.0
1032.0
1035.0
1037.0
1036.0
1036.0
1033.0
1035.0
1035.0
1036.0
1036.0
1033.0
1029.0
1031.0
1031.0
1034.0
1032.0
1032.0
1027.0
1028.0
1030.0
1030.0
1032.0
1029.0
1028.0
1028.0
1031.0
1032.0
1032.0
1028.0
1026.0
1028.0
1031.0
1034.0
1032.0
1031.0
1027.0
1027.0
1030.0
1033.0
1033.0
1031.0
1032.0
1029.0
1031.0
1033.0
1031.0
1029.0
1030.0
1030.0
1031.0
1035.0
1033.0
1031.0
1029.0
1029.0
1031.0
1034.0
1034.0
1033.0
1027.0
1029.0
1030.0
1030.0
1032.0
1031.0
1028.0
1026.0
1028.0
1030.0
1032.0
1028.0
1026.0
1028.0
1030.0
1031.0
1028.0
1026.0
1024.0
1022.0
1028.0
1028.0
1028.0
1025.0
1024.0
1024.0
1025.0
1028.0
1027.0
1026.0
1024.0
1024.0
1028.0
1028.0
1027.0
1026.0
1023.0
1023.0
1028.0
1027.0
1027.0
1026.0
1024.0
1025.0
1028.0
1027.0
1027.0
1025.0
1023.0
1027.0
1028.0
1031.0
1029.0
1028.0
1023.0
1026.0
1026.0
1031.0
1031.0
1030.0
1025.0
1027.0
1030.0
1032.0
1029.0
1026.0
1024.0
1028.0
1030.0
1034.0
1029.0
1031.0
1026.0
1024.0
1030.0
1033.0
1032.0
1029.0
1029.0
1027.0
1030.0
1033.0
1029.0
1028.0
1026.0
1027.0
1030.0
1033.0
1034.0
1033.0
1030.0
1033.0
1037.0
1039.0
1041.0
1039.0
1036.0
1038.0
1041.0
1043.0
1044.0
1040.0
1039.0
1042.0
1044.0
1044.0
1040.0
1039.0
1033.0
1033.0
1037.0
1040.0
1037.0
1037.0
1035.0
1037.0
1040.0
1044.0
1042.0
1039.0
1037.0
1036.0
1038.0
1040.0
1035.0
1031.0
1026.0
1028.0
1030.0
1033.0
1031.0
1033.0
1029.0
1028.0
1028.0
1031.0
1032.0
1030.0
1026.0
1026.0
1029.0
1031.0
1031.0
1027.0
1027.0
1026.0
1027.0
1030.0
1030.0
1028.0
1024.0
1026.0
1029.0
1027.0
1029.0
1028.0
1028.0
1029.0
1033.0
1035.0
1035.0
1036.0
1036.0
1042.0
1053.0
1065.0
1077.0
1084.0
1096.0
1111.0
1133.0
1166.0
1199.0
1231.0
1259.0
1290.0
1327.0
1360.0
1400.0
1440.0
1465.0
1473.0
1458.0
1402.0
1317.0
1222.0
1145.0
1090.0
1059.0
1041.0
1029.0
1027.0
1029.0
1027.0
1030.0
1026.0
1026.0
1023.0
1017.0
1016.0
1014.0
1013.0
1010.0
1008.0
1003.0
1004.0
1008.0
1010.0
1008.0
1006.0
1004.0
1003.0
1007.0
1007.0
1009.0
1006.0
1004.0
1004.0
1006.0
1008.0
1006.0
1005.0
1001.0
1000.0
1003.0
1004.0
1007.0
1002.0
999.0
1000.0
1003.0
1006.0
1004.0
1004.0
1001.0
999.0
1003.0
1005.0
1002.0
998.0
998.0
997.0
998.0
1002.0
1002.0
1000.0
997.0
998.0
1000.0
1003.0
1004.0
1003.0
998.0
1000.0
1004.0
1005.0
1002.0
1003.0
1002.0
1003.0
1005.0
1010.0
1007.0
1007.0
1002.0
1004.0
1008.0
1013.0
1014.0
1012.0
1011.0
1017.0
1020.0
1023.0
1024.0
1023.0
1024.0
1031.0
1034.0
1039.0
1043.0
1042.0
1046.0
1049.0
1056.0
1061.0
1067.0
1065.0
1065.0
1072.0
1078.0
1081.0
1084.0
1083.0
1084.0
1082.0
1084.0
1086.0
1082.0
1080.0
1076.0
1073.0
1074.0
1074.0
1070.0
1068.0
1061.0
1057.0
1058.0
1061.0
1054.0
1050.0
1046.0
1047.0
1047.0
1050.0
1045.0
1044.0
1043.0
1040.0
1043.0
1044.0
1044.0
1042.0
1038.0
1041.0
1045.0
1043.0
1042.0
1038.0
1036.0
1037.0
1040.0
1042.0
1041.0
1039.0
1034.0
1032.0
1036.0
1038.0
1037.0
1034.0
1032.0
1032.0
1033.0
1034.0
1033.0
1033.0
1030.0
1031.0
1031.0
1032.0
1030.0
1029.0
1026.0
1027.0
1031.0
1034.0
1033.0
1030.0
1028.0
1028.0
1032.0
1036.0
1033.0
1035.0
1027.0
1030.0
1031.0
1031.0
1032.0
1033.0
1033.0
1034.0
1036.0
1038.0
1038.0
1035.0
1032.0
1030.0
1035.0
1038.0
1038.0
1037.0
1033.0
1034.0
1033.0
1036.0
1037.0
1034.0
1031.0
1031.0
1032.0
1038.0
1036.0
1033.0
1030.0
1028.0
1033.0
1032.0
1034.0
1030.0
1027.0
1027.0
1030.0
1033.0
1032.0
1031.0
1026.0
1027.0
1028.0
1032.0
1030.0
1028.0
1027.0
1030.0
1029.0
1029.0
1029.0
1028.0
1027.0
1028.0
1030.0
1031.0
1028.0
1028.0
1024.0
1025.0
1027.0
1029.0
1028.0
1027.0
1024.0
1025.0
1027.0
1028.0
1029.0
1026.0
1024.0
1026.0
1028.0
1034.0
1032.0
1026.0
1023.0
1024.0
1026.0
1030.0
1028.0
1027.0
1026.0
1024.0
1027.0
1027.0
1026.0
1022.0
1022.0
1024.0
1025.0
1028.0
1026.0
1027.0
1023.0
1024.0
1025.0
1028.0
1028.0
1024.0
1024.0
1023.0
1025.0
1029.0
1028.0
1026.0
1024.0
1027.0
1028.0
1028.0
1026.0
1026.0
1025.0
1028.0
1030.0
1032.0
1034.0
1032.0
1028.0
1031.0
1032.0
1035.0
1035.0
1036.0
1036.0
1037.0
1037.0
1040.0
1038.0
1034.0
1032.0
1032.0
1033.0
1034.0
1035.0
1032.0
1026.0
1029.0
1032.0
1035.0
1036.0
1034.0
1032.0
1032.0
1035.0
1037.0
1035.0
1031.0
1027.0
1026.0
1026.0
1026.0
1025.0
1026.0
1023.0
1025.0
1030.0
1032.0
1029.0
1026.0
1020.0
1023.0
1024.0
1026.0
1027.0
1023.0
1024.0
1022.0
1024.0
1028.0
1027.0
1023.0
1022.0
1022.0
1026.0
1026.0
1024.0
1025.0
1023.0
1025.0
1031.0
1033.0
1032.0
1031.0
1034.0
1041.0
1050.0
1060.0
1071.0
1080.0
1089.0
1103.0
1124.0
1151.0
1180.0
1214.0
1241.0
1274.0
1308.0
1341.0
1377.0
1417.0
1449.0
1459.0
1439.0
1377.0
1274.0
1173.0
1099.0
1055.0
1033.0
1027.0
1027.0
1024.0
1022.0
1020.0
1023.0
1020.0
1015.0
1010.0
1001.0
1002.0
1003.0
1004.0
1003.0
1001.0
1000.0
1000.0
1001.0
1002.0
1000.0
997.0
997.0
995.0
995.0
999.0
997.0
995.0
997.0
998.0
998.0
998.0
995.0
995.0
990.0
992.0
995.0
997.0
996.0
996.0
993.0
990.0
991.0
996.0
993.0
993.0
991.0
991.0
991.0
995.0
995.0
991.0
990.0
991.0
992.0
994.0
994.0
993.0
989.0
986.0
991.0
993.0
992.0
994.0
992.0
993.0
995.0
996.0
996.0
993.0
989.0
992.0
997.0
1000.0
999.0
998.0
998.0
999.0
1003.0
1005.0
1008.0
1009.0
1006.0
1010.0
1015.0
1021.0
1022.0
1023.0
1025.0
1029.0
1036.0
1040.0
1042.0
1045.0
1045.0
1052.0
1057.0
1059.0
1063.0
1060.0
1062.0
1063.0
1069.0
1071.0
1070.0
1066.0
1063.0
1063.0
1062.0
1061.0
1060.0
1056.0
1051.0
1047.0
1045.0
1049.0
1043.0
1040.0
1038.0
1037.0
1038.0
1039.0
1035.0
1034.0
1031.0
1028.0
1033.0
1033.0
1033.0
1031.0
1029.0
1029.0
1031.0
1032.0
1028.0
1027.0
1028.0
1028.0
1029.0
1029.0
1028.0
1025.0
1024.0
1023.0
1023.0
1026.0
1024.0
1022.0
1019.0
1020.0
1021.0
1022.0
1024.0
1019.0
1019.0
1019.0
1020.0
1023.0
1021.0
1018.0
1015.0
1012.0
1015.0
1018.0
1019.0
1017.0
1015.0
1015.0
1015.0
1019.0
1016.0
1015.0
1015.0
1014.0
1016.0
1020.0
1017.0
1016.0
1015.0
1015.0
1018.0
1021.0
1019.0
1017.0
1015.0
1016.0
1019.0
1020.0
1021.0
1016.0
1017.0
1015.0
1016.0
1019.0
1014.0
1014.0
1012.0
1013.0
1015.0
1017.0
1017.0
1013.0
1011.0
1013.0
1016.0
1020.0
1015.0
1016.0
1007.0
1010.0
1014.0
1015.0
1016.0
1013.0
1008.0
1013.0
1013.0
1016.0
1015.0
1014.0
1010.0
1011.0
1016.0
1016.0
1013.0
1012.0
1011.0
1010.0
1012.0
1016.0
1014.0
1011.0
1009.0
1010.0
1012.0
1014.0
1013.0
1011.0
1008.0
1010.0
1010.0
1013.0
1013.0
1008.0
1006.0
1007.0
1009.0
1012.0
1013.0
1013.0
1007.0
1006.0
1008.0
1011.0
1011.0
1010.0
1006.0
1007.0
1010.0
1009.0
1008.0
1009.0
1008.0
1007.0
1009.0
1013.0
1012.0
1007.0
1007.0
1005.0
1009.0
1009.0
1010.0
1009.0
1007.0
1009.0
1008.0
1011.0
1008.0
1006.0
1008.0
1006.0
1010.0
1012.0
1010.0
1008.0
1006.0
1006.0
1011.0
1013.0
1013.0
1010.0
1010.0
1011.0
1015.0
1018.0
1018.0
1018.0
1014.0
1017.0
1019.0
1022.0
1024.0
1021.0
1020.0
1022.0
1020.0
1023.0
1018.0
1016.0
1014.0
1013.0
1015.0
1019.0
1018.0
1017.0
1012.0
1015.0
1020.0
1021.0
1019.0
1022.0
1014.0
1016.0
1015.0
1015.0
1013.0
1008.0
1009.0
1011.0
1011.0
1013.0
1011.0
1010.0
1008.0
1010.0
1012.0
1016.0
1010.0
1009.0
1007.0
1009.0
1011.0
1017.0
1013.0
1008.0
1008.0
1008.0
1012.0
1014.0
1014.0
1010.0
1010.0
1009.0
1012.0
1017.0
1017.0
1016.0
1019.0
1025.0
1035.0
1046.0
1059.0
1069.0
1077.0
1100.0
1131.0
1167.0
1200.0
1233.0
1266.0
1302.0
1340.0
1387.0
1429.0
1459.0
1458.0
1427.0
1356.0
1263.0
1166.0
1096.0
1048.0
1020.0
1014.0
1015.0
1012.0
1011.0
1006.0
1008.0
1006.0
1007.0
1003.0
996.0
993.0
990.0
991.0
992.0
992.0
988.0
988.0
987.0
990.0
990.0
987.0
985.0
984.0
986.0
986.0
988.0
985.0
985.0
979.0
983.0
987.0
986.0
986.0
981.0
980.0
979.0
983.0
984.0
982.0
980.0
978.0
979.0
982.0
983.0
979.0
976.0
974.0
976.0
980.0
981.0
980.0
976.0
975.0
976.0
980.0
978.0
980.0
979.0
977.0
980.0
982.0
984.0
980.0
981.0
979.0
980.0
985.0
986.0
982.0
983.0
982.0
984.0
988.0
992.0
992.0
992.0
991.0
994.0
1000.0
1006.0
1007.0
1009.0
1011.0
1016.0
1025.0
1031.0
1033.0
1037.0
1039.0
1046.0
1053.0
1058.0
1058.0
1057.0
1058.0
1059.0
1061.0
1064.0
1059.0
1057.0
1051.0
1047.0
1048.0
1048.0
1044.0
1039.0
1035.0
1032.0
1031.0
1031.0
1028.0
1027.0
1023.0
1023.0
1022.0
1025.0
1022.0
1022.0
1018.0
1018.0
1022.0
1024.0
1022.0
1019.0
1016.0
1016.0
1017.0
1019.0
1018.0
1015.0
1013.0
1012.0
1017.0
1017.0
1016.0
1015.0
1010.0
1012.0
1013.0
1015.0
1012.0
1013.0
1009.0
1009.0
1012.0
1013.0
1011.0
1008.0
1004.0
1006.0
1009.0
1010.0
1012.0
1010.0
1008.0
1007.0
1011.0
1015.0
1014.0
1010.0
1010.0
1013.0
1014.0
1017.0
1015.0
1012.0
1011.0
1015.0
1019.0
1021.0
1014.0
1015.0
1014.0
1016.0
1017.0
1019.0
1020.0
1017.0
1017.0
1017.0
1016.0
1020.0
1018.0
1016.0
1013.0
1015.0
1015.0
1017.0
1017.0
1014.0
1011.0
1015.0
1013.0
1016.0
1016.0
1015.0
1012.0
1013.0
1014.0
1017.0
1015.0
1014.0
1011.0
1011.0
1014.0
1015.0
1015.0
1011.0
1012.0
1012.0
1014.0
1018.0
1013.0
1012.0
1011.0
1009.0
1012.0
1014.0
1013.0
1011.0
1007.0
1010.0
1010.0
1014.0
1011.0
1010.0
1008.0
1011.0
1012.0
1016.0
1013.0
1008.0
1005.0
1008.0
1011.0
1013.0
1013.0
1010.0
1010.0
1011.0
1013.0
1016.0
1014.0
1012.0
1010.0
1011.0
1015.0
1015.0
1013.0
1010.0
1010.0
1011.0
1012.0
1015.0
1015.0
1012.0
1008.0
1013.0
1012.0
1017.0
1014.0
1013.0
1011.0
1010.0
1012.0
1014.0
1014.0
1011.0
1011.0
1012.0
1014.0
1013.0
1014.0
1012.0
1009.0
1012.0
1015.0
1017.0
1015.0
1013.0
1011.0
1012.0
1016.0
1020.0
1021.0
1021.0
1021.0
1022.0
1024.0
1025.0
1023.0
1024.0
1024.0
1026.0
1026.0
1028.0
1026.0
1025.0
1020.0
1019.0
1020.0
1022.0
1020.0
1018.0
1019.0
1020.0
1020.0
1021.0
1023.0
1021.0
1019.0
1019.0
1024.0
1024.0
1021.0
1017.0
1010.0
1011.0
1011.0
1015.0
1014.0
1011.0
1011.0
1012.0
1013.0
1018.0
1014.0
1011.0
1006.0
1007.0
1011.0
1014.0
1012.0
1009.0
1011.0
1011.0
1012.0
1016.0
1017.0
1012.0
1013.0
1011.0
1014.0
1015.0
1017.0
1014.0
1012.0
1015.0
1016.0
1018.0
1017.0
1017.0
1019.0
1023.0
1031.0
1038.0
1045.0
1049.0
1061.0
1074.0
1087.0
1103.0
1127.0
1152.0
1180.0
1211.0
1244.0
1272.0
1301.0
1331.0
1366.0
1407.0
1435.0
1442.0
1420.0
1367.0
1286.0
1193.0
1117.0
1069.0
1036.0
1013.0
1004.0
1007.0
1013.0
1018.0
1017.0
1011.0
1010.0
1007.0
1007.0
1007.0
1002.0
997.0
995.0
997.0
1000.0
1002.0
999.0
996.0
995.0
995.0
998.0
1002.0
998.0
998.0
993.0
996.0
998.0
1000.0
999.0
996.0
993.0
992.0
998.0
998.0
998.0
993.0
992.0
991.0
993.0
994.0
994.0
992.0
991.0
992.0
994.0
994.0
991.0
992.0
989.0
990.0
994.0
996.0
994.0
988.0
988.0
988.0
993.0
993.0
992.0
990.0
989.0
992.0
993.0
996.0
993.0
994.0
988.0
993.0
992.0
996.0
994.0
994.0
994.0
992.0
997.0
996.0
997.0
996.0
995.0
998.0
999.0
1002.0
1003.0
1000.0
1001.0
1004.0
1009.0
1014.0
1016.0
1013.0
1013.0
1018.0
1020.0
1025.0
1027.0
1027.0
1027.0
1033.0
