# Simple Text Format
# Sampling Rate (Hz):= 360.00
# Resolution:= 12
# Labels:= ECG
1017.0
1018.0
1016.0
1018.0
1020.0
1018.0
1016.0
1015.0
1013.0
1019.0
1020.0
1018.0
1014.0
1013.0
1012.0
1014.0
1018.0
1016.0
1013.0
1011.0
1013.0
1013.0
1016.0
1016.0
1015.0
1013.0
1016.0
1018.0
1018.0
1019.0
1016.0
1013.0
1014.0
1018.0
1021.0
1022.0
1018.0
1016.0
1018.0
1020.0
1022.0
1023.0
1019.0
1017.0
1017.0
1021.0
1024.0
1019.0
1019.0
1016.0
1017.0
1021.0
1025.0
1022.0
1019.0
1016.0
1017.0
1019.0
1021.0
1021.0
1016.0
1018.0
1018.0
1019.0
1023.0
1019.0
1017.0
1015.0
1019.0
1017.0
1021.0
1019.0
1016.0
1014.0
1013.0
1017.0
1019.0
1017.0
1017.0
1012.0
1013.0
1017.0
1017.0
1014.0
1014.0
1012.0
1013.0
1014.0
1018.0
1015.0
1013.0
1010.0
1012.0
1013.0
1015.0
1016.0
1014.0
1011.0
1012.0
1013.0
1015.0
1012.0
1011.0
1007.0
1011.0
1013.0
1015.0
1014.0
1011.0
1010.0
1009.0
1012.0
1015.0
1014.0
1008.0
1010.0
1009.0
1012.0
1014.0
1015.0
1014.0
1012.0
1012.0
1012.0
1014.0
1013.0
1010.0
1007.0
1010.0
1015.0
1017.0
1018.0
1013.0
1012.0
1010.0
1014.0
1016.0
1015.0
1014.0
1012.0
1012.0
1015.0
1017.0
1017.0
1011.0
1012.0
1013.0
1013.0
1018.0
1016.0
1012.0
1011.0
1013.0
1016.0
1019.0
1016.0
1011.0
1012.0
1011.0
1013.0
1018.0
1019.0
1013.0
1014.0
1017.0
1021.0
1026.0
1023.0
1020.0
1019.0
1021.0
1025.0
1026.0
1027.0
1025.0
1022.0
1026.0
1028.0
1028.0
1024.0
1022.0
1018.0
1020.0
1022.0
1024.0
1025.0
1024.0
1022.0
1022.0
1026.0
1028.0
1028.0
1026.0
1020.0
1023.0
1022.0
1020.0
1019.0
1015.0
1015.0
1014.0
1019.0
1020.0
1020.0
1014.0
1014.0
1013.0
1016.0
1016.0
1018.0
1017.0
1015.0
1014.0
1016.0
1015.0
1016.0
1012.0
1012.0
1012.0
1016.0
1018.0
1015.0
1013.0
1010.0
1012.0
1016.0
1017.0
1016.0
1014.0
1014.0
1015.0
1018.0
1022.0
1025.0
1025.0
1029.0
1036.0
1048.0
1059.0
1070.0
1079.0
1090.0
1116.0
1144.0
1179.0
1207.0
1232.0
1259.0
1291.0
1332.0
1377.0
1412.0
1429.0
1414.0
1361.0
1272.0
1172.0
1088.0
1036.0
1010.0
1001.0
1006.0
1010.0
1014.0
1009.0
1004.0
1004.0
1004.0
1007.0
1002.0
999.0
992.0
993.0
995.0
997.0
996.0
994.0
994.0
993.0
996.0
997.0
992.0
991.0
988.0
990.0
995.0
995.0
992.0
990.0
985.0
985.0
989.0
989.0
988.0
986.0
983.0
984.0
986.0
988.0
985.0
985.0
983.0
985.0
988.0
989.0
988.0
984.0
981.0
983.0
986.0
987.0
987.0
984.0
983.0
984.0
986.0
988.0
989.0
985.0
985.0
985.0
989.0
989.0
988.0
984.0
985.0
985.0
991.0
992.0
993.0
988.0
988.0
990.0
993.0
999.0
995.0
994.0
994.0
999.0
1000.0
1004.0
1004.0
1004.0
1002.0
1005.0
1011.0
1016.0
1016.0
1016.0
1017.0
1022.0
1027.0
1031.0
1032.0
1034.0
1033.0
1037.0
1042.0
1046.0
1051.0
1048.0
1048.0
1052.0
1054.0
1057.0
1053.0
1050.0
1047.0
1047.0
1045.0
1048.0
1045.0
1038.0
1036.0
1034.0
1033.0
1033.0
1031.0
1026.0
1021.0
1021.0
1022.0
1020.0
1017.0
1013.0
1012.0
1010.0
1012.0
1015.0
1014.0
1009.0
1008.0
1007.0
1007.0
1012.0
1011.0
1008.0
1005.0
1008.0
1010.0
1010.0
1009.0
1003.0
1004.0
1004.0
1007.0
1009.0
1008.0
1003.0
999.0
1002.0
1005.0
1005.0
1005.0
1001.0
999.0
999.0
1001.0
1001.0
1002.0
996.0
998.0
998.0
999.0
1001.0
1001.0
995.0
996.0
996.0
999.0
1003.0
1001.0
998.0
996.0
997.0
999.0
1001.0
1000.0
1001.0
998.0
1000.0
1003.0
1005.0
1003.0
1000.0
996.0
999.0
1002.0
1004.0
1004.0
1001.0
998.0
999.0
1000.0
1002.0
1001.0
998.0
997.0
998.0
1001.0
1000.0
998.0
996.0
994.0
995.0
997.0
1000.0
999.0
998.0
995.0
997.0
999.0
999.0
996.0
995.0
992.0
996.0
1000.0
999.0
996.0
992.0
991.0
993.0
997.0
999.0
997.0
993.0
990.0
992.0
993.0
996.0
996.0
995.0
991.0
992.0
993.0
996.0
992.0
991.0
988.0
990.0
995.0
995.0
996.0
993.0
989.0
991.0
992.0
993.0
994.0
989.0
987.0
989.0
989.0
993.0
993.0
989.0
988.0
987.0
993.0
993.0
993.0
990.0
988.0
988.0
990.0
995.0
992.0
990.0
987.0
990.0
993.0
994.0
993.0
989.0
987.0
992.0
992.0
995.0
994.0
993.0
991.0
990.0
994.0
996.0
993.0
992.0
992.0
991.0
994.0
994.0
994.0
992.0
991.0
992.0
995.0
999.0
997.0
994.0
992.0
992.0
997.0
999.0
1000.0
999.0
997.0
1001.0
1003.0
1005.0
1004.0
1003.0
1003.0
1006.0
1009.0
1012.0
1009.0
1008.0
1006.0
1006.0
1009.0
1009.0
1008.0
1003.0
999.0
1003.0
1004.0
1005.0
1006.0
1005.0
1004.0
1006.0
1009.0
1009.0
1011.0
1007.0
1004.0
1005.0
1005.0
1005.0
1001.0
999.0
995.0
995.0
999.0
1001.0
1001.0
997.0
995.0
998.0
999.0
1002.0
998.0
996.0
993.0
997.0
1001.0
1002.0
1001.0
997.0
995.0
1000.0
999.0
1002.0
1000.0
998.0
998.0
998.0
1001.0
1003.0
1002.0
1002.0
1000.0
1006.0
1005.0
1008.0
1010.0
1007.0
1011.0
1014.0
1027.0
1040.0
1047.0
1053.0
1063.0
1073.0
1094.0
1122.0
1147.0
1175.0
1203.0
1233.0
1264.0
1296.0
1335.0
1373.0
1407.0
1414.0
1393.0
1327.0
1234.0
1135.0
1060.0
1018.0
1003.0
998.0
1000.0
999.0
999.0
1002.0
1001.0
1003.0
1000.0
994.0
988.0
990.0
991.0
991.0
986.0
985.0
984.0
983.0
986.0
988.0
987.0
983.0
981.0
979.0
985.0
985.0
984.0
980.0
979.0
980.0
984.0
983.0
982.0
978.0
976.0
980.0
980.0
983.0
983.0
979.0
977.0
977.0
977.0
980.0
978.0
977.0
977.0
978.0
979.0
981.0
979.0
976.0
976.0
978.0
980.0
982.0
981.0
978.0
978.0
979.0
979.0
982.0
983.0
980.0
978.0
982.0
985.0
985.0
983.0
980.0
980.0
984.0
985.0
988.0
987.0
986.0
984.0
985.0
988.0
993.0
992.0
993.0
991.0
994.0
996.0
1001.0
1001.0
1000.0
1003.0
1007.0
1012.0
1017.0
1018.0
1019.0
1022.0
1026.0
1033.0
1037.0
1038.0
1039.0
1039.0
1042.0
1048.0
1050.0
1050.0
1046.0
1042.0
1042.0
1043.0
1044.0
1041.0
1034.0
1032.0
1030.0
1030.0
1028.0
1027.0
1021.0
1019.0
1018.0
1021.0
1022.0
1019.0
1015.0
1011.0
1013.0
1017.0
1017.0
1016.0
1012.0
1009.0
1011.0
1016.0
1013.0
1014.0
1014.0
1011.0
1011.0
1011.0
1015.0
1012.0
1009.0
1007.0
1011.0
1011.0
1013.0
1011.0
1007.0
1005.0
1006.0
1008.0
1013.0
1008.0
1008.0
1007.0
1007.0
1010.0
1009.0
1009.0
1007.0
1003.0
1009.0
1010.0
1013.0
1010.0
1008.0
1005.0
1007.0
1012.0
1014.0
1012.0
1011.0
1009.0
1011.0
1011.0
1014.0
1013.0
1013.0
1012.0
1012.0
1016.0
1016.0
1016.0
1013.0
1011.0
1011.0
1013.0
1016.0
1015.0
1011.0
1010.0
1009.0
1013.0
1014.0
1015.0
1013.0
1008.0
1011.0
1013.0
1012.0
1013.0
1010.0
1008.0
1011.0
1014.0
1015.0
1013.0
1009.0
1007.0
1009.0
1011.0
1010.0
1010.0
1008.0
1007.0
1008.0
1010.0
1012.0
1008.0
1008.0
1004.0
1006.0
1010.0
1008.0
1007.0
1005.0
1004.0
1006.0
1009.0
1010.0
1008.0
1006.0
1004.0
1004.0
1008.0
1011.0
1010.0
1007.0
1007.0
1007.0
1008.0
1012.0
1008.0
1007.0
1007.0
1008.0
1009.0
1010.0
1013.0
1008.0
1005.0
1008.0
1012.0
1014.0
1012.0
1009.0
1006.0
1011.0
1009.0
1012.0
1011.0
1008.0
1008.0
1009.0
1012.0
1014.0
1012.0
1007.0
1008.0
1008.0
1013.0
1014.0
1012.0
1011.0
1009.0
1010.0
1014.0
1016.0
1015.0
1011.0
1009.0
1012.0
1014.0
1015.0
1011.0
1012.0
1010.0
1013.0
1014.0
1014.0
1014.0
1012.0
1011.0
1014.0
1019.0
1019.0
1018.0
1016.0
1015.0
1018.0
1021.0
1023.0
1021.0
1021.0
1020.0
1021.0
1023.0
1027.0
1029.0
1025.0
1025.0
1026.0
1028.0
1027.0
1023.0
1018.0
1018.0
1017.0
1022.0
1024.0
1022.0
1023.0
1021.0
1023.0
1024.0
1027.0
1025.0
1021.0
1023.0
1024.0
1024.0
1023.0
1017.0
1013.0
1011.0
1017.0
1017.0
1019.0
1017.0
1015.0
1013.0
1015.0
1014.0
1018.0
1018.0
1015.0
1015.0
1015.0
1014.0
1018.0
1016.0
1012.0
1014.0
1014.0
1018.0
1017.0
1014.0
1010.0
1010.0
1014.0
1018.0
1018.0
1017.0
1015.0
1016.0
1016.0
1022.0
1022.0
1024.0
1027.0
1030.0
1039.0
1051.0
1065.0
1075.0
1082.0
1096.0
1122.0
1154.0
1186.0
1219.0
1251.0
1280.0
1312.0
1352.0
1397.0
1434.0
1451.0
1441.0
1393.0
1315.0
1218.0
1132.0
1067.0
1031.0
1015.0
1011.0
1014.0
1014.0
1013.0
1008.0
1014.0
1013.0
1011.0
1008.0
1002.0
998.0
999.0
999.0
1000.0
999.0
995.0
993.0
994.0
998.0
998.0
994.0
991.0
991.0
993.0
997.0
996.0
991.0
990.0
987.0
988.0
989.0
990.0
988.0
986.0
984.0
987.0
988.0
986.0
985.0
984.0
984.0
986.0
989.0
987.0
986.0
983.0
983.0
986.0
989.0
987.0
989.0
988.0
983.0
983.0
989.0
988.0
987.0
986.0
986.0
988.0
991.0
993.0
989.0
991.0
990.0
991.0
994.0
994.0
993.0
992.0
993.0
994.0
999.0
1001.0
1002.0
997.0
1000.0
1001.0
1007.0
1010.0
1014.0
1013.0
1013.0
1018.0
1022.0
1025.0
1025.0
1029.0
1031.0
1036.0
1041.0
1045.0
1047.0
1047.0
1051.0
1055.0
1060.0
1058.0
1061.0
1057.0
1058.0
1059.0
1057.0
1057.0
1055.0
1053.0
1051.0
1050.0
1049.0
1046.0
1040.0
1039.0
1034.0
1034.0
1035.0
1036.0
1031.0
1028.0
1026.0
1027.0
1029.0
1031.0
1029.0
1025.0
1022.0
1024.0
1027.0
1026.0
1024.0
1022.0
1022.0
1024.0
1025.0
1025.0
1025.0
1021.0
1021.0
1022.0
1025.0
1026.0
1024.0
1023.0
1016.0
1020.0
1022.0
1020.0
1018.0
1016.0
1017.0
1016.0
1022.0
1020.0
1019.0
1017.0
1015.0
1013.0
1016.0
1018.0
1016.0
1014.0
1016.0
1015.0
1022.0
1022.0
1020.0
1019.0
1018.0
1022.0
1021.0
1024.0
1020.0
1019.0
1018.0
1019.0
1024.0
1024.0
1022.0
1019.0
1016.0
1018.0
1020.0
1019.0
1019.0
1017.0
1015.0
1018.0
1018.0
1017.0
1014.0
1014.0
1016.0
1017.0
1019.0
1020.0
1016.0
1013.0
1011.0
1014.0
1016.0
1015.0
1016.0
1013.0
1013.0
1016.0
1017.0
1018.0
1015.0
1010.0
1011.0
1013.0
1015.0
1014.0
1013.0
1006.0
1005.0
1009.0
1012.0
1015.0
1012.0
1010.0
1007.0
1010.0
1013.0
1016.0
1012.0
1011.0
1009.0
1011.0
1012.0
1014.0
1012.0
1010.0
1009.0
1011.0
1012.0
1010.0
1010.0
1008.0
1008.0
1010.0
1012.0
1013.0
1012.0
1009.0
1006.0
1010.0
1013.0
1014.0
1015.0
1010.0
1010.0
1008.0
1012.0
1011.0
1011.0
1011.0
1010.0
1010.0
1012.0
1015.0
1010.0
1006.0
1007.0
1008.0
1013.0
1014.0
1011.0
1009.0
1008.0
1012.0
1012.0
1014.0
1013.0
1011.0
1010.0
1010.0
1014.0
1013.0
1009.0
1009.0
1008.0
1013.0
1014.0
1017.0
1013.0
1011.0
1012.0
1014.0
1018.0
1021.0
1018.0
1015.0
1019.0
1020.0
1022.0
1024.0
1024.0
1020.0
1017.0
1013.0
1019.0
1019.0
1016.0
1016.0
1015.0
1018.0
1018.0
1020.0
1017.0
1016.0
1017.0
1017.0
1020.0
1020.0
1018.0
1012.0
1006.0
1008.0
1010.0
1011.0
1009.0
1007.0
1010.0
1011.0
1013.0
1009.0
1008.0
1006.0
1006.0
1010.0
1012.0
1011.0
1008.0
1007.0
1008.0
1010.0
1015.0
1012.0
1011.0
1006.0
1007.0
1009.0
1010.0
1012.0
1012.0
1011.0
1011.0
1009.0
1014.0
1014.0
1019.0
1017.0
1024.0
1032.0
1047.0
1059.0
1066.0
1073.0
1086.0
1110.0
1141.0
1173.0
1206.0
1237.0
1269.0
1302.0
1344.0
1387.0
1423.0
1438.0
1428.0
1383.0
1301.0
1201.0
1116.0
1057.0
1023.0
1008.0
1008.0
1011.0
1008.0
1007.0
1004.0
1004.0
1004.0
1004.0
997.0
990.0
988.0
992.0
992.0
993.0
988.0
985.0
984.0
985.0
991.0
989.0
987.0
981.0
981.0
983.0
984.0
986.0
985.0
983.0
983.0
983.0
987.0
983.0
982.0
978.0
978.0
981.0
984.0
983.0
981.0
976.0
976.0
978.0
981.0
983.0
980.0
977.0
976.0
978.0
979.0
980.0
980.0
975.0
976.0
977.0
980.0
978.0
978.0
977.0
978.0
979.0
982.0
983.0
982.0
983.0
978.0
982.0
983.0
985.0
984.0
981.0
982.0
983.0
988.0
987.0
985.0
984.0
984.0
988.0
990.0
992.0
990.0
990.0
991.0
994.0
996.0
1000.0
1001.0
1002.0
1002.0
1008.0
1010.0
1015.0
1015.0
1014.0
1014.0
1022.0
1027.0
1031.0
1031.0
1034.0
1037.0
1042.0
1048.0
1050.0
1050.0
1047.0
1047.0
1050.0
1054.0
1051.0
1049.0
1042.0
1043.0
1044.0
1045.0
1044.0
1040.0
1035.0
1031.0
1030.0
1033.0
1033.0
1033.0
1027.0
1026.0
1028.0
1030.0
1025.0
1021.0
1018.0
1020.0
1020.0
1022.0
1023.0
1018.0
1017.0
1017.0
1019.0
1020.0
1022.0
1021.0
1020.0
1016.0
1022.0
1019.0
1020.0
1020.0
1016.0
1015.0
1018.0
1021.0
1020.0
1015.0
1012.0
1013.0
1015.0
1016.0
1019.0
1017.0
1011.0
1012.0
1014.0
1015.0
1015.0
1013.0
1011.0
1011.0
1014.0
1017.0
1016.0
1015.0
1014.0
1015.0
1015.0
1021.0
1020.0
1016.0
1018.0
1014.0
1017.0
1020.0
1021.0
1018.0
1017.0
1017.0
1018.0
1021.0
1018.0
1017.0
1014.0
1015.0
1018.0
1020.0
1021.0
1019.0
1014.0
1015.0
1014.0
1019.0
1016.0
1018.0
1013.0
1013.0
1014.0
1017.0
1017.0
1017.0
1015.0
1012.0
1016.0
1017.0
1015.0
1013.0
1010.0
1010.0
1013.0
1015.0
1015.0
1014.0
1012.0
1009.0
1013.0
1018.0
1018.0
1016.0
1010.0
1008.0
1011.0
1013.0
1014.0
1009.0
1007.0
1008.0
1013.0
1011.0
1011.0
1014.0
1008.0
1007.0
1010.0
1010.0
1012.0
1011.0
1010.0
1009.0
1012.0
1012.0
1013.0
1013.0
1011.0
1013.0
1013.0
1014.0
1012.0
1012.0
1008.0
1009.0
1013.0
1013.0
1014.0
1011.0
1010.0
1011.0
1013.0
1014.0
1017.0
1014.0
1010.0
1005.0
1008.0
1012.0
1013.0
1011.0
1009.0
1009.0
1014.0
1016.0
1014.0
1013.0
1012.0
1010.0
1010.0
1015.0
1015.0
1012.0
1010.0
1013.0
1016.0
1017.0
1016.0
1016.0
1014.0
1012.0
1014.0
1016.0
1017.0
1015.0
1012.0
1015.0
1016.0
1020.0
1022.0
1021.0
1020.0
1021.0
1025.0
1029.0
1028.0
1028.0
1025.0
1026.0
1030.0
1032.0
1027.0
1023.0
1023.0
1022.0
1024.0
1028.0
1028.0
1027.0
1026.0
1024.0
1027.0
1030.0
1030.0
1031.0
1025.0
1023.0
1020.0
1023.0
1023.0
1023.0
1020.0
1020.0
1020.0
1025.0
1023.0
1023.0
1022.0
1019.0
1021.0
1024.0
1020.0
1017.0
1016.0
1015.0
1020.0
1024.0
1021.0
1019.0
1018.0
1018.0
1021.0
1025.0
1023.0
1024.0
1023.0
1025.0
1028.0
1032.0
1039.0
1045.0
1052.0
1064.0
1076.0
1091.0
1114.0
1141.0
1175.0
1213.0
1245.0
1278.0
1306.0
1338.0
1373.0
1415.0
1452.0
1471.0
1456.0
1407.0
1319.0
1222.0
1135.0
1079.0
1042.0
1019.0
1010.0
1015.0
1020.0
1021.0
1021.0
1018.0
1017.0
1011.0
1009.0
1007.0
1005.0
1003.0
1000.0
1000.0
999.0
1004.0
1003.0
998.0
995.0
993.0
996.0
1000.0
1002.0
1000.0
997.0
995.0
995.0
997.0
996.0
994.0
992.0
995.0
995.0
996.0
995.0
993.0
994.0
992.0
994.0
993.0
993.0
991.0
989.0
990.0
994.0
996.0
997.0
994.0
994.0
995.0
991.0
994.0
994.0
994.0
990.0
991.0
993.0
995.0
996.0
994.0
993.0
993.0
993.0
996.0
993.0
992.0
989.0
992.0
995.0
997.0
999.0
997.0
997.0
997.0
1000.0
1002.0
1001.0
997.0
997.0
1000.0
1003.0
1003.0
1005.0
1005.0
1005.0
1008.0
1012.0
1018.0
1017.0
1018.0
1016.0
1018.0
1023.0
1027.0
1028.0
1031.0
1031.0
1034.0
1041.0
1045.0
1049.0
1052.0
1051.0
1054.0
1057.0
1063.0
1064.0
1064.0
1060.0
1061.0
1062.0
1067.0
1066.0
1063.0
1059.0
1055.0
1052.0
1052.0
1049.0
1047.0
1044.0
1043.0
1043.0
1041.0
1037.0
1035.0
1031.0
1030.0
1027.0
1029.0
1031.0
1027.0
1024.0
1025.0
1026.0
1028.0
1027.0
1022.0
1020.0
1022.0
1022.0
1025.0
1023.0
1020.0
1015.0
1019.0
1020.0
1020.0
1019.0
1020.0
1018.0
1018.0
1020.0
1021.0
1020.0
1019.0
1019.0
1019.0
1018.0
1017.0
1016.0
1013.0
1015.0
1014.0
1017.0
1021.0
1018.0
1016.0
1013.0
1013.0
1014.0
1018.0
1019.0
1017.0
1016.0
1015.0
1019.0
1021.0
1020.0
1017.0
1012.0
1014.0
1020.0
1020.0
1023.0
1018.0
1014.0
1015.0
1017.0
1022.0
1023.0
1022.0
1020.0
1020.0
1021.0
1018.0
1020.0
1018.0
1018.0
1020.0
1019.0
1024.0
1024.0
1017.0
1017.0
1018.0
1019.0
1023.0
1018.0
1016.0
1014.0
1016.0
1018.0
1019.0
1020.0
1017.0
1013.0
1016.0
1020.0
1021.0
1018.0
1017.0
1014.0
1016.0
1013.0
1011.0
1011.0
1011.0
1011.0
1012.0
1014.0
1017.0
1013.0
1016.0
1013.0
1014.0
1014.0
1014.0
1017.0
1016.0
1015.0
1011.0
1017.0
1016.0
1016.0
1013.0
1012.0
1011.0
1013.0
1015.0
1014.0
1014.0
1013.0
1013.0
1014.0
1019.0
1019.0
1014.0
1012.0
1011.0
1015.0
1017.0
1017.0
1016.0
1017.0
1014.0
1018.0
1020.0
1015.0
1011.0
1011.0
1013.0
1018.0
1021.0
1020.0
1017.0
1014.0
1015.0
1018.0
1022.0
1022.0
1019.0
1018.0
1014.0
1015.0
1016.0
1020.0
1019.0
1020.0
1018.0
1022.0
1023.0
1025.0
1024.0
1017.0
1015.0
1019.0
1022.0
1022.0
1022.0
1021.0
1022.0
1024.0
1024.0
1022.0
1018.0
1018.0
1019.0
1024.0
1028.0
1029.0
1029.0
1027.0
1027.0
1031.0
1033.0
1033.0
1027.0
1030.0
1027.0
1032.0
1033.0
1031.0
1029.0
1025.0
1030.0
1030.0
1030.0
1029.0
1025.0
1027.0
1027.0
1029.0
1034.0
1033.0
1030.0
1028.0
1026.0
1027.0
1030.0
1032.0
1026.0
1022.0
1020.0
1020.0
1021.0
1018.0
1017.0
1014.0
1017.0
1024.0
1024.0
1022.0
1018.0
1017.0
1016.0
1020.0
1023.0
1023.0
1021.0
1018.0
1016.0
1019.0
1022.0
1021.0
1019.0
1015.0
1018.0
1019.0
1021.0
1020.0
1020.0
1019.0
1016.0
1018.0
1023.0
1023.0
1022.0
1021.0
1024.0
1031.0
1036.0
1041.0
1045.0
1051.0
1063.0
1076.0
1088.0
1100.0
1120.0
1146.0
1177.0
1213.0
1246.0
1272.0
1298.0
1323.0
1357.0
1400.0
1434.0
1451.0
1441.0
1401.0
1325.0
1232.0
1149.0
1091.0
1052.0
1030.0
1022.0
1021.0
1022.0
1021.0
1013.0
1007.0
1005.0
1008.0
1007.0
1005.0
1003.0
998.0
998.0
998.0
1001.0
1001.0
999.0
995.0
994.0
997.0
996.0
995.0
991.0
993.0
992.0
994.0
996.0
993.0
990.0
989.0
989.0
990.0
992.0
993.0
991.0
989.0
989.0
990.0
992.0
989.0
988.0
985.0
984.0
987.0
989.0
989.0
987.0
983.0
985.0
988.0
988.0
988.0
986.0
984.0
988.0
990.0
992.0
989.0
987.0
983.0
985.0
988.0
994.0
991.0
985.0
984.0
986.0
991.0
995.0
993.0
992.0
987.0
989.0
993.0
997.0
996.0
994.0
997.0
997.0
1001.0
1004.0
1004.0
1005.0
1005.0
1008.0
1013.0
1018.0
1018.0
1018.0
1018.0
1021.0
1023.0
1032.0
1036.0
1038.0
1043.0
1045.0
1048.0
1052.0
1052.0
1050.0
1052.0
1058.0
1059.0
1063.0
1061.0
1057.0
1054.0
1051.0
1051.0
1051.0
1051.0
1048.0
1043.0
1041.0
1042.0
1042.0
1037.0
1032.0
1029.0
1030.0
1030.0
1033.0
1028.0
1023.0
1020.0
1021.0
1021.0
1021.0
1018.0
1016.0
1014.0
1015.0
1016.0
1019.0
1017.0
1016.0
1012.0
1013.0
1014.0
1015.0
1016.0
1014.0
1013.0
1014.0
1015.0
1016.0
1015.0
1011.0
1010.0
1012.0
1012.0
1013.0
1010.0
1009.0
1010.0
1007.0
1009.0
1010.0
1007.0
1007.0
1005.0
1005.0
1008.0
1008.0
1006.0
1004.0
1002.0
1004.0
1007.0
1011.0
1009.0
1006.0
1004.0
1004.0
1009.0
1014.0
1008.0
1003.0
1001.0
1000.0
1004.0
1009.0
1008.0
1006.0
1004.0
1005.0
1006.0
1008.0
1009.0
1005.0
1005.0
1004.0
1008.0
1008.0
1008.0
1006.0
1005.0
1005.0
1010.0
1013.0
1013.0
1005.0
1000.0
1001.0
1004.0
1005.0
1005.0
1004.0
1003.0
1004.0
1006.0
1010.0
1009.0
1006.0
1001.0
1002.0
1002.0
1004.0
1002.0
1003.0
1001.0
1000.0
1003.0
1004.0
1002.0
997.0
998.0
997.0
1002.0
1003.0
1003.0
1001.0
998.0
1000.0
1003.0
1000.0
999.0
998.0
995.0
994.0
997.0
999.0
998.0
998.0
996.0
997.0
1002.0
1005.0
1004.0
1000.0
998.0
999.0
1004.0
1005.0
1005.0
1001.0
997.0
999.0
1001.0
1004.0
1005.0
1001.0
998.0
998.0
1001.0
1005.0
1004.0
1005.0
1004.0
1004.0
1004.0
1005.0
1003.0
998.0
998.0
1001.0
1002.0
1001.0
1002.0
999.0
999.0
1003.0
1006.0
1008.0
1007.0
1003.0
1000.0
1002.0
1005.0
1010.0
1009.0
1005.0
1000.0
1000.0
1002.0
1009.0
1007.0
1005.0
1001.0
1004.0
1006.0
1008.0
1009.0
1005.0
999.0
1001.0
1007.0
1011.0
1011.0
1005.0
1008.0
1009.0
1011.0
1014.0
1017.0
1014.0
1016.0
1019.0
1021.0
1023.0
1019.0
1016.0
1013.0
1012.0
1016.0
1016.0
1016.0
1011.0
1011.0
1015.0
1016.0
1023.0
1024.0
1021.0
1016.0
1016.0
1016.0
1021.0
1021.0
1017.0
1012.0
1007.0
1010.0
1013.0
1017.0
1014.0
1013.0
1012.0
1014.0
1013.0
1013.0
1010.0
1006.0
1007.0
1014.0
1018.0
1016.0
1013.0
1008.0
1009.0
1010.0
1012.0
1013.0
1012.0
1009.0
1009.0
1011.0
1014.0
1015.0
1014.0
1011.0
1017.0
1020.0
1022.0
1022.0
1018.0
1020.0
1026.0
1030.0
1041.0
1050.0
1058.0
1066.0
1077.0
1102.0
1132.0
1162.0
1194.0
1221.0
1253.0
1288.0
1321.0
1359.0
1404.0
1435.0
1453.0
1442.0
1404.0
1320.0
1219.0
1128.0
1066.0
1031.0
1015.0
1009.0
1007.0
1009.0
1008.0
1008.0
1007.0
1004.0
1001.0
993.0
990.0
992.0
995.0
995.0
986.0
984.0
982.0
984.0
983.0
984.0
983.0
982.0
982.0
980.0
982.0
983.0
985.0
981.0
976.0
981.0
985.0
984.0
982.0
976.0
972.0
977.0
979.0
982.0
981.0
977.0
977.0
980.0
981.0
978.0
974.0
978.0
979.0
982.0
981.0
979.0
978.0
978.0
979.0
980.0
984.0
981.0
979.0
975.0
978.0
983.0
983.0
981.0
982.0
987.0
987.0
989.0
988.0
987.0
982.0
982.0
986.0
990.0
993.0
995.0
991.0
989.0
993.0
996.0
996.0
997.0
994.0
991.0
994.0
999.0
1001.0
1002.0
997.0
996.0
998.0
1003.0
1008.0
1009.0
1008.0
1006.0
1013.0
1022.0
1025.0
1024.0
1025.0
1026.0
1033.0
1038.0
1042.0
1043.0
1044.0
1044.0
1046.0
1048.0
1053.0
1055.0
1054.0
1050.0
1047.0
1047.0
1050.0
1049.0
1049.0
1046.0
1045.0
1041.0
1041.0
1042.0
1035.0
1033.0
1027.0
1027.0
1031.0
1028.0
1025.0
1022.0
1022.0
1026.0
1029.0
1023.0
1018.0
1020.0
1022.0
1020.0
1021.0
1021.0
1018.0
1016.0
1016.0
1020.0
1021.0
1019.0
1017.0
1016.0
1021.0
1022.0
1020.0
1018.0
1011.0
1008.0
1017.0
1021.0
1025.0
1026.0
1020.0
1015.0
1015.0
1014.0
1013.0
1012.0
1011.0
1015.0
1018.0
1022.0
1022.0
1016.0
1012.0
1013.0
1018.0
1019.0
1018.0
1016.0
1014.0
1012.0
1014.0
1021.0
1025.0
1024.0
1020.0
1015.0
1018.0
1018.0
1021.0
1022.0
1019.0
1018.0
1020.0
1024.0
1026.0
1023.0
1021.0
1022.0
1027.0
1028.0
1030.0
1027.0
1020.0
1018.0
1018.0
1025.0
1030.0
1024.0
1023.0
1021.0
1022.0
1024.0
1028.0
1029.0
1026.0
1025.0
1028.0
1029.0
1029.0
1025.0
1025.0
1022.0
1022.0
1023.0
1024.0
1023.0
1023.0
1019.0
1022.0
1026.0
1027.0
1027.0
1026.0
1022.0
1019.0
1020.0
1022.0
1021.0
1020.0
1016.0
1018.0
1020.0
1025.0
1026.0
1022.0
1022.0
1021.0
1022.0
1022.0
1020.0
1018.0
1012.0
1017.0
1023.0
1025.0
1022.0
1019.0
1015.0
1017.0
1021.0
1022.0
1023.0
1022.0
1019.0
1022.0
1024.0
1023.0
1022.0
1020.0
1018.0
1021.0
1021.0
1024.0
1023.0
1019.0
1017.0
1021.0
1023.0
1023.0
1024.0
1021.0
1021.0
1022.0
1025.0
1028.0
1028.0
1025.0
1022.0
1025.0
1023.0
1027.0
1029.0
1026.0
1024.0
1026.0
1028.0
1030.0
1029.0
1029.0
1030.0
1031.0
1032.0
1034.0
1036.0
1033.0
1034.0
1037.0
1040.0
1041.0
1041.0
1040.0
1038.0
1037.0
1039.0
1043.0
1040.0
1039.0
1037.0
1037.0
1036.0
1036.0
1035.0
1030.0
1029.0
1028.0
1034.0
1036.0
1035.0
1030.0
1030.0
1031.0
1033.0
1036.0
1033.0
1031.0
1030.0
1031.0
1030.0
1030.0
1026.0
1021.0
1021.0
1021.0
1026.0
1027.0
1027.0
1027.0
1026.0
1028.0
1030.0
1031.0
1029.0
1024.0
1024.0
1027.0
1029.0
1030.0
1028.0
1025.0
1023.0
1025.0
1029.0
1033.0
1030.0
1025.0
1024.0
1026.0
1029.0
1033.0
1031.0
1031.0
1029.0
1031.0
1033.0
1036.0
1037.0
1038.0
1042.0
1046.0
1056.0
1067.0
1080.0
1086.0
1091.0
1109.0
1133.0
1162.0
1191.0
1215.0
1238.0
1270.0
1301.0
1332.0
1368.0
1405.0
1434.0
1444.0
1427.0
1373.0
1289.0
1196.0
1123.0
1074.0
1043.0
1027.0
1020.0
1019.0
1022.0
1022.0
1023.0
1019.0
1019.0
1014.0
1008.0
1008.0
1010.0
1009.0
1007.0
1004.0
1002.0
1000.0
1003.0
1005.0
1001.0
999.0
998.0
1000.0
998.0
999.0
1000.0
996.0
997.0
998.0
1001.0
1001.0
999.0
994.0
990.0
993.0
994.0
995.0
994.0
990.0
989.0
990.0
992.0
992.0
993.0
987.0
987.0
988.0
989.0
993.0
992.0
986.0
987.0
988.0
991.0
993.0
993.0
990.0
991.0
991.0
995.0
998.0
995.0
991.0
993.0
990.0
993.0
997.0
997.0
994.0
992.0
994.0
996.0
999.0
998.0
997.0
996.0
999.0
1002.0
1006.0
1006.0
1003.0
1004.0
1006.0
1010.0
1014.0
1014.0
1013.0
1015.0
1020.0
1025.0
1027.0
1028.0
1030.0
1031.0
1036.0
1043.0
1047.0
1050.0
1051.0
1051.0
1055.0
1060.0
1064.0
1065.0
1060.0
1059.0
1061.0
1061.0
1059.0
1056.0
1053.0
1050.0
1051.0
1052.0
1049.0
1043.0
1037.0
1033.0
1033.0
1037.0
1036.0
1030.0
1022.0
1021.0
1022.0
1024.0
1024.0
1022.0
1019.0
1017.0
1016.0
1020.0
1021.0
1017.0
1015.0
1013.0
1017.0
1016.0
1019.0
1018.0
1014.0
1015.0
1018.0
1019.0
1019.0
1018.0
1012.0
1010.0
1010.0
1011.0
1014.0
1015.0
1011.0
1009.0
1007.0
1012.0
1011.0
1009.0
1009.0
1004.0
1009.0
1013.0
1012.0
1011.0
1006.0
1005.0
1006.0
1009.0
1010.0
1008.0
1007.0
1005.0
1009.0
1011.0
1011.0
1007.0
1006.0
1005.0
1008.0
1010.0
1013.0
1011.0
1008.0
1008.0
1008.0
1010.0
1012.0
1009.0
1005.0
1004.0
1006.0
1009.0
1012.0
1011.0
1008.0
1006.0
1005.0
1005.0
1005.0
1005.0
1003.0
1002.0
1003.0
1006.0
1006.0
1006.0
1002.0
999.0
1002.0
1000.0
1007.0
1007.0
1003.0
998.0
1001.0
1002.0
1004.0
1001.0
999.0
998.0
998.0
1000.0
1002.0
999.0
999.0
1001.0
1001.0
1002.0
1005.0
1003.0
999.0
997.0
997.0
999.0
1001.0
1001.0
996.0
998.0
996.0
999.0
1000.0
997.0
996.0
998.0
998.0
1000.0
999.0
996.0
996.0
994.0
998.0
1001.0
1003.0
1001.0
995.0
996.0
995.0
998.0
997.0
998.0
996.0
994.0
995.0
997.0
997.0
997.0
993.0
992.0
996.0
999.0
999.0
994.0
993.0
990.0
994.0
999.0
1000.0
996.0
992.0
989.0
993.0
995.0
996.0
996.0
996.0
991.0
997.0
996.0
995.0
996.0
993.0
993.0
993.0
997.0
999.0
997.0
996.0
996.0
999.0
1002.0
1002.0
1004.0
1003.0
1002.0
1003.0
1006.0
1007.0
1006.0
1006.0
1007.0
1011.0
1014.0
1015.0
1009.0
1002.0
998.0
999.0
1005.0
1007.0
1008.0
1006.0
1005.0
1008.0
1011.0
1014.0
1013.0
1010.0
1009.0
1011.0
1012.0
1010.0
1007.0
1004.0
1000.0
1003.0
1006.0
1008.0
1004.0
999.0
998.0
999.0
1004.0
1007.0
1002.0
1001.0
1000.0
1004.0
1004.0
1006.0
1008.0
1006.0
1004.0
1003.0
1004.0
1006.0
1004.0
1006.0
1004.0
1005.0
1006.0
1006.0
1007.0
1007.0
1009.0
1018.0
1028.0
1039.0
1048.0
1059.0
1065.0
1081.0
1106.0
1135.0
1171.0
1207.0
1243.0
1279.0
1314.0
1350.0
1390.0
1430.0
1457.0
1452.0
1413.0
1332.0
1228.0
1135.0
1072.0
1030.0
1013.0
1007.0
1006.0
1003.0
998.0
1001.0
997.0
994.0
988.0
983.0
980.0
980.0
980.0
980.0
979.0
974.0
971.0
974.0
973.0
977.0
975.0
974.0
972.0
973.0
974.0
971.0
970.0
971.0
968.0
968.0
968.0
972.0
967.0
965.0
966.0
967.0
969.0
968.0
965.0
961.0
962.0
966.0
968.0
970.0
965.0
962.0
961.0
965.0
968.0
968.0
968.0
962.0
958.0
958.0
957.0
963.0
965.0
964.0
961.0
962.0
963.0
968.0
965.0
965.0
965.0
966.0
967.0
970.0
968.0
967.0
967.0
970.0
975.0
977.0
977.0
974.0
973.0
975.0
982.0
986.0
988.0
989.0
990.0
994.0
1000.0
1003.0
1004.0
1007.0
1012.0
1023.0
1028.0
1033.0
1034.0
1028.0
1031.0
1035.0
1039.0
1042.0
1042.0
1039.0
1035.0
1031.0
1031.0
1031.0
1026.0
1023.0
1018.0
1018.0
1018.0
1017.0
1014.0
1010.0
1008.0
1009.0
1008.0
1007.0
1004.0
1000.0
998.0
1000.0
1003.0
1001.0
998.0
996.0
997.0
997.0
996.0
995.0
995.0
996.0
1000.0
1003.0
1006.0
1005.0
999.0
995.0
996.0
994.0
996.0
995.0
994.0
991.0
991.0
994.0
994.0
995.0
995.0
991.0
988.0
989.0
991.0
990.0
989.0
987.0
990.0
990.0
996.0
997.0
998.0
994.0
996.0
995.0
999.0
997.0
1001.0
997.0
998.0
997.0
996.0
994.0
994.0
994.0
