# Simple Text Format
# Sampling Rate (Hz):= 360.00
# Resolution:= 12
# Labels:= ECG
961.0
961.0
963.0
963.0
963.0
964.0
962.0
963.0
964.0
961.0
960.0
964.0
965.0
965.0
968.0
970.0
970.0
969.0
967.0
968.0
966.0
968.0
970.0
971.0
972.0
975.0
978.0
979.0
980.0
978.0
977.0
978.0
976.0
978.0
978.0
980.0
982.0
985.0
986.0
986.0
989.0
989.0
987.0
987.0
985.0
987.0
987.0
988.0
990.0
990.0
993.0
992.0
993.0
991.0
991.0
988.0
985.0
988.0
989.0
991.0
991.0
991.0
994.0
993.0
992.0
990.0
987.0
985.0
983.0
980.0
979.0
976.0
973.0
971.0
972.0
970.0
965.0
963.0
959.0
956.0
953.0
949.0
945.0
945.0
944.0
944.0
947.0
946.0
945.0
944.0
941.0
941.0
941.0
939.0
936.0
938.0
939.0
939.0
941.0
938.0
937.0
941.0
937.0
936.0
939.0
939.0
941.0
941.0
942.0
943.0
943.0
945.0
947.0
945.0
943.0
943.0
942.0
942.0
945.0
946.0
950.0
949.0
954.0
952.0
952.0
949.0
951.0
950.0
949.0
949.0
948.0
948.0
949.0
947.0
953.0
950.0
954.0
949.0
947.0
947.0
944.0
942.0
945.0
946.0
945.0
948.0
947.0
949.0
947.0
948.0
946.0
945.0
942.0
942.0
943.0
943.0
943.0
945.0
945.0
945.0
945.0
944.0
943.0
942.0
939.0
940.0
939.0
940.0
942.0
941.0
941.0
944.0
946.0
947.0
947.0
949.0
949.0
950.0
954.0
954.0
958.0
961.0
965.0
967.0
967.0
970.0
970.0
968.0
966.0
964.0
963.0
963.0
964.0
965.0
969.0
970.0
970.0
968.0
965.0
964.0
957.0
953.0
951.0
947.0
945.0
942.0
942.0
943.0
942.0
942.0
941.0
939.0
936.0
936.0
935.0
935.0
937.0
936.0
935.0
935.0
933.0
931.0
930.0
929.0
931.0
932.0
929.0
930.0
933.0
935.0
936.0
941.0
935.0
936.0
937.0
937.0
935.0
936.0
936.0
940.0
944.0
944.0
949.0
954.0
960.0
968.0
981.0
1005.0
1043.0
1097.0
1161.0
1235.0
1295.0
1332.0
1336.0
1298.0
1217.0
1101.0
978.0
871.0
812.0
799.0
822.0
864.0
909.0
945.0
968.0
980.0
977.0
970.0
962.0
954.0
950.0
947.0
947.0
949.0
952.0
955.0
954.0
954.0
956.0
954.0
955.0
952.0
953.0
952.0
952.0
952.0
955.0
955.0
957.0
958.0
956.0
957.0
955.0
955.0
952.0
949.0
950.0
952.0
954.0
954.0
957.0
958.0
955.0
955.0
956.0
954.0
952.0
951.0
949.0
951.0
953.0
956.0
954.0
955.0
954.0
953.0
954.0
951.0
951.0
950.0
951.0
950.0
954.0
953.0
955.0
956.0
957.0
954.0
954.0
956.0
956.0
954.0
954.0
953.0
957.0
959.0
959.0
959.0
961.0
962.0
960.0
961.0
959.0
959.0
960.0
961.0
963.0
964.0
966.0
968.0
966.0
968.0
967.0
966.0
966.0
968.0
969.0
970.0
970.0
977.0
976.0
978.0
978.0
978.0
977.0
974.0
977.0
975.0
977.0
977.0
980.0
980.0
982.0
982.0
982.0
981.0
979.0
979.0
975.0
975.0
970.0
968.0
968.0
965.0
964.0
962.0
958.0
953.0
949.0
945.0
942.0
937.0
934.0
931.0
931.0
930.0
927.0
927.0
923.0
923.0
922.0
920.0
918.0
915.0
914.0
913.0
915.0
913.0
915.0
916.0
915.0
914.0
914.0
912.0
911.0
908.0
908.0
907.0
909.0
909.0
910.0
912.0
912.0
910.0
910.0
909.0
908.0
910.0
908.0
911.0
913.0
910.0
915.0
916.0
915.0
915.0
913.0
914.0
911.0
910.0
910.0
911.0
914.0
914.0
914.0
915.0
914.0
915.0
913.0
910.0
911.0
913.0
913.0
910.0
912.0
911.0
910.0
910.0
911.0
910.0
910.0
906.0
904.0
905.0
904.0
904.0
907.0
907.0
907.0
907.0
905.0
907.0
904.0
903.0
902.0
898.0
897.0
899.0
898.0
900.0
903.0
902.0
901.0
898.0
899.0
897.0
896.0
898.0
897.0
894.0
897.0
899.0
900.0
900.0
899.0
899.0
897.0
896.0
894.0
894.0
892.0
894.0
895.0
895.0
897.0
898.0
897.0
897.0
896.0
895.0
895.0
891.0
891.0
896.0
896.0
899.0
901.0
905.0
908.0
908.0
913.0
908.0
909.0
911.0
911.0
915.0
919.0
918.0
924.0
924.0
920.0
921.0
920.0
919.0
917.0
918.0
915.0
915.0
914.0
917.0
917.0
914.0
912.0
907.0
904.0
898.0
896.0
894.0
892.0
888.0
889.0
888.0
890.0
890.0
890.0
891.0
890.0
889.0
886.0
886.0
883.0
885.0
882.0
884.0
885.0
887.0
884.0
884.0
884.0
882.0
883.0
884.0
883.0
883.0
885.0
885.0
887.0
889.0
889.0
890.0
892.0
894.0
890.0
889.0
892.0
893.0
892.0
897.0
899.0
904.0
910.0
921.0
936.0
961.0
997.0
1046.0
1109.0
1175.0
1234.0
1270.0
1269.0
1227.0
1145.0
1042.0
926.0
833.0
774.0
757.0
773.0
809.0
848.0
880.0
903.0
915.0
915.0
911.0
903.0
897.0
894.0
891.0
891.0
891.0
894.0
897.0
899.0
898.0
900.0
901.0
899.0
898.0
896.0
896.0
893.0
895.0
898.0
898.0
899.0
900.0
901.0
900.0
897.0
898.0
895.0
894.0
894.0
892.0
895.0
896.0
895.0
893.0
893.0
895.0
896.0
897.0
895.0
893.0
892.0
892.0
894.0
896.0
898.0
898.0
898.0
898.0
899.0
898.0
895.0
894.0
895.0
894.0
895.0
895.0
897.0
899.0
899.0
900.0
897.0
897.0
897.0
895.0
897.0
897.0
899.0
899.0
898.0
900.0
900.0
900.0
899.0
896.0
898.0
898.0
900.0
900.0
904.0
904.0
906.0
909.0
909.0
908.0
908.0
908.0
907.0
907.0
905.0
907.0
909.0
911.0
911.0
911.0
913.0
913.0
911.0
913.0
912.0
912.0
912.0
913.0
914.0
915.0
917.0
918.0
916.0
917.0
914.0
914.0
914.0
913.0
915.0
915.0
915.0
916.0
918.0
917.0
918.0
917.0
915.0
911.0
909.0
904.0
904.0
900.0
901.0
901.0
897.0
896.0
895.0
890.0
883.0
880.0
875.0
871.0
869.0
868.0
865.0
868.0
869.0
868.0
868.0
868.0
866.0
864.0
862.0
861.0
860.0
859.0
858.0
860.0
860.0
858.0
862.0
861.0
857.0
857.0
853.0
854.0
857.0
853.0
858.0
861.0
863.0
861.0
861.0
863.0
861.0
860.0
857.0
859.0
860.0
858.0
860.0
861.0
862.0
864.0
863.0
864.0
862.0
863.0
862.0
859.0
860.0
860.0
863.0
864.0
864.0
865.0
863.0
863.0
862.0
859.0
858.0
855.0
855.0
857.0
860.0
859.0
861.0
861.0
859.0
857.0
854.0
855.0
855.0
853.0
853.0
854.0
854.0
855.0
854.0
855.0
855.0
854.0
854.0
852.0
848.0
849.0
850.0
849.0
850.0
851.0
852.0
851.0
853.0
850.0
849.0
850.0
848.0
849.0
849.0
848.0
850.0
851.0
851.0
852.0
850.0
852.0
846.0
844.0
846.0
846.0
846.0
846.0
846.0
846.0
849.0
849.0
850.0
850.0
850.0
847.0
847.0
847.0
849.0
851.0
854.0
859.0
860.0
863.0
866.0
865.0
868.0
867.0
867.0
865.0
869.0
871.0
874.0
875.0
874.0
876.0
872.0
872.0
872.0
871.0
870.0
869.0
871.0
869.0
868.0
867.0
868.0
868.0
865.0
861.0
856.0
851.0
849.0
847.0
846.0
843.0
845.0
847.0
847.0
848.0
848.0
847.0
847.0
844.0
845.0
841.0
843.0
842.0
842.0
840.0
846.0
847.0
846.0
846.0
844.0
843.0
843.0
843.0
844.0
845.0
846.0
850.0
851.0
855.0
855.0
858.0
858.0
859.0
860.0
859.0
865.0
869.0
883.0
904.0
934.0
976.0
1026.0
1082.0
1137.0
1181.0
1203.0
1193.0
1150.0
1077.0
976.0
873.0
793.0
751.0
744.0
763.0
794.0
826.0
847.0
860.0
867.0
867.0
862.0
859.0
860.0
859.0
860.0
860.0
859.0
860.0
858.0
858.0
858.0
856.0
860.0
860.0
865.0
867.0
865.0
866.0
865.0
863.0
860.0
860.0
860.0
861.0
864.0
863.0
866.0
867.0
869.0
865.0
868.0
867.0
864.0
863.0
864.0
865.0
867.0
866.0
865.0
866.0
868.0
864.0
865.0
865.0
865.0
863.0
864.0
863.0
864.0
866.0
868.0
867.0
868.0
867.0
867.0
866.0
864.0
862.0
864.0
865.0
865.0
867.0
870.0
871.0
870.0
872.0
871.0
871.0
871.0
867.0
868.0
868.0
868.0
871.0
873.0
875.0
875.0
873.0
871.0
870.0
870.0
871.0
870.0
870.0
873.0
875.0
880.0
881.0
880.0
880.0
878.0
877.0
878.0
875.0
875.0
876.0
876.0
877.0
880.0
883.0
881.0
877.0
878.0
876.0
876.0
870.0
872.0
871.0
872.0
876.0
878.0
879.0
881.0
876.0
878.0
874.0
873.0
873.0
870.0
871.0
872.0
868.0
870.0
869.0
866.0
862.0
861.0
858.0
854.0
851.0
848.0
847.0
847.0
845.0
844.0
842.0
841.0
842.0
839.0
838.0
837.0
834.0
831.0
832.0
833.0
835.0
837.0
838.0
835.0
839.0
834.0
835.0
831.0
830.0
831.0
833.0
833.0
836.0
835.0
837.0
838.0
839.0
838.0
838.0
837.0
836.0
835.0
833.0
837.0
837.0
840.0
843.0
841.0
843.0
840.0
840.0
839.0
837.0
838.0
837.0
837.0
841.0
841.0
842.0
841.0
841.0
842.0
842.0
839.0
837.0
836.0
836.0
835.0
837.0
837.0
838.0
837.0
837.0
835.0
834.0
833.0
831.0
829.0
830.0
828.0
830.0
831.0
832.0
832.0
831.0
828.0
831.0
827.0
824.0
826.0
825.0
827.0
828.0
828.0
829.0
828.0
828.0
828.0
826.0
824.0
824.0
826.0
826.0
830.0
833.0
836.0
836.0
840.0
842.0
842.0
843.0
844.0
844.0
846.0
849.0
850.0
849.0
851.0
853.0
852.0
852.0
852.0
851.0
849.0
848.0
847.0
843.0
841.0
839.0
835.0
836.0
833.0
831.0
828.0
825.0
822.0
821.0
821.0
820.0
820.0
822.0
825.0
825.0
824.0
820.0
819.0
818.0
818.0
815.0
816.0
818.0
819.0
820.0
821.0
822.0
824.0
824.0
823.0
823.0
823.0
823.0
824.0
823.0
825.0
827.0
830.0
832.0
834.0
837.0
839.0
841.0
844.0
850.0
864.0
885.0
919.0
966.0
1030.0
1099.0
1162.0
1204.0
1211.0
1173.0
1096.0
989.0
876.0
786.0
734.0
724.0
743.0
777.0
813.0
838.0
854.0
857.0
854.0
847.0
840.0
836.0
835.0
836.0
839.0
843.0
843.0
843.0
842.0
842.0
841.0
840.0
838.0
839.0
840.0
843.0
846.0
846.0
846.0
845.0
846.0
843.0
843.0
843.0
842.0
841.0
841.0
841.0
842.0
845.0
848.0
842.0
844.0
842.0
844.0
840.0
840.0
842.0
844.0
843.0
845.0
845.0
847.0
844.0
846.0
844.0
844.0
843.0
839.0
840.0
843.0
843.0
845.0
847.0
849.0
851.0
848.0
848.0
846.0
846.0
845.0
844.0
845.0
849.0
849.0
852.0
854.0
855.0
855.0
853.0
853.0
853.0
851.0
853.0
852.0
855.0
857.0
860.0
860.0
860.0
862.0
860.0
860.0
861.0
860.0
862.0
862.0
863.0
866.0
869.0
868.0
870.0
868.0
869.0
868.0
866.0
865.0
866.0
867.0
867.0
869.0
871.0
872.0
870.0
872.0
867.0
867.0
864.0
865.0
865.0
865.0
866.0
865.0
864.0
862.0
858.0
854.0
850.0
845.0
842.0
836.0
835.0
837.0
832.0
830.0
830.0
828.0
827.0
820.0
820.0
818.0
814.0
813.0
813.0
812.0
813.0
815.0
815.0
814.0
815.0
813.0
813.0
811.0
810.0
810.0
810.0
811.0
812.0
813.0
816.0
816.0
813.0
814.0
814.0
814.0
813.0
812.0
813.0
815.0
815.0
819.0
822.0
821.0
821.0
821.0
819.0
820.0
818.0
815.0
818.0
819.0
820.0
819.0
823.0
823.0
821.0
821.0
821.0
822.0
821.0
820.0
817.0
818.0
819.0
820.0
819.0
821.0
818.0
820.0
817.0
816.0
813.0
814.0
815.0
814.0
814.0
815.0
815.0
816.0
813.0
815.0
813.0
813.0
812.0
809.0
808.0
809.0
809.0
811.0
814.0
813.0
813.0
810.0
808.0
808.0
806.0
804.0
807.0
806.0
808.0
809.0
810.0
812.0
811.0
810.0
811.0
809.0
808.0
808.0
809.0
809.0
808.0
810.0
810.0
812.0
812.0
812.0
811.0
812.0
810.0
808.0
810.0
812.0
813.0
814.0
816.0
820.0
818.0
820.0
823.0
824.0
823.0
823.0
828.0
828.0
833.0
835.0
839.0
839.0
839.0
839.0
837.0
835.0
835.0
832.0
833.0
832.0
833.0
831.0
833.0
832.0
832.0
831.0
828.0
824.0
820.0
815.0
815.0
813.0
814.0
812.0
814.0
815.0
813.0
816.0
812.0
812.0
809.0
808.0
807.0
809.0
808.0
809.0
811.0
810.0
810.0
809.0
810.0
808.0
808.0
807.0
807.0
807.0
810.0
813.0
816.0
818.0
817.0
818.0
819.0
818.0
819.0
821.0
824.0
826.0
826.0
831.0
836.0
839.0
848.0
862.0
883.0
909.0
951.0
1006.0
1067.0
1126.0
1171.0
1193.0
1182.0
1132.0
1050.0
950.0
847.0
770.0
726.0
717.0
735.0
765.0
795.0
818.0
836.0
843.0
844.0
841.0
835.0
832.0
826.0
827.0
826.0
827.0
829.0
832.0
830.0
834.0
835.0
833.0
829.0
830.0
829.0
829.0
830.0
830.0
829.0
831.0
833.0
833.0
835.0
834.0
831.0
832.0
830.0
830.0
831.0
832.0
831.0
832.0
835.0
838.0
837.0
836.0
835.0
835.0
831.0
833.0
830.0
832.0
834.0
836.0
836.0
838.0
835.0
836.0
833.0
834.0
833.0
833.0
833.0
835.0
835.0
837.0
839.0
839.0
836.0
838.0
834.0
833.0
834.0
833.0
832.0
832.0
837.0
838.0
837.0
840.0
840.0
841.0
841.0
840.0
839.0
839.0
841.0
841.0
844.0
844.0
845.0
847.0
850.0
845.0
849.0
847.0
845.0
844.0
846.0
847.0
849.0
848.0
851.0
853.0
853.0
854.0
855.0
856.0
855.0
851.0
852.0
854.0
854.0
856.0
856.0
858.0
858.0
858.0
855.0
854.0
853.0
855.0
854.0
854.0
857.0
857.0
857.0
860.0
858.0
858.0
855.0
851.0
850.0
850.0
848.0
847.0
844.0
843.0
841.0
839.0
834.0
835.0
829.0
826.0
824.0
820.0
818.0
818.0
819.0
818.0
817.0
818.0
817.0
816.0
816.0
814.0
811.0
809.0
810.0
811.0
810.0
811.0
816.0
814.0
815.0
812.0
810.0
813.0
812.0
811.0
811.0
812.0
812.0
815.0
815.0
819.0
820.0
818.0
816.0
817.0
814.0
815.0
813.0
815.0
816.0
818.0
819.0
820.0
821.0
822.0
819.0
818.0
816.0
816.0
815.0
816.0
817.0
817.0
819.0
819.0
817.0
817.0
817.0
815.0
812.0
812.0
813.0
814.0
811.0
813.0
813.0
813.0
814.0
813.0
813.0
810.0
809.0
811.0
808.0
808.0
811.0
810.0
809.0
812.0
814.0
811.0
811.0
810.0
808.0
806.0
808.0
807.0
808.0
809.0
809.0
811.0
811.0
810.0
807.0
806.0
808.0
809.0
809.0
808.0
806.0
810.0
812.0
812.0
810.0
811.0
812.0
810.0
809.0
807.0
809.0
810.0
810.0
812.0
813.0
815.0
812.0
813.0
812.0
813.0
811.0
811.0
810.0
811.0
812.0
814.0
816.0
819.0
817.0
817.0
815.0
815.0
812.0
812.0
814.0
816.0
820.0
819.0
821.0
827.0
828.0
829.0
829.0
830.0
831.0
830.0
833.0
837.0
839.0
842.0
840.0
843.0
842.0
841.0
836.0
834.0
834.0
836.0
835.0
837.0
836.0
837.0
836.0
834.0
830.0
826.0
825.0
822.0
817.0
815.0
815.0
815.0
816.0
816.0
818.0
818.0
816.0
817.0
813.0
815.0
814.0
812.0
810.0
808.0
811.0
812.0
812.0
814.0
814.0
815.0
814.0
810.0
811.0
810.0
813.0
816.0
819.0
822.0
824.0
829.0
827.0
831.0
831.0
831.0
832.0
832.0
833.0
837.0
846.0
858.0
878.0
909.0
947.0
996.0
1056.0
1119.0
1168.0
1202.0
1199.0
1154.0
1073.0
964.0
858.0
772.0
723.0
715.0
729.0
762.0
797.0
824.0
839.0
845.0
849.0
845.0
843.0
839.0
839.0
838.0
837.0
835.0
837.0
836.0
838.0
837.0
839.0
838.0
842.0
842.0
842.0
842.0
843.0
840.0
838.0
840.0
839.0
839.0
843.0
842.0
843.0
844.0
843.0
842.0
844.0
842.0
842.0
842.0
843.0
843.0
845.0
845.0
845.0
846.0
846.0
846.0
846.0
846.0
844.0
845.0
846.0
844.0
844.0
844.0
846.0
848.0
846.0
846.0
847.0
847.0
845.0
844.0
845.0
844.0
847.0
847.0
849.0
850.0
849.0
851.0
852.0
850.0
850.0
849.0
849.0
851.0
852.0
851.0
852.0
854.0
858.0
857.0
858.0
859.0
855.0
856.0
856.0
859.0
861.0
862.0
865.0
865.0
865.0
865.0
867.0
866.0
864.0
864.0
861.0
860.0
863.0
863.0
866.0
867.0
868.0
869.0
864.0
863.0
865.0
864.0
862.0
861.0
862.0
864.0
870.0
869.0
871.0
870.0
867.0
866.0
867.0
866.0
867.0
866.0
867.0
868.0
868.0
868.0
868.0
864.0
862.0
858.0
855.0
851.0
847.0
845.0
842.0
839.0
839.0
839.0
840.0
839.0
838.0
835.0
830.0
832.0
829.0
830.0
830.0
833.0
835.0
833.0
831.0
833.0
831.0
831.0
829.0
829.0
831.0
831.0
829.0
835.0
835.0
839.0
837.0
840.0
840.0
839.0
837.0
837.0
837.0
837.0
838.0
838.0
841.0
844.0
843.0
844.0
843.0
844.0
841.0
841.0
840.0
839.0
841.0
842.0
846.0
846.0
844.0
845.0
844.0
844.0
843.0
842.0
841.0
840.0
840.0
845.0
841.0
842.0
841.0
841.0
839.0
836.0
835.0
834.0
835.0
835.0
837.0
839.0
839.0
838.0
837.0
836.0
835.0
836.0
832.0
831.0
832.0
832.0
832.0
836.0
837.0
838.0
837.0
837.0
836.0
833.0
833.0
830.0
832.0
830.0
832.0
835.0
835.0
839.0
841.0
842.0
842.0
842.0
840.0
840.0
842.0
842.0
844.0
845.0
847.0
851.0
855.0
857.0
858.0
860.0
862.0
862.0
861.0
860.0
860.0
863.0
862.0
861.0
861.0
863.0
864.0
863.0
861.0
860.0
858.0
857.0
858.0
858.0
857.0
855.0
853.0
849.0
845.0
842.0
838.0
836.0
838.0
840.0
839.0
840.0
841.0
839.0
840.0
839.0
839.0
836.0
835.0
834.0
835.0
835.0
834.0
838.0
837.0
839.0
841.0
840.0
839.0
838.0
839.0
840.0
838.0
841.0
842.0
846.0
849.0
852.0
854.0
855.0
856.0
855.0
856.0
858.0
863.0
875.0
895.0
924.0
964.0
1020.0
1088.0
1163.0
1227.0
1270.0
1277.0
1234.0
1150.0
1033.0
907.0
797.0
729.0
711.0
730.0
771.0
813.0
847.0
867.0
873.0
872.0
871.0
866.0
864.0
865.0
865.0
867.0
866.0
865.0
866.0
863.0
861.0
861.0
861.0
863.0
866.0
867.0
868.0
869.0
869.0
869.0
866.0
864.0
865.0
864.0
867.0
867.0
870.0
872.0
873.0
875.0
875.0
874.0
873.0
873.0
870.0
867.0
867.0
869.0
871.0
874.0
875.0
877.0
875.0
876.0
875.0
875.0
875.0
873.0
873.0
873.0
876.0
877.0
877.0
881.0
880.0
878.0
877.0
876.0
876.0
875.0
876.0
876.0
879.0
880.0
882.0
884.0
885.0
885.0
882.0
881.0
880.0
878.0
882.0
880.0
885.0
888.0
891.0
891.0
889.0
890.0
888.0
889.0
889.0
888.0
889.0
892.0
893.0
896.0
900.0
898.0
899.0
900.0
897.0
898.0
897.0
895.0
897.0
899.0
898.0
902.0
902.0
902.0
900.0
901.0
900.0
898.0
896.0
897.0
897.0
898.0
899.0
901.0
901.0
904.0
902.0
897.0
897.0
896.0
891.0
889.0
886.0
886.0
886.0
885.0
883.0
883.0
881.0
878.0
873.0
869.0
866.0
865.0
864.0
863.0
860.0
862.0
860.0
862.0
859.0
862.0
859.0
858.0
859.0
856.0
856.0
855.0
856.0
859.0
860.0
862.0
861.0
860.0
862.0
859.0
858.0
858.0
856.0
856.0
859.0
861.0
863.0
866.0
866.0
867.0
864.0
866.0
866.0
867.0
867.0
867.0
868.0
870.0
873.0
875.0
871.0
875.0
873.0
871.0
871.0
872.0
869.0
868.0
873.0
873.0
873.0
873.0
873.0
874.0
873.0
872.0
870.0
870.0
870.0
873.0
874.0
876.0
876.0
877.0
874.0
871.0
873.0
870.0
870.0
871.0
872.0
870.0
874.0
873.0
874.0
873.0
872.0
871.0
873.0
871.0
873.0
870.0
870.0
872.0
872.0
873.0
874.0
876.0
878.0
875.0
871.0
874.0
874.0
874.0
873.0
876.0
876.0
878.0
880.0
880.0
882.0
881.0
882.0
883.0
881.0
882.0
884.0
886.0
890.0
892.0
897.0
899.0
902.0
901.0
902.0
902.0
903.0
905.0
910.0
913.0
915.0
917.0
916.0
919.0
917.0
915.0
914.0
914.0
917.0
915.0
916.0
914.0
914.0
915.0
912.0
912.0
907.0
904.0
900.0
897.0
894.0
892.0
892.0
892.0
896.0
897.0
897.0
897.0
896.0
895.0
897.0
898.0
896.0
896.0
898.0
898.0
899.0
900.0
902.0
903.0
904.0
905.0
904.0
903.0
903.0
901.0
903.0
905.0
907.0
910.0
911.0
917.0
919.0
922.0
923.0
923.0
922.0
926.0
935.0
948.0
968.0
1000.0
1041.0
1096.0
1166.0
1233.0
1295.0
1334.0
1338.0
1295.0
1203.0
1083.0
958.0
853.0
799.0
791.0
822.0
864.0
907.0
939.0
959.0
963.0
961.0
955.0
948.0
944.0
941.0
944.0
944.0
946.0
943.0
945.0
945.0
946.0
945.0
946.0
948.0
951.0
952.0
952.0
953.0
953.0
952.0
949.0
949.0
951.0
951.0
951.0
954.0
955.0
956.0
959.0
958.0
957.0
954.0
955.0
955.0
955.0
956.0
957.0
959.0
960.0
961.0
963.0
963.0
961.0
962.0
962.0
959.0
961.0
959.0
962.0
963.0
967.0
968.0
969.0
969.0
968.0
968.0
967.0
967.0
968.0
968.0
970.0
973.0
974.0
976.0
979.0
980.0
979.0
978.0
981.0
978.0
974.0
977.0
978.0
981.0
983.0
987.0
988.0
988.0
990.0
988.0
988.0
986.0
987.0
989.0
991.0
994.0
993.0
995.0
999.0
1002.0
1000.0
1003.0
1001.0
1002.0
1001.0
1001.0
1002.0
1004.0
1006.0
1008.0
1008.0
1005.0
1008.0
1008.0
1008.0
1005.0
1004.0
1007.0
1009.0
1009.0
1011.0
1012.0
1010.0
1010.0
1008.0
1008.0
1003.0
999.0
996.0
993.0
991.0
990.0
987.0
983.0
980.0
978.0
976.0
974.0
970.0
966.0
963.0
962.0
959.0
963.0
962.0
963.0
963.0
961.0
961.0
959.0
957.0
957.0
957.0
956.0
958.0
960.0
959.0
959.0
961.0
959.0
961.0
961.0
962.0
958.0
959.0
958.0
961.0
963.0
964.0
965.0
967.0
970.0
968.0
968.0
966.0
965.0
967.0
967.0
967.0
970.0
969.0
971.0
973.0
972.0
974.0
972.0
971.0
968.0
968.0
968.0
969.0
971.0
971.0
973.0
975.0
975.0
973.0
972.0
968.0
968.0
969.0
966.0
968.0
969.0
970.0
969.0
970.0
970.0
971.0
969.0
968.0
967.0
967.0
966.0
965.0
964.0
969.0
969.0
969.0
970.0
968.0
963.0
965.0
964.0
963.0
964.0
964.0
966.0
966.0
967.0
969.0
970.0
968.0
968.0
964.0
963.0
962.0
963.0
963.0
964.0
965.0
965.0
968.0
966.0
967.0
965.0
965.0
964.0
963.0
962.0
964.0
965.0
964.0
967.0
968.0
966.0
967.0
965.0
966.0
968.0
965.0
968.0
967.0
968.0
968.0
970.0
968.0
972.0
970.0
968.0
965.0
965.0
966.0
965.0
964.0
967.0
968.0
969.0
970.0
969.0
969.0
969.0
967.0
965.0
964.0
963.0
965.0
965.0
963.0
967.0
970.0
971.0
970.0
969.0
968.0
970.0
968.0
971.0
972.0
975.0
980.0
982.0
987.0
989.0
993.0
992.0
991.0
989.0
993.0
993.0
995.0
997.0
999.0
995.0
998.0
995.0
993.0
993.0
991.0
992.0
990.0
990.0
989.0
990.0
990.0
988.0
987.0
985.0
981.0
976.0
974.0
970.0
969.0
968.0
967.0
969.0
970.0
970.0
971.0
970.0
972.0
968.0
968.0
966.0
965.0
964.0
964.0
964.0
967.0
969.0
969.0
969.0
967.0
968.0
965.0
965.0
967.0
966.0
966.0
971.0
972.0
975.0
980.0
980.0
979.0
980.0
981.0
982.0
986.0
998.0
1014.0
1037.0
1071.0
1117.0
1176.0
1240.0
1301.0
1353.0
1385.0
1383.0
1341.0
1257.0
1144.0
1022.0
916.0
846.0
824.0
840.0
878.0
921.0
958.0
983.0
994.0
997.0
995.0
987.0
987.0
985.0
984.0
983.0
984.0
985.0
986.0
984.0
982.0
981.0
983.0
983.0
987.0
987.0
989.0
989.0
989.0
987.0
985.0
985.0
984.0
985.0
985.0
986.0
986.0
987.0
989.0
989.0
986.0
986.0
986.0
986.0
984.0
981.0
983.0
984.0
985.0
986.0
988.0
987.0
985.0
984.0
987.0
986.0
982.0
983.0
984.0
985.0
986.0
985.0
986.0
984.0
984.0
986.0
987.0
983.0
984.0
985.0
984.0
987.0
986.0
989.0
989.0
989.0
989.0
988.0
987.0
987.0
987.0
988.0
989.0
989.0
990.0
992.0
993.0
995.0
994.0
993.0
991.0
991.0
992.0
989.0
990.0
992.0
994.0
995.0
995.0
995.0
997.0
996.0
995.0
994.0
994.0
993.0
994.0
997.0
1000.0
997.0
998.0
1000.0
1001.0
997.0
993.0
995.0
992.0
994.0
992.0
994.0
996.0
999.0
998.0
998.0
997.0
996.0
997.0
996.0
995.0
996.0
994.0
995.0
996.0
997.0
997.0
995.0
994.0
989.0
986.0
984.0
981.0
977.0
976.0
975.0
973.0
972.0
971.0
968.0
965.0
964.0
960.0
958.0
955.0
953.0
951.0
953.0
955.0
954.0
956.0
955.0
954.0
952.0
951.0
950.0
950.0
946.0
947.0
949.0
950.0
950.0
953.0
951.0
952.0
950.0
950.0
952.0
951.0
950.0
951.0
952.0
955.0
953.0
956.0
955.0
957.0
956.0
956.0
954.0
952.0
952.0
952.0
953.0
953.0
955.0
957.0
952.0
952.0
957.0
953.0
950.0
952.0
950.0
952.0
951.0
954.0
951.0
954.0
952.0
951.0
950.0
950.0
948.0
946.0
944.0
944.0
946.0
945.0
947.0
947.0
946.0
948.0
946.0
943.0
941.0
939.0
939.0
939.0
940.0
939.0
940.0
943.0
940.0
941.0
941.0
938.0
936.0
935.0
939.0
938.0
939.0
939.0
937.0
939.0
940.0
938.0
937.0
937.0
937.0
934.0
932.0
934.0
935.0
935.0
935.0
937.0
935.0
936.0
934.0
934.0
931.0
932.0
934.0
933.0
934.0
935.0
934.0
937.0
936.0
934.0
933.0
934.0
934.0
933.0
932.0
935.0
937.0
939.0
943.0
948.0
947.0
949.0
951.0
952.0
950.0
954.0
955.0
957.0
961.0
963.0
961.0
963.0
960.0
958.0
956.0
953.0
952.0
954.0
951.0
955.0
952.0
953.0
951.0
949.0
945.0
940.0
937.0
932.0
929.0
926.0
923.0
923.0
923.0
924.0
926.0
929.0
928.0
926.0
923.0
921.0
919.0
918.0
919.0
916.0
919.0
921.0
922.0
924.0
923.0
922.0
921.0
921.0
919.0
920.0
920.0
922.0
921.0
921.0
924.0
925.0
926.0
927.0
928.0
927.0
927.0
930.0
932.0
933.0
938.0
945.0
963.0
988.0
1021.0
1069.0
1136.0
1205.0
1273.0
1328.0
1355.0
1347.0
1297.0
1208.0
1095.0
973.0
866.0
799.0
779.0
796.0
829.0
874.0
910.0
935.0
947.0
950.0
947.0
945.0
941.0
937.0
935.0
936.0
936.0
933.0
934.0
934.0
937.0
935.0
937.0
941.0
938.0
938.0
938.0
935.0
934.0
936.0
936.0
935.0
937.0
939.0
939.0
940.0
939.0
938.0
940.0
938.0
939.0
937.0
936.0
934.0
937.0
938.0
941.0
939.0
939.0
939.0
937.0
936.0
935.0
935.0
937.0
936.0
935.0
940.0
939.0
942.0
942.0
941.0
940.0
939.0
938.0
939.0
937.0
936.0
938.0
940.0
939.0
940.0
941.0
944.0
941.0
941.0
944.0
941.0
942.0
940.0
943.0
943.0
943.0
945.0
947.0
947.0
947.0
947.0
948.0
946.0
947.0
946.0
947.0
950.0
952.0
954.0
952.0
953.0
952.0
948.0
948.0
948.0
949.0
951.0
952.0
955.0
956.0
957.0
958.0
954.0
953.0
950.0
949.0
947.0
946.0
946.0
945.0
951.0
952.0
954.0
955.0
953.0
952.0
952.0
950.0
946.0
947.0
945.0
944.0
943.0
943.0
942.0
941.0
938.0
931.0
930.0
924.0
922.0
918.0
917.0
914.0
913.0
913.0
910.0
910.0
908.0
909.0
906.0
903.0
900.0
900.0
901.0
900.0
898.0
898.0
901.0
898.0
901.0
901.0
901.0
898.0
895.0
899.0
898.0
899.0
900.0
900.0
903.0
904.0
905.0
905.0
903.0
905.0
904.0
901.0
902.0
900.0
903.0
906.0
909.0
908.0
907.0
907.0
904.0
904.0
902.0
