# Simple Text Format
# Sampling Rate (Hz):= 360.00
# Resolution:= 12
# Labels:= ECG
907.0
905.0
906.0
902.0
903.0
906.0
905.0
907.0
909.0
913.0
914.0
918.0
920.0
919.0
922.0
920.0
922.0
925.0
928.0
932.0
935.0
935.0
934.0
932.0
930.0
929.0
925.0
930.0
927.0
928.0
929.0
928.0
930.0
929.0
927.0
924.0
919.0
916.0
912.0
908.0
907.0
906.0
907.0
907.0
908.0
911.0
910.0
909.0
909.0
907.0
904.0
904.0
903.0
903.0
906.0
907.0
909.0
910.0
911.0
913.0
908.0
908.0
906.0
906.0
906.0
908.0
910.0
911.0
913.0
916.0
919.0
921.0
917.0
918.0
920.0
924.0
925.0
929.0
938.0
957.0
982.0
1020.0
1074.0
1141.0
1216.0
1282.0
1330.0
1335.0
1286.0
1184.0
1056.0
928.0
821.0
775.0
777.0
811.0
859.0
899.0
930.0
945.0
946.0
940.0
931.0
927.0
923.0
925.0
926.0
927.0
928.0
928.0
924.0
925.0
925.0
927.0
926.0
926.0
927.0
931.0
931.0
931.0
931.0
929.0
928.0
926.0
928.0
927.0
928.0
927.0
932.0
933.0
932.0
932.0
931.0
928.0
927.0
928.0
928.0
927.0
927.0
930.0
931.0
933.0
933.0
934.0
933.0
931.0
928.0
930.0
929.0
929.0
930.0
931.0
929.0
933.0
933.0
934.0
932.0
932.0
932.0
933.0
932.0
931.0
931.0
933.0
935.0
938.0
939.0
937.0
936.0
935.0
934.0
932.0
930.0
935.0
935.0
937.0
940.0
943.0
940.0
941.0
944.0
945.0
942.0
942.0
942.0
943.0
944.0
945.0
947.0
949.0
949.0
949.0
947.0
949.0
947.0
946.0
947.0
948.0
948.0
947.0
950.0
951.0
951.0
950.0
949.0
949.0
947.0
946.0
948.0
948.0
947.0
952.0
953.0
952.0
953.0
952.0
950.0
946.0
944.0
942.0
938.0
936.0
936.0
935.0
931.0
930.0
929.0
926.0
922.0
920.0
918.0
914.0
912.0
912.0
912.0
912.0
913.0
913.0
913.0
914.0
913.0
909.0
908.0
907.0
908.0
908.0
909.0
910.0
912.0
914.0
917.0
913.0
914.0
912.0
913.0
911.0
911.0
912.0
913.0
915.0
915.0
918.0
922.0
919.0
919.0
921.0
919.0
919.0
919.0
919.0
918.0
920.0
919.0
920.0
923.0
923.0
920.0
920.0
921.0
921.0
920.0
919.0
921.0
921.0
921.0
921.0
922.0
921.0
918.0
916.0
917.0
915.0
915.0
913.0
917.0
917.0
917.0
921.0
919.0
919.0
920.0
916.0
914.0
912.0
912.0
912.0
913.0
914.0
916.0
917.0
919.0
918.0
917.0
915.0
916.0
912.0
911.0
909.0
913.0
916.0
914.0
916.0
918.0
917.0
919.0
916.0
914.0
913.0
910.0
909.0
912.0
911.0
916.0
915.0
916.0
916.0
917.0
915.0
914.0
910.0
911.0
913.0
912.0
914.0
914.0
915.0
916.0
917.0
918.0
916.0
914.0
914.0
912.0
913.0
911.0
915.0
916.0
917.0
919.0
920.0
919.0
918.0
915.0
914.0
910.0
911.0
913.0
914.0
918.0
919.0
919.0
920.0
919.0
915.0
915.0
914.0
915.0
916.0
919.0
923.0
926.0
929.0
930.0
933.0
934.0
934.0
937.0
937.0
938.0
941.0
943.0
942.0
943.0
944.0
941.0
938.0
939.0
939.0
938.0
936.0
938.0
937.0
936.0
936.0
935.0
933.0
933.0
929.0
925.0
923.0
921.0
919.0
916.0
916.0
915.0
917.0
917.0
922.0
923.0
920.0
917.0
917.0
913.0
912.0
910.0
911.0
910.0
911.0
913.0
914.0
918.0
916.0
916.0
915.0
915.0
914.0
914.0
915.0
916.0
918.0
920.0
921.0
925.0
926.0
927.0
928.0
929.0
928.0
928.0
928.0
934.0
941.0
954.0
972.0
1001.0
1040.0
1096.0
1162.0
1233.0
1294.0
1329.0
1327.0
1276.0
1185.0
1068.0
950.0
854.0
798.0
792.0
812.0
850.0
888.0
916.0
933.0
941.0
944.0
941.0
937.0
936.0
935.0
932.0
931.0
933.0
931.0
933.0
933.0
932.0
935.0
935.0
938.0
937.0
937.0
938.0
936.0
936.0
936.0
935.0
934.0
935.0
938.0
938.0
940.0
942.0
940.0
940.0
938.0
937.0
935.0
935.0
936.0
937.0
936.0
939.0
940.0
938.0
939.0
940.0
938.0
941.0
939.0
934.0
937.0
935.0
937.0
938.0
939.0
940.0
938.0
940.0
939.0
936.0
938.0
935.0
935.0
936.0
937.0
938.0
940.0
942.0
942.0
942.0
942.0
942.0
939.0
938.0
942.0
941.0
941.0
945.0
947.0
947.0
944.0
948.0
946.0
946.0
945.0
942.0
945.0
944.0
949.0
950.0
953.0
954.0
954.0
953.0
953.0
951.0
951.0
950.0
950.0
952.0
953.0
954.0
953.0
956.0
953.0
953.0
952.0
953.0
952.0
951.0
952.0
952.0
953.0
954.0
955.0
955.0
953.0
953.0
953.0
951.0
950.0
950.0
951.0
951.0
954.0
956.0
957.0
956.0
955.0
953.0
950.0
946.0
942.0
943.0
942.0
939.0
938.0
938.0
936.0
938.0
934.0
932.0
929.0
927.0
924.0
922.0
921.0
919.0
921.0
919.0
918.0
920.0
918.0
921.0
918.0
914.0
912.0
914.0
911.0
915.0
918.0
918.0
919.0
920.0
921.0
917.0
919.0
918.0
918.0
916.0
916.0
917.0
919.0
919.0
920.0
922.0
924.0
924.0
924.0
923.0
924.0
922.0
924.0
924.0
924.0
927.0
926.0
928.0
929.0
928.0
927.0
925.0
924.0
921.0
923.0
924.0
925.0
926.0
927.0
928.0
928.0
927.0
924.0
922.0
921.0
919.0
919.0
921.0
921.0
925.0
925.0
924.0
925.0
924.0
922.0
920.0
919.0
917.0
915.0
916.0
918.0
920.0
919.0
922.0
920.0
920.0
918.0
915.0
914.0
913.0
913.0
913.0
914.0
911.0
915.0
917.0
919.0
920.0
918.0
917.0
914.0
915.0
912.0
913.0
915.0
917.0
917.0
917.0
917.0
920.0
917.0
915.0
914.0
911.0
913.0
914.0
914.0
917.0
919.0
921.0
923.0
923.0
924.0
923.0
924.0
922.0
927.0
930.0
933.0
936.0
938.0
943.0
942.0
943.0
943.0
943.0
940.0
940.0
938.0
937.0
939.0
942.0
942.0
945.0
944.0
941.0
941.0
938.0
934.0
931.0
927.0
924.0
922.0
921.0
919.0
920.0
922.0
921.0
920.0
917.0
916.0
913.0
912.0
910.0
915.0
915.0
916.0
917.0
915.0
917.0
913.0
913.0
913.0
911.0
913.0
914.0
917.0
918.0
921.0
922.0
921.0
921.0
921.0
921.0
921.0
923.0
926.0
929.0
931.0
934.0
936.0
940.0
947.0
954.0
966.0
989.0
1023.0
1071.0
1131.0
1205.0
1280.0
1340.0
1373.0
1367.0
1314.0
1209.0
1081.0
953.0
844.0
792.0
793.0
825.0
874.0
916.0
950.0
966.0
969.0
965.0
957.0
951.0
944.0
943.0
941.0
944.0
944.0
948.0
951.0
953.0
954.0
955.0
950.0
950.0
947.0
946.0
948.0
950.0
953.0
957.0
956.0
957.0
957.0
956.0
959.0
956.0
956.0
956.0
958.0
955.0
957.0
961.0
961.0
961.0
962.0
961.0
963.0
963.0
963.0
962.0
963.0
965.0
967.0
965.0
969.0
970.0
970.0
971.0
969.0
970.0
969.0
964.0
969.0
971.0
971.0
972.0
974.0
976.0
976.0
975.0
977.0
978.0
975.0
976.0
976.0
977.0
981.0
982.0
984.0
987.0
987.0
987.0
988.0
988.0
987.0
986.0
988.0
991.0
994.0
996.0
998.0
1002.0
998.0
1000.0
1002.0
1002.0
1001.0
1001.0
1001.0
1002.0
1005.0
1008.0
1010.0
1013.0
1013.0
1013.0
1012.0
1014.0
1015.0
1012.0
1013.0
1015.0
1014.0
1014.0
1018.0
1019.0
1020.0
1017.0
1017.0
1016.0
1013.0
1017.0
1017.0
1017.0
1018.0
1022.0
1024.0
1025.0
1021.0
1020.0
1019.0
1018.0
1015.0
1011.0
1009.0
1008.0
1004.0
1004.0
1004.0
1003.0
1004.0
1003.0
997.0
993.0
990.0
987.0
987.0
988.0
989.0
989.0
989.0
990.0
991.0
989.0
990.0
987.0
987.0
987.0
986.0
986.0
988.0
990.0
992.0
994.0
995.0
994.0
993.0
993.0
992.0
993.0
996.0
995.0
997.0
1000.0
1001.0
1004.0
1006.0
1006.0
1006.0
1005.0
1007.0
1006.0
1008.0
1009.0
1010.0
1013.0
1015.0
1017.0
1015.0
1018.0
1017.0
1017.0
1016.0
1012.0
1015.0
1011.0
1015.0
1017.0
1018.0
1022.0
1021.0
1023.0
1021.0
1021.0
1018.0
1018.0
1018.0
1016.0
1018.0
1021.0
1021.0
1025.0
1023.0
1020.0
1020.0
1020.0
1017.0
1018.0
1017.0
1019.0
1022.0
1023.0
1023.0
1025.0
1025.0
1025.0
1024.0
1025.0
1023.0
1021.0
1021.0
1021.0
1024.0
1024.0
1024.0
1028.0
1029.0
1030.0
1029.0
1027.0
1027.0
1023.0
1025.0
1026.0
1026.0
1030.0
1031.0
1032.0
1034.0
1034.0
1031.0
1031.0
1032.0
1029.0
1031.0
1032.0
1033.0
1036.0
1034.0
1037.0
1038.0
1038.0
1035.0
1036.0
1037.0
1033.0
1037.0
1036.0
1037.0
1038.0
1039.0
1042.0
1044.0
1040.0
1042.0
1042.0
1041.0
1040.0
1041.0
1042.0
1044.0
1049.0
1049.0
1057.0
1059.0
1062.0
1063.0
1065.0
1065.0
1066.0
1068.0
1069.0
1073.0
1075.0
1076.0
1079.0
1078.0
1075.0
1075.0
1072.0
1072.0
1073.0
1074.0
1073.0
1075.0
1072.0
1074.0
1073.0
1071.0
1065.0
1063.0
1059.0
1055.0
1054.0
1052.0
1054.0
1050.0
1054.0
1057.0
1057.0
1057.0
1057.0
1056.0
1056.0
1055.0
1054.0
1051.0
1053.0
1054.0
1057.0
1058.0
1060.0
1059.0
1063.0
1061.0
1060.0
1060.0
1060.0
1061.0
1061.0
1066.0
1069.0
1071.0
1075.0
1076.0
1079.0
1083.0
1087.0
1101.0
1123.0
1161.0
1209.0
1269.0
1337.0
1398.0
1443.0
1458.0
1435.0
1366.0
1258.0
1136.0
1024.0
951.0
923.0
939.0
982.0
1028.0
1071.0
1100.0
1113.0
1110.0
1103.0
1094.0
1085.0
1081.0
1079.0
1082.0
1085.0
1089.0
1093.0
1091.0
1093.0
1092.0
1089.0
1089.0
1088.0
1089.0
1088.0
1090.0
1091.0
1093.0
1092.0
1095.0
1093.0
1091.0
1088.0
1088.0
1087.0
1091.0
1090.0
1090.0
1093.0
1095.0
1096.0
1099.0
1097.0
1097.0
1094.0
1095.0
1094.0
1094.0
1094.0
1092.0
1093.0
1098.0
1100.0
1098.0
1101.0
1099.0
1098.0
1096.0
1095.0
1095.0
1094.0
1095.0
1098.0
1099.0
1100.0
1099.0
1102.0
1103.0
1099.0
1101.0
1098.0
1099.0
1099.0
1099.0
1102.0
1103.0
1104.0
1107.0
1101.0
1103.0
1103.0
1104.0
1100.0
1099.0
1102.0
1102.0
1106.0
1107.0
1109.0
1108.0
1108.0
1111.0
1110.0
1109.0
1110.0
1107.0
1110.0
1110.0
1111.0
1110.0
1113.0
1114.0
1115.0
1112.0
1113.0
1112.0
1111.0
1110.0
1112.0
1111.0
1113.0
1115.0
1115.0
1116.0
1116.0
1113.0
1114.0
1112.0
1111.0
1113.0
1111.0
1110.0
1114.0
1117.0
1119.0
1118.0
1116.0
1116.0
1114.0
1110.0
1109.0
1107.0
1105.0
1100.0
1103.0
1101.0
1099.0
1097.0
1094.0
1089.0
1086.0
1083.0
1078.0
1074.0
1074.0
1076.0
1075.0
1075.0
1075.0
1070.0
1072.0
1072.0
1070.0
1067.0
1069.0
1068.0
1068.0
1067.0
1069.0
1069.0
1070.0
1070.0
1071.0
1070.0
1070.0
1069.0
1066.0
1067.0
1069.0
1068.0
1072.0
1070.0
1074.0
1072.0
1074.0
1075.0
1074.0
1073.0
1072.0
1070.0
1071.0
1073.0
1071.0
1075.0
1077.0
1077.0
1075.0
1076.0
1076.0
1075.0
1075.0
1074.0
1073.0
1074.0
1074.0
1074.0
1075.0
1075.0
1072.0
1075.0
1073.0
1071.0
1066.0
1066.0
1066.0
1066.0
1066.0
1068.0
1072.0
1070.0
1069.0
1066.0
1068.0
1066.0
1063.0
1062.0
1063.0
1062.0
1062.0
1063.0
1063.0
1063.0
1062.0
1063.0
1061.0
1060.0
1057.0
1056.0
1058.0
1057.0
1057.0
1057.0
1060.0
1061.0
1060.0
1058.0
1055.0
1056.0
1057.0
1053.0
1053.0
1055.0
1056.0
1055.0
1059.0
1058.0
1057.0
1056.0
1054.0
1054.0
1052.0
1050.0
1050.0
1051.0
1052.0
1053.0
1054.0
1054.0
1054.0
1053.0
1051.0
1051.0
1050.0
1048.0
1050.0
1049.0
1050.0
1055.0
1056.0
1059.0
1059.0
1061.0
1061.0
1060.0
1061.0
1059.0
1065.0
1066.0
1069.0
1070.0
1075.0
1078.0
1077.0
1079.0
1078.0
1072.0
1072.0
1070.0
1069.0
1070.0
1072.0
1070.0
1072.0
1073.0
1072.0
1068.0
1066.0
1063.0
1059.0
1055.0
1054.0
1051.0
1050.0
1049.0
1049.0
1049.0
1047.0
1047.0
1044.0
1043.0
1043.0
1041.0
1039.0
1036.0
1038.0
1038.0
1037.0
1038.0
1042.0
1043.0
1039.0
1039.0
1036.0
1036.0
1035.0
1036.0
1038.0
1040.0
1041.0
1043.0
1043.0
1042.0
1041.0
1041.0
1043.0
1042.0
1044.0
1045.0
1047.0
1048.0
1052.0
1053.0
1058.0
1066.0
1080.0
1098.0
1128.0
1169.0
1219.0
1280.0
1341.0
1385.0
1408.0
1393.0
1335.0
1243.0
1128.0
1012.0
929.0
896.0
902.0
936.0
981.0
1021.0
1052.0
1068.0
1071.0
1066.0
1056.0
1049.0
1042.0
1040.0
1042.0
1044.0
1046.0
1046.0
1049.0
1050.0
1049.0
1050.0
1047.0
1047.0
1043.0
1046.0
1046.0
1045.0
1048.0
1048.0
1049.0
1050.0
1048.0
1047.0
1045.0
1045.0
1045.0
1043.0
1044.0
1043.0
1044.0
1043.0
1045.0
1048.0
1046.0
1045.0
1045.0
1044.0
1042.0
1043.0
1042.0
1042.0
1044.0
1046.0
1044.0
1045.0
1045.0
1044.0
1045.0
1042.0
1041.0
1038.0
1040.0
1039.0
1041.0
1041.0
1043.0
1043.0
1043.0
1038.0
1040.0
1041.0
1041.0
1039.0
1039.0
1041.0
1042.0
1044.0
1044.0
1047.0
1046.0
1047.0
1043.0
1043.0
1043.0
1041.0
1041.0
1039.0
1043.0
1046.0
1049.0
1049.0
1049.0
1048.0
1047.0
1046.0
1045.0
1046.0
1044.0
1045.0
1049.0
1049.0
1051.0
1053.0
1052.0
1052.0
1050.0
1052.0
1049.0
1045.0
1045.0
1045.0
1049.0
1049.0
1053.0
1053.0
1052.0
1052.0
1048.0
1046.0
1043.0
1045.0
1047.0
1045.0
1047.0
1048.0
1049.0
1053.0
1050.0
1048.0
1046.0
1043.0
1039.0
1035.0
1035.0
1031.0
1030.0
1028.0
1027.0
1025.0
1021.0
1019.0
1017.0
1013.0
1007.0
1007.0
1004.0
1004.0
1000.0
1003.0
1006.0
1003.0
1002.0
1002.0
1000.0
999.0
994.0
993.0
993.0
995.0
995.0
996.0
998.0
1001.0
1001.0
1001.0
1000.0
999.0
999.0
994.0
995.0
995.0
995.0
997.0
1001.0
1001.0
999.0
1001.0
999.0
1000.0
999.0
997.0
998.0
1001.0
1001.0
1001.0
1001.0
1000.0
1003.0
1001.0
997.0
997.0
998.0
994.0
995.0
994.0
994.0
996.0
997.0
998.0
997.0
997.0
995.0
992.0
993.0
988.0
987.0
988.0
989.0
990.0
988.0
988.0
987.0
987.0
987.0
986.0
984.0
981.0
982.0
982.0
982.0
983.0
983.0
983.0
984.0
982.0
980.0
979.0
978.0
979.0
978.0
979.0
979.0
979.0
981.0
981.0
982.0
983.0
978.0
980.0
977.0
976.0
977.0
979.0
981.0
983.0
985.0
988.0
986.0
990.0
990.0
990.0
992.0
992.0
996.0
998.0
999.0
1000.0
1004.0
1006.0
1005.0
1003.0
1000.0
999.0
998.0
994.0
995.0
995.0
999.0
998.0
996.0
996.0
995.0
992.0
988.0
984.0
979.0
975.0
971.0
970.0
970.0
967.0
971.0
973.0
972.0
972.0
968.0
966.0
965.0
960.0
956.0
958.0
962.0
962.0
963.0
963.0
963.0
962.0
963.0
962.0
960.0
959.0
960.0
958.0
960.0
962.0
964.0
965.0
965.0
966.0
966.0
965.0
966.0
965.0
967.0
969.0
968.0
972.0
975.0
979.0
985.0
996.0
1010.0
1031.0
1060.0
1102.0
1155.0
1215.0
1275.0
1321.0
1341.0
1328.0
1275.0
1183.0
1068.0
953.0
865.0
817.0
815.0
840.0
884.0
923.0
953.0
972.0
980.0
981.0
977.0
972.0
968.0
965.0
964.0
967.0
969.0
968.0
971.0
974.0
973.0
973.0
969.0
968.0
965.0
965.0
965.0
967.0
967.0
969.0
971.0
971.0
971.0
972.0
970.0
967.0
966.0
966.0
966.0
968.0
970.0
970.0
972.0
973.0
971.0
969.0
969.0
967.0
964.0
965.0
966.0
967.0
966.0
968.0
967.0
969.0
969.0
971.0
969.0
968.0
966.0
964.0
967.0
967.0
966.0
970.0
970.0
970.0
971.0
971.0
967.0
965.0
964.0
966.0
966.0
966.0
966.0
967.0
970.0
972.0
972.0
973.0
971.0
970.0
968.0
970.0
967.0
965.0
968.0
970.0
971.0
972.0
971.0
972.0
971.0
972.0
972.0
972.0
972.0
974.0
972.0
975.0
974.0
980.0
978.0
979.0
977.0
978.0
977.0
974.0
974.0
975.0
978.0
977.0
979.0
979.0
979.0
977.0
977.0
974.0
971.0
970.0
970.0
971.0
971.0
974.0
976.0
975.0
976.0
973.0
968.0
966.0
962.0
961.0
958.0
953.0
954.0
952.0
949.0
947.0
944.0
941.0
938.0
935.0
934.0
930.0
929.0
929.0
927.0
930.0
927.0
928.0
924.0
922.0
925.0
921.0
923.0
922.0
923.0
925.0
924.0
924.0
925.0
926.0
928.0
926.0
925.0
925.0
923.0
924.0
924.0
923.0
926.0
929.0
928.0
931.0
931.0
930.0
931.0
928.0
928.0
928.0
927.0
927.0
928.0
929.0
931.0
931.0
932.0
933.0
931.0
927.0
923.0
924.0
924.0
923.0
924.0
924.0
926.0
927.0
927.0
927.0
926.0
922.0
922.0
921.0
920.0
919.0
919.0
921.0
919.0
923.0
919.0
920.0
919.0
916.0
915.0
916.0
914.0
912.0
912.0
913.0
917.0
919.0
922.0
923.0
923.0
923.0
924.0
924.0
925.0
928.0
930.0
933.0
936.0
939.0
941.0
943.0
943.0
941.0
940.0
938.0
934.0
935.0
936.0
938.0
941.0
941.0
941.0
940.0
938.0
932.0
927.0
922.0
919.0
916.0
913.0
913.0
910.0
912.0
911.0
908.0
909.0
905.0
904.0
902.0
900.0
899.0
900.0
901.0
901.0
905.0
904.0
903.0
901.0
900.0
898.0
897.0
895.0
898.0
897.0
899.0
902.0
905.0
903.0
903.0
903.0
902.0
902.0
903.0
904.0
904.0
907.0
911.0
913.0
917.0
920.0
922.0
928.0
936.0
953.0
977.0
1011.0
1061.0
1118.0
1185.0
1243.0
1289.0
1312.0
1301.0
1250.0
1165.0
1054.0
939.0
838.0
780.0
760.0
780.0
818.0
864.0
898.0
919.0
927.0
926.0
923.0
917.0
912.0
911.0
911.0
914.0
915.0
915.0
917.0
916.0
915.0
914.0
913.0
911.0
912.0
912.0
914.0
915.0
916.0
918.0
918.0
918.0
918.0
914.0
917.0
913.0
912.0
915.0
917.0
914.0
918.0
919.0
919.0
917.0
916.0
915.0
915.0
914.0
910.0
913.0
914.0
914.0
918.0
918.0
919.0
918.0
915.0
918.0
917.0
916.0
916.0
915.0
918.0
918.0
917.0
920.0
918.0
917.0
919.0
916.0
916.0
913.0
915.0
914.0
919.0
919.0
920.0
921.0
923.0
922.0
922.0
922.0
921.0
921.0
920.0
921.0
922.0
924.0
926.0
927.0
930.0
930.0
930.0
928.0
928.0
926.0
928.0
928.0
929.0
930.0
933.0
936.0
936.0
937.0
938.0
936.0
936.0
934.0
935.0
936.0
937.0
937.0
939.0
939.0
941.0
940.0
939.0
937.0
937.0
935.0
934.0
935.0
935.0
935.0
936.0
937.0
937.0
934.0
932.0
929.0
924.0
921.0
915.0
911.0
910.0
908.0
906.0
904.0
902.0
898.0
894.0
892.0
889.0
886.0
884.0
882.0
881.0
881.0
881.0
881.0
880.0
881.0
881.0
877.0
877.0
875.0
873.0
873.0
874.0
876.0
878.0
878.0
878.0
877.0
879.0
876.0
876.0
876.0
877.0
877.0
877.0
880.0
880.0
882.0
883.0
883.0
883.0
884.0
882.0
880.0
880.0
880.0
884.0
885.0
886.0
887.0
886.0
885.0
883.0
886.0
885.0
883.0
881.0
881.0
881.0
883.0
885.0
884.0
883.0
884.0
883.0
878.0
878.0
876.0
874.0
876.0
875.0
875.0
878.0
880.0
879.0
878.0
877.0
875.0
873.0
873.0
871.0
869.0
871.0
872.0
874.0
876.0
876.0
875.0
874.0
875.0
872.0
869.0
868.0
871.0
872.0
873.0
873.0
876.0
875.0
873.0
874.0
874.0
875.0
875.0
877.0
879.0
879.0
884.0
887.0
889.0
892.0
892.0
897.0
894.0
897.0
896.0
895.0
894.0
895.0
893.0
894.0
896.0
896.0
896.0
896.0
894.0
892.0
890.0
885.0
885.0
882.0
879.0
877.0
874.0
875.0
871.0
867.0
865.0
865.0
864.0
864.0
862.0
863.0
863.0
866.0
866.0
866.0
865.0
863.0
860.0
862.0
859.0
859.0
859.0
858.0
862.0
863.0
865.0
865.0
867.0
865.0
865.0
866.0
864.0
864.0
866.0
866.0
868.0
871.0
874.0
875.0
876.0
879.0
878.0
880.0
886.0
896.0
917.0
951.0
999.0
1065.0
1142.0
1214.0
1265.0
1283.0
1253.0
1174.0
1060.0
932.0
817.0
745.0
719.0
735.0
775.0
823.0
860.0
883.0
893.0
894.0
891.0
883.0
878.0
874.0
874.0
873.0
878.0
879.0
880.0
881.0
878.0
879.0
877.0
876.0
876.0
875.0
877.0
876.0
880.0
883.0
881.0
882.0
880.0
878.0
876.0
877.0
877.0
876.0
878.0
879.0
881.0
881.0
882.0
879.0
879.0
878.0
878.0
876.0
878.0
878.0
880.0
879.0
880.0
881.0
880.0
881.0
878.0
876.0
875.0
875.0
877.0
876.0
878.0
879.0
882.0
876.0
877.0
880.0
881.0
880.0
876.0
876.0
876.0
881.0
883.0
882.0
884.0
886.0
887.0
884.0
886.0
886.0
885.0
884.0
886.0
887.0
889.0
889.0
891.0
891.0
893.0
892.0
891.0
892.0
890.0
891.0
893.0
894.0
894.0
898.0
900.0
902.0
899.0
901.0
901.0
901.0
899.0
898.0
900.0
899.0
899.0
903.0
905.0
904.0
905.0
904.0
903.0
902.0
901.0
901.0
902.0
902.0
903.0
900.0
901.0
901.0
897.0
893.0
889.0
886.0
880.0
876.0
872.0
870.0
868.0
867.0
864.0
864.0
862.0
859.0
855.0
853.0
848.0
847.0
847.0
845.0
844.0
845.0
849.0
847.0
847.0
846.0
846.0
844.0
845.0
841.0
845.0
844.0
846.0
844.0
845.0
847.0
847.0
848.0
846.0
847.0
844.0
844.0
844.0
847.0
848.0
850.0
849.0
852.0
850.0
850.0
849.0
850.0
849.0
848.0
849.0
851.0
852.0
852.0
855.0
855.0
856.0
854.0
853.0
852.0
850.0
849.0
846.0
847.0
848.0
851.0
851.0
852.0
851.0
850.0
850.0
848.0
845.0
844.0
844.0
845.0
845.0
846.0
847.0
847.0
845.0
847.0
846.0
844.0
843.0
841.0
840.0
842.0
844.0
844.0
842.0
846.0
844.0
843.0
842.0
840.0
841.0
838.0
838.0
841.0
840.0
840.0
843.0
845.0
844.0
846.0
843.0
842.0
842.0
845.0
846.0
848.0
852.0
856.0
858.0
862.0
860.0
862.0
861.0
861.0
864.0
864.0
865.0
868.0
869.0
867.0
867.0
869.0
866.0
868.0
865.0
867.0
864.0
864.0
861.0
861.0
859.0
858.0
855.0
851.0
850.0
845.0
842.0
840.0
837.0
837.0
837.0
839.0
837.0
837.0
839.0
837.0
841.0
838.0
837.0
836.0
832.0
833.0
834.0
834.0
833.0
834.0
836.0
838.0
837.0
841.0
836.0
837.0
837.0
836.0
840.0
838.0
842.0
841.0
845.0
846.0
849.0
845.0
848.0
852.0
853.0
856.0
862.0
874.0
892.0
922.0
959.0
1012.0
1069.0
1138.0
1199.0
1240.0
1256.0
1233.0
1167.0
1066.0
951.0
838.0
756.0
715.0
715.0
744.0
784.0
819.0
849.0
864.0
872.0
870.0
864.0
860.0
856.0
853.0
854.0
852.0
853.0
857.0
854.0
854.0
855.0
855.0
856.0
856.0
858.0
861.0
861.0
862.0
862.0
860.0
858.0
856.0
857.0
856.0
858.0
858.0
860.0
860.0
861.0
858.0
860.0
858.0
857.0
855.0
857.0
855.0
857.0
858.0
861.0
864.0
863.0
862.0
861.0
859.0
858.0
858.0
857.0
857.0
859.0
859.0
862.0
862.0
863.0
862.0
864.0
861.0
859.0
860.0
858.0
860.0
860.0
860.0
865.0
867.0
867.0
868.0
868.0
868.0
867.0
865.0
862.0
863.0
865.0
868.0
872.0
874.0
875.0
874.0
873.0
875.0
874.0
873.0
875.0
875.0
877.0
879.0
880.0
880.0
881.0
882.0
882.0
881.0
882.0
882.0
881.0
881.0
884.0
885.0
886.0
889.0
886.0
888.0
886.0
885.0
884.0
883.0
886.0
887.0
888.0
890.0
889.0
890.0
891.0
891.0
890.0
888.0
886.0
883.0
881.0
880.0
881.0
878.0
877.0
873.0
872.0
869.0
867.0
861.0
855.0
852.0
852.0
848.0
844.0
847.0
847.0
846.0
846.0
846.0
841.0
841.0
840.0
836.0
837.0
837.0
835.0
837.0
838.0
841.0
840.0
838.0
838.0
838.0
835.0
836.0
835.0
835.0
837.0
838.0
838.0
840.0
841.0
839.0
840.0
838.0
837.0
836.0
837.0
837.0
839.0
841.0
842.0
845.0
845.0
844.0
841.0
842.0
841.0
842.0
840.0
841.0
844.0
845.0
846.0
849.0
846.0
847.0
845.0
842.0
840.0
840.0
839.0
839.0
841.0
842.0
844.0
843.0
844.0
844.0
842.0
837.0
839.0
836.0
834.0
836.0
837.0
835.0
839.0
839.0
839.0
837.0
838.0
840.0
837.0
835.0
837.0
837.0
838.0
840.0
842.0
844.0
845.0
846.0
850.0
849.0
848.0
848.0
852.0
853.0
857.0
862.0
865.0
870.0
868.0
866.0
865.0
862.0
859.0
858.0
859.0
861.0
862.0
862.0
862.0
861.0
859.0
856.0
852.0
848.0
841.0
837.0
835.0
834.0
833.0
834.0
835.0
836.0
837.0
835.0
834.0
832.0
831.0
828.0
830.0
828.0
829.0
827.0
829.0
831.0
831.0
830.0
831.0
830.0
830.0
829.0
827.0
826.0
828.0
830.0
833.0
835.0
835.0
837.0
837.0
839.0
838.0
837.0
839.0
842.0
844.0
844.0
847.0
850.0
853.0
860.0
869.0
882.0
908.0
941.0
989.0
1054.0
1123.0
1187.0
1234.0
1252.0
1221.0
1149.0
1040.0
913.0
799.0
725.0
698.0
716.0
755.0
800.0
838.0
861.0
869.0
871.0
865.0
858.0
852.0
847.0
847.0
846.0
848.0
850.0
854.0
857.0
856.0
857.0
854.0
853.0
852.0
850.0
851.0
853.0
854.0
854.0
856.0
857.0
856.0
858.0
857.0
857.0
858.0
857.0
856.0
856.0
858.0
858.0
859.0
860.0
862.0
860.0
859.0
858.0
858.0
855.0
857.0
858.0
859.0
859.0
862.0
862.0
865.0
865.0
861.0
860.0
861.0
860.0
861.0
860.0
861.0
860.0
864.0
866.0
866.0
864.0
865.0
867.0
866.0
864.0
864.0
863.0
866.0
868.0
870.0
872.0
873.0
873.0
873.0
871.0
870.0
872.0
869.0
871.0
875.0
876.0
877.0
877.0
876.0
875.0
877.0
877.0
875.0
876.0
875.0
878.0
880.0
882.0
883.0
884.0
885.0
887.0
887.0
885.0
886.0
887.0
887.0
887.0
889.0
890.0
892.0
892.0
890.0
891.0
891.0
888.0
888.0
887.0
888.0
884.0
886.0
888.0
888.0
891.0
892.0
891.0
889.0
884.0
882.0
879.0
874.0
870.0
867.0
868.0
865.0
862.0
860.0
856.0
856.0
850.0
846.0
844.0
841.0
839.0
840.0
839.0
839.0
840.0
837.0
838.0
837.0
835.0
834.0
831.0
831.0
831.0
833.0
832.0
836.0
837.0
837.0
837.0
837.0
837.0
836.0
833.0
835.0
837.0
837.0
839.0
841.0
843.0
844.0
842.0
842.0
841.0
841.0
841.0
841.0
841.0
844.0
845.0
847.0
848.0
846.0
848.0
847.0
846.0
845.0
841.0
842.0
841.0
842.0
841.0
845.0
847.0
845.0
846.0
845.0
839.0
837.0
839.0
838.0
839.0
841.0
841.0
840.0
843.0
842.0
843.0
840.0
838.0
838.0
836.0
833.0
836.0
839.0
841.0
840.0
844.0
845.0
846.0
845.0
847.0
846.0
849.0
847.0
852.0
852.0
856.0
859.0
864.0
867.0
866.0
868.0
867.0
866.0
862.0
859.0
860.0
861.0
864.0
865.0
865.0
866.0
867.0
862.0
858.0
855.0
847.0
845.0
842.0
838.0
838.0
839.0
839.0
839.0
838.0
838.0
835.0
836.0
835.0
834.0
833.0
831.0
832.0
834.0
836.0
835.0
837.0
836.0
832.0
832.0
833.0
834.0
831.0
832.0
835.0
837.0
840.0
840.0
841.0
841.0
842.0
841.0
843.0
844.0
845.0
847.0
849.0
854.0
864.0
871.0
890.0
916.0
951.0
1003.0
1064.0
1136.0
1203.0
1252.0
1270.0
1246.0
1169.0
1058.0
930.0
812.0
733.0
702.0
712.0
752.0
794.0
835.0
862.0
874.0
877.0
872.0
864.0
855.0
854.0
850.0
849.0
849.0
850.0
855.0
856.0
857.0
857.0
856.0
858.0
858.0
855.0
857.0
857.0
857.0
856.0
858.0
860.0
859.0
864.0
863.0
859.0
861.0
861.0
861.0
859.0
859.0
856.0
856.0
861.0
860.0
862.0
864.0
862.0
863.0
862.0
860.0
858.0
858.0
859.0
859.0
862.0
862.0
864.0
864.0
864.0
865.0
865.0
864.0
862.0
861.0
863.0
865.0
868.0
868.0
872.0
872.0
870.0
869.0
871.0
871.0
869.0
868.0
869.0
870.0
871.0
875.0
875.0
878.0
875.0
876.0
877.0
874.0
874.0
874.0
873.0
875.0
878.0
882.0
883.0
886.0
886.0
885.0
883.0
882.0
885.0
884.0
885.0
887.0
888.0
890.0
893.0
895.0
894.0
895.0
895.0
892.0
893.0
893.0
894.0
893.0
897.0
894.0
896.0
899.0
898.0
897.0
896.0
895.0
896.0
893.0
896.0
895.0
894.0
894.0
