# Simple Text Format
# Sampling Rate (Hz):= 360.00
# Resolution:= 12
# Labels:= ECG
875.0
874.0
873.0
872.0
871.0
873.0
873.0
874.0
876.0
876.0
875.0
875.0
871.0
868.0
873.0
871.0
872.0
870.0
873.0
873.0
874.0
875.0
873.0
875.0
872.0
873.0
870.0
870.0
871.0
867.0
869.0
873.0
872.0
872.0
875.0
871.0
870.0
870.0
870.0
868.0
870.0
871.0
872.0
872.0
878.0
882.0
887.0
886.0
887.0
889.0
889.0
891.0
892.0
894.0
897.0
901.0
905.0
910.0
909.0
908.0
906.0
902.0
900.0
899.0
899.0
900.0
901.0
902.0
898.0
900.0
900.0
896.0
891.0
887.0
883.0
878.0
873.0
874.0
873.0
875.0
877.0
877.0
878.0
877.0
875.0
876.0
874.0
873.0
871.0
870.0
870.0
873.0
873.0
874.0
874.0
875.0
874.0
872.0
870.0
869.0
869.0
870.0
873.0
876.0
879.0
878.0
881.0
881.0
880.0
881.0
883.0
881.0
879.0
880.0
883.0
887.0
894.0
904.0
922.0
949.0
992.0
1049.0
1121.0
1199.0
1278.0
1335.0
1352.0
1324.0
1240.0
1120.0
992.0
864.0
759.0
719.0
725.0
766.0
815.0
858.0
891.0
909.0
910.0
907.0
903.0
898.0
897.0
893.0
893.0
893.0
895.0
896.0
894.0
895.0
895.0
898.0
901.0
899.0
897.0
899.0
898.0
897.0
898.0
896.0
898.0
901.0
903.0
902.0
900.0
900.0
898.0
894.0
895.0
897.0
900.0
901.0
902.0
902.0
904.0
905.0
905.0
904.0
905.0
903.0
902.0
901.0
899.0
900.0
903.0
905.0
905.0
908.0
907.0
905.0
903.0
903.0
903.0
902.0
901.0
907.0
905.0
906.0
909.0
912.0
911.0
909.0
910.0
907.0
905.0
906.0
907.0
906.0
910.0
911.0
911.0
914.0
916.0
915.0
916.0
913.0
914.0
913.0
915.0
913.0
912.0
915.0
918.0
923.0
924.0
923.0
923.0
921.0
920.0
919.0
919.0
921.0
923.0
925.0
927.0
931.0
929.0
930.0
930.0
926.0
925.0
925.0
923.0
924.0
922.0
924.0
925.0
925.0
927.0
925.0
924.0
925.0
924.0
923.0
922.0
924.0
925.0
923.0
924.0
924.0
922.0
919.0
918.0
915.0
909.0
909.0
905.0
902.0
904.0
901.0
899.0
895.0
893.0
891.0
891.0
889.0
886.0
885.0
885.0
883.0
882.0
885.0
884.0
885.0
884.0
886.0
885.0
884.0
882.0
880.0
882.0
882.0
886.0
888.0
890.0
892.0
891.0
894.0
895.0
892.0
890.0
891.0
891.0
891.0
891.0
893.0
895.0
897.0
897.0
898.0
896.0
896.0
896.0
896.0
895.0
897.0
897.0
898.0
897.0
901.0
902.0
901.0
899.0
900.0
898.0
897.0
895.0
895.0
895.0
896.0
895.0
896.0
897.0
897.0
899.0
896.0
894.0
892.0
892.0
893.0
895.0
894.0
894.0
897.0
896.0
893.0
894.0
893.0
892.0
891.0
890.0
891.0
890.0
891.0
895.0
898.0
903.0
904.0
907.0
909.0
910.0
911.0
912.0
914.0
917.0
921.0
924.0
928.0
929.0
930.0
928.0
923.0
924.0
922.0
922.0
921.0
927.0
925.0
926.0
928.0
927.0
923.0
920.0
915.0
911.0
908.0
903.0
900.0
897.0
897.0
899.0
902.0
904.0
901.0
900.0
900.0
896.0
896.0
894.0
894.0
894.0
896.0
896.0
898.0
901.0
899.0
897.0
896.0
896.0
897.0
898.0
899.0
900.0
901.0
902.0
906.0
909.0
909.0
909.0
909.0
907.0
907.0
909.0
909.0
913.0
917.0
923.0
929.0
947.0
966.0
994.0
1033.0
1086.0
1148.0
1221.0
1296.0
1354.0
1391.0
1390.0
1348.0
1259.0
1133.0
1005.0
877.0
779.0
745.0
764.0
813.0
868.0
913.0
944.0
960.0
964.0
956.0
948.0
937.0
932.0
930.0
929.0
933.0
937.0
939.0
940.0
942.0
941.0
941.0
939.0
938.0
937.0
939.0
942.0
940.0
944.0
943.0
944.0
947.0
947.0
946.0
947.0
945.0
944.0
948.0
947.0
947.0
949.0
951.0
951.0
953.0
955.0
955.0
955.0
952.0
951.0
951.0
950.0
952.0
955.0
957.0
956.0
959.0
960.0
959.0
958.0
958.0
958.0
957.0
958.0
957.0
959.0
961.0
963.0
967.0
967.0
965.0
967.0
969.0
966.0
965.0
964.0
966.0
967.0
970.0
970.0
974.0
976.0
974.0
975.0
976.0
977.0
977.0
975.0
975.0
975.0
980.0
982.0
983.0
984.0
985.0
986.0
987.0
987.0
988.0
988.0
989.0
986.0
989.0
992.0
992.0
994.0
995.0
997.0
996.0
996.0
993.0
993.0
993.0
996.0
995.0
995.0
997.0
998.0
997.0
999.0
997.0
996.0
995.0
993.0
993.0
985.0
985.0
987.0
985.0
983.0
980.0
977.0
973.0
969.0
966.0
961.0
960.0
958.0
955.0
956.0
956.0
954.0
953.0
950.0
949.0
945.0
945.0
943.0
945.0
942.0
944.0
945.0
944.0
943.0
944.0
943.0
944.0
943.0
942.0
943.0
943.0
942.0
945.0
947.0
946.0
954.0
949.0
950.0
950.0
949.0
949.0
950.0
953.0
953.0
957.0
958.0
961.0
960.0
963.0
963.0
961.0
960.0
958.0
960.0
957.0
958.0
961.0
961.0
961.0
961.0
961.0
961.0
960.0
955.0
957.0
956.0
956.0
955.0
957.0
957.0
959.0
956.0
957.0
956.0
957.0
955.0
952.0
953.0
953.0
952.0
955.0
954.0
957.0
956.0
955.0
955.0
955.0
953.0
953.0
950.0
953.0
954.0
957.0
959.0
965.0
968.0
968.0
970.0
970.0
970.0
971.0
976.0
975.0
981.0
985.0
987.0
986.0
985.0
984.0
981.0
981.0
982.0
981.0
979.0
978.0
980.0
980.0
979.0
977.0
975.0
971.0
968.0
964.0
957.0
955.0
951.0
950.0
946.0
948.0
948.0
950.0
952.0
951.0
948.0
947.0
944.0
943.0
941.0
942.0
943.0
944.0
944.0
944.0
946.0
944.0
945.0
944.0
943.0
943.0
942.0
943.0
942.0
943.0
946.0
945.0
947.0
949.0
950.0
949.0
948.0
951.0
952.0
953.0
955.0
958.0
966.0
979.0
1002.0
1032.0
1081.0
1144.0
1219.0
1300.0
1367.0
1408.0
1406.0
1354.0
1255.0
1127.0
999.0
871.0
794.0
777.0
807.0
856.0
911.0
953.0
979.0
991.0
992.0
984.0
978.0
970.0
967.0
964.0
961.0
963.0
964.0
964.0
966.0
967.0
968.0
968.0
971.0
971.0
971.0
972.0
971.0
967.0
966.0
968.0
968.0
969.0
971.0
972.0
972.0
970.0
972.0
970.0
970.0
968.0
969.0
969.0
966.0
968.0
967.0
972.0
973.0
972.0
972.0
971.0
969.0
969.0
967.0
969.0
969.0
970.0
971.0
972.0
972.0
973.0
973.0
969.0
972.0
971.0
968.0
971.0
971.0
972.0
973.0
976.0
976.0
977.0
974.0
975.0
976.0
973.0
974.0
973.0
974.0
977.0
977.0
979.0
982.0
977.0
982.0
980.0
981.0
981.0
979.0
980.0
982.0
985.0
988.0
989.0
992.0
993.0
992.0
992.0
990.0
991.0
992.0
991.0
994.0
997.0
995.0
998.0
1000.0
1001.0
1001.0
1001.0
997.0
997.0
996.0
995.0
997.0
997.0
999.0
999.0
1002.0
1001.0
997.0
995.0
992.0
988.0
983.0
981.0
980.0
976.0
974.0
973.0
971.0
966.0
961.0
956.0
950.0
947.0
945.0
941.0
940.0
939.0
938.0
938.0
939.0
936.0
936.0
933.0
933.0
931.0
929.0
927.0
928.0
928.0
927.0
930.0
932.0
933.0
932.0
930.0
930.0
928.0
930.0
931.0
931.0
931.0
933.0
932.0
933.0
935.0
936.0
937.0
933.0
933.0
931.0
934.0
934.0
936.0
937.0
938.0
940.0
939.0
938.0
938.0
938.0
936.0
935.0
934.0
932.0
932.0
935.0
939.0
938.0
936.0
936.0
937.0
935.0
932.0
930.0
930.0
930.0
932.0
932.0
932.0
934.0
934.0
932.0
930.0
930.0
927.0
925.0
928.0
925.0
925.0
926.0
925.0
929.0
928.0
929.0
927.0
926.0
924.0
924.0
926.0
928.0
932.0
934.0
937.0
939.0
942.0
942.0
943.0
944.0
944.0
946.0
946.0
952.0
954.0
958.0
959.0
959.0
958.0
956.0
953.0
952.0
952.0
948.0
947.0
949.0
950.0
949.0
949.0
947.0
944.0
939.0
937.0
932.0
929.0
922.0
920.0
918.0
918.0
917.0
918.0
917.0
918.0
921.0
919.0
914.0
915.0
912.0
911.0
910.0
910.0
909.0
913.0
913.0
913.0
911.0
913.0
911.0
908.0
905.0
905.0
908.0
908.0
912.0
911.0
915.0
913.0
913.0
913.0
910.0
915.0
913.0
914.0
915.0
919.0
921.0
929.0
936.0
949.0
970.0
1001.0
1043.0
1092.0
1156.0
1225.0
1290.0
1344.0
1370.0
1361.0
1309.0
1213.0
1086.0
958.0
836.0
761.0
734.0
754.0
796.0
851.0
895.0
924.0
939.0
943.0
941.0
935.0
928.0
923.0
918.0
917.0
920.0
922.0
922.0
924.0
926.0
926.0
927.0
924.0
922.0
922.0
920.0
922.0
922.0
923.0
923.0
926.0
927.0
926.0
927.0
927.0
925.0
923.0
922.0
922.0
922.0
924.0
926.0
927.0
927.0
927.0
926.0
923.0
921.0
922.0
924.0
924.0
924.0
925.0
925.0
928.0
929.0
927.0
926.0
924.0
925.0
925.0
921.0
923.0
923.0
927.0
926.0
928.0
928.0
929.0
931.0
931.0
927.0
929.0
928.0
928.0
927.0
929.0
931.0
933.0
934.0
936.0
935.0
934.0
931.0
932.0
931.0
935.0
934.0
934.0
933.0
937.0
940.0
939.0
938.0
940.0
940.0
939.0
941.0
941.0
943.0
946.0
944.0
947.0
946.0
947.0
950.0
948.0
948.0
947.0
945.0
944.0
944.0
946.0
948.0
950.0
952.0
953.0
949.0
949.0
948.0
946.0
947.0
948.0
948.0
949.0
949.0
949.0
947.0
945.0
941.0
936.0
930.0
926.0
922.0
919.0
917.0
914.0
910.0
908.0
908.0
904.0
903.0
902.0
900.0
896.0
895.0
892.0
892.0
892.0
892.0
893.0
894.0
896.0
893.0
891.0
890.0
889.0
889.0
888.0
888.0
888.0
889.0
890.0
891.0
892.0
891.0
893.0
890.0
889.0
888.0
888.0
889.0
891.0
893.0
894.0
898.0
896.0
895.0
895.0
892.0
895.0
891.0
894.0
891.0
894.0
896.0
897.0
898.0
897.0
898.0
897.0
897.0
896.0
894.0
894.0
894.0
895.0
896.0
893.0
898.0
896.0
895.0
895.0
892.0
892.0
890.0
891.0
892.0
891.0
891.0
893.0
894.0
893.0
891.0
890.0
888.0
888.0
888.0
888.0
888.0
884.0
888.0
892.0
895.0
894.0
897.0
898.0
898.0
898.0
898.0
897.0
901.0
905.0
910.0
912.0
917.0
918.0
920.0
920.0
916.0
915.0
912.0
911.0
909.0
910.0
913.0
914.0
913.0
914.0
912.0
911.0
905.0
901.0
898.0
892.0
890.0
887.0
883.0
882.0
882.0
883.0
881.0
880.0
879.0
875.0
876.0
877.0
875.0
876.0
876.0
876.0
877.0
875.0
878.0
876.0
873.0
872.0
871.0
872.0
874.0
872.0
874.0
876.0
878.0
878.0
877.0
877.0
877.0
877.0
878.0
880.0
881.0
883.0
886.0
890.0
892.0
894.0
895.0
902.0
914.0
934.0
964.0
1000.0
1057.0
1123.0
1197.0
1267.0
1324.0
1347.0
1332.0
1269.0
1160.0
1032.0
904.0
781.0
716.0
708.0
736.0
785.0
838.0
876.0
898.0
906.0
906.0
901.0
897.0
890.0
888.0
888.0
891.0
893.0
892.0
896.0
896.0
895.0
896.0
893.0
891.0
891.0
891.0
894.0
897.0
898.0
900.0
902.0
902.0
902.0
899.0
898.0
894.0
894.0
894.0
896.0
897.0
900.0
902.0
900.0
902.0
901.0
900.0
899.0
896.0
898.0
898.0
900.0
900.0
901.0
904.0
902.0
900.0
898.0
898.0
899.0
896.0
898.0
900.0
900.0
903.0
905.0
905.0
908.0
905.0
904.0
903.0
904.0
905.0
903.0
903.0
903.0
907.0
909.0
911.0
912.0
911.0
911.0
909.0
910.0
907.0
907.0
908.0
908.0
910.0
913.0
916.0
916.0
920.0
917.0
918.0
918.0
917.0
914.0
918.0
921.0
924.0
924.0
925.0
928.0
927.0
926.0
926.0
926.0
924.0
922.0
924.0
922.0
927.0
927.0
929.0
928.0
927.0
930.0
930.0
927.0
929.0
929.0
930.0
927.0
923.0
923.0
921.0
919.0
914.0
910.0
904.0
902.0
898.0
894.0
889.0
888.0
887.0
886.0
886.0
881.0
881.0
878.0
875.0
876.0
872.0
873.0
872.0
872.0
871.0
875.0
876.0
876.0
875.0
874.0
873.0
870.0
873.0
867.0
869.0
867.0
872.0
873.0
876.0
875.0
875.0
876.0
874.0
874.0
873.0
874.0
875.0
876.0
878.0
881.0
882.0
882.0
883.0
881.0
878.0
879.0
877.0
877.0
876.0
878.0
879.0
882.0
883.0
885.0
883.0
882.0
880.0
880.0
876.0
876.0
877.0
876.0
875.0
877.0
877.0
878.0
876.0
876.0
875.0
873.0
872.0
874.0
872.0
873.0
876.0
877.0
878.0
880.0
884.0
884.0
883.0
884.0
886.0
886.0
889.0
890.0
893.0
897.0
902.0
904.0
904.0
902.0
900.0
898.0
898.0
897.0
896.0
899.0
901.0
903.0
901.0
898.0
897.0
893.0
891.0
886.0
880.0
876.0
870.0
869.0
868.0
866.0
868.0
869.0
867.0
867.0
867.0
868.0
862.0
860.0
859.0
861.0
861.0
862.0
864.0
864.0
862.0
862.0
859.0
859.0
858.0
859.0
859.0
859.0
863.0
864.0
865.0
868.0
868.0
867.0
867.0
868.0
867.0
868.0
869.0
871.0
872.0
872.0
881.0
885.0
891.0
905.0
926.0
959.0
1005.0
1065.0
1139.0
1221.0
1294.0
1341.0
1350.0
1311.0
1218.0
1090.0
962.0
834.0
734.0
700.0
710.0
755.0
807.0
854.0
885.0
902.0
905.0
902.0
895.0
886.0
881.0
880.0
879.0
881.0
883.0
884.0
887.0
888.0
888.0
889.0
885.0
886.0
884.0
884.0
885.0
885.0
885.0
888.0
890.0
888.0
889.0
889.0
888.0
889.0
888.0
886.0
886.0
887.0
888.0
892.0
892.0
891.0
892.0
891.0
891.0
891.0
890.0
889.0
891.0
892.0
891.0
894.0
895.0
895.0
894.0
893.0
891.0
890.0
890.0
889.0
889.0
889.0
894.0
896.0
897.0
899.0
899.0
900.0
898.0
899.0
898.0
898.0
898.0
898.0
900.0
902.0
904.0
905.0
905.0
904.0
905.0
905.0
905.0
904.0
905.0
906.0
908.0
908.0
911.0
914.0
913.0
914.0
914.0
914.0
915.0
915.0
915.0
918.0
920.0
923.0
925.0
927.0
926.0
926.0
925.0
924.0
923.0
923.0
924.0
924.0
929.0
929.0
930.0
932.0
933.0
931.0
929.0
928.0
926.0
926.0
921.0
918.0
915.0
913.0
908.0
910.0
903.0
900.0
896.0
891.0
888.0
885.0
882.0
881.0
879.0
879.0
878.0
876.0
875.0
874.0
871.0
871.0
869.0
866.0
865.0
866.0
867.0
868.0
868.0
869.0
869.0
869.0
867.0
867.0
863.0
865.0
862.0
863.0
867.0
867.0
870.0
873.0
871.0
872.0
872.0
871.0
872.0
873.0
871.0
872.0
874.0
878.0
878.0
877.0
878.0
878.0
876.0
876.0
877.0
875.0
875.0
877.0
879.0
877.0
878.0
884.0
882.0
882.0
880.0
878.0
877.0
874.0
874.0
873.0
873.0
873.0
877.0
878.0
876.0
875.0
874.0
875.0
872.0
871.0
872.0
873.0
874.0
874.0
876.0
877.0
874.0
874.0
873.0
873.0
872.0
868.0
871.0
873.0
870.0
874.0
874.0
875.0
875.0
872.0
872.0
873.0
872.0
872.0
873.0
879.0
881.0
883.0
887.0
887.0
891.0
890.0
893.0
895.0
893.0
897.0
899.0
903.0
902.0
905.0
905.0
905.0
906.0
903.0
901.0
899.0
898.0
896.0
894.0
894.0
892.0
890.0
885.0
887.0
880.0
877.0
873.0
873.0
871.0
871.0
872.0
872.0
874.0
872.0
871.0
872.0
871.0
870.0
868.0
867.0
866.0
863.0
865.0
866.0
869.0
868.0
871.0
871.0
872.0
870.0
871.0
871.0
870.0
869.0
870.0
871.0
874.0
875.0
878.0
881.0
882.0
882.0
885.0
885.0
887.0
894.0
907.0
930.0
964.0
1016.0
1089.0
1172.0
1254.0
1326.0
1367.0
1362.0
1306.0
1196.0
1068.0
940.0
812.0
715.0
701.0
734.0
787.0
840.0
883.0
908.0
918.0
915.0
905.0
899.0
892.0
889.0
891.0
891.0
890.0
894.0
894.0
895.0
895.0
894.0
895.0
895.0
895.0
897.0
894.0
897.0
898.0
898.0
896.0
898.0
895.0
895.0
896.0
896.0
897.0
897.0
897.0
899.0
899.0
899.0
897.0
896.0
896.0
894.0
894.0
892.0
895.0
893.0
897.0
900.0
900.0
898.0
900.0
898.0
897.0
893.0
895.0
894.0
900.0
900.0
902.0
903.0
905.0
905.0
902.0
902.0
903.0
902.0
903.0
902.0
903.0
903.0
907.0
908.0
908.0
910.0
909.0
907.0
906.0
906.0
906.0
909.0
909.0
913.0
914.0
917.0
916.0
916.0
917.0
918.0
916.0
915.0
916.0
918.0
920.0
920.0
923.0
925.0
925.0
927.0
927.0
927.0
927.0
926.0
925.0
927.0
928.0
929.0
934.0
936.0
935.0
933.0
932.0
934.0
933.0
932.0
931.0
933.0
936.0
938.0
938.0
940.0
941.0
940.0
940.0
938.0
934.0
930.0
927.0
925.0
924.0
921.0
920.0
916.0
912.0
909.0
907.0
900.0
898.0
893.0
889.0
888.0
888.0
888.0
888.0
888.0
887.0
885.0
884.0
882.0
880.0
879.0
877.0
878.0
880.0
880.0
880.0
883.0
880.0
880.0
880.0
878.0
877.0
876.0
876.0
879.0
880.0
879.0
881.0
881.0
882.0
883.0
885.0
884.0
885.0
882.0
882.0
883.0
885.0
885.0
888.0
890.0
890.0
890.0
890.0
889.0
887.0
886.0
885.0
888.0
889.0
889.0
893.0
891.0
894.0
893.0
892.0
891.0
890.0
888.0
888.0
888.0
888.0
891.0
890.0
893.0
891.0
891.0
889.0
887.0
885.0
886.0
885.0
884.0
885.0
884.0
886.0
887.0
885.0
885.0
883.0
882.0
881.0
881.0
879.0
879.0
882.0
882.0
883.0
884.0
883.0
883.0
882.0
881.0
880.0
880.0
879.0
879.0
880.0
880.0
880.0
884.0
883.0
885.0
883.0
882.0
882.0
881.0
880.0
881.0
884.0
887.0
889.0
888.0
890.0
894.0
895.0
897.0
898.0
897.0
900.0
902.0
904.0
907.0
911.0
914.0
918.0
919.0
917.0
915.0
913.0
908.0
910.0
907.0
911.0
914.0
914.0
916.0
915.0
915.0
909.0
905.0
902.0
895.0
889.0
887.0
884.0
883.0
884.0
885.0
886.0
888.0
886.0
885.0
884.0
882.0
880.0
880.0
880.0
881.0
881.0
883.0
883.0
882.0
884.0
881.0
881.0
879.0
878.0
880.0
879.0
882.0
883.0
887.0
889.0
886.0
887.0
887.0
886.0
886.0
886.0
888.0
890.0
895.0
898.0
901.0
900.0
903.0
908.0
919.0
936.0
962.0
1002.0
1059.0
1130.0
1211.0
1286.0
1347.0
1374.0
1362.0
1297.0
1192.0
1064.0
936.0
808.0
740.0
720.0
744.0
791.0
841.0
882.0
907.0
919.0
920.0
916.0
915.0
909.0
904.0
904.0
904.0
906.0
908.0
907.0
907.0
910.0
910.0
911.0
907.0
908.0
905.0
910.0
910.0
909.0
914.0
913.0
912.0
911.0
909.0
908.0
907.0
907.0
909.0
911.0
912.0
913.0
915.0
915.0
916.0
913.0
915.0
915.0
914.0
913.0
912.0
911.0
913.0
916.0
919.0
919.0
920.0
918.0
916.0
915.0
913.0
913.0
914.0
913.0
917.0
917.0
918.0
919.0
921.0
917.0
918.0
916.0
917.0
916.0
916.0
918.0
919.0
918.0
923.0
925.0
924.0
925.0
925.0
924.0
924.0
923.0
923.0
924.0
929.0
930.0
932.0
931.0
933.0
934.0
932.0
933.0
930.0
930.0
931.0
935.0
934.0
938.0
940.0
942.0
944.0
943.0
942.0
939.0
939.0
942.0
942.0
946.0
949.0
950.0
950.0
950.0
951.0
949.0
949.0
949.0
946.0
946.0
948.0
950.0
951.0
953.0
956.0
956.0
953.0
951.0
947.0
943.0
942.0
938.0
934.0
929.0
930.0
927.0
927.0
921.0
921.0
917.0
914.0
910.0
906.0
901.0
898.0
894.0
894.0
893.0
894.0
895.0
896.0
895.0
893.0
888.0
890.0
887.0
889.0
888.0
888.0
892.0
891.0
890.0
890.0
890.0
890.0
891.0
888.0
888.0
889.0
890.0
890.0
893.0
896.0
896.0
898.0
897.0
896.0
893.0
895.0
893.0
892.0
894.0
897.0
897.0
901.0
899.0
900.0
901.0
899.0
900.0
897.0
897.0
898.0
897.0
897.0
899.0
900.0
900.0
899.0
899.0
897.0
895.0
895.0
894.0
893.0
893.0
894.0
892.0
896.0
897.0
897.0
896.0
894.0
892.0
892.0
888.0
889.0
890.0
892.0
891.0
893.0
894.0
894.0
892.0
892.0
890.0
889.0
885.0
886.0
885.0
886.0
892.0
894.0
897.0
896.0
898.0
896.0
898.0
897.0
897.0
902.0
905.0
907.0
912.0
917.0
918.0
921.0
922.0
920.0
920.0
918.0
916.0
915.0
915.0
917.0
918.0
921.0
922.0
923.0
920.0
915.0
909.0
906.0
903.0
901.0
896.0
895.0
890.0
891.0
892.0
890.0
887.0
886.0
887.0
886.0
887.0
887.0
887.0
888.0
887.0
887.0
888.0
886.0
884.0
884.0
884.0
884.0
883.0
884.0
884.0
885.0
886.0
886.0
886.0
886.0
888.0
884.0
886.0
886.0
886.0
888.0
890.0
892.0
894.0
898.0
898.0
900.0
902.0
901.0
904.0
912.0
931.0
962.0
1007.0
1069.0
1147.0
1229.0
1306.0
1358.0
1374.0
1342.0
1259.0
1134.0
1006.0
878.0
760.0
721.0
734.0
779.0
834.0
880.0
909.0
922.0
925.0
920.0
913.0
905.0
904.0
903.0
905.0
906.0
909.0
909.0
909.0
910.0
909.0
907.0
906.0
908.0
910.0
910.0
912.0
914.0
912.0
911.0
911.0
912.0
912.0
911.0
910.0
909.0
910.0
911.0
910.0
914.0
911.0
913.0
913.0
915.0
912.0
912.0
913.0
912.0
914.0
915.0
916.0
918.0
919.0
919.0
917.0
917.0
916.0
916.0
914.0
914.0
914.0
916.0
916.0
920.0
921.0
922.0
923.0
919.0
919.0
918.0
920.0
919.0
919.0
920.0
922.0
923.0
926.0
924.0
924.0
923.0
924.0
924.0
923.0
925.0
923.0
926.0
928.0
926.0
930.0
929.0
930.0
929.0
926.0
926.0
928.0
933.0
931.0
935.0
935.0
940.0
942.0
940.0
942.0
942.0
941.0
940.0
942.0
941.0
942.0
943.0
942.0
943.0
944.0
945.0
944.0
943.0
941.0
941.0
942.0
942.0
941.0
942.0
944.0
946.0
946.0
943.0
942.0
939.0
933.0
926.0
925.0
921.0
920.0
916.0
914.0
912.0
910.0
908.0
904.0
901.0
897.0
893.0
889.0
888.0
889.0
892.0
890.0
890.0
892.0
890.0
887.0
884.0
889.0
886.0
885.0
882.0
881.0
883.0
884.0
886.0
890.0
887.0
887.0
888.0
887.0
883.0
883.0
885.0
886.0
887.0
888.0
892.0
892.0
893.0
894.0
894.0
893.0
891.0
891.0
892.0
893.0
895.0
896.0
897.0
899.0
900.0
899.0
897.0
898.0
895.0
895.0
895.0
894.0
896.0
895.0
894.0
899.0
898.0
896.0
895.0
891.0
893.0
889.0
890.0
889.0
890.0
891.0
892.0
893.0
893.0
892.0
891.0
891.0
889.0
888.0
886.0
888.0
889.0
889.0
891.0
890.0
890.0
890.0
887.0
887.0
884.0
882.0
883.0
886.0
887.0
885.0
888.0
888.0
887.0
888.0
886.0
886.0
884.0
884.0
886.0
887.0
889.0
891.0
893.0
896.0
898.0
900.0
901.0
902.0
900.0
903.0
906.0
907.0
911.0
916.0
918.0
922.0
922.0
923.0
919.0
917.0
912.0
912.0
914.0
914.0
915.0
916.0
917.0
918.0
916.0
912.0
907.0
903.0
896.0
890.0
888.0
885.0
885.0
889.0
891.0
891.0
892.0
891.0
888.0
887.0
884.0
882.0
883.0
881.0
883.0
882.0
884.0
886.0
883.0
883.0
882.0
883.0
881.0
880.0
884.0
884.0
881.0
886.0
890.0
890.0
890.0
891.0
890.0
891.0
891.0
891.0
891.0
892.0
893.0
895.0
899.0
903.0
905.0
908.0
917.0
930.0
950.0
985.0
1030.0
1089.0
1162.0
1241.0
1315.0
1370.0
1397.0
1376.0
1314.0
1205.0
1077.0
949.0
821.0
742.0
725.0
754.0
802.0
856.0
894.0
924.0
936.0
935.0
925.0
915.0
905.0
901.0
904.0
904.0
908.0
911.0
912.0
912.0
913.0
911.0
910.0
909.0
910.0
909.0
911.0
914.0
916.0
913.0
913.0
916.0
914.0
914.0
912.0
912.0
913.0
913.0
914.0
914.0
918.0
918.0
919.0
918.0
919.0
916.0
914.0
915.0
913.0
916.0
917.0
917.0
920.0
920.0
919.0
916.0
916.0
919.0
915.0
915.0
914.0
916.0
918.0
920.0
919.0
922.0
922.0
925.0
919.0
917.0
918.0
918.0
921.0
921.0
919.0
919.0
925.0
929.0
928.0
929.0
929.0
928.0
928.0
927.0
927.0
928.0
929.0
931.0
934.0
936.0
938.0
937.0
940.0
940.0
940.0
939.0
940.0
942.0
946.0
944.0
947.0
950.0
949.0
951.0
954.0
953.0
952.0
953.0
953.0
953.0
955.0
956.0
960.0
960.0
959.0
961.0
958.0
960.0
958.0
959.0
958.0
958.0
958.0
956.0
957.0
954.0
950.0
947.0
943.0
935.0
933.0
927.0
921.0
922.0
919.0
919.0
917.0
916.0
912.0
911.0
907.0
906.0
902.0
900.0
898.0
899.0
898.0
897.0
896.0
895.0
898.0
898.0
895.0
895.0
890.0
889.0
891.0
889.0
890.0
892.0
892.0
894.0
893.0
896.0
893.0
895.0
894.0
891.0
895.0
895.0
897.0
897.0
900.0
904.0
903.0
903.0
902.0
902.0
903.0
902.0
901.0
901.0
903.0
906.0
905.0
906.0
906.0
908.0
907.0
905.0
904.0
903.0
904.0
903.0
905.0
907.0
909.0
907.0
907.0
905.0
903.0
900.0
902.0
901.0
901.0
900.0
901.0
900.0
903.0
905.0
902.0
902.0
900.0
901.0
898.0
897.0
895.0
895.0
898.0
899.0
901.0
902.0
901.0
897.0
896.0
894.0
894.0
894.0
894.0
890.0
894.0
892.0
892.0
896.0
899.0
897.0
896.0
896.0
895.0
893.0
894.0
895.0
895.0
897.0
896.0
898.0
899.0
895.0
898.0
898.0
895.0
896.0
894.0
895.0
896.0
896.0
898.0
898.0
897.0
896.0
895.0
896.0
896.0
895.0
896.0
896.0
898.0
899.0
900.0
901.0
900.0
899.0
899.0
897.0
895.0
893.0
894.0
896.0
892.0
896.0
899.0
901.0
900.0
901.0
899.0
896.0
899.0
896.0
896.0
897.0
893.0
899.0
899.0
899.0
900.0
899.0
898.0
898.0
897.0
897.0
896.0
895.0
896.0
898.0
896.0
897.0
897.0
899.0
898.0
897.0
897.0
899.0
897.0
897.0
899.0
899.0
900.0
900.0
899.0
901.0
902.0
901.0
901.0
899.0
897.0
898.0
897.0
899.0
900.0
900.0
901.0
901.0
902.0
901.0
896.0
900.0
895.0
898.0
900.0
902.0
903.0
904.0
904.0
906.0
904.0
904.0
903.0
902.0
905.0
909.0
909.0
912.0
918.0
918.0
922.0
925.0
925.0
925.0
926.0
927.0
929.0
930.0
932.0
933.0
931.0
930.0
931.0
933.0
931.0
929.0
929.0
925.0
923.0
920.0
918.0
919.0
916.0
918.0
911.0
909.0
907.0
904.0
902.0
900.0
900.0
899.0
901.0
902.0
905.0
907.0
907.0
905.0
903.0
902.0
900.0
899.0
899.0
900.0
899.0
901.0
900.0
905.0
905.0
904.0
905.0
906.0
903.0
906.0
906.0
908.0
909.0
911.0
910.0
915.0
916.0
923.0
931.0
943.0
964.0
996.0
1043.0
1106.0
1180.0
1256.0
1329.0
1374.0
1382.0
1344.0
1255.0
1129.0
1001.0
873.0
774.0
740.0
752.0
794.0
847.0
892.0
924.0
945.0
948.0
943.0
933.0
924.0
919.0
915.0
916.0
916.0
922.0
927.0
927.0
927.0
927.0
924.0
923.0
922.0
921.0
921.0
922.0
923.0
925.0
928.0
930.0
930.0
928.0
927.0
926.0
922.0
922.0
922.0
923.0
927.0
929.0
932.0
931.0
930.0
930.0
928.0
929.0
927.0
924.0
925.0
925.0
926.0
929.0
930.0
931.0
931.0
931.0
931.0
928.0
928.0
925.0
925.0
927.0
926.0
928.0
929.0
932.0
931.0
932.0
930.0
930.0
930.0
930.0
928.0
931.0
931.0
933.0
935.0
936.0
936.0
937.0
937.0
936.0
933.0
933.0
932.0
934.0
936.0
939.0
942.0
943.0
943.0
945.0
943.0
942.0
940.0
941.0
943.0
944.0
945.0
946.0
949.0
949.0
950.0
950.0
945.0
945.0
945.0
944.0
944.0
945.0
946.0
947.0
947.0
948.0
948.0
947.0
947.0
947.0
946.0
945.0
946.0
946.0
948.0
952.0
951.0
953.0
952.0
950.0
947.0
944.0
943.0
940.0
940.0
938.0
938.0
937.0
938.0
935.0
932.0
930.0
925.0
924.0
921.0
918.0
917.0
913.0
915.0
914.0
914.0
914.0
911.0
910.0
910.0
909.0
907.0
906.0
905.0
906.0
906.0
907.0
