# Simple Text Format
# Sampling Rate (Hz):= 360.00
# Resolution:= 12
# Labels:= ECG
901.0
903.0
905.0
905.0
906.0
907.0
907.0
905.0
904.0
902.0
900.0
899.0
898.0
898.0
900.0
901.0
897.0
900.0
899.0
901.0
897.0
895.0
893.0
891.0
889.0
890.0
891.0
892.0
892.0
892.0
895.0
896.0
892.0
892.0
891.0
890.0
887.0
890.0
889.0
891.0
892.0
895.0
897.0
898.0
901.0
900.0
901.0
901.0
900.0
902.0
907.0
909.0
912.0
916.0
918.0
921.0
924.0
919.0
918.0
915.0
913.0
910.0
912.0
913.0
915.0
919.0
921.0
919.0
916.0
915.0
907.0
904.0
899.0
895.0
891.0
888.0
886.0
885.0
884.0
883.0
884.0
879.0
879.0
877.0
878.0
878.0
879.0
880.0
879.0
881.0
879.0
879.0
877.0
876.0
875.0
873.0
873.0
875.0
874.0
878.0
877.0
879.0
878.0
878.0
878.0
878.0
877.0
877.0
879.0
880.0
883.0
885.0
891.0
891.0
894.0
896.0
904.0
918.0
945.0
984.0
1041.0
1114.0
1199.0
1279.0
1344.0
1370.0
1343.0
1261.0
1133.0
1005.0
877.0
749.0
704.0
726.0
780.0
837.0
882.0
910.0
923.0
920.0
911.0
905.0
897.0
890.0
886.0
888.0
891.0
895.0
897.0
897.0
897.0
898.0
898.0
897.0
895.0
894.0
894.0
893.0
896.0
899.0
899.0
899.0
901.0
901.0
898.0
895.0
897.0
895.0
896.0
898.0
896.0
899.0
902.0
901.0
904.0
904.0
902.0
901.0
899.0
898.0
898.0
899.0
898.0
899.0
901.0
900.0
903.0
903.0
903.0
899.0
901.0
900.0
902.0
901.0
900.0
905.0
907.0
906.0
908.0
907.0
908.0
907.0
905.0
907.0
905.0
907.0
906.0
907.0
911.0
911.0
911.0
914.0
913.0
911.0
912.0
913.0
911.0
912.0
913.0
915.0
916.0
919.0
919.0
920.0
921.0
919.0
919.0
918.0
918.0
922.0
924.0
925.0
926.0
928.0
927.0
929.0
929.0
925.0
927.0
925.0
925.0
926.0
925.0
926.0
926.0
926.0
928.0
928.0
927.0
925.0
923.0
919.0
916.0
912.0
909.0
906.0
904.0
902.0
898.0
895.0
890.0
885.0
880.0
876.0
873.0
870.0
871.0
873.0
870.0
871.0
872.0
870.0
867.0
866.0
864.0
864.0
864.0
862.0
864.0
864.0
865.0
864.0
866.0
867.0
868.0
866.0
864.0
865.0
864.0
863.0
864.0
867.0
867.0
871.0
871.0
871.0
873.0
872.0
870.0
870.0
871.0
869.0
873.0
872.0
874.0
878.0
878.0
879.0
880.0
879.0
878.0
875.0
876.0
874.0
875.0
876.0
876.0
877.0
878.0
878.0
876.0
874.0
873.0
871.0
869.0
868.0
870.0
871.0
872.0
872.0
873.0
873.0
871.0
870.0
867.0
865.0
863.0
865.0
866.0
867.0
865.0
866.0
869.0
867.0
867.0
868.0
866.0
864.0
863.0
863.0
866.0
868.0
870.0
874.0
874.0
876.0
878.0
878.0
879.0
878.0
879.0
879.0
884.0
888.0
891.0
896.0
899.0
900.0
900.0
896.0
893.0
892.0
890.0
891.0
889.0
892.0
893.0
892.0
893.0
891.0
887.0
884.0
877.0
872.0
868.0
864.0
862.0
863.0
861.0
861.0
863.0
864.0
864.0
864.0
863.0
859.0
861.0
857.0
856.0
858.0
856.0
857.0
859.0
859.0
859.0
858.0
855.0
854.0
855.0
856.0
856.0
856.0
856.0
859.0
863.0
862.0
862.0
863.0
865.0
866.0
866.0
866.0
867.0
870.0
873.0
878.0
884.0
890.0
905.0
926.0
960.0
1004.0
1066.0
1142.0
1223.0
1298.0
1344.0
1352.0
1303.0
1200.0
1072.0
944.0
816.0
698.0
689.0
724.0
780.0
837.0
880.0
904.0
911.0
907.0
897.0
887.0
874.0
870.0
869.0
873.0
875.0
878.0
883.0
884.0
884.0
883.0
883.0
884.0
882.0
880.0
879.0
882.0
882.0
882.0
883.0
884.0
884.0
883.0
885.0
885.0
883.0
882.0
880.0
882.0
881.0
882.0
885.0
886.0
884.0
887.0
886.0
886.0
886.0
886.0
884.0
882.0
880.0
883.0
884.0
886.0
890.0
891.0
889.0
888.0
888.0
887.0
887.0
885.0
887.0
889.0
889.0
891.0
893.0
894.0
894.0
889.0
889.0
891.0
889.0
893.0
892.0
895.0
896.0
897.0
900.0
900.0
900.0
901.0
898.0
900.0
899.0
900.0
902.0
902.0
903.0
908.0
910.0
908.0
910.0
910.0
907.0
906.0
910.0
910.0
913.0
914.0
914.0
918.0
919.0
918.0
918.0
919.0
920.0
912.0
915.0
915.0
916.0
918.0
918.0
921.0
923.0
923.0
922.0
921.0
918.0
914.0
913.0
910.0
912.0
910.0
906.0
905.0
901.0
900.0
897.0
893.0
886.0
882.0
877.0
872.0
872.0
870.0
868.0
868.0
866.0
868.0
864.0
863.0
860.0
856.0
852.0
853.0
853.0
853.0
856.0
857.0
860.0
858.0
858.0
857.0
853.0
854.0
852.0
852.0
851.0
853.0
856.0
855.0
857.0
859.0
860.0
859.0
859.0
857.0
858.0
859.0
858.0
860.0
862.0
863.0
864.0
866.0
864.0
866.0
865.0
863.0
863.0
861.0
863.0
866.0
866.0
865.0
868.0
867.0
867.0
865.0
863.0
863.0
860.0
859.0
859.0
863.0
865.0
865.0
867.0
864.0
864.0
863.0
861.0
860.0
859.0
860.0
859.0
859.0
860.0
860.0
861.0
860.0
859.0
857.0
855.0
853.0
851.0
852.0
852.0
855.0
856.0
858.0
856.0
858.0
858.0
858.0
857.0
856.0
855.0
855.0
853.0
854.0
854.0
856.0
858.0
858.0
861.0
860.0
859.0
860.0
862.0
863.0
863.0
866.0
870.0
874.0
876.0
880.0
879.0
880.0
885.0
887.0
887.0
887.0
888.0
886.0
883.0
887.0
889.0
889.0
892.0
888.0
888.0
885.0
881.0
879.0
875.0
877.0
874.0
873.0
868.0
864.0
863.0
858.0
855.0
852.0
852.0
852.0
854.0
852.0
855.0
855.0
854.0
855.0
853.0
850.0
850.0
847.0
847.0
846.0
847.0
845.0
845.0
848.0
853.0
854.0
854.0
853.0
850.0
850.0
852.0
851.0
854.0
855.0
858.0
859.0
861.0
864.0
865.0
865.0
865.0
867.0
871.0
883.0
899.0
927.0
967.0
1020.0
1090.0
1166.0
1244.0
1306.0
1334.0
1313.0
1238.0
1112.0
984.0
856.0
728.0
687.0
706.0
756.0
811.0
859.0
891.0
901.0
901.0
893.0
886.0
879.0
877.0
874.0
876.0
880.0
881.0
883.0
882.0
883.0
879.0
879.0
878.0
881.0
881.0
886.0
886.0
886.0
887.0
886.0
887.0
885.0
885.0
884.0
886.0
886.0
888.0
888.0
891.0
889.0
889.0
888.0
886.0
885.0
884.0
887.0
887.0
889.0
890.0
891.0
893.0
892.0
895.0
894.0
894.0
893.0
893.0
894.0
893.0
893.0
896.0
896.0
895.0
896.0
899.0
899.0
899.0
896.0
894.0
895.0
898.0
899.0
901.0
905.0
906.0
906.0
903.0
906.0
907.0
907.0
905.0
906.0
904.0
907.0
910.0
912.0
912.0
915.0
914.0
915.0
913.0
913.0
914.0
914.0
915.0
920.0
922.0
925.0
927.0
926.0
927.0
927.0
928.0
929.0
928.0
927.0
927.0
930.0
931.0
930.0
932.0
931.0
932.0
931.0
931.0
933.0
934.0
935.0
933.0
936.0
936.0
936.0
936.0
935.0
935.0
931.0
927.0
925.0
920.0
918.0
913.0
912.0
909.0
907.0
907.0
905.0
902.0
899.0
896.0
892.0
889.0
884.0
883.0
887.0
885.0
887.0
887.0
888.0
886.0
884.0
883.0
880.0
881.0
882.0
882.0
882.0
883.0
885.0
887.0
886.0
885.0
886.0
885.0
885.0
886.0
885.0
885.0
885.0
885.0
888.0
889.0
893.0
892.0
893.0
892.0
893.0
891.0
892.0
891.0
893.0
894.0
897.0
899.0
897.0
898.0
897.0
900.0
898.0
896.0
895.0
896.0
897.0
899.0
898.0
898.0
899.0
897.0
897.0
894.0
893.0
894.0
891.0
891.0
892.0
893.0
894.0
896.0
896.0
895.0
892.0
894.0
891.0
888.0
888.0
889.0
889.0
892.0
893.0
898.0
898.0
899.0
900.0
900.0
899.0
901.0
899.0
902.0
903.0
908.0
912.0
914.0
917.0
918.0
924.0
925.0
925.0
925.0
924.0
920.0
920.0
922.0
923.0
925.0
926.0
925.0
927.0
924.0
923.0
917.0
914.0
912.0
910.0
904.0
903.0
899.0
898.0
894.0
893.0
889.0
890.0
886.0
887.0
887.0
886.0
886.0
889.0
889.0
886.0
887.0
887.0
887.0
886.0
884.0
884.0
884.0
884.0
885.0
884.0
888.0
887.0
887.0
888.0
887.0
884.0
885.0
886.0
888.0
889.0
892.0
895.0
897.0
899.0
900.0
899.0
899.0
903.0
911.0
923.0
942.0
971.0
1013.0
1069.0
1138.0
1213.0
1285.0
1339.0
1364.0
1342.0
1270.0
1153.0
1025.0
897.0
775.0
728.0
733.0
776.0
832.0
880.0
914.0
933.0
935.0
928.0
920.0
916.0
911.0
909.0
911.0
914.0
916.0
916.0
916.0
915.0
914.0
913.0
914.0
916.0
915.0
918.0
918.0
920.0
918.0
918.0
919.0
918.0
916.0
917.0
918.0
919.0
921.0
923.0
923.0
924.0
925.0
924.0
922.0
922.0
922.0
920.0
922.0
922.0
923.0
923.0
924.0
924.0
923.0
924.0
923.0
923.0
921.0
921.0
919.0
921.0
923.0
923.0
925.0
925.0
927.0
925.0
925.0
926.0
925.0
923.0
925.0
926.0
927.0
928.0
928.0
929.0
930.0
932.0
931.0
929.0
930.0
932.0
933.0
935.0
935.0
936.0
939.0
942.0
942.0
942.0
942.0
941.0
939.0
941.0
941.0
941.0
943.0
945.0
948.0
948.0
950.0
949.0
948.0
946.0
944.0
946.0
942.0
947.0
949.0
950.0
952.0
952.0
951.0
950.0
946.0
949.0
947.0
946.0
945.0
947.0
949.0
949.0
947.0
950.0
948.0
944.0
942.0
939.0
931.0
927.0
927.0
920.0
921.0
919.0
918.0
917.0
913.0
908.0
905.0
900.0
895.0
893.0
893.0
892.0
893.0
894.0
893.0
892.0
891.0
890.0
888.0
886.0
884.0
883.0
883.0
882.0
882.0
883.0
883.0
888.0
886.0
885.0
884.0
884.0
885.0
883.0
884.0
884.0
887.0
890.0
889.0
890.0
891.0
891.0
890.0
890.0
887.0
888.0
887.0
889.0
889.0
891.0
894.0
893.0
892.0
890.0
892.0
892.0
890.0
890.0
891.0
891.0
891.0
890.0
890.0
895.0
891.0
889.0
889.0
886.0
886.0
884.0
885.0
886.0
884.0
884.0
885.0
885.0
888.0
885.0
883.0
880.0
881.0
880.0
881.0
880.0
882.0
882.0
884.0
885.0
885.0
887.0
884.0
885.0
883.0
886.0
886.0
887.0
890.0
893.0
895.0
898.0
899.0
902.0
903.0
905.0
908.0
907.0
907.0
906.0
908.0
907.0
909.0
908.0
908.0
908.0
906.0
905.0
902.0
901.0
898.0
894.0
893.0
889.0
884.0
883.0
881.0
878.0
875.0
873.0
869.0
869.0
870.0
871.0
871.0
871.0
869.0
871.0
869.0
869.0
868.0
867.0
865.0
865.0
865.0
865.0
865.0
867.0
869.0
869.0
871.0
871.0
867.0
865.0
866.0
865.0
865.0
867.0
869.0
872.0
873.0
876.0
875.0
878.0
878.0
880.0
880.0
880.0
884.0
887.0
899.0
917.0
946.0
986.0
1041.0
1111.0
1192.0
1271.0
1332.0
1357.0
1332.0
1250.0
1122.0
994.0
866.0
738.0
698.0
713.0
760.0
815.0
861.0
895.0
912.0
916.0
911.0
903.0
895.0
892.0
888.0
886.0
888.0
890.0
889.0
889.0
890.0
890.0
889.0
890.0
892.0
892.0
895.0
893.0
892.0
891.0
890.0
890.0
890.0
891.0
891.0
894.0
893.0
891.0
895.0
894.0
893.0
889.0
891.0
889.0
891.0
891.0
893.0
894.0
895.0
896.0
893.0
894.0
892.0
891.0
891.0
892.0
893.0
895.0
894.0
891.0
894.0
896.0
897.0
897.0
897.0
896.0
895.0
895.0
895.0
896.0
899.0
899.0
901.0
902.0
902.0
901.0
900.0
900.0
901.0
901.0
898.0
902.0
904.0
906.0
907.0
909.0
911.0
910.0
910.0
910.0
913.0
913.0
914.0
916.0
917.0
919.0
922.0
921.0
922.0
926.0
925.0
924.0
923.0
922.0
924.0
929.0
928.0
930.0
930.0
933.0
933.0
931.0
931.0
934.0
930.0
931.0
932.0
933.0
935.0
935.0
934.0
935.0
932.0
930.0
927.0
924.0
919.0
914.0
911.0
908.0
906.0
903.0
897.0
896.0
891.0
887.0
883.0
879.0
874.0
869.0
866.0
868.0
867.0
866.0
865.0
863.0
862.0
860.0
859.0
856.0
857.0
854.0
853.0
857.0
856.0
857.0
856.0
859.0
858.0
858.0
857.0
857.0
858.0
856.0
856.0
858.0
860.0
859.0
866.0
866.0
867.0
867.0
864.0
867.0
865.0
865.0
867.0
866.0
865.0
870.0
872.0
873.0
872.0
873.0
872.0
870.0
869.0
868.0
867.0
866.0
869.0
866.0
870.0
869.0
869.0
871.0
870.0
866.0
866.0
863.0
865.0
863.0
865.0
866.0
866.0
865.0
866.0
866.0
864.0
863.0
860.0
859.0
859.0
859.0
859.0
861.0
860.0
861.0
862.0
860.0
858.0
858.0
858.0
854.0
856.0
856.0
856.0
858.0
862.0
861.0
861.0
862.0
861.0
855.0
857.0
855.0
854.0
855.0
856.0
860.0
861.0
866.0
866.0
865.0
869.0
870.0
870.0
870.0
871.0
875.0
877.0
880.0
885.0
888.0
892.0
896.0
891.0
889.0
888.0
887.0
885.0
884.0
887.0
888.0
890.0
891.0
893.0
889.0
888.0
885.0
882.0
879.0
875.0
873.0
869.0
864.0
862.0
862.0
860.0
859.0
857.0
857.0
859.0
858.0
857.0
855.0
857.0
856.0
857.0
859.0
859.0
857.0
856.0
855.0
855.0
852.0
851.0
855.0
857.0
859.0
861.0
861.0
859.0
864.0
865.0
861.0
860.0
862.0
865.0
865.0
872.0
872.0
874.0
875.0
877.0
882.0
892.0
909.0
932.0
967.0
1019.0
1086.0
1162.0
1243.0
1309.0
1346.0
1339.0
1280.0
1176.0
1048.0
920.0
792.0
705.0
687.0
717.0
767.0
821.0
865.0
894.0
905.0
905.0
900.0
895.0
884.0
879.0
880.0
882.0
881.0
885.0
886.0
888.0
889.0
888.0
887.0
885.0
885.0
885.0
888.0
888.0
891.0
891.0
890.0
892.0
892.0
890.0
892.0
889.0
889.0
885.0
888.0
888.0
892.0
892.0
892.0
889.0
892.0
892.0
891.0
894.0
893.0
894.0
893.0
893.0
892.0
895.0
897.0
895.0
897.0
896.0
893.0
894.0
893.0
894.0
894.0
896.0
898.0
899.0
901.0
901.0
901.0
901.0
898.0
898.0
898.0
899.0
899.0
901.0
903.0
905.0
907.0
908.0
907.0
902.0
904.0
903.0
903.0
903.0
904.0
906.0
909.0
911.0
913.0
914.0
915.0
915.0
915.0
916.0
915.0
916.0
914.0
918.0
920.0
922.0
923.0
923.0
924.0
925.0
921.0
923.0
922.0
923.0
926.0
924.0
927.0
927.0
931.0
933.0
933.0
931.0
932.0
929.0
930.0
927.0
929.0
927.0
926.0
925.0
923.0
917.0
916.0
912.0
911.0
909.0
903.0
900.0
897.0
895.0
893.0
892.0
892.0
890.0
888.0
883.0
881.0
878.0
877.0
875.0
876.0
876.0
876.0
876.0
879.0
880.0
879.0
878.0
873.0
874.0
874.0
872.0
874.0
875.0
876.0
877.0
880.0
877.0
877.0
875.0
878.0
878.0
878.0
879.0
880.0
880.0
882.0
885.0
884.0
886.0
885.0
884.0
883.0
882.0
882.0
882.0
883.0
884.0
887.0
887.0
887.0
889.0
886.0
886.0
884.0
881.0
880.0
878.0
877.0
880.0
882.0
882.0
884.0
884.0
881.0
881.0
879.0
879.0
878.0
879.0
878.0
879.0
882.0
883.0
882.0
880.0
880.0
879.0
876.0
872.0
876.0
874.0
874.0
875.0
876.0
876.0
878.0
874.0
876.0
877.0
875.0
875.0
875.0
873.0
874.0
874.0
874.0
876.0
878.0
877.0
877.0
877.0
876.0
874.0
869.0
871.0
872.0
873.0
874.0
876.0
880.0
878.0
881.0
882.0
882.0
884.0
884.0
887.0
889.0
892.0
894.0
896.0
902.0
903.0
904.0
908.0
908.0
905.0
904.0
902.0
901.0
900.0
899.0
900.0
903.0
904.0
904.0
903.0
901.0
900.0
894.0
892.0
889.0
887.0
879.0
879.0
878.0
878.0
873.0
873.0
873.0
871.0
869.0
868.0
865.0
866.0
869.0
870.0
872.0
871.0
869.0
869.0
867.0
865.0
865.0
865.0
866.0
867.0
868.0
868.0
870.0
872.0
868.0
867.0
867.0
866.0
866.0
868.0
870.0
872.0
874.0
877.0
882.0
883.0
882.0
883.0
887.0
893.0
908.0
935.0
973.0
1027.0
1097.0
1173.0
1249.0
1309.0
1343.0
1329.0
1264.0
1150.0
1022.0
894.0
766.0
708.0
716.0
756.0
807.0
857.0
888.0
907.0
910.0
905.0
898.0
892.0
887.0
886.0
887.0
891.0
895.0
895.0
895.0
894.0
891.0
890.0
890.0
887.0
887.0
891.0
893.0
893.0
895.0
896.0
894.0
893.0
892.0
894.0
893.0
892.0
891.0
893.0
893.0
896.0
898.0
897.0
897.0
898.0
896.0
894.0
892.0
891.0
889.0
890.0
892.0
894.0
895.0
897.0
896.0
896.0
896.0
893.0
894.0
891.0
892.0
892.0
894.0
896.0
897.0
899.0
898.0
894.0
894.0
894.0
895.0
895.0
896.0
898.0
899.0
901.0
902.0
903.0
902.0
903.0
901.0
901.0
901.0
898.0
900.0
901.0
906.0
907.0
909.0
910.0
911.0
910.0
908.0
908.0
909.0
907.0
908.0
909.0
911.0
910.0
912.0
915.0
913.0
911.0
913.0
915.0
912.0
915.0
913.0
912.0
915.0
913.0
914.0
915.0
914.0
913.0
912.0
912.0
914.0
914.0
914.0
915.0
915.0
917.0
920.0
920.0
919.0
918.0
915.0
913.0
907.0
903.0
901.0
897.0
898.0
898.0
894.0
892.0
890.0
881.0
883.0
879.0
874.0
873.0
872.0
869.0
869.0
870.0
869.0
870.0
869.0
869.0
867.0
865.0
863.0
862.0
858.0
860.0
863.0
862.0
865.0
867.0
868.0
868.0
866.0
864.0
863.0
863.0
863.0
864.0
863.0
867.0
872.0
872.0
870.0
869.0
869.0
867.0
868.0
867.0
869.0
869.0
868.0
871.0
873.0
875.0
871.0
872.0
870.0
868.0
870.0
870.0
869.0
869.0
871.0
874.0
872.0
873.0
872.0
869.0
866.0
866.0
866.0
866.0
864.0
864.0
865.0
866.0
867.0
870.0
867.0
866.0
865.0
862.0
860.0
858.0
859.0
858.0
863.0
861.0
863.0
863.0
860.0
863.0
861.0
860.0
860.0
858.0
860.0
859.0
861.0
860.0
862.0
865.0
861.0
863.0
864.0
864.0
864.0
864.0
865.0
869.0
870.0
874.0
878.0
879.0
880.0
882.0
883.0
883.0
886.0
888.0
891.0
889.0
889.0
889.0
889.0
889.0
888.0
889.0
888.0
887.0
886.0
885.0
885.0
882.0
878.0
878.0
874.0
872.0
867.0
861.0
856.0
856.0
855.0
854.0
853.0
854.0
857.0
856.0
856.0
855.0
854.0
851.0
847.0
849.0
845.0
846.0
845.0
846.0
850.0
848.0
851.0
853.0
854.0
851.0
851.0
850.0
849.0
849.0
849.0
849.0
853.0
854.0
855.0
857.0
858.0
860.0
858.0
858.0
859.0
862.0
861.0
864.0
871.0
882.0
900.0
925.0
965.0
1021.0
1087.0
1164.0
1238.0
1302.0
1343.0
1343.0
1295.0
1200.0
1072.0
944.0
816.0
721.0
692.0
713.0
759.0
811.0
852.0
881.0
895.0
894.0
889.0
882.0
875.0
869.0
868.0
866.0
866.0
867.0
871.0
871.0
871.0
871.0
871.0
874.0
873.0
873.0
870.0
871.0
870.0
868.0
869.0
871.0
873.0
873.0
874.0
876.0
875.0
875.0
873.0
873.0
870.0
870.0
871.0
871.0
873.0
876.0
877.0
877.0
876.0
874.0
875.0
875.0
872.0
875.0
874.0
876.0
876.0
876.0
877.0
877.0
879.0
877.0
878.0
874.0
876.0
877.0
877.0
877.0
879.0
878.0
880.0
882.0
881.0
883.0
880.0
881.0
878.0
879.0
879.0
881.0
883.0
884.0
886.0
888.0
888.0
888.0
888.0
886.0
886.0
885.0
887.0
888.0
889.0
889.0
892.0
894.0
895.0
894.0
894.0
896.0
893.0
895.0
895.0
894.0
898.0
900.0
902.0
903.0
903.0
903.0
903.0
903.0
899.0
898.0
899.0
897.0
898.0
899.0
900.0
902.0
901.0
902.0
896.0
897.0
893.0
890.0
888.0
886.0
882.0
880.0
878.0
876.0
873.0
869.0
861.0
858.0
851.0
850.0
851.0
847.0
848.0
851.0
849.0
849.0
847.0
847.0
845.0
842.0
843.0
841.0
840.0
841.0
841.0
844.0
845.0
845.0
845.0
844.0
843.0
842.0
841.0
843.0
843.0
845.0
848.0
847.0
848.0
849.0
849.0
850.0
849.0
850.0
850.0
850.0
853.0
849.0
852.0
857.0
856.0
858.0
858.0
859.0
859.0
857.0
854.0
855.0
851.0
851.0
855.0
855.0
855.0
856.0
854.0
854.0
853.0
853.0
849.0
848.0
850.0
850.0
852.0
853.0
854.0
852.0
851.0
849.0
848.0
848.0
847.0
845.0
845.0
845.0
844.0
848.0
849.0
849.0
849.0
849.0
848.0
847.0
844.0
843.0
845.0
844.0
846.0
847.0
847.0
849.0
849.0
851.0
850.0
850.0
846.0
845.0
845.0
846.0
847.0
848.0
849.0
852.0
851.0
850.0
851.0
850.0
847.0
847.0
845.0
846.0
849.0
850.0
851.0
854.0
852.0
853.0
849.0
850.0
850.0
851.0
852.0
854.0
855.0
860.0
865.0
867.0
868.0
871.0
871.0
870.0
872.0
873.0
874.0
877.0
880.0
882.0
885.0
883.0
882.0
881.0
880.0
878.0
874.0
876.0
877.0
878.0
879.0
879.0
879.0
878.0
876.0
870.0
864.0
857.0
853.0
851.0
851.0
851.0
852.0
853.0
856.0
856.0
855.0
856.0
851.0
852.0
850.0
849.0
849.0
850.0
850.0
850.0
850.0
853.0
853.0
851.0
847.0
848.0
848.0
844.0
848.0
848.0
850.0
853.0
853.0
857.0
857.0
862.0
857.0
861.0
861.0
860.0
865.0
865.0
870.0
883.0
906.0
938.0
987.0
1050.0
1126.0
1208.0
1284.0
1337.0
1357.0
1326.0
1246.0
1122.0
994.0
866.0
740.0
693.0
699.0
740.0
792.0
844.0
878.0
898.0
901.0
899.0
888.0
880.0
874.0
871.0
869.0
870.0
873.0
874.0
874.0
875.0
873.0
876.0
877.0
879.0
877.0
879.0
879.0
878.0
875.0
876.0
877.0
877.0
875.0
879.0
881.0
881.0
882.0
881.0
879.0
877.0
875.0
876.0
877.0
879.0
880.0
881.0
881.0
883.0
884.0
885.0
882.0
880.0
878.0
878.0
878.0
879.0
880.0
881.0
885.0
886.0
886.0
886.0
885.0
886.0
883.0
884.0
886.0
884.0
887.0
887.0
889.0
892.0
888.0
890.0
889.0
886.0
888.0
887.0
889.0
890.0
892.0
894.0
897.0
899.0
897.0
900.0
900.0
900.0
900.0
900.0
901.0
903.0
904.0
904.0
906.0
907.0
910.0
911.0
909.0
910.0
909.0
908.0
910.0
914.0
912.0
916.0
917.0
918.0
919.0
919.0
917.0
918.0
915.0
915.0
916.0
915.0
917.0
917.0
923.0
921.0
919.0
918.0
915.0
907.0
903.0
900.0
899.0
895.0
891.0
890.0
888.0
885.0
881.0
880.0
877.0
873.0
872.0
868.0
868.0
869.0
869.0
868.0
871.0
869.0
869.0
868.0
865.0
864.0
864.0
863.0
863.0
862.0
864.0
863.0
865.0
866.0
867.0
866.0
865.0
864.0
864.0
864.0
864.0
864.0
867.0
868.0
869.0
871.0
870.0
871.0
870.0
871.0
869.0
868.0
868.0
871.0
872.0
874.0
874.0
878.0
877.0
876.0
876.0
874.0
874.0
873.0
872.0
872.0
875.0
875.0
876.0
878.0
878.0
878.0
876.0
874.0
873.0
871.0
871.0
870.0
872.0
871.0
873.0
873.0
870.0
870.0
870.0
869.0
867.0
866.0
865.0
864.0
868.0
870.0
868.0
871.0
870.0
870.0
870.0
869.0
866.0
864.0
866.0
866.0
869.0
868.0
868.0
868.0
868.0
864.0
863.0
865.0
864.0
865.0
864.0
867.0
866.0
868.0
868.0
871.0
871.0
871.0
869.0
867.0
868.0
865.0
866.0
867.0
866.0
866.0
867.0
869.0
870.0
868.0
869.0
871.0
870.0
867.0
865.0
865.0
868.0
870.0
873.0
874.0
873.0
871.0
874.0
875.0
871.0
874.0
873.0
874.0
875.0
883.0
886.0
893.0
894.0
891.0
892.0
896.0
895.0
896.0
896.0
898.0
899.0
902.0
899.0
900.0
897.0
897.0
897.0
897.0
898.0
895.0
897.0
896.0
895.0
893.0
890.0
887.0
885.0
881.0
877.0
874.0
874.0
871.0
871.0
869.0
870.0
869.0
873.0
876.0
875.0
875.0
872.0
871.0
870.0
868.0
869.0
869.0
871.0
871.0
870.0
875.0
877.0
874.0
876.0
875.0
875.0
871.0
874.0
874.0
877.0
883.0
883.0
886.0
889.0
889.0
893.0
897.0
906.0
924.0
958.0
1011.0
1082.0
1169.0
1257.0
1329.0
1358.0
1333.0
1246.0
1118.0
990.0
862.0
734.0
702.0
725.0
776.0
836.0
881.0
912.0
921.0
920.0
913.0
903.0
896.0
890.0
890.0
890.0
895.0
898.0
899.0
900.0
902.0
903.0
901.0
900.0
897.0
898.0
895.0
896.0
901.0
902.0
904.0
903.0
900.0
900.0
899.0
899.0
897.0
897.0
898.0
901.0
899.0
902.0
904.0
905.0
902.0
904.0
903.0
903.0
902.0
901.0
900.0
903.0
905.0
906.0
906.0
905.0
908.0
907.0
907.0
904.0
902.0
903.0
903.0
904.0
908.0
909.0
911.0
911.0
912.0
909.0
908.0
908.0
908.0
908.0
908.0
912.0
911.0
912.0
912.0
913.0
916.0
914.0
910.0
910.0
913.0
911.0
913.0
917.0
919.0
918.0
922.0
923.0
924.0
924.0
922.0
920.0
921.0
921.0
920.0
923.0
925.0
926.0
928.0
930.0
930.0
930.0
929.0
930.0
929.0
927.0
928.0
930.0
930.0
931.0
930.0
933.0
930.0
930.0
931.0
931.0
934.0
932.0
932.0
936.0
936.0
934.0
935.0
936.0
934.0
933.0
929.0
923.0
922.0
922.0
919.0
917.0
914.0
912.0
910.0
908.0
904.0
900.0
897.0
892.0
890.0
889.0
886.0
886.0
886.0
887.0
889.0
888.0
888.0
887.0
887.0
883.0
880.0
881.0
881.0
882.0
883.0
885.0
884.0
887.0
885.0
885.0
885.0
885.0
885.0
885.0
888.0
890.0
890.0
891.0
894.0
893.0
892.0
890.0
888.0
889.0
888.0
888.0
889.0
890.0
892.0
893.0
896.0
894.0
895.0
895.0
895.0
896.0
892.0
893.0
891.0
893.0
893.0
895.0
897.0
896.0
897.0
897.0
895.0
890.0
888.0
889.0
892.0
889.0
894.0
894.0
893.0
891.0
892.0
889.0
889.0
890.0
887.0
885.0
885.0
886.0
888.0
890.0
890.0
892.0
892.0
891.0
891.0
887.0
885.0
886.0
885.0
885.0
888.0
888.0
889.0
891.0
890.0
888.0
886.0
886.0
887.0
884.0
885.0
887.0
888.0
890.0
890.0
894.0
894.0
896.0
900.0
897.0
900.0
901.0
903.0
907.0
908.0
911.0
916.0
916.0
918.0
920.0
917.0
915.0
912.0
911.0
915.0
915.0
915.0
918.0
919.0
919.0
918.0
913.0
910.0
904.0
898.0
893.0
891.0
888.0
889.0
886.0
890.0
891.0
889.0
888.0
885.0
885.0
884.0
879.0
881.0
882.0
883.0
883.0
887.0
885.0
885.0
885.0
885.0
885.0
883.0
885.0
882.0
882.0
886.0
884.0
888.0
888.0
890.0
891.0
890.0
892.0
894.0
897.0
897.0
899.0
903.0
913.0
928.0
950.0
984.0
1031.0
1091.0
1168.0
1248.0
1317.0
1363.0
1369.0
1322.0
1219.0
1091.0
963.0
835.0
732.0
719.0
753.0
807.0
859.0
899.0
920.0
928.0
925.0
918.0
909.0
902.0
898.0
897.0
899.0
901.0
899.0
903.0
904.0
905.0
907.0
910.0
907.0
910.0
909.0
909.0
908.0
908.0
908.0
908.0
910.0
913.0
911.0
915.0
913.0
914.0
912.0
912.0
913.0
912.0
912.0
909.0
908.0
913.0
913.0
916.0
916.0
915.0
916.0
916.0
915.0
912.0
912.0
914.0
912.0
914.0
915.0
915.0
918.0
920.0
917.0
917.0
917.0
917.0
915.0
917.0
916.0
920.0
920.0
920.0
922.0
920.0
921.0
918.0
920.0
918.0
919.0
919.0
922.0
922.0
925.0
928.0
928.0
928.0
928.0
928.0
924.0
926.0
928.0
929.0
929.0
931.0
933.0
936.0
935.0
937.0
938.0
934.0
935.0
933.0
932.0
932.0
933.0
935.0
935.0
938.0
940.0
938.0
939.0
937.0
936.0
934.0
934.0
935.0
934.0
934.0
937.0
938.0
941.0
942.0
937.0
933.0
933.0
929.0
927.0
924.0
924.0
925.0
922.0
920.0
919.0
917.0
913.0
911.0
907.0
905.0
900.0
898.0
897.0
897.0
897.0
895.0
894.0
894.0
893.0
889.0
886.0
885.0
883.0
884.0
882.0
885.0
885.0
888.0
889.0
888.0
888.0
887.0
887.0
883.0
882.0
885.0
885.0
886.0
889.0
888.0
891.0
892.0
892.0
