# Simple Text Format
# Sampling Rate (Hz):= 360.00
# Resolution:= 12
# Labels:= ECG
950.0
948.0
947.0
950.0
948.0
949.0
948.0
950.0
950.0
951.0
953.0
956.0
957.0
957.0
957.0
955.0
957.0
956.0
954.0
956.0
956.0
958.0
961.0
962.0
964.0
964.0
963.0
963.0
960.0
958.0
956.0
960.0
958.0
958.0
958.0
961.0
960.0
959.0
960.0
958.0
958.0
956.0
957.0
959.0
957.0
960.0
959.0
959.0
957.0
954.0
950.0
946.0
941.0
936.0
932.0
927.0
926.0
926.0
923.0
923.0
923.0
919.0
915.0
915.0
910.0
907.0
907.0
907.0
904.0
905.0
904.0
906.0
906.0
907.0
907.0
903.0
902.0
902.0
897.0
901.0
901.0
902.0
901.0
902.0
905.0
903.0
907.0
905.0
905.0
903.0
906.0
907.0
907.0
907.0
910.0
912.0
914.0
913.0
915.0
914.0
911.0
910.0
911.0
912.0
912.0
913.0
912.0
913.0
915.0
915.0
914.0
914.0
913.0
911.0
911.0
911.0
912.0
912.0
913.0
914.0
914.0
912.0
911.0
909.0
910.0
904.0
906.0
906.0
905.0
905.0
905.0
907.0
909.0
907.0
906.0
906.0
903.0
902.0
904.0
903.0
904.0
908.0
911.0
913.0
916.0
917.0
918.0
920.0
921.0
921.0
921.0
923.0
925.0
930.0
932.0
936.0
937.0
937.0
935.0
930.0
927.0
927.0
927.0
929.0
930.0
929.0
930.0
930.0
929.0
925.0
923.0
918.0
912.0
909.0
905.0
901.0
898.0
900.0
900.0
901.0
900.0
902.0
901.0
898.0
896.0
897.0
894.0
894.0
894.0
896.0
896.0
893.0
896.0
898.0
896.0
894.0
894.0
892.0
892.0
892.0
894.0
896.0
897.0
899.0
900.0
903.0
901.0
901.0
901.0
902.0
903.0
906.0
906.0
911.0
916.0
925.0
946.0
977.0
1016.0
1071.0
1138.0
1213.0
1289.0
1354.0
1394.0
1401.0
1364.0
1281.0
1164.0
1036.0
908.0
791.0
740.0
739.0
772.0
826.0
880.0
916.0
939.0
947.0
945.0
938.0
928.0
921.0
915.0
914.0
911.0
916.0
918.0
920.0
920.0
922.0
922.0
925.0
922.0
920.0
919.0
916.0
918.0
917.0
918.0
918.0
920.0
921.0
925.0
924.0
924.0
924.0
922.0
921.0
919.0
918.0
919.0
921.0
922.0
924.0
924.0
925.0
925.0
923.0
922.0
919.0
918.0
920.0
921.0
922.0
922.0
922.0
926.0
926.0
925.0
925.0
924.0
922.0
922.0
922.0
921.0
923.0
925.0
925.0
928.0
927.0
926.0
928.0
929.0
925.0
927.0
927.0
925.0
927.0
931.0
932.0
935.0
935.0
935.0
935.0
934.0
933.0
934.0
934.0
935.0
937.0
938.0
938.0
940.0
945.0
943.0
945.0
944.0
944.0
945.0
943.0
944.0
948.0
949.0
952.0
955.0
957.0
957.0
954.0
957.0
957.0
956.0
957.0
956.0
957.0
960.0
960.0
962.0
962.0
965.0
962.0
964.0
963.0
963.0
963.0
962.0
963.0
964.0
963.0
962.0
960.0
956.0
953.0
946.0
942.0
939.0
935.0
932.0
930.0
926.0
927.0
923.0
922.0
918.0
912.0
910.0
907.0
905.0
899.0
897.0
901.0
900.0
902.0
902.0
900.0
897.0
897.0
896.0
896.0
893.0
894.0
892.0
895.0
895.0
895.0
896.0
897.0
896.0
894.0
893.0
891.0
894.0
893.0
893.0
894.0
896.0
898.0
899.0
900.0
900.0
900.0
900.0
899.0
898.0
898.0
897.0
898.0
902.0
904.0
906.0
905.0
907.0
906.0
906.0
904.0
902.0
903.0
902.0
903.0
905.0
906.0
907.0
905.0
905.0
904.0
903.0
902.0
899.0
901.0
900.0
897.0
900.0
899.0
900.0
901.0
902.0
901.0
900.0
898.0
894.0
895.0
896.0
896.0
896.0
898.0
898.0
899.0
900.0
898.0
897.0
898.0
896.0
896.0
896.0
897.0
898.0
898.0
899.0
899.0
899.0
897.0
897.0
896.0
895.0
898.0
899.0
903.0
908.0
906.0
913.0
916.0
915.0
916.0
918.0
919.0
919.0
921.0
926.0
930.0
932.0
930.0
933.0
931.0
931.0
927.0
927.0
929.0
926.0
925.0
922.0
926.0
924.0
921.0
919.0
916.0
911.0
907.0
901.0
899.0
896.0
896.0
896.0
895.0
900.0
899.0
902.0
900.0
900.0
897.0
896.0
893.0
894.0
890.0
890.0
892.0
894.0
893.0
895.0
894.0
897.0
894.0
893.0
893.0
892.0
894.0
894.0
894.0
896.0
899.0
903.0
904.0
906.0
908.0
907.0
906.0
908.0
909.0
917.0
925.0
943.0
973.0
1014.0
1071.0
1145.0
1227.0
1307.0
1365.0
1387.0
1357.0
1278.0
1150.0
1022.0
894.0
773.0
730.0
741.0
782.0
836.0
881.0
918.0
934.0
939.0
934.0
929.0
922.0
919.0
915.0
915.0
916.0
916.0
917.0
918.0
916.0
914.0
917.0
916.0
920.0
920.0
922.0
922.0
922.0
919.0
916.0
916.0
917.0
915.0
917.0
918.0
922.0
923.0
923.0
925.0
922.0
921.0
920.0
920.0
918.0
917.0
922.0
922.0
923.0
925.0
924.0
926.0
926.0
924.0
922.0
922.0
921.0
922.0
921.0
923.0
924.0
926.0
927.0
927.0
929.0
926.0
925.0
923.0
925.0
925.0
926.0
928.0
928.0
931.0
933.0
933.0
934.0
932.0
930.0
930.0
928.0
930.0
932.0
933.0
936.0
938.0
935.0
937.0
938.0
936.0
937.0
936.0
937.0
937.0
940.0
941.0
945.0
946.0
950.0
948.0
949.0
949.0
944.0
944.0
944.0
947.0
951.0
954.0
954.0
955.0
956.0
956.0
955.0
955.0
956.0
955.0
954.0
955.0
956.0
957.0
959.0
961.0
964.0
963.0
964.0
962.0
961.0
958.0
954.0
954.0
952.0
951.0
950.0
945.0
942.0
938.0
935.0
928.0
925.0
916.0
917.0
914.0
913.0
915.0
914.0
914.0
911.0
912.0
913.0
908.0
906.0
904.0
904.0
903.0
901.0
904.0
905.0
906.0
907.0
907.0
907.0
905.0
903.0
902.0
900.0
902.0
904.0
906.0
909.0
908.0
909.0
910.0
911.0
910.0
910.0
908.0
905.0
908.0
909.0
908.0
912.0
912.0
915.0
914.0
918.0
913.0
912.0
909.0
911.0
909.0
914.0
914.0
914.0
916.0
917.0
916.0
916.0
914.0
912.0
909.0
910.0
909.0
908.0
910.0
911.0
911.0
913.0
911.0
912.0
910.0
910.0
908.0
906.0
904.0
906.0
905.0
907.0
908.0
910.0
911.0
910.0
910.0
907.0
908.0
906.0
906.0
906.0
907.0
908.0
909.0
909.0
908.0
910.0
907.0
906.0
905.0
904.0
904.0
907.0
908.0
909.0
911.0
915.0
915.0
915.0
914.0
916.0
915.0
918.0
921.0
924.0
927.0
932.0
932.0
936.0
937.0
940.0
940.0
937.0
936.0
934.0
934.0
937.0
939.0
939.0
942.0
944.0
942.0
942.0
940.0
934.0
932.0
925.0
922.0
917.0
914.0
912.0
912.0
914.0
911.0
911.0
912.0
910.0
909.0
907.0
909.0
908.0
908.0
909.0
911.0
911.0
907.0
908.0
909.0
907.0
906.0
906.0
908.0
909.0
911.0
911.0
913.0
913.0
915.0
914.0
916.0
916.0
915.0
915.0
916.0
920.0
924.0
926.0
931.0
939.0
951.0
974.0
1014.0
1066.0
1131.0
1208.0
1287.0
1353.0
1389.0
1382.0
1323.0
1214.0
1086.0
958.0
830.0
754.0
750.0
785.0
838.0
890.0
928.0
947.0
958.0
954.0
947.0
940.0
934.0
932.0
928.0
931.0
932.0
933.0
933.0
932.0
935.0
938.0
938.0
938.0
939.0
938.0
936.0
935.0
933.0
935.0
940.0
941.0
941.0
944.0
942.0
943.0
943.0
940.0
941.0
938.0
941.0
942.0
944.0
943.0
946.0
945.0
947.0
943.0
943.0
941.0
939.0
941.0
941.0
939.0
942.0
943.0
948.0
951.0
949.0
949.0
946.0
944.0
944.0
944.0
942.0
946.0
948.0
950.0
951.0
951.0
951.0
951.0
949.0
948.0
947.0
947.0
950.0
952.0
954.0
952.0
955.0
958.0
957.0
958.0
958.0
956.0
954.0
954.0
956.0
959.0
960.0
962.0
963.0
966.0
964.0
964.0
966.0
965.0
964.0
960.0
963.0
966.0
968.0
969.0
972.0
974.0
971.0
974.0
973.0
971.0
970.0
967.0
968.0
969.0
971.0
973.0
973.0
973.0
973.0
975.0
973.0
975.0
973.0
970.0
972.0
971.0
971.0
971.0
971.0
967.0
962.0
959.0
955.0
953.0
948.0
948.0
944.0
944.0
940.0
939.0
938.0
939.0
937.0
936.0
933.0
930.0
927.0
925.0
923.0
923.0
926.0
925.0
925.0
927.0
925.0
926.0
924.0
924.0
923.0
925.0
926.0
926.0
927.0
926.0
929.0
928.0
926.0
926.0
926.0
927.0
927.0
925.0
930.0
929.0
932.0
932.0
935.0
934.0
936.0
935.0
934.0
935.0
932.0
934.0
933.0
932.0
934.0
935.0
938.0
941.0
939.0
935.0
934.0
933.0
931.0
930.0
929.0
926.0
929.0
930.0
931.0
932.0
933.0
930.0
928.0
927.0
927.0
924.0
925.0
926.0
924.0
927.0
930.0
929.0
928.0
927.0
929.0
925.0
927.0
926.0
928.0
929.0
932.0
933.0
938.0
941.0
941.0
943.0
943.0
945.0
943.0
947.0
948.0
951.0
956.0
956.0
957.0
958.0
957.0
956.0
955.0
955.0
953.0
952.0
952.0
951.0
950.0
946.0
948.0
943.0
942.0
938.0
931.0
928.0
924.0
921.0
920.0
920.0
923.0
923.0
924.0
926.0
924.0
924.0
921.0
920.0
920.0
916.0
917.0
916.0
919.0
918.0
921.0
921.0
919.0
920.0
918.0
915.0
914.0
913.0
914.0
916.0
920.0
920.0
927.0
928.0
926.0
930.0
929.0
929.0
929.0
929.0
930.0
933.0
938.0
949.0
964.0
990.0
1025.0
1074.0
1135.0
1207.0
1281.0
1346.0
1391.0
1404.0
1374.0
1304.0
1192.0
1064.0
936.0
822.0
769.0
770.0
802.0
852.0
900.0
937.0
955.0
962.0
962.0
957.0
948.0
943.0
942.0
941.0
937.0
940.0
940.0
944.0
944.0
943.0
946.0
946.0
946.0
947.0
945.0
945.0
944.0
941.0
945.0
944.0
946.0
948.0
950.0
953.0
950.0
950.0
951.0
945.0
943.0
944.0
943.0
946.0
946.0
947.0
949.0
952.0
951.0
952.0
951.0
948.0
946.0
946.0
947.0
948.0
951.0
952.0
953.0
956.0
956.0
954.0
955.0
953.0
950.0
951.0
950.0
949.0
954.0
956.0
958.0
958.0
959.0
958.0
960.0
957.0
956.0
955.0
953.0
954.0
958.0
959.0
963.0
965.0
967.0
962.0
966.0
966.0
965.0
965.0
965.0
966.0
967.0
968.0
971.0
973.0
973.0
973.0
974.0
971.0
973.0
972.0
973.0
974.0
977.0
977.0
979.0
979.0
977.0
977.0
978.0
979.0
976.0
976.0
978.0
977.0
980.0
979.0
980.0
981.0
981.0
982.0
981.0
978.0
976.0
975.0
974.0
972.0
971.0
970.0
968.0
965.0
963.0
958.0
955.0
949.0
947.0
944.0
942.0
938.0
936.0
938.0
935.0
936.0
933.0
933.0
930.0
927.0
925.0
921.0
921.0
923.0
922.0
924.0
924.0
926.0
925.0
925.0
923.0
921.0
922.0
921.0
921.0
922.0
926.0
924.0
927.0
930.0
931.0
930.0
928.0
930.0
929.0
927.0
928.0
931.0
932.0
934.0
936.0
938.0
939.0
940.0
936.0
937.0
934.0
936.0
935.0
934.0
933.0
934.0
939.0
939.0
940.0
939.0
938.0
937.0
934.0
933.0
935.0
931.0
932.0
936.0
937.0
937.0
938.0
937.0
935.0
937.0
931.0
932.0
931.0
930.0
931.0
932.0
933.0
933.0
932.0
932.0
931.0
929.0
927.0
926.0
925.0
928.0
927.0
930.0
933.0
931.0
934.0
930.0
929.0
927.0
929.0
926.0
927.0
926.0
929.0
928.0
932.0
933.0
935.0
936.0
936.0
939.0
936.0
939.0
940.0
944.0
947.0
951.0
952.0
956.0
958.0
960.0
963.0
962.0
964.0
964.0
961.0
958.0
959.0
958.0
961.0
963.0
963.0
962.0
962.0
958.0
955.0
951.0
949.0
946.0
944.0
942.0
937.0
937.0
935.0
934.0
933.0
932.0
931.0
933.0
929.0
930.0
930.0
929.0
931.0
931.0
932.0
933.0
930.0
930.0
929.0
926.0
926.0
927.0
926.0
928.0
931.0
931.0
931.0
933.0
932.0
932.0
931.0
932.0
931.0
933.0
936.0
938.0
941.0
945.0
945.0
947.0
952.0
956.0
966.0
981.0
1009.0
1044.0
1097.0
1169.0
1247.0
1325.0
1391.0
1422.0
1414.0
1354.0
1245.0
1117.0
989.0
861.0
785.0
766.0
794.0
844.0
896.0
935.0
965.0
977.0
974.0
969.0
962.0
957.0
952.0
952.0
953.0
957.0
958.0
960.0
960.0
957.0
958.0
957.0
957.0
958.0
958.0
960.0
961.0
960.0
963.0
964.0
963.0
963.0
961.0
959.0
960.0
960.0
960.0
962.0
963.0
963.0
965.0
963.0
963.0
963.0
963.0
962.0
960.0
961.0
962.0
961.0
964.0
965.0
965.0
966.0
966.0
964.0
963.0
964.0
964.0
963.0
965.0
965.0
967.0
970.0
970.0
969.0
969.0
967.0
966.0
966.0
965.0
968.0
969.0
971.0
972.0
973.0
973.0
975.0
973.0
972.0
972.0
973.0
975.0
975.0
976.0
979.0
979.0
979.0
982.0
983.0
985.0
984.0
984.0
984.0
985.0
985.0
988.0
991.0
992.0
994.0
994.0
995.0
997.0
995.0
995.0
995.0
996.0
997.0
999.0
1001.0
1002.0
1004.0
1003.0
1004.0
1005.0
1006.0
1004.0
1005.0
1004.0
1005.0
1005.0
1007.0
1010.0
1012.0
1012.0
1012.0
1009.0
1006.0
1003.0
998.0
995.0
990.0
988.0
987.0
983.0
984.0
980.0
976.0
970.0
966.0
961.0
956.0
955.0
954.0
955.0
954.0
954.0
954.0
953.0
954.0
951.0
948.0
947.0
948.0
946.0
946.0
943.0
946.0
945.0
947.0
946.0
948.0
947.0
945.0
944.0
944.0
943.0
946.0
945.0
945.0
949.0
950.0
953.0
951.0
952.0
951.0
950.0
951.0
951.0
951.0
954.0
954.0
955.0
957.0
959.0
957.0
959.0
958.0
957.0
955.0
953.0
955.0
955.0
956.0
958.0
959.0
959.0
958.0
957.0
954.0
953.0
954.0
952.0
953.0
953.0
953.0
952.0
956.0
956.0
955.0
953.0
953.0
953.0
949.0
948.0
950.0
953.0
954.0
951.0
953.0
955.0
954.0
954.0
951.0
947.0
946.0
946.0
948.0
947.0
951.0
949.0
954.0
956.0
953.0
951.0
951.0
951.0
950.0
950.0
949.0
951.0
950.0
952.0
953.0
954.0
952.0
953.0
948.0
950.0
948.0
947.0
945.0
949.0
950.0
953.0
955.0
953.0
953.0
952.0
952.0
949.0
949.0
948.0
950.0
948.0
950.0
951.0
954.0
954.0
954.0
953.0
951.0
951.0
947.0
948.0
948.0
949.0
950.0
951.0
954.0
949.0
952.0
950.0
951.0
951.0
948.0
948.0
950.0
950.0
953.0
953.0
956.0
955.0
954.0
951.0
952.0
952.0
950.0
949.0
950.0
949.0
952.0
955.0
957.0
956.0
956.0
956.0
956.0
956.0
957.0
960.0
961.0
964.0
969.0
970.0
974.0
975.0
978.0
979.0
977.0
978.0
980.0
982.0
981.0
981.0
981.0
981.0
982.0
979.0
978.0
980.0
976.0
978.0
976.0
976.0
975.0
975.0
974.0
973.0
970.0
968.0
963.0
961.0
957.0
958.0
954.0
955.0
953.0
955.0
953.0
956.0
958.0
958.0
957.0
956.0
954.0
954.0
953.0
952.0
952.0
951.0
951.0
951.0
955.0
954.0
955.0
955.0
955.0
954.0
956.0
953.0
955.0
956.0
956.0
956.0
960.0
961.0
965.0
966.0
963.0
964.0
966.0
972.0
980.0
997.0
1022.0
1056.0
1106.0
1166.0
1236.0
1309.0
1371.0
1413.0
1417.0
1377.0
1289.0
1163.0
1035.0
907.0
818.0
787.0
800.0
842.0
893.0
937.0
968.0
982.0
990.0
989.0
984.0
982.0
980.0
979.0
977.0
976.0
975.0
974.0
972.0
973.0
974.0
973.0
976.0
977.0
977.0
979.0
979.0
979.0
977.0
974.0
974.0
975.0
974.0
977.0
978.0
981.0
982.0
980.0
981.0
981.0
978.0
977.0
973.0
974.0
975.0
975.0
976.0
977.0
979.0
982.0
982.0
980.0
976.0
976.0
977.0
979.0
978.0
977.0
978.0
979.0
980.0
981.0
980.0
981.0
976.0
977.0
978.0
978.0
978.0
980.0
982.0
981.0
981.0
986.0
986.0
983.0
984.0
983.0
981.0
981.0
981.0
983.0
985.0
986.0
987.0
990.0
990.0
989.0
986.0
986.0
984.0
982.0
985.0
987.0
988.0
989.0
993.0
996.0
995.0
996.0
995.0
995.0
993.0
991.0
991.0
994.0
997.0
999.0
999.0
1001.0
1000.0
999.0
997.0
998.0
995.0
997.0
995.0
998.0
996.0
999.0
1002.0
1002.0
1002.0
999.0
997.0
996.0
995.0
988.0
988.0
984.0
982.0
979.0
976.0
976.0
973.0
969.0
966.0
963.0
957.0
956.0
955.0
956.0
956.0
957.0
956.0
956.0
954.0
952.0
951.0
947.0
946.0
945.0
946.0
947.0
948.0
950.0
952.0
954.0
951.0
952.0
951.0
951.0
947.0
946.0
947.0
948.0
949.0
952.0
953.0
953.0
953.0
955.0
954.0
953.0
951.0
951.0
951.0
951.0
952.0
955.0
957.0
956.0
955.0
958.0
953.0
955.0
956.0
955.0
954.0
954.0
955.0
956.0
954.0
955.0
953.0
952.0
951.0
948.0
951.0
951.0
948.0
950.0
952.0
951.0
954.0
954.0
953.0
951.0
946.0
947.0
947.0
942.0
946.0
941.0
945.0
944.0
946.0
946.0
947.0
946.0
945.0
944.0
943.0
941.0
940.0
944.0
943.0
945.0
946.0
947.0
946.0
946.0
941.0
943.0
942.0
941.0
940.0
941.0
941.0
943.0
945.0
945.0
944.0
942.0
940.0
940.0
937.0
937.0
940.0
942.0
941.0
943.0
944.0
943.0
942.0
942.0
939.0
939.0
937.0
937.0
939.0
940.0
943.0
945.0
948.0
952.0
953.0
952.0
953.0
953.0
952.0
952.0
956.0
960.0
963.0
966.0
970.0
974.0
974.0
974.0
971.0
971.0
965.0
963.0
964.0
965.0
967.0
966.0
970.0
969.0
970.0
965.0
963.0
960.0
956.0
950.0
948.0
944.0
942.0
939.0
939.0
941.0
938.0
939.0
939.0
938.0
937.0
935.0
934.0
933.0
931.0
932.0
935.0
936.0
935.0
936.0
933.0
933.0
933.0
932.0
933.0
935.0
934.0
934.0
936.0
939.0
937.0
938.0
934.0
936.0
936.0
936.0
939.0
942.0
944.0
946.0
951.0
956.0
964.0
980.0
1002.0
1035.0
1080.0
1139.0
1212.0
1286.0
1352.0
1394.0
1397.0
1354.0
1260.0
1132.0
1004.0
876.0
788.0
765.0
789.0
840.0
892.0
933.0
958.0
968.0
968.0
962.0
956.0
952.0
952.0
952.0
953.0
952.0
954.0
957.0
959.0
960.0
958.0
958.0
956.0
957.0
957.0
958.0
957.0
958.0
959.0
958.0
961.0
962.0
964.0
962.0
960.0
959.0
958.0
957.0
956.0
956.0
958.0
961.0
962.0
963.0
964.0
963.0
965.0
961.0
958.0
960.0
960.0
959.0
961.0
962.0
964.0
964.0
965.0
963.0
963.0
960.0
958.0
960.0
959.0
960.0
962.0
965.0
965.0
966.0
966.0
966.0
965.0
965.0
964.0
964.0
963.0
965.0
966.0
966.0
966.0
967.0
969.0
971.0
971.0
969.0
969.0
970.0
969.0
970.0
971.0
971.0
972.0
977.0
975.0
976.0
974.0
975.0
975.0
973.0
976.0
977.0
977.0
977.0
977.0
978.0
977.0
980.0
977.0
975.0
973.0
972.0
972.0
969.0
970.0
972.0
971.0
974.0
974.0
974.0
974.0
973.0
970.0
969.0
966.0
967.0
965.0
964.0
963.0
962.0
958.0
957.0
953.0
947.0
944.0
940.0
938.0
935.0
934.0
931.0
933.0
932.0
932.0
930.0
928.0
926.0
926.0
921.0
920.0
921.0
921.0
922.0
921.0
925.0
922.0
923.0
923.0
923.0
923.0
922.0
923.0
923.0
927.0
927.0
928.0
925.0
929.0
930.0
929.0
926.0
927.0
926.0
927.0
929.0
930.0
932.0
934.0
933.0
936.0
936.0
934.0
934.0
930.0
930.0
929.0
931.0
933.0
934.0
933.0
935.0
935.0
933.0
932.0
931.0
929.0
926.0
926.0
925.0
925.0
923.0
927.0
928.0
927.0
925.0
926.0
925.0
924.0
924.0
922.0
922.0
922.0
924.0
923.0
922.0
923.0
925.0
923.0
920.0
920.0
919.0
918.0
917.0
916.0
916.0
922.0
922.0
922.0
919.0
921.0
917.0
917.0
917.0
917.0
919.0
918.0
917.0
918.0
920.0
919.0
916.0
916.0
917.0
917.0
919.0
918.0
918.0
920.0
922.0
925.0
930.0
934.0
933.0
935.0
935.0
937.0
935.0
940.0
942.0
947.0
949.0
949.0
950.0
948.0
945.0
944.0
942.0
946.0
944.0
945.0
944.0
945.0
943.0
943.0
941.0
939.0
935.0
929.0
927.0
921.0
917.0
914.0
914.0
914.0
915.0
916.0
918.0
919.0
917.0
916.0
916.0
915.0
911.0
911.0
910.0
911.0
910.0
915.0
914.0
913.0
913.0
911.0
912.0
912.0
911.0
910.0
912.0
915.0
915.0
916.0
918.0
919.0
920.0
920.0
920.0
920.0
920.0
920.0
924.0
927.0
931.0
940.0
956.0
980.0
1018.0
1072.0
1142.0
1224.0
1299.0
1356.0
1385.0
1364.0
1293.0
1177.0
1049.0
921.0
813.0
769.0
769.0
806.0
853.0
901.0
933.0
952.0
960.0
956.0
948.0
941.0
934.0
931.0
928.0
929.0
929.0
932.0
935.0
934.0
935.0
937.0
938.0
938.0
939.0
938.0
936.0
937.0
934.0
935.0
934.0
935.0
936.0
936.0
937.0
936.0
938.0
939.0
940.0
937.0
937.0
936.0
938.0
937.0
938.0
937.0
941.0
941.0
940.0
936.0
937.0
937.0
936.0
936.0
935.0
935.0
938.0
939.0
942.0
943.0
942.0
941.0
942.0
939.0
936.0
939.0
938.0
941.0
943.0
945.0
946.0
946.0
948.0
944.0
944.0
944.0
941.0
942.0
944.0
946.0
946.0
946.0
950.0
952.0
952.0
952.0
950.0
951.0
951.0
951.0
951.0
954.0
956.0
957.0
959.0
959.0
961.0
962.0
961.0
958.0
961.0
962.0
963.0
964.0
965.0
968.0
969.0
969.0
970.0
970.0
969.0
968.0
967.0
966.0
965.0
970.0
972.0
973.0
973.0
975.0
973.0
972.0
971.0
969.0
969.0
967.0
971.0
969.0
969.0
966.0
965.0
963.0
960.0
955.0
952.0
946.0
943.0
939.0
935.0
930.0
928.0
928.0
925.0
925.0
922.0
918.0
915.0
911.0
910.0
906.0
907.0
908.0
906.0
909.0
910.0
908.0
908.0
905.0
905.0
902.0
904.0
903.0
902.0
903.0
906.0
906.0
910.0
908.0
908.0
908.0
908.0
906.0
907.0
904.0
905.0
908.0
910.0
912.0
914.0
911.0
911.0
912.0
911.0
911.0
910.0
913.0
915.0
912.0
914.0
914.0
918.0
917.0
919.0
918.0
916.0
913.0
913.0
913.0
912.0
912.0
913.0
915.0
915.0
916.0
915.0
913.0
909.0
911.0
909.0
907.0
909.0
910.0
910.0
910.0
911.0
912.0
907.0
905.0
905.0
904.0
902.0
902.0
903.0
902.0
903.0
905.0
906.0
906.0
906.0
906.0
905.0
904.0
901.0
901.0
901.0
903.0
904.0
901.0
904.0
907.0
903.0
902.0
903.0
901.0
900.0
900.0
901.0
901.0
901.0
902.0
904.0
903.0
905.0
900.0
900.0
900.0
900.0
900.0
898.0
901.0
904.0
903.0
905.0
904.0
904.0
902.0
901.0
901.0
901.0
898.0
898.0
899.0
901.0
902.0
902.0
905.0
905.0
903.0
904.0
904.0
903.0
902.0
901.0
902.0
906.0
910.0
912.0
915.0
915.0
918.0
920.0
920.0
918.0
919.0
923.0
925.0
932.0
933.0
931.0
928.0
925.0
922.0
924.0
924.0
922.0
921.0
922.0
924.0
923.0
923.0
920.0
917.0
913.0
909.0
905.0
900.0
898.0
897.0
897.0
898.0
900.0
901.0
902.0
902.0
901.0
899.0
897.0
896.0
895.0
892.0
893.0
894.0
896.0
896.0
896.0
897.0
896.0
894.0
892.0
891.0
890.0
893.0
891.0
893.0
897.0
899.0
903.0
903.0
905.0
905.0
905.0
905.0
903.0
904.0
908.0
915.0
930.0
950.0
986.0
1032.0
1095.0
1172.0
1250.0
1319.0
1357.0
1351.0
1292.0
1182.0
1054.0
926.0
798.0
743.0
749.0
792.0
847.0
897.0
930.0
943.0
944.0
937.0
927.0
916.0
913.0
910.0
912.0
912.0
916.0
917.0
916.0
915.0
915.0
915.0
917.0
918.0
919.0
920.0
921.0
919.0
917.0
916.0
915.0
914.0
915.0
914.0
918.0
920.0
924.0
924.0
922.0
923.0
920.0
917.0
917.0
915.0
919.0
920.0
921.0
921.0
925.0
923.0
922.0
923.0
921.0
921.0
917.0
918.0
918.0
916.0
918.0
920.0
921.0
921.0
922.0
920.0
920.0
919.0
915.0
915.0
919.0
919.0
921.0
922.0
924.0
928.0
926.0
926.0
926.0
924.0
924.0
923.0
922.0
925.0
927.0
929.0
930.0
932.0
933.0
933.0
934.0
934.0
933.0
933.0
931.0
933.0
937.0
937.0
939.0
942.0
941.0
941.0
939.0
938.0
935.0
938.0
939.0
937.0
939.0
942.0
943.0
942.0
944.0
943.0
942.0
940.0
939.0
938.0
939.0
942.0
944.0
943.0
944.0
944.0
943.0
944.0
941.0
938.0
934.0
932.0
929.0
928.0
926.0
924.0
923.0
919.0
914.0
913.0
906.0
903.0
900.0
897.0
894.0
896.0
895.0
894.0
894.0
893.0
893.0
892.0
891.0
891.0
891.0
890.0
888.0
890.0
891.0
894.0
894.0
893.0
896.0
895.0
893.0
891.0
890.0
891.0
891.0
893.0
894.0
895.0
898.0
900.0
898.0
899.0
896.0
896.0
896.0
896.0
896.0
898.0
898.0
901.0
903.0
903.0
903.0
904.0
902.0
901.0
899.0
897.0
898.0
898.0
900.0
899.0
902.0
903.0
903.0
902.0
901.0
896.0
897.0
896.0
893.0
894.0
896.0
893.0
895.0
897.0
898.0
896.0
895.0
891.0
890.0
891.0
891.0
893.0
891.0
893.0
894.0
895.0
895.0
893.0
892.0
890.0
888.0
889.0
888.0
890.0
891.0
890.0
891.0
893.0
891.0
892.0
891.0
890.0
890.0
889.0
887.0
889.0
890.0
889.0
891.0
891.0
891.0
890.0
888.0
887.0
885.0
887.0
887.0
887.0
890.0
889.0
889.0
892.0
894.0
894.0
893.0
891.0
891.0
890.0
891.0
893.0
897.0
903.0
902.0
906.0
909.0
911.0
912.0
914.0
915.0
916.0
918.0
921.0
921.0
924.0
923.0
924.0
923.0
921.0
919.0
917.0
917.0
915.0
914.0
914.0
914.0
914.0
912.0
905.0
900.0
895.0
891.0
891.0
888.0
886.0
887.0
888.0
891.0
888.0
888.0
889.0
889.0
888.0
888.0
886.0
886.0
884.0
885.0
884.0
885.0
886.0
889.0
889.0
886.0
887.0
887.0
886.0
884.0
885.0
884.0
886.0
889.0
891.0
897.0
899.0
900.0
900.0
901.0
900.0
901.0
906.0
918.0
941.0
973.0
1016.0
1080.0
1154.0
1233.0
1302.0
1346.0
1354.0
1316.0
1233.0
1110.0
982.0
854.0
763.0
729.0
742.0
785.0
836.0
880.0
910.0
927.0
928.0
926.0
917.0
912.0
908.0
907.0
910.0
909.0
913.0
912.0
913.0
914.0
912.0
912.0
912.0
913.0
914.0
913.0
915.0
916.0
916.0
916.0
915.0
915.0
912.0
914.0
914.0
916.0
916.0
919.0
919.0
920.0
919.0
920.0
919.0
916.0
916.0
916.0
916.0
918.0
920.0
920.0
920.0
920.0
918.0
919.0
918.0
918.0
917.0
919.0
917.0
919.0
922.0
920.0
924.0
927.0
927.0
928.0
926.0
922.0
922.0
923.0
925.0
923.0
926.0
929.0
931.0
931.0
930.0
928.0
927.0
926.0
927.0
928.0
929.0
930.0
932.0
936.0
934.0
937.0
938.0
936.0
936.0
935.0
935.0
936.0
935.0
938.0
939.0
941.0
945.0
942.0
942.0
941.0
939.0
939.0
939.0
938.0
942.0
941.0
942.0
941.0
942.0
939.0
939.0
937.0
938.0
937.0
939.0
940.0
941.0
941.0
939.0
938.0
937.0
934.0
934.0
930.0
926.0
923.0
922.0
920.0
917.0
917.0
913.0
913.0
909.0
908.0
908.0
905.0
902.0
900.0
898.0
896.0
897.0
894.0
893.0
897.0
896.0
897.0
896.0
893.0
891.0
891.0
890.0
891.0
891.0
892.0
893.0
895.0
896.0
897.0
896.0
897.0
895.0
895.0
893.0
893.0
897.0
897.0
899.0
901.0
902.0
901.0
905.0
902.0
901.0
903.0
900.0
902.0
903.0
903.0
904.0
906.0
906.0
905.0
905.0
903.0
901.0
900.0
900.0
899.0
900.0
900.0
901.0
899.0
902.0
902.0
902.0
900.0
898.0
897.0
894.0
893.0
895.0
896.0
893.0
897.0
895.0
895.0
898.0
894.0
892.0
890.0
890.0
886.0
891.0
893.0
893.0
894.0
896.0
893.0
894.0
893.0
892.0
895.0
896.0
899.0
901.0
903.0
908.0
911.0
914.0
916.0
918.0
918.0
922.0
925.0
924.0
922.0
918.0
918.0
918.0
919.0
921.0
920.0
921.0
922.0
919.0
915.0
910.0
905.0
902.0
898.0
896.0
892.0
894.0
893.0
893.0
892.0
892.0
890.0
889.0
888.0
887.0
