# Simple Text Format
# Sampling Rate (Hz):= 360.00
# Resolution:= 12
# Labels:= ECG
891.0
890.0
890.0
891.0
892.0
892.0
895.0
897.0
898.0
900.0
900.0
898.0
898.0
899.0
897.0
894.0
895.0
899.0
899.0
900.0
902.0
901.0
900.0
900.0
899.0
897.0
895.0
894.0
892.0
894.0
893.0
893.0
894.0
896.0
898.0
895.0
894.0
893.0
891.0
892.0
887.0
892.0
892.0
892.0
895.0
895.0
893.0
893.0
889.0
888.0
887.0
886.0
885.0
886.0
887.0
885.0
888.0
891.0
890.0
890.0
889.0
889.0
887.0
888.0
888.0
892.0
889.0
896.0
898.0
901.0
903.0
904.0
904.0
906.0
906.0
908.0
911.0
913.0
916.0
921.0
919.0
919.0
914.0
915.0
915.0
917.0
914.0
914.0
915.0
915.0
911.0
910.0
910.0
908.0
905.0
901.0
898.0
894.0
887.0
888.0
883.0
887.0
887.0
886.0
887.0
889.0
887.0
889.0
887.0
885.0
883.0
882.0
881.0
879.0
880.0
883.0
883.0
884.0
887.0
884.0
881.0
884.0
884.0
883.0
882.0
882.0
886.0
887.0
892.0
893.0
896.0
895.0
894.0
894.0
895.0
898.0
906.0
914.0
934.0
963.0
1003.0
1061.0
1130.0
1209.0
1287.0
1354.0
1389.0
1379.0
1315.0
1204.0
1076.0
948.0
820.0
730.0
720.0
754.0
805.0
858.0
897.0
918.0
926.0
927.0
924.0
915.0
911.0
908.0
904.0
906.0
906.0
906.0
904.0
906.0
906.0
906.0
907.0
909.0
907.0
911.0
913.0
913.0
912.0
913.0
909.0
909.0
908.0
908.0
909.0
909.0
912.0
913.0
914.0
914.0
914.0
913.0
913.0
912.0
913.0
913.0
915.0
914.0
918.0
918.0
918.0
916.0
914.0
916.0
916.0
912.0
915.0
916.0
915.0
914.0
916.0
920.0
918.0
917.0
916.0
919.0
919.0
917.0
917.0
917.0
920.0
921.0
921.0
923.0
924.0
924.0
924.0
922.0
923.0
922.0
923.0
925.0
926.0
926.0
928.0
931.0
931.0
932.0
931.0
930.0
931.0
930.0
930.0
931.0
932.0
933.0
937.0
943.0
942.0
941.0
942.0
941.0
939.0
939.0
944.0
945.0
947.0
947.0
950.0
951.0
949.0
951.0
951.0
952.0
949.0
951.0
950.0
951.0
951.0
953.0
955.0
956.0
959.0
956.0
954.0
956.0
952.0
952.0
952.0
950.0
950.0
947.0
945.0
946.0
943.0
937.0
932.0
923.0
923.0
920.0
919.0
915.0
913.0
910.0
909.0
907.0
905.0
903.0
902.0
899.0
896.0
892.0
894.0
892.0
895.0
892.0
894.0
892.0
890.0
893.0
893.0
889.0
890.0
888.0
890.0
889.0
891.0
890.0
892.0
894.0
894.0
893.0
892.0
895.0
889.0
892.0
892.0
894.0
896.0
897.0
899.0
902.0
903.0
901.0
902.0
902.0
897.0
899.0
901.0
902.0
903.0
903.0
905.0
908.0
906.0
907.0
906.0
902.0
904.0
902.0
904.0
903.0
904.0
905.0
906.0
909.0
908.0
908.0
905.0
903.0
904.0
901.0
901.0
900.0
903.0
902.0
902.0
904.0
905.0
899.0
902.0
901.0
897.0
899.0
898.0
899.0
901.0
901.0
901.0
904.0
904.0
902.0
900.0
896.0
901.0
900.0
899.0
901.0
902.0
903.0
904.0
907.0
904.0
904.0
902.0
903.0
901.0
900.0
900.0
903.0
905.0
904.0
905.0
906.0
906.0
907.0
904.0
905.0
902.0
903.0
902.0
903.0
905.0
905.0
908.0
909.0
909.0
909.0
908.0
908.0
906.0
903.0
906.0
907.0
909.0
910.0
910.0
913.0
912.0
913.0
911.0
912.0
911.0
910.0
912.0
910.0
913.0
915.0
916.0
924.0
925.0
928.0
929.0
929.0
930.0
933.0
937.0
939.0
940.0
945.0
947.0
950.0
946.0
943.0
942.0
941.0
939.0
940.0
940.0
940.0
941.0
940.0
940.0
936.0
936.0
933.0
927.0
925.0
923.0
917.0
918.0
918.0
920.0
921.0
921.0
924.0
924.0
922.0
920.0
921.0
920.0
919.0
919.0
918.0
922.0
920.0
922.0
924.0
925.0
927.0
924.0
924.0
922.0
924.0
925.0
928.0
929.0
931.0
932.0
936.0
940.0
942.0
942.0
943.0
949.0
955.0
976.0
1004.0
1047.0
1109.0
1182.0
1269.0
1346.0
1403.0
1422.0
1391.0
1304.0
1176.0
1048.0
920.0
794.0
764.0
781.0
832.0
887.0
936.0
966.0
978.0
979.0
973.0
966.0
959.0
955.0
956.0
957.0
959.0
962.0
962.0
963.0
963.0
962.0
960.0
960.0
962.0
964.0
966.0
966.0
969.0
969.0
971.0
972.0
969.0
967.0
965.0
966.0
966.0
970.0
970.0
971.0
972.0
972.0
972.0
971.0
970.0
969.0
969.0
969.0
970.0
970.0
972.0
975.0
976.0
976.0
976.0
975.0
975.0
972.0
970.0
970.0
973.0
975.0
975.0
978.0
978.0
980.0
980.0
978.0
978.0
978.0
977.0
977.0
978.0
979.0
981.0
982.0
985.0
985.0
986.0
986.0
983.0
983.0
982.0
984.0
985.0
987.0
987.0
990.0
992.0
993.0
993.0
994.0
991.0
992.0
992.0
993.0
992.0
994.0
996.0
999.0
1001.0
1004.0
1003.0
1004.0
1003.0
1000.0
1000.0
999.0
999.0
1003.0
1005.0
1007.0
1009.0
1008.0
1004.0
1008.0
1006.0
1003.0
1002.0
1003.0
1003.0
1006.0
1007.0
1008.0
1013.0
1013.0
1014.0
1013.0
1012.0
1008.0
1004.0
1004.0
1001.0
1000.0
999.0
996.0
996.0
995.0
991.0
987.0
983.0
980.0
976.0
974.0
972.0
971.0
972.0
970.0
970.0
971.0
970.0
967.0
965.0
964.0
963.0
963.0
963.0
963.0
965.0
965.0
966.0
964.0
963.0
965.0
961.0
960.0
963.0
960.0
964.0
965.0
967.0
967.0
971.0
971.0
969.0
969.0
970.0
969.0
967.0
969.0
970.0
969.0
972.0
971.0
973.0
972.0
972.0
973.0
972.0
972.0
972.0
971.0
971.0
973.0
974.0
976.0
979.0
976.0
978.0
977.0
976.0
973.0
971.0
970.0
967.0
968.0
970.0
972.0
971.0
972.0
974.0
973.0
973.0
970.0
969.0
967.0
966.0
966.0
965.0
965.0
967.0
966.0
968.0
964.0
966.0
965.0
965.0
963.0
965.0
966.0
965.0
966.0
966.0
965.0
966.0
967.0
962.0
961.0
961.0
960.0
961.0
960.0
962.0
962.0
964.0
966.0
963.0
964.0
959.0
960.0
959.0
957.0
958.0
959.0
962.0
963.0
964.0
962.0
962.0
960.0
958.0
959.0
956.0
956.0
958.0
960.0
961.0
961.0
964.0
961.0
961.0
959.0
959.0
957.0
957.0
961.0
962.0
967.0
971.0
973.0
976.0
979.0
982.0
980.0
981.0
986.0
987.0
989.0
988.0
990.0
989.0
988.0
986.0
984.0
988.0
986.0
982.0
981.0
981.0
980.0
980.0
978.0
973.0
969.0
969.0
962.0
962.0
959.0
956.0
956.0
955.0
955.0
953.0
954.0
953.0
953.0
956.0
955.0
956.0
955.0
953.0
950.0
950.0
948.0
945.0
947.0
945.0
946.0
949.0
950.0
952.0
952.0
951.0
951.0
950.0
951.0
954.0
956.0
959.0
959.0
963.0
961.0
962.0
966.0
974.0
990.0
1017.0
1061.0
1125.0
1208.0
1290.0
1364.0
1411.0
1410.0
1356.0
1249.0
1121.0
993.0
865.0
783.0
786.0
830.0
889.0
942.0
979.0
998.0
999.0
993.0
982.0
971.0
964.0
958.0
960.0
960.0
965.0
968.0
970.0
971.0
972.0
970.0
972.0
970.0
970.0
969.0
968.0
968.0
970.0
971.0
971.0
973.0
973.0
971.0
972.0
970.0
966.0
966.0
969.0
969.0
969.0
971.0
974.0
973.0
972.0
973.0
974.0
968.0
966.0
966.0
966.0
967.0
972.0
971.0
973.0
972.0
972.0
973.0
971.0
972.0
969.0
969.0
967.0
968.0
968.0
971.0
973.0
971.0
972.0
974.0
974.0
970.0
970.0
969.0
967.0
971.0
972.0
973.0
976.0
978.0
976.0
976.0
976.0
976.0
975.0
975.0
976.0
976.0
977.0
977.0
980.0
980.0
980.0
981.0
981.0
981.0
981.0
978.0
978.0
979.0
980.0
984.0
984.0
985.0
987.0
986.0
982.0
981.0
979.0
978.0
977.0
977.0
977.0
979.0
981.0
982.0
978.0
978.0
978.0
979.0
976.0
976.0
977.0
976.0
979.0
979.0
979.0
977.0
975.0
972.0
969.0
966.0
960.0
958.0
956.0
952.0
952.0
948.0
947.0
945.0
941.0
940.0
937.0
934.0
934.0
931.0
929.0
929.0
929.0
928.0
927.0
929.0
927.0
929.0
925.0
923.0
922.0
925.0
925.0
925.0
926.0
925.0
927.0
927.0
929.0
929.0
929.0
928.0
924.0
926.0
924.0
927.0
929.0
932.0
934.0
935.0
931.0
930.0
928.0
928.0
930.0
930.0
930.0
930.0
930.0
930.0
931.0
935.0
932.0
930.0
928.0
927.0
927.0
927.0
924.0
925.0
928.0
926.0
929.0
927.0
925.0
925.0
921.0
918.0
919.0
916.0
918.0
918.0
920.0
918.0
917.0
920.0
915.0
915.0
915.0
914.0
912.0
911.0
909.0
909.0
911.0
912.0
911.0
912.0
913.0
914.0
913.0
908.0
909.0
908.0
906.0
906.0
908.0
910.0
910.0
911.0
914.0
913.0
913.0
912.0
912.0
914.0
915.0
917.0
920.0
924.0
929.0
930.0
931.0
934.0
934.0
937.0
935.0
934.0
936.0
933.0
933.0
932.0
934.0
934.0
934.0
935.0
935.0
934.0
933.0
928.0
926.0
926.0
922.0
920.0
917.0
914.0
908.0
905.0
901.0
900.0
897.0
895.0
894.0
896.0
898.0
898.0
899.0
900.0
896.0
896.0
893.0
892.0
890.0
889.0
891.0
889.0
888.0
892.0
893.0
894.0
895.0
897.0
893.0
893.0
891.0
892.0
891.0
895.0
897.0
897.0
900.0
903.0
902.0
901.0
903.0
903.0
906.0
915.0
931.0
957.0
996.0
1051.0
1121.0
1203.0
1285.0
1346.0
1374.0
1354.0
1284.0
1169.0
1041.0
913.0
785.0
730.0
726.0
762.0
810.0
860.0
893.0
914.0
921.0
921.0
917.0
912.0
911.0
912.0
911.0
912.0
910.0
911.0
907.0
908.0
904.0
906.0
905.0
907.0
906.0
907.0
909.0
909.0
909.0
910.0
909.0
907.0
904.0
905.0
905.0
905.0
908.0
906.0
909.0
911.0
911.0
910.0
907.0
907.0
906.0
905.0
905.0
904.0
908.0
908.0
908.0
908.0
909.0
907.0
908.0
907.0
905.0
904.0
903.0
906.0
907.0
906.0
909.0
910.0
909.0
908.0
906.0
904.0
906.0
905.0
904.0
908.0
907.0
909.0
910.0
915.0
912.0
913.0
908.0
911.0
909.0
909.0
910.0
910.0
909.0
915.0
915.0
917.0
915.0
915.0
916.0
915.0
914.0
913.0
915.0
917.0
917.0
920.0
921.0
923.0
923.0
923.0
924.0
923.0
921.0
923.0
921.0
923.0
924.0
926.0
929.0
931.0
932.0
931.0
930.0
929.0
927.0
927.0
925.0
926.0
929.0
927.0
929.0
930.0
931.0
929.0
928.0
928.0
926.0
924.0
925.0
921.0
925.0
924.0
922.0
920.0
916.0
911.0
912.0
907.0
902.0
896.0
892.0
895.0
893.0
891.0
889.0
887.0
886.0
883.0
879.0
876.0
872.0
871.0
870.0
866.0
867.0
869.0
870.0
870.0
869.0
864.0
862.0
862.0
862.0
863.0
863.0
863.0
864.0
865.0
865.0
867.0
868.0
867.0
865.0
866.0
862.0
864.0
865.0
867.0
867.0
870.0
872.0
872.0
873.0
874.0
871.0
871.0
870.0
871.0
873.0
873.0
875.0
877.0
878.0
880.0
881.0
879.0
877.0
875.0
873.0
874.0
871.0
871.0
871.0
872.0
876.0
877.0
874.0
873.0
871.0
868.0
867.0
863.0
865.0
866.0
869.0
867.0
868.0
870.0
871.0
870.0
867.0
864.0
863.0
864.0
862.0
865.0
864.0
865.0
864.0
866.0
864.0
866.0
863.0
863.0
861.0
860.0
860.0
859.0
857.0
861.0
862.0
865.0
864.0
865.0
861.0
860.0
859.0
860.0
861.0
861.0
861.0
861.0
864.0
864.0
865.0
865.0
866.0
866.0
868.0
866.0
870.0
873.0
873.0
876.0
881.0
884.0
884.0
887.0
888.0
891.0
890.0
891.0
890.0
888.0
888.0
888.0
889.0
891.0
892.0
891.0
890.0
884.0
883.0
878.0
875.0
872.0
869.0
865.0
865.0
863.0
861.0
860.0
856.0
858.0
856.0
854.0
855.0
853.0
854.0
854.0
853.0
855.0
852.0
855.0
852.0
852.0
851.0
847.0
848.0
850.0
851.0
851.0
853.0
856.0
855.0
856.0
855.0
856.0
855.0
855.0
856.0
855.0
861.0
863.0
865.0
867.0
867.0
866.0
870.0
877.0
891.0
920.0
962.0
1023.0
1104.0
1191.0
1271.0
1327.0
1338.0
1288.0
1182.0
1054.0
926.0
798.0
693.0
680.0
714.0
771.0
826.0
869.0
893.0
901.0
897.0
889.0
878.0
870.0
865.0
863.0
866.0
872.0
872.0
872.0
875.0
872.0
874.0
875.0
874.0
874.0
874.0
875.0
874.0
873.0
877.0
879.0
879.0
879.0
877.0
877.0
873.0
873.0
872.0
874.0
876.0
877.0
878.0
880.0
882.0
882.0
880.0
879.0
879.0
877.0
876.0
876.0
880.0
880.0
881.0
882.0
883.0
881.0
881.0
879.0
878.0
877.0
878.0
879.0
880.0
880.0
880.0
882.0
884.0
885.0
883.0
881.0
882.0
877.0
881.0
882.0
882.0
883.0
883.0
886.0
886.0
887.0
885.0
886.0
885.0
883.0
884.0
884.0
884.0
887.0
888.0
890.0
891.0
890.0
891.0
892.0
891.0
891.0
891.0
893.0
896.0
896.0
898.0
900.0
901.0
901.0
900.0
899.0
899.0
898.0
900.0
898.0
898.0
904.0
905.0
908.0
905.0
904.0
905.0
905.0
904.0
903.0
903.0
902.0
904.0
905.0
907.0
909.0
909.0
911.0
908.0
908.0
907.0
904.0
903.0
900.0
898.0
895.0
895.0
891.0
887.0
885.0
880.0
877.0
873.0
869.0
867.0
863.0
866.0
863.0
862.0
861.0
862.0
862.0
859.0
859.0
857.0
852.0
850.0
850.0
850.0
854.0
855.0
855.0
855.0
854.0
855.0
852.0
851.0
851.0
853.0
853.0
854.0
854.0
856.0
858.0
858.0
856.0
857.0
857.0
854.0
853.0
852.0
854.0
857.0
860.0
858.0
861.0
862.0
862.0
863.0
863.0
859.0
861.0
860.0
861.0
862.0
860.0
862.0
862.0
864.0
863.0
864.0
862.0
860.0
858.0
860.0
861.0
861.0
863.0
863.0
863.0
863.0
860.0
859.0
858.0
858.0
857.0
855.0
855.0
856.0
857.0
856.0
860.0
855.0
858.0
857.0
856.0
855.0
852.0
850.0
853.0
854.0
857.0
856.0
857.0
857.0
854.0
855.0
855.0
853.0
851.0
851.0
851.0
852.0
854.0
855.0
856.0
856.0
858.0
853.0
853.0
855.0
852.0
851.0
852.0
854.0
856.0
857.0
857.0
859.0
857.0
854.0
857.0
856.0
854.0
853.0
854.0
855.0
857.0
859.0
856.0
856.0
856.0
855.0
852.0
852.0
852.0
853.0
854.0
857.0
857.0
857.0
859.0
860.0
858.0
859.0
857.0
857.0
858.0
861.0
863.0
868.0
871.0
872.0
877.0
880.0
882.0
886.0
884.0
884.0
884.0
884.0
884.0
882.0
883.0
881.0
883.0
887.0
885.0
883.0
880.0
880.0
881.0
878.0
877.0
874.0
872.0
868.0
868.0
867.0
863.0
860.0
860.0
856.0
856.0
856.0
856.0
858.0
858.0
858.0
861.0
858.0
855.0
854.0
856.0
855.0
853.0
856.0
854.0
855.0
858.0
858.0
861.0
863.0
860.0
860.0
861.0
866.0
863.0
865.0
864.0
870.0
871.0
875.0
882.0
893.0
912.0
944.0
988.0
1052.0
1130.0
1216.0
1290.0
1333.0
1332.0
1273.0
1167.0
1039.0
911.0
783.0
701.0
694.0
725.0
780.0
830.0
870.0
893.0
902.0
902.0
895.0
887.0
880.0
874.0
876.0
875.0
878.0
881.0
883.0
884.0
885.0
887.0
885.0
885.0
884.0
883.0
884.0
882.0
882.0
884.0
884.0
885.0
889.0
891.0
888.0
889.0
889.0
886.0
884.0
885.0
885.0
886.0
887.0
888.0
891.0
891.0
890.0
888.0
889.0
887.0
889.0
886.0
890.0
888.0
889.0
889.0
891.0
891.0
893.0
892.0
891.0
891.0
889.0
890.0
890.0
888.0
891.0
892.0
891.0
896.0
894.0
896.0
895.0
893.0
892.0
894.0
892.0
894.0
896.0
897.0
897.0
901.0
899.0
900.0
899.0
899.0
899.0
897.0
897.0
897.0
900.0
902.0
901.0
907.0
909.0
909.0
909.0
909.0
906.0
905.0
904.0
903.0
904.0
906.0
909.0
911.0
911.0
912.0
911.0
909.0
909.0
909.0
907.0
909.0
908.0
909.0
905.0
906.0
907.0
908.0
907.0
906.0
906.0
905.0
906.0
909.0
909.0
911.0
910.0
913.0
911.0
908.0
907.0
904.0
898.0
898.0
895.0
893.0
891.0
889.0
888.0
889.0
885.0
884.0
881.0
879.0
876.0
874.0
871.0
871.0
873.0
871.0
875.0
875.0
875.0
873.0
874.0
872.0
872.0
871.0
869.0
869.0
871.0
874.0
873.0
877.0
879.0
876.0
878.0
875.0
877.0
872.0
874.0
875.0
875.0
879.0
879.0
882.0
884.0
883.0
884.0
884.0
883.0
882.0
879.0
880.0
882.0
882.0
882.0
885.0
889.0
887.0
887.0
885.0
880.0
880.0
879.0
881.0
881.0
882.0
880.0
882.0
882.0
882.0
881.0
881.0
880.0
880.0
876.0
878.0
878.0
878.0
880.0
880.0
880.0
879.0
878.0
877.0
877.0
874.0
874.0
872.0
872.0
875.0
874.0
876.0
877.0
875.0
877.0
876.0
875.0
876.0
874.0
874.0
873.0
876.0
877.0
882.0
881.0
881.0
881.0
886.0
884.0
886.0
889.0
889.0
892.0
892.0
898.0
902.0
906.0
908.0
909.0
910.0
906.0
904.0
903.0
901.0
905.0
906.0
907.0
907.0
909.0
908.0
905.0
902.0
898.0
893.0
888.0
884.0
881.0
877.0
877.0
878.0
878.0
878.0
878.0
878.0
875.0
870.0
869.0
869.0
871.0
874.0
875.0
877.0
880.0
876.0
873.0
871.0
872.0
871.0
870.0
870.0
872.0
874.0
875.0
876.0
878.0
879.0
877.0
876.0
878.0
880.0
881.0
880.0
882.0
885.0
886.0
892.0
891.0
894.0
904.0
916.0
934.0
964.0
1004.0
1063.0
1134.0
1213.0
1288.0
1348.0
1376.0
1364.0
1305.0
1197.0
1069.0
941.0
813.0
718.0
708.0
745.0
802.0
858.0
900.0
923.0
928.0
923.0
915.0
905.0
896.0
895.0
897.0
897.0
903.0
906.0
908.0
908.0
908.0
904.0
903.0
901.0
903.0
901.0
904.0
905.0
907.0
909.0
910.0
908.0
911.0
908.0
909.0
906.0
908.0
907.0
908.0
909.0
909.0
911.0
914.0
912.0
911.0
910.0
911.0
909.0
906.0
908.0
907.0
912.0
913.0
916.0
915.0
912.0
913.0
911.0
914.0
911.0
911.0
911.0
914.0
916.0
915.0
917.0
918.0
921.0
918.0
916.0
918.0
915.0
914.0
917.0
917.0
921.0
921.0
923.0
925.0
927.0
926.0
926.0
922.0
924.0
921.0
922.0
925.0
927.0
928.0
930.0
932.0
932.0
934.0
932.0
931.0
930.0
931.0
931.0
932.0
936.0
938.0
940.0
941.0
942.0
942.0
940.0
941.0
939.0
938.0
938.0
937.0
939.0
940.0
938.0
942.0
941.0
941.0
938.0
939.0
938.0
937.0
937.0
935.0
939.0
939.0
940.0
938.0
934.0
934.0
929.0
925.0
922.0
917.0
915.0
913.0
911.0
909.0
907.0
906.0
901.0
901.0
897.0
894.0
891.0
887.0
886.0
886.0
888.0
887.0
890.0
888.0
886.0
885.0
885.0
886.0
884.0
884.0
885.0
887.0
887.0
890.0
891.0
892.0
892.0
891.0
891.0
891.0
892.0
891.0
893.0
894.0
896.0
897.0
899.0
900.0
900.0
899.0
899.0
898.0
898.0
896.0
895.0
896.0
895.0
895.0
897.0
899.0
902.0
903.0
900.0
900.0
898.0
895.0
895.0
894.0
895.0
899.0
900.0
900.0
899.0
899.0
897.0
894.0
894.0
893.0
894.0
894.0
895.0
894.0
896.0
897.0
898.0
897.0
896.0
893.0
893.0
889.0
891.0
890.0
893.0
894.0
895.0
897.0
896.0
900.0
900.0
902.0
901.0
907.0
907.0
910.0
912.0
914.0
919.0
922.0
927.0
925.0
926.0
922.0
918.0
918.0
918.0
919.0
920.0
921.0
923.0
921.0
921.0
919.0
915.0
912.0
906.0
902.0
902.0
897.0
895.0
892.0
895.0
896.0
896.0
896.0
895.0
895.0
893.0
892.0
890.0
889.0
889.0
892.0
891.0
893.0
891.0
890.0
890.0
887.0
887.0
888.0
886.0
889.0
889.0
893.0
891.0
895.0
894.0
896.0
896.0
893.0
894.0
894.0
896.0
900.0
902.0
905.0
906.0
912.0
917.0
928.0
948.0
981.0
1026.0
1093.0
1172.0
1257.0
1336.0
1386.0
1398.0
1363.0
1281.0
1160.0
1032.0
904.0
789.0
737.0
736.0
772.0
826.0
876.0
913.0
935.0
939.0
938.0
932.0
924.0
916.0
911.0
909.0
909.0
913.0
914.0
917.0
919.0
919.0
920.0
918.0
920.0
916.0
918.0
918.0
919.0
922.0
922.0
922.0
923.0
922.0
925.0
923.0
922.0
920.0
921.0
920.0
920.0
921.0
925.0
926.0
927.0
929.0
929.0
927.0
927.0
924.0
926.0
925.0
926.0
927.0
928.0
930.0
931.0
931.0
929.0
929.0
929.0
928.0
927.0
928.0
928.0
930.0
931.0
934.0
935.0
934.0
936.0
935.0
935.0
932.0
934.0
934.0
935.0
934.0
939.0
939.0
940.0
942.0
942.0
941.0
941.0
938.0
940.0
942.0
944.0
943.0
947.0
948.0
951.0
950.0
949.0
949.0
951.0
948.0
948.0
949.0
951.0
954.0
954.0
959.0
961.0
962.0
962.0
963.0
961.0
962.0
961.0
963.0
964.0
963.0
966.0
965.0
969.0
969.0
973.0
971.0
969.0
969.0
967.0
969.0
969.0
971.0
972.0
973.0
972.0
969.0
968.0
966.0
962.0
959.0
952.0
948.0
944.0
942.0
938.0
938.0
936.0
933.0
930.0
924.0
919.0
917.0
917.0
915.0
915.0
914.0
913.0
913.0
914.0
913.0
910.0
910.0
907.0
905.0
905.0
905.0
904.0
906.0
906.0
908.0
910.0
910.0
912.0
909.0
909.0
909.0
909.0
909.0
911.0
913.0
914.0
917.0
918.0
919.0
918.0
920.0
918.0
916.0
916.0
917.0
919.0
919.0
921.0
922.0
925.0
926.0
924.0
923.0
923.0
921.0
918.0
921.0
920.0
921.0
923.0
924.0
923.0
922.0
921.0
923.0
920.0
919.0
918.0
915.0
917.0
916.0
919.0
920.0
920.0
921.0
920.0
917.0
918.0
915.0
916.0
915.0
914.0
915.0
917.0
916.0
919.0
919.0
919.0
914.0
912.0
911.0
911.0
913.0
914.0
915.0
916.0
917.0
920.0
917.0
916.0
915.0
918.0
918.0
918.0
918.0
921.0
923.0
926.0
931.0
934.0
934.0
935.0
938.0
938.0
939.0
940.0
944.0
944.0
947.0
946.0
946.0
946.0
946.0
945.0
947.0
947.0
947.0
944.0
947.0
944.0
942.0
942.0
944.0
942.0
936.0
931.0
929.0
924.0
920.0
914.0
917.0
916.0
917.0
916.0
916.0
918.0
919.0
919.0
916.0
913.0
909.0
909.0
908.0
908.0
909.0
909.0
912.0
913.0
911.0
913.0
912.0
912.0
910.0
910.0
908.0
909.0
915.0
915.0
919.0
920.0
922.0
921.0
925.0
925.0
927.0
926.0
928.0
932.0
941.0
957.0
982.0
1015.0
1064.0
1129.0
1206.0
1287.0
1356.0
1394.0
1394.0
1346.0
1247.0
1119.0
991.0
865.0
789.0
760.0
775.0
816.0
864.0
905.0
934.0
949.0
956.0
952.0
948.0
943.0
940.0
935.0
936.0
934.0
935.0
933.0
933.0
936.0
932.0
934.0
937.0
940.0
940.0
942.0
940.0
939.0
938.0
935.0
938.0
936.0
939.0
942.0
943.0
944.0
942.0
943.0
942.0
941.0
940.0
940.0
939.0
940.0
941.0
942.0
944.0
947.0
948.0
948.0
946.0
944.0
942.0
945.0
945.0
942.0
945.0
946.0
943.0
947.0
946.0
946.0
945.0
945.0
943.0
944.0
943.0
946.0
946.0
948.0
950.0
952.0
952.0
949.0
949.0
948.0
947.0
946.0
950.0
949.0
951.0
951.0
953.0
956.0
957.0
957.0
957.0
956.0
956.0
950.0
954.0
956.0
956.0
961.0
962.0
964.0
964.0
965.0
967.0
965.0
965.0
964.0
965.0
963.0
965.0
969.0
968.0
971.0
972.0
974.0
972.0
972.0
969.0
968.0
970.0
972.0
971.0
972.0
975.0
974.0
974.0
977.0
975.0
975.0
973.0
973.0
971.0
975.0
974.0
974.0
975.0
973.0
970.0
968.0
964.0
959.0
955.0
952.0
948.0
946.0
944.0
942.0
938.0
937.0
937.0
935.0
932.0
931.0
929.0
927.0
926.0
926.0
927.0
926.0
927.0
928.0
927.0
926.0
926.0
924.0
923.0
922.0
923.0
922.0
923.0
925.0
926.0
929.0
931.0
930.0
929.0
928.0
928.0
928.0
926.0
929.0
931.0
933.0
932.0
933.0
935.0
935.0
934.0
932.0
932.0
932.0
931.0
932.0
932.0
936.0
936.0
936.0
940.0
938.0
940.0
934.0
934.0
932.0
930.0
931.0
935.0
935.0
936.0
936.0
935.0
934.0
933.0
932.0
931.0
929.0
928.0
927.0
927.0
928.0
927.0
934.0
933.0
930.0
929.0
927.0
926.0
928.0
927.0
925.0
925.0
927.0
929.0
931.0
933.0
930.0
930.0
928.0
929.0
926.0
927.0
928.0
929.0
930.0
932.0
934.0
937.0
937.0
940.0
942.0
942.0
944.0
946.0
948.0
951.0
955.0
958.0
963.0
962.0
961.0
961.0
960.0
957.0
955.0
954.0
956.0
957.0
957.0
957.0
957.0
955.0
952.0
949.0
942.0
937.0
932.0
928.0
928.0
926.0
926.0
929.0
930.0
933.0
931.0
929.0
926.0
926.0
922.0
921.0
921.0
921.0
923.0
923.0
926.0
928.0
928.0
927.0
926.0
925.0
924.0
924.0
923.0
925.0
924.0
926.0
929.0
927.0
931.0
931.0
931.0
932.0
931.0
930.0
931.0
933.0
936.0
940.0
943.0
950.0
966.0
986.0
1025.0
1076.0
1145.0
1227.0
1311.0
1377.0
1405.0
1381.0
1298.0
1170.0
1042.0
914.0
786.0
757.0
775.0
828.0
882.0
930.0
961.0
974.0
975.0
967.0
957.0
950.0
943.0
942.0
940.0
942.0
944.0
946.0
948.0
950.0
951.0
951.0
951.0
952.0
950.0
948.0
946.0
945.0
944.0
946.0
946.0
951.0
952.0
952.0
954.0
954.0
949.0
950.0
949.0
948.0
952.0
951.0
952.0
953.0
955.0
956.0
956.0
955.0
953.0
953.0
950.0
949.0
950.0
951.0
951.0
953.0
955.0
956.0
954.0
955.0
953.0
954.0
954.0
955.0
954.0
955.0
957.0
956.0
959.0
960.0
960.0
959.0
955.0
957.0
957.0
955.0
957.0
957.0
961.0
963.0
966.0
967.0
966.0
963.0
962.0
959.0
961.0
961.0
963.0
964.0
964.0
966.0
970.0
974.0
974.0
972.0
974.0
973.0
972.0
969.0
969.0
969.0
973.0
975.0
977.0
981.0
979.0
980.0
979.0
978.0
976.0
978.0
977.0
976.0
977.0
980.0
979.0
981.0
981.0
978.0
979.0
978.0
977.0
978.0
979.0
975.0
979.0
978.0
976.0
973.0
971.0
966.0
964.0
961.0
958.0
955.0
953.0
948.0
947.0
944.0
944.0
943.0
940.0
935.0
933.0
930.0
927.0
927.0
926.0
927.0
930.0
929.0
931.0
932.0
929.0
928.0
925.0
925.0
925.0
923.0
925.0
929.0
930.0
931.0
932.0
931.0
933.0
933.0
933.0
932.0
932.0
931.0
930.0
932.0
934.0
937.0
938.0
940.0
940.0
939.0
939.0
941.0
936.0
936.0
934.0
934.0
932.0
937.0
939.0
943.0
939.0
943.0
940.0
938.0
935.0
933.0
931.0
933.0
930.0
932.0
932.0
934.0
933.0
934.0
933.0
931.0
929.0
927.0
927.0
929.0
928.0
930.0
931.0
933.0
932.0
934.0
931.0
933.0
933.0
935.0
936.0
938.0
943.0
944.0
948.0
952.0
957.0
956.0
960.0
958.0
957.0
953.0
953.0
955.0
956.0
957.0
959.0
961.0
959.0
956.0
952.0
946.0
944.0
938.0
932.0
928.0
929.0
925.0
924.0
923.0
923.0
925.0
924.0
920.0
919.0
918.0
917.0
917.0
916.0
915.0
920.0
921.0
919.0
916.0
917.0
917.0
915.0
911.0
911.0
914.0
916.0
915.0
918.0
918.0
917.0
918.0
919.0
917.0
917.0
920.0
920.0
922.0
927.0
929.0
932.0
935.0
940.0
956.0
977.0
1010.0
1059.0
1122.0
1200.0
1280.0
1352.0
1397.0
1398.0
1343.0
1232.0
1104.0
976.0
848.0
749.0
745.0
786.0
843.0
898.0
936.0
956.0
962.0
956.0
949.0
939.0
932.0
931.0
931.0
932.0
935.0
937.0
938.0
939.0
939.0
939.0
938.0
939.0
937.0
936.0
936.0
938.0
939.0
940.0
940.0
943.0
944.0
942.0
943.0
942.0
942.0
940.0
938.0
940.0
940.0
940.0
941.0
942.0
945.0
942.0
943.0
939.0
938.0
938.0
937.0
939.0
937.0
937.0
941.0
944.0
947.0
945.0
947.0
942.0
943.0
940.0
939.0
939.0
941.0
942.0
943.0
943.0
946.0
943.0
945.0
944.0
943.0
941.0
944.0
945.0
946.0
947.0
944.0
949.0
