# Simple Text Format
# Sampling Rate (Hz):= 360.00
# Resolution:= 12
# Labels:= ECG
906.0
902.0
900.0
899.0
898.0
896.0
895.0
891.0
891.0
887.0
884.0
879.0
874.0
872.0
866.0
865.0
863.0
863.0
860.0
864.0
863.0
860.0
859.0
856.0
854.0
850.0
850.0
849.0
850.0
849.0
850.0
852.0
852.0
851.0
851.0
848.0
848.0
841.0
845.0
845.0
845.0
846.0
850.0
852.0
852.0
852.0
852.0
850.0
850.0
851.0
850.0
852.0
854.0
855.0
856.0
858.0
859.0
858.0
858.0
857.0
858.0
857.0
857.0
859.0
860.0
860.0
861.0
863.0
863.0
863.0
864.0
861.0
859.0
858.0
855.0
857.0
858.0
859.0
857.0
859.0
861.0
861.0
860.0
859.0
856.0
855.0
855.0
853.0
852.0
853.0
854.0
856.0
855.0
854.0
856.0
853.0
852.0
848.0
850.0
850.0
850.0
852.0
851.0
854.0
853.0
854.0
852.0
851.0
853.0
850.0
849.0
850.0
851.0
853.0
852.0
853.0
854.0
851.0
852.0
851.0
852.0
848.0
850.0
850.0
850.0
852.0
852.0
852.0
852.0
854.0
853.0
854.0
851.0
852.0
849.0
851.0
852.0
853.0
853.0
855.0
854.0
852.0
853.0
852.0
853.0
851.0
851.0
851.0
854.0
855.0
860.0
864.0
864.0
868.0
870.0
869.0
870.0
872.0
871.0
873.0
875.0
878.0
882.0
881.0
882.0
883.0
880.0
879.0
878.0
880.0
876.0
876.0
876.0
877.0
878.0
879.0
877.0
875.0
873.0
871.0
866.0
862.0
858.0
856.0
855.0
854.0
853.0
857.0
855.0
852.0
854.0
853.0
852.0
852.0
851.0
851.0
851.0
852.0
852.0
852.0
856.0
852.0
853.0
851.0
852.0
850.0
850.0
851.0
852.0
854.0
855.0
858.0
859.0
860.0
861.0
859.0
859.0
863.0
863.0
864.0
866.0
867.0
872.0
874.0
882.0
890.0
903.0
925.0
956.0
997.0
1049.0
1112.0
1173.0
1226.0
1254.0
1245.0
1200.0
1116.0
1005.0
892.0
806.0
757.0
746.0
764.0
798.0
834.0
861.0
880.0
888.0
886.0
884.0
875.0
873.0
869.0
868.0
869.0
871.0
874.0
873.0
876.0
879.0
875.0
874.0
874.0
874.0
876.0
873.0
873.0
874.0
877.0
875.0
877.0
879.0
876.0
878.0
878.0
877.0
875.0
876.0
875.0
873.0
877.0
879.0
878.0
879.0
881.0
880.0
879.0
878.0
877.0
878.0
877.0
879.0
877.0
880.0
880.0
882.0
881.0
881.0
880.0
879.0
878.0
876.0
876.0
877.0
877.0
879.0
882.0
881.0
883.0
879.0
885.0
882.0
883.0
881.0
882.0
883.0
885.0
887.0
887.0
886.0
889.0
891.0
890.0
888.0
886.0
885.0
885.0
886.0
889.0
892.0
895.0
894.0
893.0
893.0
894.0
891.0
893.0
894.0
893.0
893.0
896.0
898.0
898.0
899.0
900.0
903.0
900.0
900.0
899.0
897.0
898.0
899.0
900.0
900.0
901.0
903.0
903.0
904.0
902.0
900.0
899.0
900.0
901.0
902.0
898.0
900.0
897.0
900.0
896.0
893.0
890.0
886.0
883.0
880.0
880.0
877.0
877.0
875.0
873.0
876.0
871.0
870.0
868.0
867.0
864.0
862.0
860.0
860.0
861.0
863.0
864.0
865.0
863.0
860.0
859.0
860.0
858.0
859.0
857.0
857.0
861.0
862.0
863.0
863.0
864.0
866.0
865.0
864.0
864.0
859.0
861.0
864.0
866.0
869.0
871.0
872.0
871.0
872.0
872.0
871.0
870.0
869.0
872.0
869.0
872.0
873.0
875.0
875.0
877.0
877.0
873.0
874.0
872.0
873.0
872.0
871.0
874.0
875.0
871.0
874.0
874.0
874.0
870.0
870.0
870.0
868.0
868.0
869.0
872.0
869.0
874.0
874.0
873.0
873.0
874.0
872.0
871.0
871.0
873.0
870.0
871.0
871.0
873.0
874.0
874.0
875.0
873.0
871.0
870.0
870.0
869.0
871.0
871.0
872.0
875.0
874.0
876.0
876.0
872.0
874.0
873.0
871.0
872.0
874.0
876.0
875.0
876.0
876.0
876.0
878.0
876.0
875.0
873.0
875.0
875.0
877.0
877.0
878.0
878.0
881.0
879.0
879.0
881.0
881.0
877.0
878.0
876.0
879.0
880.0
882.0
883.0
884.0
885.0
884.0
884.0
882.0
881.0
881.0
882.0
884.0
885.0
884.0
890.0
892.0
891.0
891.0
890.0
887.0
887.0
888.0
893.0
893.0
896.0
900.0
903.0
906.0
909.0
911.0
911.0
913.0
913.0
911.0
913.0
918.0
920.0
920.0
923.0
924.0
923.0
920.0
919.0
920.0
919.0
918.0
919.0
919.0
920.0
921.0
917.0
915.0
913.0
910.0
905.0
901.0
899.0
898.0
899.0
900.0
903.0
902.0
903.0
905.0
903.0
902.0
902.0
901.0
903.0
899.0
900.0
903.0
902.0
905.0
905.0
908.0
908.0
907.0
908.0
907.0
908.0
907.0
909.0
909.0
914.0
918.0
922.0
927.0
930.0
932.0
934.0
936.0
948.0
961.0
983.0
1017.0
1067.0
1124.0
1187.0
1252.0
1296.0
1308.0
1280.0
1210.0
1102.0
981.0
876.0
809.0
790.0
810.0
849.0
891.0
927.0
948.0
958.0
956.0
951.0
946.0
941.0
936.0
938.0
940.0
943.0
949.0
950.0
951.0
950.0
949.0
947.0
944.0
947.0
949.0
951.0
952.0
955.0
956.0
954.0
958.0
952.0
954.0
951.0
949.0
949.0
953.0
955.0
957.0
956.0
958.0
958.0
958.0
959.0
957.0
958.0
957.0
956.0
955.0
957.0
958.0
960.0
960.0
962.0
963.0
960.0
959.0
961.0
963.0
959.0
961.0
962.0
962.0
964.0
967.0
969.0
969.0
967.0
968.0
967.0
966.0
965.0
967.0
970.0
972.0
972.0
974.0
974.0
974.0
976.0
975.0
976.0
975.0
976.0
976.0
978.0
978.0
981.0
982.0
984.0
983.0
984.0
984.0
982.0
980.0
979.0
981.0
984.0
984.0
984.0
986.0
984.0
985.0
984.0
980.0
980.0
980.0
979.0
979.0
979.0
983.0
983.0
983.0
985.0
985.0
984.0
984.0
983.0
984.0
984.0
985.0
985.0
983.0
983.0
981.0
980.0
980.0
977.0
975.0
973.0
966.0
966.0
963.0
965.0
966.0
963.0
966.0
965.0
964.0
963.0
961.0
956.0
956.0
955.0
954.0
954.0
954.0
956.0
954.0
957.0
959.0
958.0
956.0
955.0
954.0
953.0
957.0
954.0
954.0
958.0
961.0
959.0
960.0
960.0
960.0
960.0
958.0
960.0
959.0
961.0
961.0
962.0
965.0
969.0
968.0
966.0
964.0
964.0
962.0
962.0
960.0
962.0
963.0
967.0
968.0
966.0
965.0
963.0
962.0
962.0
960.0
962.0
961.0
961.0
966.0
966.0
968.0
968.0
965.0
964.0
960.0
960.0
960.0
958.0
961.0
959.0
960.0
961.0
963.0
962.0
959.0
957.0
956.0
955.0
956.0
953.0
953.0
955.0
957.0
958.0
958.0
960.0
960.0
958.0
957.0
956.0
953.0
952.0
954.0
958.0
959.0
963.0
965.0
967.0
971.0
972.0
971.0
971.0
968.0
971.0
971.0
978.0
981.0
987.0
987.0
987.0
988.0
985.0
982.0
981.0
981.0
981.0
978.0
979.0
982.0
981.0
982.0
977.0
973.0
971.0
966.0
962.0
958.0
956.0
954.0
953.0
956.0
956.0
961.0
958.0
960.0
958.0
957.0
953.0
950.0
949.0
948.0
951.0
953.0
954.0
955.0
954.0
954.0
953.0
951.0
952.0
950.0
951.0
951.0
952.0
956.0
956.0
959.0
956.0
960.0
962.0
960.0
963.0
963.0
964.0
967.0
976.0
993.0
1018.0
1057.0
1113.0
1177.0
1244.0
1301.0
1335.0
1330.0
1274.0
1175.0
1047.0
919.0
841.0
814.0
835.0
878.0
928.0
965.0
987.0
996.0
994.0
984.0
977.0
973.0
969.0
970.0
972.0
973.0
977.0
974.0
974.0
972.0
971.0
973.0
970.0
975.0
975.0
978.0
979.0
978.0
979.0
975.0
977.0
975.0
973.0
973.0
975.0
980.0
978.0
980.0
981.0
980.0
980.0
978.0
973.0
976.0
974.0
973.0
976.0
975.0
977.0
977.0
977.0
977.0
977.0
976.0
975.0
974.0
972.0
973.0
975.0
976.0
977.0
977.0
978.0
977.0
976.0
977.0
977.0
978.0
976.0
974.0
977.0
979.0
981.0
982.0
981.0
981.0
981.0
980.0
978.0
977.0
977.0
977.0
980.0
980.0
981.0
985.0
985.0
984.0
982.0
982.0
982.0
982.0
980.0
980.0
981.0
985.0
987.0
989.0
989.0
988.0
987.0
988.0
985.0
984.0
984.0
983.0
983.0
987.0
987.0
986.0
987.0
987.0
985.0
984.0
983.0
981.0
981.0
978.0
981.0
982.0
982.0
982.0
982.0
981.0
980.0
980.0
978.0
977.0
975.0
972.0
969.0
966.0
966.0
965.0
964.0
957.0
954.0
948.0
947.0
944.0
942.0
941.0
940.0
941.0
940.0
941.0
941.0
936.0
934.0
933.0
933.0
932.0
929.0
931.0
930.0
932.0
933.0
934.0
933.0
932.0
933.0
931.0
932.0
931.0
930.0
927.0
931.0
932.0
934.0
934.0
936.0
934.0
936.0
934.0
931.0
932.0
933.0
931.0
934.0
933.0
934.0
937.0
937.0
939.0
939.0
937.0
935.0
934.0
934.0
933.0
934.0
936.0
935.0
936.0
935.0
935.0
936.0
933.0
930.0
930.0
927.0
927.0
928.0
930.0
929.0
928.0
928.0
927.0
926.0
925.0
923.0
922.0
921.0
920.0
921.0
920.0
923.0
921.0
920.0
920.0
919.0
918.0
916.0
912.0
914.0
916.0
918.0
917.0
917.0
919.0
922.0
920.0
919.0
915.0
916.0
915.0
913.0
914.0
915.0
916.0
915.0
918.0
918.0
920.0
920.0
921.0
921.0
923.0
925.0
927.0
927.0
931.0
933.0
937.0
941.0
941.0
940.0
940.0
940.0
934.0
933.0
934.0
935.0
936.0
939.0
940.0
939.0
936.0
938.0
935.0
929.0
926.0
920.0
915.0
916.0
914.0
911.0
909.0
907.0
904.0
906.0
904.0
903.0
903.0
901.0
902.0
900.0
901.0
901.0
903.0
905.0
902.0
901.0
902.0
903.0
899.0
897.0
899.0
900.0
901.0
902.0
902.0
906.0
907.0
907.0
907.0
908.0
907.0
910.0
911.0
913.0
919.0
928.0
944.0
963.0
995.0
1044.0
1100.0
1164.0
1225.0
1273.0
1294.0
1279.0
1223.0
1132.0
1021.0
908.0
815.0
765.0
756.0
778.0
817.0
860.0
895.0
917.0
930.0
929.0
927.0
924.0
917.0
914.0
912.0
911.0
908.0
910.0
911.0
912.0
913.0
914.0
916.0
917.0
914.0
914.0
913.0
911.0
911.0
912.0
912.0
912.0
912.0
914.0
915.0
916.0
915.0
915.0
913.0
911.0
911.0
911.0
912.0
913.0
913.0
914.0
915.0
916.0
911.0
911.0
912.0
912.0
910.0
909.0
910.0
908.0
909.0
914.0
916.0
917.0
915.0
913.0
915.0
912.0
910.0
912.0
911.0
913.0
913.0
915.0
917.0
918.0
917.0
918.0
916.0
915.0
913.0
914.0
916.0
912.0
915.0
918.0
918.0
917.0
920.0
919.0
919.0
919.0
917.0
917.0
918.0
919.0
920.0
924.0
923.0
927.0
924.0
927.0
926.0
925.0
923.0
923.0
924.0
924.0
929.0
929.0
934.0
932.0
933.0
932.0
933.0
931.0
931.0
930.0
930.0
929.0
929.0
931.0
934.0
933.0
932.0
931.0
929.0
932.0
931.0
930.0
927.0
928.0
927.0
928.0
927.0
925.0
925.0
920.0
916.0
910.0
908.0
903.0
900.0
895.0
895.0
895.0
895.0
893.0
890.0
888.0
886.0
884.0
881.0
881.0
880.0
880.0
880.0
880.0
880.0
880.0
881.0
877.0
877.0
875.0
875.0
873.0
875.0
874.0
872.0
876.0
878.0
878.0
879.0
877.0
876.0
878.0
873.0
874.0
876.0
878.0
879.0
882.0
883.0
884.0
883.0
881.0
882.0
883.0
882.0
881.0
883.0
883.0
883.0
883.0
886.0
885.0
886.0
888.0
885.0
886.0
884.0
882.0
882.0
880.0
882.0
881.0
883.0
884.0
885.0
884.0
881.0
882.0
880.0
878.0
877.0
879.0
877.0
877.0
878.0
881.0
880.0
882.0
879.0
877.0
878.0
877.0
878.0
877.0
876.0
879.0
878.0
882.0
880.0
881.0
879.0
875.0
874.0
873.0
876.0
876.0
878.0
877.0
879.0
882.0
881.0
881.0
878.0
880.0
877.0
875.0
877.0
877.0
876.0
875.0
876.0
880.0
880.0
880.0
879.0
879.0
877.0
876.0
876.0
878.0
878.0
879.0
878.0
881.0
879.0
881.0
880.0
878.0
877.0
877.0
878.0
879.0
879.0
881.0
881.0
882.0
880.0
880.0
880.0
881.0
881.0
879.0
880.0
881.0
882.0
881.0
883.0
882.0
884.0
885.0
886.0
883.0
883.0
885.0
887.0
887.0
893.0
894.0
899.0
902.0
903.0
904.0
903.0
900.0
902.0
900.0
903.0
905.0
910.0
909.0
910.0
910.0
907.0
908.0
907.0
903.0
903.0
901.0
900.0
900.0
901.0
898.0
897.0
896.0
892.0
892.0
888.0
885.0
886.0
884.0
881.0
883.0
884.0
883.0
884.0
887.0
888.0
887.0
886.0
886.0
886.0
882.0
882.0
884.0
885.0
886.0
887.0
887.0
890.0
889.0
891.0
890.0
890.0
886.0
887.0
890.0
894.0
895.0
898.0
899.0
901.0
903.0
904.0
905.0
904.0
907.0
914.0
928.0
948.0
975.0
1012.0
1057.0
1112.0
1171.0
1225.0
1264.0
1285.0
1279.0
1239.0
1167.0
1069.0
961.0
860.0
787.0
756.0
767.0
799.0
841.0
880.0
907.0
923.0
926.0
925.0
917.0
913.0
910.0
906.0
907.0
906.0
907.0
909.0
907.0
906.0
908.0
910.0
909.0
910.0
911.0
914.0
915.0
914.0
914.0
912.0
911.0
911.0
910.0
911.0
913.0
914.0
915.0
917.0
917.0
917.0
916.0
914.0
914.0
915.0
915.0
915.0
916.0
919.0
920.0
921.0
920.0
917.0
916.0
914.0
914.0
914.0
914.0
917.0
918.0
919.0
920.0
917.0
917.0
917.0
920.0
915.0
916.0
918.0
916.0
918.0
919.0
922.0
922.0
923.0
921.0
921.0
920.0
921.0
918.0
915.0
921.0
922.0
923.0
924.0
927.0
926.0
927.0
925.0
926.0
924.0
921.0
922.0
925.0
926.0
928.0
930.0
930.0
933.0
931.0
931.0
930.0
929.0
925.0
927.0
927.0
931.0
929.0
931.0
935.0
935.0
936.0
936.0
932.0
932.0
930.0
932.0
931.0
932.0
932.0
935.0
934.0
935.0
935.0
934.0
933.0
933.0
932.0
931.0
931.0
935.0
936.0
935.0
935.0
931.0
930.0
929.0
927.0
924.0
921.0
920.0
919.0
920.0
914.0
916.0
916.0
914.0
911.0
911.0
908.0
907.0
904.0
902.0
900.0
901.0
902.0
901.0
903.0
902.0
902.0
901.0
900.0
898.0
898.0
899.0
901.0
901.0
903.0
903.0
902.0
904.0
903.0
904.0
904.0
901.0
899.0
899.0
898.0
900.0
900.0
905.0
908.0
911.0
910.0
910.0
907.0
907.0
905.0
905.0
905.0
905.0
906.0
909.0
909.0
912.0
911.0
909.0
909.0
908.0
907.0
905.0
905.0
906.0
907.0
907.0
908.0
908.0
907.0
906.0
905.0
903.0
900.0
901.0
901.0
901.0
902.0
902.0
905.0
902.0
904.0
903.0
902.0
899.0
899.0
897.0
896.0
898.0
899.0
899.0
900.0
903.0
900.0
899.0
898.0
896.0
892.0
894.0
895.0
896.0
896.0
901.0
903.0
902.0
902.0
898.0
898.0
897.0
895.0
894.0
895.0
896.0
898.0
897.0
899.0
899.0
898.0
898.0
896.0
896.0
895.0
892.0
892.0
893.0
893.0
894.0
896.0
897.0
897.0
896.0
896.0
894.0
893.0
893.0
894.0
893.0
895.0
895.0
894.0
897.0
898.0
897.0
898.0
895.0
896.0
893.0
895.0
896.0
897.0
901.0
902.0
904.0
905.0
906.0
907.0
906.0
909.0
908.0
912.0
913.0
916.0
918.0
921.0
924.0
924.0
922.0
919.0
918.0
914.0
916.0
916.0
917.0
920.0
918.0
920.0
919.0
916.0
913.0
906.0
900.0
898.0
893.0
893.0
895.0
894.0
892.0
897.0
898.0
898.0
895.0
894.0
893.0
890.0
890.0
889.0
889.0
890.0
891.0
893.0
894.0
896.0
895.0
893.0
891.0
890.0
887.0
890.0
893.0
893.0
896.0
897.0
900.0
901.0
899.0
902.0
901.0
901.0
902.0
902.0
905.0
908.0
910.0
918.0
925.0
942.0
966.0
997.0
1043.0
1100.0
1160.0
1221.0
1265.0
1280.0
1260.0
1197.0
1093.0
969.0
851.0
773.0
745.0
761.0
798.0
849.0
888.0
911.0
926.0
927.0
925.0
917.0
914.0
908.0
908.0
908.0
908.0
910.0
914.0
915.0
916.0
915.0
916.0
915.0
915.0
915.0
914.0
913.0
914.0
914.0
914.0
917.0
916.0
918.0
919.0
918.0
917.0
917.0
914.0
913.0
911.0
912.0
914.0
915.0
919.0
919.0
920.0
921.0
920.0
916.0
917.0
915.0
913.0
913.0
916.0
916.0
917.0
917.0
917.0
918.0
916.0
913.0
915.0
912.0
912.0
913.0
912.0
915.0
917.0
918.0
920.0
917.0
921.0
919.0
918.0
917.0
919.0
917.0
917.0
920.0
920.0
921.0
922.0
922.0
923.0
920.0
920.0
920.0
918.0
920.0
919.0
922.0
925.0
927.0
926.0
925.0
924.0
924.0
923.0
923.0
924.0
925.0
926.0
926.0
928.0
931.0
930.0
926.0
926.0
926.0
922.0
922.0
921.0
921.0
923.0
918.0
920.0
921.0
920.0
920.0
920.0
921.0
921.0
918.0
916.0
918.0
920.0
921.0
922.0
925.0
925.0
922.0
920.0
917.0
914.0
911.0
907.0
908.0
907.0
906.0
905.0
903.0
903.0
899.0
896.0
895.0
892.0
888.0
888.0
887.0
885.0
884.0
884.0
886.0
886.0
889.0
885.0
886.0
886.0
885.0
884.0
884.0
885.0
886.0
887.0
889.0
890.0
891.0
889.0
889.0
889.0
889.0
888.0
889.0
887.0
889.0
890.0
891.0
893.0
893.0
894.0
893.0
894.0
892.0
891.0
890.0
891.0
891.0
893.0
895.0
897.0
894.0
892.0
894.0
890.0
890.0
888.0
888.0
887.0
884.0
887.0
888.0
890.0
889.0
888.0
885.0
884.0
881.0
882.0
878.0
880.0
879.0
882.0
886.0
885.0
884.0
882.0
878.0
877.0
877.0
877.0
874.0
876.0
878.0
878.0
882.0
883.0
881.0
879.0
878.0
877.0
875.0
876.0
875.0
876.0
877.0
879.0
881.0
884.0
883.0
885.0
885.0
887.0
887.0
887.0
890.0
891.0
893.0
894.0
898.0
903.0
907.0
904.0
904.0
904.0
898.0
895.0
898.0
899.0
897.0
896.0
900.0
903.0
901.0
899.0
895.0
889.0
888.0
884.0
880.0
875.0
872.0
874.0
874.0
874.0
875.0
872.0
869.0
866.0
867.0
867.0
864.0
865.0
866.0
867.0
867.0
868.0
870.0
867.0
866.0
865.0
865.0
863.0
864.0
864.0
867.0
870.0
871.0
871.0
871.0
872.0
872.0
875.0
873.0
876.0
878.0
877.0
882.0
886.0
893.0
901.0
917.0
943.0
980.0
1029.0
1089.0
1157.0
1218.0
1263.0
1278.0
1255.0
1195.0
1097.0
978.0
860.0
775.0
736.0
738.0
771.0
818.0
857.0
888.0
902.0
906.0
902.0
893.0
887.0
880.0
876.0
879.0
880.0
879.0
882.0
886.0
887.0
886.0
889.0
886.0
886.0
885.0
884.0
882.0
883.0
882.0
883.0
885.0
886.0
887.0
889.0
889.0
890.0
887.0
887.0
888.0
886.0
886.0
887.0
889.0
890.0
889.0
890.0
891.0
891.0
890.0
890.0
889.0
888.0
886.0
886.0
889.0
891.0
892.0
894.0
893.0
889.0
890.0
889.0
887.0
886.0
890.0
890.0
889.0
892.0
890.0
893.0
893.0
893.0
894.0
893.0
890.0
892.0
893.0
894.0
894.0
896.0
897.0
898.0
897.0
900.0
898.0
898.0
896.0
896.0
895.0
897.0
898.0
901.0
902.0
904.0
904.0
904.0
904.0
902.0
902.0
902.0
901.0
903.0
903.0
907.0
907.0
908.0
909.0
908.0
908.0
906.0
905.0
903.0
903.0
903.0
905.0
905.0
905.0
906.0
905.0
904.0
902.0
903.0
900.0
901.0
902.0
901.0
900.0
903.0
902.0
903.0
899.0
896.0
894.0
890.0
886.0
885.0
882.0
880.0
876.0
876.0
874.0
873.0
872.0
868.0
868.0
864.0
864.0
859.0
859.0
859.0
860.0
860.0
861.0
862.0
860.0
860.0
859.0
858.0
857.0
854.0
853.0
856.0
856.0
858.0
860.0
860.0
858.0
860.0
859.0
856.0
858.0
860.0
858.0
862.0
862.0
863.0
864.0
868.0
863.0
864.0
865.0
868.0
867.0
867.0
865.0
868.0
868.0
869.0
871.0
870.0
868.0
870.0
867.0
867.0
863.0
863.0
864.0
865.0
866.0
866.0
866.0
868.0
865.0
865.0
865.0
864.0
861.0
858.0
860.0
860.0
862.0
862.0
861.0
863.0
862.0
861.0
858.0
856.0
857.0
854.0
856.0
857.0
857.0
857.0
859.0
859.0
859.0
860.0
859.0
856.0
854.0
855.0
855.0
855.0
854.0
856.0
857.0
858.0
858.0
858.0
857.0
856.0
854.0
853.0
853.0
853.0
856.0
856.0
857.0
859.0
858.0
856.0
855.0
856.0
854.0
853.0
853.0
853.0
852.0
851.0
856.0
858.0
859.0
857.0
853.0
853.0
851.0
854.0
853.0
852.0
855.0
853.0
858.0
858.0
858.0
858.0
858.0
856.0
858.0
855.0
858.0
862.0
867.0
869.0
872.0
876.0
878.0
880.0
879.0
877.0
876.0
879.0
881.0
883.0
882.0
881.0
883.0
882.0
883.0
883.0
880.0
880.0
880.0
878.0
877.0
875.0
873.0
873.0
871.0
868.0
867.0
864.0
859.0
856.0
856.0
856.0
855.0
855.0
855.0
856.0
856.0
858.0
860.0
856.0
854.0
854.0
852.0
852.0
849.0
850.0
851.0
851.0
854.0
855.0
856.0
856.0
857.0
855.0
854.0
854.0
855.0
855.0
860.0
862.0
865.0
865.0
869.0
868.0
870.0
871.0
875.0
875.0
884.0
899.0
923.0
955.0
993.0
1041.0
1097.0
1159.0
1212.0
1253.0
1267.0
1246.0
1191.0
1103.0
995.0
884.0
795.0
743.0
732.0
754.0
791.0
828.0
858.0
878.0
887.0
887.0
886.0
880.0
879.0
874.0
875.0
873.0
872.0
873.0
873.0
872.0
872.0
871.0
871.0
873.0
877.0
876.0
876.0
875.0
876.0
876.0
876.0
875.0
874.0
876.0
877.0
879.0
879.0
881.0
879.0
879.0
878.0
878.0
878.0
873.0
877.0
875.0
876.0
877.0
878.0
880.0
879.0
880.0
877.0
877.0
877.0
876.0
880.0
878.0
878.0
880.0
880.0
881.0
884.0
883.0
880.0
880.0
877.0
880.0
880.0
878.0
881.0
881.0
885.0
885.0
885.0
884.0
881.0
882.0
881.0
881.0
882.0
882.0
882.0
885.0
885.0
888.0
889.0
892.0
891.0
889.0
888.0
886.0
887.0
889.0
889.0
893.0
892.0
894.0
897.0
897.0
896.0
896.0
897.0
895.0
895.0
895.0
898.0
897.0
898.0
901.0
901.0
902.0
902.0
898.0
899.0
899.0
897.0
899.0
898.0
900.0
901.0
904.0
905.0
903.0
902.0
901.0
898.0
897.0
900.0
900.0
901.0
901.0
899.0
900.0
897.0
892.0
893.0
889.0
886.0
880.0
881.0
878.0
874.0
871.0
871.0
872.0
869.0
866.0
863.0
862.0
860.0
857.0
855.0
856.0
857.0
856.0
858.0
859.0
858.0
860.0
858.0
855.0
854.0
853.0
852.0
854.0
855.0
854.0
857.0
858.0
861.0
860.0
859.0
857.0
856.0
857.0
858.0
856.0
861.0
862.0
862.0
865.0
866.0
867.0
864.0
866.0
864.0
861.0
863.0
864.0
864.0
866.0
869.0
868.0
867.0
865.0
866.0
868.0
862.0
864.0
862.0
863.0
864.0
867.0
866.0
866.0
866.0
865.0
861.0
863.0
863.0
861.0
861.0
859.0
860.0
859.0
862.0
862.0
864.0
862.0
861.0
860.0
860.0
860.0
858.0
857.0
858.0
862.0
862.0
864.0
863.0
863.0
861.0
861.0
859.0
857.0
857.0
860.0
859.0
859.0
861.0
859.0
863.0
862.0
862.0
860.0
858.0
854.0
855.0
855.0
857.0
858.0
860.0
864.0
862.0
863.0
860.0
860.0
858.0
856.0
856.0
857.0
860.0
862.0
862.0
863.0
863.0
861.0
859.0
858.0
857.0
857.0
857.0
858.0
858.0
861.0
861.0
863.0
864.0
864.0
863.0
860.0
858.0
860.0
859.0
857.0
858.0
860.0
859.0
863.0
864.0
864.0
861.0
859.0
860.0
860.0
859.0
861.0
862.0
866.0
867.0
870.0
870.0
869.0
869.0
870.0
869.0
870.0
871.0
871.0
875.0
875.0
880.0
883.0
887.0
887.0
885.0
887.0
885.0
887.0
889.0
889.0
890.0
892.0
891.0
893.0
892.0
892.0
889.0
887.0
885.0
885.0
884.0
882.0
882.0
882.0
880.0
880.0
878.0
875.0
873.0
871.0
868.0
868.0
868.0
867.0
867.0
871.0
870.0
872.0
871.0
871.0
869.0
868.0
868.0
868.0
865.0
865.0
865.0
868.0
867.0
874.0
874.0
873.0
874.0
873.0
872.0
871.0
872.0
874.0
877.0
879.0
880.0
883.0
885.0
890.0
888.0
890.0
894.0
900.0
908.0
925.0
952.0
986.0
1034.0
1092.0
1148.0
1203.0
1241.0
1257.0
1246.0
1197.0
1119.0
1017.0
911.0
824.0
769.0
757.0
773.0
807.0
842.0
869.0
888.0
896.0
894.0
894.0
893.0
889.0
889.0
889.0
891.0
892.0
892.0
891.0
891.0
890.0
892.0
893.0
894.0
896.0
895.0
897.0
898.0
897.0
897.0
895.0
895.0
895.0
894.0
896.0
895.0
898.0
897.0
899.0
902.0
900.0
899.0
898.0
896.0
897.0
895.0
897.0
897.0
897.0
897.0
898.0
897.0
899.0
899.0
897.0
897.0
899.0
899.0
898.0
897.0
898.0
902.0
902.0
902.0
902.0
901.0
900.0
899.0
898.0
896.0
899.0
899.0
900.0
903.0
904.0
904.0
903.0
904.0
901.0
899.0
899.0
901.0
901.0
900.0
904.0
906.0
909.0
910.0
910.0
909.0
908.0
910.0
909.0
909.0
909.0
908.0
910.0
911.0
914.0
915.0
916.0
915.0
911.0
911.0
912.0
911.0
911.0
914.0
914.0
913.0
916.0
917.0
916.0
915.0
913.0
911.0
910.0
906.0
905.0
908.0
909.0
912.0
914.0
917.0
915.0
915.0
915.0
913.0
909.0
906.0
906.0
904.0
902.0
901.0
903.0
899.0
898.0
898.0
891.0
888.0
887.0
884.0
882.0
881.0
882.0
881.0
882.0
879.0
878.0
879.0
877.0
876.0
874.0
874.0
874.0
875.0
878.0
878.0
880.0
880.0
880.0
877.0
878.0
876.0
878.0
876.0
874.0
879.0
881.0
883.0
884.0
885.0
884.0
884.0
882.0
881.0
886.0
884.0
884.0
886.0
887.0
887.0
888.0
889.0
889.0
888.0
886.0
885.0
885.0
884.0
883.0
881.0
884.0
884.0
886.0
886.0
884.0
884.0
881.0
880.0
876.0
879.0
881.0
880.0
879.0
878.0
882.0
881.0
881.0
881.0
880.0
877.0
874.0
874.0
875.0
877.0
878.0
879.0
880.0
881.0
880.0
877.0
878.0
875.0
873.0
873.0
873.0
875.0
876.0
878.0
877.0
878.0
876.0
877.0
873.0
872.0
871.0
873.0
869.0
871.0
875.0
875.0
877.0
879.0
876.0
876.0
877.0
875.0
876.0
875.0
880.0
883.0
884.0
887.0
890.0
893.0
894.0
894.0
893.0
896.0
897.0
899.0
902.0
903.0
903.0
903.0
903.0
903.0
901.0
902.0
901.0
899.0
897.0
899.0
899.0
896.0
896.0
896.0
895.0
892.0
889.0
884.0
882.0
877.0
876.0
875.0
876.0
876.0
874.0
876.0
876.0
878.0
876.0
875.0
873.0
873.0
870.0
869.0
870.0
870.0
872.0
873.0
873.0
874.0
873.0
874.0
871.0
873.0
871.0
873.0
872.0
872.0
877.0
880.0
881.0
885.0
885.0
886.0
886.0
888.0
889.0
890.0
897.0
907.0
929.0
959.0
1000.0
1055.0
1117.0
1183.0
1240.0
1279.0
1287.0
1259.0
1190.0
1088.0
971.0
858.0
782.0
751.0
762.0
797.0
836.0
871.0
894.0
904.0
907.0
902.0
899.0
895.0
894.0
893.0
893.0
893.0
893.0
897.0
896.0
895.0
895.0
893.0
894.0
896.0
897.0
897.0
896.0
897.0
896.0
895.0
894.0
892.0
892.0
895.0
897.0
899.0
901.0
902.0
900.0
902.0
900.0
899.0
898.0
897.0
896.0
897.0
898.0
900.0
900.0
904.0
903.0
902.0
903.0
900.0
898.0
898.0
897.0
895.0
899.0
900.0
900.0
902.0
902.0
903.0
902.0
900.0
899.0
900.0
902.0
903.0
905.0
906.0
906.0
906.0
907.0
906.0
903.0
904.0
903.0
903.0
906.0
906.0
908.0
908.0
911.0
914.0
911.0
912.0
910.0
908.0
909.0
909.0
908.0
910.0
912.0
915.0
913.0
917.0
917.0
916.0
916.0
913.0
913.0
912.0
912.0
914.0
913.0
913.0
915.0
916.0
917.0
915.0
913.0
911.0
909.0
908.0
908.0
910.0
909.0
911.0
911.0
913.0
914.0
915.0
912.0
910.0
907.0
907.0
903.0
903.0
902.0
900.0
895.0
897.0
894.0
893.0
890.0
887.0
883.0
880.0
878.0
875.0
878.0
877.0
875.0
875.0
874.0
870.0
868.0
870.0
869.0
867.0
865.0
866.0
867.0
867.0
870.0
870.0
