# Simple Text Format
# Sampling Rate (Hz):= 360.00
# Resolution:= 12
# Labels:= ECG
927.0
927.0
925.0
930.0
932.0
932.0
936.0
936.0
936.0
937.0
935.0
935.0
932.0
932.0
933.0
937.0
938.0
938.0
940.0
940.0
941.0
938.0
936.0
932.0
930.0
931.0
928.0
926.0
924.0
922.0
918.0
914.0
912.0
909.0
902.0
898.0
896.0
894.0
891.0
890.0
890.0
889.0
887.0
885.0
887.0
883.0
883.0
881.0
879.0
879.0
878.0
880.0
880.0
880.0
879.0
880.0
882.0
878.0
876.0
875.0
875.0
874.0
874.0
875.0
876.0
879.0
880.0
881.0
879.0
878.0
878.0
877.0
875.0
875.0
876.0
875.0
876.0
878.0
880.0
881.0
883.0
883.0
883.0
884.0
881.0
883.0
881.0
882.0
883.0
884.0
885.0
886.0
888.0
884.0
886.0
881.0
881.0
878.0
880.0
882.0
880.0
879.0
880.0
881.0
882.0
881.0
878.0
878.0
876.0
877.0
875.0
875.0
878.0
877.0
880.0
879.0
877.0
877.0
877.0
875.0
874.0
875.0
875.0
877.0
877.0
878.0
879.0
877.0
876.0
877.0
877.0
876.0
876.0
875.0
873.0
875.0
873.0
875.0
878.0
877.0
876.0
875.0
873.0
873.0
871.0
873.0
872.0
875.0
876.0
879.0
881.0
881.0
882.0
885.0
885.0
884.0
888.0
889.0
893.0
892.0
894.0
900.0
906.0
906.0
905.0
904.0
905.0
902.0
900.0
898.0
899.0
900.0
900.0
902.0
904.0
902.0
900.0
895.0
892.0
886.0
882.0
880.0
878.0
875.0
872.0
875.0
877.0
877.0
876.0
876.0
877.0
874.0
873.0
873.0
873.0
872.0
874.0
874.0
875.0
874.0
873.0
873.0
873.0
871.0
871.0
872.0
871.0
870.0
870.0
872.0
877.0
880.0
878.0
878.0
878.0
881.0
878.0
881.0
883.0
885.0
890.0
890.0
893.0
895.0
902.0
907.0
924.0
954.0
995.0
1051.0
1123.0
1195.0
1257.0
1295.0
1296.0
1254.0
1168.0
1051.0
928.0
823.0
756.0
736.0
755.0
798.0
839.0
873.0
898.0
908.0
910.0
905.0
898.0
890.0
889.0
889.0
886.0
889.0
891.0
896.0
894.0
895.0
894.0
893.0
893.0
893.0
890.0
891.0
892.0
891.0
895.0
895.0
895.0
897.0
895.0
896.0
894.0
892.0
894.0
895.0
894.0
894.0
896.0
898.0
896.0
897.0
898.0
896.0
896.0
895.0
893.0
893.0
892.0
894.0
895.0
896.0
897.0
897.0
899.0
897.0
895.0
896.0
894.0
896.0
896.0
898.0
897.0
899.0
902.0
901.0
899.0
897.0
895.0
895.0
896.0
894.0
899.0
899.0
902.0
903.0
906.0
906.0
906.0
905.0
902.0
902.0
903.0
902.0
905.0
907.0
907.0
910.0
912.0
912.0
910.0
911.0
910.0
911.0
912.0
908.0
907.0
909.0
913.0
916.0
919.0
919.0
920.0
919.0
917.0
917.0
918.0
920.0
919.0
919.0
921.0
920.0
924.0
923.0
925.0
922.0
920.0
922.0
920.0
921.0
920.0
923.0
922.0
923.0
925.0
928.0
924.0
923.0
924.0
920.0
917.0
915.0
910.0
911.0
909.0
907.0
906.0
902.0
899.0
895.0
890.0
889.0
886.0
884.0
883.0
881.0
881.0
880.0
881.0
880.0
879.0
877.0
874.0
871.0
871.0
870.0
871.0
870.0
872.0
875.0
875.0
874.0
873.0
872.0
873.0
873.0
871.0
872.0
873.0
874.0
876.0
876.0
878.0
876.0
879.0
876.0
877.0
876.0
876.0
874.0
876.0
877.0
877.0
881.0
881.0
879.0
880.0
880.0
881.0
881.0
880.0
878.0
876.0
879.0
878.0
880.0
881.0
882.0
880.0
880.0
879.0
878.0
878.0
877.0
875.0
875.0
877.0
881.0
880.0
880.0
879.0
878.0
875.0
875.0
874.0
872.0
870.0
872.0
873.0
872.0
871.0
877.0
877.0
874.0
874.0
873.0
870.0
873.0
874.0
872.0
873.0
873.0
875.0
874.0
875.0
875.0
874.0
872.0
874.0
874.0
875.0
876.0
877.0
880.0
885.0
885.0
885.0
887.0
889.0
886.0
888.0
888.0
892.0
895.0
897.0
902.0
903.0
904.0
902.0
901.0
900.0
900.0
894.0
896.0
896.0
896.0
895.0
894.0
894.0
894.0
892.0
890.0
883.0
882.0
877.0
874.0
870.0
867.0
869.0
871.0
873.0
874.0
872.0
872.0
868.0
867.0
868.0
864.0
864.0
864.0
866.0
865.0
870.0
868.0
867.0
867.0
867.0
866.0
866.0
868.0
866.0
869.0
871.0
872.0
874.0
877.0
877.0
876.0
875.0
876.0
879.0
879.0
878.0
882.0
886.0
888.0
893.0
899.0
906.0
917.0
935.0
961.0
1000.0
1055.0
1118.0
1189.0
1250.0
1291.0
1304.0
1280.0
1217.0
1125.0
1011.0
898.0
806.0
759.0
751.0
774.0
812.0
849.0
876.0
893.0
896.0
894.0
890.0
888.0
884.0
884.0
883.0
884.0
889.0
888.0
889.0
889.0
887.0
887.0
886.0
886.0
886.0
886.0
884.0
882.0
886.0
888.0
887.0
892.0
891.0
891.0
891.0
891.0
890.0
887.0
888.0
890.0
890.0
890.0
891.0
891.0
889.0
889.0
892.0
890.0
889.0
889.0
888.0
890.0
892.0
890.0
894.0
893.0
894.0
895.0
894.0
893.0
891.0
892.0
892.0
892.0
894.0
896.0
895.0
897.0
896.0
896.0
895.0
895.0
893.0
893.0
892.0
892.0
896.0
898.0
898.0
901.0
900.0
897.0
897.0
896.0
897.0
898.0
896.0
898.0
899.0
901.0
903.0
904.0
904.0
904.0
902.0
903.0
904.0
901.0
902.0
904.0
906.0
907.0
910.0
912.0
912.0
910.0
913.0
912.0
908.0
907.0
910.0
910.0
911.0
915.0
915.0
915.0
914.0
914.0
913.0
910.0
908.0
907.0
909.0
909.0
909.0
913.0
914.0
913.0
913.0
913.0
910.0
905.0
905.0
901.0
899.0
897.0
896.0
895.0
894.0
891.0
890.0
885.0
882.0
882.0
877.0
874.0
872.0
872.0
872.0
871.0
875.0
873.0
872.0
870.0
867.0
865.0
859.0
863.0
859.0
860.0
861.0
864.0
865.0
865.0
865.0
865.0
864.0
862.0
863.0
859.0
861.0
863.0
860.0
866.0
869.0
869.0
872.0
868.0
869.0
866.0
868.0
868.0
869.0
870.0
871.0
870.0
873.0
875.0
875.0
876.0
874.0
875.0
872.0
870.0
871.0
868.0
871.0
874.0
877.0
877.0
876.0
877.0
874.0
873.0
870.0
869.0
869.0
869.0
872.0
871.0
871.0
871.0
869.0
868.0
867.0
865.0
865.0
863.0
862.0
865.0
865.0
865.0
866.0
869.0
868.0
866.0
864.0
865.0
866.0
863.0
860.0
863.0
864.0
863.0
864.0
865.0
866.0
866.0
864.0
863.0
860.0
862.0
861.0
863.0
863.0
863.0
865.0
866.0
868.0
867.0
865.0
863.0
860.0
862.0
861.0
861.0
864.0
864.0
864.0
866.0
866.0
870.0
871.0
870.0
872.0
873.0
875.0
876.0
878.0
882.0
883.0
885.0
885.0
886.0
889.0
889.0
888.0
889.0
890.0
888.0
891.0
890.0
891.0
891.0
891.0
891.0
889.0
890.0
885.0
884.0
882.0
878.0
876.0
874.0
874.0
873.0
870.0
868.0
867.0
866.0
862.0
865.0
867.0
864.0
865.0
865.0
869.0
869.0
867.0
866.0
866.0
864.0
859.0
861.0
861.0
862.0
865.0
864.0
865.0
866.0
863.0
866.0
863.0
865.0
864.0
865.0
868.0
870.0
873.0
876.0
880.0
882.0
883.0
888.0
892.0
902.0
921.0
949.0
989.0
1044.0
1113.0
1184.0
1246.0
1288.0
1300.0
1273.0
1209.0
1111.0
999.0
886.0
798.0
753.0
748.0
772.0
812.0
850.0
875.0
891.0
898.0
894.0
891.0
884.0
878.0
877.0
878.0
877.0
881.0
882.0
882.0
882.0
883.0
881.0
880.0
880.0
880.0
879.0
880.0
882.0
884.0
886.0
885.0
886.0
883.0
883.0
881.0
878.0
879.0
879.0
883.0
883.0
886.0
884.0
885.0
884.0
882.0
881.0
880.0
878.0
881.0
882.0
883.0
882.0
885.0
887.0
886.0
885.0
884.0
883.0
883.0
880.0
881.0
881.0
884.0
883.0
887.0
888.0
887.0
887.0
887.0
885.0
883.0
885.0
883.0
882.0
885.0
886.0
887.0
888.0
889.0
891.0
892.0
891.0
888.0
888.0
888.0
890.0
891.0
893.0
896.0
897.0
896.0
898.0
896.0
897.0
895.0
894.0
898.0
899.0
902.0
902.0
902.0
905.0
902.0
905.0
904.0
903.0
903.0
905.0
905.0
907.0
909.0
911.0
910.0
914.0
912.0
913.0
910.0
910.0
909.0
910.0
911.0
911.0
913.0
912.0
915.0
917.0
914.0
911.0
910.0
907.0
902.0
900.0
898.0
897.0
893.0
891.0
889.0
888.0
885.0
885.0
881.0
876.0
874.0
870.0
869.0
869.0
868.0
865.0
866.0
867.0
865.0
865.0
862.0
862.0
858.0
857.0
858.0
858.0
860.0
860.0
858.0
861.0
862.0
860.0
858.0
859.0
856.0
856.0
856.0
858.0
859.0
860.0
861.0
861.0
862.0
860.0
860.0
858.0
859.0
856.0
857.0
860.0
863.0
866.0
866.0
866.0
868.0
867.0
868.0
867.0
866.0
864.0
865.0
863.0
867.0
865.0
867.0
868.0
869.0
866.0
867.0
865.0
863.0
861.0
860.0
861.0
860.0
862.0
861.0
861.0
859.0
861.0
862.0
856.0
857.0
858.0
854.0
856.0
858.0
858.0
858.0
861.0
860.0
861.0
862.0
857.0
857.0
855.0
855.0
855.0
856.0
857.0
860.0
860.0
860.0
858.0
858.0
856.0
857.0
854.0
856.0
856.0
856.0
856.0
858.0
858.0
859.0
857.0
857.0
855.0
852.0
852.0
851.0
848.0
851.0
854.0
854.0
856.0
856.0
857.0
857.0
855.0
851.0
852.0
855.0
852.0
856.0
855.0
859.0
859.0
861.0
861.0
861.0
861.0
860.0
860.0
865.0
864.0
869.0
872.0
874.0
876.0
877.0
879.0
878.0
878.0
878.0
882.0
880.0
880.0
878.0
880.0
880.0
882.0
881.0
882.0
881.0
879.0
876.0
874.0
870.0
868.0
865.0
865.0
865.0
862.0
861.0
862.0
859.0
859.0
855.0
856.0
857.0
855.0
853.0
857.0
858.0
858.0
859.0
858.0
856.0
855.0
851.0
851.0
853.0
852.0
854.0
856.0
859.0
859.0
859.0
862.0
861.0
862.0
862.0
862.0
862.0
862.0
869.0
869.0
873.0
877.0
879.0
882.0
887.0
894.0
913.0
942.0
981.0
1034.0
1099.0
1172.0
1234.0
1274.0
1274.0
1234.0
1147.0
1038.0
921.0
819.0
754.0
733.0
749.0
783.0
824.0
859.0
879.0
887.0
889.0
884.0
878.0
873.0
870.0
871.0
872.0
875.0
876.0
880.0
880.0
880.0
881.0
877.0
875.0
875.0
877.0
877.0
878.0
878.0
880.0
882.0
883.0
880.0
879.0
879.0
878.0
875.0
875.0
876.0
877.0
877.0
880.0
878.0
879.0
882.0
882.0
881.0
880.0
879.0
878.0
879.0
876.0
877.0
879.0
881.0
884.0
881.0
881.0
880.0
879.0
878.0
879.0
880.0
879.0
878.0
880.0
884.0
885.0
884.0
885.0
883.0
882.0
883.0
882.0
884.0
885.0
886.0
887.0
887.0
889.0
889.0
888.0
885.0
886.0
885.0
886.0
888.0
889.0
890.0
891.0
893.0
895.0
896.0
894.0
894.0
893.0
897.0
896.0
897.0
897.0
901.0
901.0
903.0
903.0
904.0
905.0
904.0
900.0
901.0
901.0
899.0
902.0
904.0
907.0
907.0
909.0
906.0
904.0
904.0
903.0
904.0
904.0
906.0
909.0
907.0
909.0
912.0
909.0
908.0
906.0
901.0
899.0
895.0
893.0
891.0
887.0
887.0
884.0
883.0
882.0
878.0
878.0
874.0
868.0
868.0
870.0
868.0
867.0
866.0
866.0
867.0
866.0
863.0
862.0
861.0
857.0
858.0
857.0
855.0
854.0
858.0
861.0
861.0
863.0
858.0
861.0
861.0
859.0
860.0
857.0
859.0
860.0
861.0
865.0
863.0
867.0
866.0
866.0
865.0
864.0
863.0
861.0
862.0
864.0
867.0
867.0
870.0
868.0
868.0
868.0
866.0
865.0
864.0
866.0
866.0
866.0
868.0
868.0
871.0
871.0
868.0
867.0
865.0
865.0
861.0
862.0
861.0
862.0
861.0
864.0
865.0
864.0
863.0
863.0
861.0
860.0
858.0
857.0
856.0
858.0
859.0
859.0
859.0
860.0
862.0
861.0
859.0
856.0
856.0
858.0
858.0
859.0
861.0
861.0
862.0
861.0
861.0
858.0
856.0
858.0
857.0
857.0
857.0
858.0
861.0
864.0
863.0
862.0
861.0
861.0
864.0
864.0
864.0
865.0
869.0
873.0
872.0
875.0
875.0
880.0
881.0
883.0
884.0
882.0
883.0
883.0
883.0
884.0
884.0
886.0
889.0
890.0
891.0
887.0
882.0
882.0
875.0
874.0
871.0
869.0
866.0
867.0
865.0
861.0
863.0
862.0
865.0
861.0
860.0
860.0
858.0
857.0
856.0
859.0
861.0
862.0
862.0
861.0
860.0
859.0
857.0
855.0
858.0
858.0
860.0
859.0
862.0
863.0
864.0
864.0
862.0
862.0
861.0
863.0
865.0
865.0
870.0
871.0
873.0
876.0
877.0
877.0
876.0
878.0
880.0
887.0
898.0
911.0
933.0
965.0
1008.0
1064.0
1126.0
1191.0
1240.0
1267.0
1253.0
1195.0
1096.0
974.0
857.0
776.0
739.0
750.0
783.0
826.0
860.0
882.0
892.0
889.0
888.0
882.0
881.0
879.0
876.0
879.0
879.0
882.0
879.0
879.0
877.0
878.0
879.0
879.0
879.0
881.0
881.0
883.0
882.0
885.0
883.0
880.0
881.0
881.0
882.0
883.0
882.0
881.0
883.0
886.0
888.0
886.0
886.0
886.0
884.0
884.0
885.0
885.0
888.0
886.0
890.0
889.0
888.0
888.0
889.0
887.0
885.0
885.0
887.0
884.0
886.0
889.0
889.0
890.0
890.0
889.0
887.0
886.0
886.0
884.0
886.0
887.0
884.0
889.0
889.0
889.0
887.0
889.0
888.0
888.0
890.0
886.0
891.0
894.0
892.0
894.0
897.0
899.0
898.0
898.0
898.0
898.0
897.0
895.0
894.0
897.0
898.0
902.0
904.0
904.0
906.0
907.0
906.0
906.0
903.0
904.0
905.0
906.0
905.0
910.0
914.0
913.0
912.0
912.0
908.0
908.0
909.0
909.0
907.0
908.0
909.0
908.0
911.0
912.0
912.0
912.0
910.0
909.0
909.0
907.0
906.0
905.0
903.0
904.0
903.0
902.0
897.0
897.0
894.0
889.0
884.0
881.0
882.0
878.0
877.0
877.0
879.0
876.0
875.0
873.0
871.0
868.0
866.0
863.0
864.0
862.0
866.0
864.0
866.0
865.0
867.0
867.0
866.0
864.0
863.0
860.0
862.0
866.0
867.0
869.0
871.0
873.0
873.0
873.0
871.0
874.0
870.0
870.0
871.0
872.0
872.0
873.0
876.0
877.0
873.0
875.0
875.0
875.0
874.0
873.0
873.0
875.0
875.0
876.0
876.0
877.0
879.0
875.0
873.0
874.0
872.0
872.0
871.0
871.0
872.0
872.0
874.0
875.0
874.0
874.0
873.0
871.0
871.0
870.0
869.0
870.0
871.0
872.0
874.0
874.0
873.0
871.0
871.0
871.0
868.0
867.0
868.0
869.0
870.0
870.0
873.0
873.0
873.0
870.0
873.0
872.0
872.0
873.0
875.0
879.0
880.0
884.0
886.0
888.0
890.0
892.0
890.0
893.0
894.0
893.0
893.0
896.0
894.0
894.0
896.0
896.0
896.0
895.0
896.0
895.0
891.0
889.0
886.0
887.0
883.0
882.0
880.0
880.0
877.0
874.0
872.0
871.0
870.0
867.0
869.0
868.0
867.0
867.0
871.0
868.0
869.0
870.0
869.0
868.0
865.0
865.0
867.0
866.0
869.0
869.0
872.0
873.0
873.0
871.0
871.0
874.0
870.0
873.0
873.0
874.0
876.0
880.0
884.0
887.0
887.0
888.0
889.0
894.0
899.0
912.0
933.0
968.0
1013.0
1073.0
1144.0
1213.0
1266.0
1296.0
1292.0
1248.0
1165.0
1060.0
947.0
850.0
783.0
758.0
770.0
797.0
834.0
867.0
888.0
900.0
902.0
901.0
897.0
892.0
892.0
891.0
889.0
890.0
890.0
890.0
890.0
891.0
890.0
890.0
889.0
889.0
890.0
893.0
893.0
893.0
895.0
894.0
892.0
893.0
893.0
892.0
892.0
894.0
894.0
897.0
897.0
899.0
897.0
896.0
896.0
893.0
892.0
893.0
894.0
894.0
891.0
893.0
894.0
897.0
896.0
898.0
900.0
895.0
895.0
896.0
896.0
897.0
899.0
900.0
901.0
902.0
901.0
902.0
901.0
901.0
899.0
897.0
899.0
901.0
901.0
903.0
904.0
908.0
907.0
909.0
906.0
906.0
905.0
902.0
906.0
907.0
910.0
910.0
914.0
913.0
914.0
913.0
912.0
914.0
914.0
913.0
915.0
915.0
916.0
918.0
918.0
921.0
925.0
922.0
921.0
926.0
921.0
924.0
925.0
927.0
927.0
930.0
931.0
932.0
933.0
934.0
931.0
929.0
928.0
928.0
928.0
929.0
931.0
932.0
931.0
935.0
934.0
933.0
932.0
930.0
931.0
927.0
925.0
920.0
919.0
920.0
916.0
915.0
912.0
907.0
902.0
900.0
896.0
894.0
892.0
891.0
891.0
889.0
890.0
890.0
888.0
888.0
884.0
883.0
880.0
881.0
880.0
879.0
877.0
880.0
881.0
884.0
883.0
881.0
882.0
878.0
880.0
881.0
879.0
882.0
884.0
884.0
886.0
890.0
889.0
888.0
888.0
888.0
887.0
886.0
889.0
891.0
889.0
893.0
896.0
896.0
897.0
895.0
895.0
893.0
894.0
890.0
891.0
893.0
892.0
893.0
893.0
897.0
897.0
897.0
894.0
892.0
889.0
888.0
890.0
888.0
892.0
892.0
894.0
894.0
896.0
894.0
891.0
888.0
889.0
887.0
887.0
884.0
886.0
888.0
889.0
889.0
891.0
891.0
889.0
889.0
888.0
888.0
886.0
885.0
889.0
889.0
888.0
892.0
890.0
892.0
889.0
888.0
888.0
888.0
887.0
888.0
890.0
893.0
894.0
897.0
899.0
900.0
901.0
901.0
898.0
899.0
903.0
904.0
907.0
912.0
914.0
916.0
917.0
918.0
918.0
917.0
913.0
913.0
912.0
912.0
914.0
915.0
917.0
914.0
914.0
911.0
907.0
905.0
899.0
895.0
893.0
890.0
889.0
891.0
893.0
892.0
893.0
893.0
891.0
889.0
888.0
884.0
884.0
885.0
887.0
887.0
888.0
892.0
891.0
887.0
890.0
888.0
887.0
887.0
885.0
884.0
888.0
893.0
892.0
897.0
896.0
896.0
896.0
895.0
898.0
898.0
902.0
905.0
907.0
909.0
918.0
929.0
946.0
969.0
1000.0
1045.0
1100.0
1162.0
1226.0
1279.0
1310.0
1313.0
1269.0
1185.0
1073.0
948.0
842.0
775.0
757.0
779.0
818.0
863.0
899.0
921.0
930.0
930.0
924.0
917.0
911.0
906.0
900.0
901.0
903.0
902.0
905.0
909.0
906.0
910.0
911.0
910.0
908.0
908.0
907.0
906.0
908.0
908.0
909.0
910.0
910.0
913.0
912.0
913.0
911.0
909.0
910.0
908.0
908.0
908.0
909.0
911.0
912.0
913.0
913.0
914.0
912.0
911.0
907.0
909.0
910.0
910.0
911.0
912.0
913.0
915.0
914.0
914.0
911.0
913.0
913.0
912.0
913.0
914.0
916.0
917.0
917.0
919.0
919.0
920.0
919.0
918.0
915.0
914.0
916.0
917.0
917.0
921.0
923.0
925.0
924.0
927.0
922.0
922.0
922.0
921.0
920.0
922.0
926.0
929.0
930.0
933.0
935.0
934.0
934.0
931.0
933.0
932.0
931.0
933.0
932.0
933.0
936.0
936.0
937.0
935.0
935.0
934.0
934.0
935.0
936.0
936.0
936.0
939.0
939.0
939.0
937.0
940.0
939.0
938.0
939.0
936.0
935.0
933.0
932.0
928.0
927.0
927.0
923.0
921.0
917.0
914.0
910.0
907.0
904.0
904.0
904.0
900.0
902.0
902.0
900.0
898.0
898.0
896.0
892.0
890.0
890.0
890.0
890.0
891.0
892.0
894.0
896.0
895.0
895.0
892.0
889.0
890.0
891.0
891.0
892.0
895.0
894.0
897.0
897.0
896.0
897.0
898.0
896.0
896.0
896.0
895.0
895.0
898.0
899.0
902.0
902.0
902.0
901.0
901.0
898.0
897.0
895.0
896.0
897.0
899.0
897.0
900.0
900.0
901.0
901.0
898.0
897.0
894.0
894.0
894.0
895.0
896.0
896.0
899.0
897.0
895.0
896.0
896.0
892.0
892.0
890.0
894.0
896.0
893.0
895.0
896.0
896.0
896.0
896.0
893.0
891.0
889.0
890.0
889.0
888.0
893.0
893.0
894.0
895.0
894.0
892.0
891.0
892.0
890.0
888.0
890.0
891.0
893.0
892.0
893.0
893.0
893.0
890.0
891.0
889.0
888.0
887.0
886.0
889.0
891.0
891.0
894.0
894.0
894.0
894.0
892.0
893.0
890.0
888.0
891.0
890.0
890.0
894.0
894.0
894.0
889.0
894.0
891.0
891.0
887.0
889.0
890.0
891.0
891.0
893.0
895.0
900.0
899.0
901.0
901.0
903.0
900.0
901.0
905.0
907.0
911.0
912.0
915.0
917.0
918.0
920.0
918.0
918.0
917.0
915.0
911.0
914.0
915.0
915.0
917.0
916.0
916.0
916.0
914.0
911.0
907.0
902.0
899.0
897.0
894.0
895.0
894.0
893.0
891.0
893.0
891.0
889.0
889.0
886.0
886.0
887.0
889.0
889.0
890.0
891.0
888.0
887.0
888.0
885.0
885.0
884.0
884.0
885.0
886.0
888.0
892.0
890.0
891.0
893.0
894.0
892.0
892.0
894.0
897.0
896.0
900.0
904.0
907.0
910.0
912.0
916.0
925.0
939.0
963.0
997.0
1044.0
1101.0
1164.0
1223.0
1277.0
1305.0
1303.0
1262.0
1178.0
1069.0
950.0
847.0
778.0
754.0
769.0
808.0
854.0
888.0
915.0
924.0
925.0
917.0
910.0
902.0
898.0
898.0
899.0
899.0
904.0
905.0
905.0
907.0
904.0
906.0
905.0
902.0
902.0
901.0
904.0
905.0
907.0
906.0
904.0
908.0
906.0
908.0
905.0
904.0
903.0
906.0
905.0
910.0
908.0
909.0
906.0
907.0
905.0
906.0
904.0
904.0
904.0
905.0
906.0
907.0
910.0
910.0
910.0
911.0
911.0
910.0
909.0
907.0
907.0
907.0
909.0
912.0
912.0
914.0
911.0
909.0
910.0
912.0
910.0
909.0
908.0
909.0
908.0
911.0
914.0
916.0
914.0
915.0
913.0
909.0
911.0
916.0
916.0
917.0
920.0
920.0
922.0
925.0
925.0
923.0
922.0
921.0
919.0
919.0
919.0
920.0
920.0
922.0
926.0
926.0
926.0
925.0
923.0
923.0
918.0
916.0
920.0
919.0
923.0
922.0
926.0
926.0
927.0
927.0
927.0
927.0
925.0
920.0
919.0
920.0
920.0
920.0
918.0
917.0
915.0
911.0
909.0
904.0
902.0
898.0
897.0
894.0
896.0
894.0
894.0
893.0
889.0
888.0
887.0
885.0
886.0
885.0
885.0
885.0
886.0
885.0
886.0
887.0
886.0
887.0
885.0
885.0
885.0
881.0
882.0
883.0
885.0
886.0
886.0
886.0
887.0
885.0
888.0
886.0
886.0
883.0
887.0
885.0
889.0
889.0
891.0
893.0
893.0
894.0
893.0
891.0
891.0
891.0
889.0
889.0
891.0
890.0
895.0
894.0
894.0
893.0
889.0
890.0
888.0
886.0
886.0
885.0
886.0
887.0
888.0
889.0
889.0
888.0
886.0
886.0
883.0
884.0
883.0
883.0
882.0
882.0
885.0
885.0
885.0
885.0
882.0
882.0
877.0
879.0
879.0
879.0
882.0
882.0
883.0
882.0
880.0
879.0
878.0
877.0
877.0
878.0
878.0
878.0
878.0
881.0
881.0
882.0
882.0
883.0
883.0
882.0
883.0
884.0
886.0
888.0
890.0
893.0
897.0
898.0
899.0
900.0
901.0
901.0
902.0
903.0
903.0
904.0
906.0
906.0
909.0
907.0
907.0
907.0
905.0
904.0
903.0
902.0
899.0
898.0
897.0
897.0
893.0
891.0
888.0
886.0
880.0
881.0
879.0
879.0
879.0
880.0
880.0
881.0
883.0
881.0
881.0
879.0
877.0
874.0
874.0
875.0
871.0
873.0
874.0
873.0
877.0
878.0
876.0
876.0
876.0
875.0
875.0
874.0
875.0
877.0
879.0
883.0
885.0
888.0
886.0
888.0
888.0
888.0
886.0
890.0
893.0
901.0
915.0
937.0
973.0
1021.0
1082.0
1153.0
1222.0
1280.0
1309.0
1301.0
1250.0
1158.0
1042.0
919.0
821.0
761.0
749.0
771.0
809.0
850.0
880.0
899.0
907.0
907.0
903.0
897.0
897.0
896.0
894.0
892.0
895.0
896.0
895.0
894.0
895.0
893.0
893.0
895.0
897.0
900.0
899.0
902.0
899.0
898.0
897.0
896.0
896.0
896.0
898.0
901.0
901.0
903.0
903.0
903.0
899.0
901.0
897.0
895.0
896.0
898.0
900.0
901.0
902.0
901.0
902.0
901.0
900.0
899.0
897.0
896.0
896.0
899.0
896.0
902.0
903.0
906.0
906.0
905.0
903.0
903.0
902.0
899.0
903.0
900.0
902.0
906.0
905.0
908.0
908.0
907.0
905.0
907.0
906.0
902.0
906.0
907.0
911.0
911.0
912.0
915.0
916.0
916.0
915.0
914.0
915.0
913.0
913.0
911.0
916.0
918.0
919.0
921.0
923.0
921.0
922.0
921.0
920.0
920.0
919.0
922.0
920.0
920.0
922.0
923.0
925.0
922.0
921.0
920.0
917.0
918.0
918.0
919.0
920.0
921.0
922.0
925.0
924.0
925.0
922.0
921.0
916.0
917.0
913.0
915.0
913.0
911.0
912.0
908.0
908.0
905.0
898.0
896.0
893.0
890.0
889.0
884.0
885.0
886.0
886.0
889.0
885.0
885.0
885.0
881.0
879.0
878.0
878.0
879.0
877.0
878.0
878.0
880.0
881.0
881.0
881.0
881.0
879.0
881.0
880.0
880.0
882.0
883.0
885.0
886.0
884.0
885.0
885.0
882.0
883.0
883.0
883.0
885.0
886.0
886.0
888.0
891.0
890.0
891.0
890.0
891.0
890.0
889.0
889.0
890.0
891.0
892.0
891.0
891.0
892.0
893.0
890.0
889.0
888.0
888.0
885.0
889.0
888.0
889.0
891.0
890.0
890.0
891.0
888.0
886.0
884.0
883.0
884.0
884.0
883.0
886.0
888.0
886.0
887.0
888.0
886.0
886.0
884.0
882.0
881.0
882.0
881.0
883.0
883.0
886.0
886.0
886.0
885.0
884.0
882.0
881.0
882.0
880.0
881.0
884.0
885.0
888.0
887.0
885.0
885.0
886.0
883.0
880.0
882.0
884.0
884.0
886.0
886.0
888.0
888.0
888.0
888.0
883.0
881.0
882.0
880.0
881.0
887.0
888.0
892.0
894.0
896.0
899.0
899.0
898.0
900.0
900.0
902.0
903.0
907.0
910.0
912.0
917.0
916.0
914.0
913.0
909.0
907.0
908.0
908.0
909.0
911.0
910.0
913.0
913.0
910.0
908.0
903.0
898.0
893.0
892.0
888.0
888.0
888.0
888.0
889.0
893.0
890.0
891.0
888.0
889.0
886.0
885.0
885.0
886.0
885.0
884.0
886.0
889.0
890.0
888.0
887.0
887.0
886.0
885.0
884.0
887.0
888.0
890.0
891.0
892.0
894.0
893.0
896.0
894.0
894.0
894.0
899.0
901.0
902.0
909.0
918.0
930.0
944.0
973.0
1010.0
1062.0
1124.0
1194.0
1260.0
1308.0
1322.0
1292.0
1208.0
1088.0
960.0
836.0
769.0
754.0
778.0
821.0
870.0
906.0
928.0
933.0
930.0
924.0
913.0
904.0
903.0
901.0
903.0
901.0
907.0
910.0
910.0
912.0
912.0
913.0
914.0
912.0
912.0
910.0
909.0
906.0
909.0
908.0
909.0
910.0
912.0
910.0
913.0
914.0
911.0
912.0
912.0
910.0
907.0
909.0
913.0
913.0
914.0
917.0
917.0
916.0
913.0
913.0
910.0
909.0
912.0
912.0
914.0
912.0
915.0
919.0
917.0
916.0
915.0
913.0
915.0
916.0
916.0
915.0
917.0
916.0
917.0
921.0
922.0
921.0
923.0
922.0
920.0
922.0
920.0
919.0
925.0
929.0
929.0
930.0
931.0
933.0
931.0
928.0
930.0
928.0
929.0
933.0
933.0
935.0
934.0
935.0
935.0
939.0
936.0
936.0
936.0
935.0
938.0
939.0
942.0
940.0
944.0
945.0
947.0
944.0
943.0
944.0
941.0
939.0
941.0
942.0
943.0
943.0
946.0
948.0
947.0
949.0
947.0
945.0
944.0
939.0
938.0
936.0
934.0
933.0
931.0
930.0
927.0
923.0
919.0
916.0
912.0
909.0
906.0
903.0
904.0
904.0
902.0
905.0
903.0
901.0
897.0
898.0
897.0
894.0
894.0
894.0
896.0
896.0
896.0
896.0
896.0
896.0
895.0
894.0
895.0
893.0
896.0
896.0
897.0
898.0
901.0
901.0
903.0
903.0
902.0
903.0
903.0
902.0
901.0
902.0
904.0
906.0
906.0
909.0
908.0
910.0
908.0
905.0
905.0
905.0
905.0
904.0
907.0
906.0
909.0
910.0
911.0
910.0
906.0
906.0
902.0
904.0
904.0
904.0
907.0
905.0
908.0
907.0
910.0
906.0
907.0
905.0
903.0
902.0
901.0
902.0
901.0
903.0
902.0
904.0
905.0
905.0
903.0
900.0
900.0
898.0
900.0
899.0
897.0
900.0
902.0
901.0
901.0
901.0
901.0
900.0
898.0
895.0
896.0
896.0
901.0
902.0
901.0
904.0
903.0
904.0
904.0
902.0
899.0
896.0
896.0
900.0
899.0
901.0
900.0
904.0
904.0
903.0
901.0
902.0
898.0
899.0
899.0
901.0
899.0
901.0
903.0
905.0
906.0
902.0
903.0
902.0
903.0
903.0
900.0
902.0
903.0
904.0
904.0
908.0
905.0
907.0
