# Simple Text Format
# Sampling Rate (Hz):= 360.00
# Resolution:= 12
# Labels:= ECG
910.0
907.0
909.0
910.0
908.0
907.0
907.0
905.0
906.0
907.0
909.0
910.0
910.0
912.0
910.0
910.0
910.0
909.0
909.0
910.0
909.0
908.0
910.0
912.0
916.0
915.0
916.0
916.0
914.0
915.0
914.0
914.0
911.0
911.0
913.0
913.0
914.0
916.0
920.0
917.0
916.0
913.0
908.0
905.0
907.0
910.0
911.0
915.0
913.0
915.0
913.0
911.0
911.0
908.0
907.0
905.0
905.0
905.0
909.0
908.0
911.0
906.0
906.0
904.0
903.0
903.0
902.0
902.0
903.0
903.0
906.0
905.0
906.0
906.0
906.0
903.0
904.0
902.0
899.0
899.0
899.0
901.0
901.0
905.0
906.0
904.0
901.0
903.0
902.0
900.0
900.0
897.0
899.0
898.0
901.0
901.0
904.0
904.0
904.0
900.0
897.0
899.0
898.0
898.0
900.0
901.0
903.0
904.0
906.0
906.0
903.0
902.0
899.0
900.0
898.0
898.0
898.0
899.0
903.0
904.0
906.0
909.0
910.0
913.0
914.0
915.0
916.0
918.0
916.0
919.0
922.0
926.0
926.0
932.0
934.0
935.0
935.0
934.0
931.0
927.0
928.0
926.0
930.0
931.0
931.0
932.0
929.0
927.0
921.0
916.0
911.0
905.0
905.0
903.0
901.0
902.0
903.0
906.0
905.0
903.0
902.0
899.0
898.0
896.0
895.0
896.0
896.0
897.0
899.0
900.0
899.0
899.0
899.0
898.0
897.0
896.0
896.0
899.0
901.0
902.0
907.0
905.0
908.0
908.0
907.0
907.0
908.0
906.0
908.0
909.0
914.0
916.0
923.0
932.0
944.0
966.0
998.0
1043.0
1105.0
1175.0
1249.0
1316.0
1361.0
1377.0
1349.0
1277.0
1162.0
1034.0
906.0
795.0
749.0
749.0
786.0
841.0
888.0
923.0
940.0
946.0
942.0
935.0
928.0
921.0
920.0
918.0
920.0
921.0
924.0
928.0
928.0
929.0
927.0
927.0
925.0
925.0
925.0
923.0
925.0
924.0
927.0
927.0
930.0
930.0
928.0
928.0
927.0
927.0
927.0
927.0
929.0
929.0
931.0
931.0
930.0
932.0
933.0
930.0
930.0
930.0
926.0
929.0
930.0
928.0
928.0
929.0
930.0
930.0
932.0
932.0
931.0
930.0
927.0
929.0
928.0
929.0
929.0
931.0
930.0
931.0
930.0
935.0
933.0
932.0
932.0
930.0
931.0
929.0
934.0
934.0
936.0
940.0
939.0
938.0
939.0
939.0
938.0
937.0
938.0
938.0
938.0
942.0
943.0
944.0
943.0
944.0
943.0
945.0
944.0
942.0
944.0
944.0
947.0
947.0
949.0
952.0
950.0
952.0
951.0
949.0
947.0
946.0
946.0
947.0
949.0
948.0
949.0
949.0
950.0
948.0
946.0
943.0
938.0
943.0
944.0
943.0
945.0
948.0
949.0
949.0
950.0
948.0
946.0
943.0
939.0
937.0
935.0
932.0
929.0
927.0
925.0
925.0
924.0
921.0
919.0
914.0
911.0
908.0
908.0
905.0
904.0
902.0
903.0
905.0
902.0
902.0
898.0
899.0
896.0
895.0
895.0
895.0
896.0
898.0
900.0
899.0
899.0
898.0
898.0
896.0
898.0
897.0
897.0
897.0
900.0
902.0
903.0
904.0
904.0
903.0
901.0
902.0
902.0
899.0
901.0
902.0
906.0
906.0
909.0
911.0
910.0
911.0
909.0
908.0
904.0
906.0
904.0
904.0
905.0
908.0
908.0
910.0
908.0
909.0
908.0
905.0
904.0
903.0
903.0
903.0
903.0
904.0
902.0
905.0
905.0
904.0
904.0
902.0
898.0
899.0
899.0
899.0
900.0
900.0
902.0
902.0
901.0
900.0
900.0
900.0
898.0
896.0
895.0
893.0
896.0
899.0
899.0
900.0
898.0
900.0
898.0
895.0
896.0
894.0
893.0
892.0
894.0
896.0
897.0
898.0
896.0
895.0
896.0
896.0
896.0
894.0
893.0
893.0
895.0
896.0
898.0
898.0
895.0
896.0
896.0
893.0
892.0
890.0
892.0
891.0
891.0
894.0
895.0
896.0
897.0
898.0
897.0
897.0
894.0
894.0
892.0
894.0
894.0
897.0
898.0
899.0
901.0
902.0
902.0
903.0
902.0
906.0
907.0
909.0
913.0
916.0
921.0
922.0
920.0
923.0
922.0
921.0
925.0
924.0
922.0
920.0
918.0
921.0
924.0
924.0
925.0
925.0
922.0
920.0
915.0
911.0
909.0
908.0
901.0
896.0
897.0
895.0
898.0
897.0
896.0
897.0
894.0
893.0
892.0
891.0
893.0
892.0
894.0
893.0
894.0
893.0
893.0
891.0
892.0
891.0
891.0
891.0
892.0
894.0
896.0
897.0
897.0
899.0
899.0
899.0
899.0
900.0
901.0
903.0
904.0
908.0
910.0
914.0
927.0
940.0
964.0
998.0
1045.0
1106.0
1182.0
1260.0
1328.0
1374.0
1383.0
1343.0
1253.0
1125.0
997.0
869.0
754.0
720.0
740.0
788.0
846.0
896.0
928.0
945.0
944.0
938.0
925.0
914.0
907.0
906.0
905.0
910.0
914.0
916.0
919.0
918.0
920.0
917.0
916.0
914.0
915.0
914.0
914.0
915.0
915.0
919.0
919.0
920.0
921.0
922.0
921.0
919.0
915.0
915.0
915.0
915.0
916.0
917.0
920.0
923.0
920.0
922.0
921.0
919.0
920.0
919.0
917.0
917.0
920.0
920.0
920.0
922.0
920.0
922.0
922.0
920.0
919.0
917.0
920.0
921.0
922.0
922.0
925.0
926.0
925.0
925.0
925.0
923.0
921.0
921.0
921.0
920.0
922.0
925.0
925.0
928.0
928.0
928.0
928.0
929.0
926.0
923.0
925.0
929.0
931.0
931.0
934.0
936.0
937.0
936.0
939.0
937.0
937.0
938.0
939.0
939.0
941.0
942.0
946.0
947.0
949.0
948.0
949.0
948.0
948.0
946.0
948.0
946.0
948.0
949.0
952.0
952.0
951.0
951.0
948.0
947.0
948.0
947.0
949.0
948.0
950.0
952.0
950.0
952.0
950.0
947.0
942.0
941.0
938.0
933.0
930.0
926.0
925.0
922.0
921.0
920.0
918.0
913.0
909.0
905.0
900.0
898.0
896.0
895.0
895.0
894.0
895.0
897.0
894.0
893.0
888.0
890.0
889.0
886.0
887.0
886.0
886.0
888.0
889.0
891.0
893.0
893.0
892.0
889.0
888.0
889.0
886.0
890.0
889.0
893.0
895.0
897.0
897.0
900.0
898.0
898.0
898.0
893.0
893.0
895.0
898.0
900.0
902.0
906.0
906.0
904.0
903.0
903.0
901.0
898.0
898.0
902.0
900.0
899.0
900.0
902.0
903.0
900.0
901.0
897.0
898.0
894.0
893.0
891.0
894.0
896.0
895.0
898.0
897.0
896.0
895.0
894.0
892.0
890.0
890.0
889.0
891.0
891.0
892.0
893.0
890.0
891.0
891.0
888.0
888.0
887.0
887.0
887.0
888.0
888.0
890.0
891.0
890.0
888.0
888.0
887.0
886.0
882.0
882.0
882.0
886.0
887.0
885.0
888.0
887.0
887.0
889.0
886.0
885.0
887.0
883.0
880.0
883.0
886.0
888.0
889.0
888.0
889.0
888.0
887.0
885.0
884.0
883.0
882.0
883.0
884.0
886.0
886.0
887.0
885.0
887.0
884.0
885.0
883.0
883.0
882.0
883.0
887.0
886.0
889.0
889.0
888.0
889.0
886.0
885.0
884.0
884.0
885.0
884.0
887.0
890.0
894.0
893.0
897.0
897.0
896.0
902.0
903.0
904.0
908.0
909.0
912.0
915.0
919.0
921.0
920.0
917.0
914.0
911.0
911.0
910.0
910.0
914.0
911.0
912.0
912.0
912.0
910.0
905.0
903.0
895.0
892.0
890.0
888.0
887.0
886.0
886.0
886.0
888.0
886.0
887.0
887.0
884.0
881.0
881.0
882.0
883.0
884.0
885.0
883.0
883.0
883.0
884.0
881.0
880.0
878.0
881.0
881.0
882.0
884.0
887.0
889.0
889.0
891.0
890.0
890.0
891.0
892.0
893.0
895.0
897.0
901.0
909.0
926.0
955.0
997.0
1056.0
1135.0
1219.0
1295.0
1343.0
1349.0
1298.0
1195.0
1067.0
939.0
811.0
730.0
721.0
752.0
804.0
854.0
893.0
918.0
930.0
925.0
920.0
910.0
906.0
898.0
899.0
898.0
900.0
902.0
903.0
906.0
904.0
908.0
908.0
909.0
908.0
905.0
905.0
904.0
904.0
904.0
905.0
904.0
906.0
906.0
907.0
909.0
911.0
910.0
909.0
908.0
907.0
906.0
907.0
908.0
907.0
910.0
908.0
908.0
909.0
910.0
911.0
910.0
908.0
904.0
907.0
906.0
909.0
911.0
911.0
912.0
912.0
911.0
908.0
910.0
910.0
909.0
909.0
910.0
909.0
911.0
913.0
913.0
913.0
914.0
911.0
912.0
912.0
912.0
909.0
909.0
909.0
913.0
913.0
916.0
917.0
916.0
919.0
919.0
918.0
918.0
915.0
919.0
919.0
921.0
922.0
924.0
922.0
923.0
923.0
921.0
923.0
921.0
923.0
923.0
927.0
928.0
928.0
932.0
931.0
930.0
931.0
930.0
930.0
928.0
927.0
927.0
928.0
928.0
930.0
933.0
931.0
931.0
931.0
932.0
931.0
929.0
931.0
930.0
930.0
931.0
935.0
935.0
933.0
930.0
927.0
924.0
920.0
915.0
913.0
910.0
911.0
909.0
906.0
903.0
904.0
901.0
898.0
893.0
892.0
888.0
887.0
884.0
887.0
886.0
885.0
887.0
886.0
886.0
886.0
884.0
885.0
881.0
882.0
883.0
884.0
886.0
886.0
890.0
890.0
888.0
889.0
886.0
886.0
886.0
884.0
888.0
889.0
889.0
890.0
892.0
894.0
894.0
893.0
893.0
891.0
891.0
892.0
892.0
893.0
894.0
896.0
897.0
899.0
898.0
897.0
895.0
895.0
893.0
889.0
892.0
893.0
896.0
896.0
897.0
898.0
896.0
897.0
894.0
892.0
890.0
888.0
887.0
887.0
887.0
888.0
889.0
889.0
889.0
889.0
887.0
887.0
885.0
883.0
885.0
886.0
888.0
888.0
889.0
887.0
888.0
888.0
885.0
883.0
884.0
883.0
882.0
882.0
884.0
885.0
885.0
886.0
883.0
884.0
881.0
880.0
882.0
881.0
880.0
881.0
883.0
882.0
886.0
884.0
884.0
883.0
882.0
881.0
880.0
880.0
882.0
879.0
880.0
880.0
885.0
886.0
884.0
884.0
882.0
882.0
880.0
879.0
880.0
881.0
881.0
882.0
884.0
884.0
884.0
882.0
882.0
880.0
879.0
879.0
878.0
879.0
882.0
882.0
881.0
885.0
883.0
885.0
885.0
887.0
887.0
889.0
892.0
896.0
898.0
902.0
906.0
907.0
908.0
908.0
907.0
910.0
909.0
912.0
911.0
910.0
912.0
913.0
916.0
917.0
915.0
914.0
913.0
911.0
909.0
906.0
903.0
904.0
901.0
897.0
896.0
893.0
891.0
886.0
883.0
885.0
882.0
883.0
883.0
883.0
884.0
884.0
884.0
884.0
879.0
881.0
879.0
878.0
877.0
878.0
876.0
875.0
877.0
881.0
883.0
884.0
881.0
881.0
881.0
882.0
880.0
880.0
881.0
882.0
885.0
888.0
889.0
893.0
894.0
890.0
892.0
891.0
892.0
893.0
905.0
920.0
946.0
982.0
1037.0
1109.0
1189.0
1267.0
1330.0
1364.0
1358.0
1301.0
1202.0
1074.0
946.0
818.0
746.0
723.0
739.0
784.0
831.0
871.0
898.0
910.0
913.0
913.0
911.0
910.0
909.0
907.0
908.0
907.0
903.0
905.0
903.0
904.0
905.0
905.0
907.0
907.0
908.0
909.0
906.0
909.0
910.0
910.0
909.0
909.0
907.0
911.0
912.0
912.0
912.0
915.0
914.0
914.0
914.0
912.0
912.0
911.0
910.0
912.0
912.0
915.0
916.0
918.0
914.0
915.0
914.0
912.0
912.0
911.0
912.0
914.0
916.0
915.0
920.0
916.0
919.0
918.0
918.0
915.0
914.0
915.0
915.0
919.0
919.0
920.0
921.0
924.0
923.0
925.0
922.0
920.0
918.0
916.0
918.0
917.0
919.0
921.0
920.0
925.0
924.0
924.0
923.0
922.0
923.0
924.0
924.0
925.0
924.0
926.0
928.0
927.0
929.0
929.0
931.0
930.0
930.0
927.0
928.0
930.0
930.0
931.0
929.0
934.0
936.0
936.0
936.0
934.0
934.0
932.0
933.0
932.0
934.0
935.0
936.0
936.0
936.0
935.0
934.0
934.0
933.0
934.0
933.0
933.0
934.0
934.0
935.0
934.0
931.0
928.0
923.0
921.0
917.0
913.0
909.0
907.0
907.0
907.0
905.0
904.0
902.0
901.0
897.0
896.0
893.0
890.0
892.0
891.0
893.0
890.0
893.0
895.0
894.0
891.0
891.0
890.0
886.0
890.0
891.0
890.0
893.0
893.0
895.0
896.0
896.0
897.0
897.0
895.0
895.0
892.0
894.0
895.0
894.0
893.0
899.0
898.0
900.0
899.0
897.0
899.0
898.0
896.0
896.0
898.0
902.0
903.0
904.0
904.0
904.0
904.0
900.0
901.0
899.0
899.0
896.0
894.0
895.0
898.0
901.0
900.0
898.0
898.0
896.0
896.0
893.0
890.0
891.0
893.0
893.0
895.0
895.0
895.0
893.0
891.0
890.0
890.0
890.0
887.0
888.0
888.0
890.0
891.0
892.0
893.0
889.0
888.0
887.0
886.0
884.0
886.0
884.0
886.0
886.0
888.0
887.0
889.0
888.0
887.0
887.0
888.0
885.0
886.0
886.0
883.0
885.0
885.0
886.0
890.0
892.0
888.0
887.0
888.0
884.0
885.0
885.0
886.0
888.0
890.0
892.0
892.0
891.0
894.0
894.0
894.0
895.0
895.0
896.0
900.0
902.0
904.0
907.0
914.0
914.0
916.0
918.0
919.0
919.0
917.0
917.0
913.0
914.0
914.0
916.0
917.0
919.0
915.0
915.0
914.0
911.0
909.0
905.0
902.0
904.0
898.0
896.0
895.0
894.0
892.0
890.0
889.0
887.0
884.0
885.0
887.0
889.0
887.0
888.0
889.0
887.0
889.0
886.0
885.0
885.0
886.0
884.0
884.0
886.0
887.0
887.0
889.0
890.0
890.0
887.0
886.0
886.0
889.0
889.0
891.0
896.0
898.0
899.0
903.0
903.0
905.0
905.0
910.0
918.0
936.0
966.0
1012.0
1075.0
1152.0
1237.0
1320.0
1372.0
1383.0
1337.0
1235.0
1107.0
979.0
851.0
734.0
718.0
747.0
800.0
856.0
897.0
920.0
930.0
929.0
923.0
917.0
909.0
906.0
907.0
907.0
911.0
911.0
911.0
911.0
913.0
912.0
910.0
908.0
911.0
909.0
914.0
913.0
914.0
916.0
916.0
916.0
915.0
914.0
914.0
914.0
911.0
913.0
915.0
916.0
918.0
918.0
917.0
915.0
915.0
916.0
914.0
911.0
914.0
916.0
915.0
917.0
918.0
917.0
920.0
918.0
917.0
917.0
917.0
917.0
915.0
917.0
919.0
919.0
923.0
921.0
922.0
923.0
921.0
922.0
919.0
918.0
917.0
919.0
922.0
924.0
926.0
927.0
928.0
929.0
927.0
927.0
926.0
927.0
926.0
926.0
930.0
928.0
932.0
932.0
931.0
934.0
934.0
934.0
933.0
932.0
931.0
935.0
936.0
938.0
940.0
940.0
940.0
941.0
941.0
939.0
940.0
938.0
939.0
938.0
941.0
944.0
943.0
947.0
946.0
945.0
946.0
944.0
942.0
941.0
941.0
940.0
941.0
942.0
941.0
942.0
943.0
944.0
942.0
938.0
932.0
927.0
925.0
922.0
923.0
919.0
917.0
915.0
911.0
912.0
908.0
903.0
900.0
897.0
894.0
894.0
894.0
895.0
894.0
897.0
894.0
894.0
891.0
890.0
889.0
888.0
887.0
887.0
889.0
892.0
892.0
893.0
890.0
890.0
891.0
892.0
893.0
891.0
892.0
893.0
895.0
894.0
898.0
898.0
900.0
899.0
900.0
897.0
899.0
899.0
895.0
898.0
902.0
902.0
904.0
905.0
906.0
903.0
905.0
903.0
901.0
900.0
898.0
898.0
899.0
901.0
899.0
900.0
902.0
902.0
900.0
898.0
897.0
895.0
896.0
897.0
896.0
896.0
895.0
898.0
896.0
895.0
894.0
895.0
892.0
889.0
890.0
890.0
890.0
889.0
891.0
893.0
890.0
890.0
890.0
890.0
891.0
888.0
887.0
891.0
889.0
889.0
890.0
892.0
891.0
891.0
890.0
890.0
889.0
890.0
888.0
887.0
888.0
889.0
891.0
894.0
892.0
894.0
892.0
890.0
888.0
889.0
890.0
888.0
888.0
887.0
890.0
891.0
890.0
890.0
886.0
888.0
887.0
885.0
886.0
886.0
889.0
888.0
890.0
893.0
891.0
892.0
892.0
891.0
889.0
888.0
887.0
887.0
887.0
890.0
890.0
892.0
890.0
891.0
890.0
891.0
890.0
889.0
889.0
892.0
895.0
899.0
902.0
905.0
903.0
908.0
911.0
912.0
909.0
911.0
913.0
914.0
916.0
921.0
924.0
924.0
923.0
923.0
918.0
918.0
916.0
917.0
917.0
918.0
919.0
917.0
916.0
919.0
917.0
914.0
909.0
904.0
901.0
896.0
893.0
892.0
894.0
894.0
894.0
895.0
896.0
896.0
892.0
893.0
891.0
889.0
889.0
888.0
889.0
889.0
890.0
892.0
892.0
891.0
889.0
891.0
886.0
887.0
885.0
888.0
890.0
891.0
894.0
896.0
897.0
898.0
899.0
901.0
902.0
901.0
902.0
906.0
920.0
941.0
975.0
1025.0
1092.0
1173.0
1253.0
1325.0
1366.0
1366.0
1311.0
1207.0
1079.0
951.0
823.0
741.0
723.0
748.0
796.0
849.0
889.0
913.0
927.0
929.0
927.0
921.0
914.0
914.0
912.0
909.0
909.0
909.0
911.0
911.0
911.0
911.0
909.0
912.0
914.0
915.0
916.0
915.0
915.0
914.0
914.0
912.0
909.0
911.0
912.0
912.0
916.0
917.0
917.0
916.0
915.0
914.0
914.0
913.0
911.0
912.0
915.0
915.0
916.0
918.0
917.0
916.0
918.0
915.0
917.0
913.0
914.0
914.0
915.0
916.0
919.0
918.0
918.0
918.0
917.0
915.0
915.0
916.0
915.0
917.0
918.0
920.0
921.0
922.0
924.0
923.0
923.0
921.0
918.0
921.0
921.0
921.0
920.0
925.0
926.0
927.0
928.0
929.0
928.0
927.0
928.0
926.0
929.0
927.0
928.0
930.0
930.0
931.0
930.0
932.0
932.0
932.0
932.0
930.0
931.0
930.0
932.0
932.0
933.0
936.0
935.0
934.0
935.0
933.0
931.0
931.0
928.0
929.0
932.0
932.0
934.0
935.0
937.0
936.0
936.0
938.0
936.0
936.0
931.0
930.0
926.0
925.0
926.0
925.0
922.0
919.0
914.0
912.0
909.0
902.0
900.0
900.0
900.0
898.0
899.0
897.0
898.0
895.0
894.0
895.0
891.0
889.0
889.0
890.0
888.0
890.0
888.0
892.0
890.0
893.0
892.0
892.0
889.0
891.0
885.0
890.0
890.0
893.0
891.0
895.0
896.0
896.0
895.0
895.0
893.0
892.0
892.0
894.0
894.0
896.0
897.0
900.0
902.0
900.0
900.0
898.0
897.0
895.0
897.0
897.0
899.0
902.0
903.0
901.0
901.0
902.0
900.0
897.0
897.0
894.0
893.0
894.0
895.0
898.0
900.0
899.0
900.0
900.0
897.0
895.0
896.0
893.0
894.0
894.0
891.0
896.0
896.0
893.0
898.0
897.0
896.0
895.0
894.0
891.0
891.0
890.0
891.0
891.0
890.0
894.0
895.0
894.0
893.0
889.0
888.0
887.0
887.0
888.0
891.0
889.0
890.0
894.0
893.0
894.0
893.0
893.0
892.0
891.0
891.0
890.0
891.0
891.0
894.0
894.0
894.0
894.0
890.0
890.0
889.0
889.0
885.0
888.0
889.0
891.0
891.0
893.0
894.0
895.0
892.0
890.0
889.0
888.0
887.0
887.0
885.0
887.0
889.0
889.0
894.0
896.0
893.0
893.0
893.0
891.0
890.0
890.0
893.0
893.0
899.0
899.0
903.0
906.0
910.0
908.0
909.0
910.0
912.0
914.0
916.0
917.0
921.0
925.0
927.0
923.0
923.0
920.0
921.0
919.0
917.0
920.0
920.0
922.0
920.0
920.0
918.0
914.0
910.0
904.0
900.0
896.0
893.0
892.0
892.0
893.0
895.0
896.0
896.0
896.0
894.0
892.0
890.0
888.0
888.0
886.0
887.0
888.0
889.0
890.0
888.0
891.0
892.0
893.0
891.0
890.0
890.0
894.0
894.0
897.0
897.0
900.0
903.0
905.0
908.0
908.0
912.0
914.0
925.0
948.0
980.0
1031.0
1097.0
1176.0
1257.0
1325.0
1362.0
1357.0
1300.0
1192.0
1064.0
936.0
808.0
731.0
729.0
763.0
820.0
869.0
909.0
929.0
934.0
927.0
922.0
916.0
912.0
909.0
909.0
913.0
918.0
918.0
919.0
914.0
915.0
911.0
913.0
911.0
914.0
915.0
916.0
919.0
920.0
920.0
922.0
919.0
919.0
917.0
919.0
917.0
917.0
917.0
920.0
920.0
923.0
922.0
923.0
922.0
922.0
922.0
919.0
920.0
920.0
920.0
922.0
922.0
923.0
922.0
922.0
922.0
921.0
919.0
917.0
920.0
918.0
922.0
925.0
926.0
926.0
926.0
927.0
925.0
921.0
921.0
919.0
920.0
921.0
923.0
927.0
931.0
932.0
932.0
929.0
927.0
929.0
927.0
927.0
927.0
927.0
928.0
931.0
930.0
935.0
935.0
935.0
935.0
931.0
932.0
933.0
932.0
933.0
931.0
934.0
935.0
937.0
939.0
939.0
943.0
940.0
936.0
937.0
936.0
936.0
938.0
937.0
939.0
940.0
939.0
939.0
937.0
937.0
934.0
933.0
934.0
934.0
937.0
937.0
935.0
936.0
937.0
936.0
938.0
938.0
936.0
937.0
936.0
936.0
935.0
932.0
930.0
928.0
925.0
923.0
920.0
917.0
914.0
910.0
908.0
907.0
908.0
905.0
904.0
906.0
906.0
905.0
904.0
901.0
901.0
899.0
899.0
899.0
899.0
899.0
899.0
899.0
898.0
897.0
897.0
897.0
895.0
896.0
898.0
898.0
900.0
900.0
905.0
905.0
907.0
903.0
906.0
902.0
903.0
901.0
899.0
902.0
905.0
905.0
909.0
910.0
910.0
911.0
909.0
910.0
909.0
906.0
907.0
907.0
910.0
911.0
912.0
913.0
912.0
910.0
910.0
908.0
908.0
906.0
905.0
905.0
906.0
907.0
907.0
908.0
906.0
905.0
905.0
904.0
903.0
902.0
901.0
901.0
901.0
903.0
904.0
905.0
906.0
904.0
904.0
904.0
899.0
900.0
897.0
897.0
898.0
899.0
900.0
904.0
902.0
900.0
900.0
899.0
896.0
896.0
896.0
895.0
901.0
901.0
902.0
903.0
901.0
901.0
898.0
896.0
896.0
892.0
892.0
896.0
898.0
898.0
898.0
900.0
899.0
900.0
897.0
896.0
895.0
894.0
894.0
894.0
899.0
900.0
903.0
906.0
908.0
911.0
913.0
914.0
915.0
915.0
917.0
920.0
922.0
926.0
928.0
931.0
932.0
932.0
927.0
922.0
924.0
923.0
925.0
926.0
927.0
925.0
926.0
927.0
923.0
922.0
918.0
914.0
908.0
904.0
899.0
897.0
899.0
900.0
901.0
903.0
903.0
903.0
900.0
898.0
893.0
892.0
895.0
895.0
896.0
897.0
898.0
899.0
895.0
897.0
893.0
894.0
893.0
893.0
893.0
896.0
896.0
897.0
899.0
901.0
901.0
901.0
897.0
904.0
903.0
904.0
905.0
907.0
909.0
914.0
925.0
941.0
970.0
1012.0
1065.0
1136.0
1218.0
1295.0
1355.0
1385.0
1367.0
1296.0
1175.0
1047.0
919.0
791.0
729.0
734.0
773.0
824.0
874.0
909.0
926.0
932.0
931.0
928.0
924.0
919.0
918.0
916.0
918.0
917.0
918.0
915.0
915.0
917.0
921.0
923.0
924.0
925.0
921.0
920.0
921.0
919.0
918.0
917.0
919.0
916.0
920.0
922.0
924.0
923.0
925.0
921.0
922.0
924.0
921.0
922.0
925.0
926.0
926.0
926.0
927.0
926.0
927.0
926.0
925.0
925.0
924.0
924.0
925.0
927.0
926.0
928.0
930.0
929.0
926.0
926.0
924.0
924.0
926.0
927.0
929.0
928.0
930.0
931.0
931.0
933.0
932.0
929.0
930.0
928.0
927.0
928.0
928.0
931.0
935.0
935.0
936.0
936.0
935.0
934.0
932.0
930.0
931.0
933.0
933.0
936.0
940.0
941.0
943.0
943.0
941.0
938.0
941.0
937.0
939.0
941.0
943.0
945.0
946.0
947.0
949.0
947.0
947.0
946.0
945.0
943.0
945.0
944.0
946.0
945.0
946.0
946.0
946.0
945.0
944.0
942.0
941.0
939.0
937.0
938.0
939.0
940.0
943.0
944.0
943.0
943.0
940.0
942.0
941.0
939.0
939.0
938.0
937.0
936.0
934.0
933.0
931.0
926.0
923.0
918.0
914.0
911.0
908.0
907.0
908.0
909.0
910.0
911.0
909.0
908.0
905.0
903.0
900.0
898.0
896.0
898.0
899.0
900.0
901.0
901.0
902.0
904.0
902.0
902.0
901.0
902.0
902.0
901.0
902.0
905.0
906.0
909.0
908.0
910.0
909.0
909.0
910.0
909.0
909.0
911.0
912.0
914.0
916.0
918.0
918.0
917.0
919.0
916.0
917.0
915.0
914.0
914.0
916.0
917.0
919.0
919.0
919.0
919.0
918.0
916.0
914.0
912.0
913.0
912.0
913.0
914.0
911.0
912.0
910.0
910.0
910.0
910.0
908.0
908.0
908.0
905.0
907.0
906.0
907.0
907.0
908.0
908.0
909.0
905.0
903.0
901.0
902.0
901.0
904.0
904.0
905.0
907.0
906.0
904.0
906.0
903.0
904.0
904.0
900.0
902.0
905.0
907.0
907.0
911.0
911.0
911.0
906.0
906.0
907.0
904.0
903.0
904.0
905.0
906.0
907.0
910.0
911.0
906.0
906.0
905.0
906.0
904.0
904.0
903.0
904.0
906.0
909.0
909.0
909.0
909.0
909.0
907.0
908.0
903.0
905.0
904.0
904.0
905.0
909.0
911.0
910.0
912.0
910.0
912.0
912.0
914.0
914.0
918.0
923.0
923.0
925.0
931.0
933.0
935.0
935.0
935.0
938.0
937.0
936.0
936.0
937.0
935.0
936.0
939.0
938.0
937.0
936.0
935.0
933.0
931.0
929.0
927.0
923.0
921.0
918.0
916.0
916.0
913.0
912.0
910.0
909.0
907.0
908.0
907.0
908.0
908.0
908.0
910.0
910.0
910.0
907.0
906.0
906.0
905.0
904.0
906.0
903.0
907.0
909.0
910.0
910.0
911.0
912.0
911.0
911.0
912.0
913.0
914.0
917.0
920.0
923.0
927.0
928.0
940.0
961.0
999.0
1057.0
1137.0
1226.0
1313.0
1376.0
1393.0
1352.0
1256.0
1128.0
1000.0
872.0
749.0
729.0
758.0
808.0
864.0
912.0
941.0
955.0
956.0
950.0
941.0
932.0
924.0
919.0
921.0
922.0
924.0
927.0
929.0
933.0
934.0
931.0
930.0
931.0
931.0
930.0
929.0
930.0
929.0
931.0
930.0
931.0
933.0
936.0
934.0
934.0
933.0
932.0
931.0
931.0
931.0
933.0
933.0
934.0
938.0
938.0
937.0
936.0
936.0
932.0
930.0
933.0
932.0
933.0
932.0
934.0
939.0
939.0
936.0
936.0
936.0
935.0
933.0
933.0
934.0
937.0
939.0
939.0
941.0
940.0
939.0
938.0
939.0
938.0
939.0
939.0
940.0
938.0
941.0
942.0
946.0
946.0
946.0
946.0
944.0
945.0
942.0
945.0
944.0
947.0
948.0
951.0
952.0
951.0
951.0
951.0
949.0
952.0
951.0
951.0
950.0
953.0
955.0
958.0
958.0
959.0
960.0
960.0
960.0
959.0
957.0
956.0
957.0
959.0
958.0
962.0
961.0
963.0
958.0
962.0
957.0
956.0
955.0
958.0
959.0
957.0
960.0
961.0
960.0
961.0
960.0
959.0
954.0
951.0
948.0
944.0
942.0
941.0
937.0
933.0
933.0
932.0
928.0
923.0
920.0
920.0
916.0
916.0
917.0
916.0
914.0
917.0
916.0
915.0
916.0
914.0
911.0
911.0
908.0
908.0
911.0
910.0
911.0
909.0
913.0
913.0
914.0
911.0
914.0
913.0
912.0
911.0
912.0
914.0
915.0
918.0
920.0
919.0
918.0
918.0
919.0
919.0
919.0
917.0
920.0
920.0
923.0
923.0
926.0
926.0
927.0
925.0
923.0
921.0
921.0
920.0
922.0
923.0
924.0
925.0
926.0
925.0
925.0
925.0
923.0
920.0
920.0
919.0
917.0
919.0
919.0
918.0
921.0
921.0
921.0
919.0
917.0
915.0
914.0
912.0
914.0
914.0
916.0
916.0
919.0
918.0
917.0
913.0
911.0
911.0
909.0
909.0
910.0
909.0
910.0
912.0
914.0
914.0
913.0
914.0
912.0
913.0
911.0
911.0
911.0
909.0
914.0
914.0
917.0
917.0
912.0
914.0
911.0
911.0
911.0
910.0
910.0
908.0
911.0
913.0
912.0
913.0
914.0
914.0
910.0
910.0
909.0
908.0
912.0
913.0
914.0
916.0
916.0
917.0
918.0
915.0
915.0
913.0
910.0
911.0
908.0
910.0
915.0
914.0
917.0
918.0
922.0
926.0
925.0
926.0
925.0
928.0
928.0
932.0
935.0
937.0
941.0
943.0
944.0
945.0
945.0
940.0
938.0
932.0
936.0
936.0
939.0
942.0
940.0
939.0
937.0
939.0
935.0
932.0
926.0
924.0
920.0
918.0
915.0
914.0
915.0
917.0
916.0
919.0
914.0
914.0
911.0
909.0
911.0
911.0
911.0
912.0
912.0
915.0
914.0
913.0
911.0
908.0
909.0
908.0
910.0
909.0
911.0
913.0
915.0
916.0
916.0
915.0
914.0
914.0
915.0
918.0
922.0
924.0
931.0
940.0
956.0
989.0
1028.0
1092.0
1162.0
1245.0
1322.0
1374.0
1389.0
1355.0
1274.0
1152.0
1024.0
896.0
781.0
742.0
755.0
794.0
849.0
895.0
928.0
946.0
952.0
949.0
945.0
935.0
930.0
928.0
929.0
929.0
930.0
930.0
932.0
932.0
933.0
933.0
933.0
935.0
933.0
933.0
933.0
934.0
930.0
930.0
934.0
934.0
933.0
934.0
936.0
937.0
936.0
937.0
935.0
934.0
936.0
934.0
935.0
934.0
937.0
936.0
941.0
940.0
940.0
939.0
938.0
937.0
936.0
936.0
935.0
