# Simple Text Format
# Sampling Rate (Hz):= 360.00
# Resolution:= 12
# Labels:= ECG
936.0
937.0
939.0
940.0
943.0
942.0
943.0
939.0
938.0
937.0
938.0
937.0
937.0
938.0
940.0
942.0
944.0
942.0
940.0
943.0
943.0
941.0
938.0
939.0
940.0
943.0
943.0
945.0
946.0
946.0
946.0
946.0
943.0
944.0
945.0
945.0
946.0
948.0
946.0
952.0
952.0
952.0
953.0
952.0
952.0
951.0
951.0
952.0
952.0
953.0
954.0
956.0
960.0
957.0
956.0
956.0
954.0
952.0
952.0
954.0
952.0
951.0
954.0
954.0
955.0
954.0
955.0
953.0
953.0
950.0
952.0
951.0
955.0
955.0
956.0
958.0
955.0
956.0
954.0
950.0
946.0
942.0
940.0
936.0
935.0
933.0
931.0
930.0
929.0
925.0
923.0
922.0
918.0
919.0
917.0
914.0
915.0
914.0
916.0
916.0
913.0
914.0
913.0
913.0
911.0
913.0
911.0
912.0
913.0
913.0
914.0
916.0
915.0
917.0
916.0
916.0
916.0
914.0
913.0
912.0
912.0
912.0
916.0
917.0
921.0
922.0
922.0
920.0
919.0
920.0
918.0
919.0
920.0
922.0
925.0
928.0
930.0
930.0
927.0
929.0
927.0
923.0
922.0
921.0
920.0
921.0
921.0
924.0
923.0
924.0
922.0
922.0
918.0
919.0
919.0
917.0
918.0
919.0
920.0
921.0
920.0
920.0
919.0
920.0
917.0
915.0
916.0
913.0
914.0
914.0
915.0
915.0
914.0
913.0
916.0
914.0
913.0
912.0
911.0
909.0
912.0
912.0
913.0
915.0
915.0
911.0
913.0
911.0
909.0
907.0
907.0
907.0
910.0
910.0
909.0
910.0
912.0
914.0
914.0
913.0
913.0
912.0
909.0
910.0
909.0
910.0
910.0
911.0
915.0
912.0
913.0
910.0
911.0
910.0
908.0
907.0
912.0
912.0
912.0
913.0
915.0
915.0
917.0
915.0
913.0
914.0
917.0
918.0
920.0
921.0
927.0
931.0
933.0
935.0
935.0
938.0
938.0
938.0
939.0
940.0
941.0
940.0
939.0
940.0
939.0
940.0
941.0
941.0
937.0
935.0
934.0
932.0
929.0
928.0
927.0
923.0
921.0
917.0
915.0
910.0
910.0
907.0
907.0
903.0
905.0
907.0
908.0
909.0
909.0
909.0
907.0
907.0
907.0
903.0
903.0
904.0
903.0
903.0
905.0
907.0
909.0
909.0
908.0
907.0
907.0
903.0
906.0
906.0
905.0
909.0
911.0
915.0
919.0
920.0
919.0
920.0
919.0
920.0
926.0
939.0
963.0
1001.0
1049.0
1109.0
1182.0
1257.0
1322.0
1366.0
1376.0
1349.0
1275.0
1165.0
1037.0
909.0
797.0
742.0
742.0
775.0
827.0
876.0
908.0
929.0
935.0
935.0
933.0
929.0
927.0
926.0
926.0
925.0
927.0
925.0
926.0
926.0
924.0
922.0
924.0
926.0
927.0
928.0
931.0
929.0
931.0
930.0
927.0
929.0
925.0
924.0
927.0
928.0
929.0
931.0
934.0
933.0
931.0
932.0
933.0
933.0
930.0
930.0
931.0
933.0
934.0
934.0
935.0
935.0
935.0
934.0
935.0
934.0
931.0
932.0
931.0
933.0
934.0
935.0
938.0
938.0
936.0
935.0
935.0
934.0
934.0
933.0
933.0
934.0
934.0
935.0
939.0
939.0
941.0
939.0
940.0
938.0
938.0
938.0
938.0
941.0
941.0
944.0
943.0
945.0
944.0
946.0
945.0
942.0
944.0
943.0
944.0
945.0
946.0
946.0
951.0
950.0
950.0
951.0
949.0
948.0
948.0
945.0
944.0
949.0
951.0
953.0
954.0
953.0
953.0
950.0
948.0
947.0
945.0
944.0
944.0
943.0
946.0
946.0
945.0
946.0
946.0
945.0
943.0
940.0
941.0
944.0
944.0
945.0
948.0
945.0
947.0
946.0
942.0
939.0
935.0
932.0
928.0
925.0
924.0
923.0
924.0
923.0
921.0
919.0
918.0
915.0
913.0
908.0
906.0
906.0
906.0
908.0
908.0
910.0
911.0
910.0
909.0
908.0
907.0
901.0
904.0
904.0
905.0
904.0
906.0
908.0
911.0
911.0
913.0
911.0
913.0
911.0
911.0
910.0
910.0
914.0
915.0
915.0
918.0
920.0
921.0
921.0
918.0
917.0
917.0
917.0
915.0
916.0
918.0
920.0
921.0
918.0
918.0
916.0
916.0
914.0
915.0
913.0
911.0
913.0
915.0
915.0
912.0
914.0
914.0
914.0
910.0
910.0
904.0
909.0
906.0
908.0
910.0
910.0
911.0
910.0
910.0
910.0
906.0
906.0
905.0
904.0
904.0
904.0
902.0
905.0
910.0
910.0
909.0
906.0
906.0
904.0
905.0
903.0
903.0
906.0
904.0
905.0
908.0
908.0
908.0
904.0
905.0
904.0
904.0
903.0
904.0
903.0
904.0
907.0
908.0
905.0
904.0
902.0
901.0
901.0
901.0
902.0
906.0
907.0
911.0
911.0
915.0
918.0
921.0
922.0
922.0
920.0
923.0
926.0
925.0
931.0
935.0
935.0
940.0
938.0
935.0
935.0
935.0
936.0
936.0
934.0
935.0
937.0
934.0
935.0
934.0
933.0
928.0
924.0
921.0
913.0
910.0
907.0
907.0
908.0
907.0
911.0
913.0
912.0
912.0
911.0
907.0
905.0
904.0
908.0
905.0
908.0
908.0
907.0
911.0
910.0
910.0
909.0
909.0
906.0
908.0
908.0
908.0
911.0
914.0
916.0
918.0
917.0
918.0
917.0
918.0
919.0
921.0
921.0
926.0
933.0
945.0
967.0
998.0
1042.0
1099.0
1176.0
1253.0
1330.0
1384.0
1400.0
1370.0
1289.0
1165.0
1037.0
909.0
792.0
747.0
755.0
796.0
850.0
899.0
931.0
951.0
956.0
957.0
952.0
949.0
944.0
940.0
940.0
938.0
938.0
938.0
938.0
939.0
942.0
944.0
944.0
948.0
943.0
944.0
942.0
944.0
946.0
945.0
947.0
944.0
946.0
948.0
951.0
953.0
950.0
949.0
947.0
949.0
949.0
948.0
951.0
949.0
951.0
951.0
954.0
955.0
956.0
955.0
958.0
953.0
952.0
955.0
954.0
953.0
952.0
955.0
958.0
959.0
961.0
961.0
959.0
959.0
959.0
960.0
960.0
960.0
962.0
964.0
963.0
964.0
967.0
970.0
968.0
966.0
966.0
967.0
968.0
968.0
971.0
970.0
973.0
976.0
977.0
977.0
977.0
977.0
976.0
977.0
976.0
978.0
979.0
982.0
984.0
986.0
988.0
989.0
990.0
989.0
989.0
989.0
988.0
989.0
992.0
992.0
995.0
997.0
998.0
999.0
998.0
996.0
995.0
995.0
994.0
995.0
996.0
998.0
998.0
1000.0
999.0
999.0
997.0
999.0
998.0
997.0
998.0
998.0
999.0
1001.0
1000.0
1002.0
998.0
998.0
994.0
990.0
985.0
982.0
978.0
976.0
975.0
973.0
968.0
969.0
968.0
967.0
965.0
962.0
960.0
961.0
958.0
958.0
958.0
957.0
960.0
959.0
962.0
961.0
959.0
960.0
958.0
957.0
956.0
958.0
958.0
962.0
962.0
965.0
968.0
966.0
965.0
965.0
965.0
964.0
965.0
965.0
966.0
972.0
968.0
972.0
975.0
976.0
975.0
976.0
975.0
972.0
971.0
971.0
973.0
975.0
977.0
980.0
979.0
979.0
978.0
975.0
974.0
972.0
972.0
972.0
974.0
976.0
973.0
977.0
977.0
976.0
977.0
973.0
973.0
974.0
972.0
971.0
972.0
971.0
969.0
973.0
972.0
976.0
971.0
972.0
969.0
970.0
969.0
968.0
969.0
968.0
972.0
974.0
975.0
973.0
974.0
973.0
969.0
968.0
969.0
970.0
972.0
971.0
971.0
974.0
974.0
974.0
975.0
973.0
972.0
972.0
969.0
968.0
967.0
969.0
970.0
973.0
975.0
976.0
977.0
973.0
974.0
974.0
971.0
973.0
973.0
975.0
977.0
979.0
979.0
978.0
978.0
978.0
973.0
975.0
972.0
973.0
978.0
979.0
983.0
987.0
991.0
993.0
995.0
997.0
998.0
996.0
999.0
999.0
1005.0
1007.0
1006.0
1006.0
1006.0
1004.0
1003.0
1003.0
1001.0
1001.0
999.0
1000.0
998.0
997.0
995.0
996.0
994.0
989.0
986.0
983.0
979.0
975.0
971.0
972.0
974.0
972.0
973.0
976.0
977.0
975.0
976.0
971.0
970.0
968.0
968.0
969.0
971.0
971.0
973.0
976.0
976.0
973.0
975.0
974.0
972.0
972.0
971.0
973.0
973.0
974.0
974.0
978.0
979.0
979.0
981.0
982.0
982.0
982.0
983.0
990.0
995.0
1012.0
1035.0
1078.0
1136.0
1210.0
1290.0
1363.0
1411.0
1420.0
1377.0
1279.0
1151.0
1023.0
895.0
813.0
803.0
841.0
900.0
955.0
996.0
1018.0
1026.0
1021.0
1009.0
1000.0
992.0
990.0
991.0
995.0
997.0
996.0
998.0
996.0
996.0
995.0
994.0
996.0
997.0
997.0
998.0
996.0
997.0
998.0
997.0
996.0
995.0
994.0
996.0
998.0
998.0
1001.0
999.0
999.0
998.0
999.0
998.0
995.0
995.0
995.0
994.0
996.0
996.0
998.0
997.0
996.0
993.0
996.0
997.0
994.0
993.0
989.0
993.0
993.0
994.0
998.0
999.0
997.0
996.0
996.0
996.0
997.0
997.0
997.0
998.0
998.0
1001.0
1003.0
1003.0
1001.0
1001.0
1001.0
1000.0
999.0
1001.0
1001.0
1002.0
1003.0
1002.0
1006.0
1006.0
1007.0
1007.0
1007.0
1006.0
1005.0
1004.0
1003.0
1006.0
1007.0
1007.0
1009.0
1010.0
1008.0
1009.0
1008.0
1007.0
1006.0
1005.0
1006.0
1005.0
1007.0
1006.0
1006.0
1009.0
1008.0
1008.0
1007.0
1004.0
1003.0
1000.0
1002.0
1003.0
1005.0
1008.0
1009.0
1011.0
1011.0
1010.0
1007.0
1003.0
1000.0
999.0
998.0
996.0
995.0
995.0
994.0
991.0
987.0
987.0
983.0
974.0
972.0
970.0
969.0
967.0
968.0
965.0
969.0
968.0
967.0
966.0
966.0
965.0
962.0
963.0
963.0
963.0
962.0
963.0
966.0
965.0
963.0
961.0
963.0
963.0
963.0
962.0
965.0
966.0
968.0
967.0
970.0
970.0
969.0
968.0
968.0
969.0
966.0
966.0
964.0
965.0
967.0
967.0
969.0
969.0
972.0
969.0
968.0
971.0
967.0
966.0
966.0
966.0
968.0
970.0
971.0
971.0
970.0
969.0
967.0
967.0
963.0
963.0
962.0
961.0
964.0
962.0
962.0
960.0
960.0
960.0
961.0
957.0
958.0
954.0
954.0
957.0
959.0
958.0
958.0
959.0
959.0
958.0
954.0
954.0
954.0
951.0
952.0
953.0
954.0
953.0
953.0
954.0
953.0
953.0
951.0
950.0
948.0
949.0
947.0
946.0
947.0
950.0
953.0
953.0
953.0
949.0
945.0
946.0
944.0
943.0
944.0
943.0
944.0
947.0
947.0
949.0
948.0
949.0
948.0
946.0
946.0
946.0
945.0
946.0
945.0
944.0
947.0
949.0
950.0
948.0
946.0
943.0
942.0
937.0
943.0
944.0
946.0
945.0
948.0
950.0
949.0
954.0
954.0
955.0
956.0
956.0
957.0
961.0
964.0
966.0
967.0
972.0
975.0
974.0
974.0
973.0
971.0
967.0
966.0
966.0
969.0
970.0
970.0
970.0
967.0
966.0
964.0
959.0
955.0
949.0
947.0
943.0
940.0
941.0
940.0
942.0
938.0
939.0
939.0
939.0
938.0
935.0
931.0
934.0
934.0
935.0
933.0
935.0
935.0
932.0
931.0
930.0
930.0
928.0
930.0
929.0
931.0
933.0
934.0
935.0
936.0
936.0
937.0
936.0
935.0
935.0
935.0
938.0
941.0
942.0
948.0
956.0
970.0
996.0
1036.0
1098.0
1176.0
1263.0
1335.0
1370.0
1345.0
1254.0
1126.0
998.0
870.0
765.0
756.0
792.0
850.0
905.0
947.0
970.0
975.0
971.0
963.0
952.0
944.0
940.0
939.0
940.0
945.0
945.0
947.0
949.0
949.0
950.0
950.0
952.0
951.0
951.0
949.0
948.0
948.0
945.0
946.0
946.0
948.0
950.0
951.0
952.0
951.0
950.0
950.0
950.0
948.0
948.0
945.0
948.0
948.0
949.0
950.0
953.0
952.0
954.0
950.0
948.0
947.0
947.0
946.0
946.0
950.0
950.0
953.0
953.0
950.0
952.0
952.0
952.0
950.0
948.0
949.0
947.0
954.0
953.0
956.0
957.0
955.0
956.0
955.0
954.0
952.0
950.0
952.0
951.0
953.0
956.0
954.0
954.0
956.0
956.0
956.0
953.0
951.0
954.0
956.0
957.0
959.0
958.0
958.0
960.0
960.0
959.0
959.0
958.0
957.0
956.0
956.0
956.0
956.0
961.0
959.0
962.0
961.0
960.0
957.0
957.0
954.0
954.0
953.0
952.0
953.0
953.0
956.0
956.0
956.0
958.0
956.0
953.0
955.0
953.0
953.0
952.0
952.0
954.0
956.0
953.0
949.0
947.0
943.0
940.0
934.0
931.0
927.0
926.0
925.0
925.0
924.0
926.0
923.0
923.0
918.0
917.0
914.0
910.0
910.0
908.0
908.0
910.0
914.0
913.0
914.0
913.0
910.0
907.0
908.0
907.0
907.0
909.0
910.0
913.0
911.0
914.0
915.0
914.0
913.0
912.0
913.0
912.0
911.0
913.0
915.0
917.0
916.0
916.0
921.0
921.0
918.0
919.0
916.0
919.0
917.0
919.0
920.0
918.0
920.0
923.0
921.0
920.0
913.0
915.0
917.0
914.0
914.0
915.0
915.0
916.0
916.0
917.0
918.0
915.0
915.0
914.0
911.0
909.0
909.0
909.0
907.0
908.0
909.0
911.0
911.0
910.0
908.0
906.0
904.0
905.0
905.0
904.0
905.0
907.0
907.0
908.0
905.0
906.0
906.0
904.0
905.0
902.0
903.0
902.0
902.0
903.0
903.0
904.0
903.0
903.0
903.0
902.0
900.0
901.0
900.0
901.0
901.0
901.0
902.0
905.0
905.0
907.0
905.0
901.0
902.0
902.0
900.0
903.0
906.0
907.0
911.0
913.0
915.0
918.0
922.0
921.0
921.0
920.0
923.0
923.0
925.0
929.0
932.0
934.0
935.0
933.0
934.0
932.0
931.0
931.0
930.0
930.0
930.0
927.0
926.0
924.0
922.0
918.0
914.0
908.0
902.0
901.0
897.0
896.0
896.0
898.0
899.0
902.0
899.0
901.0
901.0
899.0
898.0
896.0
898.0
896.0
897.0
897.0
900.0
901.0
899.0
900.0
900.0
900.0
899.0
897.0
896.0
897.0
899.0
902.0
903.0
906.0
906.0
910.0
910.0
909.0
911.0
912.0
917.0
928.0
946.0
978.0
1018.0
1074.0
1144.0
1220.0
1291.0
1344.0
1367.0
1346.0
1278.0
1167.0
1039.0
911.0
783.0
730.0
734.0
778.0
832.0
884.0
920.0
938.0
944.0
939.0
933.0
924.0
917.0
917.0
917.0
920.0
922.0
924.0
923.0
924.0
923.0
921.0
923.0
921.0
925.0
924.0
923.0
924.0
924.0
923.0
925.0
926.0
924.0
923.0
923.0
924.0
928.0
930.0
930.0
929.0
931.0
929.0
926.0
927.0
928.0
927.0
928.0
928.0
929.0
931.0
929.0
930.0
929.0
929.0
929.0
927.0
926.0
927.0
929.0
931.0
934.0
933.0
935.0
932.0
931.0
931.0
932.0
928.0
928.0
930.0
930.0
933.0
935.0
933.0
936.0
934.0
935.0
934.0
933.0
934.0
934.0
933.0
937.0
937.0
938.0
938.0
942.0
941.0
940.0
940.0
939.0
937.0
935.0
939.0
939.0
941.0
944.0
947.0
947.0
946.0
946.0
944.0
943.0
942.0
943.0
940.0
944.0
943.0
944.0
944.0
947.0
945.0
945.0
943.0
940.0
938.0
937.0
937.0
937.0
938.0
939.0
939.0
939.0
939.0
940.0
939.0
937.0
934.0
934.0
936.0
938.0
939.0
938.0
939.0
938.0
935.0
934.0
928.0
927.0
924.0
921.0
915.0
917.0
915.0
915.0
912.0
912.0
910.0
906.0
906.0
906.0
902.0
901.0
901.0
901.0
901.0
900.0
900.0
901.0
900.0
901.0
900.0
898.0
897.0
896.0
897.0
897.0
900.0
901.0
902.0
906.0
904.0
904.0
904.0
904.0
902.0
901.0
902.0
904.0
908.0
907.0
911.0
911.0
911.0
910.0
910.0
908.0
907.0
905.0
906.0
907.0
909.0
908.0
911.0
912.0
910.0
909.0
907.0
905.0
904.0
905.0
904.0
904.0
904.0
907.0
907.0
907.0
906.0
906.0
903.0
901.0
902.0
899.0
897.0
899.0
898.0
901.0
901.0
901.0
899.0
899.0
898.0
898.0
896.0
895.0
895.0
895.0
897.0
895.0
895.0
896.0
897.0
897.0
895.0
893.0
894.0
892.0
891.0
891.0
893.0
892.0
896.0
895.0
894.0
893.0
893.0
892.0
890.0
890.0
889.0
890.0
891.0
891.0
891.0
894.0
893.0
893.0
893.0
889.0
892.0
890.0
889.0
890.0
892.0
892.0
895.0
895.0
896.0
897.0
896.0
898.0
900.0
901.0
901.0
906.0
910.0
911.0
915.0
919.0
920.0
919.0
918.0
920.0
919.0
917.0
915.0
913.0
916.0
915.0
919.0
918.0
918.0
915.0
914.0
913.0
909.0
904.0
902.0
903.0
898.0
897.0
894.0
893.0
891.0
891.0
890.0
889.0
886.0
886.0
886.0
888.0
890.0
888.0
888.0
889.0
888.0
890.0
885.0
885.0
884.0
884.0
882.0
883.0
885.0
885.0
889.0
892.0
892.0
892.0
891.0
891.0
891.0
893.0
894.0
897.0
898.0
899.0
906.0
919.0
935.0
965.0
1009.0
1065.0
1140.0
1224.0
1297.0
1354.0
1367.0
1336.0
1248.0
1122.0
994.0
866.0
739.0
702.0
718.0
769.0
826.0
876.0
911.0
929.0
933.0
929.0
918.0
910.0
904.0
898.0
897.0
900.0
899.0
902.0
903.0
905.0
907.0
907.0
908.0
907.0
905.0
907.0
906.0
906.0
906.0
908.0
909.0
910.0
910.0
912.0
909.0
908.0
907.0
909.0
905.0
906.0
906.0
908.0
909.0
911.0
911.0
910.0
911.0
911.0
909.0
907.0
908.0
906.0
907.0
907.0
909.0
909.0
913.0
912.0
912.0
910.0
909.0
909.0
910.0
910.0
911.0
912.0
914.0
913.0
916.0
915.0
916.0
914.0
914.0
914.0
914.0
913.0
914.0
913.0
914.0
915.0
916.0
919.0
918.0
918.0
917.0
917.0
917.0
919.0
916.0
919.0
919.0
920.0
921.0
922.0
923.0
924.0
923.0
923.0
924.0
924.0
926.0
925.0
925.0
926.0
929.0
930.0
929.0
932.0
927.0
927.0
926.0
922.0
925.0
924.0
923.0
925.0
926.0
929.0
928.0
928.0
925.0
929.0
925.0
925.0
927.0
925.0
926.0
926.0
925.0
925.0
922.0
922.0
917.0
915.0
911.0
907.0
904.0
901.0
899.0
897.0
896.0
894.0
893.0
889.0
885.0
883.0
882.0
881.0
882.0
881.0
876.0
880.0
878.0
884.0
880.0
877.0
878.0
878.0
874.0
874.0
877.0
875.0
877.0
878.0
878.0
880.0
881.0
881.0
878.0
878.0
876.0
878.0
879.0
880.0
882.0
883.0
883.0
888.0
889.0
887.0
889.0
887.0
886.0
884.0
885.0
883.0
887.0
888.0
887.0
889.0
890.0
890.0
889.0
886.0
886.0
884.0
883.0
884.0
884.0
883.0
886.0
887.0
885.0
883.0
881.0
880.0
877.0
873.0
874.0
876.0
877.0
877.0
877.0
877.0
878.0
876.0
873.0
874.0
874.0
873.0
872.0
869.0
871.0
871.0
874.0
876.0
874.0
872.0
870.0
872.0
869.0
868.0
869.0
869.0
872.0
874.0
873.0
874.0
873.0
874.0
871.0
871.0
868.0
867.0
867.0
868.0
869.0
869.0
871.0
868.0
869.0
869.0
869.0
868.0
866.0
867.0
864.0
865.0
866.0
867.0
869.0
870.0
868.0
868.0
868.0
869.0
866.0
867.0
866.0
867.0
870.0
871.0
874.0
874.0
878.0
878.0
880.0
881.0
883.0
886.0
885.0
888.0
890.0
891.0
893.0
895.0
896.0
899.0
896.0
895.0
892.0
890.0
889.0
889.0
890.0
891.0
893.0
893.0
891.0
889.0
884.0
877.0
873.0
870.0
868.0
866.0
867.0
867.0
866.0
869.0
867.0
866.0
865.0
864.0
861.0
859.0
859.0
859.0
859.0
858.0
860.0
863.0
861.0
862.0
860.0
860.0
857.0
857.0
857.0
859.0
861.0
862.0
864.0
865.0
869.0
869.0
870.0
870.0
871.0
871.0
874.0
880.0
891.0
911.0
939.0
979.0
1035.0
1105.0
1181.0
1252.0
1309.0
1330.0
1308.0
1234.0
1115.0
987.0
859.0
733.0
688.0
697.0
739.0
793.0
839.0
874.0
892.0
899.0
895.0
890.0
886.0
883.0
879.0
874.0
876.0
879.0
877.0
878.0
876.0
877.0
880.0
881.0
882.0
883.0
881.0
881.0
879.0
876.0
878.0
879.0
879.0
879.0
882.0
881.0
882.0
885.0
885.0
884.0
884.0
883.0
881.0
880.0
881.0
880.0
880.0
880.0
881.0
882.0
884.0
883.0
883.0
882.0
881.0
880.0
880.0
881.0
883.0
883.0
884.0
884.0
886.0
886.0
884.0
884.0
883.0
883.0
882.0
884.0
883.0
884.0
887.0
889.0
890.0
890.0
889.0
887.0
887.0
886.0
888.0
887.0
888.0
889.0
891.0
893.0
893.0
893.0
892.0
891.0
890.0
891.0
889.0
889.0
891.0
891.0
895.0
895.0
897.0
897.0
896.0
897.0
894.0
893.0
893.0
894.0
896.0
895.0
898.0
897.0
896.0
895.0
897.0
894.0
891.0
889.0
887.0
890.0
889.0
893.0
892.0
895.0
896.0
899.0
898.0
898.0
896.0
893.0
894.0
891.0
890.0
891.0
887.0
890.0
888.0
887.0
883.0
879.0
876.0
874.0
870.0
868.0
867.0
863.0
866.0
865.0
864.0
864.0
863.0
861.0
856.0
855.0
858.0
858.0
859.0
860.0
860.0
863.0
863.0
860.0
860.0
858.0
859.0
859.0
858.0
858.0
862.0
859.0
861.0
863.0
862.0
864.0
866.0
863.0
863.0
863.0
864.0
864.0
865.0
866.0
868.0
871.0
870.0
871.0
871.0
872.0
869.0
868.0
871.0
870.0
872.0
872.0
871.0
873.0
875.0
873.0
870.0
869.0
869.0
869.0
867.0
869.0
866.0
869.0
869.0
869.0
871.0
871.0
871.0
873.0
869.0
868.0
864.0
864.0
866.0
865.0
866.0
868.0
867.0
865.0
865.0
865.0
864.0
861.0
860.0
861.0
862.0
862.0
865.0
864.0
866.0
867.0
868.0
867.0
865.0
861.0
860.0
862.0
861.0
864.0
865.0
866.0
865.0
866.0
864.0
862.0
861.0
860.0
860.0
859.0
862.0
862.0
864.0
866.0
868.0
869.0
868.0
865.0
865.0
863.0
861.0
862.0
863.0
865.0
864.0
868.0
869.0
867.0
868.0
867.0
865.0
865.0
864.0
867.0
870.0
874.0
878.0
881.0
883.0
885.0
886.0
884.0
886.0
884.0
887.0
887.0
889.0
894.0
896.0
901.0
900.0
899.0
896.0
891.0
889.0
888.0
891.0
891.0
891.0
893.0
893.0
893.0
893.0
891.0
885.0
882.0
877.0
873.0
871.0
870.0
871.0
872.0
870.0
872.0
871.0
871.0
867.0
868.0
867.0
866.0
864.0
863.0
864.0
864.0
867.0
869.0
868.0
868.0
868.0
868.0
866.0
865.0
864.0
866.0
866.0
868.0
868.0
871.0
873.0
874.0
875.0
877.0
878.0
877.0
880.0
879.0
881.0
886.0
894.0
910.0
928.0
957.0
999.0
1055.0
1125.0
1201.0
1270.0
1317.0
1336.0
1314.0
1245.0
1131.0
1003.0
875.0
760.0
707.0
708.0
743.0
794.0
842.0
877.0
897.0
905.0
906.0
904.0
899.0
897.0
890.0
890.0
886.0
887.0
890.0
889.0
892.0
894.0
895.0
896.0
896.0
896.0
896.0
895.0
896.0
896.0
896.0
897.0
898.0
900.0
899.0
901.0
901.0
899.0
899.0
898.0
895.0
897.0
897.0
896.0
895.0
896.0
901.0
899.0
899.0
898.0
899.0
898.0
897.0
895.0
896.0
896.0
897.0
899.0
900.0
900.0
901.0
902.0
900.0
900.0
897.0
898.0
899.0
902.0
904.0
905.0
904.0
906.0
908.0
907.0
903.0
905.0
902.0
903.0
904.0
904.0
906.0
909.0
913.0
912.0
910.0
911.0
911.0
909.0
909.0
905.0
908.0
908.0
911.0
914.0
917.0
914.0
916.0
916.0
914.0
912.0
911.0
912.0
911.0
913.0
916.0
917.0
919.0
919.0
918.0
918.0
918.0
915.0
914.0
913.0
914.0
913.0
916.0
917.0
918.0
915.0
912.0
911.0
907.0
909.0
910.0
912.0
913.0
912.0
917.0
917.0
918.0
917.0
918.0
917.0
915.0
912.0
907.0
903.0
901.0
900.0
903.0
904.0
905.0
902.0
899.0
898.0
891.0
888.0
885.0
881.0
880.0
881.0
881.0
881.0
884.0
881.0
881.0
880.0
878.0
877.0
877.0
878.0
873.0
874.0
878.0
878.0
879.0
880.0
881.0
879.0
879.0
879.0
880.0
879.0
880.0
880.0
882.0
884.0
887.0
890.0
888.0
888.0
888.0
883.0
880.0
882.0
882.0
885.0
887.0
887.0
893.0
892.0
891.0
891.0
890.0
886.0
885.0
885.0
884.0
888.0
890.0
890.0
891.0
891.0
888.0
892.0
888.0
885.0
884.0
881.0
882.0
883.0
883.0
886.0
887.0
886.0
886.0
885.0
882.0
881.0
881.0
880.0
880.0
881.0
881.0
879.0
878.0
879.0
881.0
879.0
879.0
878.0
878.0
876.0
879.0
879.0
877.0
876.0
878.0
879.0
878.0
879.0
879.0
879.0
878.0
878.0
879.0
880.0
883.0
886.0
890.0
892.0
894.0
897.0
897.0
895.0
896.0
898.0
902.0
904.0
908.0
911.0
911.0
910.0
908.0
907.0
905.0
906.0
905.0
904.0
905.0
906.0
904.0
901.0
902.0
902.0
898.0
892.0
888.0
882.0
877.0
875.0
874.0
874.0
877.0
877.0
879.0
879.0
880.0
877.0
876.0
873.0
872.0
870.0
870.0
869.0
870.0
872.0
873.0
874.0
874.0
874.0
873.0
872.0
873.0
869.0
869.0
873.0
876.0
877.0
881.0
881.0
881.0
877.0
881.0
879.0
880.0
883.0
886.0
888.0
898.0
911.0
934.0
967.0
1018.0
1083.0
1162.0
1239.0
1308.0
1349.0
1347.0
1292.0
1186.0
1058.0
930.0
802.0
710.0
703.0
739.0
794.0
848.0
888.0
911.0
918.0
915.0
909.0
901.0
895.0
893.0
892.0
892.0
894.0
893.0
893.0
897.0
895.0
899.0
895.0
897.0
900.0
900.0
901.0
898.0
897.0
896.0
896.0
898.0
896.0
899.0
900.0
900.0
903.0
901.0
901.0
905.0
903.0
900.0
900.0
901.0
902.0
901.0
900.0
903.0
904.0
902.0
903.0
902.0
903.0
900.0
899.0
899.0
901.0
903.0
903.0
906.0
908.0
904.0
906.0
907.0
903.0
903.0
903.0
905.0
906.0
908.0
909.0
913.0
913.0
914.0
913.0
912.0
910.0
910.0
909.0
910.0
912.0
910.0
913.0
914.0
917.0
918.0
917.0
917.0
917.0
914.0
916.0
914.0
916.0
919.0
922.0
921.0
925.0
927.0
926.0
925.0
924.0
922.0
920.0
921.0
923.0
924.0
925.0
926.0
930.0
928.0
928.0
926.0
923.0
922.0
922.0
917.0
918.0
922.0
921.0
923.0
924.0
923.0
922.0
921.0
919.0
919.0
919.0
918.0
918.0
920.0
918.0
918.0
919.0
915.0
912.0
906.0
903.0
899.0
896.0
895.0
894.0
893.0
889.0
889.0
891.0
888.0
885.0
883.0
883.0
881.0
880.0
878.0
879.0
881.0
878.0
882.0
882.0
879.0
880.0
879.0
876.0
876.0
875.0
877.0
878.0
879.0
881.0
883.0
881.0
885.0
885.0
884.0
884.0
884.0
883.0
884.0
883.0
886.0
889.0
889.0
892.0
892.0
892.0
891.0
890.0
890.0
888.0
887.0
888.0
889.0
889.0
891.0
892.0
889.0
892.0
889.0
886.0
887.0
886.0
886.0
885.0
886.0
886.0
887.0
888.0
889.0
887.0
885.0
883.0
881.0
878.0
877.0
879.0
882.0
881.0
884.0
885.0
885.0
881.0
879.0
880.0
879.0
880.0
879.0
880.0
878.0
880.0
879.0
879.0
878.0
879.0
877.0
878.0
875.0
874.0
876.0
876.0
878.0
878.0
880.0
881.0
879.0
879.0
878.0
876.0
875.0
875.0
874.0
876.0
877.0
879.0
880.0
881.0
881.0
883.0
883.0
886.0
889.0
889.0
890.0
893.0
896.0
898.0
900.0
906.0
909.0
908.0
908.0
906.0
907.0
904.0
904.0
904.0
906.0
906.0
910.0
908.0
906.0
907.0
903.0
900.0
895.0
891.0
888.0
883.0
883.0
883.0
881.0
880.0
882.0
881.0
881.0
879.0
879.0
876.0
875.0
874.0
876.0
875.0
875.0
875.0
878.0
880.0
876.0
870.0
872.0
873.0
873.0
872.0
874.0
879.0
882.0
882.0
884.0
885.0
886.0
888.0
887.0
887.0
889.0
888.0
893.0
904.0
923.0
956.0
998.0
1057.0
1133.0
1220.0
1298.0
1355.0
1373.0
1337.0
1250.0
1122.0
994.0
866.0
738.0
703.0
718.0
764.0
820.0
869.0
901.0
919.0
924.0
920.0
911.0
907.0
901.0
897.0
897.0
895.0
896.0
896.0
898.0
899.0
898.0
895.0
902.0
903.0
904.0
903.0
903.0
902.0
901.0
899.0
899.0
901.0
902.0
903.0
902.0
906.0
905.0
905.0
905.0
903.0
901.0
900.0
900.0
902.0
905.0
905.0
907.0
907.0
906.0
908.0
907.0
906.0
903.0
904.0
902.0
903.0
903.0
903.0
906.0
909.0
909.0
910.0
909.0
906.0
905.0
903.0
905.0
907.0
906.0
908.0
909.0
910.0
912.0
913.0
914.0
912.0
911.0
909.0
911.0
911.0
912.0
911.0
915.0
917.0
919.0
917.0
917.0
915.0
915.0
914.0
915.0
917.0
920.0
922.0
921.0
924.0
925.0
927.0
924.0
925.0
926.0
925.0
923.0
925.0
928.0
930.0
930.0
933.0
933.0
932.0
931.0
930.0
929.0
927.0
928.0
928.0
928.0
929.0
928.0
931.0
931.0
931.0
931.0
929.0
