# Simple Text Format
# Sampling Rate (Hz):= 360.00
# Resolution:= 12
# Labels:= ECG
908.0
910.0
911.0
911.0
908.0
909.0
907.0
906.0
904.0
904.0
904.0
903.0
904.0
905.0
907.0
906.0
906.0
906.0
903.0
903.0
898.0
896.0
897.0
900.0
900.0
903.0
901.0
902.0
902.0
902.0
898.0
898.0
894.0
896.0
893.0
897.0
896.0
894.0
898.0
900.0
899.0
898.0
898.0
895.0
893.0
892.0
891.0
896.0
898.0
899.0
898.0
901.0
902.0
902.0
900.0
901.0
901.0
903.0
903.0
907.0
911.0
916.0
920.0
922.0
923.0
922.0
926.0
925.0
923.0
922.0
918.0
918.0
920.0
925.0
925.0
928.0
927.0
926.0
922.0
921.0
919.0
915.0
911.0
910.0
907.0
905.0
900.0
899.0
898.0
893.0
894.0
895.0
892.0
893.0
896.0
894.0
891.0
893.0
895.0
895.0
894.0
893.0
892.0
886.0
889.0
887.0
891.0
889.0
889.0
891.0
896.0
895.0
895.0
894.0
895.0
894.0
894.0
894.0
895.0
895.0
899.0
900.0
906.0
907.0
908.0
910.0
908.0
911.0
917.0
927.0
938.0
964.0
998.0
1045.0
1106.0
1176.0
1252.0
1318.0
1361.0
1367.0
1324.0
1239.0
1115.0
987.0
859.0
760.0
733.0
754.0
799.0
849.0
887.0
914.0
925.0
929.0
925.0
920.0
911.0
907.0
907.0
911.0
913.0
912.0
911.0
913.0
910.0
911.0
910.0
911.0
913.0
914.0
915.0
916.0
917.0
918.0
916.0
917.0
913.0
913.0
915.0
916.0
917.0
919.0
919.0
919.0
917.0
919.0
916.0
916.0
914.0
914.0
915.0
916.0
917.0
918.0
921.0
923.0
920.0
920.0
921.0
920.0
921.0
918.0
919.0
921.0
921.0
922.0
927.0
925.0
924.0
924.0
921.0
923.0
922.0
922.0
924.0
923.0
926.0
927.0
928.0
928.0
929.0
929.0
928.0
929.0
927.0
925.0
923.0
929.0
930.0
932.0
933.0
934.0
933.0
935.0
935.0
933.0
932.0
933.0
936.0
936.0
939.0
942.0
945.0
945.0
947.0
947.0
946.0
946.0
947.0
944.0
945.0
948.0
950.0
953.0
954.0
956.0
952.0
953.0
954.0
951.0
950.0
951.0
952.0
955.0
956.0
955.0
959.0
958.0
959.0
957.0
956.0
956.0
952.0
950.0
949.0
948.0
948.0
944.0
945.0
943.0
938.0
932.0
928.0
925.0
920.0
918.0
913.0
910.0
908.0
907.0
906.0
906.0
902.0
901.0
899.0
898.0
893.0
892.0
891.0
894.0
894.0
894.0
896.0
894.0
894.0
894.0
892.0
891.0
892.0
891.0
894.0
892.0
894.0
895.0
896.0
898.0
898.0
899.0
897.0
897.0
895.0
896.0
900.0
900.0
902.0
902.0
905.0
908.0
907.0
908.0
906.0
905.0
903.0
902.0
900.0
905.0
906.0
907.0
909.0
910.0
910.0
908.0
906.0
902.0
900.0
898.0
898.0
898.0
899.0
900.0
902.0
904.0
904.0
904.0
903.0
901.0
899.0
897.0
898.0
900.0
900.0
903.0
902.0
901.0
900.0
898.0
898.0
896.0
894.0
894.0
894.0
895.0
894.0
895.0
898.0
902.0
898.0
899.0
895.0
893.0
892.0
894.0
897.0
897.0
896.0
899.0
899.0
900.0
899.0
901.0
897.0
900.0
895.0
896.0
898.0
899.0
902.0
901.0
901.0
902.0
901.0
901.0
900.0
898.0
896.0
901.0
900.0
898.0
900.0
900.0
902.0
904.0
903.0
902.0
903.0
902.0
900.0
898.0
900.0
899.0
904.0
903.0
904.0
907.0
905.0
904.0
904.0
904.0
902.0
903.0
904.0
909.0
916.0
918.0
922.0
927.0
926.0
927.0
930.0
929.0
931.0
931.0
936.0
938.0
938.0
938.0
937.0
940.0
938.0
938.0
936.0
936.0
934.0
934.0
932.0
934.0
933.0
933.0
931.0
929.0
925.0
922.0
921.0
915.0
914.0
914.0
913.0
913.0
911.0
914.0
915.0
917.0
917.0
917.0
915.0
914.0
913.0
912.0
911.0
911.0
911.0
911.0
915.0
918.0
915.0
918.0
918.0
917.0
916.0
915.0
914.0
918.0
921.0
924.0
926.0
929.0
928.0
930.0
932.0
932.0
931.0
930.0
932.0
935.0
939.0
945.0
955.0
973.0
995.0
1029.0
1076.0
1135.0
1205.0
1279.0
1344.0
1379.0
1372.0
1313.0
1204.0
1076.0
948.0
821.0
772.0
777.0
814.0
863.0
912.0
946.0
965.0
970.0
969.0
962.0
954.0
949.0
945.0
943.0
945.0
947.0
948.0
951.0
952.0
953.0
955.0
955.0
958.0
955.0
956.0
955.0
955.0
952.0
954.0
954.0
956.0
956.0
960.0
961.0
960.0
963.0
959.0
958.0
956.0
957.0
956.0
959.0
961.0
964.0
963.0
965.0
966.0
962.0
960.0
962.0
962.0
962.0
961.0
960.0
962.0
966.0
966.0
967.0
967.0
967.0
968.0
967.0
966.0
965.0
965.0
966.0
966.0
969.0
971.0
973.0
969.0
972.0
971.0
971.0
971.0
971.0
972.0
968.0
972.0
976.0
974.0
979.0
981.0
981.0
979.0
980.0
981.0
981.0
984.0
984.0
987.0
987.0
990.0
990.0
991.0
990.0
990.0
988.0
991.0
990.0
989.0
995.0
996.0
996.0
999.0
1001.0
1002.0
1000.0
999.0
998.0
995.0
995.0
996.0
996.0
997.0
998.0
1001.0
1003.0
1004.0
1003.0
1003.0
1003.0
1002.0
1001.0
1001.0
1000.0
1000.0
999.0
1000.0
998.0
997.0
994.0
992.0
988.0
982.0
980.0
977.0
973.0
972.0
971.0
969.0
968.0
968.0
965.0
966.0
964.0
962.0
960.0
959.0
954.0
956.0
959.0
960.0
961.0
961.0
960.0
959.0
955.0
956.0
954.0
955.0
958.0
958.0
959.0
964.0
965.0
965.0
967.0
967.0
968.0
966.0
963.0
961.0
967.0
967.0
969.0
974.0
971.0
973.0
974.0
973.0
970.0
969.0
971.0
970.0
970.0
971.0
973.0
976.0
977.0
976.0
978.0
974.0
974.0
973.0
971.0
971.0
971.0
975.0
972.0
974.0
976.0
973.0
975.0
974.0
973.0
970.0
969.0
967.0
968.0
970.0
969.0
973.0
973.0
972.0
974.0
971.0
971.0
970.0
966.0
966.0
964.0
967.0
968.0
969.0
971.0
970.0
968.0
967.0
966.0
966.0
965.0
968.0
968.0
966.0
965.0
965.0
969.0
970.0
970.0
970.0
968.0
967.0
969.0
968.0
966.0
969.0
966.0
966.0
969.0
972.0
970.0
969.0
966.0
964.0
963.0
965.0
965.0
966.0
968.0
971.0
971.0
970.0
970.0
970.0
966.0
967.0
967.0
966.0
968.0
968.0
969.0
968.0
968.0
969.0
971.0
969.0
966.0
966.0
965.0
965.0
965.0
966.0
968.0
968.0
974.0
976.0
978.0
976.0
979.0
981.0
982.0
983.0
986.0
989.0
990.0
994.0
996.0
999.0
1000.0
998.0
997.0
992.0
993.0
989.0
993.0
991.0
994.0
995.0
995.0
995.0
994.0
992.0
989.0
985.0
982.0
978.0
975.0
974.0
973.0
971.0
971.0
971.0
970.0
972.0
966.0
967.0
965.0
965.0
965.0
967.0
968.0
968.0
970.0
969.0
969.0
967.0
964.0
964.0
964.0
964.0
964.0
967.0
969.0
967.0
971.0
970.0
972.0
969.0
967.0
968.0
968.0
970.0
975.0
977.0
979.0
984.0
984.0
990.0
997.0
1014.0
1040.0
1083.0
1141.0
1212.0
1288.0
1353.0
1394.0
1398.0
1352.0
1256.0
1128.0
1000.0
875.0
816.0
811.0
846.0
895.0
944.0
982.0
1000.0
1010.0
1009.0
998.0
991.0
981.0
979.0
976.0
978.0
982.0
985.0
988.0
989.0
991.0
991.0
990.0
989.0
987.0
985.0
986.0
984.0
985.0
989.0
989.0
987.0
989.0
990.0
990.0
991.0
989.0
992.0
988.0
988.0
987.0
987.0
989.0
993.0
992.0
994.0
991.0
992.0
991.0
988.0
985.0
986.0
986.0
988.0
988.0
989.0
992.0
988.0
991.0
989.0
986.0
986.0
985.0
986.0
988.0
988.0
987.0
988.0
989.0
991.0
989.0
989.0
988.0
988.0
988.0
989.0
989.0
990.0
990.0
992.0
993.0
994.0
997.0
995.0
996.0
995.0
993.0
994.0
994.0
995.0
998.0
999.0
999.0
1001.0
999.0
998.0
999.0
998.0
999.0
999.0
1001.0
1001.0
1001.0
1005.0
1005.0
1005.0
1003.0
1002.0
1003.0
1001.0
999.0
998.0
999.0
1001.0
1000.0
1002.0
1004.0
1005.0
1002.0
1002.0
1002.0
1004.0
999.0
1000.0
1000.0
1001.0
1000.0
1001.0
998.0
995.0
992.0
988.0
984.0
977.0
974.0
972.0
968.0
966.0
965.0
966.0
965.0
963.0
960.0
959.0
957.0
954.0
950.0
949.0
950.0
950.0
952.0
954.0
954.0
955.0
954.0
950.0
950.0
945.0
944.0
946.0
945.0
945.0
952.0
952.0
952.0
954.0
952.0
953.0
951.0
950.0
949.0
953.0
954.0
954.0
955.0
952.0
956.0
955.0
956.0
954.0
954.0
953.0
952.0
955.0
954.0
956.0
956.0
956.0
955.0
957.0
957.0
955.0
955.0
952.0
949.0
948.0
950.0
948.0
950.0
951.0
949.0
949.0
948.0
948.0
948.0
945.0
945.0
942.0
942.0
944.0
941.0
943.0
947.0
944.0
946.0
944.0
942.0
939.0
938.0
936.0
937.0
938.0
936.0
938.0
940.0
938.0
941.0
937.0
937.0
937.0
934.0
934.0
934.0
936.0
936.0
936.0
937.0
936.0
938.0
937.0
935.0
935.0
934.0
932.0
931.0
930.0
934.0
937.0
942.0
942.0
945.0
949.0
948.0
949.0
950.0
952.0
955.0
954.0
959.0
963.0
965.0
967.0
965.0
963.0
961.0
959.0
957.0
957.0
955.0
957.0
958.0
957.0
957.0
955.0
953.0
950.0
944.0
940.0
935.0
931.0
927.0
928.0
929.0
933.0
933.0
932.0
931.0
931.0
929.0
926.0
923.0
923.0
921.0
921.0
925.0
924.0
925.0
926.0
926.0
924.0
924.0
922.0
922.0
921.0
920.0
922.0
924.0
926.0
926.0
928.0
929.0
930.0
929.0
928.0
928.0
929.0
933.0
933.0
938.0
944.0
956.0
970.0
999.0
1037.0
1087.0
1152.0
1222.0
1290.0
1343.0
1366.0
1353.0
1298.0
1206.0
1083.0
955.0
844.0
782.0
770.0
795.0
842.0
888.0
927.0
948.0
959.0
958.0
954.0
945.0
939.0
934.0
933.0
931.0
935.0
936.0
937.0
940.0
941.0
940.0
940.0
938.0
940.0
940.0
937.0
936.0
937.0
936.0
939.0
939.0
940.0
942.0
941.0
942.0
942.0
942.0
941.0
938.0
938.0
938.0
939.0
940.0
941.0
942.0
943.0
941.0
941.0
939.0
939.0
938.0
938.0
938.0
940.0
940.0
941.0
943.0
942.0
942.0
942.0
940.0
939.0
939.0
938.0
937.0
939.0
941.0
942.0
946.0
944.0
945.0
944.0
945.0
944.0
942.0
941.0
942.0
943.0
945.0
946.0
948.0
949.0
951.0
949.0
949.0
947.0
946.0
943.0
947.0
947.0
945.0
949.0
953.0
954.0
956.0
955.0
954.0
954.0
954.0
951.0
952.0
957.0
955.0
957.0
959.0
961.0
960.0
960.0
958.0
957.0
953.0
954.0
956.0
957.0
956.0
959.0
961.0
961.0
960.0
958.0
958.0
954.0
955.0
954.0
955.0
955.0
957.0
959.0
955.0
955.0
954.0
951.0
948.0
943.0
940.0
935.0
934.0
934.0
931.0
928.0
927.0
925.0
924.0
921.0
917.0
915.0
909.0
908.0
909.0
906.0
906.0
906.0
906.0
906.0
903.0
904.0
902.0
899.0
897.0
897.0
897.0
897.0
897.0
899.0
901.0
902.0
903.0
900.0
897.0
900.0
897.0
897.0
899.0
901.0
902.0
905.0
906.0
906.0
907.0
909.0
907.0
906.0
904.0
904.0
905.0
905.0
906.0
906.0
910.0
912.0
913.0
914.0
913.0
911.0
908.0
906.0
909.0
909.0
909.0
910.0
912.0
911.0
909.0
908.0
909.0
906.0
905.0
903.0
903.0
904.0
904.0
909.0
908.0
907.0
907.0
905.0
903.0
900.0
902.0
900.0
902.0
902.0
904.0
903.0
903.0
906.0
905.0
905.0
902.0
901.0
899.0
897.0
898.0
897.0
899.0
898.0
900.0
899.0
898.0
899.0
897.0
896.0
895.0
891.0
894.0
894.0
897.0
898.0
900.0
900.0
902.0
901.0
900.0
895.0
894.0
895.0
895.0
896.0
895.0
897.0
899.0
899.0
901.0
899.0
899.0
899.0
899.0
900.0
901.0
906.0
908.0
912.0
915.0
919.0
919.0
921.0
922.0
924.0
924.0
926.0
927.0
925.0
928.0
925.0
925.0
928.0
928.0
927.0
925.0
924.0
923.0
919.0
917.0
917.0
918.0
913.0
911.0
908.0
907.0
903.0
900.0
894.0
893.0
893.0
895.0
894.0
897.0
897.0
900.0
899.0
897.0
894.0
893.0
892.0
890.0
889.0
889.0
888.0
891.0
892.0
892.0
892.0
895.0
895.0
893.0
893.0
891.0
891.0
894.0
897.0
899.0
902.0
903.0
905.0
907.0
906.0
909.0
908.0
909.0
912.0
921.0
935.0
960.0
993.0
1038.0
1096.0
1163.0
1237.0
1304.0
1345.0
1351.0
1309.0
1219.0
1095.0
967.0
839.0
758.0
733.0
755.0
801.0
848.0
891.0
916.0
929.0
932.0
928.0
921.0
913.0
913.0
912.0
910.0
910.0
911.0
911.0
909.0
909.0
907.0
907.0
908.0
909.0
912.0
911.0
911.0
911.0
910.0
907.0
907.0
908.0
906.0
909.0
910.0
911.0
911.0
910.0
912.0
912.0
911.0
911.0
907.0
908.0
909.0
909.0
910.0
911.0
913.0
913.0
914.0
912.0
913.0
911.0
911.0
911.0
910.0
910.0
911.0
912.0
914.0
914.0
916.0
915.0
913.0
912.0
914.0
912.0
910.0
911.0
912.0
911.0
915.0
919.0
919.0
919.0
918.0
918.0
916.0
916.0
918.0
918.0
920.0
918.0
922.0
926.0
926.0
924.0
923.0
921.0
922.0
922.0
924.0
924.0
926.0
928.0
930.0
933.0
932.0
933.0
933.0
932.0
931.0
930.0
932.0
931.0
936.0
937.0
939.0
939.0
938.0
942.0
941.0
940.0
941.0
939.0
939.0
941.0
942.0
942.0
944.0
941.0
944.0
944.0
940.0
939.0
936.0
932.0
929.0
924.0
923.0
921.0
919.0
919.0
918.0
911.0
911.0
906.0
900.0
898.0
897.0
895.0
894.0
893.0
894.0
894.0
892.0
889.0
888.0
884.0
884.0
884.0
881.0
882.0
883.0
883.0
885.0
886.0
883.0
883.0
883.0
881.0
878.0
880.0
880.0
880.0
881.0
884.0
888.0
888.0
888.0
888.0
888.0
887.0
886.0
888.0
887.0
888.0
891.0
889.0
891.0
894.0
894.0
896.0
894.0
892.0
889.0
891.0
891.0
892.0
892.0
893.0
893.0
895.0
893.0
893.0
889.0
888.0
887.0
889.0
888.0
888.0
888.0
888.0
890.0
889.0
886.0
884.0
884.0
887.0
885.0
884.0
883.0
886.0
886.0
885.0
885.0
887.0
885.0
884.0
882.0
882.0
881.0
880.0
880.0
880.0
883.0
881.0
884.0
885.0
885.0
884.0
881.0
882.0
879.0
879.0
879.0
879.0
881.0
881.0
881.0
882.0
884.0
882.0
881.0
881.0
879.0
878.0
881.0
880.0
885.0
888.0
890.0
894.0
896.0
897.0
896.0
899.0
899.0
902.0
903.0
906.0
912.0
913.0
912.0
914.0
910.0
910.0
909.0
906.0
908.0
907.0
909.0
908.0
909.0
909.0
908.0
908.0
905.0
903.0
898.0
892.0
886.0
885.0
881.0
879.0
877.0
878.0
882.0
885.0
883.0
880.0
880.0
879.0
875.0
874.0
874.0
873.0
874.0
874.0
878.0
881.0
878.0
880.0
879.0
877.0
876.0
874.0
876.0
877.0
878.0
878.0
882.0
881.0
880.0
882.0
882.0
883.0
883.0
884.0
888.0
889.0
891.0
896.0
902.0
911.0
929.0
958.0
997.0
1052.0
1122.0
1204.0
1275.0
1323.0
1330.0
1290.0
1195.0
1067.0
939.0
811.0
728.0
707.0
733.0
778.0
830.0
871.0
895.0
907.0
910.0
908.0
903.0
898.0
892.0
890.0
888.0
887.0
889.0
890.0
891.0
894.0
895.0
895.0
894.0
896.0
894.0
892.0
889.0
889.0
890.0
890.0
892.0
897.0
897.0
896.0
897.0
897.0
895.0
893.0
893.0
891.0
894.0
895.0
896.0
898.0
897.0
899.0
898.0
898.0
899.0
895.0
898.0
895.0
894.0
895.0
898.0
899.0
900.0
903.0
902.0
902.0
901.0
900.0
899.0
899.0
899.0
901.0
903.0
903.0
906.0
907.0
904.0
905.0
904.0
902.0
902.0
903.0
901.0
902.0
903.0
904.0
908.0
911.0
911.0
910.0
909.0
908.0
907.0
906.0
908.0
909.0
912.0
911.0
915.0
919.0
918.0
918.0
917.0
919.0
914.0
915.0
918.0
917.0
922.0
921.0
923.0
923.0
924.0
923.0
928.0
927.0
925.0
925.0
925.0
925.0
926.0
927.0
927.0
930.0
930.0
931.0
928.0
928.0
924.0
922.0
920.0
918.0
915.0
913.0
909.0
906.0
904.0
902.0
898.0
892.0
888.0
882.0
881.0
881.0
878.0
877.0
876.0
876.0
876.0
874.0
875.0
869.0
870.0
869.0
866.0
868.0
868.0
869.0
871.0
871.0
873.0
871.0
871.0
869.0
865.0
865.0
867.0
868.0
871.0
874.0
873.0
878.0
877.0
876.0
875.0
872.0
872.0
871.0
873.0
873.0
874.0
875.0
878.0
878.0
880.0
879.0
878.0
877.0
877.0
876.0
877.0
875.0
878.0
879.0
879.0
884.0
878.0
878.0
875.0
876.0
874.0
874.0
872.0
871.0
872.0
871.0
875.0
875.0
873.0
873.0
870.0
872.0
871.0
869.0
867.0
867.0
868.0
871.0
870.0
872.0
873.0
871.0
869.0
868.0
865.0
861.0
859.0
862.0
864.0
863.0
865.0
869.0
869.0
869.0
868.0
868.0
866.0
866.0
864.0
868.0
868.0
870.0
875.0
878.0
879.0
882.0
881.0
881.0
882.0
884.0
884.0
885.0
890.0
893.0
896.0
900.0
901.0
901.0
898.0
897.0
892.0
888.0
889.0
890.0
893.0
894.0
896.0
894.0
892.0
892.0
889.0
885.0
881.0
878.0
870.0
868.0
864.0
864.0
865.0
866.0
864.0
867.0
866.0
865.0
861.0
856.0
858.0
857.0
857.0
857.0
860.0
862.0
859.0
859.0
857.0
857.0
859.0
859.0
859.0
859.0
861.0
861.0
862.0
864.0
863.0
865.0
866.0
866.0
867.0
869.0
870.0
870.0
875.0
875.0
878.0
884.0
891.0
908.0
927.0
964.0
1014.0
1080.0
1156.0
1234.0
1291.0
1316.0
1300.0
1231.0
1116.0
988.0
860.0
752.0
703.0
705.0
741.0
789.0
835.0
867.0
886.0
891.0
891.0
885.0
883.0
877.0
874.0
873.0
872.0
873.0
874.0
877.0
877.0
879.0
879.0
881.0
881.0
880.0
879.0
877.0
878.0
876.0
879.0
881.0
882.0
885.0
882.0
882.0
879.0
879.0
880.0
876.0
878.0
878.0
878.0
880.0
883.0
883.0
883.0
884.0
884.0
884.0
881.0
881.0
882.0
885.0
886.0
884.0
884.0
883.0
883.0
884.0
885.0
884.0
883.0
882.0
883.0
881.0
883.0
884.0
883.0
888.0
889.0
887.0
890.0
887.0
886.0
882.0
883.0
883.0
885.0
887.0
891.0
894.0
897.0
895.0
896.0
895.0
894.0
893.0
893.0
891.0
896.0
896.0
900.0
903.0
902.0
905.0
903.0
905.0
902.0
903.0
903.0
902.0
902.0
904.0
907.0
906.0
907.0
906.0
907.0
906.0
906.0
906.0
906.0
906.0
906.0
911.0
910.0
910.0
908.0
912.0
911.0
908.0
908.0
903.0
906.0
904.0
902.0
903.0
902.0
900.0
898.0
894.0
889.0
885.0
878.0
874.0
871.0
868.0
867.0
864.0
864.0
863.0
861.0
862.0
859.0
857.0
856.0
853.0
850.0
851.0
853.0
854.0
855.0
854.0
855.0
853.0
851.0
852.0
851.0
850.0
851.0
851.0
851.0
849.0
853.0
855.0
856.0
856.0
856.0
853.0
854.0
853.0
854.0
855.0
856.0
858.0
859.0
862.0
862.0
860.0
863.0
858.0
859.0
858.0
859.0
859.0
856.0
860.0
859.0
860.0
861.0
862.0
858.0
857.0
856.0
857.0
852.0
855.0
855.0
856.0
856.0
858.0
857.0
858.0
855.0
855.0
851.0
850.0
850.0
851.0
852.0
852.0
852.0
853.0
855.0
855.0
853.0
852.0
853.0
849.0
848.0
849.0
850.0
851.0
853.0
854.0
854.0
857.0
857.0
856.0
858.0
860.0
858.0
860.0
862.0
866.0
867.0
871.0
874.0
877.0
880.0
879.0
879.0
879.0
877.0
874.0
873.0
877.0
877.0
880.0
880.0
879.0
877.0
874.0
870.0
866.0
863.0
859.0
857.0
854.0
851.0
851.0
847.0
847.0
847.0
845.0
844.0
843.0
844.0
841.0
841.0
842.0
844.0
843.0
843.0
844.0
845.0
842.0
841.0
840.0
837.0
838.0
840.0
841.0
840.0
846.0
846.0
843.0
842.0
842.0
843.0
840.0
842.0
844.0
847.0
852.0
855.0
860.0
860.0
858.0
860.0
864.0
867.0
883.0
902.0
935.0
987.0
1057.0
1142.0
1229.0
1294.0
1319.0
1287.0
1187.0
1059.0
931.0
803.0
693.0
688.0
730.0
784.0
838.0
875.0
892.0
895.0
886.0
874.0
862.0
855.0
853.0
855.0
859.0
863.0
866.0
867.0
865.0
868.0
863.0
863.0
864.0
861.0
860.0
863.0
868.0
866.0
869.0
871.0
865.0
865.0
864.0
866.0
865.0
865.0
865.0
863.0
866.0
868.0
870.0
873.0
871.0
869.0
868.0
868.0
867.0
868.0
868.0
868.0
871.0
869.0
873.0
873.0
872.0
870.0
871.0
870.0
870.0
871.0
871.0
872.0
874.0
872.0
877.0
876.0
877.0
877.0
878.0
876.0
875.0
875.0
875.0
877.0
877.0
879.0
879.0
884.0
884.0
884.0
883.0
883.0
882.0
882.0
882.0
882.0
886.0
885.0
891.0
896.0
893.0
896.0
896.0
895.0
894.0
893.0
893.0
894.0
896.0
896.0
899.0
901.0
900.0
902.0
901.0
900.0
902.0
899.0
898.0
900.0
901.0
905.0
904.0
905.0
905.0
906.0
902.0
901.0
899.0
896.0
895.0
895.0
893.0
889.0
887.0
885.0
883.0
879.0
876.0
872.0
867.0
862.0
859.0
857.0
858.0
856.0
853.0
854.0
851.0
851.0
849.0
846.0
846.0
844.0
842.0
842.0
843.0
846.0
847.0
847.0
847.0
846.0
846.0
846.0
844.0
843.0
844.0
843.0
846.0
846.0
847.0
851.0
850.0
851.0
849.0
851.0
847.0
849.0
849.0
851.0
852.0
856.0
855.0
857.0
856.0
856.0
856.0
856.0
855.0
855.0
856.0
855.0
856.0
855.0
857.0
857.0
858.0
855.0
855.0
852.0
852.0
853.0
853.0
854.0
853.0
853.0
856.0
856.0
855.0
853.0
855.0
854.0
851.0
849.0
849.0
850.0
851.0
853.0
852.0
855.0
855.0
850.0
852.0
851.0
849.0
850.0
848.0
846.0
847.0
848.0
850.0
852.0
851.0
850.0
848.0
847.0
846.0
846.0
844.0
847.0
845.0
848.0
851.0
852.0
851.0
852.0
849.0
852.0
848.0
849.0
847.0
849.0
849.0
850.0
854.0
857.0
857.0
858.0
860.0
861.0
862.0
860.0
865.0
864.0
866.0
871.0
875.0
879.0
881.0
884.0
886.0
883.0
880.0
879.0
879.0
878.0
881.0
881.0
883.0
885.0
883.0
884.0
882.0
878.0
877.0
874.0
871.0
868.0
866.0
864.0
860.0
860.0
855.0
856.0
851.0
852.0
852.0
851.0
851.0
851.0
853.0
853.0
853.0
853.0
851.0
852.0
851.0
849.0
849.0
847.0
846.0
848.0
849.0
855.0
855.0
857.0
856.0
853.0
857.0
854.0
854.0
853.0
856.0
857.0
858.0
859.0
864.0
868.0
870.0
874.0
876.0
880.0
893.0
913.0
944.0
993.0
1056.0
1133.0
1214.0
1284.0
1326.0
1320.0
1263.0
1153.0
1025.0
897.0
769.0
702.0
700.0
731.0
778.0
833.0
866.0
888.0
896.0
894.0
884.0
878.0
875.0
869.0
869.0
869.0
874.0
880.0
877.0
878.0
876.0
873.0
875.0
873.0
875.0
873.0
876.0
877.0
877.0
879.0
878.0
878.0
878.0
877.0
875.0
872.0
872.0
875.0
878.0
881.0
880.0
882.0
882.0
881.0
880.0
879.0
877.0
876.0
875.0
876.0
878.0
875.0
882.0
880.0
882.0
882.0
880.0
877.0
878.0
879.0
879.0
882.0
882.0
881.0
884.0
883.0
882.0
886.0
886.0
887.0
884.0
883.0
884.0
885.0
888.0
888.0
890.0
893.0
892.0
893.0
893.0
891.0
890.0
890.0
891.0
893.0
893.0
897.0
898.0
899.0
898.0
897.0
899.0
898.0
897.0
899.0
901.0
901.0
902.0
905.0
907.0
910.0
909.0
912.0
909.0
910.0
909.0
909.0
907.0
908.0
912.0
912.0
914.0
914.0
917.0
917.0
914.0
913.0
910.0
911.0
912.0
913.0
914.0
919.0
921.0
921.0
919.0
919.0
916.0
910.0
906.0
902.0
903.0
898.0
899.0
895.0
895.0
894.0
890.0
885.0
883.0
879.0
878.0
872.0
871.0
872.0
870.0
869.0
870.0
872.0
869.0
870.0
867.0
863.0
864.0
862.0
864.0
859.0
862.0
862.0
866.0
867.0
867.0
867.0
865.0
863.0
863.0
862.0
862.0
863.0
863.0
865.0
866.0
870.0
866.0
869.0
867.0
865.0
866.0
867.0
867.0
867.0
869.0
870.0
873.0
874.0
872.0
876.0
875.0
873.0
872.0
870.0
873.0
872.0
874.0
874.0
876.0
878.0
876.0
872.0
874.0
874.0
871.0
869.0
869.0
869.0
872.0
873.0
873.0
875.0
874.0
872.0
873.0
869.0
870.0
868.0
867.0
866.0
868.0
869.0
869.0
871.0
871.0
870.0
872.0
870.0
867.0
865.0
864.0
864.0
868.0
867.0
870.0
868.0
870.0
868.0
868.0
867.0
866.0
864.0
864.0
863.0
866.0
868.0
869.0
871.0
869.0
871.0
870.0
868.0
866.0
866.0
865.0
864.0
865.0
869.0
869.0
869.0
870.0
867.0
868.0
866.0
866.0
866.0
866.0
865.0
867.0
867.0
868.0
873.0
872.0
870.0
870.0
871.0
871.0
873.0
875.0
877.0
880.0
883.0
888.0
890.0
891.0
894.0
894.0
896.0
896.0
896.0
896.0
897.0
896.0
897.0
898.0
901.0
899.0
900.0
897.0
898.0
896.0
891.0
890.0
889.0
887.0
887.0
885.0
882.0
879.0
876.0
873.0
874.0
871.0
871.0
870.0
871.0
872.0
871.0
873.0
873.0
873.0
874.0
872.0
870.0
868.0
867.0
866.0
866.0
867.0
866.0
869.0
873.0
874.0
873.0
873.0
873.0
872.0
872.0
874.0
878.0
877.0
882.0
885.0
889.0
892.0
894.0
896.0
900.0
910.0
930.0
961.0
1008.0
1069.0
1142.0
1222.0
1293.0
1339.0
1340.0
1283.0
1171.0
1043.0
915.0
787.0
710.0
716.0
758.0
813.0
864.0
897.0
914.0
916.0
910.0
901.0
892.0
885.0
885.0
887.0
890.0
892.0
896.0
896.0
896.0
896.0
896.0
894.0
893.0
893.0
893.0
896.0
898.0
900.0
901.0
902.0
901.0
900.0
897.0
898.0
897.0
896.0
897.0
897.0
900.0
897.0
899.0
898.0
902.0
900.0
899.0
898.0
897.0
894.0
896.0
900.0
900.0
902.0
903.0
903.0
904.0
902.0
899.0
899.0
900.0
898.0
899.0
903.0
902.0
903.0
903.0
905.0
905.0
903.0
904.0
902.0
902.0
901.0
903.0
903.0
906.0
905.0
908.0
911.0
911.0
911.0
909.0
908.0
908.0
909.0
908.0
911.0
911.0
913.0
915.0
916.0
915.0
916.0
915.0
917.0
915.0
915.0
918.0
919.0
917.0
920.0
923.0
925.0
924.0
925.0
925.0
924.0
924.0
924.0
924.0
923.0
925.0
927.0
929.0
930.0
928.0
929.0
927.0
926.0
926.0
925.0
925.0
925.0
929.0
930.0
931.0
927.0
926.0
923.0
919.0
918.0
912.0
907.0
906.0
905.0
903.0
901.0
900.0
898.0
896.0
892.0
890.0
887.0
886.0
882.0
882.0
883.0
884.0
882.0
882.0
880.0
882.0
881.0
881.0
879.0
878.0
875.0
878.0
877.0
879.0
882.0
882.0
884.0
884.0
881.0
883.0
881.0
881.0
879.0
881.0
883.0
882.0
883.0
888.0
888.0
889.0
888.0
887.0
885.0
884.0
884.0
884.0
886.0
888.0
890.0
893.0
894.0
893.0
895.0
891.0
892.0
889.0
890.0
890.0
889.0
892.0
892.0
894.0
893.0
891.0
891.0
888.0
888.0
884.0
885.0
885.0
889.0
888.0
891.0
890.0
891.0
887.0
888.0
884.0
884.0
883.0
882.0
884.0
883.0
886.0
887.0
889.0
889.0
888.0
887.0
887.0
887.0
885.0
886.0
884.0
886.0
889.0
890.0
892.0
889.0
889.0
889.0
889.0
887.0
891.0
894.0
895.0
898.0
901.0
907.0
910.0
912.0
913.0
914.0
916.0
917.0
916.0
914.0
916.0
916.0
916.0
918.0
920.0
922.0
921.0
920.0
920.0
916.0
911.0
906.0
902.0
899.0
895.0
898.0
895.0
894.0
893.0
892.0
893.0
892.0
890.0
893.0
892.0
894.0
892.0
890.0
891.0
891.0
894.0
894.0
894.0
891.0
891.0
892.0
893.0
895.0
893.0
897.0
898.0
901.0
900.0
901.0
899.0
904.0
902.0
903.0
903.0
905.0
908.0
911.0
915.0
920.0
925.0
933.0
947.0
968.0
995.0
1037.0
1092.0
1162.0
1241.0
1309.0
1357.0
1362.0
1313.0
1203.0
1075.0
947.0
819.0
741.0
747.0
792.0
852.0
905.0
940.0
955.0
955.0
951.0
939.0
927.0
922.0
