# Simple Text Format
# Sampling Rate (Hz):= 360.00
# Resolution:= 12
# Labels:= ECG
908.0
908.0
908.0
908.0
908.0
908.0
908.0
908.0
907.0
906.0
908.0
908.0
909.0
913.0
910.0
909.0
907.0
907.0
905.0
905.0
902.0
903.0
906.0
907.0
908.0
908.0
907.0
906.0
905.0
903.0
904.0
904.0
903.0
903.0
906.0
907.0
906.0
909.0
908.0
907.0
907.0
909.0
905.0
904.0
903.0
905.0
906.0
904.0
906.0
907.0
908.0
908.0
907.0
904.0
903.0
903.0
900.0
902.0
902.0
904.0
904.0
907.0
905.0
906.0
902.0
902.0
902.0
903.0
903.0
905.0
905.0
906.0
911.0
907.0
910.0
909.0
908.0
907.0
906.0
905.0
906.0
909.0
912.0
914.0
917.0
919.0
921.0
922.0
926.0
925.0
926.0
925.0
928.0
931.0
933.0
935.0
938.0
937.0
936.0
935.0
929.0
928.0
927.0
926.0
925.0
927.0
928.0
928.0
930.0
930.0
927.0
924.0
917.0
915.0
911.0
909.0
907.0
907.0
908.0
911.0
910.0
911.0
912.0
909.0
908.0
907.0
903.0
902.0
904.0
906.0
904.0
905.0
909.0
913.0
911.0
909.0
909.0
906.0
906.0
906.0
909.0
907.0
909.0
911.0
916.0
918.0
919.0
919.0
920.0
921.0
921.0
922.0
925.0
934.0
949.0
972.0
1004.0
1049.0
1109.0
1179.0
1255.0
1318.0
1357.0
1358.0
1315.0
1223.0
1096.0
968.0
843.0
772.0
752.0
773.0
817.0
864.0
903.0
926.0
938.0
941.0
938.0
930.0
926.0
923.0
920.0
922.0
921.0
924.0
924.0
924.0
924.0
926.0
926.0
926.0
927.0
928.0
929.0
927.0
929.0
928.0
925.0
926.0
922.0
923.0
928.0
930.0
928.0
931.0
930.0
931.0
930.0
927.0
925.0
926.0
929.0
929.0
929.0
930.0
930.0
932.0
931.0
931.0
930.0
927.0
926.0
927.0
927.0
925.0
926.0
926.0
930.0
931.0
931.0
933.0
929.0
931.0
928.0
927.0
928.0
930.0
931.0
930.0
931.0
935.0
936.0
936.0
936.0
935.0
936.0
932.0
933.0
933.0
936.0
938.0
937.0
939.0
941.0
941.0
940.0
940.0
938.0
939.0
941.0
938.0
942.0
942.0
944.0
947.0
950.0
949.0
948.0
946.0
945.0
945.0
946.0
945.0
947.0
950.0
952.0
951.0
951.0
951.0
949.0
948.0
947.0
947.0
947.0
948.0
949.0
949.0
951.0
955.0
953.0
952.0
951.0
953.0
951.0
950.0
951.0
948.0
951.0
948.0
948.0
951.0
946.0
945.0
945.0
939.0
935.0
931.0
929.0
926.0
925.0
925.0
923.0
924.0
918.0
917.0
915.0
914.0
911.0
910.0
910.0
908.0
911.0
909.0
912.0
913.0
912.0
907.0
909.0
907.0
907.0
905.0
906.0
906.0
908.0
908.0
911.0
913.0
914.0
913.0
911.0
908.0
908.0
907.0
909.0
910.0
911.0
914.0
915.0
916.0
916.0
916.0
914.0
914.0
911.0
911.0
914.0
914.0
915.0
918.0
919.0
919.0
919.0
919.0
919.0
916.0
912.0
913.0
913.0
914.0
913.0
914.0
914.0
916.0
916.0
915.0
911.0
911.0
910.0
909.0
908.0
909.0
908.0
910.0
911.0
913.0
911.0
910.0
910.0
908.0
909.0
904.0
906.0
907.0
905.0
905.0
908.0
909.0
908.0
906.0
906.0
902.0
902.0
902.0
901.0
902.0
901.0
902.0
905.0
905.0
906.0
907.0
906.0
904.0
903.0
902.0
899.0
901.0
902.0
905.0
906.0
906.0
906.0
907.0
905.0
903.0
902.0
901.0
902.0
901.0
903.0
903.0
905.0
906.0
905.0
905.0
903.0
904.0
903.0
906.0
903.0
906.0
909.0
911.0
914.0
918.0
920.0
921.0
921.0
921.0
924.0
925.0
926.0
926.0
929.0
930.0
933.0
937.0
932.0
930.0
927.0
927.0
928.0
928.0
926.0
928.0
928.0
926.0
928.0
924.0
919.0
915.0
912.0
907.0
904.0
902.0
901.0
900.0
903.0
904.0
905.0
905.0
903.0
903.0
902.0
901.0
898.0
898.0
899.0
899.0
900.0
901.0
903.0
901.0
901.0
902.0
905.0
903.0
903.0
903.0
905.0
904.0
907.0
909.0
914.0
915.0
916.0
920.0
919.0
923.0
931.0
944.0
970.0
1007.0
1055.0
1116.0
1189.0
1264.0
1321.0
1346.0
1322.0
1243.0
1115.0
987.0
859.0
768.0
750.0
778.0
825.0
875.0
917.0
939.0
944.0
939.0
930.0
921.0
915.0
913.0
909.0
911.0
918.0
920.0
921.0
921.0
918.0
917.0
918.0
918.0
918.0
920.0
919.0
919.0
923.0
924.0
923.0
923.0
922.0
920.0
921.0
919.0
919.0
920.0
923.0
925.0
925.0
927.0
927.0
926.0
925.0
923.0
922.0
921.0
922.0
920.0
924.0
923.0
927.0
927.0
929.0
927.0
927.0
926.0
922.0
922.0
922.0
922.0
923.0
925.0
929.0
930.0
931.0
931.0
929.0
929.0
926.0
923.0
925.0
926.0
926.0
925.0
929.0
934.0
928.0
931.0
931.0
930.0
927.0
928.0
928.0
926.0
931.0
929.0
932.0
935.0
935.0
937.0
936.0
935.0
938.0
937.0
937.0
937.0
938.0
941.0
941.0
942.0
942.0
943.0
941.0
941.0
943.0
941.0
941.0
939.0
940.0
941.0
944.0
946.0
947.0
947.0
946.0
944.0
941.0
941.0
939.0
942.0
941.0
942.0
944.0
946.0
948.0
944.0
946.0
944.0
942.0
939.0
936.0
936.0
935.0
934.0
933.0
932.0
929.0
925.0
923.0
921.0
918.0
913.0
911.0
910.0
908.0
906.0
903.0
905.0
906.0
904.0
903.0
902.0
900.0
898.0
897.0
895.0
896.0
896.0
898.0
899.0
901.0
902.0
900.0
901.0
899.0
897.0
898.0
898.0
899.0
903.0
904.0
908.0
907.0
907.0
908.0
906.0
903.0
903.0
903.0
903.0
904.0
904.0
909.0
909.0
908.0
908.0
907.0
908.0
905.0
904.0
903.0
904.0
904.0
904.0
905.0
905.0
903.0
905.0
904.0
900.0
899.0
902.0
901.0
900.0
901.0
901.0
900.0
904.0
904.0
903.0
902.0
899.0
895.0
892.0
895.0
896.0
896.0
896.0
898.0
899.0
899.0
898.0
896.0
895.0
892.0
893.0
894.0
894.0
894.0
895.0
897.0
895.0
895.0
895.0
895.0
895.0
892.0
892.0
892.0
893.0
892.0
894.0
897.0
901.0
901.0
902.0
904.0
903.0
906.0
905.0
908.0
912.0
916.0
919.0
924.0
928.0
928.0
924.0
924.0
921.0
920.0
918.0
919.0
920.0
920.0
922.0
920.0
922.0
920.0
917.0
916.0
911.0
904.0
902.0
896.0
897.0
894.0
895.0
897.0
897.0
897.0
895.0
896.0
890.0
891.0
890.0
891.0
889.0
891.0
891.0
893.0
895.0
895.0
894.0
892.0
892.0
890.0
890.0
888.0
888.0
891.0
892.0
895.0
897.0
899.0
898.0
898.0
898.0
898.0
900.0
904.0
904.0
904.0
908.0
915.0
924.0
937.0
964.0
995.0
1041.0
1099.0
1167.0
1238.0
1305.0
1351.0
1366.0
1342.0
1275.0
1173.0
1047.0
922.0
819.0
760.0
750.0
779.0
826.0
870.0
904.0
924.0
932.0
933.0
926.0
920.0
911.0
909.0
908.0
906.0
908.0
912.0
912.0
913.0
917.0
917.0
917.0
915.0
914.0
911.0
914.0
911.0
911.0
912.0
916.0
916.0
920.0
919.0
916.0
918.0
913.0
914.0
915.0
915.0
914.0
916.0
918.0
918.0
918.0
920.0
920.0
918.0
918.0
918.0
919.0
918.0
916.0
915.0
919.0
922.0
922.0
918.0
921.0
921.0
921.0
921.0
919.0
921.0
919.0
923.0
924.0
925.0
928.0
928.0
926.0
925.0
925.0
925.0
923.0
924.0
922.0
925.0
927.0
928.0
930.0
930.0
931.0
931.0
930.0
929.0
931.0
930.0
932.0
934.0
935.0
935.0
939.0
939.0
939.0
937.0
938.0
935.0
939.0
939.0
941.0
941.0
942.0
945.0
949.0
948.0
949.0
948.0
950.0
947.0
948.0
945.0
946.0
947.0
948.0
948.0
951.0
952.0
952.0
949.0
950.0
948.0
945.0
947.0
946.0
945.0
944.0
942.0
942.0
941.0
933.0
929.0
927.0
924.0
922.0
918.0
914.0
913.0
913.0
908.0
910.0
908.0
904.0
903.0
897.0
895.0
895.0
892.0
894.0
894.0
893.0
897.0
897.0
895.0
893.0
892.0
894.0
890.0
892.0
893.0
892.0
894.0
893.0
895.0
897.0
898.0
899.0
898.0
897.0
897.0
898.0
898.0
898.0
902.0
901.0
902.0
905.0
906.0
906.0
904.0
905.0
904.0
903.0
903.0
903.0
905.0
906.0
908.0
907.0
908.0
906.0
904.0
905.0
903.0
902.0
903.0
902.0
902.0
905.0
906.0
904.0
903.0
902.0
899.0
901.0
898.0
897.0
897.0
898.0
900.0
898.0
901.0
900.0
902.0
901.0
899.0
899.0
895.0
891.0
895.0
896.0
896.0
898.0
899.0
900.0
901.0
897.0
898.0
896.0
896.0
894.0
894.0
897.0
896.0
897.0
896.0
898.0
898.0
898.0
896.0
895.0
894.0
894.0
892.0
893.0
893.0
896.0
895.0
897.0
897.0
896.0
894.0
893.0
894.0
893.0
896.0
892.0
892.0
896.0
899.0
898.0
898.0
897.0
892.0
896.0
893.0
895.0
897.0
898.0
896.0
902.0
902.0
903.0
906.0
910.0
911.0
908.0
908.0
911.0
914.0
914.0
917.0
922.0
923.0
925.0
926.0
927.0
926.0
923.0
923.0
918.0
918.0
918.0
918.0
921.0
924.0
924.0
924.0
922.0
918.0
916.0
911.0
908.0
906.0
904.0
900.0
902.0
902.0
903.0
901.0
902.0
899.0
898.0
896.0
896.0
896.0
898.0
898.0
896.0
899.0
900.0
899.0
898.0
897.0
897.0
894.0
897.0
895.0
897.0
897.0
901.0
902.0
902.0
904.0
905.0
903.0
905.0
903.0
905.0
906.0
907.0
909.0
915.0
918.0
920.0
925.0
935.0
951.0
977.0
1017.0
1069.0
1139.0
1214.0
1285.0
1343.0
1373.0
1363.0
1310.0
1216.0
1092.0
968.0
858.0
780.0
749.0
760.0
800.0
844.0
884.0
914.0
929.0
935.0
935.0
928.0
922.0
915.0
914.0
914.0
915.0
917.0
919.0
922.0
923.0
921.0
920.0
919.0
918.0
917.0
918.0
918.0
921.0
921.0
923.0
923.0
924.0
924.0
920.0
921.0
920.0
917.0
918.0
921.0
923.0
924.0
924.0
925.0
925.0
925.0
922.0
923.0
921.0
921.0
921.0
921.0
924.0
925.0
926.0
927.0
927.0
925.0
925.0
923.0
920.0
922.0
920.0
922.0
924.0
926.0
926.0
924.0
928.0
928.0
928.0
928.0
926.0
924.0
925.0
926.0
928.0
930.0
932.0
934.0
933.0
934.0
934.0
930.0
929.0
929.0
931.0
932.0
933.0
938.0
939.0
941.0
941.0
939.0
939.0
939.0
938.0
939.0
938.0
941.0
941.0
943.0
943.0
945.0
946.0
945.0
944.0
945.0
943.0
943.0
943.0
941.0
944.0
948.0
950.0
950.0
948.0
948.0
948.0
950.0
948.0
948.0
950.0
947.0
948.0
950.0
952.0
950.0
951.0
947.0
944.0
937.0
935.0
932.0
929.0
926.0
926.0
923.0
922.0
922.0
919.0
917.0
913.0
910.0
909.0
905.0
906.0
903.0
904.0
904.0
901.0
906.0
904.0
905.0
904.0
900.0
900.0
900.0
902.0
902.0
904.0
903.0
905.0
906.0
907.0
907.0
906.0
906.0
905.0
902.0
904.0
905.0
907.0
908.0
910.0
909.0
909.0
911.0
908.0
909.0
909.0
909.0
910.0
907.0
913.0
912.0
913.0
914.0
912.0
913.0
913.0
911.0
909.0
912.0
911.0
912.0
911.0
913.0
913.0
914.0
914.0
913.0
911.0
910.0
908.0
907.0
907.0
904.0
903.0
906.0
907.0
906.0
907.0
906.0
906.0
905.0
903.0
900.0
903.0
901.0
903.0
904.0
907.0
905.0
904.0
905.0
903.0
900.0
900.0
899.0
900.0
900.0
901.0
903.0
903.0
903.0
903.0
902.0
902.0
901.0
901.0
898.0
897.0
897.0
900.0
902.0
903.0
904.0
902.0
903.0
900.0
899.0
899.0
898.0
899.0
898.0
899.0
903.0
902.0
904.0
902.0
904.0
900.0
902.0
899.0
900.0
901.0
900.0
900.0
902.0
904.0
902.0
905.0
904.0
902.0
902.0
900.0
898.0
901.0
898.0
899.0
900.0
901.0
903.0
904.0
905.0
901.0
901.0
900.0
901.0
900.0
900.0
901.0
903.0
904.0
905.0
902.0
901.0
902.0
900.0
899.0
897.0
900.0
903.0
904.0
902.0
904.0
904.0
903.0
905.0
901.0
900.0
899.0
899.0
902.0
902.0
904.0
904.0
906.0
906.0
905.0
905.0
903.0
901.0
899.0
899.0
897.0
900.0
901.0
904.0
906.0
908.0
907.0
910.0
911.0
908.0
911.0
914.0
916.0
918.0
924.0
927.0
928.0
932.0
931.0
932.0
932.0
930.0
926.0
924.0
926.0
925.0
927.0
927.0
930.0
932.0
930.0
930.0
924.0
921.0
915.0
912.0
909.0
908.0
906.0
907.0
909.0
910.0
908.0
906.0
907.0
905.0
902.0
900.0
898.0
900.0
901.0
900.0
901.0
906.0
906.0
906.0
904.0
902.0
899.0
900.0
898.0
904.0
904.0
903.0
906.0
908.0
905.0
907.0
908.0
909.0
908.0
910.0
913.0
914.0
917.0
920.0
923.0
931.0
941.0
958.0
984.0
1021.0
1069.0
1137.0
1212.0
1283.0
1333.0
1340.0
1288.0
1181.0
1053.0
925.0
797.0
754.0
762.0
804.0
856.0
905.0
935.0
948.0
948.0
938.0
930.0
921.0
915.0
915.0
915.0
916.0
919.0
919.0
922.0
920.0
921.0
923.0
923.0
921.0
921.0
922.0
920.0
919.0
920.0
921.0
922.0
923.0
924.0
927.0
926.0
926.0
926.0
924.0
922.0
921.0
922.0
923.0
924.0
923.0
924.0
924.0
925.0
922.0
923.0
920.0
920.0
923.0
924.0
924.0
927.0
926.0
929.0
926.0
931.0
928.0
927.0
925.0
924.0
924.0
922.0
924.0
925.0
925.0
928.0
930.0
933.0
930.0
930.0
929.0
930.0
928.0
927.0
931.0
930.0
933.0
934.0
937.0
934.0
934.0
935.0
932.0
934.0
933.0
934.0
935.0
936.0
935.0
939.0
939.0
942.0
938.0
938.0
938.0
940.0
939.0
938.0
939.0
939.0
938.0
940.0
943.0
942.0
940.0
940.0
938.0
937.0
935.0
935.0
935.0
935.0
935.0
938.0
938.0
939.0
939.0
940.0
938.0
940.0
938.0
938.0
937.0
938.0
939.0
939.0
938.0
934.0
932.0
930.0
925.0
924.0
920.0
917.0
917.0
913.0
910.0
911.0
912.0
911.0
909.0
907.0
906.0
903.0
901.0
903.0
900.0
900.0
901.0
905.0
905.0
904.0
904.0
903.0
899.0
898.0
898.0
901.0
901.0
901.0
902.0
903.0
908.0
908.0
906.0
904.0
904.0
905.0
905.0
906.0
904.0
906.0
907.0
907.0
912.0
908.0
910.0
908.0
906.0
904.0
905.0
905.0
905.0
907.0
910.0
911.0
911.0
911.0
909.0
911.0
910.0
907.0
905.0
903.0
903.0
907.0
905.0
907.0
907.0
907.0
904.0
906.0
905.0
903.0
900.0
900.0
899.0
898.0
900.0
904.0
904.0
903.0
902.0
900.0
898.0
897.0
893.0
897.0
895.0
897.0
895.0
895.0
896.0
900.0
898.0
897.0
896.0
895.0
895.0
893.0
894.0
895.0
894.0
896.0
897.0
898.0
897.0
896.0
895.0
892.0
892.0
893.0
893.0
894.0
895.0
897.0
898.0
898.0
895.0
897.0
893.0
890.0
890.0
888.0
893.0
891.0
893.0
895.0
898.0
898.0
900.0
900.0
898.0
899.0
901.0
902.0
904.0
908.0
911.0
912.0
915.0
917.0
919.0
921.0
920.0
919.0
919.0
916.0
914.0
914.0
916.0
913.0
918.0
918.0
916.0
917.0
913.0
908.0
903.0
899.0
898.0
896.0
894.0
897.0
897.0
895.0
899.0
897.0
894.0
891.0
891.0
890.0
890.0
890.0
890.0
893.0
891.0
894.0
895.0
891.0
889.0
892.0
889.0
888.0
888.0
891.0
891.0
894.0
897.0
897.0
899.0
898.0
898.0
899.0
898.0
902.0
902.0
902.0
909.0
916.0
930.0
947.0
977.0
1018.0
1080.0
1148.0
1222.0
1291.0
1341.0
1358.0
1335.0
1266.0
1157.0
1029.0
901.0
790.0
744.0
751.0
790.0
840.0
884.0
916.0
933.0
935.0
930.0
921.0
913.0
907.0
905.0
905.0
907.0
905.0
911.0
913.0
914.0
915.0
916.0
914.0
914.0
914.0
911.0
912.0
909.0
910.0
909.0
911.0
913.0
914.0
916.0
919.0
917.0
914.0
916.0
916.0
914.0
914.0
915.0
915.0
916.0
918.0
920.0
920.0
919.0
916.0
916.0
914.0
913.0
912.0
914.0
912.0
914.0
917.0
919.0
920.0
918.0
918.0
917.0
918.0
915.0
917.0
916.0
918.0
920.0
922.0
922.0
923.0
923.0
922.0
920.0
920.0
919.0
918.0
920.0
923.0
921.0
922.0
924.0
925.0
925.0
924.0
925.0
924.0
924.0
924.0
924.0
927.0
928.0
930.0
932.0
933.0
932.0
931.0
931.0
931.0
929.0
931.0
930.0
932.0
935.0
936.0
937.0
935.0
938.0
936.0
931.0
932.0
933.0
931.0
933.0
933.0
933.0
936.0
936.0
936.0
933.0
930.0
932.0
931.0
930.0
926.0
925.0
924.0
923.0
923.0
925.0
921.0
917.0
916.0
913.0
908.0
905.0
905.0
900.0
899.0
899.0
897.0
899.0
897.0
896.0
894.0
894.0
889.0
887.0
885.0
884.0
886.0
888.0
889.0
890.0
887.0
887.0
887.0
885.0
883.0
884.0
885.0
888.0
888.0
888.0
890.0
894.0
892.0
895.0
895.0
891.0
894.0
892.0
891.0
892.0
895.0
896.0
899.0
900.0
902.0
901.0
900.0
899.0
897.0
895.0
896.0
897.0
896.0
897.0
901.0
901.0
899.0
901.0
901.0
898.0
897.0
895.0
895.0
895.0
895.0
895.0
896.0
899.0
896.0
896.0
896.0
893.0
892.0
893.0
892.0
888.0
889.0
891.0
890.0
893.0
893.0
892.0
891.0
890.0
889.0
888.0
887.0
887.0
887.0
889.0
889.0
891.0
891.0
891.0
888.0
886.0
888.0
886.0
887.0
885.0
887.0
889.0
890.0
890.0
892.0
890.0
888.0
888.0
886.0
884.0
885.0
885.0
886.0
887.0
889.0
889.0
890.0
891.0
891.0
888.0
885.0
887.0
884.0
886.0
887.0
889.0
892.0
893.0
896.0
895.0
900.0
901.0
900.0
901.0
903.0
906.0
908.0
909.0
911.0
913.0
915.0
915.0
918.0
917.0
917.0
916.0
911.0
910.0
914.0
915.0
912.0
914.0
920.0
917.0
917.0
912.0
909.0
906.0
901.0
896.0
894.0
892.0
892.0
893.0
895.0
893.0
890.0
891.0
887.0
890.0
888.0
888.0
889.0
888.0
888.0
890.0
892.0
891.0
890.0
890.0
889.0
888.0
889.0
888.0
889.0
892.0
892.0
895.0
897.0
895.0
895.0
896.0
895.0
896.0
897.0
898.0
899.0
903.0
904.0
907.0
913.0
921.0
938.0
964.0
1002.0
1052.0
1120.0
1198.0
1273.0
1336.0
1364.0
1348.0
1279.0
1167.0
1039.0
911.0
798.0
745.0
740.0
771.0
818.0
864.0
900.0
919.0
928.0
927.0
920.0
914.0
910.0
904.0
901.0
903.0
905.0
908.0
910.0
909.0
913.0
911.0
910.0
910.0
910.0
908.0
908.0
907.0
908.0
911.0
912.0
913.0
913.0
914.0
914.0
914.0
913.0
909.0
908.0
910.0
912.0
911.0
913.0
915.0
915.0
914.0
914.0
910.0
911.0
911.0
909.0
908.0
911.0
912.0
912.0
914.0
913.0
914.0
914.0
916.0
915.0
913.0
913.0
911.0
915.0
917.0
916.0
916.0
919.0
919.0
918.0
918.0
918.0
916.0
915.0
917.0
917.0
921.0
922.0
924.0
921.0
925.0
926.0
924.0
922.0
922.0
921.0
922.0
923.0
927.0
927.0
929.0
931.0
928.0
931.0
930.0
929.0
928.0
928.0
931.0
931.0
933.0
934.0
934.0
940.0
939.0
940.0
937.0
937.0
936.0
934.0
940.0
939.0
942.0
941.0
943.0
944.0
945.0
945.0
941.0
942.0
940.0
942.0
940.0
941.0
944.0
946.0
949.0
947.0
947.0
943.0
940.0
938.0
934.0
933.0
929.0
927.0
926.0
922.0
921.0
921.0
917.0
914.0
910.0
906.0
905.0
901.0
900.0
899.0
902.0
900.0
900.0
901.0
899.0
895.0
893.0
893.0
891.0
891.0
891.0
894.0
893.0
894.0
897.0
895.0
896.0
894.0
894.0
894.0
892.0
893.0
896.0
897.0
898.0
900.0
903.0
903.0
904.0
905.0
904.0
902.0
902.0
903.0
904.0
905.0
907.0
909.0
910.0
910.0
912.0
912.0
910.0
910.0
908.0
910.0
909.0
911.0
909.0
912.0
914.0
916.0
914.0
913.0
909.0
911.0
908.0
908.0
910.0
909.0
909.0
909.0
911.0
911.0
910.0
910.0
908.0
907.0
906.0
904.0
902.0
905.0
905.0
907.0
907.0
910.0
908.0
907.0
904.0
904.0
905.0
904.0
903.0
904.0
905.0
906.0
906.0
908.0
905.0
906.0
904.0
902.0
902.0
904.0
902.0
903.0
905.0
907.0
910.0
908.0
906.0
905.0
904.0
906.0
902.0
902.0
903.0
904.0
904.0
905.0
906.0
908.0
909.0
907.0
907.0
908.0
908.0
906.0
906.0
909.0
908.0
911.0
912.0
912.0
911.0
914.0
911.0
912.0
909.0
911.0
910.0
910.0
911.0
912.0
913.0
913.0
915.0
916.0
917.0
918.0
917.0
919.0
920.0
922.0
924.0
929.0
933.0
936.0
939.0
939.0
941.0
941.0
942.0
940.0
942.0
940.0
939.0
941.0
941.0
941.0
941.0
941.0
941.0
942.0
938.0
937.0
932.0
935.0
933.0
932.0
929.0
928.0
927.0
922.0
922.0
923.0
915.0
917.0
921.0
919.0
921.0
921.0
923.0
923.0
922.0
921.0
918.0
918.0
917.0
917.0
917.0
917.0
917.0
920.0
922.0
921.0
922.0
925.0
924.0
921.0
925.0
925.0
928.0
930.0
934.0
936.0
939.0
942.0
950.0
962.0
982.0
1013.0
1059.0
1118.0
1194.0
1272.0
1340.0
1377.0
1371.0
1307.0
1196.0
1068.0
940.0
819.0
770.0
777.0
815.0
867.0
912.0
942.0
959.0
964.0
962.0
959.0
950.0
944.0
941.0
941.0
941.0
945.0
946.0
950.0
950.0
951.0
949.0
948.0
947.0
950.0
946.0
944.0
946.0
945.0
947.0
950.0
952.0
951.0
952.0
951.0
950.0
952.0
950.0
950.0
948.0
951.0
953.0
952.0
954.0
957.0
956.0
958.0
955.0
956.0
955.0
955.0
952.0
950.0
956.0
953.0
956.0
959.0
958.0
957.0
958.0
957.0
954.0
951.0
956.0
955.0
959.0
959.0
960.0
964.0
964.0
965.0
965.0
962.0
960.0
959.0
957.0
961.0
963.0
966.0
968.0
968.0
970.0
970.0
968.0
968.0
968.0
966.0
968.0
967.0
968.0
971.0
973.0
978.0
978.0
978.0
978.0
977.0
977.0
975.0
978.0
977.0
981.0
982.0
983.0
984.0
981.0
984.0
984.0
982.0
981.0
980.0
978.0
979.0
979.0
981.0
981.0
984.0
986.0
986.0
984.0
982.0
980.0
982.0
984.0
981.0
980.0
981.0
982.0
980.0
979.0
976.0
972.0
969.0
963.0
965.0
960.0
958.0
956.0
956.0
955.0
955.0
952.0
948.0
943.0
945.0
940.0
940.0
938.0
939.0
938.0
938.0
939.0
940.0
939.0
938.0
938.0
937.0
933.0
933.0
933.0
934.0
936.0
937.0
938.0
942.0
940.0
940.0
938.0
939.0
936.0
935.0
937.0
938.0
939.0
940.0
942.0
944.0
944.0
945.0
943.0
943.0
942.0
945.0
944.0
945.0
944.0
945.0
946.0
949.0
948.0
948.0
946.0
945.0
946.0
943.0
946.0
946.0
945.0
946.0
946.0
945.0
948.0
944.0
944.0
944.0
941.0
940.0
938.0
941.0
941.0
942.0
943.0
945.0
944.0
943.0
942.0
941.0
939.0
937.0
937.0
939.0
941.0
941.0
942.0
942.0
940.0
943.0
941.0
939.0
937.0
935.0
936.0
937.0
937.0
939.0
934.0
938.0
941.0
941.0
940.0
937.0
936.0
934.0
932.0
935.0
936.0
938.0
938.0
941.0
939.0
940.0
937.0
938.0
934.0
933.0
934.0
935.0
936.0
937.0
938.0
939.0
938.0
936.0
937.0
935.0
937.0
932.0
934.0
933.0
933.0
934.0
937.0
938.0
936.0
935.0
936.0
936.0
933.0
933.0
932.0
935.0
937.0
939.0
942.0
943.0
944.0
948.0
948.0
948.0
948.0
952.0
955.0
955.0
959.0
963.0
963.0
965.0
968.0
968.0
967.0
966.0
960.0
960.0
958.0
958.0
960.0
961.0
964.0
963.0
960.0
957.0
955.0
950.0
946.0
942.0
938.0
936.0
936.0
936.0
939.0
940.0
939.0
939.0
939.0
937.0
935.0
933.0
931.0
931.0
933.0
933.0
936.0
937.0
938.0
938.0
936.0
936.0
933.0
934.0
932.0
935.0
937.0
940.0
943.0
944.0
944.0
946.0
947.0
948.0
948.0
950.0
956.0
966.0
987.0
1018.0
1064.0
1126.0
1199.0
1278.0
1344.0
1382.0
1384.0
1342.0
1253.0
1133.0
1005.0
881.0
806.0
782.0
798.0
840.0
888.0
929.0
956.0
968.0
968.0
965.0
959.0
952.0
949.0
949.0
947.0
949.0
949.0
952.0
949.0
950.0
950.0
952.0
954.0
954.0
955.0
955.0
955.0
956.0
953.0
953.0
952.0
949.0
952.0
953.0
953.0
956.0
957.0
958.0
957.0
955.0
956.0
955.0
954.0
954.0
954.0
954.0
954.0
955.0
956.0
957.0
954.0
957.0
953.0
956.0
950.0
952.0
952.0
954.0
957.0
955.0
954.0
957.0
959.0
958.0
957.0
957.0
956.0
954.0
955.0
956.0
956.0
957.0
958.0
962.0
962.0
957.0
957.0
958.0
959.0
957.0
957.0
956.0
958.0
960.0
961.0
965.0
966.0
967.0
965.0
965.0
967.0
965.0
963.0
965.0
968.0
969.0
970.0
969.0
968.0
970.0
971.0
971.0
969.0
968.0
969.0
969.0
972.0
973.0
975.0
975.0
978.0
974.0
975.0
972.0
973.0
969.0
970.0
971.0
970.0
973.0
974.0
975.0
973.0
972.0
971.0
972.0
973.0
971.0
969.0
968.0
968.0
966.0
965.0
962.0
958.0
957.0
952.0
946.0
943.0
941.0
938.0
937.0
934.0
932.0
932.0
931.0
931.0
931.0
926.0
923.0
923.0
920.0
921.0
921.0
921.0
923.0
924.0
925.0
923.0
923.0
922.0
919.0
920.0
919.0
918.0
918.0
920.0
921.0
922.0
924.0
925.0
925.0
924.0
923.0
921.0
922.0
923.0
923.0
926.0
923.0
925.0
930.0
929.0
930.0
927.0
926.0
926.0
925.0
926.0
925.0
926.0
928.0
930.0
930.0
929.0
932.0
931.0
930.0
925.0
924.0
925.0
924.0
924.0
925.0
924.0
928.0
926.0
925.0
921.0
918.0
916.0
917.0
917.0
918.0
918.0
920.0
919.0
923.0
923.0
920.0
918.0
918.0
918.0
916.0
915.0
915.0
916.0
917.0
916.0
918.0
917.0
916.0
916.0
916.0
915.0
913.0
913.0
913.0
914.0
916.0
913.0
915.0
913.0
913.0
911.0
911.0
910.0
906.0
910.0
911.0
913.0
916.0
919.0
923.0
924.0
926.0
926.0
926.0
925.0
925.0
926.0
928.0
932.0
935.0
940.0
941.0
944.0
943.0
940.0
936.0
934.0
937.0
933.0
938.0
939.0
939.0
941.0
942.0
941.0
940.0
933.0
928.0
920.0
917.0
914.0
911.0
910.0
910.0
912.0
914.0
916.0
916.0
912.0
911.0
909.0
908.0
905.0
906.0
906.0
906.0
909.0
908.0
909.0
907.0
905.0
904.0
903.0
905.0
904.0
907.0
906.0
908.0
910.0
913.0
912.0
915.0
915.0
915.0
913.0
916.0
914.0
917.0
919.0
923.0
928.0
935.0
951.0
973.0
1007.0
1057.0
1123.0
1199.0
1272.0
1332.0
1366.0
1355.0
1297.0
1195.0
1067.0
939.0
821.0
759.0
750.0
782.0
829.0
875.0
910.0
931.0
941.0
941.0
935.0
929.0
925.0
924.0
922.0
920.0
920.0
920.0
921.0
925.0
926.0
928.0
929.0
928.0
927.0
926.0
924.0
925.0
924.0
925.0
926.0
927.0
930.0
932.0
930.0
930.0
930.0
929.0
929.0
926.0
927.0
926.0
929.0
929.0
931.0
933.0
932.0
930.0
929.0
927.0
928.0
925.0
923.0
926.0
925.0
928.0
929.0
927.0
929.0
933.0
932.0
930.0
928.0
928.0
928.0
926.0
929.0
930.0
932.0
934.0
933.0
934.0
932.0
932.0
932.0
930.0
930.0
929.0
932.0
933.0
934.0
935.0
939.0
938.0
936.0
937.0
937.0
937.0
935.0
937.0
940.0
940.0
944.0
946.0
946.0
946.0
944.0
943.0
942.0
942.0
943.0
943.0
945.0
948.0
948.0
951.0
953.0
951.0
950.0
951.0
949.0
950.0
949.0
951.0
952.0
955.0
956.0
955.0
956.0
955.0
954.0
952.0
952.0
950.0
947.0
951.0
950.0
953.0
953.0
952.0
951.0
949.0
947.0
942.0
936.0
931.0
930.0
928.0
927.0
924.0
921.0
919.0
914.0
912.0
909.0
906.0
905.0
903.0
899.0
899.0
901.0
900.0
897.0
898.0
899.0
899.0
897.0
896.0
892.0
894.0
893.0
896.0
898.0
898.0
899.0
901.0
900.0
902.0
899.0
899.0
898.0
898.0
898.0
898.0
900.0
901.0
901.0
904.0
907.0
907.0
908.0
903.0
904.0
903.0
903.0
902.0
905.0
