# Simple Text Format
# Sampling Rate (Hz):= 360.00
# Resolution:= 12
# Labels:= ECG
874.0
874.0
877.0
874.0
872.0
866.0
867.0
866.0
867.0
867.0
869.0
871.0
870.0
869.0
868.0
867.0
864.0
859.0
856.0
852.0
848.0
849.0
845.0
844.0
844.0
844.0
844.0
841.0
840.0
838.0
839.0
839.0
841.0
841.0
842.0
843.0
839.0
839.0
838.0
839.0
837.0
837.0
839.0
839.0
840.0
838.0
842.0
842.0
843.0
842.0
846.0
843.0
844.0
845.0
845.0
844.0
851.0
849.0
850.0
854.0
860.0
867.0
877.0
891.0
912.0
948.0
990.0
1050.0
1117.0
1186.0
1244.0
1280.0
1282.0
1239.0
1150.0
1029.0
901.0
779.0
704.0
686.0
706.0
754.0
801.0
840.0
864.0
875.0
875.0
868.0
863.0
858.0
854.0
851.0
850.0
853.0
856.0
857.0
862.0
861.0
860.0
859.0
858.0
856.0
858.0
856.0
857.0
861.0
859.0
864.0
864.0
863.0
862.0
861.0
861.0
859.0
858.0
860.0
860.0
861.0
862.0
861.0
864.0
864.0
864.0
863.0
863.0
860.0
859.0
857.0
861.0
860.0
863.0
863.0
866.0
864.0
860.0
860.0
859.0
859.0
859.0
862.0
861.0
860.0
861.0
862.0
864.0
865.0
863.0
864.0
863.0
861.0
863.0
862.0
863.0
864.0
866.0
869.0
870.0
869.0
868.0
867.0
867.0
866.0
868.0
867.0
869.0
868.0
869.0
872.0
872.0
873.0
874.0
873.0
872.0
871.0
871.0
873.0
873.0
871.0
875.0
875.0
876.0
878.0
876.0
879.0
878.0
874.0
873.0
874.0
873.0
877.0
876.0
877.0
881.0
879.0
880.0
880.0
879.0
878.0
876.0
874.0
876.0
877.0
877.0
879.0
880.0
879.0
880.0
880.0
876.0
873.0
869.0
867.0
865.0
865.0
863.0
859.0
859.0
857.0
856.0
852.0
846.0
843.0
837.0
837.0
837.0
835.0
835.0
835.0
837.0
834.0
834.0
830.0
829.0
829.0
828.0
825.0
827.0
827.0
831.0
831.0
832.0
833.0
834.0
828.0
828.0
828.0
826.0
831.0
830.0
832.0
833.0
832.0
835.0
835.0
835.0
832.0
832.0
833.0
834.0
836.0
835.0
837.0
837.0
839.0
841.0
841.0
840.0
839.0
838.0
836.0
834.0
835.0
834.0
836.0
838.0
838.0
837.0
837.0
835.0
836.0
833.0
833.0
828.0
830.0
830.0
831.0
832.0
835.0
833.0
832.0
830.0
829.0
826.0
828.0
825.0
825.0
825.0
826.0
825.0
828.0
826.0
828.0
829.0
828.0
826.0
825.0
825.0
822.0
825.0
825.0
826.0
827.0
828.0
827.0
828.0
827.0
824.0
821.0
820.0
822.0
821.0
825.0
823.0
825.0
826.0
824.0
824.0
824.0
822.0
824.0
828.0
831.0
833.0
836.0
839.0
844.0
849.0
851.0
852.0
853.0
857.0
854.0
853.0
847.0
848.0
848.0
850.0
853.0
856.0
853.0
853.0
851.0
848.0
845.0
839.0
835.0
831.0
827.0
826.0
824.0
825.0
824.0
824.0
822.0
822.0
822.0
820.0
818.0
820.0
820.0
821.0
821.0
822.0
822.0
822.0
818.0
817.0
817.0
816.0
815.0
816.0
817.0
821.0
822.0
823.0
824.0
823.0
822.0
819.0
821.0
818.0
818.0
821.0
823.0
827.0
831.0
833.0
834.0
835.0
835.0
838.0
847.0
861.0
888.0
929.0
987.0
1060.0
1144.0
1220.0
1273.0
1289.0
1255.0
1167.0
1049.0
921.0
793.0
700.0
669.0
683.0
730.0
779.0
820.0
850.0
862.0
861.0
853.0
845.0
838.0
835.0
830.0
835.0
838.0
840.0
840.0
841.0
841.0
841.0
840.0
836.0
838.0
838.0
839.0
840.0
842.0
845.0
844.0
844.0
843.0
844.0
844.0
842.0
841.0
841.0
842.0
845.0
843.0
848.0
847.0
846.0
846.0
843.0
842.0
844.0
842.0
839.0
841.0
844.0
845.0
847.0
847.0
847.0
847.0
847.0
847.0
845.0
844.0
846.0
846.0
847.0
850.0
850.0
850.0
851.0
851.0
851.0
850.0
849.0
850.0
850.0
852.0
851.0
855.0
856.0
859.0
857.0
856.0
855.0
854.0
854.0
853.0
855.0
857.0
858.0
861.0
863.0
861.0
861.0
862.0
861.0
858.0
860.0
859.0
862.0
866.0
868.0
867.0
872.0
874.0
873.0
873.0
872.0
872.0
870.0
871.0
870.0
873.0
873.0
871.0
873.0
875.0
875.0
875.0
873.0
870.0
871.0
869.0
870.0
872.0
873.0
870.0
873.0
872.0
872.0
871.0
865.0
860.0
860.0
854.0
854.0
850.0
849.0
846.0
844.0
842.0
839.0
834.0
831.0
827.0
824.0
821.0
820.0
821.0
819.0
821.0
822.0
821.0
818.0
815.0
814.0
814.0
814.0
812.0
812.0
812.0
812.0
815.0
817.0
818.0
818.0
815.0
814.0
816.0
816.0
817.0
815.0
817.0
820.0
821.0
823.0
823.0
825.0
823.0
825.0
825.0
825.0
822.0
823.0
826.0
828.0
828.0
829.0
826.0
830.0
828.0
826.0
822.0
823.0
821.0
821.0
823.0
827.0
827.0
828.0
828.0
828.0
826.0
825.0
824.0
821.0
819.0
817.0
817.0
820.0
822.0
823.0
822.0
821.0
821.0
819.0
818.0
816.0
815.0
816.0
815.0
816.0
816.0
819.0
817.0
816.0
815.0
815.0
816.0
812.0
810.0
811.0
813.0
815.0
813.0
815.0
815.0
814.0
814.0
815.0
813.0
812.0
811.0
808.0
810.0
810.0
813.0
816.0
814.0
811.0
811.0
810.0
810.0
809.0
806.0
808.0
809.0
809.0
811.0
813.0
815.0
813.0
814.0
814.0
812.0
811.0
809.0
809.0
811.0
814.0
813.0
814.0
814.0
814.0
812.0
812.0
813.0
811.0
810.0
808.0
811.0
812.0
814.0
814.0
815.0
815.0
815.0
812.0
812.0
811.0
809.0
809.0
812.0
813.0
813.0
815.0
814.0
815.0
817.0
816.0
820.0
821.0
824.0
826.0
827.0
832.0
834.0
836.0
838.0
836.0
837.0
839.0
837.0
835.0
835.0
833.0
833.0
831.0
836.0
834.0
839.0
836.0
836.0
833.0
829.0
824.0
822.0
822.0
822.0
818.0
818.0
819.0
818.0
816.0
813.0
812.0
812.0
810.0
810.0
809.0
809.0
811.0
811.0
809.0
812.0
812.0
810.0
808.0
805.0
806.0
806.0
806.0
807.0
808.0
809.0
810.0
808.0
809.0
812.0
813.0
813.0
813.0
814.0
816.0
818.0
821.0
820.0
825.0
828.0
831.0
843.0
862.0
894.0
940.0
1001.0
1072.0
1150.0
1219.0
1262.0
1263.0
1214.0
1114.0
988.0
860.0
740.0
671.0
650.0
669.0
716.0
766.0
806.0
833.0
843.0
846.0
841.0
836.0
830.0
825.0
822.0
822.0
825.0
828.0
829.0
829.0
830.0
830.0
830.0
830.0
829.0
826.0
827.0
827.0
827.0
829.0
830.0
832.0
831.0
831.0
829.0
828.0
827.0
828.0
827.0
824.0
827.0
830.0
831.0
833.0
833.0
833.0
832.0
831.0
831.0
828.0
827.0
829.0
827.0
830.0
831.0
833.0
837.0
833.0
831.0
832.0
830.0
828.0
831.0
830.0
832.0
833.0
832.0
834.0
833.0
836.0
836.0
835.0
834.0
834.0
835.0
835.0
835.0
837.0
835.0
838.0
840.0
841.0
840.0
839.0
839.0
838.0
839.0
840.0
842.0
842.0
840.0
844.0
848.0
846.0
846.0
845.0
843.0
843.0
842.0
845.0
846.0
845.0
850.0
848.0
851.0
852.0
852.0
850.0
849.0
849.0
847.0
847.0
850.0
850.0
850.0
852.0
851.0
852.0
852.0
851.0
851.0
851.0
849.0
850.0
851.0
849.0
853.0
853.0
853.0
851.0
850.0
847.0
845.0
842.0
838.0
838.0
834.0
833.0
831.0
831.0
825.0
824.0
822.0
819.0
817.0
813.0
815.0
811.0
813.0
812.0
812.0
811.0
812.0
811.0
808.0
807.0
804.0
806.0
803.0
803.0
804.0
807.0
806.0
808.0
809.0
809.0
810.0
807.0
804.0
805.0
803.0
805.0
804.0
808.0
806.0
810.0
813.0
811.0
813.0
812.0
811.0
811.0
810.0
810.0
811.0
809.0
811.0
813.0
817.0
813.0
815.0
814.0
814.0
811.0
810.0
812.0
811.0
812.0
813.0
813.0
814.0
813.0
810.0
812.0
810.0
808.0
805.0
808.0
810.0
809.0
811.0
811.0
812.0
812.0
810.0
805.0
804.0
806.0
804.0
806.0
805.0
805.0
804.0
806.0
805.0
809.0
809.0
805.0
805.0
801.0
799.0
800.0
800.0
803.0
804.0
808.0
805.0
805.0
802.0
803.0
801.0
801.0
801.0
801.0
801.0
802.0
802.0
804.0
803.0
806.0
804.0
803.0
803.0
800.0
799.0
800.0
802.0
802.0
805.0
803.0
805.0
805.0
805.0
804.0
803.0
802.0
798.0
798.0
802.0
802.0
803.0
803.0
803.0
805.0
805.0
803.0
803.0
802.0
803.0
801.0
802.0
803.0
804.0
804.0
806.0
807.0
805.0
804.0
805.0
801.0
802.0
801.0
799.0
803.0
802.0
806.0
804.0
806.0
805.0
804.0
803.0
804.0
801.0
804.0
804.0
804.0
805.0
807.0
808.0
806.0
806.0
805.0
804.0
806.0
804.0
805.0
803.0
805.0
808.0
810.0
811.0
812.0
811.0
812.0
814.0
815.0
817.0
820.0
823.0
825.0
829.0
831.0
835.0
831.0
834.0
833.0
833.0
835.0
836.0
835.0
831.0
832.0
833.0
832.0
835.0
831.0
832.0
831.0
830.0
826.0
822.0
821.0
819.0
816.0
813.0
814.0
814.0
811.0
810.0
809.0
809.0
809.0
806.0
808.0
809.0
810.0
810.0
809.0
809.0
809.0
809.0
807.0
807.0
807.0
806.0
806.0
804.0
808.0
808.0
809.0
812.0
812.0
814.0
813.0
812.0
813.0
812.0
815.0
814.0
818.0
822.0
824.0
825.0
827.0
830.0
841.0
850.0
874.0
904.0
949.0
1011.0
1086.0
1161.0
1224.0
1258.0
1253.0
1202.0
1101.0
973.0
845.0
728.0
663.0
651.0
676.0
723.0
771.0
808.0
830.0
843.0
845.0
842.0
837.0
830.0
827.0
826.0
825.0
825.0
831.0
832.0
833.0
833.0
833.0
832.0
831.0
832.0
832.0
832.0
833.0
834.0
836.0
837.0
837.0
835.0
834.0
832.0
831.0
828.0
832.0
833.0
834.0
835.0
837.0
838.0
838.0
837.0
835.0
835.0
832.0
831.0
833.0
834.0
836.0
837.0
838.0
840.0
839.0
837.0
836.0
836.0
835.0
836.0
834.0
837.0
836.0
838.0
839.0
842.0
842.0
841.0
841.0
841.0
840.0
837.0
840.0
840.0
840.0
841.0
843.0
845.0
844.0
845.0
844.0
843.0
845.0
845.0
845.0
844.0
845.0
847.0
847.0
851.0
853.0
852.0
852.0
850.0
850.0
848.0
848.0
849.0
852.0
854.0
856.0
859.0
857.0
856.0
855.0
855.0
853.0
853.0
855.0
854.0
856.0
857.0
856.0
855.0
856.0
856.0
857.0
857.0
856.0
855.0
860.0
857.0
857.0
859.0
859.0
859.0
856.0
853.0
851.0
848.0
846.0
843.0
837.0
838.0
837.0
837.0
838.0
834.0
833.0
831.0
828.0
825.0
821.0
821.0
822.0
820.0
819.0
819.0
821.0
821.0
818.0
821.0
822.0
821.0
819.0
817.0
817.0
818.0
818.0
818.0
823.0
825.0
823.0
823.0
823.0
821.0
822.0
820.0
822.0
819.0
826.0
826.0
828.0
830.0
830.0
830.0
827.0
828.0
827.0
827.0
829.0
829.0
830.0
831.0
833.0
833.0
832.0
832.0
832.0
831.0
830.0
826.0
825.0
828.0
828.0
828.0
831.0
831.0
829.0
830.0
829.0
825.0
826.0
823.0
821.0
821.0
823.0
825.0
830.0
829.0
828.0
828.0
826.0
825.0
823.0
822.0
822.0
821.0
822.0
821.0
824.0
821.0
824.0
821.0
819.0
819.0
818.0
815.0
816.0
817.0
818.0
821.0
820.0
821.0
821.0
822.0
822.0
821.0
820.0
819.0
817.0
818.0
818.0
816.0
821.0
821.0
822.0
821.0
820.0
816.0
816.0
816.0
814.0
815.0
818.0
819.0
823.0
822.0
821.0
821.0
818.0
818.0
819.0
817.0
819.0
818.0
818.0
821.0
825.0
826.0
823.0
825.0
823.0
822.0
821.0
820.0
823.0
826.0
829.0
831.0
833.0
836.0
837.0
838.0
840.0
841.0
841.0
842.0
841.0
843.0
846.0
846.0
850.0
852.0
852.0
852.0
846.0
844.0
846.0
843.0
844.0
845.0
846.0
849.0
848.0
845.0
841.0
836.0
833.0
829.0
826.0
824.0
823.0
822.0
824.0
825.0
824.0
828.0
828.0
829.0
827.0
826.0
824.0
823.0
822.0
822.0
820.0
821.0
820.0
824.0
827.0
828.0
827.0
825.0
825.0
826.0
825.0
827.0
829.0
831.0
835.0
837.0
840.0
842.0
842.0
839.0
841.0
845.0
857.0
871.0
893.0
929.0
978.0
1038.0
1107.0
1177.0
1239.0
1275.0
1269.0
1217.0
1122.0
994.0
866.0
752.0
693.0
684.0
713.0
758.0
803.0
838.0
857.0
862.0
861.0
856.0
852.0
849.0
848.0
849.0
851.0
851.0
853.0
853.0
851.0
851.0
850.0
851.0
852.0
852.0
855.0
856.0
854.0
857.0
856.0
854.0
855.0
853.0
854.0
853.0
854.0
856.0
857.0
859.0
859.0
858.0
859.0
856.0
857.0
857.0
856.0
858.0
856.0
857.0
860.0
860.0
861.0
861.0
861.0
860.0
857.0
856.0
858.0
857.0
860.0
862.0
863.0
864.0
863.0
862.0
863.0
863.0
861.0
862.0
863.0
862.0
864.0
865.0
868.0
868.0
870.0
871.0
869.0
868.0
868.0
867.0
866.0
867.0
868.0
870.0
870.0
874.0
876.0
876.0
876.0
875.0
876.0
876.0
877.0
876.0
878.0
878.0
880.0
882.0
881.0
883.0
882.0
881.0
880.0
880.0
879.0
879.0
878.0
882.0
879.0
882.0
881.0
881.0
878.0
879.0
877.0
877.0
877.0
876.0
878.0
878.0
879.0
880.0
878.0
876.0
873.0
873.0
869.0
864.0
862.0
860.0
859.0
860.0
859.0
858.0
856.0
852.0
851.0
848.0
847.0
840.0
837.0
838.0
842.0
841.0
843.0
842.0
840.0
841.0
840.0
838.0
836.0
834.0
836.0
836.0
838.0
838.0
841.0
842.0
841.0
843.0
842.0
842.0
840.0
841.0
841.0
841.0
841.0
846.0
847.0
848.0
850.0
851.0
848.0
847.0
847.0
847.0
845.0
849.0
850.0
851.0
853.0
853.0
852.0
853.0
853.0
852.0
849.0
847.0
848.0
848.0
848.0
847.0
852.0
852.0
852.0
849.0
848.0
843.0
845.0
845.0
843.0
844.0
844.0
845.0
846.0
847.0
847.0
845.0
845.0
845.0
843.0
842.0
842.0
842.0
843.0
845.0
846.0
848.0
844.0
847.0
847.0
846.0
841.0
841.0
840.0
843.0
842.0
843.0
845.0
846.0
846.0
846.0
846.0
844.0
842.0
841.0
840.0
842.0
841.0
841.0
841.0
845.0
846.0
845.0
844.0
843.0
843.0
841.0
840.0
839.0
843.0
844.0
843.0
846.0
846.0
848.0
847.0
845.0
844.0
842.0
842.0
843.0
844.0
846.0
845.0
846.0
846.0
848.0
847.0
847.0
847.0
849.0
851.0
854.0
857.0
860.0
863.0
866.0
869.0
869.0
868.0
869.0
869.0
868.0
870.0
874.0
873.0
872.0
872.0
874.0
871.0
871.0
871.0
870.0
867.0
866.0
865.0
862.0
859.0
856.0
853.0
853.0
856.0
851.0
849.0
850.0
847.0
848.0
846.0
847.0
846.0
850.0
850.0
851.0
851.0
851.0
849.0
847.0
850.0
848.0
849.0
848.0
852.0
852.0
852.0
856.0
855.0
857.0
859.0
858.0
858.0
858.0
862.0
864.0
864.0
869.0
874.0
882.0
898.0
918.0
953.0
997.0
1057.0
1127.0
1200.0
1264.0
1307.0
1316.0
1286.0
1211.0
1102.0
974.0
853.0
763.0
716.0
717.0
747.0
792.0
836.0
869.0
889.0
897.0
895.0
889.0
879.0
875.0
867.0
870.0
870.0
872.0
873.0
879.0
880.0
882.0
879.0
879.0
880.0
878.0
877.0
875.0
876.0
877.0
879.0
880.0
879.0
883.0
884.0
883.0
882.0
882.0
882.0
882.0
879.0
880.0
880.0
883.0
882.0
884.0
886.0
883.0
884.0
881.0
881.0
881.0
882.0
882.0
884.0
883.0
884.0
886.0
888.0
886.0
885.0
886.0
883.0
883.0
885.0
887.0
888.0
889.0
888.0
890.0
890.0
890.0
888.0
888.0
888.0
887.0
889.0
889.0
890.0
893.0
893.0
897.0
898.0
898.0
898.0
894.0
892.0
892.0
894.0
895.0
896.0
901.0
903.0
905.0
906.0
907.0
906.0
905.0
906.0
904.0
906.0
906.0
908.0
910.0
912.0
914.0
917.0
915.0
915.0
914.0
914.0
913.0
909.0
910.0
913.0
915.0
914.0
916.0
916.0
917.0
918.0
917.0
916.0
916.0
915.0
915.0
916.0
917.0
919.0
920.0
918.0
915.0
914.0
911.0
907.0
903.0
902.0
900.0
895.0
895.0
894.0
893.0
891.0
890.0
887.0
882.0
880.0
879.0
875.0
875.0
874.0
875.0
874.0
876.0
873.0
873.0
872.0
869.0
867.0
867.0
866.0
865.0
866.0
867.0
868.0
871.0
871.0
872.0
873.0
869.0
869.0
870.0
869.0
869.0
868.0
874.0
878.0
879.0
880.0
879.0
878.0
880.0
879.0
879.0
878.0
879.0
879.0
881.0
882.0
884.0
887.0
885.0
883.0
883.0
882.0
881.0
882.0
880.0
883.0
883.0
885.0
886.0
889.0
886.0
886.0
883.0
883.0
881.0
880.0
881.0
880.0
881.0
884.0
883.0
886.0
884.0
884.0
883.0
882.0
881.0
879.0
876.0
876.0
881.0
881.0
881.0
883.0
884.0
880.0
880.0
878.0
877.0
876.0
878.0
879.0
880.0
883.0
885.0
883.0
883.0
884.0
879.0
880.0
876.0
879.0
878.0
880.0
882.0
882.0
881.0
884.0
882.0
884.0
880.0
878.0
879.0
879.0
878.0
880.0
884.0
884.0
883.0
885.0
885.0
886.0
885.0
885.0
884.0
882.0
881.0
879.0
881.0
886.0
888.0
885.0
888.0
885.0
885.0
883.0
882.0
882.0
885.0
887.0
887.0
888.0
890.0
893.0
893.0
893.0
893.0
892.0
895.0
892.0
893.0
896.0
900.0
904.0
907.0
909.0
907.0
910.0
914.0
913.0
914.0
915.0
916.0
920.0
920.0
919.0
920.0
922.0
920.0
921.0
921.0
920.0
917.0
916.0
915.0
912.0
911.0
910.0
908.0
904.0
903.0
902.0
899.0
897.0
896.0
896.0
899.0
899.0
899.0
900.0
902.0
900.0
900.0
901.0
900.0
899.0
899.0
898.0
897.0
900.0
902.0
902.0
903.0
905.0
903.0
905.0
905.0
905.0
903.0
900.0
906.0
908.0
910.0
910.0
914.0
918.0
919.0
918.0
921.0
923.0
931.0
946.0
966.0
998.0
1044.0
1100.0
1173.0
1246.0
1314.0
1352.0
1350.0
1298.0
1199.0
1071.0
943.0
828.0
768.0
753.0
782.0
828.0
875.0
912.0
933.0
942.0
941.0
939.0
934.0
931.0
930.0
927.0
930.0
931.0
930.0
932.0
933.0
933.0
931.0
930.0
932.0
934.0
936.0
938.0
941.0
942.0
942.0
941.0
938.0
939.0
942.0
939.0
940.0
940.0
944.0
944.0
945.0
947.0
948.0
948.0
947.0
947.0
947.0
943.0
942.0
946.0
946.0
946.0
949.0
951.0
950.0
951.0
950.0
948.0
950.0
949.0
952.0
951.0
951.0
952.0
953.0
954.0
957.0
958.0
955.0
955.0
955.0
951.0
953.0
954.0
958.0
960.0
961.0
962.0
962.0
962.0
962.0
964.0
962.0
961.0
963.0
965.0
967.0
969.0
971.0
973.0
975.0
975.0
976.0
974.0
975.0
975.0
975.0
978.0
982.0
982.0
984.0
985.0
985.0
987.0
987.0
986.0
983.0
983.0
984.0
982.0
987.0
989.0
990.0
992.0
991.0
992.0
989.0
987.0
987.0
986.0
988.0
990.0
992.0
990.0
991.0
994.0
994.0
993.0
992.0
988.0
992.0
993.0
993.0
994.0
994.0
997.0
993.0
995.0
993.0
989.0
988.0
985.0
979.0
979.0
975.0
970.0
972.0
970.0
971.0
969.0
967.0
965.0
965.0
961.0
960.0
960.0
959.0
959.0
959.0
960.0
960.0
961.0
959.0
956.0
961.0
959.0
960.0
960.0
959.0
962.0
962.0
962.0
965.0
969.0
968.0
967.0
967.0
968.0
968.0
966.0
968.0
969.0
971.0
974.0
975.0
977.0
977.0
978.0
976.0
976.0
975.0
976.0
975.0
973.0
980.0
978.0
980.0
981.0
979.0
982.0
980.0
981.0
978.0
979.0
978.0
978.0
981.0
981.0
983.0
982.0
982.0
982.0
982.0
981.0
980.0
977.0
978.0
977.0
976.0
979.0
981.0
981.0
977.0
977.0
978.0
978.0
976.0
973.0
973.0
974.0
977.0
979.0
980.0
979.0
979.0
978.0
975.0
974.0
973.0
976.0
975.0
974.0
975.0
976.0
977.0
978.0
979.0
979.0
977.0
977.0
977.0
975.0
974.0
975.0
976.0
980.0
983.0
983.0
981.0
984.0
981.0
978.0
975.0
975.0
976.0
976.0
978.0
979.0
981.0
984.0
981.0
982.0
981.0
979.0
978.0
977.0
979.0
979.0
979.0
983.0
983.0
983.0
984.0
983.0
982.0
982.0
984.0
986.0
987.0
989.0
990.0
994.0
999.0
1000.0
1004.0
1003.0
1007.0
1008.0
1007.0
1008.0
1010.0
1011.0
1013.0
1013.0
1014.0
1013.0
1016.0
1014.0
1013.0
1011.0
1011.0
1008.0
1005.0
1007.0
1006.0
1004.0
1000.0
999.0
996.0
994.0
991.0
990.0
989.0
987.0
984.0
983.0
983.0
987.0
987.0
988.0
987.0
989.0
987.0
985.0
984.0
983.0
983.0
985.0
982.0
984.0
987.0
986.0
987.0
988.0
986.0
986.0
983.0
984.0
985.0
986.0
987.0
992.0
993.0
997.0
998.0
998.0
999.0
1000.0
995.0
997.0
999.0
1002.0
1009.0
1023.0
1042.0
1070.0
1106.0
1156.0
1221.0
1289.0
1354.0
1398.0
1409.0
1373.0
1290.0
1170.0
1042.0
921.0
854.0
839.0
863.0
911.0
957.0
992.0
1013.0
1023.0
1024.0
1021.0
1016.0
1012.0
1008.0
1009.0
1008.0
1008.0
1009.0
1008.0
1009.0
1010.0
1013.0
1014.0
1013.0
1015.0
1016.0
1017.0
1016.0
1014.0
1012.0
1011.0
1011.0
1011.0
1015.0
1019.0
1018.0
1018.0
1018.0
1018.0
1018.0
1016.0
1011.0
1010.0
1014.0
1011.0
1015.0
1017.0
1018.0
1021.0
1020.0
1018.0
1017.0
1017.0
1013.0
1014.0
1013.0
1014.0
1016.0
1018.0
1018.0
1019.0
1019.0
1017.0
1018.0
1018.0
1016.0
1013.0
1014.0
1015.0
1017.0
1017.0
1020.0
1020.0
1020.0
1020.0
1019.0
1019.0
1020.0
1019.0
1018.0
1019.0
1019.0
1019.0
1019.0
1021.0
1023.0
1022.0
1022.0
1025.0
1024.0
1023.0
1023.0
1021.0
1026.0
1024.0
1026.0
1029.0
1030.0
1031.0
1029.0
1029.0
1028.0
1026.0
1027.0
1023.0
1027.0
1028.0
1028.0
1028.0
1030.0
1030.0
1029.0
1027.0
1026.0
1022.0
1022.0
1024.0
1024.0
1027.0
1028.0
1028.0
1029.0
1028.0
1026.0
1023.0
1024.0
1023.0
1023.0
1023.0
1024.0
1027.0
1025.0
1027.0
1022.0
1021.0
1018.0
1016.0
1011.0
1007.0
1006.0
1004.0
1003.0
1000.0
999.0
996.0
997.0
994.0
993.0
988.0
987.0
984.0
983.0
981.0
984.0
985.0
983.0
986.0
984.0
984.0
982.0
977.0
979.0
980.0
980.0
981.0
980.0
982.0
982.0
985.0
985.0
985.0
984.0
981.0
982.0
981.0
983.0
983.0
984.0
986.0
988.0
990.0
991.0
989.0
991.0
988.0
986.0
985.0
985.0
986.0
986.0
986.0
986.0
990.0
990.0
985.0
984.0
983.0
985.0
982.0
982.0
980.0
983.0
982.0
983.0
982.0
982.0
980.0
977.0
978.0
978.0
975.0
975.0
974.0
976.0
978.0
978.0
979.0
977.0
976.0
974.0
973.0
970.0
969.0
970.0
969.0
970.0
970.0
972.0
972.0
972.0
969.0
969.0
969.0
967.0
964.0
964.0
966.0
966.0
969.0
968.0
968.0
971.0
969.0
968.0
968.0
963.0
964.0
964.0
964.0
967.0
965.0
967.0
968.0
967.0
966.0
964.0
963.0
962.0
962.0
962.0
964.0
964.0
963.0
967.0
970.0
972.0
972.0
973.0
973.0
974.0
974.0
977.0
977.0
980.0
983.0
985.0
988.0
989.0
990.0
990.0
989.0
991.0
986.0
988.0
986.0
985.0
988.0
987.0
991.0
989.0
988.0
985.0
983.0
979.0
975.0
976.0
968.0
968.0
963.0
962.0
962.0
962.0
961.0
962.0
959.0
959.0
956.0
954.0
956.0
955.0
957.0
957.0
957.0
957.0
956.0
956.0
950.0
952.0
951.0
951.0
951.0
954.0
953.0
956.0
957.0
957.0
959.0
958.0
959.0
958.0
959.0
958.0
961.0
961.0
963.0
966.0
970.0
971.0
976.0
984.0
999.0
1020.0
1053.0
1097.0
1153.0
1216.0
1281.0
1339.0
1378.0
1395.0
1377.0
1325.0
1234.0
1119.0
998.0
893.0
827.0
809.0
828.0
872.0
917.0
953.0
977.0
989.0
989.0
985.0
977.0
971.0
965.0
965.0
967.0
970.0
972.0
972.0
973.0
973.0
971.0
971.0
969.0
969.0
970.0
972.0
973.0
973.0
975.0
975.0
973.0
973.0
972.0
971.0
969.0
969.0
971.0
970.0
972.0
972.0
975.0
976.0
975.0
974.0
971.0
971.0
970.0
969.0
971.0
971.0
972.0
975.0
975.0
975.0
976.0
974.0
971.0
968.0
969.0
969.0
969.0
972.0
974.0
972.0
975.0
975.0
974.0
975.0
972.0
973.0
973.0
972.0
973.0
976.0
975.0
976.0
978.0
978.0
979.0
979.0
976.0
976.0
975.0
976.0
976.0
979.0
980.0
982.0
983.0
983.0
984.0
984.0
984.0
985.0
983.0
984.0
982.0
985.0
987.0
989.0
989.0
988.0
990.0
988.0
989.0
987.0
985.0
985.0
986.0
988.0
989.0
991.0
991.0
993.0
990.0
990.0
988.0
990.0
988.0
988.0
988.0
988.0
988.0
989.0
992.0
989.0
988.0
986.0
981.0
980.0
977.0
975.0
972.0
969.0
966.0
964.0
966.0
962.0
959.0
954.0
950.0
947.0
945.0
943.0
940.0
944.0
940.0
940.0
940.0
939.0
938.0
938.0
934.0
932.0
930.0
929.0
929.0
930.0
931.0
935.0
936.0
935.0
934.0
938.0
934.0
936.0
933.0
933.0
931.0
935.0
935.0
940.0
943.0
943.0
944.0
943.0
942.0
942.0
940.0
938.0
939.0
941.0
943.0
943.0
944.0
945.0
943.0
942.0
941.0
938.0
938.0
939.0
939.0
940.0
938.0
940.0
941.0
939.0
938.0
938.0
936.0
934.0
934.0
933.0
933.0
931.0
934.0
933.0
934.0
935.0
933.0
933.0
930.0
929.0
930.0
927.0
929.0
930.0
927.0
929.0
930.0
930.0
929.0
927.0
929.0
929.0
926.0
924.0
925.0
926.0
925.0
926.0
928.0
926.0
925.0
924.0
924.0
921.0
922.0
920.0
920.0
922.0
920.0
922.0
923.0
925.0
923.0
919.0
920.0
918.0
918.0
919.0
919.0
921.0
921.0
922.0
923.0
923.0
923.0
922.0
920.0
921.0
919.0
920.0
919.0
918.0
920.0
920.0
922.0
923.0
921.0
923.0
925.0
926.0
929.0
928.0
932.0
934.0
937.0
938.0
944.0
944.0
945.0
945.0
945.0
945.0
945.0
945.0
943.0
942.0
941.0
942.0
945.0
948.0
945.0
946.0
941.0
938.0
933.0
932.0
928.0
925.0
923.0
919.0
920.0
920.0
918.0
916.0
915.0
915.0
913.0
911.0
910.0
909.0
909.0
911.0
911.0
912.0
911.0
909.0
908.0
908.0
907.0
909.0
907.0
907.0
907.0
910.0
912.0
913.0
911.0
910.0
908.0
911.0
910.0
911.0
911.0
915.0
918.0
920.0
923.0
926.0
924.0
929.0
935.0
946.0
964.0
991.0
1026.0
1079.0
1140.0
1208.0
1271.0
1317.0
1343.0
1332.0
1277.0
1185.0
1066.0
943.0
838.0
781.0
770.0
797.0
838.0
883.0
919.0
941.0
949.0
944.0
936.0
928.0
921.0
920.0
919.0
921.0
925.0
927.0
928.0
930.0
928.0
925.0
924.0
924.0
923.0
925.0
927.0
929.0
929.0
931.0
930.0
931.0
928.0
928.0
926.0
926.0
923.0
926.0
925.0
926.0
928.0
928.0
926.0
926.0
925.0
924.0
925.0
923.0
926.0
924.0
924.0
925.0
927.0
925.0
924.0
926.0
926.0
927.0
924.0
924.0
925.0
926.0
927.0
928.0
928.0
930.0
930.0
931.0
928.0
924.0
925.0
927.0
927.0
928.0
927.0
929.0
928.0
929.0
930.0
932.0
929.0
930.0
928.0
928.0
932.0
929.0
929.0
936.0
936.0
937.0
940.0
939.0
936.0
937.0
937.0
935.0
938.0
938.0
939.0
942.0
944.0
944.0
945.0
942.0
943.0
942.0
940.0
941.0
941.0
940.0
938.0
941.0
944.0
946.0
946.0
945.0
943.0
942.0
938.0
939.0
940.0
941.0
943.0
942.0
944.0
946.0
945.0
944.0
942.0
941.0
941.0
936.0
935.0
934.0
933.0
930.0
932.0
931.0
925.0
924.0
919.0
916.0
915.0
914.0
909.0
908.0
908.0
906.0
907.0
907.0
903.0
900.0
896.0
895.0
896.0
892.0
890.0
891.0
896.0
893.0
892.0
897.0
895.0
895.0
891.0
893.0
892.0
890.0
888.0
893.0
894.0
895.0
896.0
896.0
896.0
898.0
896.0
896.0
895.0
895.0
895.0
895.0
898.0
897.0
902.0
903.0
901.0
902.0
899.0
902.0
901.0
900.0
900.0
900.0
901.0
901.0
904.0
904.0
902.0
901.0
899.0
900.0
896.0
897.0
898.0
899.0
