# Simple Text Format
# Sampling Rate (Hz):= 360.00
# Resolution:= 12
# Labels:= ECG
919.0
920.0
922.0
925.0
930.0
937.0
938.0
937.0
937.0
935.0
932.0
932.0
931.0
933.0
935.0
937.0
937.0
941.0
941.0
941.0
940.0
938.0
939.0
940.0
938.0
938.0
938.0
940.0
942.0
943.0
948.0
947.0
946.0
944.0
942.0
941.0
941.0
943.0
943.0
944.0
947.0
949.0
951.0
950.0
951.0
951.0
950.0
946.0
946.0
948.0
948.0
949.0
952.0
956.0
957.0
959.0
957.0
958.0
956.0
954.0
954.0
958.0
955.0
959.0
961.0
965.0
964.0
967.0
965.0
968.0
966.0
965.0
966.0
968.0
971.0
973.0
973.0
978.0
979.0
978.0
977.0
978.0
976.0
977.0
977.0
977.0
977.0
981.0
984.0
985.0
988.0
987.0
986.0
985.0
985.0
986.0
985.0
986.0
988.0
987.0
987.0
991.0
990.0
990.0
991.0
990.0
992.0
987.0
986.0
986.0
984.0
979.0
982.0
978.0
978.0
974.0
972.0
968.0
963.0
958.0
954.0
949.0
949.0
945.0
948.0
946.0
945.0
944.0
943.0
940.0
940.0
938.0
937.0
937.0
936.0
938.0
939.0
940.0
940.0
940.0
941.0
938.0
942.0
939.0
939.0
940.0
940.0
942.0
945.0
947.0
947.0
948.0
948.0
946.0
945.0
944.0
943.0
943.0
944.0
948.0
949.0
952.0
953.0
956.0
954.0
952.0
950.0
953.0
951.0
949.0
952.0
951.0
951.0
954.0
954.0
955.0
955.0
950.0
952.0
949.0
949.0
949.0
950.0
948.0
951.0
951.0
952.0
953.0
951.0
949.0
947.0
947.0
946.0
948.0
947.0
944.0
949.0
950.0
950.0
950.0
948.0
945.0
945.0
945.0
943.0
943.0
944.0
947.0
946.0
948.0
948.0
949.0
950.0
950.0
954.0
955.0
956.0
960.0
960.0
962.0
966.0
969.0
972.0
970.0
975.0
978.0
979.0
978.0
975.0
974.0
973.0
975.0
975.0
977.0
978.0
981.0
980.0
977.0
976.0
972.0
970.0
965.0
962.0
959.0
957.0
954.0
953.0
951.0
947.0
946.0
947.0
944.0
943.0
941.0
944.0
943.0
945.0
944.0
946.0
943.0
944.0
941.0
941.0
941.0
941.0
940.0
940.0
942.0
941.0
942.0
944.0
943.0
943.0
944.0
943.0
944.0
943.0
947.0
946.0
950.0
951.0
954.0
957.0
957.0
960.0
961.0
962.0
966.0
974.0
995.0
1025.0
1064.0
1120.0
1186.0
1261.0
1330.0
1381.0
1397.0
1370.0
1291.0
1171.0
1043.0
915.0
814.0
783.0
803.0
850.0
903.0
946.0
975.0
988.0
989.0
984.0
977.0
970.0
966.0
963.0
966.0
967.0
969.0
970.0
969.0
967.0
967.0
965.0
965.0
964.0
967.0
966.0
969.0
971.0
971.0
971.0
969.0
968.0
967.0
966.0
967.0
966.0
970.0
971.0
971.0
973.0
971.0
971.0
971.0
971.0
969.0
970.0
970.0
969.0
968.0
972.0
971.0
973.0
971.0
972.0
974.0
971.0
972.0
972.0
970.0
970.0
973.0
974.0
976.0
978.0
979.0
978.0
977.0
976.0
975.0
973.0
974.0
978.0
978.0
979.0
978.0
981.0
979.0
978.0
978.0
976.0
978.0
976.0
979.0
981.0
983.0
984.0
986.0
987.0
988.0
988.0
984.0
986.0
984.0
984.0
987.0
987.0
990.0
989.0
992.0
994.0
993.0
995.0
997.0
995.0
995.0
996.0
995.0
998.0
997.0
999.0
1001.0
1003.0
1003.0
1000.0
998.0
997.0
997.0
998.0
999.0
999.0
1000.0
1001.0
1004.0
1004.0
1003.0
1003.0
1002.0
1000.0
997.0
993.0
990.0
987.0
986.0
985.0
981.0
979.0
974.0
972.0
967.0
964.0
960.0
953.0
954.0
951.0
952.0
950.0
949.0
949.0
946.0
946.0
944.0
938.0
939.0
937.0
933.0
936.0
937.0
937.0
937.0
939.0
942.0
939.0
939.0
937.0
936.0
934.0
935.0
936.0
936.0
939.0
941.0
941.0
942.0
942.0
938.0
940.0
940.0
941.0
938.0
942.0
944.0
944.0
946.0
947.0
947.0
946.0
946.0
943.0
945.0
945.0
946.0
946.0
947.0
947.0
949.0
948.0
947.0
950.0
947.0
946.0
945.0
943.0
944.0
940.0
943.0
943.0
941.0
945.0
943.0
942.0
940.0
939.0
935.0
937.0
933.0
935.0
936.0
937.0
938.0
938.0
938.0
936.0
936.0
934.0
933.0
932.0
932.0
932.0
934.0
935.0
934.0
938.0
936.0
934.0
931.0
933.0
934.0
932.0
928.0
928.0
931.0
931.0
932.0
931.0
932.0
935.0
934.0
933.0
934.0
936.0
938.0
939.0
945.0
947.0
946.0
951.0
953.0
954.0
952.0
954.0
955.0
955.0
957.0
962.0
965.0
965.0
962.0
964.0
961.0
958.0
960.0
960.0
958.0
957.0
955.0
955.0
953.0
952.0
952.0
952.0
948.0
943.0
935.0
932.0
927.0
925.0
921.0
921.0
923.0
922.0
922.0
925.0
926.0
926.0
925.0
925.0
922.0
917.0
917.0
918.0
920.0
922.0
922.0
922.0
921.0
920.0
922.0
921.0
921.0
921.0
920.0
918.0
922.0
922.0
926.0
930.0
928.0
929.0
927.0
927.0
926.0
927.0
931.0
935.0
940.0
948.0
962.0
986.0
1014.0
1054.0
1109.0
1173.0
1242.0
1305.0
1345.0
1356.0
1319.0
1233.0
1119.0
991.0
863.0
786.0
761.0
779.0
821.0
868.0
910.0
939.0
953.0
956.0
955.0
947.0
942.0
937.0
932.0
932.0
931.0
931.0
931.0
934.0
938.0
939.0
939.0
939.0
937.0
937.0
937.0
937.0
935.0
934.0
934.0
935.0
935.0
938.0
941.0
943.0
940.0
938.0
939.0
939.0
936.0
936.0
937.0
936.0
936.0
936.0
939.0
942.0
941.0
938.0
937.0
937.0
934.0
936.0
935.0
935.0
937.0
939.0
938.0
941.0
941.0
941.0
938.0
937.0
938.0
936.0
937.0
935.0
940.0
939.0
942.0
945.0
944.0
944.0
942.0
940.0
940.0
941.0
937.0
939.0
942.0
945.0
945.0
948.0
948.0
949.0
947.0
945.0
948.0
946.0
948.0
948.0
949.0
952.0
953.0
955.0
954.0
955.0
958.0
954.0
954.0
955.0
953.0
955.0
956.0
955.0
959.0
962.0
962.0
961.0
962.0
961.0
959.0
958.0
957.0
956.0
956.0
959.0
960.0
961.0
964.0
962.0
961.0
961.0
960.0
957.0
955.0
950.0
950.0
949.0
946.0
944.0
941.0
941.0
937.0
932.0
926.0
922.0
920.0
920.0
917.0
917.0
915.0
914.0
912.0
911.0
908.0
906.0
905.0
904.0
900.0
903.0
903.0
904.0
903.0
908.0
906.0
907.0
904.0
901.0
899.0
900.0
901.0
897.0
901.0
904.0
903.0
906.0
904.0
907.0
905.0
904.0
903.0
903.0
902.0
903.0
905.0
906.0
908.0
910.0
912.0
912.0
911.0
908.0
910.0
909.0
907.0
909.0
909.0
911.0
912.0
913.0
912.0
913.0
910.0
910.0
911.0
908.0
906.0
906.0
909.0
905.0
906.0
906.0
908.0
906.0
904.0
901.0
902.0
901.0
901.0
900.0
900.0
900.0
901.0
904.0
903.0
901.0
899.0
897.0
896.0
898.0
897.0
896.0
897.0
898.0
900.0
901.0
901.0
900.0
900.0
898.0
898.0
897.0
894.0
896.0
895.0
898.0
899.0
898.0
899.0
897.0
896.0
897.0
896.0
894.0
892.0
893.0
895.0
895.0
895.0
898.0
897.0
897.0
894.0
895.0
896.0
896.0
895.0
896.0
899.0
901.0
906.0
909.0
909.0
912.0
914.0
911.0
913.0
915.0
915.0
919.0
924.0
926.0
929.0
928.0
928.0
927.0
923.0
922.0
920.0
919.0
919.0
921.0
921.0
921.0
919.0
922.0
919.0
917.0
910.0
906.0
900.0
894.0
890.0
890.0
889.0
891.0
892.0
894.0
894.0
894.0
890.0
888.0
885.0
885.0
884.0
888.0
888.0
886.0
888.0
889.0
888.0
886.0
889.0
887.0
887.0
885.0
884.0
887.0
886.0
888.0
889.0
890.0
892.0
893.0
895.0
894.0
895.0
897.0
898.0
900.0
902.0
905.0
915.0
930.0
950.0
987.0
1039.0
1102.0
1178.0
1253.0
1307.0
1335.0
1312.0
1237.0
1116.0
988.0
860.0
762.0
726.0
743.0
785.0
834.0
879.0
908.0
923.0
930.0
925.0
919.0
913.0
907.0
905.0
903.0
903.0
903.0
903.0
905.0
904.0
905.0
909.0
910.0
907.0
908.0
908.0
907.0
908.0
907.0
906.0
907.0
908.0
909.0
909.0
909.0
909.0
911.0
908.0
908.0
908.0
905.0
904.0
904.0
905.0
906.0
908.0
908.0
911.0
909.0
911.0
909.0
909.0
907.0
908.0
904.0
908.0
910.0
910.0
912.0
914.0
913.0
911.0
911.0
909.0
909.0
910.0
909.0
910.0
912.0
913.0
915.0
915.0
916.0
915.0
914.0
913.0
915.0
913.0
915.0
918.0
918.0
918.0
922.0
923.0
923.0
922.0
921.0
921.0
919.0
919.0
920.0
921.0
924.0
924.0
927.0
929.0
928.0
926.0
926.0
926.0
926.0
927.0
925.0
926.0
928.0
930.0
933.0
932.0
930.0
930.0
927.0
928.0
925.0
925.0
927.0
928.0
930.0
931.0
933.0
933.0
933.0
931.0
928.0
926.0
923.0
918.0
917.0
917.0
916.0
913.0
914.0
911.0
905.0
902.0
901.0
896.0
893.0
889.0
887.0
887.0
886.0
888.0
887.0
888.0
883.0
884.0
881.0
881.0
881.0
877.0
876.0
879.0
879.0
878.0
882.0
885.0
885.0
884.0
882.0
884.0
880.0
882.0
882.0
881.0
884.0
884.0
887.0
889.0
886.0
888.0
885.0
883.0
883.0
881.0
881.0
885.0
889.0
891.0
891.0
892.0
894.0
893.0
892.0
892.0
887.0
887.0
886.0
889.0
888.0
891.0
892.0
890.0
889.0
888.0
887.0
884.0
881.0
883.0
882.0
886.0
886.0
886.0
888.0
885.0
885.0
888.0
884.0
882.0
880.0
881.0
879.0
880.0
881.0
881.0
882.0
881.0
880.0
881.0
879.0
877.0
875.0
875.0
876.0
877.0
877.0
878.0
881.0
878.0
880.0
878.0
875.0
876.0
872.0
873.0
874.0
874.0
876.0
879.0
879.0
879.0
880.0
878.0
875.0
876.0
875.0
877.0
877.0
878.0
881.0
884.0
887.0
889.0
890.0
888.0
888.0
891.0
893.0
895.0
897.0
902.0
905.0
908.0
912.0
914.0
914.0
911.0
907.0
905.0
904.0
904.0
904.0
906.0
903.0
903.0
899.0
900.0
895.0
891.0
886.0
879.0
875.0
875.0
877.0
876.0
875.0
874.0
876.0
879.0
877.0
877.0
875.0
872.0
871.0
869.0
869.0
867.0
868.0
870.0
871.0
874.0
871.0
874.0
875.0
875.0
873.0
873.0
872.0
874.0
876.0
878.0
879.0
883.0
885.0
886.0
884.0
883.0
885.0
888.0
897.0
915.0
945.0
984.0
1041.0
1110.0
1186.0
1260.0
1311.0
1329.0
1296.0
1208.0
1080.0
952.0
824.0
723.0
713.0
747.0
803.0
854.0
890.0
911.0
917.0
910.0
906.0
897.0
892.0
890.0
891.0
893.0
894.0
898.0
898.0
895.0
895.0
893.0
895.0
894.0
896.0
898.0
897.0
903.0
902.0
899.0
899.0
899.0
899.0
897.0
898.0
898.0
901.0
900.0
902.0
904.0
902.0
902.0
901.0
899.0
898.0
897.0
897.0
899.0
900.0
903.0
905.0
907.0
908.0
907.0
906.0
905.0
901.0
902.0
903.0
902.0
905.0
908.0
909.0
910.0
910.0
910.0
905.0
907.0
907.0
904.0
906.0
910.0
910.0
911.0
914.0
915.0
914.0
914.0
915.0
913.0
914.0
914.0
915.0
914.0
917.0
918.0
924.0
926.0
926.0
923.0
923.0
920.0
919.0
917.0
919.0
923.0
926.0
928.0
929.0
932.0
931.0
930.0
931.0
930.0
931.0
929.0
930.0
928.0
933.0
931.0
935.0
935.0
932.0
934.0
932.0
933.0
932.0
931.0
932.0
929.0
931.0
934.0
937.0
936.0
937.0
937.0
936.0
936.0
933.0
932.0
933.0
931.0
930.0
927.0
928.0
924.0
922.0
920.0
915.0
913.0
909.0
906.0
904.0
902.0
902.0
900.0
903.0
901.0
900.0
897.0
896.0
895.0
893.0
892.0
889.0
892.0
892.0
897.0
897.0
898.0
898.0
896.0
895.0
894.0
894.0
894.0
896.0
897.0
896.0
897.0
898.0
899.0
901.0
900.0
901.0
902.0
901.0
901.0
901.0
903.0
905.0
907.0
906.0
908.0
906.0
911.0
910.0
911.0
911.0
908.0
908.0
907.0
908.0
911.0
912.0
914.0
913.0
912.0
911.0
906.0
904.0
904.0
906.0
906.0
911.0
912.0
911.0
911.0
910.0
910.0
908.0
906.0
904.0
903.0
903.0
903.0
906.0
908.0
908.0
910.0
912.0
911.0
910.0
909.0
908.0
907.0
908.0
910.0
912.0
916.0
918.0
921.0
923.0
925.0
925.0
926.0
926.0
928.0
931.0
934.0
938.0
942.0
944.0
946.0
945.0
943.0
941.0
938.0
941.0
940.0
938.0
941.0
940.0
941.0
943.0
942.0
938.0
937.0
932.0
927.0
922.0
917.0
911.0
912.0
915.0
915.0
915.0
916.0
918.0
917.0
914.0
913.0
913.0
910.0
911.0
911.0
910.0
913.0
915.0
914.0
916.0
918.0
915.0
912.0
914.0
913.0
912.0
915.0
919.0
919.0
921.0
927.0
926.0
927.0
930.0
933.0
930.0
934.0
938.0
956.0
979.0
1014.0
1063.0
1125.0
1197.0
1268.0
1331.0
1368.0
1369.0
1327.0
1240.0
1115.0
987.0
859.0
783.0
766.0
791.0
841.0
892.0
935.0
957.0
966.0
966.0
960.0
954.0
948.0
945.0
944.0
946.0
949.0
950.0
951.0
950.0
948.0
948.0
949.0
950.0
951.0
952.0
956.0
956.0
955.0
956.0
955.0
951.0
950.0
950.0
952.0
953.0
955.0
957.0
958.0
958.0
956.0
959.0
959.0
956.0
955.0
956.0
957.0
960.0
962.0
963.0
963.0
964.0
963.0
961.0
960.0
960.0
961.0
961.0
961.0
963.0
964.0
963.0
967.0
967.0
970.0
968.0
969.0
967.0
967.0
968.0
965.0
970.0
971.0
971.0
974.0
977.0
977.0
976.0
974.0
975.0
974.0
971.0
974.0
976.0
975.0
979.0
983.0
981.0
981.0
981.0
982.0
982.0
981.0
980.0
982.0
985.0
986.0
990.0
991.0
991.0
991.0
990.0
992.0
990.0
990.0
994.0
995.0
997.0
999.0
1000.0
1003.0
1002.0
1001.0
1001.0
1000.0
1000.0
999.0
999.0
1002.0
1001.0
1002.0
1003.0
1002.0
1003.0
1003.0
999.0
997.0
997.0
992.0
989.0
989.0
988.0
987.0
986.0
983.0
981.0
978.0
974.0
970.0
966.0
962.0
960.0
957.0
957.0
956.0
955.0
955.0
952.0
950.0
948.0
945.0
943.0
940.0
937.0
941.0
943.0
942.0
943.0
946.0
944.0
946.0
945.0
941.0
942.0
941.0
941.0
941.0
941.0
944.0
944.0
950.0
949.0
951.0
948.0
950.0
950.0
947.0
944.0
949.0
950.0
952.0
955.0
957.0
956.0
958.0
959.0
956.0
957.0
955.0
955.0
957.0
957.0
960.0
960.0
961.0
961.0
959.0
961.0
959.0
956.0
952.0
952.0
952.0
952.0
955.0
956.0
954.0
955.0
955.0
955.0
954.0
951.0
949.0
948.0
949.0
951.0
949.0
950.0
952.0
950.0
950.0
950.0
947.0
948.0
945.0
944.0
947.0
948.0
947.0
948.0
950.0
950.0
951.0
949.0
948.0
947.0
947.0
942.0
944.0
946.0
949.0
949.0
951.0
951.0
953.0
950.0
949.0
949.0
951.0
953.0
956.0
961.0
964.0
967.0
969.0
969.0
971.0
974.0
977.0
979.0
979.0
977.0
978.0
978.0
976.0
978.0
978.0
979.0
979.0
977.0
972.0
971.0
969.0
964.0
961.0
958.0
955.0
953.0
952.0
950.0
950.0
948.0
946.0
943.0
945.0
943.0
943.0
944.0
944.0
946.0
944.0
946.0
942.0
941.0
941.0
940.0
939.0
938.0
939.0
940.0
944.0
943.0
944.0
947.0
946.0
945.0
946.0
946.0
946.0
947.0
949.0
952.0
954.0
954.0
958.0
956.0
958.0
961.0
963.0
966.0
978.0
999.0
1030.0
1078.0
1144.0
1216.0
1294.0
1354.0
1382.0
1360.0
1288.0
1169.0
1041.0
913.0
813.0
782.0
795.0
840.0
894.0
939.0
968.0
983.0
987.0
982.0
972.0
965.0
958.0
958.0
958.0
963.0
966.0
966.0
968.0
967.0
967.0
965.0
963.0
962.0
962.0
963.0
964.0
966.0
968.0
969.0
969.0
967.0
966.0
964.0
963.0
962.0
962.0
965.0
967.0
968.0
969.0
969.0
968.0
968.0
966.0
965.0
966.0
963.0
964.0
967.0
966.0
966.0
967.0
967.0
967.0
967.0
966.0
965.0
965.0
962.0
964.0
966.0
966.0
969.0
969.0
971.0
971.0
969.0
969.0
967.0
966.0
967.0
968.0
966.0
969.0
971.0
972.0
973.0
975.0
971.0
970.0
969.0
968.0
968.0
968.0
971.0
970.0
972.0
975.0
975.0
978.0
978.0
976.0
975.0
974.0
974.0
977.0
977.0
979.0
980.0
983.0
982.0
983.0
980.0
979.0
980.0
980.0
980.0
983.0
982.0
983.0
985.0
987.0
987.0
987.0
988.0
985.0
984.0
985.0
983.0
983.0
985.0
987.0
986.0
987.0
990.0
987.0
989.0
989.0
986.0
984.0
983.0
979.0
982.0
982.0
979.0
977.0
976.0
975.0
971.0
966.0
960.0
957.0
953.0
951.0
950.0
947.0
946.0
945.0
944.0
942.0
940.0
937.0
936.0
934.0
934.0
931.0
932.0
933.0
934.0
932.0
934.0
935.0
932.0
931.0
928.0
928.0
926.0
926.0
925.0
930.0
929.0
933.0
933.0
933.0
932.0
931.0
929.0
932.0
929.0
929.0
930.0
934.0
934.0
937.0
936.0
934.0
935.0
933.0
934.0
934.0
933.0
936.0
935.0
937.0
938.0
939.0
938.0
938.0
937.0
936.0
934.0
932.0
934.0
933.0
934.0
935.0
935.0
936.0
935.0
936.0
932.0
932.0
931.0
931.0
929.0
930.0
930.0
930.0
929.0
930.0
929.0
929.0
929.0
924.0
923.0
923.0
922.0
921.0
922.0
921.0
923.0
928.0
927.0
927.0
925.0
922.0
923.0
920.0
916.0
920.0
922.0
923.0
925.0
926.0
928.0
925.0
928.0
926.0
929.0
929.0
930.0
934.0
935.0
938.0
940.0
945.0
946.0
948.0
951.0
952.0
954.0
952.0
952.0
951.0
948.0
949.0
951.0
949.0
954.0
951.0
949.0
948.0
945.0
940.0
939.0
937.0
934.0
931.0
929.0
927.0
924.0
919.0
921.0
917.0
917.0
918.0
915.0
914.0
913.0
913.0
915.0
917.0
913.0
912.0
914.0
912.0
911.0
910.0
907.0
906.0
910.0
910.0
912.0
915.0
914.0
913.0
916.0
915.0
916.0
915.0
916.0
918.0
918.0
922.0
924.0
927.0
930.0
934.0
940.0
946.0
963.0
992.0
1033.0
1094.0
1164.0
1242.0
1307.0
1346.0
1346.0
1289.0
1186.0
1058.0
930.0
803.0
748.0
746.0
783.0
835.0
883.0
924.0
945.0
952.0
950.0
942.0
934.0
927.0
924.0
921.0
922.0
924.0
928.0
932.0
933.0
933.0
929.0
930.0
929.0
927.0
925.0
925.0
923.0
926.0
927.0
928.0
927.0
930.0
929.0
927.0
928.0
926.0
924.0
925.0
927.0
928.0
927.0
928.0
930.0
932.0
932.0
931.0
931.0
927.0
926.0
927.0
927.0
927.0
928.0
930.0
933.0
930.0
930.0
931.0
928.0
928.0
927.0
929.0
928.0
927.0
928.0
931.0
930.0
933.0
931.0
931.0
930.0
931.0
931.0
930.0
930.0
930.0
935.0
935.0
937.0
935.0
935.0
933.0
934.0
933.0
933.0
936.0
936.0
937.0
939.0
938.0
943.0
940.0
942.0
942.0
938.0
937.0
939.0
938.0
935.0
939.0
942.0
945.0
945.0
944.0
946.0
945.0
941.0
942.0
942.0
940.0
941.0
941.0
943.0
943.0
942.0
946.0
943.0
941.0
942.0
943.0
942.0
942.0
941.0
942.0
941.0
942.0
939.0
936.0
935.0
930.0
925.0
924.0
920.0
916.0
917.0
915.0
912.0
910.0
908.0
906.0
904.0
901.0
900.0
898.0
896.0
896.0
894.0
896.0
893.0
896.0
895.0
896.0
895.0
892.0
891.0
891.0
889.0
890.0
890.0
893.0
890.0
893.0
895.0
894.0
894.0
894.0
895.0
893.0
893.0
893.0
892.0
897.0
896.0
899.0
898.0
898.0
898.0
895.0
898.0
896.0
895.0
895.0
896.0
898.0
897.0
900.0
902.0
900.0
900.0
897.0
895.0
892.0
891.0
891.0
896.0
897.0
896.0
897.0
899.0
897.0
897.0
896.0
893.0
892.0
890.0
891.0
887.0
889.0
890.0
892.0
890.0
893.0
891.0
889.0
888.0
886.0
886.0
886.0
887.0
887.0
889.0
888.0
890.0
886.0
890.0
887.0
883.0
881.0
882.0
884.0
883.0
884.0
885.0
888.0
889.0
886.0
888.0
886.0
883.0
881.0
881.0
882.0
885.0
887.0
886.0
886.0
888.0
887.0
886.0
885.0
884.0
884.0
882.0
883.0
886.0
886.0
890.0
894.0
897.0
895.0
900.0
901.0
901.0
902.0
904.0
903.0
911.0
913.0
914.0
916.0
918.0
914.0
910.0
908.0
908.0
907.0
909.0
908.0
907.0
908.0
909.0
911.0
908.0
902.0
900.0
894.0
884.0
884.0
878.0
879.0
877.0
879.0
880.0
880.0
881.0
882.0
881.0
880.0
879.0
877.0
877.0
875.0
876.0
876.0
877.0
879.0
879.0
876.0
878.0
877.0
878.0
872.0
871.0
872.0
875.0
876.0
876.0
879.0
884.0
885.0
886.0
886.0
886.0
888.0
888.0
890.0
893.0
900.0
910.0
926.0
953.0
993.0
1050.0
1122.0
1201.0
1270.0
1310.0
1301.0
1240.0
1125.0
997.0
869.0
751.0
715.0
731.0
775.0
825.0
868.0
896.0
908.0
911.0
907.0
903.0
898.0
897.0
893.0
892.0
892.0
893.0
893.0
894.0
891.0
893.0
894.0
898.0
899.0
900.0
898.0
899.0
899.0
897.0
898.0
895.0
894.0
895.0
896.0
898.0
899.0
901.0
898.0
896.0
895.0
894.0
896.0
895.0
895.0
898.0
899.0
901.0
901.0
904.0
902.0
901.0
900.0
898.0
901.0
899.0
897.0
897.0
898.0
898.0
899.0
902.0
902.0
902.0
902.0
901.0
902.0
900.0
899.0
899.0
903.0
901.0
904.0
905.0
905.0
906.0
906.0
904.0
903.0
904.0
905.0
905.0
904.0
907.0
907.0
909.0
909.0
911.0
909.0
911.0
910.0
908.0
909.0
909.0
912.0
914.0
917.0
918.0
917.0
917.0
917.0
914.0
915.0
910.0
910.0
910.0
913.0
913.0
915.0
918.0
916.0
916.0
915.0
914.0
910.0
910.0
911.0
908.0
907.0
909.0
911.0
914.0
914.0
918.0
913.0
911.0
909.0
906.0
905.0
905.0
901.0
898.0
894.0
892.0
892.0
890.0
888.0
885.0
884.0
882.0
878.0
876.0
876.0
877.0
878.0
875.0
875.0
873.0
871.0
869.0
872.0
869.0
867.0
871.0
872.0
871.0
873.0
874.0
873.0
874.0
874.0
874.0
872.0
870.0
869.0
870.0
870.0
871.0
875.0
876.0
879.0
880.0
880.0
879.0
878.0
877.0
875.0
875.0
876.0
875.0
879.0
881.0
884.0
884.0
883.0
880.0
879.0
876.0
876.0
876.0
877.0
878.0
877.0
880.0
878.0
879.0
876.0
874.0
874.0
873.0
871.0
872.0
873.0
875.0
876.0
876.0
874.0
872.0
872.0
868.0
870.0
870.0
866.0
868.0
870.0
873.0
874.0
874.0
871.0
871.0
868.0
868.0
867.0
868.0
866.0
868.0
872.0
872.0
877.0
878.0
878.0
881.0
881.0
883.0
883.0
884.0
885.0
886.0
891.0
897.0
903.0
904.0
904.0
900.0
900.0
897.0
896.0
895.0
896.0
896.0
898.0
899.0
897.0
898.0
895.0
893.0
887.0
883.0
880.0
875.0
872.0
869.0
867.0
869.0
869.0
868.0
871.0
869.0
868.0
867.0
865.0
864.0
865.0
862.0
864.0
865.0
864.0
864.0
863.0
863.0
862.0
859.0
861.0
861.0
862.0
860.0
862.0
863.0
864.0
869.0
870.0
870.0
869.0
870.0
871.0
869.0
871.0
871.0
874.0
878.0
882.0
882.0
888.0
899.0
914.0
936.0
967.0
1015.0
1077.0
1151.0
1229.0
1290.0
1323.0
1315.0
1257.0
1153.0
1025.0
897.0
773.0
709.0
705.0
739.0
790.0
838.0
874.0
892.0
902.0
898.0
893.0
886.0
882.0
881.0
880.0
883.0
882.0
883.0
884.0
887.0
887.0
886.0
885.0
885.0
884.0
881.0
884.0
884.0
886.0
886.0
888.0
888.0
890.0
889.0
888.0
886.0
888.0
887.0
886.0
888.0
888.0
887.0
891.0
892.0
892.0
891.0
892.0
889.0
888.0
887.0
889.0
888.0
891.0
892.0
892.0
894.0
893.0
894.0
892.0
893.0
893.0
891.0
890.0
892.0
892.0
894.0
892.0
893.0
895.0
895.0
892.0
895.0
891.0
889.0
889.0
890.0
893.0
894.0
896.0
899.0
900.0
901.0
899.0
900.0
900.0
896.0
896.0
896.0
900.0
898.0
900.0
906.0
907.0
907.0
907.0
905.0
905.0
906.0
905.0
908.0
911.0
910.0
912.0
915.0
916.0
915.0
912.0
912.0
909.0
912.0
911.0
912.0
914.0
916.0
916.0
919.0
918.0
917.0
915.0
913.0
913.0
914.0
913.0
913.0
915.0
913.0
914.0
917.0
918.0
914.0
913.0
908.0
906.0
903.0
900.0
896.0
892.0
892.0
891.0
887.0
887.0
884.0
880.0
877.0
873.0
868.0
868.0
864.0
864.0
865.0
865.0
866.0
864.0
864.0
864.0
860.0
861.0
857.0
855.0
856.0
857.0
860.0
860.0
862.0
863.0
862.0
863.0
861.0
861.0
858.0
858.0
861.0
859.0
862.0
861.0
867.0
868.0
867.0
866.0
864.0
865.0
864.0
865.0
867.0
867.0
867.0
871.0
870.0
874.0
872.0
870.0
870.0
867.0
865.0
866.0
869.0
870.0
871.0
873.0
874.0
874.0
874.0
871.0
871.0
870.0
869.0
868.0
866.0
866.0
870.0
870.0
871.0
870.0
867.0
866.0
864.0
865.0
866.0
867.0
867.0
864.0
866.0
865.0
867.0
868.0
866.0
866.0
864.0
862.0
862.0
861.0
861.0
861.0
863.0
866.0
867.0
866.0
867.0
865.0
864.0
863.0
859.0
860.0
862.0
863.0
865.0
866.0
871.0
871.0
874.0
876.0
878.0
876.0
878.0
877.0
880.0
883.0
886.0
887.0
893.0
895.0
894.0
895.0
892.0
890.0
888.0
888.0
891.0
890.0
892.0
891.0
892.0
892.0
887.0
885.0
881.0
876.0
871.0
868.0
863.0
864.0
864.0
862.0
865.0
865.0
864.0
866.0
863.0
861.0
861.0
859.0
859.0
859.0
858.0
859.0
859.0
862.0
860.0
860.0
859.0
857.0
856.0
855.0
856.0
855.0
858.0
860.0
862.0
867.0
867.0
865.0
866.0
866.0
867.0
869.0
872.0
872.0
876.0
881.0
890.0
909.0
938.0
980.0
1035.0
1103.0
1184.0
1255.0
1310.0
1327.0
1293.0
1205.0
1078.0
950.0
822.0
725.0
704.0
732.0
781.0
833.0
875.0
899.0
908.0
908.0
900.0
889.0
882.0
875.0
875.0
875.0
878.0
875.0
879.0
883.0
882.0
884.0
884.0
885.0
884.0
882.0
882.0
882.0
880.0
879.0
880.0
882.0
883.0
885.0
888.0
888.0
890.0
889.0
887.0
887.0
886.0
884.0
885.0
886.0
888.0
887.0
889.0
891.0
890.0
889.0
890.0
889.0
885.0
884.0
884.0
885.0
888.0
888.0
889.0
890.0
890.0
890.0
890.0
889.0
886.0
886.0
888.0
887.0
886.0
890.0
891.0
893.0
895.0
893.0
895.0
894.0
893.0
892.0
894.0
895.0
892.0
896.0
901.0
902.0
903.0
901.0
899.0
898.0
899.0
898.0
901.0
902.0
908.0
906.0
909.0
911.0
912.0
911.0
912.0
911.0
910.0
910.0
911.0
912.0
916.0
917.0
918.0
919.0
919.0
919.0
920.0
917.0
913.0
916.0
915.0
915.0
919.0
918.0
920.0
921.0
919.0
920.0
918.0
916.0
915.0
910.0
909.0
906.0
907.0
905.0
903.0
902.0
898.0
893.0
889.0
886.0
882.0
879.0
876.0
874.0
874.0
874.0
875.0
874.0
867.0
865.0
863.0
862.0
859.0
859.0
859.0
859.0
858.0
860.0
862.0
861.0
862.0
863.0
861.0
859.0
861.0
858.0
860.0
860.0
861.0
863.0
865.0
867.0
867.0
865.0
864.0
866.0
864.0
864.0
866.0
867.0
863.0
864.0
871.0
870.0
873.0
871.0
870.0
869.0
868.0
869.0
871.0
870.0
874.0
873.0
877.0
875.0
874.0
873.0
871.0
870.0
869.0
869.0
870.0
869.0
871.0
871.0
872.0
872.0
871.0
873.0
870.0
868.0
866.0
865.0
865.0
865.0
866.0
868.0
866.0
869.0
866.0
867.0
866.0
865.0
859.0
861.0
861.0
862.0
861.0
864.0
865.0
868.0
867.0
862.0
860.0
861.0
859.0
860.0
860.0
861.0
862.0
862.0
862.0
865.0
863.0
862.0
862.0
860.0
859.0
859.0
862.0
860.0
862.0
863.0
865.0
867.0
870.0
869.0
869.0
871.0
873.0
873.0
875.0
877.0
883.0
885.0
887.0
891.0
892.0
896.0
897.0
892.0
889.0
887.0
886.0
887.0
890.0
891.0
892.0
894.0
892.0
892.0
888.0
885.0
882.0
877.0
874.0
870.0
867.0
865.0
864.0
866.0
865.0
866.0
865.0
862.0
862.0
860.0
859.0
859.0
860.0
860.0
861.0
862.0
861.0
859.0
