# Simple Text Format
# Sampling Rate (Hz):= 360.00
# Resolution:= 12
# Labels:= ECG
858.0
860.0
858.0
858.0
860.0
859.0
862.0
864.0
866.0
868.0
867.0
867.0
868.0
867.0
866.0
866.0
870.0
874.0
875.0
879.0
882.0
894.0
913.0
939.0
980.0
1034.0
1105.0
1190.0
1264.0
1313.0
1319.0
1268.0
1167.0
1039.0
911.0
783.0
715.0
705.0
737.0
785.0
831.0
872.0
895.0
905.0
904.0
899.0
891.0
884.0
878.0
879.0
878.0
879.0
882.0
885.0
885.0
887.0
887.0
889.0
888.0
886.0
884.0
885.0
885.0
884.0
885.0
884.0
887.0
889.0
890.0
892.0
889.0
888.0
888.0
888.0
888.0
886.0
887.0
886.0
887.0
889.0
893.0
891.0
892.0
892.0
888.0
887.0
888.0
887.0
888.0
887.0
890.0
891.0
891.0
894.0
892.0
888.0
891.0
885.0
886.0
883.0
884.0
887.0
888.0
890.0
892.0
897.0
894.0
895.0
895.0
895.0
895.0
892.0
895.0
896.0
897.0
898.0
900.0
902.0
901.0
902.0
902.0
901.0
899.0
899.0
903.0
902.0
906.0
907.0
910.0
909.0
908.0
909.0
909.0
910.0
908.0
909.0
909.0
909.0
911.0
910.0
913.0
915.0
913.0
911.0
913.0
910.0
911.0
908.0
908.0
908.0
912.0
912.0
915.0
916.0
915.0
915.0
913.0
913.0
910.0
909.0
908.0
905.0
904.0
903.0
903.0
901.0
895.0
892.0
887.0
884.0
880.0
877.0
875.0
873.0
874.0
872.0
873.0
873.0
872.0
872.0
870.0
868.0
865.0
863.0
864.0
862.0
864.0
864.0
867.0
870.0
868.0
868.0
866.0
864.0
861.0
862.0
862.0
865.0
866.0
868.0
871.0
871.0
870.0
871.0
870.0
870.0
866.0
867.0
868.0
870.0
872.0
873.0
876.0
877.0
878.0
877.0
875.0
875.0
877.0
871.0
874.0
874.0
874.0
874.0
877.0
878.0
877.0
878.0
875.0
871.0
872.0
869.0
869.0
868.0
871.0
873.0
871.0
873.0
874.0
874.0
871.0
870.0
869.0
868.0
866.0
868.0
871.0
869.0
870.0
871.0
869.0
871.0
870.0
869.0
867.0
867.0
864.0
865.0
865.0
867.0
870.0
870.0
870.0
869.0
867.0
868.0
863.0
861.0
862.0
862.0
863.0
866.0
868.0
868.0
866.0
865.0
864.0
864.0
863.0
862.0
865.0
866.0
868.0
874.0
880.0
882.0
883.0
884.0
884.0
886.0
886.0
888.0
891.0
894.0
898.0
897.0
897.0
896.0
896.0
895.0
896.0
897.0
894.0
894.0
892.0
888.0
890.0
886.0
884.0
882.0
877.0
873.0
871.0
867.0
865.0
864.0
863.0
864.0
864.0
865.0
865.0
868.0
870.0
867.0
866.0
864.0
862.0
860.0
861.0
863.0
862.0
861.0
864.0
863.0
865.0
866.0
864.0
864.0
864.0
862.0
862.0
864.0
867.0
874.0
876.0
876.0
878.0
879.0
879.0
880.0
885.0
891.0
909.0
937.0
977.0
1038.0
1111.0
1192.0
1266.0
1315.0
1322.0
1276.0
1181.0
1053.0
925.0
797.0
715.0
701.0
728.0
777.0
827.0
864.0
886.0
896.0
896.0
892.0
887.0
883.0
882.0
884.0
885.0
886.0
884.0
886.0
886.0
885.0
883.0
883.0
884.0
881.0
887.0
885.0
887.0
889.0
889.0
890.0
888.0
887.0
886.0
886.0
885.0
887.0
888.0
888.0
889.0
890.0
889.0
889.0
889.0
889.0
888.0
888.0
888.0
889.0
889.0
888.0
888.0
892.0
893.0
894.0
892.0
890.0
890.0
888.0
887.0
888.0
889.0
890.0
893.0
896.0
897.0
895.0
894.0
892.0
890.0
891.0
891.0
894.0
897.0
898.0
899.0
901.0
900.0
901.0
899.0
896.0
896.0
896.0
896.0
895.0
898.0
899.0
902.0
904.0
904.0
907.0
903.0
901.0
901.0
903.0
900.0
904.0
906.0
907.0
908.0
911.0
911.0
910.0
909.0
908.0
907.0
910.0
907.0
907.0
911.0
912.0
913.0
914.0
915.0
916.0
917.0
914.0
913.0
910.0
910.0
911.0
912.0
913.0
912.0
915.0
915.0
916.0
916.0
914.0
914.0
913.0
913.0
911.0
904.0
905.0
902.0
903.0
898.0
898.0
896.0
889.0
888.0
885.0
883.0
881.0
882.0
881.0
879.0
878.0
878.0
878.0
871.0
869.0
866.0
866.0
866.0
867.0
869.0
872.0
872.0
874.0
874.0
871.0
874.0
871.0
872.0
870.0
870.0
871.0
874.0
873.0
876.0
878.0
878.0
878.0
877.0
877.0
876.0
875.0
873.0
874.0
875.0
877.0
879.0
881.0
881.0
882.0
882.0
882.0
881.0
880.0
877.0
876.0
879.0
879.0
882.0
882.0
880.0
880.0
879.0
878.0
876.0
874.0
874.0
875.0
874.0
874.0
875.0
876.0
876.0
874.0
871.0
874.0
872.0
869.0
868.0
870.0
871.0
872.0
874.0
876.0
875.0
875.0
874.0
871.0
869.0
866.0
869.0
871.0
873.0
872.0
877.0
882.0
882.0
886.0
885.0
886.0
889.0
889.0
890.0
891.0
895.0
900.0
903.0
905.0
906.0
907.0
902.0
900.0
897.0
898.0
899.0
900.0
902.0
902.0
900.0
900.0
898.0
895.0
891.0
884.0
879.0
875.0
869.0
871.0
871.0
870.0
873.0
877.0
877.0
877.0
876.0
875.0
874.0
870.0
868.0
869.0
870.0
870.0
872.0
878.0
876.0
876.0
874.0
873.0
873.0
872.0
873.0
874.0
879.0
882.0
884.0
885.0
888.0
890.0
889.0
891.0
891.0
890.0
894.0
900.0
911.0
929.0
956.0
996.0
1050.0
1122.0
1200.0
1275.0
1327.0
1337.0
1295.0
1198.0
1070.0
942.0
814.0
733.0
727.0
758.0
810.0
857.0
894.0
912.0
919.0
917.0
911.0
906.0
902.0
901.0
901.0
902.0
902.0
905.0
904.0
902.0
899.0
899.0
902.0
904.0
904.0
906.0
910.0
910.0
909.0
906.0
907.0
906.0
905.0
904.0
905.0
905.0
909.0
912.0
914.0
914.0
913.0
911.0
910.0
911.0
910.0
911.0
915.0
914.0
916.0
917.0
918.0
918.0
916.0
915.0
914.0
915.0
914.0
914.0
917.0
917.0
917.0
923.0
920.0
922.0
920.0
921.0
920.0
919.0
919.0
921.0
921.0
922.0
921.0
924.0
931.0
929.0
929.0
925.0
925.0
926.0
927.0
929.0
930.0
932.0
933.0
933.0
933.0
935.0
936.0
936.0
937.0
936.0
933.0
937.0
939.0
941.0
942.0
944.0
945.0
948.0
946.0
947.0
949.0
948.0
948.0
951.0
951.0
951.0
951.0
954.0
953.0
954.0
955.0
952.0
953.0
953.0
951.0
953.0
955.0
955.0
956.0
960.0
960.0
959.0
954.0
956.0
954.0
953.0
950.0
950.0
947.0
944.0
947.0
945.0
943.0
941.0
939.0
933.0
932.0
927.0
924.0
921.0
920.0
918.0
917.0
916.0
915.0
915.0
911.0
909.0
907.0
905.0
903.0
903.0
903.0
905.0
907.0
910.0
909.0
907.0
906.0
907.0
906.0
905.0
905.0
904.0
904.0
907.0
906.0
909.0
911.0
911.0
909.0
909.0
911.0
911.0
912.0
911.0
914.0
916.0
919.0
921.0
921.0
919.0
920.0
921.0
919.0
918.0
916.0
919.0
919.0
922.0
925.0
926.0
925.0
923.0
923.0
921.0
921.0
920.0
918.0
921.0
919.0
919.0
917.0
921.0
923.0
925.0
925.0
922.0
919.0
920.0
917.0
917.0
918.0
918.0
921.0
921.0
920.0
922.0
921.0
919.0
919.0
917.0
918.0
917.0
918.0
922.0
924.0
924.0
927.0
930.0
930.0
932.0
930.0
933.0
933.0
936.0
939.0
943.0
946.0
950.0
951.0
955.0
951.0
951.0
949.0
944.0
945.0
945.0
946.0
948.0
949.0
950.0
949.0
946.0
941.0
938.0
933.0
927.0
923.0
921.0
918.0
918.0
919.0
920.0
923.0
919.0
917.0
914.0
915.0
914.0
909.0
912.0
913.0
915.0
915.0
920.0
920.0
920.0
917.0
915.0
913.0
911.0
914.0
914.0
915.0
917.0
919.0
922.0
926.0
924.0
925.0
925.0
926.0
926.0
930.0
930.0
932.0
935.0
941.0
952.0
965.0
983.0
1011.0
1042.0
1086.0
1139.0
1202.0
1270.0
1331.0
1370.0
1376.0
1339.0
1255.0
1129.0
1001.0
873.0
781.0
758.0
781.0
829.0
886.0
930.0
955.0
970.0
968.0
962.0
952.0
944.0
938.0
935.0
935.0
938.0
941.0
945.0
943.0
944.0
947.0
944.0
945.0
944.0
942.0
941.0
943.0
943.0
942.0
943.0
944.0
944.0
946.0
946.0
947.0
946.0
946.0
945.0
945.0
946.0
946.0
946.0
947.0
947.0
949.0
950.0
946.0
946.0
947.0
947.0
946.0
948.0
947.0
949.0
951.0
952.0
953.0
954.0
953.0
952.0
950.0
948.0
949.0
950.0
947.0
951.0
954.0
955.0
956.0
956.0
955.0
954.0
954.0
953.0
951.0
951.0
952.0
955.0
957.0
959.0
962.0
960.0
961.0
959.0
960.0
963.0
960.0
963.0
962.0
967.0
968.0
970.0
972.0
973.0
972.0
969.0
972.0
970.0
971.0
971.0
974.0
974.0
978.0
978.0
978.0
978.0
981.0
980.0
980.0
978.0
979.0
979.0
981.0
982.0
983.0
986.0
984.0
981.0
985.0
984.0
983.0
982.0
982.0
981.0
980.0
979.0
980.0
982.0
979.0
976.0
976.0
970.0
964.0
960.0
958.0
957.0
952.0
952.0
950.0
948.0
943.0
941.0
938.0
935.0
931.0
930.0
927.0
924.0
923.0
921.0
926.0
923.0
922.0
922.0
917.0
919.0
918.0
917.0
916.0
916.0
917.0
919.0
920.0
920.0
922.0
922.0
923.0
922.0
919.0
919.0
920.0
922.0
923.0
924.0
925.0
927.0
929.0
931.0
928.0
927.0
929.0
927.0
928.0
927.0
926.0
931.0
933.0
932.0
935.0
935.0
934.0
929.0
929.0
926.0
928.0
928.0
927.0
928.0
929.0
929.0
930.0
930.0
928.0
927.0
926.0
924.0
922.0
923.0
923.0
923.0
924.0
925.0
926.0
925.0
922.0
923.0
921.0
921.0
919.0
915.0
917.0
918.0
922.0
923.0
923.0
923.0
924.0
922.0
920.0
919.0
919.0
917.0
919.0
921.0
921.0
922.0
926.0
925.0
927.0
930.0
931.0
930.0
932.0
933.0
938.0
942.0
944.0
949.0
949.0
950.0
950.0
948.0
945.0
944.0
943.0
944.0
945.0
948.0
949.0
948.0
948.0
945.0
942.0
938.0
932.0
929.0
924.0
919.0
916.0
918.0
916.0
919.0
919.0
915.0
918.0
914.0
914.0
912.0
910.0
911.0
910.0
910.0
911.0
913.0
913.0
914.0
914.0
912.0
911.0
908.0
906.0
910.0
909.0
911.0
911.0
915.0
916.0
914.0
917.0
916.0
919.0
917.0
919.0
921.0
924.0
927.0
932.0
939.0
952.0
972.0
1007.0
1058.0
1123.0
1204.0
1282.0
1343.0
1364.0
1338.0
1255.0
1129.0
1001.0
873.0
775.0
743.0
766.0
809.0
860.0
901.0
932.0
946.0
950.0
946.0
941.0
935.0
930.0
927.0
920.0
922.0
925.0
927.0
929.0
930.0
931.0
932.0
933.0
932.0
932.0
930.0
928.0
927.0
928.0
928.0
928.0
931.0
932.0
935.0
936.0
937.0
936.0
932.0
932.0
931.0
931.0
930.0
931.0
929.0
932.0
931.0
935.0
937.0
935.0
933.0
934.0
931.0
930.0
930.0
932.0
931.0
933.0
934.0
935.0
934.0
935.0
934.0
932.0
931.0
932.0
932.0
934.0
935.0
937.0
938.0
940.0
940.0
936.0
937.0
936.0
935.0
935.0
935.0
934.0
937.0
936.0
942.0
945.0
945.0
946.0
941.0
943.0
942.0
942.0
942.0
942.0
943.0
943.0
947.0
951.0
951.0
953.0
950.0
950.0
947.0
946.0
950.0
951.0
952.0
956.0
955.0
956.0
955.0
958.0
956.0
955.0
954.0
956.0
956.0
955.0
957.0
959.0
962.0
961.0
960.0
962.0
962.0
962.0
958.0
958.0
957.0
956.0
956.0
954.0
951.0
950.0
948.0
941.0
938.0
935.0
929.0
924.0
923.0
919.0
917.0
914.0
915.0
914.0
910.0
910.0
906.0
903.0
902.0
899.0
897.0
899.0
901.0
900.0
904.0
903.0
903.0
902.0
899.0
897.0
897.0
896.0
893.0
895.0
897.0
899.0
900.0
904.0
901.0
906.0
903.0
904.0
903.0
902.0
903.0
903.0
905.0
906.0
908.0
907.0
910.0
905.0
903.0
901.0
904.0
904.0
906.0
906.0
909.0
907.0
908.0
911.0
910.0
910.0
908.0
909.0
907.0
905.0
904.0
906.0
903.0
903.0
905.0
905.0
906.0
906.0
903.0
898.0
900.0
898.0
898.0
899.0
899.0
899.0
899.0
899.0
899.0
902.0
900.0
899.0
896.0
896.0
895.0
898.0
898.0
898.0
899.0
901.0
902.0
903.0
903.0
900.0
902.0
904.0
904.0
906.0
910.0
911.0
914.0
920.0
923.0
924.0
927.0
926.0
926.0
926.0
924.0
922.0
922.0
923.0
925.0
927.0
926.0
924.0
924.0
918.0
918.0
915.0
914.0
911.0
907.0
903.0
899.0
899.0
894.0
893.0
893.0
894.0
892.0
890.0
892.0
888.0
887.0
888.0
889.0
890.0
890.0
889.0
888.0
885.0
885.0
883.0
883.0
885.0
885.0
888.0
885.0
890.0
889.0
890.0
891.0
891.0
891.0
891.0
891.0
893.0
895.0
899.0
901.0
903.0
907.0
908.0
914.0
926.0
947.0
983.0
1031.0
1102.0
1185.0
1265.0
1324.0
1347.0
1322.0
1239.0
1116.0
988.0
860.0
756.0
724.0
741.0
786.0
836.0
878.0
906.0
921.0
923.0
915.0
911.0
904.0
900.0
899.0
901.0
903.0
905.0
907.0
908.0
908.0
907.0
908.0
905.0
903.0
903.0
902.0
904.0
904.0
907.0
909.0
909.0
909.0
909.0
908.0
906.0
905.0
905.0
907.0
907.0
908.0
906.0
909.0
908.0
911.0
911.0
910.0
908.0
908.0
905.0
904.0
905.0
904.0
905.0
909.0
910.0
910.0
910.0
910.0
912.0
908.0
907.0
909.0
910.0
909.0
912.0
911.0
912.0
914.0
916.0
916.0
915.0
913.0
911.0
911.0
914.0
915.0
916.0
917.0
918.0
917.0
918.0
917.0
917.0
917.0
917.0
918.0
918.0
920.0
922.0
922.0
923.0
925.0
927.0
925.0
925.0
925.0
925.0
926.0
928.0
929.0
932.0
933.0
935.0
933.0
934.0
932.0
930.0
931.0
927.0
930.0
929.0
928.0
931.0
932.0
934.0
934.0
935.0
935.0
932.0
933.0
929.0
929.0
927.0
925.0
921.0
921.0
920.0
918.0
917.0
910.0
906.0
900.0
896.0
896.0
891.0
888.0
885.0
884.0
884.0
884.0
884.0
881.0
879.0
878.0
876.0
874.0
874.0
877.0
875.0
878.0
877.0
877.0
878.0
877.0
873.0
874.0
874.0
872.0
873.0
875.0
873.0
876.0
877.0
878.0
877.0
878.0
878.0
878.0
877.0
878.0
877.0
876.0
880.0
882.0
885.0
885.0
886.0
883.0
882.0
884.0
878.0
882.0
879.0
880.0
884.0
883.0
885.0
885.0
884.0
884.0
882.0
881.0
878.0
877.0
876.0
880.0
879.0
878.0
881.0
879.0
879.0
879.0
877.0
877.0
875.0
873.0
873.0
872.0
873.0
878.0
879.0
875.0
877.0
875.0
877.0
875.0
876.0
878.0
878.0
880.0
883.0
887.0
890.0
892.0
893.0
895.0
896.0
893.0
896.0
899.0
902.0
901.0
901.0
900.0
901.0
902.0
899.0
902.0
900.0
899.0
895.0
897.0
894.0
895.0
891.0
888.0
886.0
884.0
878.0
876.0
872.0
869.0
866.0
866.0
866.0
868.0
869.0
869.0
870.0
867.0
867.0
865.0
866.0
861.0
860.0
860.0
861.0
863.0
862.0
863.0
864.0
866.0
868.0
868.0
865.0
863.0
867.0
864.0
863.0
864.0
867.0
868.0
874.0
876.0
876.0
879.0
879.0
880.0
880.0
882.0
886.0
897.0
911.0
936.0
972.0
1019.0
1080.0
1150.0
1223.0
1285.0
1327.0
1333.0
1296.0
1213.0
1095.0
967.0
839.0
750.0
711.0
722.0
763.0
811.0
857.0
885.0
900.0
905.0
901.0
895.0
890.0
884.0
883.0
884.0
881.0
882.0
882.0
884.0
882.0
883.0
884.0
886.0
887.0
887.0
889.0
885.0
886.0
885.0
887.0
884.0
886.0
886.0
888.0
889.0
889.0
890.0
888.0
887.0
887.0
887.0
887.0
887.0
888.0
888.0
889.0
892.0
893.0
894.0
891.0
891.0
891.0
890.0
889.0
890.0
889.0
890.0
890.0
891.0
894.0
894.0
893.0
893.0
893.0
892.0
891.0
892.0
891.0
892.0
893.0
894.0
896.0
900.0
899.0
899.0
897.0
896.0
896.0
896.0
899.0
900.0
901.0
904.0
906.0
907.0
907.0
907.0
908.0
904.0
902.0
904.0
907.0
908.0
910.0
911.0
914.0
914.0
914.0
916.0
916.0
917.0
915.0
916.0
916.0
918.0
920.0
922.0
925.0
926.0
926.0
925.0
921.0
920.0
920.0
924.0
922.0
923.0
924.0
926.0
927.0
929.0
930.0
930.0
927.0
926.0
922.0
918.0
917.0
913.0
914.0
910.0
909.0
907.0
903.0
901.0
897.0
893.0
888.0
885.0
881.0
881.0
878.0
875.0
876.0
876.0
874.0
872.0
869.0
869.0
866.0
865.0
865.0
867.0
865.0
865.0
866.0
867.0
866.0
863.0
862.0
861.0
859.0
859.0
859.0
862.0
864.0
864.0
865.0
868.0
866.0
867.0
865.0
863.0
866.0
862.0
866.0
866.0
868.0
870.0
872.0
872.0
871.0
872.0
873.0
871.0
872.0
869.0
870.0
873.0
875.0
877.0
875.0
877.0
877.0
875.0
874.0
871.0
870.0
870.0
871.0
871.0
872.0
875.0
875.0
874.0
872.0
871.0
871.0
869.0
869.0
869.0
867.0
868.0
870.0
869.0
871.0
872.0
871.0
871.0
867.0
868.0
868.0
866.0
866.0
867.0
866.0
868.0
871.0
870.0
869.0
868.0
867.0
865.0
864.0
864.0
863.0
865.0
866.0
865.0
866.0
868.0
868.0
868.0
867.0
865.0
865.0
864.0
864.0
864.0
865.0
867.0
866.0
866.0
869.0
870.0
870.0
866.0
863.0
865.0
864.0
867.0
865.0
870.0
874.0
875.0
877.0
879.0
878.0
881.0
882.0
882.0
885.0
886.0
889.0
892.0
898.0
898.0
900.0
900.0
898.0
897.0
893.0
892.0
893.0
894.0
895.0
897.0
898.0
897.0
894.0
893.0
887.0
886.0
881.0
876.0
877.0
875.0
870.0
871.0
872.0
872.0
870.0
871.0
870.0
869.0
865.0
862.0
867.0
864.0
865.0
867.0
866.0
869.0
868.0
868.0
864.0
864.0
864.0
865.0
867.0
867.0
867.0
869.0
870.0
873.0
875.0
874.0
876.0
873.0
876.0
874.0
875.0
879.0
882.0
885.0
892.0
899.0
915.0
937.0
970.0
1017.0
1079.0
1158.0
1237.0
1305.0
1340.0
1329.0
1269.0
1159.0
1031.0
903.0
775.0
719.0
717.0
752.0
804.0
856.0
893.0
914.0
920.0
917.0
906.0
900.0
893.0
889.0
888.0
889.0
889.0
894.0
894.0
895.0
899.0
899.0
900.0
897.0
897.0
897.0
896.0
897.0
897.0
897.0
900.0
899.0
904.0
903.0
903.0
903.0
902.0
902.0
899.0
899.0
899.0
901.0
902.0
904.0
906.0
906.0
906.0
907.0
906.0
906.0
905.0
905.0
904.0
902.0
904.0
906.0
909.0
912.0
908.0
909.0
908.0
911.0
911.0
911.0
911.0
912.0
913.0
915.0
917.0
917.0
917.0
916.0
916.0
916.0
914.0
918.0
918.0
919.0
922.0
923.0
925.0
927.0
927.0
926.0
926.0
927.0
928.0
928.0
929.0
931.0
934.0
937.0
938.0
939.0
938.0
940.0
940.0
940.0
940.0
939.0
939.0
939.0
942.0
944.0
948.0
951.0
950.0
951.0
952.0
952.0
952.0
951.0
953.0
954.0
954.0
957.0
959.0
960.0
961.0
961.0
960.0
961.0
959.0
959.0
958.0
955.0
957.0
956.0
957.0
956.0
952.0
951.0
947.0
943.0
940.0
937.0
934.0
931.0
930.0
929.0
929.0
929.0
929.0
925.0
923.0
918.0
916.0
915.0
915.0
917.0
918.0
918.0
917.0
919.0
918.0
919.0
917.0
917.0
914.0
912.0
913.0
914.0
915.0
915.0
918.0
916.0
919.0
920.0
918.0
917.0
916.0
917.0
919.0
920.0
925.0
925.0
928.0
931.0
931.0
929.0
928.0
926.0
929.0
929.0
927.0
931.0
932.0
933.0
937.0
938.0
937.0
938.0
939.0
936.0
934.0
935.0
933.0
936.0
938.0
941.0
940.0
941.0
940.0
940.0
939.0
937.0
937.0
935.0
935.0
935.0
938.0
939.0
938.0
942.0
938.0
941.0
941.0
937.0
937.0
935.0
934.0
935.0
937.0
937.0
941.0
942.0
941.0
943.0
939.0
935.0
936.0
935.0
936.0
934.0
936.0
935.0
938.0
941.0
939.0
938.0
939.0
939.0
938.0
939.0
940.0
939.0
941.0
943.0
944.0
943.0
943.0
945.0
949.0
952.0
951.0
953.0
956.0
958.0
960.0
963.0
967.0
971.0
975.0
978.0
981.0
980.0
979.0
977.0
976.0
976.0
977.0
977.0
979.0
979.0
979.0
981.0
978.0
975.0
969.0
967.0
961.0
958.0
954.0
952.0
954.0
956.0
952.0
951.0
952.0
951.0
950.0
948.0
948.0
948.0
950.0
952.0
955.0
954.0
954.0
952.0
952.0
953.0
952.0
948.0
950.0
950.0
953.0
953.0
955.0
956.0
956.0
957.0
958.0
956.0
960.0
960.0
963.0
966.0
969.0
969.0
974.0
980.0
988.0
1007.0
1036.0
1084.0
1150.0
1230.0
1308.0
1366.0
1386.0
1353.0
1257.0
1129.0
1001.0
873.0
804.0
808.0
852.0
906.0
954.0
989.0
1005.0
1010.0
1003.0
994.0
986.0
980.0
981.0
981.0
979.0
982.0
986.0
985.0
988.0
991.0
989.0
987.0
988.0
987.0
985.0
988.0
987.0
986.0
988.0
989.0
990.0
992.0
989.0
992.0
991.0
990.0
990.0
990.0
989.0
989.0
991.0
989.0
990.0
992.0
991.0
993.0
996.0
995.0
995.0
991.0
987.0
989.0
990.0
992.0
994.0
994.0
995.0
995.0
998.0
993.0
994.0
994.0
993.0
996.0
992.0
994.0
996.0
996.0
1000.0
1004.0
1002.0
1003.0
1001.0
1000.0
999.0
998.0
998.0
999.0
1000.0
1002.0
1004.0
1008.0
1005.0
1007.0
1006.0
1005.0
1004.0
1004.0
1006.0
1007.0
1007.0
1011.0
1013.0
1016.0
1016.0
1019.0
1016.0
1017.0
1015.0
1013.0
1013.0
1014.0
1013.0
1018.0
1019.0
1021.0
1021.0
1019.0
1019.0
1016.0
1017.0
1014.0
1014.0
1017.0
1017.0
1019.0
1022.0
1022.0
1023.0
1023.0
1021.0
1018.0
1018.0
1013.0
1011.0
1009.0
1010.0
1010.0
1007.0
1005.0
1002.0
999.0
994.0
990.0
986.0
981.0
979.0
975.0
974.0
974.0
974.0
973.0
969.0
970.0
970.0
965.0
965.0
962.0
963.0
961.0
963.0
963.0
965.0
964.0
965.0
965.0
963.0
965.0
961.0
961.0
960.0
961.0
962.0
964.0
964.0
964.0
965.0
962.0
964.0
964.0
963.0
963.0
962.0
963.0
962.0
965.0
969.0
968.0
971.0
971.0
970.0
968.0
966.0
967.0
967.0
965.0
968.0
968.0
966.0
968.0
970.0
970.0
970.0
966.0
966.0
963.0
962.0
962.0
962.0
961.0
963.0
965.0
965.0
960.0
961.0
958.0
958.0
957.0
957.0
957.0
959.0
961.0
958.0
958.0
956.0
958.0
957.0
955.0
953.0
952.0
952.0
952.0
955.0
958.0
960.0
964.0
965.0
967.0
968.0
967.0
969.0
969.0
969.0
972.0
975.0
979.0
984.0
987.0
987.0
985.0
982.0
980.0
977.0
975.0
975.0
973.0
976.0
981.0
980.0
976.0
977.0
973.0
969.0
965.0
962.0
957.0
952.0
948.0
951.0
949.0
950.0
950.0
950.0
951.0
948.0
946.0
944.0
941.0
941.0
940.0
942.0
942.0
939.0
941.0
942.0
940.0
938.0
940.0
937.0
936.0
937.0
939.0
939.0
941.0
940.0
943.0
944.0
942.0
945.0
946.0
946.0
948.0
948.0
951.0
955.0
960.0
968.0
985.0
1010.0
1046.0
1097.0
1161.0
1228.0
1294.0
1348.0
1371.0
1362.0
1310.0
1217.0
1093.0
965.0
849.0
789.0
782.0
814.0
863.0
913.0
950.0
973.0
980.0
978.0
972.0
963.0
957.0
952.0
951.0
953.0
954.0
953.0
955.0
957.0
957.0
956.0
959.0
957.0
958.0
956.0
956.0
954.0
954.0
953.0
954.0
954.0
957.0
955.0
959.0
957.0
957.0
959.0
956.0
957.0
955.0
954.0
955.0
954.0
954.0
956.0
957.0
956.0
956.0
954.0
955.0
953.0
952.0
953.0
954.0
955.0
956.0
957.0
959.0
959.0
959.0
957.0
958.0
955.0
954.0
952.0
954.0
957.0
955.0
958.0
959.0
959.0
957.0
959.0
959.0
958.0
958.0
955.0
956.0
958.0
961.0
962.0
962.0
962.0
963.0
961.0
963.0
962.0
962.0
961.0
963.0
964.0
967.0
968.0
968.0
969.0
968.0
967.0
968.0
969.0
969.0
969.0
969.0
971.0
973.0
976.0
977.0
979.0
978.0
976.0
976.0
974.0
975.0
974.0
973.0
971.0
975.0
977.0
977.0
977.0
977.0
977.0
974.0
974.0
968.0
967.0
967.0
964.0
964.0
960.0
958.0
955.0
951.0
950.0
942.0
935.0
931.0
928.0
925.0
926.0
921.0
919.0
922.0
923.0
920.0
917.0
915.0
914.0
911.0
908.0
906.0
907.0
906.0
907.0
906.0
907.0
909.0
906.0
904.0
903.0
900.0
901.0
897.0
898.0
901.0
903.0
905.0
907.0
906.0
903.0
903.0
903.0
904.0
903.0
903.0
905.0
907.0
908.0
909.0
910.0
910.0
911.0
911.0
910.0
909.0
909.0
908.0
908.0
911.0
911.0
916.0
912.0
911.0
912.0
911.0
910.0
908.0
909.0
907.0
908.0
909.0
908.0
910.0
910.0
907.0
907.0
906.0
904.0
901.0
901.0
900.0
900.0
901.0
901.0
903.0
902.0
903.0
901.0
898.0
899.0
896.0
895.0
897.0
898.0
896.0
898.0
900.0
897.0
899.0
898.0
896.0
894.0
892.0
892.0
893.0
892.0
892.0
895.0
896.0
898.0
896.0
895.0
894.0
893.0
891.0
890.0
887.0
889.0
889.0
891.0
892.0
891.0
889.0
890.0
888.0
887.0
887.0
886.0
885.0
885.0
889.0
890.0
891.0
894.0
889.0
892.0
894.0
894.0
895.0
896.0
900.0
904.0
906.0
906.0
907.0
910.0
913.0
914.0
914.0
914.0
914.0
913.0
914.0
911.0
913.0
912.0
913.0
915.0
914.0
913.0
911.0
908.0
906.0
902.0
899.0
898.0
894.0
891.0
888.0
887.0
885.0
883.0
882.0
879.0
880.0
881.0
880.0
879.0
877.0
880.0
882.0
882.0
881.0
880.0
877.0
877.0
874.0
874.0
875.0
873.0
875.0
877.0
880.0
880.0
880.0
876.0
876.0
876.0
875.0
878.0
878.0
879.0
882.0
885.0
888.0
889.0
890.0
895.0
897.0
903.0
917.0
938.0
971.0
1021.0
1082.0
1158.0
1231.0
1290.0
1319.0
1315.0
1260.0
1164.0
1037.0
909.0
798.0
732.0
715.0
739.0
784.0
830.0
871.0
897.0
908.0
909.0
906.0
898.0
894.0
891.0
891.0
891.0
892.0
892.0
895.0
893.0
892.0
893.0
892.0
891.0
891.0
891.0
894.0
891.0
894.0
894.0
893.0
893.0
894.0
891.0
889.0
887.0
886.0
890.0
890.0
893.0
894.0
897.0
894.0
895.0
895.0
891.0
892.0
889.0
889.0
891.0
892.0
891.0
892.0
895.0
893.0
894.0
891.0
888.0
887.0
889.0
887.0
890.0
889.0
890.0
893.0
893.0
893.0
893.0
895.0
894.0
890.0
891.0
892.0
892.0
893.0
894.0
898.0
896.0
898.0
897.0
895.0
897.0
894.0
894.0
896.0
896.0
898.0
898.0
902.0
904.0
903.0
904.0
902.0
903.0
902.0
901.0
902.0
902.0
904.0
906.0
910.0
910.0
910.0
909.0
909.0
909.0
906.0
906.0
906.0
906.0
910.0
911.0
912.0
915.0
912.0
914.0
911.0
912.0
911.0
910.0
911.0
912.0
912.0
914.0
915.0
918.0
917.0
914.0
913.0
910.0
908.0
907.0
903.0
903.0
899.0
899.0
897.0
895.0
890.0
886.0
881.0
878.0
876.0
870.0
867.0
863.0
862.0
865.0
866.0
865.0
864.0
864.0
861.0
861.0
859.0
857.0
856.0
857.0
856.0
855.0
857.0
857.0
856.0
856.0
854.0
856.0
854.0
850.0
852.0
853.0
855.0
856.0
855.0
855.0
856.0
855.0
855.0
855.0
852.0
853.0
855.0
854.0
856.0
861.0
863.0
861.0
861.0
862.0
859.0
859.0
859.0
858.0
859.0
858.0
860.0
860.0
862.0
864.0
863.0
862.0
861.0
860.0
858.0
857.0
857.0
857.0
856.0
856.0
859.0
857.0
857.0
856.0
853.0
851.0
849.0
849.0
848.0
851.0
851.0
851.0
851.0
852.0
851.0
850.0
847.0
848.0
847.0
845.0
846.0
849.0
848.0
849.0
848.0
847.0
844.0
846.0
845.0
845.0
843.0
842.0
844.0
845.0
846.0
844.0
847.0
848.0
847.0
846.0
845.0
846.0
844.0
843.0
843.0
843.0
845.0
847.0
845.0
848.0
847.0
845.0
845.0
844.0
843.0
842.0
840.0
842.0
842.0
844.0
846.0
847.0
847.0
846.0
845.0
841.0
843.0
839.0
839.0
840.0
841.0
841.0
843.0
846.0
846.0
847.0
845.0
845.0
842.0
842.0
842.0
844.0
845.0
847.0
847.0
851.0
852.0
855.0
856.0
858.0
860.0
859.0
860.0
864.0
866.0
866.0
872.0
