# Simple Text Format
# Sampling Rate (Hz):= 360.00
# Resolution:= 12
# Labels:= ECG
899.0
899.0
897.0
898.0
901.0
897.0
896.0
894.0
892.0
891.0
889.0
890.0
891.0
891.0
893.0
893.0
893.0
894.0
888.0
885.0
887.0
887.0
887.0
887.0
887.0
890.0
890.0
891.0
891.0
890.0
887.0
886.0
884.0
884.0
884.0
886.0
886.0
884.0
885.0
889.0
886.0
888.0
885.0
886.0
884.0
882.0
881.0
883.0
885.0
885.0
885.0
887.0
885.0
887.0
885.0
881.0
883.0
883.0
882.0
882.0
882.0
881.0
885.0
886.0
886.0
885.0
886.0
881.0
880.0
879.0
880.0
880.0
883.0
885.0
886.0
890.0
890.0
890.0
890.0
892.0
894.0
894.0
895.0
896.0
901.0
903.0
907.0
911.0
909.0
912.0
912.0
911.0
908.0
906.0
907.0
908.0
907.0
908.0
909.0
911.0
912.0
909.0
907.0
906.0
902.0
898.0
897.0
896.0
894.0
891.0
888.0
886.0
882.0
881.0
879.0
876.0
877.0
875.0
878.0
878.0
878.0
878.0
877.0
879.0
879.0
877.0
874.0
872.0
873.0
872.0
875.0
874.0
875.0
874.0
878.0
878.0
878.0
874.0
876.0
875.0
875.0
874.0
875.0
878.0
879.0
880.0
882.0
885.0
887.0
887.0
885.0
884.0
886.0
891.0
897.0
908.0
929.0
957.0
997.0
1049.0
1113.0
1181.0
1249.0
1295.0
1321.0
1297.0
1227.0
1119.0
991.0
863.0
768.0
725.0
728.0
763.0
805.0
848.0
878.0
894.0
904.0
904.0
901.0
896.0
892.0
891.0
889.0
891.0
890.0
889.0
889.0
890.0
889.0
889.0
890.0
891.0
894.0
895.0
896.0
895.0
893.0
892.0
891.0
891.0
889.0
890.0
892.0
893.0
894.0
899.0
897.0
897.0
894.0
892.0
891.0
889.0
891.0
888.0
891.0
890.0
894.0
897.0
897.0
897.0
896.0
895.0
891.0
891.0
889.0
891.0
893.0
895.0
895.0
897.0
894.0
896.0
894.0
894.0
892.0
891.0
894.0
892.0
896.0
897.0
900.0
900.0
899.0
900.0
899.0
898.0
898.0
896.0
898.0
898.0
899.0
903.0
903.0
905.0
907.0
902.0
904.0
903.0
900.0
899.0
900.0
901.0
905.0
906.0
910.0
912.0
912.0
914.0
912.0
911.0
910.0
909.0
907.0
907.0
907.0
911.0
911.0
911.0
912.0
913.0
911.0
910.0
907.0
906.0
906.0
909.0
910.0
910.0
909.0
911.0
910.0
912.0
910.0
911.0
909.0
906.0
904.0
905.0
902.0
900.0
898.0
899.0
896.0
892.0
890.0
885.0
880.0
878.0
875.0
871.0
871.0
870.0
869.0
869.0
868.0
866.0
862.0
862.0
858.0
857.0
856.0
858.0
859.0
860.0
862.0
863.0
862.0
861.0
859.0
858.0
858.0
856.0
858.0
856.0
859.0
861.0
863.0
864.0
863.0
865.0
864.0
863.0
860.0
862.0
863.0
864.0
865.0
867.0
865.0
867.0
868.0
870.0
866.0
868.0
866.0
866.0
866.0
868.0
867.0
870.0
871.0
869.0
868.0
867.0
864.0
862.0
862.0
860.0
861.0
862.0
860.0
861.0
864.0
863.0
864.0
861.0
862.0
858.0
857.0
857.0
859.0
857.0
858.0
859.0
859.0
862.0
857.0
857.0
857.0
856.0
854.0
852.0
852.0
853.0
853.0
855.0
856.0
857.0
856.0
854.0
851.0
852.0
851.0
849.0
848.0
850.0
849.0
849.0
850.0
853.0
853.0
853.0
852.0
853.0
851.0
847.0
850.0
850.0
852.0
853.0
853.0
852.0
853.0
854.0
853.0
852.0
849.0
849.0
847.0
849.0
851.0
852.0
855.0
858.0
860.0
861.0
863.0
865.0
865.0
864.0
867.0
869.0
870.0
871.0
874.0
881.0
882.0
885.0
885.0
882.0
882.0
879.0
876.0
879.0
879.0
881.0
884.0
884.0
884.0
881.0
879.0
877.0
872.0
870.0
868.0
865.0
862.0
858.0
859.0
858.0
856.0
855.0
854.0
852.0
851.0
850.0
849.0
850.0
849.0
854.0
853.0
856.0
856.0
854.0
852.0
852.0
849.0
849.0
850.0
849.0
851.0
852.0
853.0
855.0
857.0
857.0
858.0
859.0
856.0
855.0
854.0
854.0
859.0
862.0
866.0
868.0
870.0
876.0
882.0
898.0
917.0
951.0
1000.0
1064.0
1140.0
1217.0
1273.0
1305.0
1291.0
1229.0
1126.0
998.0
870.0
768.0
717.0
714.0
749.0
797.0
838.0
876.0
891.0
896.0
894.0
888.0
880.0
876.0
874.0
873.0
876.0
878.0
881.0
884.0
884.0
882.0
881.0
880.0
880.0
879.0
877.0
878.0
880.0
880.0
881.0
884.0
884.0
884.0
883.0
881.0
880.0
882.0
883.0
882.0
883.0
882.0
884.0
886.0
885.0
888.0
888.0
884.0
886.0
885.0
883.0
885.0
886.0
888.0
888.0
890.0
892.0
890.0
892.0
888.0
888.0
889.0
887.0
888.0
890.0
893.0
894.0
896.0
897.0
896.0
895.0
895.0
894.0
894.0
893.0
894.0
895.0
897.0
898.0
901.0
899.0
898.0
897.0
899.0
902.0
899.0
902.0
903.0
902.0
907.0
905.0
908.0
910.0
909.0
906.0
908.0
909.0
908.0
905.0
906.0
909.0
911.0
913.0
914.0
915.0
914.0
914.0
913.0
911.0
909.0
908.0
909.0
909.0
908.0
911.0
913.0
914.0
913.0
914.0
908.0
907.0
909.0
908.0
909.0
908.0
905.0
905.0
904.0
898.0
896.0
892.0
888.0
885.0
880.0
879.0
876.0
874.0
875.0
874.0
873.0
872.0
870.0
870.0
867.0
868.0
866.0
864.0
867.0
867.0
867.0
870.0
871.0
871.0
870.0
868.0
867.0
869.0
868.0
869.0
867.0
871.0
871.0
875.0
875.0
878.0
875.0
876.0
875.0
875.0
876.0
878.0
877.0
878.0
878.0
880.0
885.0
882.0
883.0
882.0
881.0
880.0
880.0
878.0
879.0
880.0
881.0
881.0
880.0
879.0
881.0
881.0
878.0
878.0
875.0
874.0
875.0
875.0
878.0
878.0
880.0
879.0
877.0
876.0
874.0
872.0
870.0
871.0
872.0
874.0
874.0
873.0
875.0
875.0
876.0
876.0
872.0
871.0
868.0
872.0
867.0
869.0
870.0
871.0
872.0
873.0
872.0
869.0
869.0
867.0
867.0
869.0
866.0
869.0
870.0
872.0
874.0
873.0
872.0
874.0
871.0
869.0
868.0
863.0
865.0
868.0
868.0
872.0
874.0
872.0
872.0
873.0
871.0
871.0
872.0
868.0
868.0
869.0
871.0
874.0
875.0
877.0
878.0
879.0
876.0
879.0
880.0
881.0
882.0
885.0
890.0
893.0
896.0
897.0
900.0
902.0
902.0
901.0
901.0
899.0
897.0
895.0
898.0
899.0
902.0
904.0
903.0
901.0
897.0
898.0
894.0
890.0
889.0
888.0
886.0
882.0
884.0
879.0
877.0
877.0
876.0
873.0
872.0
871.0
870.0
870.0
871.0
872.0
875.0
873.0
873.0
873.0
872.0
870.0
869.0
866.0
868.0
872.0
870.0
871.0
875.0
878.0
879.0
878.0
881.0
879.0
879.0
881.0
883.0
885.0
888.0
893.0
899.0
908.0
924.0
948.0
984.0
1032.0
1096.0
1171.0
1243.0
1301.0
1331.0
1316.0
1250.0
1141.0
1013.0
885.0
771.0
724.0
726.0
764.0
814.0
862.0
894.0
914.0
920.0
916.0
909.0
901.0
893.0
891.0
888.0
890.0
890.0
894.0
896.0
899.0
902.0
901.0
900.0
901.0
900.0
899.0
897.0
897.0
900.0
900.0
902.0
902.0
904.0
904.0
904.0
903.0
902.0
901.0
900.0
898.0
900.0
900.0
898.0
900.0
903.0
903.0
903.0
903.0
904.0
902.0
902.0
901.0
901.0
901.0
902.0
902.0
907.0
907.0
908.0
905.0
904.0
902.0
903.0
902.0
903.0
904.0
906.0
905.0
908.0
907.0
906.0
906.0
907.0
905.0
906.0
906.0
907.0
910.0
912.0
914.0
914.0
916.0
918.0
916.0
915.0
916.0
914.0
912.0
915.0
915.0
916.0
919.0
922.0
923.0
923.0
923.0
922.0
921.0
921.0
919.0
921.0
925.0
925.0
927.0
930.0
933.0
932.0
932.0
931.0
932.0
931.0
927.0
927.0
930.0
932.0
931.0
934.0
934.0
933.0
934.0
933.0
932.0
932.0
931.0
930.0
931.0
932.0
932.0
933.0
930.0
927.0
923.0
921.0
918.0
914.0
912.0
908.0
908.0
908.0
902.0
904.0
900.0
899.0
895.0
893.0
889.0
886.0
883.0
882.0
883.0
882.0
884.0
882.0
886.0
881.0
880.0
879.0
878.0
876.0
873.0
876.0
876.0
878.0
877.0
881.0
882.0
881.0
882.0
879.0
879.0
877.0
877.0
877.0
879.0
882.0
883.0
885.0
886.0
884.0
884.0
884.0
884.0
883.0
884.0
886.0
886.0
889.0
887.0
889.0
891.0
891.0
891.0
891.0
889.0
889.0
886.0
885.0
888.0
888.0
890.0
890.0
890.0
890.0
891.0
885.0
887.0
882.0
883.0
882.0
885.0
882.0
885.0
886.0
888.0
885.0
884.0
883.0
883.0
882.0
880.0
880.0
880.0
881.0
878.0
882.0
883.0
884.0
884.0
882.0
880.0
878.0
878.0
878.0
878.0
879.0
881.0
883.0
882.0
883.0
881.0
880.0
879.0
879.0
879.0
878.0
879.0
881.0
881.0
880.0
879.0
881.0
881.0
879.0
876.0
878.0
877.0
875.0
879.0
878.0
878.0
881.0
881.0
879.0
880.0
878.0
878.0
877.0
877.0
874.0
879.0
881.0
884.0
888.0
889.0
892.0
895.0
898.0
898.0
898.0
898.0
900.0
902.0
904.0
907.0
906.0
906.0
907.0
903.0
905.0
903.0
901.0
899.0
899.0
902.0
900.0
898.0
897.0
895.0
892.0
888.0
885.0
883.0
880.0
875.0
877.0
873.0
875.0
877.0
878.0
878.0
878.0
879.0
876.0
879.0
876.0
876.0
875.0
876.0
876.0
877.0
878.0
880.0
880.0
881.0
879.0
879.0
879.0
879.0
878.0
881.0
884.0
886.0
888.0
893.0
896.0
896.0
897.0
900.0
909.0
927.0
957.0
1000.0
1061.0
1130.0
1207.0
1273.0
1313.0
1312.0
1266.0
1171.0
1049.0
924.0
818.0
755.0
742.0
762.0
805.0
846.0
882.0
902.0
911.0
911.0
909.0
901.0
896.0
894.0
894.0
894.0
897.0
900.0
902.0
903.0
901.0
901.0
901.0
901.0
900.0
901.0
901.0
902.0
902.0
904.0
903.0
904.0
900.0
902.0
901.0
898.0
900.0
901.0
902.0
903.0
903.0
907.0
905.0
906.0
905.0
901.0
902.0
900.0
900.0
899.0
902.0
901.0
903.0
907.0
906.0
903.0
904.0
902.0
899.0
900.0
897.0
902.0
904.0
903.0
906.0
905.0
906.0
906.0
907.0
905.0
906.0
904.0
904.0
905.0
907.0
908.0
910.0
912.0
913.0
910.0
911.0
910.0
910.0
906.0
907.0
908.0
910.0
912.0
912.0
913.0
916.0
917.0
911.0
915.0
914.0
913.0
913.0
913.0
916.0
916.0
918.0
919.0
919.0
921.0
918.0
917.0
915.0
918.0
920.0
920.0
921.0
921.0
923.0
925.0
926.0
923.0
924.0
921.0
918.0
918.0
918.0
919.0
919.0
921.0
925.0
927.0
926.0
927.0
924.0
923.0
920.0
919.0
916.0
915.0
912.0
912.0
915.0
911.0
910.0
907.0
903.0
900.0
895.0
890.0
888.0
886.0
887.0
885.0
886.0
886.0
884.0
881.0
879.0
879.0
875.0
871.0
872.0
877.0
876.0
876.0
877.0
877.0
876.0
873.0
873.0
871.0
872.0
872.0
873.0
875.0
875.0
876.0
876.0
877.0
878.0
877.0
878.0
878.0
876.0
875.0
876.0
875.0
875.0
877.0
879.0
882.0
882.0
884.0
882.0
880.0
878.0
879.0
878.0
880.0
882.0
883.0
884.0
885.0
886.0
883.0
881.0
880.0
880.0
877.0
878.0
877.0
877.0
879.0
881.0
880.0
882.0
879.0
879.0
875.0
874.0
875.0
872.0
875.0
876.0
875.0
876.0
875.0
876.0
874.0
875.0
874.0
874.0
871.0
871.0
869.0
871.0
873.0
872.0
873.0
874.0
874.0
872.0
871.0
869.0
869.0
868.0
869.0
869.0
869.0
871.0
873.0
871.0
871.0
871.0
872.0
871.0
867.0
870.0
869.0
870.0
870.0
872.0
873.0
873.0
874.0
873.0
872.0
871.0
869.0
872.0
874.0
876.0
880.0
882.0
886.0
887.0
888.0
888.0
891.0
892.0
892.0
896.0
897.0
898.0
897.0
898.0
897.0
896.0
896.0
895.0
894.0
891.0
892.0
889.0
889.0
887.0
884.0
882.0
880.0
876.0
873.0
869.0
869.0
868.0
867.0
866.0
868.0
869.0
869.0
868.0
870.0
867.0
869.0
868.0
865.0
863.0
862.0
862.0
863.0
865.0
866.0
868.0
869.0
869.0
869.0
870.0
868.0
865.0
863.0
864.0
866.0
868.0
871.0
872.0
873.0
876.0
878.0
878.0
879.0
878.0
879.0
883.0
894.0
911.0
939.0
978.0
1029.0
1094.0
1162.0
1226.0
1267.0
1280.0
1251.0
1174.0
1069.0
949.0
842.0
769.0
744.0
755.0
788.0
826.0
859.0
882.0
891.0
893.0
892.0
887.0
882.0
881.0
881.0
881.0
880.0
880.0
881.0
881.0
880.0
880.0
882.0
883.0
884.0
884.0
884.0
884.0
886.0
884.0
884.0
884.0
881.0
882.0
883.0
885.0
883.0
889.0
888.0
888.0
888.0
886.0
883.0
884.0
884.0
884.0
884.0
885.0
887.0
888.0
890.0
888.0
890.0
890.0
889.0
886.0
881.0
883.0
882.0
883.0
886.0
887.0
888.0
891.0
890.0
890.0
889.0
888.0
888.0
886.0
886.0
889.0
888.0
888.0
892.0
893.0
895.0
893.0
893.0
892.0
891.0
888.0
890.0
892.0
893.0
894.0
895.0
897.0
897.0
898.0
896.0
896.0
895.0
895.0
897.0
899.0
899.0
900.0
903.0
905.0
904.0
904.0
903.0
901.0
902.0
902.0
902.0
903.0
903.0
906.0
906.0
906.0
905.0
904.0
905.0
905.0
903.0
903.0
901.0
898.0
902.0
902.0
905.0
906.0
906.0
908.0
906.0
905.0
904.0
901.0
901.0
901.0
901.0
899.0
901.0
898.0
894.0
890.0
888.0
883.0
878.0
876.0
872.0
870.0
869.0
869.0
870.0
868.0
864.0
864.0
862.0
860.0
858.0
857.0
857.0
857.0
859.0
860.0
859.0
860.0
860.0
859.0
858.0
855.0
854.0
853.0
854.0
856.0
855.0
859.0
859.0
861.0
862.0
861.0
859.0
857.0
858.0
858.0
856.0
860.0
863.0
861.0
866.0
865.0
867.0
865.0
866.0
863.0
863.0
862.0
866.0
864.0
865.0
866.0
868.0
868.0
867.0
866.0
862.0
860.0
859.0
858.0
858.0
860.0
863.0
863.0
865.0
861.0
863.0
863.0
860.0
860.0
856.0
860.0
858.0
858.0
856.0
859.0
859.0
859.0
859.0
857.0
855.0
855.0
855.0
853.0
852.0
854.0
854.0
858.0
861.0
864.0
865.0
866.0
866.0
865.0
866.0
867.0
868.0
871.0
875.0
878.0
883.0
886.0
883.0
881.0
881.0
879.0
876.0
875.0
876.0
879.0
879.0
880.0
879.0
878.0
878.0
874.0
869.0
863.0
859.0
856.0
852.0
851.0
848.0
851.0
853.0
856.0
854.0
852.0
851.0
850.0
849.0
849.0
846.0
847.0
846.0
847.0
848.0
852.0
849.0
851.0
848.0
847.0
847.0
845.0
846.0
848.0
850.0
851.0
853.0
858.0
857.0
858.0
858.0
860.0
858.0
860.0
864.0
869.0
879.0
891.0
913.0
944.0
985.0
1037.0
1100.0
1161.0
1210.0
1236.0
1226.0
1175.0
1087.0
981.0
879.0
802.0
764.0
760.0
781.0
815.0
844.0
865.0
876.0
880.0
878.0
875.0
871.0
867.0
866.0
867.0
869.0
866.0
863.0
866.0
866.0
864.0
866.0
868.0
868.0
871.0
871.0
873.0
869.0
870.0
864.0
868.0
867.0
869.0
871.0
872.0
871.0
872.0
873.0
872.0
871.0
871.0
869.0
869.0
868.0
871.0
873.0
873.0
876.0
874.0
876.0
877.0
874.0
872.0
871.0
872.0
872.0
873.0
873.0
875.0
878.0
877.0
876.0
878.0
876.0
874.0
874.0
874.0
875.0
876.0
877.0
878.0
879.0
881.0
880.0
879.0
877.0
876.0
878.0
878.0
878.0
880.0
881.0
883.0
884.0
883.0
886.0
885.0
885.0
885.0
885.0
886.0
884.0
886.0
888.0
889.0
891.0
894.0
894.0
894.0
894.0
892.0
892.0
892.0
894.0
893.0
899.0
900.0
900.0
901.0
899.0
900.0
898.0
899.0
898.0
894.0
895.0
896.0
898.0
901.0
899.0
900.0
898.0
901.0
897.0
897.0
894.0
892.0
891.0
892.0
890.0
886.0
886.0
885.0
882.0
879.0
876.0
873.0
869.0
869.0
867.0
865.0
864.0
863.0
863.0
859.0
860.0
857.0
855.0
854.0
852.0
851.0
850.0
852.0
850.0
853.0
854.0
854.0
853.0
855.0
850.0
850.0
850.0
847.0
848.0
848.0
849.0
851.0
854.0
856.0
855.0
855.0
854.0
853.0
851.0
852.0
853.0
854.0
855.0
856.0
856.0
860.0
860.0
857.0
857.0
857.0
857.0
857.0
857.0
858.0
860.0
861.0
859.0
859.0
857.0
857.0
860.0
856.0
855.0
854.0
856.0
853.0
857.0
858.0
858.0
858.0
857.0
856.0
854.0
852.0
853.0
851.0
848.0
850.0
850.0
850.0
854.0
853.0
854.0
854.0
852.0
849.0
849.0
850.0
849.0
851.0
850.0
851.0
853.0
854.0
852.0
851.0
852.0
853.0
852.0
851.0
853.0
856.0
858.0
860.0
861.0
863.0
864.0
866.0
866.0
868.0
869.0
870.0
873.0
873.0
875.0
879.0
881.0
878.0
878.0
878.0
875.0
876.0
874.0
873.0
872.0
872.0
873.0
872.0
867.0
866.0
864.0
859.0
856.0
851.0
849.0
847.0
845.0
849.0
850.0
849.0
850.0
853.0
851.0
849.0
847.0
844.0
846.0
844.0
846.0
845.0
847.0
850.0
851.0
851.0
853.0
853.0
851.0
851.0
853.0
852.0
852.0
855.0
858.0
860.0
863.0
865.0
869.0
870.0
871.0
875.0
880.0
892.0
908.0
932.0
966.0
1007.0
1058.0
1112.0
1161.0
1201.0
1215.0
1198.0
1148.0
1066.0
965.0
873.0
805.0
772.0
770.0
795.0
824.0
850.0
870.0
881.0
882.0
878.0
871.0
869.0
867.0
866.0
868.0
872.0
871.0
874.0
872.0
871.0
871.0
868.0
870.0
871.0
874.0
872.0
873.0
875.0
873.0
873.0
873.0
872.0
870.0
868.0
871.0
873.0
874.0
875.0
875.0
875.0
875.0
875.0
876.0
876.0
874.0
873.0
875.0
874.0
876.0
878.0
880.0
878.0
877.0
877.0
876.0
874.0
875.0
875.0
876.0
874.0
876.0
877.0
879.0
880.0
882.0
882.0
882.0
880.0
877.0
876.0
880.0
879.0
883.0
885.0
885.0
886.0
886.0
888.0
885.0
884.0
886.0
885.0
887.0
884.0
890.0
890.0
893.0
896.0
895.0
895.0
893.0
895.0
890.0
891.0
893.0
895.0
895.0
896.0
900.0
905.0
905.0
902.0
903.0
903.0
904.0
904.0
905.0
905.0
906.0
908.0
907.0
911.0
909.0
910.0
907.0
907.0
906.0
906.0
904.0
906.0
908.0
909.0
909.0
910.0
907.0
905.0
902.0
899.0
896.0
892.0
892.0
888.0
887.0
886.0
885.0
883.0
880.0
879.0
873.0
873.0
868.0
866.0
867.0
864.0
865.0
866.0
864.0
864.0
864.0
863.0
861.0
860.0
860.0
855.0
856.0
858.0
859.0
860.0
860.0
862.0
862.0
862.0
859.0
857.0
858.0
857.0
857.0
860.0
863.0
859.0
862.0
862.0
865.0
863.0
862.0
863.0
863.0
862.0
864.0
864.0
865.0
865.0
868.0
869.0
870.0
867.0
867.0
866.0
863.0
865.0
865.0
866.0
866.0
867.0
869.0
870.0
868.0
870.0
869.0
866.0
866.0
863.0
864.0
866.0
867.0
869.0
870.0
871.0
869.0
869.0
870.0
869.0
866.0
864.0
865.0
866.0
865.0
867.0
867.0
870.0
867.0
867.0
864.0
865.0
866.0
865.0
867.0
867.0
867.0
868.0
868.0
871.0
872.0
868.0
869.0
868.0
866.0
866.0
866.0
868.0
869.0
867.0
872.0
875.0
873.0
876.0
876.0
877.0
877.0
878.0
878.0
882.0
884.0
888.0
889.0
893.0
895.0
897.0
896.0
894.0
896.0
893.0
896.0
892.0
898.0
896.0
898.0
899.0
900.0
899.0
898.0
895.0
892.0
891.0
887.0
887.0
884.0
882.0
880.0
880.0
876.0
877.0
876.0
876.0
873.0
873.0
872.0
874.0
871.0
873.0
873.0
875.0
876.0
875.0
873.0
870.0
870.0
869.0
867.0
873.0
872.0
872.0
875.0
876.0
878.0
877.0
875.0
876.0
875.0
876.0
878.0
880.0
881.0
887.0
887.0
891.0
891.0
891.0
893.0
898.0
905.0
915.0
931.0
958.0
991.0
1039.0
1094.0
1153.0
1205.0
1241.0
1252.0
1229.0
1172.0
1087.0
991.0
899.0
830.0
794.0
789.0
806.0
834.0
862.0
882.0
895.0
905.0
902.0
903.0
903.0
899.0
897.0
898.0
899.0
899.0
897.0
900.0
899.0
900.0
899.0
901.0
902.0
902.0
904.0
903.0
904.0
905.0
905.0
906.0
904.0
901.0
901.0
904.0
904.0
904.0
904.0
907.0
908.0
909.0
910.0
907.0
908.0
907.0
905.0
904.0
903.0
906.0
910.0
910.0
912.0
911.0
912.0
910.0
909.0
908.0
907.0
907.0
908.0
911.0
910.0
914.0
914.0
914.0
916.0
916.0
914.0
913.0
912.0
913.0
914.0
916.0
916.0
917.0
920.0
922.0
920.0
921.0
918.0
918.0
918.0
918.0
921.0
922.0
924.0
928.0
930.0
930.0
930.0
931.0
926.0
930.0
929.0
926.0
930.0
928.0
930.0
933.0
934.0
935.0
935.0
936.0
932.0
934.0
935.0
935.0
935.0
939.0
938.0
939.0
942.0
940.0
940.0
943.0
941.0
941.0
940.0
939.0
937.0
941.0
943.0
946.0
946.0
946.0
946.0
946.0
944.0
943.0
942.0
941.0
940.0
941.0
937.0
936.0
936.0
934.0
932.0
929.0
924.0
923.0
921.0
917.0
917.0
916.0
914.0
914.0
912.0
912.0
908.0
909.0
906.0
903.0
902.0
898.0
897.0
898.0
901.0
900.0
902.0
900.0
899.0
899.0
897.0
898.0
898.0
896.0
898.0
899.0
899.0
902.0
904.0
903.0
905.0
905.0
902.0
902.0
900.0
902.0
903.0
904.0
905.0
906.0
909.0
909.0
911.0
910.0
906.0
906.0
906.0
905.0
906.0
906.0
908.0
908.0
908.0
911.0
911.0
911.0
908.0
909.0
908.0
906.0
906.0
909.0
909.0
907.0
908.0
908.0
910.0
907.0
907.0
906.0
905.0
905.0
903.0
904.0
903.0
906.0
907.0
905.0
907.0
906.0
908.0
904.0
901.0
901.0
900.0
903.0
902.0
905.0
905.0
903.0
905.0
905.0
903.0
901.0
901.0
897.0
900.0
900.0
903.0
902.0
904.0
907.0
905.0
906.0
905.0
907.0
907.0
908.0
909.0
911.0
916.0
919.0
920.0
922.0
923.0
924.0
927.0
929.0
931.0
932.0
931.0
932.0
931.0
932.0
935.0
933.0
933.0
931.0
929.0
927.0
928.0
925.0
924.0
922.0
921.0
918.0
916.0
911.0
910.0
906.0
904.0
903.0
903.0
903.0
904.0
902.0
904.0
903.0
904.0
905.0
905.0
904.0
902.0
902.0
900.0
900.0
902.0
902.0
903.0
905.0
908.0
907.0
905.0
906.0
906.0
905.0
903.0
905.0
907.0
911.0
915.0
918.0
920.0
924.0
925.0
923.0
929.0
932.0
942.0
954.0
980.0
1015.0
1058.0
1108.0
1167.0
1222.0
1265.0
1289.0
1278.0
1233.0
1147.0
1037.0
927.0
842.0
800.0
798.0
825.0
864.0
899.0
924.0
938.0
944.0
937.0
931.0
925.0
920.0
919.0
920.0
922.0
924.0
924.0
926.0
923.0
924.0
923.0
921.0
924.0
924.0
927.0
927.0
928.0
929.0
929.0
930.0
926.0
926.0
927.0
927.0
928.0
927.0
929.0
928.0
930.0
930.0
929.0
929.0
929.0
926.0
927.0
925.0
929.0
930.0
931.0
930.0
931.0
931.0
930.0
929.0
927.0
925.0
925.0
924.0
927.0
929.0
930.0
931.0
933.0
933.0
935.0
933.0
934.0
931.0
933.0
931.0
931.0
929.0
934.0
934.0
935.0
937.0
938.0
939.0
937.0
936.0
935.0
935.0
935.0
938.0
938.0
940.0
945.0
947.0
943.0
944.0
942.0
939.0
941.0
943.0
944.0
945.0
948.0
949.0
951.0
952.0
953.0
950.0
947.0
947.0
948.0
948.0
947.0
951.0
952.0
952.0
955.0
954.0
955.0
953.0
953.0
950.0
951.0
949.0
950.0
951.0
953.0
954.0
954.0
955.0
952.0
950.0
947.0
947.0
941.0
941.0
937.0
935.0
933.0
931.0
929.0
927.0
927.0
922.0
921.0
915.0
911.0
908.0
909.0
906.0
907.0
907.0
908.0
904.0
902.0
902.0
902.0
900.0
897.0
899.0
898.0
901.0
902.0
900.0
903.0
905.0
903.0
903.0
903.0
905.0
900.0
901.0
901.0
900.0
904.0
905.0
906.0
907.0
906.0
907.0
906.0
908.0
905.0
906.0
907.0
907.0
909.0
911.0
912.0
913.0
912.0
910.0
907.0
907.0
905.0
907.0
907.0
906.0
909.0
911.0
911.0
913.0
910.0
907.0
905.0
904.0
905.0
902.0
900.0
903.0
904.0
906.0
906.0
906.0
906.0
907.0
903.0
901.0
901.0
902.0
903.0
908.0
908.0
913.0
917.0
916.0
919.0
917.0
918.0
920.0
920.0
925.0
926.0
928.0
929.0
927.0
927.0
926.0
927.0
924.0
924.0
923.0
922.0
919.0
916.0
918.0
914.0
911.0
909.0
906.0
902.0
898.0
896.0
894.0
893.0
894.0
894.0
895.0
894.0
892.0
891.0
892.0
891.0
889.0
889.0
890.0
890.0
889.0
889.0
890.0
888.0
887.0
890.0
893.0
893.0
893.0
892.0
893.0
892.0
893.0
894.0
896.0
900.0
902.0
904.0
907.0
909.0
912.0
911.0
916.0
919.0
930.0
948.0
977.0
1020.0
1079.0
1149.0
1216.0
1268.0
1290.0
1263.0
1184.0
1064.0
936.0
836.0
781.0
775.0
804.0
848.0
891.0
919.0
932.0
936.0
927.0
916.0
908.0
904.0
902.0
904.0
907.0
910.0
912.0
914.0
913.0
912.0
909.0
907.0
908.0
909.0
911.0
911.0
911.0
912.0
911.0
913.0
914.0
913.0
914.0
908.0
910.0
909.0
910.0
916.0
915.0
918.0
916.0
917.0
917.0
916.0
916.0
914.0
913.0
917.0
913.0
916.0
916.0
916.0
916.0
917.0
916.0
917.0
912.0
913.0
913.0
915.0
916.0
917.0
919.0
920.0
922.0
921.0
921.0
921.0
919.0
918.0
916.0
918.0
918.0
918.0
919.0
922.0
925.0
925.0
925.0
924.0
923.0
921.0
922.0
923.0
925.0
928.0
931.0
931.0
933.0
932.0
932.0
935.0
935.0
934.0
932.0
930.0
932.0
934.0
937.0
939.0
942.0
942.0
943.0
942.0
941.0
938.0
940.0
940.0
938.0
941.0
943.0
944.0
946.0
945.0
943.0
940.0
941.0
941.0
939.0
938.0
938.0
939.0
939.0
938.0
936.0
936.0
934.0
930.0
925.0
919.0
917.0
913.0
908.0
907.0
906.0
904.0
902.0
898.0
896.0
892.0
890.0
887.0
884.0
886.0
884.0
883.0
883.0
882.0
883.0
884.0
882.0
882.0
881.0
878.0
879.0
877.0
880.0
880.0
881.0
883.0
882.0
882.0
886.0
886.0
885.0
885.0
884.0
883.0
885.0
886.0
888.0
889.0
892.0
892.0
891.0
892.0
891.0
891.0
891.0
890.0
890.0
890.0
893.0
895.0
896.0
894.0
895.0
894.0
892.0
892.0
893.0
891.0
893.0
891.0
891.0
894.0
892.0
892.0
892.0
888.0
889.0
889.0
887.0
887.0
887.0
887.0
889.0
888.0
888.0
888.0
889.0
887.0
886.0
887.0
885.0
884.0
886.0
884.0
886.0
888.0
890.0
887.0
887.0
887.0
884.0
882.0
882.0
885.0
887.0
890.0
893.0
897.0
896.0
899.0
899.0
900.0
903.0
902.0
904.0
906.0
905.0
911.0
909.0
910.0
910.0
907.0
908.0
905.0
906.0
905.0
903.0
906.0
904.0
901.0
901.0
896.0
895.0
893.0
889.0
887.0
885.0
882.0
879.0
880.0
879.0
880.0
883.0
885.0
884.0
881.0
881.0
881.0
880.0
878.0
874.0
874.0
877.0
878.0
880.0
884.0
885.0
882.0
883.0
882.0
878.0
880.0
881.0
882.0
883.0
886.0
890.0
891.0
894.0
896.0
894.0
895.0
897.0
902.0
912.0
930.0
956.0
992.0
1047.0
1110.0
1181.0
1245.0
1292.0
1311.0
1292.0
1232.0
1133.0
1017.0
902.0
812.0
761.0
753.0
778.0
818.0
855.0
885.0
904.0
913.0
910.0
909.0
901.0
897.0
894.0
895.0
895.0
897.0
898.0
898.0
899.0
899.0
900.0
897.0
898.0
899.0
901.0
900.0
903.0
901.0
903.0
900.0
902.0
900.0
900.0
900.0
898.0
901.0
903.0
903.0
904.0
905.0
905.0
904.0
904.0
902.0
900.0
901.0
900.0
903.0
904.0
906.0
908.0
908.0
906.0
906.0
904.0
900.0
903.0
902.0
905.0
906.0
907.0
908.0
911.0
911.0
910.0
908.0
905.0
905.0
906.0
906.0
909.0
910.0
910.0
912.0
913.0
914.0
915.0
913.0
912.0
911.0
910.0
910.0
911.0
913.0
914.0
914.0
917.0
917.0
919.0
918.0
918.0
918.0
918.0
919.0
917.0
920.0
922.0
923.0
925.0
928.0
927.0
928.0
929.0
926.0
