# Simple Text Format
# Sampling Rate (Hz):= 360.00
# Resolution:= 12
# Labels:= ECG
933.0
932.0
932.0
934.0
937.0
936.0
941.0
938.0
939.0
939.0
940.0
936.0
934.0
937.0
938.0
939.0
942.0
945.0
946.0
949.0
949.0
949.0
949.0
948.0
946.0
948.0
948.0
949.0
946.0
950.0
955.0
955.0
954.0
953.0
953.0
953.0
953.0
949.0
948.0
950.0
948.0
952.0
951.0
951.0
951.0
950.0
949.0
948.0
946.0
946.0
948.0
951.0
951.0
951.0
950.0
949.0
946.0
939.0
937.0
935.0
931.0
929.0
925.0
923.0
922.0
920.0
919.0
915.0
914.0
909.0
908.0
906.0
904.0
901.0
900.0
904.0
905.0
906.0
907.0
904.0
903.0
902.0
903.0
902.0
899.0
897.0
898.0
900.0
901.0
904.0
903.0
902.0
903.0
902.0
903.0
903.0
901.0
903.0
903.0
905.0
905.0
908.0
909.0
911.0
911.0
911.0
909.0
908.0
908.0
907.0
907.0
910.0
912.0
912.0
911.0
911.0
912.0
910.0
910.0
909.0
908.0
905.0
906.0
905.0
905.0
907.0
908.0
907.0
908.0
908.0
904.0
903.0
900.0
900.0
901.0
903.0
901.0
900.0
902.0
901.0
903.0
901.0
900.0
898.0
897.0
895.0
898.0
895.0
898.0
901.0
902.0
901.0
903.0
902.0
902.0
900.0
901.0
899.0
903.0
905.0
909.0
910.0
911.0
916.0
916.0
917.0
916.0
919.0
919.0
923.0
925.0
928.0
930.0
930.0
929.0
927.0
925.0
926.0
925.0
926.0
923.0
927.0
924.0
927.0
925.0
925.0
921.0
919.0
914.0
907.0
903.0
898.0
897.0
897.0
898.0
898.0
899.0
901.0
902.0
901.0
900.0
896.0
896.0
895.0
895.0
894.0
895.0
895.0
896.0
896.0
898.0
900.0
898.0
895.0
897.0
894.0
894.0
895.0
898.0
899.0
900.0
903.0
902.0
905.0
908.0
908.0
910.0
911.0
913.0
916.0
919.0
932.0
949.0
975.0
1015.0
1067.0
1136.0
1215.0
1294.0
1357.0
1394.0
1386.0
1324.0
1215.0
1087.0
959.0
831.0
749.0
742.0
778.0
831.0
881.0
921.0
943.0
950.0
949.0
943.0
936.0
932.0
929.0
928.0
927.0
927.0
928.0
926.0
927.0
929.0
932.0
934.0
933.0
936.0
933.0
936.0
936.0
937.0
935.0
931.0
935.0
932.0
933.0
936.0
934.0
937.0
940.0
940.0
939.0
937.0
939.0
938.0
937.0
936.0
938.0
942.0
942.0
945.0
947.0
945.0
945.0
944.0
942.0
942.0
942.0
943.0
945.0
943.0
946.0
948.0
950.0
952.0
951.0
949.0
947.0
946.0
949.0
950.0
951.0
953.0
953.0
955.0
957.0
958.0
957.0
958.0
957.0
957.0
956.0
958.0
958.0
963.0
965.0
967.0
968.0
968.0
967.0
968.0
970.0
969.0
970.0
969.0
970.0
974.0
977.0
981.0
982.0
982.0
982.0
981.0
980.0
980.0
980.0
981.0
984.0
985.0
986.0
984.0
987.0
986.0
986.0
986.0
983.0
985.0
983.0
986.0
986.0
986.0
985.0
985.0
985.0
979.0
975.0
970.0
965.0
964.0
958.0
956.0
953.0
951.0
951.0
948.0
946.0
944.0
941.0
938.0
936.0
933.0
929.0
931.0
929.0
928.0
930.0
931.0
929.0
928.0
928.0
928.0
926.0
924.0
923.0
925.0
923.0
924.0
928.0
932.0
931.0
931.0
930.0
931.0
931.0
930.0
931.0
929.0
932.0
935.0
937.0
939.0
941.0
942.0
941.0
938.0
940.0
940.0
939.0
940.0
940.0
942.0
942.0
943.0
945.0
946.0
944.0
942.0
941.0
941.0
940.0
938.0
939.0
941.0
941.0
942.0
940.0
941.0
941.0
937.0
939.0
935.0
934.0
934.0
936.0
936.0
935.0
940.0
940.0
936.0
938.0
936.0
935.0
930.0
931.0
931.0
930.0
934.0
935.0
935.0
936.0
935.0
936.0
935.0
933.0
931.0
933.0
931.0
932.0
934.0
934.0
934.0
936.0
937.0
935.0
933.0
933.0
931.0
932.0
932.0
930.0
932.0
933.0
934.0
936.0
936.0
935.0
936.0
935.0
938.0
941.0
942.0
946.0
947.0
950.0
954.0
956.0
955.0
959.0
961.0
960.0
961.0
963.0
961.0
961.0
960.0
961.0
963.0
963.0
963.0
965.0
962.0
962.0
959.0
955.0
952.0
950.0
951.0
946.0
947.0
943.0
938.0
935.0
932.0
927.0
928.0
930.0
928.0
927.0
930.0
930.0
931.0
930.0
930.0
925.0
927.0
925.0
923.0
920.0
920.0
923.0
924.0
924.0
927.0
928.0
927.0
923.0
925.0
925.0
924.0
925.0
925.0
929.0
932.0
933.0
935.0
936.0
937.0
938.0
939.0
939.0
941.0
946.0
960.0
984.0
1022.0
1066.0
1130.0
1205.0
1283.0
1350.0
1392.0
1398.0
1357.0
1264.0
1143.0
1015.0
887.0
791.0
758.0
772.0
813.0
867.0
912.0
943.0
960.0
965.0
963.0
956.0
950.0
947.0
943.0
943.0
942.0
942.0
944.0
943.0
942.0
938.0
941.0
944.0
944.0
945.0
949.0
950.0
949.0
948.0
946.0
946.0
944.0
945.0
942.0
942.0
941.0
943.0
947.0
949.0
945.0
942.0
940.0
940.0
939.0
939.0
944.0
945.0
947.0
946.0
947.0
948.0
946.0
948.0
947.0
947.0
943.0
944.0
944.0
944.0
945.0
946.0
950.0
947.0
949.0
949.0
949.0
948.0
947.0
944.0
946.0
948.0
947.0
949.0
950.0
952.0
950.0
950.0
950.0
950.0
949.0
947.0
948.0
950.0
951.0
951.0
952.0
955.0
954.0
954.0
951.0
950.0
949.0
950.0
952.0
950.0
955.0
958.0
959.0
960.0
961.0
961.0
959.0
959.0
957.0
957.0
958.0
961.0
963.0
963.0
964.0
968.0
967.0
965.0
965.0
963.0
962.0
962.0
961.0
962.0
962.0
963.0
966.0
967.0
964.0
963.0
960.0
962.0
957.0
954.0
955.0
952.0
954.0
951.0
948.0
947.0
944.0
939.0
933.0
932.0
929.0
923.0
920.0
921.0
918.0
917.0
918.0
916.0
914.0
913.0
908.0
909.0
906.0
906.0
904.0
907.0
902.0
903.0
905.0
907.0
906.0
903.0
902.0
902.0
899.0
898.0
900.0
900.0
902.0
902.0
904.0
906.0
906.0
905.0
905.0
902.0
898.0
898.0
905.0
903.0
906.0
905.0
910.0
908.0
910.0
909.0
909.0
908.0
906.0
908.0
907.0
910.0
911.0
913.0
912.0
913.0
913.0
910.0
908.0
907.0
905.0
905.0
905.0
905.0
906.0
907.0
907.0
907.0
907.0
907.0
905.0
905.0
901.0
898.0
900.0
899.0
902.0
903.0
902.0
902.0
900.0
897.0
897.0
896.0
894.0
897.0
895.0
896.0
897.0
895.0
896.0
897.0
896.0
898.0
896.0
894.0
893.0
892.0
890.0
891.0
892.0
895.0
894.0
896.0
894.0
895.0
893.0
890.0
891.0
890.0
888.0
891.0
889.0
893.0
890.0
894.0
894.0
892.0
891.0
890.0
889.0
888.0
888.0
888.0
889.0
891.0
892.0
893.0
891.0
891.0
889.0
889.0
886.0
887.0
885.0
886.0
888.0
890.0
891.0
893.0
893.0
897.0
899.0
901.0
902.0
903.0
904.0
907.0
909.0
911.0
915.0
915.0
917.0
917.0
917.0
914.0
916.0
913.0
910.0
911.0
911.0
913.0
915.0
916.0
915.0
912.0
912.0
909.0
904.0
901.0
897.0
895.0
891.0
888.0
888.0
889.0
885.0
882.0
882.0
883.0
881.0
879.0
877.0
878.0
879.0
880.0
879.0
879.0
881.0
881.0
880.0
878.0
876.0
877.0
877.0
874.0
877.0
876.0
880.0
882.0
880.0
881.0
880.0
880.0
877.0
878.0
879.0
881.0
883.0
883.0
888.0
890.0
891.0
892.0
891.0
903.0
917.0
948.0
993.0
1053.0
1128.0
1214.0
1291.0
1344.0
1353.0
1314.0
1215.0
1087.0
959.0
831.0
726.0
701.0
725.0
776.0
829.0
875.0
905.0
915.0
916.0
908.0
900.0
894.0
888.0
886.0
890.0
892.0
892.0
894.0
897.0
898.0
895.0
892.0
891.0
890.0
891.0
889.0
892.0
894.0
897.0
898.0
897.0
897.0
896.0
894.0
892.0
892.0
890.0
891.0
891.0
892.0
893.0
894.0
896.0
896.0
896.0
897.0
895.0
892.0
894.0
893.0
896.0
895.0
896.0
896.0
896.0
896.0
895.0
894.0
895.0
894.0
895.0
896.0
894.0
896.0
897.0
900.0
901.0
898.0
899.0
899.0
901.0
896.0
896.0
895.0
898.0
903.0
901.0
899.0
899.0
903.0
900.0
900.0
901.0
902.0
903.0
905.0
903.0
905.0
908.0
908.0
910.0
910.0
910.0
909.0
906.0
906.0
907.0
909.0
911.0
911.0
913.0
912.0
912.0
913.0
914.0
911.0
909.0
912.0
913.0
913.0
913.0
914.0
914.0
917.0
916.0
916.0
914.0
913.0
912.0
913.0
912.0
914.0
913.0
917.0
917.0
917.0
915.0
908.0
906.0
902.0
899.0
894.0
891.0
890.0
888.0
887.0
883.0
884.0
881.0
878.0
873.0
872.0
869.0
868.0
868.0
866.0
867.0
864.0
864.0
868.0
865.0
865.0
862.0
862.0
857.0
858.0
860.0
862.0
863.0
863.0
865.0
865.0
867.0
866.0
866.0
864.0
863.0
863.0
864.0
864.0
867.0
865.0
866.0
868.0
867.0
868.0
871.0
871.0
868.0
866.0
868.0
868.0
867.0
871.0
871.0
873.0
872.0
871.0
870.0
868.0
866.0
864.0
864.0
864.0
866.0
873.0
870.0
873.0
870.0
870.0
867.0
866.0
865.0
863.0
864.0
864.0
864.0
864.0
865.0
867.0
866.0
862.0
862.0
861.0
860.0
860.0
861.0
861.0
863.0
864.0
863.0
864.0
863.0
860.0
859.0
857.0
858.0
856.0
857.0
855.0
855.0
857.0
858.0
859.0
862.0
860.0
858.0
857.0
854.0
853.0
856.0
855.0
856.0
859.0
858.0
861.0
866.0
870.0
868.0
870.0
871.0
870.0
871.0
873.0
879.0
881.0
885.0
890.0
893.0
894.0
890.0
889.0
887.0
885.0
884.0
886.0
886.0
885.0
886.0
888.0
885.0
883.0
879.0
877.0
870.0
865.0
862.0
860.0
859.0
858.0
856.0
858.0
858.0
858.0
856.0
854.0
852.0
852.0
849.0
846.0
853.0
852.0
853.0
855.0
852.0
854.0
854.0
853.0
849.0
847.0
850.0
851.0
851.0
854.0
856.0
857.0
859.0
858.0
856.0
856.0
859.0
860.0
861.0
863.0
866.0
869.0
871.0
876.0
885.0
902.0
928.0
967.0
1023.0
1097.0
1182.0
1262.0
1316.0
1337.0
1299.0
1204.0
1076.0
948.0
820.0
705.0
685.0
715.0
770.0
825.0
866.0
890.0
901.0
900.0
888.0
879.0
875.0
873.0
870.0
869.0
872.0
871.0
877.0
878.0
881.0
879.0
880.0
882.0
881.0
878.0
875.0
876.0
875.0
876.0
878.0
879.0
877.0
880.0
880.0
882.0
881.0
881.0
882.0
882.0
881.0
879.0
882.0
881.0
882.0
885.0
886.0
884.0
884.0
883.0
880.0
881.0
881.0
880.0
882.0
883.0
884.0
886.0
887.0
885.0
885.0
884.0
883.0
881.0
881.0
882.0
882.0
886.0
887.0
890.0
889.0
888.0
888.0
887.0
885.0
886.0
886.0
887.0
890.0
892.0
897.0
897.0
898.0
897.0
897.0
896.0
895.0
894.0
896.0
898.0
898.0
901.0
902.0
902.0
904.0
905.0
906.0
906.0
905.0
905.0
901.0
901.0
901.0
902.0
903.0
906.0
907.0
908.0
905.0
904.0
904.0
902.0
900.0
902.0
903.0
904.0
906.0
909.0
910.0
908.0
906.0
905.0
899.0
897.0
894.0
893.0
890.0
888.0
886.0
884.0
883.0
879.0
876.0
872.0
869.0
867.0
865.0
864.0
864.0
863.0
863.0
864.0
861.0
861.0
862.0
857.0
855.0
855.0
854.0
854.0
855.0
857.0
859.0
860.0
860.0
860.0
861.0
860.0
858.0
857.0
858.0
858.0
861.0
861.0
861.0
863.0
863.0
865.0
866.0
866.0
866.0
864.0
866.0
867.0
868.0
868.0
870.0
870.0
872.0
871.0
869.0
867.0
868.0
866.0
868.0
866.0
869.0
867.0
868.0
867.0
867.0
866.0
865.0
864.0
864.0
863.0
860.0
860.0
858.0
859.0
862.0
863.0
862.0
862.0
859.0
859.0
858.0
857.0
858.0
857.0
858.0
859.0
857.0
861.0
860.0
857.0
854.0
858.0
857.0
860.0
860.0
864.0
865.0
871.0
873.0
876.0
878.0
882.0
880.0
880.0
881.0
883.0
885.0
888.0
888.0
888.0
889.0
890.0
891.0
890.0
888.0
889.0
885.0
885.0
882.0
880.0
877.0
877.0
873.0
872.0
868.0
864.0
862.0
859.0
857.0
854.0
855.0
856.0
857.0
858.0
858.0
858.0
859.0
857.0
855.0
851.0
851.0
849.0
852.0
851.0
852.0
850.0
853.0
855.0
853.0
856.0
854.0
857.0
854.0
854.0
852.0
854.0
857.0
862.0
864.0
866.0
867.0
868.0
870.0
876.0
886.0
908.0
940.0
998.0
1074.0
1163.0
1253.0
1326.0
1353.0
1326.0
1240.0
1112.0
984.0
856.0
728.0
686.0
707.0
757.0
816.0
863.0
892.0
905.0
903.0
896.0
887.0
878.0
873.0
874.0
874.0
877.0
877.0
884.0
884.0
882.0
883.0
881.0
879.0
880.0
880.0
881.0
882.0
885.0
885.0
885.0
887.0
887.0
886.0
884.0
883.0
883.0
882.0
884.0
884.0
886.0
887.0
886.0
886.0
885.0
887.0
887.0
887.0
886.0
883.0
884.0
887.0
888.0
889.0
890.0
890.0
891.0
890.0
889.0
889.0
887.0
886.0
889.0
889.0
891.0
891.0
893.0
893.0
894.0
896.0
895.0
893.0
894.0
892.0
891.0
893.0
896.0
895.0
899.0
900.0
900.0
901.0
902.0
903.0
901.0
901.0
902.0
904.0
902.0
903.0
910.0
910.0
910.0
911.0
911.0
910.0
912.0
909.0
913.0
915.0
917.0
920.0
921.0
922.0
923.0
922.0
922.0
922.0
920.0
920.0
921.0
922.0
923.0
923.0
925.0
924.0
924.0
921.0
922.0
920.0
921.0
921.0
922.0
921.0
923.0
920.0
919.0
913.0
907.0
905.0
900.0
897.0
894.0
891.0
884.0
886.0
887.0
884.0
882.0
880.0
877.0
875.0
872.0
871.0
865.0
862.0
861.0
864.0
864.0
863.0
866.0
865.0
864.0
863.0
863.0
862.0
863.0
861.0
858.0
861.0
864.0
863.0
866.0
866.0
865.0
867.0
865.0
866.0
866.0
864.0
864.0
866.0
868.0
870.0
871.0
871.0
875.0
876.0
875.0
875.0
875.0
875.0
876.0
881.0
880.0
882.0
884.0
885.0
883.0
884.0
883.0
883.0
878.0
877.0
879.0
879.0
880.0
880.0
880.0
881.0
881.0
881.0
878.0
879.0
876.0
876.0
876.0
874.0
878.0
878.0
879.0
881.0
880.0
879.0
876.0
875.0
874.0
875.0
875.0
873.0
877.0
876.0
878.0
880.0
877.0
876.0
877.0
873.0
873.0
872.0
871.0
872.0
874.0
874.0
876.0
877.0
874.0
878.0
876.0
875.0
875.0
873.0
873.0
873.0
873.0
875.0
875.0
876.0
879.0
876.0
874.0
872.0
872.0
872.0
873.0
873.0
875.0
875.0
877.0
877.0
877.0
877.0
874.0
875.0
874.0
873.0
874.0
872.0
877.0
878.0
880.0
882.0
883.0
887.0
887.0
889.0
890.0
891.0
896.0
897.0
901.0
904.0
906.0
911.0
910.0
912.0
909.0
906.0
904.0
902.0
903.0
903.0
904.0
907.0
906.0
906.0
904.0
902.0
896.0
893.0
888.0
885.0
882.0
880.0
881.0
880.0
884.0
883.0
883.0
883.0
882.0
880.0
876.0
873.0
875.0
876.0
877.0
878.0
881.0
882.0
880.0
877.0
877.0
878.0
875.0
874.0
876.0
875.0
878.0
879.0
884.0
885.0
886.0
887.0
887.0
887.0
888.0
888.0
891.0
891.0
898.0
908.0
930.0
964.0
1010.0
1076.0
1158.0
1243.0
1318.0
1368.0
1371.0
1318.0
1213.0
1085.0
957.0
829.0
732.0
721.0
753.0
805.0
858.0
899.0
921.0
928.0
923.0
915.0
908.0
901.0
898.0
896.0
895.0
899.0
901.0
901.0
901.0
902.0
902.0
903.0
904.0
902.0
905.0
904.0
905.0
905.0
901.0
901.0
900.0
900.0
905.0
906.0
908.0
911.0
910.0
911.0
910.0
908.0
906.0
905.0
907.0
906.0
909.0
909.0
912.0
914.0
913.0
913.0
912.0
909.0
910.0
908.0
909.0
908.0
911.0
914.0
911.0
913.0
916.0
917.0
916.0
916.0
913.0
913.0
914.0
913.0
917.0
916.0
919.0
921.0
920.0
920.0
917.0
919.0
917.0
918.0
918.0
920.0
922.0
924.0
924.0
926.0
926.0
929.0
927.0
926.0
927.0
927.0
928.0
928.0
929.0
932.0
935.0
936.0
936.0
937.0
937.0
936.0
936.0
937.0
937.0
938.0
941.0
943.0
944.0
944.0
945.0
945.0
944.0
944.0
943.0
941.0
942.0
944.0
944.0
946.0
946.0
948.0
949.0
947.0
946.0
949.0
947.0
949.0
950.0
949.0
949.0
952.0
950.0
952.0
949.0
947.0
944.0
940.0
936.0
933.0
929.0
928.0
926.0
925.0
925.0
926.0
923.0
922.0
919.0
918.0
914.0
913.0
914.0
915.0
913.0
913.0
917.0
918.0
915.0
916.0
915.0
913.0
913.0
912.0
914.0
913.0
916.0
917.0
919.0
920.0
921.0
923.0
922.0
921.0
918.0
921.0
922.0
921.0
923.0
927.0
929.0
931.0
929.0
932.0
930.0
931.0
930.0
930.0
928.0
931.0
932.0
934.0
936.0
936.0
939.0
939.0
939.0
938.0
936.0
934.0
931.0
932.0
935.0
937.0
938.0
941.0
939.0
939.0
939.0
937.0
937.0
935.0
935.0
936.0
938.0
939.0
942.0
942.0
941.0
941.0
941.0
939.0
937.0
938.0
939.0
937.0
940.0
941.0
943.0
943.0
944.0
944.0
941.0
943.0
940.0
941.0
941.0
941.0
940.0
944.0
946.0
948.0
944.0
945.0
946.0
946.0
944.0
943.0
944.0
944.0
945.0
946.0
949.0
951.0
952.0
951.0
949.0
952.0
949.0
948.0
948.0
950.0
953.0
952.0
952.0
957.0
955.0
956.0
953.0
955.0
951.0
952.0
952.0
952.0
955.0
956.0
959.0
958.0
958.0
958.0
956.0
954.0
957.0
959.0
957.0
956.0
961.0
962.0
964.0
966.0
965.0
967.0
968.0
969.0
973.0
974.0
977.0
979.0
983.0
986.0
990.0
991.0
993.0
994.0
996.0
994.0
994.0
994.0
994.0
993.0
992.0
995.0
996.0
999.0
1000.0
1000.0
999.0
997.0
995.0
991.0
992.0
989.0
986.0
981.0
982.0
983.0
981.0
979.0
975.0
975.0
971.0
971.0
973.0
973.0
975.0
974.0
974.0
977.0
977.0
976.0
974.0
975.0
973.0
970.0
971.0
970.0
972.0
973.0
973.0
976.0
975.0
978.0
976.0
975.0
975.0
975.0
977.0
977.0
981.0
983.0
986.0
988.0
990.0
988.0
990.0
991.0
995.0
1003.0
1020.0
1049.0
1093.0
1152.0
1226.0
1308.0
1380.0
1429.0
1440.0
1402.0
1313.0
1188.0
1060.0
932.0
845.0
813.0
828.0
873.0
923.0
968.0
997.0
1013.0
1018.0
1017.0
1012.0
1006.0
1006.0
1004.0
1005.0
1004.0
1007.0
1007.0
1007.0
1005.0
1006.0
1004.0
1005.0
1010.0
1009.0
1010.0
1012.0
1013.0
1013.0
1013.0
1013.0
1010.0
1011.0
1010.0
1010.0
1010.0
1007.0
1010.0
1012.0
1013.0
1013.0
1013.0
1012.0
1010.0
1010.0
1006.0
1008.0
1011.0
1012.0
1011.0
1013.0
1014.0
1015.0
1014.0
1014.0
1013.0
1012.0
1013.0
1014.0
1011.0
1016.0
1016.0
1018.0
1020.0
1019.0
1018.0
1018.0
1017.0
1015.0
1016.0
1015.0
1016.0
1017.0
1017.0
1018.0
1020.0
1020.0
1021.0
1020.0
1023.0
1022.0
1021.0
1020.0
1018.0
1019.0
1022.0
1024.0
1024.0
1026.0
1027.0
1025.0
1025.0
1023.0
1023.0
1026.0
1026.0
1025.0
1024.0
1030.0
1030.0
1031.0
1033.0
1029.0
1030.0
1031.0
1028.0
1027.0
1031.0
1031.0
1031.0
1031.0
1036.0
1034.0
1031.0
1032.0
1030.0
1027.0
1027.0
1026.0
1027.0
1028.0
1030.0
1030.0
1032.0
1031.0
1032.0
1032.0
1033.0
1030.0
1032.0
1028.0
1028.0
1029.0
1027.0
1027.0
1027.0
1025.0
1026.0
1022.0
1016.0
1014.0
1011.0
1008.0
1004.0
1004.0
1000.0
999.0
999.0
997.0
997.0
995.0
995.0
989.0
988.0
987.0
987.0
986.0
988.0
987.0
987.0
989.0
989.0
986.0
986.0
984.0
983.0
984.0
983.0
983.0
985.0
985.0
990.0
987.0
991.0
990.0
989.0
988.0
987.0
987.0
987.0
988.0
988.0
990.0
991.0
992.0
991.0
994.0
993.0
992.0
993.0
990.0
991.0
991.0
993.0
994.0
996.0
995.0
995.0
992.0
991.0
991.0
989.0
987.0
986.0
988.0
988.0
989.0
989.0
989.0
988.0
987.0
984.0
982.0
981.0
979.0
979.0
979.0
979.0
982.0
982.0
983.0
982.0
979.0
977.0
975.0
973.0
973.0
974.0
974.0
976.0
976.0
977.0
976.0
977.0
973.0
971.0
971.0
968.0
970.0
970.0
974.0
975.0
974.0
978.0
981.0
981.0
980.0
982.0
983.0
983.0
981.0
983.0
987.0
991.0
994.0
998.0
1001.0
1000.0
1001.0
1000.0
995.0
995.0
995.0
993.0
996.0
993.0
994.0
997.0
1000.0
999.0
997.0
993.0
989.0
983.0
978.0
975.0
971.0
967.0
967.0
968.0
968.0
968.0
965.0
964.0
960.0
960.0
958.0
958.0
958.0
958.0
959.0
961.0
962.0
961.0
959.0
957.0
956.0
956.0
953.0
955.0
954.0
958.0
961.0
960.0
960.0
961.0
959.0
960.0
960.0
961.0
961.0
965.0
967.0
965.0
970.0
974.0
978.0
989.0
1009.0
1038.0
1082.0
1138.0
1210.0
1285.0
1354.0
1407.0
1425.0
1402.0
1330.0
1218.0
1090.0
962.0
839.0
787.0
785.0
822.0
877.0
927.0
963.0
983.0
989.0
990.0
984.0
975.0
970.0
968.0
966.0
964.0
965.0
967.0
971.0
971.0
971.0
973.0
972.0
969.0
968.0
970.0
965.0
966.0
967.0
970.0
971.0
973.0
973.0
974.0
973.0
970.0
970.0
970.0
968.0
970.0
970.0
971.0
972.0
974.0
971.0
971.0
969.0
971.0
971.0
968.0
968.0
969.0
968.0
968.0
970.0
972.0
972.0
971.0
972.0
971.0
968.0
969.0
967.0
968.0
964.0
967.0
970.0
968.0
972.0
969.0
969.0
969.0
968.0
969.0
966.0
967.0
968.0
971.0
971.0
975.0
974.0
976.0
974.0
973.0
972.0
972.0
970.0
971.0
974.0
975.0
975.0
981.0
982.0
981.0
979.0
978.0
978.0
979.0
978.0
978.0
977.0
978.0
981.0
982.0
983.0
982.0
981.0
980.0
979.0
979.0
977.0
978.0
978.0
978.0
977.0
977.0
978.0
975.0
976.0
973.0
973.0
970.0
973.0
970.0
971.0
970.0
970.0
968.0
968.0
965.0
962.0
957.0
953.0
950.0
946.0
945.0
941.0
941.0
940.0
938.0
936.0
932.0
928.0
925.0
922.0
923.0
921.0
921.0
919.0
920.0
920.0
921.0
922.0
921.0
920.0
917.0
917.0
918.0
917.0
916.0
916.0
917.0
919.0
918.0
920.0
922.0
921.0
919.0
919.0
917.0
916.0
918.0
919.0
921.0
924.0
926.0
925.0
925.0
923.0
924.0
922.0
920.0
921.0
921.0
923.0
925.0
927.0
925.0
925.0
923.0
922.0
921.0
918.0
918.0
918.0
918.0
918.0
919.0
918.0
918.0
919.0
919.0
917.0
915.0
912.0
913.0
906.0
909.0
911.0
911.0
910.0
913.0
912.0
913.0
912.0
909.0
907.0
907.0
905.0
906.0
903.0
904.0
904.0
906.0
906.0
904.0
902.0
904.0
904.0
902.0
902.0
902.0
902.0
902.0
901.0
905.0
904.0
904.0
903.0
902.0
900.0
901.0
898.0
897.0
898.0
899.0
900.0
898.0
900.0
897.0
898.0
899.0
897.0
894.0
896.0
897.0
898.0
902.0
903.0
909.0
912.0
915.0
915.0
917.0
918.0
919.0
918.0
917.0
922.0
925.0
929.0
928.0
929.0
928.0
926.0
924.0
921.0
922.0
923.0
922.0
922.0
922.0
922.0
920.0
918.0
914.0
908.0
903.0
899.0
893.0
890.0
891.0
890.0
891.0
893.0
892.0
892.0
891.0
893.0
888.0
886.0
886.0
885.0
883.0
885.0
885.0
886.0
891.0
888.0
887.0
885.0
888.0
885.0
884.0
885.0
886.0
888.0
891.0
892.0
895.0
896.0
896.0
900.0
900.0
900.0
904.0
912.0
923.0
945.0
979.0
1024.0
1088.0
1162.0
1244.0
1318.0
1368.0
1377.0
1339.0
1251.0
1123.0
995.0
867.0
745.0
713.0
727.0
772.0
827.0
873.0
904.0
919.0
921.0
917.0
911.0
908.0
903.0
903.0
903.0
903.0
902.0
903.0
902.0
903.0
901.0
899.0
902.0
903.0
906.0
905.0
906.0
907.0
907.0
906.0
906.0
903.0
904.0
903.0
902.0
901.0
905.0
907.0
908.0
906.0
906.0
905.0
905.0
903.0
902.0
903.0
903.0
903.0
904.0
907.0
907.0
906.0
907.0
905.0
902.0
901.0
904.0
905.0
903.0
904.0
906.0
906.0
909.0
905.0
903.0
907.0
905.0
904.0
902.0
905.0
906.0
909.0
908.0
909.0
912.0
911.0
912.0
910.0
908.0
909.0
909.0
907.0
910.0
912.0
910.0
914.0
917.0
916.0
915.0
914.0
914.0
914.0
915.0
916.0
916.0
918.0
919.0
924.0
925.0
924.0
925.0
923.0
924.0
923.0
920.0
921.0
924.0
927.0
929.0
928.0
929.0
929.0
929.0
930.0
928.0
926.0
926.0
926.0
928.0
928.0
928.0
931.0
931.0
930.0
928.0
927.0
926.0
923.0
919.0
919.0
914.0
914.0
912.0
911.0
911.0
904.0
901.0
895.0
893.0
889.0
888.0
885.0
881.0
882.0
881.0
880.0
881.0
880.0
877.0
876.0
872.0
873.0
871.0
871.0
870.0
871.0
874.0
873.0
875.0
872.0
873.0
872.0
870.0
869.0
866.0
866.0
867.0
869.0
869.0
873.0
873.0
875.0
873.0
873.0
874.0
873.0
875.0
873.0
873.0
878.0
877.0
880.0
882.0
881.0
881.0
878.0
880.0
877.0
878.0
877.0
880.0
880.0
880.0
882.0
883.0
884.0
880.0
879.0
880.0
879.0
878.0
875.0
876.0
878.0
876.0
878.0
880.0
877.0
879.0
875.0
874.0
872.0
867.0
870.0
872.0
874.0
875.0
876.0
876.0
875.0
873.0
869.0
869.0
866.0
866.0
865.0
866.0
866.0
869.0
870.0
870.0
870.0
871.0
870.0
867.0
867.0
866.0
867.0
866.0
866.0
866.0
867.0
867.0
868.0
870.0
868.0
866.0
866.0
866.0
867.0
866.0
867.0
870.0
868.0
871.0
870.0
869.0
869.0
868.0
867.0
865.0
863.0
866.0
867.0
866.0
867.0
870.0
866.0
866.0
866.0
866.0
865.0
865.0
865.0
864.0
867.0
867.0
868.0
870.0
865.0
869.0
867.0
866.0
867.0
867.0
864.0
866.0
870.0
872.0
875.0
877.0
878.0
881.0
880.0
883.0
881.0
882.0
884.0
884.0
892.0
893.0
895.0
899.0
901.0
899.0
896.0
895.0
892.0
888.0
890.0
890.0
891.0
893.0
895.0
896.0
894.0
894.0
890.0
885.0
883.0
878.0
872.0
871.0
872.0
872.0
871.0
871.0
873.0
871.0
870.0
869.0
867.0
864.0
861.0
861.0
863.0
867.0
866.0
867.0
868.0
867.0
864.0
865.0
863.0
863.0
863.0
863.0
865.0
867.0
867.0
872.0
872.0
873.0
872.0
873.0
873.0
873.0
874.0
874.0
877.0
878.0
883.0
892.0
901.0
919.0
947.0
987.0
1035.0
1097.0
1171.0
1246.0
1311.0
1352.0
1358.0
1316.0
1228.0
1102.0
974.0
846.0
739.0
700.0
708.0
749.0
803.0
845.0
880.0
898.0
903.0
903.0
896.0
888.0
885.0
879.0
879.0
879.0
884.0
887.0
888.0
890.0
888.0
886.0
885.0
885.0
885.0
884.0
887.0
886.0
888.0
887.0
890.0
892.0
888.0
890.0
891.0
890.0
890.0
889.0
887.0
888.0
888.0
891.0
891.0
893.0
891.0
893.0
892.0
891.0
890.0
887.0
890.0
890.0
890.0
891.0
895.0
895.0
896.0
894.0
893.0
891.0
890.0
890.0
890.0
893.0
892.0
894.0
895.0
895.0
895.0
897.0
895.0
895.0
895.0
893.0
892.0
894.0
895.0
897.0
898.0
901.0
901.0
901.0
901.0
900.0
899.0
897.0
898.0
898.0
899.0
900.0
900.0
903.0
905.0
904.0
902.0
902.0
904.0
897.0
901.0
903.0
907.0
907.0
910.0
910.0
909.0
912.0
910.0
910.0
908.0
907.0
907.0
909.0
911.0
911.0
910.0
913.0
911.0
909.0
909.0
907.0
907.0
908.0
907.0
906.0
910.0
910.0
912.0
915.0
915.0
917.0
915.0
910.0
912.0
909.0
907.0
904.0
901.0
901.0
899.0
899.0
897.0
895.0
890.0
889.0
885.0
881.0
880.0
877.0
877.0
878.0
877.0
878.0
876.0
877.0
874.0
873.0
870.0
869.0
868.0
868.0
871.0
870.0
872.0
876.0
875.0
875.0
876.0
873.0
871.0
869.0
871.0
873.0
874.0
875.0
875.0
877.0
878.0
880.0
878.0
876.0
872.0
877.0
875.0
878.0
879.0
879.0
882.0
885.0
884.0
885.0
882.0
883.0
882.0
880.0
879.0
880.0
880.0
880.0
882.0
884.0
884.0
883.0
882.0
881.0
880.0
878.0
879.0
877.0
876.0
878.0
879.0
880.0
881.0
877.0
875.0
874.0
873.0
872.0
872.0
872.0
874.0
874.0
875.0
876.0
876.0
874.0
