# Simple Text Format
# Sampling Rate (Hz):= 360.00
# Resolution:= 12
# Labels:= ECG
889.0
888.0
890.0
889.0
887.0
887.0
888.0
886.0
887.0
884.0
884.0
881.0
885.0
887.0
889.0
888.0
887.0
889.0
889.0
891.0
892.0
891.0
891.0
893.0
894.0
896.0
902.0
903.0
906.0
910.0
915.0
929.0
951.0
990.0
1047.0
1128.0
1223.0
1305.0
1365.0
1381.0
1333.0
1229.0
1101.0
973.0
845.0
737.0
728.0
760.0
817.0
873.0
914.0
941.0
946.0
941.0
932.0
920.0
912.0
907.0
907.0
910.0
911.0
915.0
919.0
921.0
919.0
918.0
918.0
917.0
915.0
913.0
914.0
916.0
918.0
920.0
920.0
920.0
921.0
921.0
920.0
917.0
917.0
918.0
919.0
917.0
919.0
921.0
920.0
923.0
923.0
923.0
923.0
921.0
921.0
921.0
921.0
922.0
925.0
926.0
926.0
927.0
925.0
928.0
926.0
926.0
924.0
925.0
924.0
924.0
927.0
927.0
929.0
931.0
929.0
932.0
933.0
931.0
930.0
931.0
930.0
931.0
933.0
935.0
935.0
938.0
940.0
938.0
937.0
939.0
937.0
938.0
939.0
939.0
943.0
942.0
945.0
946.0
948.0
952.0
947.0
946.0
944.0
945.0
949.0
950.0
951.0
952.0
955.0
958.0
956.0
955.0
953.0
955.0
957.0
955.0
955.0
956.0
957.0
957.0
960.0
962.0
960.0
962.0
961.0
960.0
957.0
955.0
957.0
958.0
957.0
958.0
956.0
955.0
953.0
952.0
947.0
941.0
938.0
932.0
931.0
928.0
926.0
922.0
919.0
918.0
913.0
910.0
907.0
904.0
903.0
899.0
898.0
898.0
898.0
896.0
898.0
898.0
898.0
899.0
899.0
894.0
892.0
894.0
895.0
894.0
895.0
896.0
898.0
903.0
901.0
902.0
903.0
902.0
900.0
899.0
898.0
898.0
902.0
904.0
906.0
909.0
910.0
909.0
909.0
908.0
904.0
905.0
905.0
910.0
909.0
913.0
911.0
915.0
914.0
915.0
910.0
911.0
909.0
908.0
911.0
910.0
910.0
913.0
914.0
913.0
912.0
912.0
911.0
907.0
909.0
906.0
906.0
906.0
905.0
908.0
908.0
909.0
910.0
908.0
909.0
905.0
903.0
903.0
901.0
900.0
904.0
904.0
904.0
903.0
906.0
906.0
903.0
901.0
901.0
900.0
900.0
899.0
903.0
902.0
905.0
906.0
907.0
904.0
904.0
902.0
898.0
899.0
899.0
904.0
903.0
905.0
906.0
907.0
906.0
906.0
906.0
905.0
903.0
902.0
903.0
903.0
905.0
904.0
907.0
911.0
911.0
912.0
913.0
914.0
915.0
917.0
919.0
920.0
924.0
926.0
927.0
934.0
934.0
935.0
935.0
937.0
936.0
934.0
932.0
932.0
932.0
935.0
937.0
936.0
939.0
937.0
932.0
931.0
929.0
922.0
919.0
913.0
910.0
910.0
907.0
908.0
907.0
907.0
907.0
905.0
905.0
901.0
902.0
900.0
903.0
903.0
904.0
906.0
907.0
905.0
906.0
905.0
903.0
903.0
903.0
904.0
902.0
903.0
908.0
911.0
910.0
908.0
911.0
912.0
914.0
915.0
914.0
917.0
921.0
932.0
946.0
971.0
1011.0
1061.0
1126.0
1202.0
1278.0
1341.0
1383.0
1385.0
1342.0
1255.0
1133.0
1005.0
877.0
783.0
746.0
756.0
798.0
851.0
897.0
931.0
951.0
957.0
953.0
945.0
937.0
928.0
927.0
927.0
927.0
927.0
928.0
930.0
931.0
932.0
933.0
936.0
936.0
933.0
934.0
934.0
935.0
931.0
932.0
932.0
935.0
938.0
938.0
941.0
940.0
941.0
939.0
936.0
936.0
937.0
937.0
937.0
937.0
939.0
942.0
943.0
942.0
944.0
942.0
939.0
941.0
940.0
939.0
938.0
941.0
942.0
943.0
944.0
944.0
947.0
945.0
946.0
945.0
945.0
946.0
943.0
945.0
947.0
951.0
952.0
951.0
952.0
951.0
952.0
950.0
952.0
951.0
950.0
952.0
956.0
960.0
960.0
962.0
962.0
962.0
962.0
962.0
962.0
962.0
964.0
965.0
967.0
968.0
972.0
974.0
973.0
973.0
974.0
975.0
974.0
974.0
975.0
975.0
975.0
980.0
982.0
984.0
982.0
982.0
980.0
981.0
978.0
976.0
979.0
981.0
983.0
984.0
987.0
986.0
987.0
988.0
985.0
985.0
982.0
980.0
980.0
979.0
978.0
978.0
977.0
976.0
973.0
969.0
966.0
962.0
959.0
954.0
954.0
953.0
952.0
952.0
950.0
951.0
949.0
948.0
943.0
943.0
942.0
941.0
941.0
941.0
940.0
941.0
943.0
942.0
940.0
940.0
937.0
937.0
940.0
939.0
941.0
942.0
946.0
945.0
945.0
944.0
947.0
946.0
944.0
945.0
946.0
947.0
947.0
947.0
950.0
950.0
954.0
956.0
955.0
955.0
956.0
955.0
957.0
956.0
956.0
960.0
957.0
960.0
962.0
963.0
962.0
961.0
958.0
958.0
958.0
955.0
956.0
957.0
957.0
960.0
962.0
961.0
961.0
962.0
960.0
958.0
956.0
957.0
958.0
958.0
959.0
959.0
959.0
960.0
960.0
958.0
958.0
958.0
957.0
954.0
956.0
954.0
956.0
957.0
959.0
960.0
961.0
958.0
958.0
957.0
958.0
954.0
954.0
954.0
955.0
961.0
961.0
963.0
962.0
960.0
961.0
962.0
958.0
958.0
957.0
960.0
959.0
958.0
961.0
961.0
963.0
964.0
963.0
961.0
959.0
959.0
961.0
962.0
962.0
964.0
963.0
965.0
966.0
966.0
963.0
963.0
963.0
962.0
963.0
962.0
965.0
966.0
969.0
969.0
968.0
969.0
968.0
968.0
966.0
968.0
967.0
966.0
968.0
971.0
972.0
972.0
973.0
971.0
971.0
969.0
968.0
967.0
967.0
971.0
972.0
973.0
974.0
974.0
975.0
974.0
974.0
973.0
971.0
971.0
972.0
975.0
976.0
979.0
983.0
985.0
988.0
991.0
993.0
992.0
992.0
992.0
997.0
1000.0
1002.0
1005.0
1008.0
1012.0
1010.0
1008.0
1003.0
1002.0
1002.0
1003.0
1000.0
1000.0
1004.0
1005.0
1005.0
1004.0
1002.0
999.0
994.0
990.0
988.0
986.0
982.0
981.0
983.0
982.0
982.0
982.0
984.0
984.0
982.0
979.0
978.0
978.0
977.0
981.0
980.0
981.0
981.0
981.0
983.0
980.0
979.0
977.0
977.0
977.0
977.0
977.0
978.0
979.0
982.0
984.0
985.0
985.0
984.0
984.0
983.0
986.0
985.0
989.0
990.0
994.0
1000.0
1013.0
1028.0
1058.0
1095.0
1150.0
1213.0
1287.0
1356.0
1407.0
1431.0
1414.0
1351.0
1247.0
1119.0
991.0
881.0
821.0
811.0
842.0
890.0
939.0
982.0
1006.0
1018.0
1020.0
1013.0
1010.0
1006.0
1002.0
1001.0
999.0
1000.0
1001.0
1001.0
1001.0
1006.0
1006.0
1006.0
1005.0
1002.0
1002.0
1000.0
1004.0
1004.0
1004.0
1006.0
1006.0
1006.0
1006.0
1006.0
1006.0
1006.0
1005.0
1005.0
1004.0
1000.0
1000.0
1006.0
1003.0
1004.0
1004.0
1006.0
1005.0
1009.0
1008.0
1005.0
1006.0
1004.0
1003.0
1006.0
1007.0
1008.0
1007.0
1009.0
1006.0
1007.0
1004.0
1005.0
1006.0
1003.0
1004.0
1005.0
1008.0
1009.0
1009.0
1009.0
1009.0
1008.0
1010.0
1008.0
1007.0
1008.0
1006.0
1007.0
1006.0
1010.0
1011.0
1013.0
1012.0
1009.0
1010.0
1009.0
1008.0
1009.0
1011.0
1011.0
1013.0
1013.0
1018.0
1016.0
1018.0
1015.0
1014.0
1013.0
1011.0
1013.0
1014.0
1015.0
1015.0
1017.0
1019.0
1018.0
1017.0
1017.0
1016.0
1015.0
1013.0
1010.0
1013.0
1013.0
1014.0
1010.0
1015.0
1014.0
1012.0
1011.0
1009.0
1008.0
1006.0
1008.0
1011.0
1013.0
1013.0
1015.0
1017.0
1016.0
1016.0
1014.0
1013.0
1012.0
1008.0
1009.0
1008.0
1008.0
1008.0
1004.0
1003.0
1002.0
999.0
994.0
990.0
987.0
982.0
982.0
977.0
978.0
977.0
979.0
978.0
978.0
976.0
973.0
972.0
970.0
968.0
967.0
970.0
969.0
970.0
970.0
972.0
973.0
973.0
972.0
970.0
969.0
969.0
969.0
970.0
973.0
972.0
975.0
975.0
975.0
975.0
973.0
973.0
972.0
972.0
972.0
974.0
974.0
975.0
975.0
977.0
976.0
977.0
975.0
975.0
974.0
972.0
972.0
974.0
972.0
973.0
974.0
972.0
971.0
972.0
970.0
970.0
970.0
967.0
966.0
962.0
964.0
963.0
963.0
965.0
966.0
965.0
966.0
963.0
962.0
960.0
957.0
960.0
959.0
960.0
962.0
963.0
962.0
961.0
960.0
959.0
955.0
953.0
954.0
955.0
952.0
956.0
958.0
958.0
956.0
955.0
954.0
951.0
951.0
949.0
949.0
950.0
951.0
952.0
953.0
954.0
954.0
952.0
949.0
948.0
946.0
947.0
946.0
948.0
948.0
951.0
955.0
958.0
960.0
962.0
966.0
966.0
965.0
966.0
968.0
970.0
974.0
977.0
981.0
984.0
983.0
980.0
976.0
977.0
973.0
971.0
972.0
972.0
973.0
973.0
973.0
972.0
967.0
963.0
956.0
948.0
944.0
942.0
942.0
943.0
943.0
946.0
947.0
946.0
944.0
943.0
940.0
940.0
939.0
940.0
940.0
940.0
939.0
939.0
940.0
940.0
940.0
941.0
939.0
941.0
939.0
937.0
938.0
939.0
942.0
942.0
943.0
946.0
947.0
947.0
949.0
946.0
947.0
947.0
947.0
949.0
959.0
976.0
999.0
1033.0
1075.0
1138.0
1206.0
1278.0
1341.0
1381.0
1385.0
1343.0
1252.0
1124.0
996.0
868.0
786.0
769.0
798.0
853.0
906.0
946.0
970.0
977.0
976.0
969.0
962.0
956.0
953.0
953.0
951.0
954.0
953.0
952.0
955.0
956.0
955.0
956.0
957.0
958.0
958.0
958.0
956.0
957.0
956.0
956.0
955.0
954.0
957.0
956.0
958.0
961.0
958.0
960.0
961.0
957.0
956.0
953.0
954.0
955.0
957.0
956.0
960.0
962.0
963.0
960.0
958.0
955.0
956.0
956.0
954.0
955.0
953.0
956.0
960.0
960.0
961.0
958.0
960.0
958.0
956.0
955.0
956.0
956.0
956.0
959.0
960.0
960.0
962.0
961.0
961.0
960.0
960.0
959.0
958.0
958.0
960.0
958.0
963.0
963.0
960.0
963.0
962.0
962.0
963.0
959.0
960.0
964.0
966.0
966.0
967.0
965.0
967.0
967.0
968.0
967.0
965.0
964.0
965.0
965.0
969.0
967.0
969.0
972.0
970.0
971.0
969.0
966.0
964.0
960.0
961.0
960.0
960.0
962.0
960.0
964.0
961.0
961.0
959.0
958.0
960.0
955.0
958.0
958.0
958.0
960.0
960.0
959.0
954.0
952.0
947.0
945.0
942.0
940.0
936.0
934.0
931.0
930.0
927.0
928.0
927.0
923.0
921.0
918.0
915.0
913.0
910.0
911.0
911.0
910.0
913.0
915.0
915.0
912.0
911.0
910.0
908.0
909.0
908.0
908.0
908.0
911.0
912.0
912.0
914.0
914.0
913.0
913.0
913.0
914.0
912.0
913.0
916.0
917.0
918.0
917.0
919.0
921.0
920.0
919.0
919.0
916.0
916.0
917.0
917.0
919.0
921.0
920.0
918.0
917.0
916.0
915.0
912.0
911.0
909.0
908.0
909.0
909.0
908.0
911.0
911.0
910.0
909.0
907.0
907.0
903.0
902.0
903.0
902.0
904.0
906.0
903.0
905.0
901.0
902.0
901.0
896.0
900.0
899.0
898.0
897.0
898.0
900.0
903.0
902.0
902.0
901.0
898.0
897.0
895.0
895.0
894.0
898.0
897.0
897.0
897.0
897.0
898.0
897.0
895.0
894.0
894.0
893.0
895.0
895.0
894.0
898.0
900.0
898.0
900.0
899.0
898.0
897.0
900.0
902.0
904.0
909.0
912.0
913.0
917.0
921.0
922.0
922.0
923.0
924.0
926.0
925.0
923.0
926.0
925.0
923.0
925.0
925.0
924.0
923.0
921.0
921.0
917.0
914.0
914.0
913.0
909.0
906.0
903.0
899.0
896.0
893.0
892.0
887.0
888.0
887.0
888.0
887.0
889.0
889.0
892.0
890.0
890.0
887.0
887.0
887.0
884.0
885.0
886.0
883.0
889.0
891.0
891.0
892.0
891.0
893.0
892.0
891.0
891.0
892.0
894.0
897.0
899.0
902.0
905.0
906.0
913.0
925.0
944.0
978.0
1025.0
1087.0
1165.0
1248.0
1318.0
1357.0
1364.0
1312.0
1211.0
1083.0
955.0
827.0
746.0
725.0
744.0
792.0
843.0
884.0
911.0
926.0
930.0
926.0
918.0
911.0
906.0
906.0
905.0
905.0
907.0
910.0
913.0
915.0
913.0
911.0
910.0
909.0
909.0
909.0
910.0
910.0
911.0
914.0
913.0
915.0
914.0
912.0
913.0
911.0
911.0
910.0
909.0
910.0
912.0
912.0
915.0
916.0
912.0
915.0
915.0
912.0
911.0
910.0
911.0
910.0
913.0
915.0
916.0
915.0
913.0
915.0
913.0
912.0
912.0
914.0
914.0
915.0
915.0
917.0
917.0
918.0
916.0
919.0
919.0
916.0
917.0
915.0
915.0
918.0
920.0
921.0
922.0
923.0
923.0
920.0
922.0
923.0
920.0
921.0
922.0
923.0
926.0
924.0
928.0
930.0
930.0
930.0
930.0
929.0
928.0
928.0
929.0
930.0
932.0
933.0
936.0
938.0
938.0
939.0
937.0
936.0
938.0
937.0
936.0
936.0
937.0
940.0
942.0
941.0
942.0
941.0
939.0
937.0
937.0
935.0
936.0
937.0
938.0
938.0
939.0
938.0
935.0
932.0
927.0
925.0
920.0
919.0
918.0
917.0
914.0
914.0
912.0
909.0
907.0
904.0
900.0
895.0
893.0
892.0
890.0
888.0
888.0
889.0
890.0
889.0
888.0
882.0
883.0
883.0
881.0
882.0
879.0
881.0
883.0
884.0
885.0
886.0
885.0
885.0
885.0
883.0
881.0
882.0
884.0
885.0
887.0
888.0
891.0
892.0
891.0
892.0
890.0
889.0
890.0
888.0
890.0
892.0
894.0
893.0
896.0
896.0
898.0
899.0
899.0
897.0
896.0
896.0
896.0
896.0
897.0
898.0
899.0
900.0
899.0
899.0
896.0
894.0
894.0
890.0
892.0
892.0
894.0
894.0
896.0
896.0
896.0
895.0
894.0
892.0
891.0
890.0
892.0
891.0
894.0
895.0
895.0
894.0
895.0
891.0
893.0
891.0
891.0
888.0
891.0
892.0
893.0
894.0
894.0
895.0
895.0
893.0
893.0
892.0
889.0
888.0
889.0
889.0
893.0
895.0
897.0
896.0
894.0
894.0
894.0
893.0
894.0
891.0
893.0
893.0
894.0
895.0
895.0
894.0
897.0
896.0
896.0
895.0
896.0
896.0
895.0
897.0
898.0
901.0
904.0
906.0
905.0
906.0
906.0
908.0
911.0
912.0
915.0
918.0
919.0
922.0
924.0
927.0
932.0
933.0
932.0
932.0
930.0
930.0
926.0
926.0
927.0
928.0
930.0
931.0
931.0
931.0
928.0
927.0
926.0
922.0
920.0
919.0
913.0
914.0
912.0
912.0
906.0
907.0
905.0
905.0
901.0
903.0
903.0
903.0
904.0
905.0
904.0
904.0
905.0
902.0
904.0
903.0
903.0
901.0
901.0
902.0
905.0
906.0
907.0
906.0
910.0
908.0
905.0
906.0
907.0
907.0
910.0
914.0
915.0
916.0
923.0
921.0
922.0
925.0
928.0
936.0
951.0
975.0
1008.0
1058.0
1122.0
1195.0
1269.0
1334.0
1373.0
1373.0
1323.0
1231.0
1104.0
976.0
850.0
777.0
751.0
767.0
809.0
858.0
902.0
930.0
945.0
949.0
947.0
944.0
938.0
938.0
935.0
935.0
936.0
938.0
936.0
935.0
936.0
937.0
934.0
935.0
934.0
937.0
939.0
940.0
944.0
943.0
942.0
944.0
942.0
943.0
940.0
941.0
941.0
941.0
944.0
945.0
946.0
945.0
945.0
947.0
946.0
944.0
943.0
942.0
943.0
944.0
943.0
945.0
948.0
950.0
949.0
947.0
949.0
945.0
944.0
945.0
947.0
948.0
946.0
949.0
949.0
952.0
951.0
951.0
948.0
946.0
949.0
948.0
947.0
948.0
949.0
951.0
953.0
955.0
958.0
957.0
955.0
954.0
955.0
956.0
955.0
958.0
959.0
959.0
963.0
962.0
963.0
963.0
960.0
962.0
960.0
961.0
962.0
965.0
964.0
966.0
968.0
969.0
970.0
968.0
968.0
970.0
967.0
967.0
968.0
968.0
971.0
972.0
974.0
974.0
973.0
971.0
968.0
969.0
968.0
967.0
966.0
967.0
969.0
969.0
971.0
971.0
971.0
973.0
973.0
970.0
969.0
968.0
969.0
966.0
968.0
965.0
965.0
964.0
959.0
957.0
955.0
952.0
946.0
945.0
941.0
940.0
939.0
939.0
938.0
937.0
933.0
932.0
932.0
930.0
927.0
925.0
926.0
927.0
926.0
925.0
928.0
927.0
926.0
924.0
922.0
923.0
923.0
923.0
923.0
923.0
926.0
928.0
930.0
930.0
932.0
931.0
929.0
930.0
929.0
930.0
930.0
930.0
933.0
932.0
934.0
935.0
935.0
935.0
932.0
933.0
933.0
931.0
934.0
935.0
935.0
936.0
938.0
939.0
937.0
935.0
934.0
931.0
929.0
929.0
926.0
930.0
932.0
932.0
932.0
934.0
934.0
931.0
928.0
927.0
925.0
925.0
923.0
925.0
925.0
926.0
926.0
928.0
926.0
924.0
925.0
924.0
923.0
921.0
923.0
922.0
924.0
920.0
921.0
923.0
923.0
922.0
921.0
921.0
919.0
915.0
917.0
916.0
916.0
920.0
922.0
923.0
922.0
921.0
920.0
918.0
917.0
918.0
918.0
919.0
919.0
920.0
919.0
922.0
924.0
922.0
922.0
922.0
920.0
919.0
920.0
924.0
928.0
930.0
933.0
936.0
938.0
940.0
939.0
940.0
940.0
943.0
947.0
948.0
950.0
950.0
947.0
949.0
948.0
947.0
945.0
945.0
942.0
944.0
942.0
942.0
941.0
939.0
938.0
936.0
931.0
926.0
921.0
918.0
915.0
915.0
913.0
914.0
914.0
916.0
915.0
917.0
916.0
917.0
913.0
910.0
911.0
909.0
906.0
908.0
908.0
909.0
911.0
912.0
913.0
911.0
910.0
909.0
907.0
907.0
909.0
911.0
913.0
915.0
916.0
918.0
919.0
920.0
919.0
919.0
920.0
919.0
921.0
928.0
940.0
960.0
991.0
1034.0
1092.0
1160.0
1236.0
1306.0
1354.0
1367.0
1337.0
1259.0
1145.0
1017.0
889.0
792.0
746.0
752.0
791.0
839.0
885.0
918.0
934.0
942.0
943.0
942.0
937.0
933.0
929.0
928.0
929.0
928.0
925.0
927.0
928.0
930.0
930.0
930.0
933.0
936.0
933.0
934.0
933.0
932.0
931.0
931.0
928.0
931.0
932.0
934.0
933.0
934.0
934.0
933.0
931.0
931.0
930.0
930.0
931.0
933.0
934.0
935.0
936.0
938.0
936.0
935.0
935.0
935.0
932.0
932.0
934.0
934.0
935.0
935.0
934.0
936.0
934.0
934.0
934.0
933.0
934.0
936.0
935.0
935.0
938.0
939.0
938.0
940.0
938.0
938.0
936.0
936.0
936.0
937.0
937.0
937.0
940.0
940.0
942.0
941.0
943.0
942.0
944.0
944.0
942.0
942.0
941.0
942.0
946.0
947.0
948.0
948.0
949.0
950.0
949.0
947.0
947.0
948.0
946.0
946.0
946.0
947.0
948.0
951.0
949.0
953.0
951.0
947.0
945.0
942.0
941.0
941.0
943.0
945.0
946.0
948.0
949.0
948.0
947.0
945.0
945.0
942.0
942.0
941.0
939.0
935.0
932.0
932.0
929.0
927.0
920.0
920.0
914.0
910.0
906.0
907.0
907.0
906.0
906.0
907.0
901.0
901.0
899.0
899.0
898.0
896.0
896.0
898.0
900.0
901.0
901.0
902.0
899.0
899.0
896.0
897.0
896.0
898.0
897.0
898.0
898.0
900.0
903.0
904.0
904.0
905.0
903.0
905.0
903.0
905.0
905.0
906.0
906.0
906.0
909.0
910.0
910.0
911.0
908.0
908.0
907.0
902.0
903.0
900.0
904.0
904.0
908.0
908.0
907.0
908.0
905.0
903.0
900.0
895.0
896.0
896.0
897.0
896.0
896.0
898.0
897.0
898.0
897.0
895.0
895.0
895.0
892.0
888.0
892.0
892.0
894.0
894.0
895.0
894.0
894.0
891.0
893.0
892.0
892.0
892.0
897.0
901.0
901.0
906.0
908.0
909.0
910.0
913.0
915.0
915.0
918.0
921.0
921.0
923.0
922.0
921.0
920.0
920.0
919.0
919.0
917.0
915.0
911.0
908.0
911.0
908.0
902.0
903.0
897.0
894.0
892.0
886.0
883.0
884.0
884.0
884.0
885.0
886.0
885.0
884.0
885.0
883.0
882.0
879.0
878.0
875.0
875.0
877.0
878.0
877.0
880.0
880.0
881.0
881.0
879.0
878.0
877.0
877.0
880.0
881.0
882.0
884.0
890.0
891.0
892.0
894.0
893.0
893.0
896.0
901.0
917.0
939.0
975.0
1024.0
1091.0
1170.0
1252.0
1316.0
1347.0
1338.0
1276.0
1166.0
1038.0
910.0
784.0
724.0
715.0
753.0
802.0
849.0
887.0
907.0
914.0
911.0
908.0
903.0
900.0
900.0
902.0
900.0
900.0
903.0
900.0
902.0
900.0
899.0
900.0
900.0
901.0
903.0
903.0
904.0
906.0
906.0
905.0
903.0
901.0
899.0
899.0
903.0
903.0
904.0
905.0
908.0
906.0
906.0
903.0
902.0
901.0
901.0
902.0
904.0
905.0
906.0
905.0
907.0
905.0
907.0
906.0
907.0
905.0
905.0
903.0
903.0
906.0
906.0
907.0
910.0
910.0
909.0
911.0
908.0
908.0
908.0
908.0
910.0
908.0
911.0
913.0
915.0
914.0
916.0
912.0
912.0
910.0
911.0
911.0
912.0
914.0
917.0
918.0
920.0
918.0
920.0
918.0
916.0
918.0
917.0
920.0
918.0
922.0
923.0
924.0
928.0
928.0
926.0
926.0
925.0
922.0
923.0
924.0
925.0
927.0
926.0
927.0
930.0
929.0
927.0
926.0
926.0
925.0
922.0
922.0
922.0
924.0
925.0
925.0
927.0
928.0
927.0
924.0
921.0
915.0
913.0
909.0
909.0
909.0
904.0
903.0
902.0
900.0
895.0
893.0
887.0
881.0
877.0
876.0
876.0
875.0
875.0
879.0
880.0
878.0
876.0
876.0
872.0
872.0
868.0
869.0
866.0
868.0
868.0
871.0
870.0
872.0
874.0
872.0
872.0
873.0
868.0
868.0
872.0
873.0
879.0
878.0
878.0
881.0
882.0
878.0
878.0
876.0
875.0
878.0
879.0
881.0
882.0
883.0
884.0
885.0
885.0
881.0
882.0
881.0
879.0
878.0
879.0
880.0
883.0
879.0
881.0
879.0
883.0
881.0
878.0
878.0
874.0
876.0
876.0
876.0
876.0
879.0
879.0
882.0
876.0
876.0
875.0
873.0
871.0
872.0
871.0
874.0
874.0
874.0
877.0
876.0
876.0
873.0
871.0
871.0
871.0
867.0
871.0
872.0
871.0
874.0
874.0
874.0
872.0
873.0
871.0
868.0
869.0
870.0
872.0
871.0
871.0
872.0
874.0
873.0
874.0
871.0
872.0
873.0
876.0
877.0
879.0
885.0
889.0
891.0
894.0
896.0
897.0
898.0
902.0
903.0
899.0
901.0
903.0
898.0
899.0
902.0
905.0
904.0
904.0
903.0
903.0
901.0
898.0
893.0
890.0
889.0
888.0
887.0
885.0
878.0
877.0
873.0
874.0
868.0
868.0
869.0
870.0
870.0
871.0
871.0
872.0
872.0
871.0
869.0
870.0
867.0
867.0
866.0
865.0
867.0
867.0
869.0
869.0
870.0
869.0
868.0
869.0
868.0
867.0
868.0
869.0
871.0
872.0
875.0
878.0
878.0
880.0
879.0
882.0
881.0
881.0
888.0
900.0
923.0
955.0
1002.0
1063.0
1137.0
1219.0
1291.0
1342.0
1357.0
1319.0
1235.0
1107.0
979.0
851.0
737.0
706.0
724.0
769.0
821.0
867.0
898.0
911.0
912.0
905.0
902.0
894.0
891.0
888.0
890.0
889.0
893.0
890.0
891.0
890.0
890.0
891.0
891.0
892.0
892.0
894.0
896.0
895.0
896.0
897.0
895.0
890.0
893.0
893.0
896.0
895.0
896.0
896.0
895.0
896.0
897.0
895.0
894.0
895.0
895.0
895.0
894.0
897.0
898.0
900.0
901.0
901.0
900.0
898.0
898.0
896.0
895.0
896.0
897.0
900.0
904.0
903.0
903.0
903.0
903.0
901.0
900.0
901.0
902.0
903.0
903.0
905.0
906.0
908.0
909.0
910.0
908.0
910.0
910.0
906.0
904.0
909.0
909.0
910.0
914.0
916.0
914.0
916.0
916.0
913.0
914.0
916.0
917.0
918.0
919.0
921.0
923.0
925.0
926.0
926.0
927.0
925.0
926.0
925.0
926.0
927.0
930.0
932.0
932.0
933.0
935.0
934.0
932.0
929.0
931.0
931.0
929.0
931.0
932.0
933.0
930.0
934.0
932.0
931.0
926.0
923.0
919.0
918.0
911.0
909.0
906.0
905.0
903.0
901.0
898.0
894.0
891.0
885.0
885.0
883.0
878.0
879.0
876.0
875.0
878.0
880.0
879.0
878.0
877.0
875.0
873.0
874.0
872.0
872.0
873.0
873.0
875.0
876.0
877.0
876.0
876.0
875.0
873.0
873.0
873.0
872.0
877.0
877.0
880.0
881.0
881.0
881.0
882.0
881.0
882.0
882.0
883.0
882.0
884.0
884.0
887.0
887.0
889.0
889.0
886.0
885.0
885.0
884.0
883.0
880.0
884.0
884.0
884.0
886.0
886.0
885.0
885.0
883.0
880.0
879.0
878.0
879.0
882.0
880.0
881.0
883.0
883.0
881.0
878.0
877.0
876.0
877.0
875.0
875.0
875.0
877.0
879.0
881.0
880.0
881.0
879.0
875.0
875.0
873.0
872.0
872.0
875.0
876.0
878.0
879.0
877.0
879.0
880.0
876.0
874.0
874.0
875.0
874.0
873.0
875.0
877.0
879.0
879.0
876.0
876.0
875.0
874.0
874.0
874.0
872.0
874.0
873.0
877.0
879.0
881.0
880.0
880.0
881.0
879.0
881.0
882.0
885.0
888.0
890.0
892.0
897.0
900.0
899.0
901.0
902.0
906.0
905.0
904.0
902.0
901.0
902.0
899.0
904.0
905.0
902.0
905.0
902.0
903.0
900.0
897.0
894.0
891.0
889.0
886.0
884.0
882.0
879.0
877.0
876.0
870.0
872.0
873.0
873.0
870.0
872.0
872.0
874.0
875.0
875.0
877.0
873.0
871.0
872.0
870.0
870.0
871.0
871.0
873.0
873.0
875.0
875.0
874.0
872.0
874.0
874.0
875.0
877.0
874.0
877.0
879.0
883.0
886.0
884.0
886.0
888.0
888.0
889.0
892.0
899.0
914.0
940.0
972.0
1019.0
1080.0
1148.0
1226.0
1295.0
1345.0
1356.0
1318.0
1227.0
1099.0
971.0
843.0
737.0
710.0
733.0
781.0
837.0
880.0
908.0
919.0
920.0
913.0
907.0
900.0
895.0
895.0
893.0
893.0
896.0
894.0
898.0
898.0
898.0
896.0
899.0
901.0
901.0
901.0
902.0
901.0
900.0
898.0
900.0
901.0
899.0
900.0
903.0
903.0
907.0
906.0
907.0
906.0
906.0
907.0
904.0
904.0
905.0
906.0
909.0
908.0
909.0
910.0
909.0
912.0
908.0
905.0
904.0
905.0
907.0
908.0
910.0
910.0
913.0
913.0
914.0
914.0
913.0
915.0
913.0
913.0
911.0
913.0
916.0
917.0
920.0
921.0
921.0
922.0
920.0
919.0
918.0
919.0
920.0
923.0
924.0
924.0
928.0
928.0
929.0
930.0
928.0
930.0
929.0
930.0
932.0
932.0
932.0
932.0
933.0
937.0
939.0
939.0
939.0
939.0
939.0
937.0
937.0
938.0
940.0
940.0
940.0
944.0
941.0
941.0
938.0
939.0
939.0
939.0
941.0
943.0
945.0
944.0
948.0
946.0
948.0
947.0
947.0
947.0
944.0
940.0
940.0
938.0
938.0
936.0
935.0
937.0
933.0
931.0
928.0
922.0
921.0
917.0
913.0
912.0
912.0
909.0
909.0
909.0
909.0
905.0
902.0
901.0
900.0
897.0
899.0
898.0
898.0
897.0
898.0
897.0
898.0
897.0
899.0
899.0
894.0
895.0
897.0
897.0
899.0
903.0
905.0
906.0
907.0
907.0
906.0
906.0
905.0
904.0
905.0
903.0
906.0
908.0
911.0
910.0
909.0
911.0
910.0
907.0
910.0
908.0
908.0
907.0
910.0
911.0
912.0
912.0
911.0
910.0
910.0
911.0
909.0
910.0
909.0
910.0
908.0
906.0
908.0
912.0
910.0
908.0
908.0
906.0
905.0
903.0
902.0
899.0
900.0
906.0
906.0
906.0
907.0
905.0
905.0
904.0
903.0
901.0
902.0
900.0
902.0
902.0
904.0
904.0
905.0
905.0
903.0
903.0
898.0
900.0
900.0
899.0
903.0
904.0
906.0
906.0
904.0
905.0
904.0
903.0
901.0
901.0
899.0
903.0
904.0
907.0
906.0
909.0
910.0
912.0
911.0
911.0
912.0
912.0
916.0
917.0
921.0
924.0
928.0
931.0
935.0
938.0
937.0
937.0
935.0
933.0
930.0
930.0
931.0
933.0
936.0
937.0
935.0
935.0
931.0
927.0
922.0
920.0
918.0
916.0
914.0
910.0
911.0
907.0
905.0
905.0
906.0
904.0
904.0
906.0
902.0
902.0
901.0
902.0
902.0
903.0
901.0
904.0
901.0
900.0
899.0
897.0
895.0
897.0
899.0
899.0
901.0
901.0
901.0
901.0
902.0
902.0
901.0
902.0
902.0
901.0
904.0
904.0
909.0
913.0
913.0
915.0
915.0
913.0
918.0
924.0
939.0
963.0
999.0
1054.0
1118.0
1195.0
1272.0
1337.0
1376.0
1375.0
1326.0
1226.0
1098.0
970.0
842.0
756.0
742.0
768.0
816.0
868.0
907.0
929.0
939.0
938.0
935.0
926.0
924.0
922.0
923.0
924.0
924.0
924.0
927.0
925.0
923.0
922.0
922.0
923.0
927.0
927.0
927.0
930.0
926.0
929.0
926.0
922.0
922.0
924.0
925.0
924.0
928.0
931.0
933.0
933.0
931.0
930.0
929.0
928.0
928.0
928.0
929.0
927.0
928.0
928.0
932.0
930.0
933.0
932.0
930.0
929.0
927.0
930.0
927.0
927.0
930.0
930.0
934.0
935.0
937.0
934.0
933.0
934.0
932.0
