# Simple Text Format
# Sampling Rate (Hz):= 360.00
# Resolution:= 12
# Labels:= ECG
745.0
747.0
745.0
749.0
752.0
749.0
750.0
746.0
748.0
748.0
748.0
743.0
743.0
743.0
745.0
747.0
747.0
749.0
747.0
748.0
746.0
745.0
743.0
744.0
742.0
744.0
748.0
748.0
752.0
750.0
748.0
751.0
754.0
754.0
762.0
764.0
766.0
771.0
770.0
771.0
770.0
770.0
770.0
767.0
767.0
770.0
771.0
773.0
777.0
783.0
789.0
791.0
791.0
792.0
785.0
780.0
781.0
772.0
772.0
768.0
766.0
775.0
775.0
778.0
779.0
768.0
763.0
757.0
751.0
749.0
744.0
742.0
740.0
742.0
744.0
744.0
752.0
751.0
754.0
752.0
752.0
747.0
745.0
747.0
748.0
751.0
756.0
763.0
772.0
795.0
830.0
879.0
945.0
1026.0
1114.0
1208.0
1294.0
1378.0
1441.0
1483.0
1498.0
1488.0
1437.0
1341.0
1213.0
1085.0
957.0
829.0
701.0
663.0
707.0
761.0
802.0
820.0
819.0
803.0
786.0
770.0
761.0
755.0
753.0
754.0
754.0
757.0
761.0
761.0
759.0
759.0
762.0
764.0
766.0
767.0
770.0
768.0
769.0
770.0
773.0
773.0
774.0
773.0
771.0
770.0
771.0
777.0
778.0
785.0
788.0
794.0
796.0
793.0
794.0
794.0
793.0
794.0
797.0
797.0
803.0
807.0
810.0
816.0
820.0
826.0
831.0
833.0
837.0
839.0
843.0
846.0
851.0
858.0
863.0
872.0
877.0
883.0
889.0
890.0
893.0
899.0
901.0
905.0
906.0
911.0
911.0
917.0
921.0
914.0
917.0
915.0
916.0
915.0
912.0
911.0
909.0
908.0
906.0
902.0
895.0
887.0
879.0
868.0
858.0
847.0
842.0
834.0
831.0
827.0
823.0
823.0
818.0
812.0
808.0
800.0
794.0
789.0
788.0
787.0
787.0
787.0
784.0
786.0
787.0
785.0
783.0
780.0
779.0
781.0
779.0
780.0
781.0
780.0
780.0
782.0
787.0
786.0
788.0
788.0
787.0
785.0
785.0
784.0
781.0
786.0
793.0
795.0
799.0
800.0
799.0
797.0
796.0
789.0
793.0
789.0
791.0
792.0
796.0
796.0
797.0
798.0
798.0
796.0
794.0
791.0
793.0
791.0
788.0
790.0
791.0
793.0
795.0
798.0
797.0
794.0
790.0
788.0
783.0
783.0
784.0
785.0
786.0
788.0
788.0
789.0
787.0
784.0
780.0
778.0
780.0
778.0
780.0
781.0
785.0
786.0
790.0
792.0
788.0
782.0
779.0
776.0
774.0
777.0
778.0
778.0
778.0
781.0
783.0
784.0
784.0
782.0
782.0
780.0
779.0
780.0
775.0
776.0
777.0
780.0
783.0
785.0
788.0
789.0
793.0
792.0
795.0
795.0
796.0
799.0
799.0
805.0
808.0
806.0
808.0
806.0
806.0
811.0
812.0
817.0
817.0
820.0
821.0
822.0
821.0
821.0
818.0
817.0
816.0
811.0
805.0
802.0
800.0
796.0
796.0
795.0
792.0
789.0
787.0
781.0
775.0
775.0
772.0
773.0
775.0
776.0
773.0
773.0
775.0
777.0
777.0
778.0
779.0
777.0
777.0
775.0
779.0
778.0
790.0
813.0
851.0
900.0
973.0
1061.0
1158.0
1263.0
1365.0
1451.0
1506.0
1529.0
1517.0
1461.0
1348.0
1220.0
1092.0
964.0
836.0
708.0
724.0
783.0
837.0
864.0
870.0
856.0
834.0
815.0
797.0
788.0
788.0
788.0
787.0
785.0
784.0
784.0
789.0
789.0
792.0
792.0
793.0
797.0
798.0
795.0
796.0
794.0
795.0
795.0
800.0
801.0
804.0
810.0
810.0
809.0
809.0
807.0
808.0
808.0
811.0
812.0
816.0
819.0
821.0
824.0
823.0
827.0
827.0
828.0
834.0
839.0
843.0
851.0
855.0
861.0
866.0
869.0
871.0
876.0
881.0
884.0
892.0
896.0
899.0
904.0
909.0
916.0
922.0
929.0
931.0
936.0
937.0
932.0
940.0
938.0
942.0
944.0
948.0
952.0
954.0
951.0
949.0
940.0
934.0
927.0
918.0
910.0
903.0
893.0
889.0
881.0
876.0
868.0
857.0
848.0
842.0
834.0
825.0
819.0
812.0
811.0
806.0
806.0
807.0
807.0
806.0
807.0
802.0
799.0
794.0
788.0
789.0
792.0
794.0
794.0
792.0
790.0
793.0
790.0
788.0
785.0
786.0
789.0
788.0
794.0
799.0
797.0
798.0
797.0
799.0
799.0
798.0
798.0
794.0
793.0
796.0
799.0
800.0
804.0
807.0
809.0
807.0
805.0
804.0
799.0
795.0
796.0
797.0
799.0
799.0
803.0
801.0
802.0
801.0
798.0
796.0
792.0
791.0
788.0
789.0
791.0
793.0
796.0
794.0
792.0
791.0
789.0
787.0
785.0
782.0
783.0
783.0
786.0
787.0
788.0
789.0
790.0
788.0
786.0
786.0
784.0
780.0
778.0
775.0
777.0
780.0
784.0
788.0
790.0
788.0
787.0
784.0
782.0
783.0
778.0
778.0
779.0
779.0
778.0
785.0
787.0
788.0
788.0
791.0
794.0
797.0
798.0
799.0
805.0
805.0
807.0
807.0
809.0
808.0
802.0
802.0
805.0
805.0
809.0
815.0
822.0
828.0
830.0
828.0
828.0
822.0
817.0
812.0
807.0
806.0
804.0
805.0
805.0
806.0
802.0
801.0
797.0
793.0
787.0
780.0
772.0
767.0
766.0
768.0
769.0
772.0
776.0
777.0
779.0
779.0
779.0
777.0
775.0
776.0
776.0
773.0
771.0
772.0
774.0
781.0
795.0
815.0
853.0
911.0
992.0
1090.0
1203.0
1318.0
1425.0
1500.0
1537.0
1539.0
1495.0
1400.0
1272.0
1144.0
1016.0
888.0
760.0
670.0
727.0
796.0
846.0
867.0
860.0
835.0
809.0
787.0
775.0
772.0
774.0
777.0
782.0
784.0
789.0
787.0
788.0
784.0
786.0
786.0
784.0
785.0
787.0
790.0
793.0
792.0
794.0
794.0
794.0
791.0
792.0
793.0
797.0
798.0
801.0
801.0
804.0
807.0
812.0
817.0
821.0
822.0
822.0
819.0
818.0
818.0
821.0
825.0
829.0
835.0
840.0
850.0
856.0
862.0
863.0
864.0
867.0
868.0
871.0
877.0
883.0
893.0
901.0
907.0
914.0
924.0
925.0
930.0
929.0
933.0
935.0
935.0
940.0
945.0
950.0
948.0
948.0
945.0
943.0
940.0
932.0
925.0
921.0
919.0
916.0
908.0
898.0
889.0
880.0
865.0
853.0
841.0
834.0
827.0
820.0
813.0
812.0
811.0
811.0
811.0
808.0
804.0
798.0
792.0
789.0
787.0
786.0
784.0
785.0
783.0
786.0
786.0
786.0
787.0
786.0
787.0
785.0
787.0
786.0
786.0
788.0
787.0
792.0
793.0
794.0
795.0
791.0
789.0
790.0
787.0
788.0
790.0
791.0
792.0
797.0
799.0
800.0
800.0
797.0
796.0
795.0
795.0
796.0
796.0
794.0
795.0
795.0
794.0
794.0
795.0
793.0
790.0
791.0
791.0
788.0
783.0
784.0
784.0
792.0
792.0
792.0
790.0
786.0
781.0
781.0
780.0
782.0
782.0
782.0
787.0
787.0
787.0
787.0
783.0
782.0
782.0
777.0
777.0
773.0
774.0
776.0
777.0
777.0
780.0
780.0
782.0
780.0
779.0
777.0
775.0
773.0
773.0
775.0
779.0
779.0
783.0
780.0
780.0
777.0
776.0
776.0
776.0
776.0
774.0
778.0
783.0
788.0
794.0
798.0
803.0
803.0
802.0
800.0
802.0
798.0
795.0
801.0
802.0
805.0
810.0
812.0
811.0
810.0
812.0
813.0
817.0
817.0
817.0
816.0
815.0
819.0
819.0
816.0
814.0
812.0
809.0
805.0
803.0
799.0
794.0
792.0
786.0
783.0
780.0
777.0
772.0
773.0
768.0
771.0
773.0
772.0
773.0
773.0
771.0
772.0
774.0
775.0
776.0
775.0
773.0
772.0
773.0
774.0
777.0
788.0
806.0
838.0
883.0
949.0
1023.0
1112.0
1202.0
1294.0
1378.0
1448.0
1496.0
1518.0
1520.0
1503.0
1462.0
1376.0
1248.0
1120.0
992.0
864.0
736.0
687.0
739.0
797.0
842.0
858.0
854.0
834.0
810.0
790.0
779.0
775.0
775.0
779.0
779.0
781.0
782.0
783.0
785.0
784.0
779.0
782.0
781.0
782.0
781.0
782.0
780.0
782.0
785.0
789.0
795.0
795.0
796.0
797.0
797.0
794.0
795.0
796.0
794.0
794.0
802.0
803.0
810.0
811.0
811.0
812.0
810.0
809.0
813.0
816.0
822.0
825.0
830.0
836.0
835.0
844.0
846.0
851.0
852.0
857.0
864.0
873.0
879.0
886.0
887.0
895.0
904.0
911.0
916.0
918.0
922.0
928.0
930.0
933.0
935.0
937.0
940.0
943.0
947.0
947.0
945.0
943.0
937.0
934.0
930.0
917.0
907.0
899.0
895.0
887.0
878.0
870.0
860.0
849.0
839.0
831.0
822.0
812.0
808.0
804.0
802.0
801.0
802.0
800.0
795.0
792.0
788.0
785.0
782.0
780.0
781.0
784.0
786.0
786.0
787.0
789.0
785.0
782.0
781.0
779.0
781.0
784.0
784.0
787.0
784.0
794.0
798.0
803.0
800.0
801.0
801.0
795.0
794.0
790.0
791.0
793.0
791.0
796.0
798.0
799.0
797.0
799.0
798.0
793.0
791.0
789.0
789.0
791.0
797.0
800.0
802.0
798.0
800.0
795.0
791.0
787.0
784.0
783.0
783.0
783.0
788.0
789.0
792.0
792.0
791.0
789.0
787.0
786.0
783.0
779.0
778.0
775.0
774.0
776.0
783.0
787.0
789.0
785.0
786.0
781.0
779.0
776.0
776.0
778.0
781.0
781.0
783.0
781.0
780.0
781.0
780.0
777.0
775.0
778.0
777.0
779.0
783.0
784.0
785.0
787.0
791.0
794.0
796.0
796.0
797.0
794.0
795.0
797.0
799.0
802.0
803.0
808.0
811.0
808.0
807.0
809.0
811.0
812.0
810.0
810.0
810.0
810.0
815.0
810.0
810.0
807.0
806.0
804.0
804.0
799.0
793.0
790.0
786.0
781.0
778.0
776.0
775.0
770.0
770.0
768.0
767.0
767.0
767.0
768.0
771.0
772.0
776.0
776.0
776.0
776.0
773.0
772.0
768.0
764.0
766.0
771.0
784.0
806.0
844.0
902.0
977.0
1066.0
1166.0
1268.0
1367.0
1447.0
1499.0
1525.0
1523.0
1493.0
1428.0
1316.0
1188.0
1060.0
932.0
804.0
676.0
687.0
746.0
803.0
842.0
853.0
846.0
824.0
803.0
785.0
776.0
768.0
767.0
768.0
768.0
772.0
776.0
777.0
778.0
777.0
776.0
776.0
777.0
775.0
776.0
778.0
777.0
778.0
783.0
785.0
788.0
791.0
791.0
793.0
790.0
792.0
791.0
792.0
791.0
793.0
797.0
801.0
804.0
808.0
812.0
812.0
815.0
816.0
817.0
819.0
817.0
822.0
827.0
836.0
843.0
846.0
850.0
852.0
857.0
859.0
865.0
869.0
875.0
882.0
893.0
899.0
907.0
911.0
912.0
914.0
915.0
919.0
923.0
925.0
929.0
932.0
940.0
939.0
940.0
937.0
936.0
933.0
925.0
920.0
911.0
903.0
895.0
886.0
880.0
871.0
864.0
855.0
845.0
838.0
827.0
818.0
812.0
804.0
795.0
791.0
790.0
786.0
787.0
788.0
785.0
786.0
779.0
779.0
777.0
775.0
775.0
770.0
775.0
773.0
776.0
779.0
772.0
773.0
772.0
768.0
767.0
769.0
772.0
772.0
775.0
779.0
781.0
783.0
783.0
784.0
782.0
783.0
782.0
780.0
776.0
775.0
775.0
779.0
782.0
781.0
781.0
780.0
780.0
778.0
773.0
772.0
771.0
777.0
777.0
776.0
778.0
780.0
780.0
779.0
776.0
775.0
772.0
768.0
769.0
771.0
771.0
777.0
779.0
777.0
776.0
769.0
769.0
766.0
766.0
766.0
769.0
770.0
775.0
771.0
771.0
774.0
772.0
771.0
769.0
767.0
766.0
764.0
762.0
761.0
762.0
763.0
767.0
768.0
771.0
769.0
770.0
768.0
765.0
764.0
766.0
766.0
767.0
774.0
778.0
781.0
782.0
784.0
789.0
790.0
788.0
786.0
782.0
783.0
788.0
791.0
797.0
798.0
802.0
802.0
801.0
799.0
799.0
798.0
799.0
798.0
801.0
798.0
797.0
794.0
796.0
796.0
794.0
791.0
789.0
782.0
775.0
771.0
766.0
764.0
761.0
761.0
762.0
759.0
760.0
761.0
760.0
761.0
762.0
762.0
766.0
767.0
768.0
770.0
766.0
765.0
762.0
766.0
771.0
780.0
797.0
831.0
877.0
944.0
1026.0
1125.0
1230.0
1334.0
1423.0
1483.0
1507.0
1490.0
1420.0
1292.0
1164.0
1036.0
908.0
780.0
652.0
675.0
736.0
792.0
827.0
835.0
825.0
807.0
791.0
779.0
775.0
774.0
780.0
782.0
780.0
775.0
771.0
767.0
767.0
771.0
776.0
779.0
784.0
784.0
784.0
789.0
788.0
787.0
788.0
789.0
787.0
788.0
794.0
797.0
800.0
803.0
803.0
804.0
805.0
805.0
807.0
811.0
815.0
819.0
825.0
829.0
831.0
834.0
834.0
837.0
839.0
836.0
841.0
847.0
851.0
856.0
864.0
873.0
878.0
886.0
889.0
890.0
892.0
894.0
895.0
898.0
907.0
911.0
919.0
924.0
929.0
935.0
934.0
940.0
940.0
941.0
939.0
937.0
940.0
941.0
941.0
940.0
937.0
934.0
930.0
925.0
915.0
906.0
896.0
884.0
875.0
865.0
859.0
851.0
850.0
845.0
837.0
830.0
823.0
816.0
812.0
809.0
805.0
803.0
807.0
809.0
813.0
811.0
808.0
803.0
798.0
798.0
792.0
793.0
795.0
796.0
798.0
801.0
805.0
808.0
809.0
809.0
806.0
802.0
801.0
802.0
803.0
805.0
805.0
808.0
807.0
811.0
810.0
812.0
812.0
809.0
810.0
810.0
811.0
811.0
813.0
812.0
813.0
820.0
818.0
818.0
822.0
819.0
820.0
817.0
813.0
811.0
811.0
814.0
814.0
816.0
819.0
818.0
814.0
813.0
809.0
806.0
802.0
804.0
807.0
810.0
809.0
812.0
814.0
812.0
808.0
806.0
803.0
805.0
805.0
805.0
807.0
809.0
812.0
810.0
809.0
808.0
806.0
804.0
806.0
807.0
805.0
807.0
807.0
808.0
810.0
817.0
813.0
810.0
806.0
807.0
803.0
799.0
799.0
802.0
804.0
809.0
810.0
813.0
812.0
808.0
810.0
807.0
815.0
819.0
824.0
828.0
830.0
832.0
837.0
837.0
837.0
839.0
837.0
837.0
833.0
835.0
835.0
840.0
846.0
852.0
858.0
858.0
854.0
851.0
845.0
840.0
839.0
840.0
838.0
838.0
837.0
835.0
833.0
829.0
824.0
821.0
814.0
805.0
803.0
799.0
798.0
799.0
802.0
806.0
809.0
812.0
814.0
809.0
808.0
806.0
805.0
806.0
799.0
801.0
805.0
809.0
821.0
838.0
868.0
914.0
980.0
1056.0
1148.0
1241.0
1342.0
1432.0
1505.0
1541.0
1550.0
1520.0
1448.0
1323.0
1195.0
1067.0
939.0
811.0
716.0
752.0
816.0
871.0
899.0
905.0
888.0
863.0
841.0
823.0
815.0
814.0
810.0
817.0
818.0
822.0
820.0
820.0
821.0
818.0
821.0
823.0
824.0
826.0
820.0
822.0
823.0
823.0
826.0
829.0
830.0
834.0
833.0
834.0
832.0
833.0
833.0
835.0
840.0
843.0
848.0
850.0
850.0
855.0
855.0
856.0
856.0
861.0
862.0
870.0
873.0
879.0
888.0
896.0
902.0
907.0
909.0
912.0
914.0
918.0
926.0
930.0
934.0
942.0
944.0
956.0
961.0
962.0
968.0
973.0
973.0
977.0
981.0
984.0
987.0
989.0
993.0
995.0
990.0
986.0
981.0
975.0
968.0
963.0
956.0
950.0
942.0
938.0
927.0
919.0
908.0
898.0
888.0
874.0
865.0
855.0
854.0
851.0
853.0
853.0
850.0
846.0
843.0
839.0
836.0
832.0
829.0
829.0
828.0
826.0
825.0
829.0
831.0
830.0
830.0
832.0
829.0
828.0
826.0
825.0
821.0
822.0
827.0
827.0
830.0
833.0
833.0
834.0
833.0
834.0
833.0
835.0
835.0
837.0
838.0
839.0
841.0
840.0
839.0
834.0
836.0
836.0
835.0
835.0
835.0
836.0
838.0
839.0
843.0
841.0
841.0
833.0
832.0
834.0
828.0
831.0
826.0
825.0
825.0
826.0
829.0
829.0
832.0
828.0
834.0
829.0
824.0
826.0
819.0
819.0
819.0
823.0
824.0
828.0
830.0
829.0
825.0
825.0
819.0
817.0
818.0
817.0
816.0
818.0
820.0
822.0
822.0
820.0
817.0
815.0
815.0
812.0
814.0
813.0
817.0
820.0
823.0
824.0
822.0
818.0
820.0
825.0
829.0
834.0
835.0
837.0
840.0
841.0
838.0
840.0
841.0
842.0
840.0
844.0
845.0
850.0
851.0
854.0
855.0
854.0
855.0
856.0
856.0
850.0
847.0
843.0
842.0
839.0
837.0
835.0
835.0
828.0
825.0
825.0
818.0
814.0
806.0
808.0
802.0
803.0
805.0
805.0
812.0
815.0
815.0
816.0
817.0
815.0
812.0
810.0
805.0
805.0
803.0
805.0
815.0
829.0
855.0
898.0
953.0
1021.0
1102.0
1190.0
1286.0
1382.0
1461.0
1522.0
1551.0
1548.0
1511.0
1429.0
1301.0
1173.0
1045.0
917.0
789.0
747.0
795.0
851.0
887.0
898.0
893.0
876.0
852.0
830.0
819.0
809.0
806.0
807.0
809.0
813.0
817.0
818.0
816.0
818.0
818.0
819.0
815.0
813.0
813.0
814.0
813.0
815.0
819.0
818.0
823.0
828.0
829.0
829.0
827.0
826.0
829.0
828.0
828.0
833.0
834.0
834.0
832.0
832.0
833.0
837.0
845.0
849.0
854.0
855.0
856.0
853.0
858.0
865.0
872.0
881.0
889.0
891.0
895.0
899.0
905.0
908.0
914.0
925.0
936.0
943.0
947.0
951.0
954.0
958.0
964.0
967.0
971.0
972.0
973.0
975.0
977.0
975.0
972.0
971.0
967.0
962.0
955.0
947.0
935.0
922.0
910.0
897.0
887.0
880.0
873.0
866.0
864.0
859.0
848.0
841.0
834.0
827.0
819.0
814.0
812.0
809.0
807.0
809.0
804.0
803.0
801.0
801.0
794.0
793.0
797.0
796.0
792.0
791.0
793.0
793.0
795.0
791.0
791.0
794.0
793.0
790.0
790.0
791.0
792.0
796.0
799.0
803.0
805.0
805.0
808.0
805.0
801.0
799.0
793.0
793.0
797.0
800.0
802.0
804.0
807.0
806.0
803.0
798.0
795.0
792.0
797.0
795.0
797.0
798.0
797.0
801.0
801.0
798.0
796.0
793.0
791.0
789.0
786.0
788.0
788.0
787.0
787.0
794.0
791.0
790.0
789.0
786.0
780.0
780.0
777.0
778.0
782.0
786.0
786.0
788.0
789.0
786.0
780.0
778.0
776.0
777.0
773.0
776.0
778.0
779.0
778.0
782.0
780.0
781.0
780.0
781.0
776.0
780.0
781.0
778.0
778.0
779.0
782.0
785.0
791.0
793.0
795.0
792.0
793.0
795.0
792.0
791.0
794.0
795.0
795.0
800.0
807.0
810.0
808.0
806.0
807.0
808.0
811.0
808.0
809.0
812.0
810.0
810.0
806.0
803.0
802.0
801.0
798.0
798.0
796.0
790.0
786.0
781.0
778.0
776.0
775.0
773.0
768.0
764.0
760.0
764.0
761.0
763.0
765.0
767.0
769.0
770.0
770.0
772.0
770.0
768.0
763.0
766.0
768.0
773.0
788.0
813.0
847.0
891.0
948.0
1013.0
1079.0
1151.0
1225.0
1305.0
1384.0
1448.0
1494.0
1510.0
1484.0
1410.0
1282.0
1154.0
1026.0
898.0
770.0
675.0
715.0
770.0
816.0
839.0
841.0
826.0
807.0
790.0
779.0
772.0
769.0
769.0
767.0
763.0
768.0
769.0
770.0
772.0
774.0
776.0
777.0
774.0
774.0
772.0
772.0
773.0
779.0
785.0
786.0
790.0
791.0
789.0
787.0
784.0
781.0
782.0
782.0
784.0
786.0
792.0
798.0
801.0
803.0
809.0
809.0
809.0
809.0
808.0
809.0
812.0
818.0
824.0
827.0
830.0
835.0
835.0
838.0
841.0
841.0
852.0
856.0
863.0
870.0
878.0
887.0
896.0
902.0
903.0
907.0
909.0
913.0
914.0
916.0
917.0
922.0
923.0
928.0
931.0
932.0
934.0
932.0
928.0
922.0
916.0
907.0
900.0
889.0
879.0
867.0
860.0
851.0
843.0
838.0
831.0
823.0
811.0
806.0
797.0
792.0
791.0
791.0
786.0
780.0
777.0
773.0
769.0
765.0
760.0
763.0
764.0
765.0
767.0
770.0
772.0
771.0
770.0
767.0
765.0
761.0
757.0
757.0
758.0
758.0
758.0
759.0
768.0
773.0
774.0
775.0
771.0
769.0
768.0
765.0
766.0
766.0
771.0
770.0
776.0
775.0
775.0
773.0
769.0
772.0
766.0
768.0
767.0
770.0
771.0
776.0
775.0
775.0
772.0
771.0
770.0
768.0
770.0
765.0
768.0
767.0
771.0
772.0
772.0
772.0
772.0
768.0
762.0
755.0
760.0
755.0
758.0
759.0
760.0
760.0
767.0
765.0
766.0
768.0
765.0
764.0
764.0
762.0
759.0
759.0
760.0
761.0
764.0
765.0
767.0
766.0
764.0
765.0
766.0
764.0
762.0
764.0
764.0
764.0
767.0
767.0
769.0
769.0
769.0
768.0
770.0
772.0
773.0
775.0
780.0
785.0
789.0
792.0
790.0
790.0
786.0
784.0
785.0
785.0
791.0
792.0
800.0
807.0
813.0
810.0
808.0
803.0
798.0
798.0
792.0
790.0
788.0
786.0
787.0
784.0
781.0
777.0
771.0
765.0
762.0
762.0
761.0
761.0
759.0
758.0
761.0
763.0
764.0
762.0
764.0
761.0
762.0
761.0
762.0
759.0
760.0
764.0
771.0
784.0
805.0
837.0
883.0
943.0
1012.0
1095.0
1183.0
1275.0
1364.0
1440.0
1490.0
1506.0
1487.0
1429.0
1307.0
1179.0
1051.0
923.0
795.0
674.0
710.0
763.0
816.0
843.0
847.0
831.0
813.0
793.0
777.0
769.0
772.0
768.0
768.0
768.0
766.0
769.0
768.0
770.0
773.0
773.0
772.0
773.0
776.0
773.0
773.0
775.0
781.0
785.0
788.0
788.0
791.0
789.0
786.0
784.0
784.0
783.0
785.0
789.0
793.0
800.0
805.0
803.0
811.0
813.0
812.0
810.0
814.0
813.0
817.0
821.0
828.0
833.0
839.0
845.0
850.0
854.0
854.0
858.0
864.0
867.0
872.0
876.0
882.0
891.0
897.0
905.0
910.0
910.0
911.0
918.0
923.0
928.0
932.0
937.0
940.0
944.0
948.0
950.0
948.0
945.0
939.0
934.0
928.0
921.0
913.0
903.0
894.0
885.0
878.0
869.0
861.0
850.0
838.0
827.0
817.0
806.0
797.0
790.0
791.0
789.0
792.0
791.0
791.0
786.0
785.0
778.0
777.0
774.0
773.0
770.0
772.0
774.0
775.0
772.0
773.0
771.0
773.0
770.0
773.0
774.0
774.0
774.0
777.0
776.0
782.0
783.0
782.0
783.0
782.0
780.0
779.0
778.0
780.0
785.0
788.0
789.0
787.0
791.0
790.0
789.0
786.0
786.0
786.0
784.0
783.0
782.0
785.0
782.0
786.0
783.0
788.0
786.0
788.0
785.0
783.0
778.0
775.0
775.0
778.0
778.0
781.0
778.0
779.0
778.0
779.0
777.0
775.0
774.0
772.0
772.0
775.0
776.0
777.0
777.0
777.0
773.0
772.0
768.0
768.0
768.0
769.0
768.0
767.0
770.0
768.0
770.0
770.0
769.0
769.0
770.0
766.0
764.0
761.0
760.0
764.0
765.0
768.0
766.0
768.0
769.0
766.0
770.0
775.0
779.0
783.0
782.0
785.0
786.0
787.0
788.0
788.0
786.0
783.0
783.0
784.0
783.0
785.0
791.0
798.0
802.0
804.0
801.0
798.0
793.0
789.0
787.0
784.0
783.0
779.0
780.0
779.0
773.0
769.0
767.0
761.0
756.0
752.0
748.0
746.0
745.0
745.0
747.0
751.0
754.0
755.0
755.0
755.0
753.0
750.0
745.0
743.0
744.0
748.0
757.0
782.0
812.0
861.0
932.0
1013.0
1101.0
1197.0
1289.0
1369.0
1440.0
1487.0
1505.0
1498.0
1455.0
1363.0
1235.0
1107.0
979.0
851.0
723.0
687.0
736.0
787.0
818.0
827.0
816.0
796.0
775.0
760.0
753.0
752.0
751.0
752.0
756.0
755.0
755.0
753.0
754.0
754.0
757.0
757.0
758.0
753.0
754.0
754.0
753.0
757.0
758.0
763.0
765.0
766.0
767.0
769.0
770.0
767.0
769.0
770.0
772.0
773.0
774.0
778.0
784.0
787.0
791.0
794.0
795.0
793.0
795.0
799.0
800.0
800.0
804.0
810.0
812.0
820.0
831.0
836.0
843.0
847.0
854.0
856.0
863.0
867.0
870.0
876.0
885.0
890.0
897.0
902.0
902.0
907.0
911.0
915.0
915.0
913.0
914.0
916.0
913.0
911.0
906.0
904.0
897.0
886.0
876.0
865.0
854.0
841.0
831.0
823.0
813.0
810.0
805.0
798.0
788.0
781.0
770.0
761.0
754.0
750.0
748.0
747.0
748.0
750.0
751.0
748.0
746.0
741.0
740.0
738.0
736.0
737.0
735.0
740.0
737.0
739.0
740.0
738.0
738.0
739.0
736.0
735.0
735.0
737.0
740.0
741.0
742.0
745.0
747.0
748.0
745.0
743.0
742.0
739.0
741.0
740.0
741.0
747.0
747.0
750.0
753.0
751.0
752.0
754.0
750.0
747.0
743.0
743.0
743.0
747.0
748.0
749.0
747.0
748.0
747.0
742.0
743.0
743.0
741.0
743.0
743.0
745.0
745.0
746.0
748.0
745.0
743.0
738.0
736.0
735.0
737.0
736.0
735.0
732.0
730.0
730.0
734.0
735.0
738.0
740.0
738.0
737.0
737.0
735.0
734.0
733.0
734.0
737.0
738.0
737.0
736.0
734.0
735.0
736.0
735.0
737.0
738.0
737.0
740.0
741.0
744.0
746.0
747.0
748.0
751.0
753.0
754.0
756.0
751.0
756.0
757.0
758.0
761.0
764.0
763.0
767.0
770.0
770.0
774.0
772.0
773.0
775.0
775.0
778.0
779.0
779.0
777.0
773.0
770.0
764.0
761.0
764.0
764.0
764.0
762.0
759.0
756.0
750.0
745.0
738.0
734.0
731.0
732.0
734.0
739.0
742.0
747.0
748.0
748.0
748.0
749.0
749.0
747.0
742.0
741.0
741.0
739.0
742.0
740.0
749.0
763.0
784.0
819.0
861.0
917.0
980.0
1053.0
1138.0
1223.0
1314.0
1394.0
1456.0
1490.0
1488.0
1445.0
1346.0
1218.0
1090.0
962.0
834.0
706.0
661.0
713.0
771.0
811.0
827.0
822.0
800.0
777.0
761.0
750.0
748.0
750.0
756.0
758.0
761.0
766.0
760.0
760.0
759.0
757.0
758.0
759.0
757.0
758.0
762.0
764.0
765.0
771.0
772.0
773.0
770.0
769.0
768.0
770.0
773.0
774.0
776.0
776.0
785.0
789.0
792.0
794.0
794.0
797.0
797.0
799.0
801.0
808.0
811.0
814.0
821.0
826.0
830.0
829.0
833.0
842.0
845.0
850.0
856.0
861.0
867.0
877.0
885.0
897.0
903.0
906.0
910.0
914.0
915.0
919.0
921.0
924.0
932.0
937.0
944.0
948.0
949.0
947.0
944.0
939.0
935.0
933.0
928.0
923.0
915.0
908.0
902.0
894.0
883.0
871.0
861.0
847.0
841.0
832.0
819.0
814.0
808.0
805.0
801.0
796.0
791.0
793.0
791.0
785.0
784.0
781.0
782.0
783.0
781.0
780.0
784.0
785.0
786.0
786.0
784.0
783.0
781.0
782.0
780.0
780.0
785.0
784.0
787.0
789.0
789.0
790.0
789.0
789.0
785.0
787.0
784.0
784.0
786.0
789.0
797.0
800.0
800.0
801.0
800.0
800.0
798.0
798.0
797.0
798.0
799.0
798.0
801.0
799.0
800.0
800.0
798.0
795.0
796.0
794.0
791.0
791.0
794.0
794.0
797.0
799.0
799.0
796.0
795.0
792.0
789.0
788.0
785.0
788.0
789.0
791.0
794.0
796.0
794.0
794.0
791.0
788.0
786.0
787.0
785.0
785.0
787.0
783.0
789.0
789.0
791.0
791.0
787.0
787.0
785.0
787.0
787.0
785.0
787.0
788.0
790.0
789.0
788.0
790.0
787.0
786.0
785.0
788.0
788.0
792.0
797.0
803.0
812.0
817.0
822.0
822.0
818.0
811.0
807.0
803.0
803.0
806.0
810.0
814.0
818.0
824.0
830.0
830.0
829.0
832.0
829.0
830.0
827.0
824.0
822.0
822.0
821.0
822.0
824.0
824.0
819.0
815.0
808.0
802.0
795.0
792.0
787.0
786.0
787.0
787.0
788.0
787.0
787.0
787.0
784.0
784.0
781.0
779.0
785.0
787.0
785.0
788.0
789.0
791.0
790.0
787.0
793.0
801.0
819.0
847.0
892.0
954.0
1033.0
1124.0
1221.0
1322.0
1414.0
1481.0
1523.0
1536.0
1522.0
1470.0
1372.0
1244.0
1116.0
988.0
860.0
732.0
731.0
778.0
829.0
858.0
864.0
850.0
827.0
808.0
794.0
788.0
787.0
789.0
791.0
790.0
791.0
788.0
785.0
789.0
792.0
792.0
795.0
798.0
799.0
796.0
798.0
795.0
797.0
800.0
801.0
799.0
804.0
805.0
807.0
809.0
809.0
809.0
807.0
809.0
812.0
817.0
817.0
823.0
826.0
829.0
835.0
838.0
838.0
836.0
835.0
841.0
842.0
842.0
847.0
852.0
858.0
864.0
874.0
883.0
889.0
897.0
902.0
901.0
899.0
905.0
911.0
916.0
926.0
931.0
940.0
945.0
951.0
955.0
956.0
957.0
957.0
957.0
958.0
956.0
959.0
958.0
952.0
950.0
946.0
940.0
931.0
918.0
908.0
899.0
886.0
876.0
867.0
855.0
845.0
837.0
828.0
821.0
813.0
809.0
805.0
799.0
792.0
790.0
790.0
790.0
792.0
791.0
796.0
790.0
789.0
783.0
781.0
780.0
780.0
779.0
783.0
782.0
781.0
784.0
785.0
785.0
784.0
785.0
783.0
783.0
781.0
783.0
784.0
787.0
788.0
791.0
790.0
789.0
785.0
783.0
782.0
786.0
785.0
787.0
787.0
791.0
792.0
796.0
795.0
792.0
789.0
787.0
786.0
