# Simple Text Format
# Sampling Rate (Hz):= 360.00
# Resolution:= 12
# Labels:= ECG
960.0
960.0
960.0
960.0
960.0
960.0
960.0
960.0
1019.0
1077.0
1140.0
1209.0
1286.0
1358.0
1426.0
1472.0
1487.0
1461.0
1378.0
1250.0
1122.0
994.0
866.0
738.0
696.0
747.0
803.0
840.0
853.0
844.0
825.0
806.0
790.0
784.0
788.0
787.0
793.0
795.0
799.0
797.0
793.0
791.0
789.0
787.0
787.0
787.0
795.0
797.0
800.0
804.0
809.0
806.0
804.0
803.0
802.0
802.0
801.0
802.0
809.0
808.0
814.0
817.0
817.0
819.0
820.0
822.0
824.0
824.0
828.0
832.0
837.0
840.0
845.0
847.0
845.0
851.0
856.0
858.0
860.0
862.0
869.0
877.0
885.0
893.0
902.0
909.0
913.0
921.0
921.0
926.0
927.0
930.0
930.0
935.0
939.0
945.0
953.0
956.0
957.0
956.0
954.0
949.0
946.0
941.0
936.0
928.0
925.0
918.0
911.0
903.0
892.0
884.0
876.0
864.0
857.0
845.0
835.0
826.0
820.0
814.0
812.0
806.0
800.0
800.0
795.0
790.0
783.0
773.0
772.0
772.0
775.0
779.0
781.0
781.0
778.0
776.0
775.0
772.0
771.0
769.0
770.0
768.0
772.0
772.0
777.0
776.0
776.0
777.0
775.0
775.0
774.0
770.0
771.0
775.0
778.0
782.0
783.0
781.0
778.0
777.0
774.0
771.0
771.0
770.0
770.0
771.0
774.0
776.0
779.0
777.0
775.0
772.0
768.0
764.0
764.0
763.0
763.0
767.0
766.0
765.0
765.0
764.0
763.0
762.0
759.0
761.0
756.0
756.0
755.0
759.0
758.0
761.0
763.0
765.0
763.0
764.0
763.0
760.0
757.0
757.0
752.0
753.0
754.0
753.0
756.0
755.0
754.0
749.0
747.0
747.0
751.0
751.0
750.0
752.0
755.0
759.0
763.0
770.0
770.0
771.0
769.0
763.0
759.0
758.0
759.0
764.0
770.0
773.0
776.0
777.0
782.0
785.0
785.0
784.0
783.0
784.0
784.0
783.0
781.0
782.0
781.0
778.0
775.0
772.0
768.0
764.0
762.0
754.0
749.0
747.0
744.0
744.0
744.0
744.0
746.0
749.0
747.0
748.0
746.0
742.0
739.0
738.0
740.0
740.0
744.0
747.0
745.0
745.0
745.0
749.0
756.0
766.0
783.0
815.0
850.0
899.0
948.0
1003.0
1051.0
1103.0
1157.0
1219.0
1275.0
1310.0
1314.0
1265.0
1157.0
1029.0
901.0
773.0
645.0
610.0
644.0
696.0
746.0
777.0
787.0
784.0
776.0
767.0
760.0
754.0
752.0
752.0
751.0
751.0
751.0
745.0
745.0
748.0
748.0
751.0
757.0
763.0
766.0
767.0
765.0
764.0
766.0
766.0
765.0
769.0
772.0
777.0
779.0
779.0
781.0
782.0
778.0
781.0
785.0
786.0
788.0
793.0
797.0
804.0
809.0
811.0
815.0
817.0
816.0
815.0
819.0
819.0
821.0
828.0
835.0
839.0
849.0
853.0
858.0
862.0
870.0
874.0
878.0
873.0
884.0
883.0
887.0
892.0
897.0
902.0
904.0
904.0
904.0
904.0
903.0
900.0
901.0
896.0
896.0
894.0
891.0
884.0
874.0
870.0
858.0
847.0
839.0
829.0
825.0
822.0
813.0
811.0
810.0
808.0
801.0
798.0
793.0
788.0
782.0
777.0
776.0
778.0
779.0
780.0
781.0
780.0
782.0
778.0
777.0
775.0
774.0
774.0
773.0
774.0
776.0
778.0
781.0
784.0
783.0
784.0
781.0
780.0
786.0
784.0
786.0
787.0
791.0
794.0
794.0
796.0
795.0
795.0
793.0
791.0
793.0
794.0
794.0
794.0
792.0
792.0
793.0
795.0
796.0
800.0
797.0
797.0
797.0
791.0
792.0
794.0
795.0
795.0
797.0
796.0
789.0
790.0
787.0
785.0
786.0
786.0
782.0
783.0
788.0
789.0
792.0
790.0
789.0
787.0
789.0
787.0
785.0
784.0
784.0
783.0
782.0
782.0
789.0
789.0
791.0
794.0
791.0
786.0
783.0
777.0
776.0
780.0
783.0
784.0
786.0
783.0
785.0
784.0
779.0
783.0
781.0
782.0
783.0
784.0
792.0
796.0
799.0
800.0
801.0
803.0
806.0
806.0
803.0
803.0
802.0
801.0
805.0
806.0
809.0
814.0
814.0
821.0
825.0
827.0
830.0
831.0
826.0
823.0
821.0
825.0
825.0
827.0
826.0
823.0
817.0
811.0
809.0
802.0
795.0
793.0
787.0
788.0
787.0
784.0
782.0
782.0
780.0
783.0
782.0
783.0
783.0
784.0
784.0
784.0
787.0
789.0
789.0
790.0
783.0
778.0
781.0
783.0
786.0
797.0
820.0
850.0
892.0
952.0
1020.0
1094.0
1172.0
1250.0
1328.0
1399.0
1451.0
1487.0
1499.0
1488.0
1438.0
1337.0
1209.0
1081.0
953.0
825.0
697.0
690.0
744.0
803.0
848.0
864.0
856.0
841.0
820.0
803.0
792.0
792.0
791.0
795.0
794.0
797.0
796.0
795.0
797.0
799.0
797.0
800.0
803.0
804.0
804.0
800.0
801.0
804.0
807.0
811.0
812.0
816.0
816.0
816.0
816.0
818.0
816.0
816.0
819.0
820.0
823.0
824.0
829.0
834.0
833.0
838.0
840.0
841.0
845.0
849.0
852.0
853.0
856.0
859.0
866.0
870.0
880.0
884.0
892.0
892.0
892.0
895.0
898.0
903.0
911.0
921.0
929.0
941.0
948.0
953.0
957.0
958.0
959.0
965.0
969.0
974.0
978.0
982.0
983.0
986.0
982.0
987.0
979.0
979.0
974.0
968.0
963.0
954.0
948.0
937.0
927.0
917.0
901.0
888.0
874.0
861.0
847.0
838.0
829.0
826.0
825.0
820.0
820.0
820.0
816.0
814.0
811.0
806.0
803.0
799.0
799.0
796.0
796.0
797.0
798.0
802.0
802.0
802.0
800.0
795.0
797.0
797.0
795.0
798.0
798.0
801.0
802.0
804.0
805.0
802.0
802.0
802.0
803.0
805.0
803.0
802.0
805.0
807.0
808.0
811.0
812.0
808.0
809.0
806.0
805.0
802.0
801.0
803.0
801.0
799.0
803.0
805.0
809.0
802.0
803.0
801.0
797.0
793.0
792.0
793.0
794.0
795.0
796.0
800.0
797.0
796.0
796.0
792.0
788.0
788.0
789.0
787.0
787.0
787.0
788.0
789.0
786.0
787.0
786.0
787.0
785.0
785.0
784.0
785.0
784.0
786.0
786.0
786.0
784.0
783.0
782.0
782.0
780.0
778.0
777.0
779.0
782.0
785.0
789.0
797.0
799.0
803.0
805.0
801.0
800.0
801.0
798.0
802.0
802.0
804.0
808.0
811.0
816.0
818.0
823.0
822.0
824.0
821.0
822.0
824.0
823.0
824.0
822.0
822.0
818.0
810.0
807.0
806.0
802.0
803.0
799.0
792.0
788.0
785.0
779.0
778.0
778.0
774.0
771.0
769.0
769.0
770.0
767.0
766.0
771.0
771.0
776.0
779.0
779.0
782.0
781.0
779.0
776.0
778.0
783.0
791.0
810.0
839.0
880.0
941.0
1011.0
1087.0
1173.0
1259.0
1346.0
1419.0
1476.0
1511.0
1523.0
1512.0
1468.0
1382.0
1254.0
1126.0
998.0
870.0
742.0
674.0
723.0
784.0
835.0
860.0
860.0
846.0
820.0
802.0
791.0
787.0
787.0
791.0
794.0
797.0
801.0
795.0
794.0
791.0
789.0
789.0
790.0
791.0
792.0
801.0
804.0
802.0
804.0
804.0
806.0
814.0
813.0
816.0
813.0
814.0
814.0
814.0
814.0
818.0
820.0
824.0
830.0
834.0
838.0
840.0
838.0
839.0
838.0
842.0
846.0
851.0
856.0
859.0
865.0
870.0
875.0
884.0
888.0
889.0
889.0
898.0
901.0
908.0
916.0
924.0
934.0
944.0
951.0
959.0
962.0
963.0
968.0
970.0
969.0
973.0
974.0
978.0
978.0
979.0
976.0
978.0
976.0
969.0
962.0
953.0
946.0
935.0
927.0
914.0
904.0
894.0
881.0
872.0
862.0
848.0
837.0
825.0
818.0
811.0
813.0
809.0
809.0
806.0
807.0
803.0
799.0
799.0
794.0
792.0
791.0
791.0
789.0
790.0
789.0
789.0
797.0
792.0
789.0
789.0
789.0
788.0
789.0
792.0
797.0
798.0
802.0
804.0
800.0
802.0
796.0
794.0
795.0
794.0
794.0
792.0
795.0
796.0
796.0
795.0
796.0
795.0
800.0
797.0
794.0
794.0
790.0
793.0
792.0
795.0
794.0
795.0
794.0
790.0
786.0
781.0
779.0
777.0
782.0
779.0
780.0
784.0
784.0
783.0
785.0
783.0
779.0
778.0
777.0
774.0
772.0
768.0
773.0
775.0
779.0
777.0
775.0
772.0
769.0
768.0
763.0
762.0
762.0
767.0
767.0
769.0
772.0
771.0
772.0
770.0
769.0
766.0
764.0
765.0
766.0
768.0
773.0
776.0
780.0
785.0
787.0
782.0
781.0
781.0
779.0
782.0
782.0
788.0
792.0
796.0
800.0
803.0
805.0
806.0
804.0
796.0
795.0
788.0
782.0
781.0
781.0
778.0
781.0
776.0
772.0
767.0
760.0
755.0
754.0
751.0
747.0
746.0
743.0
744.0
749.0
747.0
751.0
751.0
750.0
748.0
746.0
743.0
743.0
744.0
746.0
750.0
756.0
763.0
780.0
796.0
823.0
867.0
929.0
1009.0
1100.0
1207.0
1311.0
1404.0
1469.0
1490.0
1450.0
1340.0
1212.0
1084.0
956.0
828.0
700.0
629.0
699.0
768.0
814.0
828.0
819.0
799.0
774.0
753.0
745.0
743.0
748.0
754.0
757.0
762.0
762.0
764.0
757.0
759.0
754.0
756.0
754.0
757.0
756.0
756.0
762.0
763.0
773.0
773.0
772.0
775.0
775.0
774.0
775.0
776.0
778.0
780.0
787.0
787.0
794.0
798.0
799.0
799.0
803.0
803.0
806.0
808.0
811.0
814.0
819.0
822.0
829.0
829.0
834.0
833.0
844.0
849.0
856.0
860.0
862.0
869.0
874.0
883.0
893.0
902.0
904.0
905.0
905.0
908.0
913.0
915.0
916.0
923.0
929.0
934.0
938.0
938.0
938.0
935.0
930.0
925.0
920.0
910.0
902.0
889.0
881.0
876.0
867.0
857.0
841.0
831.0
825.0
817.0
804.0
793.0
785.0
779.0
776.0
772.0
769.0
765.0
762.0
757.0
754.0
748.0
748.0
745.0
744.0
747.0
748.0
745.0
751.0
751.0
751.0
750.0
745.0
746.0
743.0
741.0
741.0
744.0
749.0
751.0
754.0
755.0
755.0
754.0
755.0
753.0
754.0
753.0
751.0
750.0
752.0
755.0
756.0
758.0
758.0
757.0
755.0
752.0
751.0
751.0
749.0
751.0
754.0
754.0
754.0
752.0
745.0
743.0
740.0
740.0
737.0
741.0
738.0
737.0
738.0
743.0
747.0
747.0
747.0
743.0
742.0
740.0
740.0
735.0
735.0
735.0
738.0
737.0
740.0
739.0
743.0
741.0
739.0
742.0
739.0
737.0
736.0
735.0
736.0
736.0
737.0
737.0
739.0
736.0
738.0
739.0
744.0
743.0
746.0
752.0
758.0
759.0
763.0
762.0
762.0
762.0
758.0
759.0
759.0
758.0
759.0
757.0
763.0
769.0
775.0
781.0
783.0
785.0
782.0
778.0
775.0
769.0
764.0
763.0
765.0
765.0
768.0
765.0
761.0
757.0
750.0
743.0
742.0
741.0
737.0
738.0
737.0
737.0
740.0
738.0
738.0
739.0
740.0
739.0
739.0
737.0
739.0
742.0
744.0
747.0
751.0
756.0
768.0
778.0
799.0
831.0
886.0
946.0
1027.0
1118.0
1210.0
1303.0
1393.0
1448.0
1461.0
1424.0
1319.0
1191.0
1063.0
935.0
807.0
679.0
605.0
670.0
740.0
792.0
814.0
815.0
804.0
785.0
771.0
756.0
752.0
750.0
753.0
762.0
763.0
765.0
765.0
764.0
763.0
764.0
766.0
767.0
767.0
769.0
772.0
773.0
779.0
781.0
781.0
782.0
780.0
779.0
780.0
782.0
786.0
788.0
797.0
803.0
807.0
813.0
814.0
814.0
813.0
811.0
812.0
812.0
812.0
815.0
825.0
830.0
836.0
841.0
851.0
855.0
858.0
862.0
865.0
866.0
867.0
877.0
885.0
893.0
902.0
908.0
915.0
920.0
923.0
925.0
931.0
932.0
935.0
941.0
945.0
946.0
950.0
948.0
946.0
943.0
940.0
936.0
930.0
924.0
917.0
912.0
903.0
895.0
889.0
882.0
873.0
863.0
851.0
839.0
829.0
816.0
808.0
799.0
793.0
789.0
790.0
785.0
781.0
778.0
773.0
770.0
767.0
765.0
759.0
761.0
760.0
761.0
768.0
767.0
769.0
771.0
768.0
766.0
768.0
763.0
762.0
765.0
772.0
775.0
777.0
779.0
779.0
777.0
779.0
778.0
779.0
777.0
774.0
774.0
776.0
775.0
778.0
779.0
780.0
779.0
777.0
776.0
774.0
773.0
770.0
772.0
774.0
774.0
776.0
771.0
772.0
771.0
769.0
766.0
761.0
760.0
758.0
760.0
760.0
760.0
763.0
766.0
764.0
764.0
764.0
762.0
758.0
756.0
754.0
752.0
755.0
757.0
759.0
760.0
760.0
761.0
758.0
756.0
756.0
753.0
754.0
756.0
758.0
759.0
758.0
759.0
758.0
759.0
756.0
756.0
752.0
751.0
749.0
750.0
748.0
755.0
760.0
762.0
766.0
766.0
768.0
771.0
771.0
767.0
769.0
767.0
768.0
772.0
777.0
778.0
781.0
782.0
784.0
783.0
783.0
787.0
793.0
799.0
800.0
799.0
799.0
793.0
787.0
782.0
776.0
772.0
770.0
768.0
766.0
762.0
756.0
753.0
751.0
748.0
749.0
744.0
740.0
744.0
743.0
746.0
744.0
744.0
742.0
744.0
750.0
748.0
750.0
746.0
745.0
748.0
750.0
759.0
772.0
796.0
832.0
878.0
936.0
1007.0
1084.0
1166.0
1258.0
1349.0
1422.0
1472.0
1486.0
1454.0
1358.0
1230.0
1102.0
974.0
846.0
718.0
649.0
703.0
766.0
810.0
826.0
824.0
806.0
785.0
768.0
762.0
756.0
759.0
759.0
764.0
762.0
763.0
760.0
761.0
764.0
764.0
765.0
771.0
771.0
774.0
772.0
771.0
770.0
770.0
772.0
772.0
776.0
781.0
784.0
790.0
791.0
790.0
789.0
791.0
789.0
790.0
793.0
795.0
799.0
808.0
808.0
818.0
818.0
821.0
821.0
822.0
824.0
825.0
829.0
834.0
837.0
845.0
853.0
860.0
866.0
872.0
877.0
884.0
890.0
896.0
899.0
905.0
913.0
916.0
922.0
924.0
934.0
939.0
939.0
944.0
944.0
945.0
948.0
951.0
952.0
955.0
957.0
950.0
944.0
937.0
927.0
921.0
914.0
905.0
894.0
884.0
878.0
868.0
864.0
853.0
843.0
833.0
817.0
807.0
800.0
791.0
785.0
781.0
779.0
778.0
778.0
777.0
773.0
772.0
772.0
770.0
771.0
767.0
767.0
765.0
764.0
766.0
766.0
766.0
771.0
769.0
769.0
768.0
770.0
768.0
770.0
772.0
775.0
775.0
779.0
780.0
780.0
779.0
777.0
773.0
770.0
769.0
768.0
771.0
773.0
777.0
779.0
781.0
775.0
773.0
772.0
773.0
770.0
769.0
768.0
768.0
767.0
768.0
770.0
771.0
773.0
769.0
767.0
764.0
758.0
756.0
754.0
755.0
757.0
762.0
761.0
762.0
758.0
757.0
756.0
756.0
756.0
755.0
749.0
748.0
749.0
750.0
748.0
757.0
757.0
755.0
755.0
752.0
751.0
748.0
748.0
747.0
751.0
756.0
757.0
757.0
753.0
752.0
754.0
752.0
757.0
758.0
759.0
762.0
765.0
768.0
771.0
773.0
772.0
772.0
770.0
774.0
772.0
780.0
780.0
785.0
789.0
793.0
797.0
798.0
796.0
790.0
782.0
777.0
772.0
768.0
769.0
768.0
767.0
770.0
767.0
765.0
758.0
749.0
742.0
742.0
736.0
734.0
736.0
742.0
746.0
749.0
753.0
751.0
753.0
749.0
746.0
742.0
741.0
739.0
741.0
744.0
747.0
753.0
760.0
772.0
787.0
810.0
837.0
876.0
924.0
979.0
1042.0
1112.0
1192.0
1279.0
1360.0
1422.0
1453.0
1432.0
1347.0
1219.0
1091.0
963.0
835.0
707.0
613.0
661.0
729.0
780.0
813.0
820.0
806.0
786.0
765.0
754.0
745.0
747.0
748.0
756.0
757.0
757.0
755.0
752.0
754.0
756.0
754.0
756.0
757.0
761.0
764.0
767.0
770.0
771.0
770.0
769.0
768.0
768.0
766.0
768.0
770.0
772.0
774.0
781.0
783.0
789.0
792.0
793.0
792.0
794.0
797.0
795.0
799.0
803.0
804.0
811.0
816.0
823.0
826.0
830.0
830.0
831.0
832.0
833.0
841.0
847.0
858.0
865.0
872.0
881.0
883.0
887.0
890.0
896.0
899.0
905.0
909.0
909.0
910.0
915.0
920.0
921.0
926.0
926.0
922.0
921.0
916.0
915.0
911.0
909.0
904.0
899.0
894.0
884.0
874.0
864.0
853.0
845.0
835.0
822.0
814.0
806.0
801.0
792.0
790.0
788.0
780.0
776.0
770.0
765.0
762.0
760.0
758.0
757.0
759.0
757.0
757.0
760.0
757.0
757.0
755.0
755.0
755.0
753.0
756.0
756.0
758.0
760.0
761.0
762.0
762.0
761.0
760.0
758.0
757.0
754.0
750.0
754.0
757.0
763.0
765.0
769.0
771.0
769.0
768.0
765.0
761.0
762.0
760.0
762.0
763.0
765.0
764.0
766.0
763.0
763.0
762.0
760.0
762.0
761.0
761.0
757.0
755.0
751.0
750.0
749.0
747.0
748.0
745.0
746.0
744.0
744.0
742.0
740.0
744.0
743.0
744.0
746.0
747.0
744.0
744.0
742.0
739.0
741.0
740.0
741.0
744.0
743.0
746.0
748.0
747.0
747.0
745.0
741.0
741.0
742.0
737.0
734.0
736.0
737.0
738.0
743.0
748.0
749.0
757.0
760.0
758.0
758.0
757.0
756.0
756.0
755.0
760.0
761.0
763.0
762.0
762.0
763.0
766.0
774.0
776.0
777.0
777.0
780.0
778.0
777.0
774.0
772.0
764.0
759.0
758.0
761.0
762.0
756.0
757.0
753.0
748.0
744.0
738.0
733.0
732.0
729.0
728.0
728.0
731.0
731.0
733.0
735.0
740.0
742.0
741.0
739.0
735.0
731.0
734.0
741.0
751.0
771.0
799.0
837.0
891.0
958.0
1033.0
1118.0
1200.0
1282.0
1353.0
1404.0
1437.0
1443.0
1406.0
1317.0
1189.0
1061.0
933.0
805.0
677.0
625.0
677.0
734.0
778.0
795.0
795.0
780.0
762.0
750.0
741.0
739.0
740.0
742.0
742.0
743.0
744.0
745.0
744.0
747.0
746.0
754.0
758.0
759.0
759.0
758.0
756.0
759.0
757.0
755.0
758.0
760.0
763.0
767.0
772.0
771.0
773.0
773.0
771.0
776.0
777.0
779.0
786.0
791.0
798.0
802.0
805.0
806.0
806.0
809.0
811.0
816.0
818.0
823.0
829.0
833.0
834.0
841.0
848.0
855.0
858.0
863.0
862.0
871.0
878.0
882.0
889.0
895.0
903.0
905.0
911.0
911.0
910.0
907.0
904.0
903.0
900.0
901.0
903.0
905.0
899.0
903.0
897.0
889.0
879.0
866.0
855.0
843.0
835.0
827.0
821.0
812.0
804.0
803.0
799.0
792.0
786.0
782.0
774.0
773.0
767.0
765.0
766.0
765.0
765.0
767.0
765.0
763.0
756.0
756.0
757.0
756.0
755.0
755.0
759.0
762.0
764.0
766.0
766.0
765.0
763.0
759.0
761.0
761.0
761.0
762.0
764.0
769.0
770.0
766.0
768.0
768.0
770.0
769.0
767.0
764.0
765.0
767.0
768.0
768.0
773.0
774.0
773.0
773.0
771.0
768.0
765.0
766.0
766.0
763.0
765.0
763.0
767.0
768.0
767.0
768.0
762.0
759.0
758.0
757.0
760.0
760.0
763.0
764.0
764.0
762.0
761.0
757.0
756.0
757.0
757.0
755.0
756.0
755.0
757.0
761.0
761.0
762.0
761.0
765.0
761.0
759.0
760.0
757.0
755.0
757.0
756.0
759.0
759.0
762.0
764.0
764.0
765.0
766.0
768.0
768.0
771.0
774.0
776.0
777.0
779.0
780.0
782.0
782.0
780.0
779.0
782.0
781.0
785.0
788.0
792.0
799.0
800.0
799.0
801.0
795.0
792.0
789.0
783.0
781.0
779.0
781.0
779.0
782.0
780.0
777.0
772.0
768.0
761.0
755.0
751.0
747.0
746.0
747.0
748.0
750.0
753.0
756.0
758.0
758.0
755.0
755.0
753.0
757.0
755.0
758.0
761.0
766.0
777.0
797.0
824.0
866.0
922.0
994.0
1072.0
1161.0
1254.0
1350.0
1428.0
1481.0
1502.0
1479.0
1405.0
1282.0
1154.0
1026.0
898.0
770.0
652.0
668.0
720.0
773.0
811.0
827.0
824.0
807.0
785.0
771.0
762.0
762.0
758.0
764.0
770.0
774.0
774.0
773.0
773.0
771.0
772.0
770.0
770.0
772.0
771.0
775.0
778.0
781.0
784.0
786.0
787.0
787.0
785.0
787.0
786.0
786.0
788.0
791.0
792.0
797.0
803.0
808.0
809.0
810.0
815.0
814.0
817.0
816.0
821.0
822.0
829.0
833.0
840.0
850.0
858.0
861.0
862.0
865.0
868.0
877.0
875.0
880.0
888.0
895.0
906.0
913.0
915.0
919.0
921.0
927.0
927.0
930.0
929.0
931.0
932.0
931.0
929.0
927.0
928.0
923.0
916.0
907.0
901.0
893.0
883.0
872.0
862.0
853.0
843.0
840.0
829.0
821.0
811.0
803.0
794.0
787.0
785.0
779.0
781.0
780.0
778.0
777.0
775.0
771.0
771.0
768.0
768.0
765.0
762.0
761.0
762.0
766.0
768.0
768.0
769.0
771.0
769.0
766.0
767.0
766.0
765.0
768.0
768.0
771.0
772.0
775.0
773.0
774.0
776.0
774.0
774.0
774.0
771.0
771.0
768.0
771.0
771.0
775.0
780.0
780.0
778.0
776.0
773.0
770.0
767.0
767.0
767.0
771.0
769.0
770.0
765.0
764.0
761.0
760.0
765.0
766.0
761.0
761.0
759.0
763.0
763.0
766.0
769.0
770.0
768.0
764.0
762.0
760.0
758.0
757.0
758.0
760.0
760.0
759.0
757.0
759.0
759.0
759.0
759.0
760.0
757.0
758.0
758.0
760.0
763.0
764.0
764.0
761.0
764.0
761.0
758.0
755.0
753.0
754.0
760.0
769.0
776.0
779.0
782.0
782.0
782.0
778.0
778.0
776.0
775.0
778.0
782.0
786.0
790.0
796.0
797.0
796.0
798.0
797.0
795.0
791.0
788.0
787.0
786.0
786.0
783.0
788.0
785.0
783.0
781.0
776.0
769.0
764.0
758.0
753.0
753.0
751.0
751.0
754.0
757.0
756.0
758.0
755.0
755.0
752.0
751.0
751.0
752.0
757.0
760.0
763.0
760.0
760.0
762.0
766.0
773.0
789.0
812.0
842.0
884.0
935.0
987.0
1043.0
1099.0
1157.0
1224.0
1293.0
1352.0
1391.0
1393.0
1339.0
1228.0
1100.0
972.0
844.0
716.0
642.0
669.0
719.0
773.0
809.0
820.0
815.0
804.0
790.0
779.0
775.0
772.0
775.0
774.0
777.0
774.0
773.0
771.0
771.0
772.0
776.0
777.0
780.0
776.0
780.0
780.0
779.0
783.0
786.0
785.0
789.0
792.0
790.0
798.0
796.0
802.0
799.0
800.0
798.0
802.0
804.0
807.0
809.0
813.0
816.0
821.0
824.0
827.0
829.0
833.0
837.0
840.0
845.0
846.0
849.0
853.0
856.0
861.0
867.0
874.0
879.0
882.0
890.0
894.0
901.0
903.0
908.0
914.0
921.0
926.0
937.0
942.0
948.0
952.0
954.0
955.0
954.0
954.0
952.0
954.0
959.0
961.0
966.0
965.0
961.0
957.0
948.0
935.0
925.0
915.0
904.0
898.0
890.0
882.0
878.0
871.0
861.0
852.0
845.0
838.0
834.0
827.0
825.0
826.0
823.0
822.0
818.0
815.0
814.0
810.0
808.0
809.0
808.0
807.0
806.0
806.0
809.0
809.0
814.0
816.0
817.0
814.0
811.0
810.0
807.0
808.0
809.0
812.0
815.0
817.0
821.0
822.0
824.0
823.0
820.0
820.0
819.0
819.0
818.0
818.0
821.0
827.0
830.0
831.0
827.0
825.0
822.0
822.0
820.0
817.0
816.0
818.0
817.0
816.0
817.0
820.0
820.0
818.0
814.0
814.0
811.0
812.0
811.0
812.0
813.0
816.0
818.0
815.0
813.0
810.0
808.0
807.0
809.0
806.0
807.0
807.0
809.0
810.0
814.0
813.0
813.0
812.0
807.0
805.0
805.0
806.0
807.0
808.0
806.0
809.0
816.0
813.0
814.0
810.0
811.0
813.0
815.0
819.0
826.0
826.0
832.0
832.0
836.0
840.0
840.0
837.0
836.0
832.0
834.0
836.0
841.0
846.0
850.0
850.0
852.0
849.0
849.0
849.0
846.0
843.0
843.0
835.0
832.0
828.0
825.0
820.0
819.0
815.0
812.0
812.0
807.0
804.0
798.0
795.0
798.0
799.0
805.0
806.0
808.0
807.0
809.0
805.0
803.0
798.0
797.0
797.0
798.0
807.0
818.0
835.0
858.0
888.0
930.0
982.0
1048.0
1121.0
1202.0
1290.0
1371.0
1444.0
1493.0
1511.0
1487.0
1404.0
1276.0
1148.0
1020.0
892.0
764.0
689.0
739.0
807.0
864.0
892.0
894.0
879.0
855.0
832.0
817.0
810.0
807.0
808.0
812.0
815.0
818.0
819.0
821.0
823.0
824.0
826.0
826.0
824.0
824.0
825.0
821.0
820.0
823.0
821.0
826.0
827.0
831.0
832.0
832.0
832.0
834.0
837.0
840.0
842.0
844.0
845.0
850.0
850.0
851.0
854.0
850.0
851.0
856.0
858.0
862.0
864.0
869.0
876.0
883.0
888.0
891.0
895.0
897.0
901.0
902.0
908.0
914.0
921.0
926.0
934.0
938.0
949.0
956.0
960.0
963.0
966.0
966.0
971.0
973.0
975.0
979.0
981.0
988.0
991.0
991.0
987.0
984.0
977.0
973.0
966.0
958.0
946.0
940.0
933.0
924.0
916.0
907.0
899.0
887.0
876.0
873.0
863.0
860.0
856.0
850.0
847.0
842.0
839.0
834.0
829.0
826.0
819.0
819.0
821.0
816.0
817.0
823.0
826.0
828.0
828.0
830.0
826.0
827.0
823.0
822.0
820.0
822.0
819.0
822.0
819.0
822.0
822.0
822.0
821.0
822.0
823.0
825.0
824.0
824.0
829.0
828.0
830.0
832.0
830.0
828.0
826.0
820.0
821.0
822.0
822.0
821.0
819.0
822.0
822.0
826.0
830.0
828.0
828.0
823.0
821.0
818.0
817.0
818.0
821.0
822.0
824.0
826.0
822.0
817.0
812.0
812.0
814.0
813.0
814.0
818.0
816.0
814.0
817.0
816.0
818.0
820.0
819.0
814.0
812.0
813.0
812.0
814.0
815.0
815.0
814.0
816.0
815.0
810.0
810.0
809.0
808.0
806.0
807.0
808.0
811.0
814.0
819.0
827.0
834.0
836.0
839.0
841.0
838.0
839.0
838.0
836.0
834.0
835.0
837.0
840.0
845.0
853.0
854.0
857.0
856.0
852.0
849.0
847.0
846.0
846.0
842.0
841.0
839.0
838.0
836.0
831.0
827.0
824.0
817.0
810.0
807.0
804.0
804.0
805.0
802.0
803.0
799.0
798.0
800.0
799.0
801.0
799.0
803.0
804.0
806.0
807.0
810.0
809.0
808.0
814.0
825.0
848.0
885.0
942.0
1016.0
1111.0
1215.0
1322.0
1417.0
1486.0
1519.0
1504.0
1427.0
1299.0
1171.0
1043.0
915.0
787.0
663.0
718.0
793.0
855.0
886.0
887.0
869.0
842.0
822.0
807.0
802.0
803.0
807.0
811.0
817.0
813.0
814.0
813.0
813.0
814.0
812.0
815.0
813.0
814.0
819.0
822.0
821.0
823.0
827.0
828.0
828.0
828.0
829.0
831.0
831.0
837.0
843.0
845.0
847.0
851.0
850.0
854.0
851.0
849.0
852.0
853.0
856.0
860.0
864.0
869.0
876.0
881.0
887.0
889.0
896.0
898.0
903.0
909.0
913.0
920.0
929.0
933.0
939.0
941.0
943.0
946.0
950.0
957.0
962.0
964.0
970.0
976.0
980.0
984.0
987.0
986.0
985.0
985.0
981.0
977.0
974.0
967.0
963.0
956.0
953.0
947.0
938.0
930.0
920.0
910.0
903.0
892.0
883.0
875.0
868.0
861.0
855.0
852.0
848.0
844.0
839.0
835.0
831.0
830.0
829.0
825.0
826.0
828.0
826.0
827.0
828.0
827.0
825.0
819.0
816.0
816.0
817.0
817.0
814.0
812.0
818.0
822.0
822.0
823.0
822.0
822.0
821.0
823.0
823.0
823.0
822.0
825.0
823.0
825.0
825.0
821.0
824.0
823.0
821.0
819.0
820.0
822.0
825.0
825.0
824.0
826.0
828.0
825.0
823.0
820.0
820.0
818.0
815.0
815.0
812.0
814.0
810.0
812.0
816.0
813.0
812.0
813.0
809.0
807.0
805.0
803.0
801.0
803.0
803.0
804.0
806.0
801.0
799.0
798.0
797.0
795.0
796.0
800.0
801.0
804.0
802.0
799.0
800.0
800.0
799.0
799.0
794.0
793.0
788.0
788.0
790.0
795.0
797.0
799.0
799.0
803.0
801.0
802.0
804.0
804.0
810.0
812.0
814.0
815.0
815.0
817.0
814.0
816.0
813.0
816.0
816.0
819.0
823.0
824.0
827.0
831.0
836.0
837.0
838.0
833.0
833.0
829.0
823.0
821.0
817.0
814.0
813.0
815.0
812.0
808.0
807.0
799.0
792.0
783.0
777.0
773.0
771.0
770.0
775.0
780.0
783.0
786.0
785.0
787.0
790.0
790.0
792.0
788.0
788.0
785.0
785.0
780.0
784.0
789.0
802.0
829.0
863.0
914.0
978.0
1053.0
1144.0
1238.0
1338.0
1424.0
1486.0
1521.0
1526.0
1493.0
1410.0
1282.0
1154.0
1026.0
898.0
770.0
678.0
733.0
793.0
837.0
853.0
847.0
827.0
804.0
787.0
780.0
781.0
781.0
788.0
791.0
795.0
795.0
795.0
792.0
792.0
792.0
790.0
791.0
789.0
791.0
792.0
797.0
800.0
804.0
807.0
808.0
809.0
806.0
807.0
807.0
809.0
811.0
807.0
811.0
811.0
817.0
822.0
827.0
831.0
835.0
838.0
838.0
839.0
841.0
842.0
848.0
852.0
860.0
865.0
869.0
872.0
875.0
878.0
879.0
881.0
889.0
897.0
903.0
