# Simple Text Format
# Sampling Rate (Hz):= 360.00
# Resolution:= 12
# Labels:= ECG
812.0
813.0
809.0
809.0
807.0
808.0
808.0
809.0
809.0
810.0
807.0
805.0
806.0
803.0
805.0
806.0
805.0
803.0
802.0
800.0
798.0
799.0
798.0
799.0
798.0
799.0
797.0
794.0
792.0
795.0
798.0
802.0
805.0
806.0
804.0
799.0
797.0
797.0
797.0
800.0
798.0
798.0
800.0
802.0
805.0
802.0
803.0
800.0
801.0
802.0
801.0
800.0
802.0
806.0
813.0
817.0
821.0
824.0
826.0
826.0
825.0
823.0
822.0
824.0
823.0
826.0
827.0
834.0
841.0
839.0
841.0
842.0
839.0
839.0
836.0
834.0
835.0
835.0
834.0
837.0
839.0
835.0
836.0
825.0
815.0
807.0
799.0
793.0
793.0
794.0
793.0
798.0
802.0
797.0
798.0
794.0
795.0
792.0
793.0
797.0
802.0
803.0
803.0
803.0
802.0
798.0
801.0
816.0
833.0
867.0
918.0
988.0
1075.0
1168.0
1263.0
1357.0
1436.0
1490.0
1519.0
1520.0
1498.0
1457.0
1378.0
1254.0
1126.0
998.0
870.0
742.0
728.0
769.0
822.0
861.0
875.0
871.0
850.0
832.0
817.0
811.0
808.0
811.0
816.0
813.0
810.0
809.0
808.0
806.0
805.0
808.0
807.0
811.0
815.0
821.0
823.0
823.0
824.0
822.0
824.0
821.0
820.0
823.0
821.0
825.0
828.0
831.0
835.0
839.0
841.0
842.0
842.0
846.0
845.0
849.0
853.0
855.0
858.0
861.0
867.0
868.0
871.0
871.0
872.0
875.0
880.0
887.0
892.0
903.0
910.0
917.0
923.0
924.0
925.0
929.0
935.0
942.0
952.0
959.0
963.0
968.0
975.0
980.0
981.0
983.0
982.0
977.0
975.0
974.0
972.0
966.0
957.0
956.0
948.0
941.0
935.0
923.0
916.0
901.0
890.0
883.0
875.0
867.0
861.0
854.0
847.0
844.0
840.0
840.0
839.0
835.0
829.0
823.0
820.0
819.0
819.0
819.0
821.0
824.0
825.0
825.0
824.0
823.0
823.0
820.0
816.0
814.0
814.0
813.0
812.0
817.0
822.0
824.0
825.0
824.0
823.0
820.0
819.0
822.0
819.0
822.0
825.0
826.0
829.0
828.0
827.0
821.0
824.0
824.0
827.0
828.0
827.0
827.0
830.0
833.0
833.0
833.0
832.0
828.0
826.0
822.0
815.0
817.0
817.0
821.0
825.0
825.0
828.0
826.0
826.0
825.0
825.0
822.0
817.0
812.0
811.0
813.0
812.0
819.0
825.0
828.0
827.0
825.0
818.0
817.0
814.0
812.0
812.0
818.0
817.0
819.0
818.0
816.0
813.0
814.0
815.0
811.0
811.0
808.0
811.0
814.0
816.0
816.0
818.0
816.0
818.0
821.0
824.0
823.0
828.0
826.0
827.0
834.0
833.0
832.0
838.0
840.0
839.0
841.0
841.0
845.0
843.0
849.0
848.0
847.0
848.0
842.0
845.0
845.0
843.0
845.0
837.0
838.0
834.0
832.0
830.0
828.0
825.0
820.0
817.0
811.0
803.0
794.0
793.0
793.0
796.0
799.0
804.0
806.0
806.0
811.0
808.0
806.0
804.0
803.0
805.0
803.0
801.0
800.0
803.0
810.0
827.0
856.0
903.0
965.0
1040.0
1126.0
1220.0
1311.0
1398.0
1467.0
1509.0
1525.0
1517.0
1483.0
1412.0
1291.0
1163.0
1035.0
907.0
779.0
706.0
744.0
806.0
857.0
880.0
882.0
864.0
837.0
816.0
798.0
795.0
797.0
798.0
800.0
800.0
802.0
804.0
804.0
805.0
806.0
808.0
808.0
806.0
806.0
806.0
809.0
804.0
810.0
812.0
817.0
818.0
820.0
820.0
821.0
822.0
823.0
822.0
818.0
815.0
814.0
817.0
827.0
834.0
841.0
849.0
849.0
849.0
850.0
852.0
855.0
861.0
868.0
876.0
881.0
882.0
887.0
894.0
895.0
897.0
899.0
904.0
908.0
915.0
924.0
933.0
941.0
947.0
953.0
955.0
954.0
952.0
956.0
958.0
958.0
960.0
960.0
963.0
960.0
957.0
958.0
948.0
940.0
934.0
923.0
912.0
899.0
890.0
883.0
874.0
869.0
862.0
854.0
848.0
834.0
830.0
824.0
818.0
811.0
806.0
802.0
802.0
805.0
808.0
811.0
812.0
808.0
803.0
797.0
791.0
786.0
786.0
791.0
797.0
798.0
802.0
804.0
803.0
803.0
803.0
800.0
795.0
793.0
796.0
798.0
801.0
805.0
806.0
805.0
802.0
804.0
803.0
804.0
805.0
804.0
805.0
805.0
805.0
803.0
800.0
798.0
801.0
799.0
801.0
797.0
791.0
791.0
790.0
791.0
795.0
799.0
798.0
800.0
797.0
795.0
794.0
789.0
788.0
784.0
786.0
785.0
787.0
786.0
787.0
788.0
789.0
787.0
787.0
785.0
785.0
785.0
781.0
779.0
782.0
783.0
784.0
787.0
787.0
782.0
780.0
780.0
781.0
780.0
781.0
781.0
785.0
787.0
787.0
785.0
783.0
785.0
784.0
787.0
787.0
790.0
793.0
797.0
801.0
799.0
801.0
798.0
798.0
798.0
796.0
794.0
796.0
798.0
802.0
807.0
809.0
814.0
817.0
822.0
822.0
821.0
821.0
815.0
812.0
813.0
805.0
807.0
804.0
804.0
805.0
805.0
799.0
794.0
787.0
779.0
776.0
769.0
770.0
770.0
771.0
773.0
774.0
773.0
770.0
769.0
768.0
768.0
769.0
765.0
768.0
769.0
768.0
770.0
772.0
775.0
776.0
780.0
789.0
802.0
823.0
853.0
896.0
954.0
1021.0
1102.0
1189.0
1282.0
1366.0
1432.0
1472.0
1476.0
1437.0
1348.0
1220.0
1092.0
964.0
836.0
708.0
667.0
702.0
753.0
798.0
823.0
830.0
820.0
810.0
794.0
787.0
781.0
781.0
780.0
780.0
778.0
775.0
773.0
769.0
764.0
771.0
771.0
778.0
783.0
789.0
789.0
786.0
786.0
783.0
780.0
779.0
776.0
779.0
786.0
789.0
794.0
798.0
798.0
799.0
799.0
801.0
799.0
804.0
807.0
808.0
811.0
810.0
811.0
814.0
815.0
814.0
815.0
817.0
818.0
825.0
826.0
835.0
842.0
848.0
857.0
864.0
868.0
871.0
874.0
876.0
876.0
880.0
883.0
886.0
888.0
897.0
904.0
915.0
922.0
927.0
933.0
930.0
932.0
928.0
924.0
925.0
928.0
930.0
929.0
928.0
924.0
920.0
915.0
909.0
900.0
890.0
882.0
876.0
870.0
865.0
856.0
855.0
847.0
837.0
824.0
815.0
809.0
805.0
796.0
785.0
781.0
780.0
781.0
787.0
791.0
788.0
787.0
781.0
778.0
772.0
770.0
771.0
777.0
779.0
784.0
785.0
783.0
785.0
780.0
783.0
777.0
780.0
784.0
786.0
789.0
790.0
792.0
791.0
790.0
791.0
787.0
788.0
785.0
784.0
783.0
786.0
790.0
794.0
796.0
798.0
796.0
798.0
791.0
790.0
792.0
792.0
794.0
791.0
793.0
794.0
795.0
798.0
798.0
797.0
794.0
792.0
789.0
789.0
785.0
787.0
788.0
788.0
786.0
787.0
782.0
783.0
782.0
782.0
782.0
786.0
785.0
784.0
782.0
782.0
783.0
784.0
781.0
784.0
788.0
785.0
784.0
783.0
785.0
779.0
785.0
785.0
787.0
787.0
782.0
783.0
786.0
782.0
781.0
781.0
781.0
781.0
787.0
788.0
797.0
802.0
806.0
803.0
804.0
802.0
802.0
801.0
801.0
801.0
805.0
808.0
813.0
820.0
823.0
829.0
827.0
827.0
821.0
820.0
816.0
813.0
811.0
811.0
817.0
818.0
819.0
817.0
811.0
803.0
793.0
786.0
781.0
774.0
779.0
781.0
777.0
778.0
778.0
778.0
778.0
778.0
778.0
781.0
780.0
780.0
781.0
781.0
783.0
786.0
786.0
788.0
791.0
794.0
808.0
839.0
883.0
945.0
1022.0
1119.0
1219.0
1322.0
1408.0
1468.0
1493.0
1479.0
1417.0
1295.0
1167.0
1039.0
911.0
783.0
682.0
728.0
792.0
842.0
867.0
866.0
850.0
824.0
805.0
789.0
788.0
788.0
789.0
794.0
791.0
787.0
782.0
781.0
781.0
784.0
790.0
793.0
795.0
796.0
798.0
803.0
802.0
801.0
802.0
806.0
803.0
800.0
797.0
798.0
801.0
810.0
815.0
821.0
826.0
826.0
828.0
829.0
830.0
831.0
828.0
828.0
832.0
831.0
836.0
838.0
839.0
844.0
847.0
850.0
851.0
857.0
864.0
868.0
873.0
885.0
891.0
897.0
904.0
907.0
910.0
912.0
917.0
921.0
927.0
930.0
939.0
944.0
952.0
956.0
962.0
962.0
961.0
963.0
963.0
963.0
963.0
962.0
958.0
956.0
951.0
946.0
937.0
932.0
925.0
910.0
901.0
892.0
880.0
870.0
864.0
857.0
852.0
848.0
843.0
839.0
834.0
824.0
819.0
815.0
812.0
810.0
811.0
811.0
815.0
814.0
814.0
808.0
803.0
798.0
798.0
800.0
798.0
799.0
797.0
799.0
803.0
807.0
808.0
806.0
808.0
807.0
808.0
802.0
799.0
795.0
800.0
803.0
806.0
813.0
817.0
816.0
816.0
816.0
816.0
814.0
813.0
810.0
809.0
808.0
808.0
814.0
815.0
813.0
815.0
812.0
810.0
809.0
811.0
811.0
813.0
812.0
813.0
815.0
816.0
809.0
807.0
806.0
804.0
802.0
803.0
803.0
804.0
804.0
807.0
807.0
808.0
807.0
803.0
802.0
798.0
797.0
798.0
798.0
798.0
799.0
800.0
803.0
803.0
804.0
807.0
807.0
806.0
804.0
798.0
793.0
793.0
795.0
796.0
801.0
802.0
802.0
805.0
800.0
800.0
801.0
795.0
793.0
800.0
803.0
805.0
813.0
818.0
822.0
824.0
826.0
826.0
822.0
821.0
815.0
816.0
814.0
820.0
828.0
835.0
842.0
841.0
846.0
846.0
846.0
837.0
830.0
827.0
825.0
825.0
827.0
825.0
828.0
827.0
822.0
815.0
809.0
806.0
801.0
800.0
798.0
798.0
795.0
797.0
796.0
795.0
790.0
791.0
787.0
789.0
789.0
788.0
797.0
799.0
799.0
795.0
792.0
798.0
800.0
811.0
825.0
858.0
908.0
974.0
1056.0
1149.0
1248.0
1344.0
1424.0
1484.0
1509.0
1510.0
1482.0
1417.0
1293.0
1165.0
1037.0
909.0
781.0
700.0
751.0
815.0
863.0
882.0
875.0
850.0
826.0
809.0
799.0
797.0
801.0
805.0
804.0
809.0
806.0
807.0
805.0
803.0
801.0
801.0
801.0
803.0
806.0
811.0
812.0
814.0
815.0
815.0
814.0
815.0
813.0
812.0
815.0
820.0
821.0
827.0
831.0
834.0
833.0
833.0
833.0
833.0
835.0
841.0
847.0
850.0
856.0
861.0
864.0
867.0
866.0
870.0
875.0
877.0
883.0
892.0
899.0
909.0
917.0
922.0
925.0
932.0
935.0
935.0
937.0
942.0
947.0
952.0
960.0
965.0
971.0
971.0
967.0
962.0
956.0
947.0
943.0
935.0
926.0
920.0
915.0
906.0
899.0
893.0
881.0
869.0
860.0
847.0
839.0
830.0
822.0
816.0
812.0
809.0
808.0
800.0
798.0
794.0
790.0
788.0
785.0
785.0
784.0
786.0
789.0
792.0
795.0
797.0
795.0
792.0
783.0
780.0
779.0
777.0
780.0
780.0
784.0
784.0
789.0
789.0
793.0
790.0
787.0
785.0
782.0
780.0
780.0
783.0
787.0
785.0
786.0
785.0
787.0
786.0
786.0
786.0
783.0
782.0
784.0
783.0
791.0
790.0
787.0
789.0
789.0
786.0
784.0
779.0
777.0
775.0
775.0
778.0
776.0
777.0
782.0
780.0
779.0
778.0
775.0
773.0
773.0
772.0
768.0
768.0
764.0
765.0
772.0
776.0
777.0
775.0
772.0
769.0
769.0
764.0
763.0
759.0
761.0
765.0
765.0
768.0
767.0
764.0
766.0
763.0
762.0
765.0
765.0
765.0
768.0
767.0
768.0
774.0
776.0
778.0
781.0
782.0
781.0
777.0
781.0
780.0
783.0
784.0
788.0
788.0
791.0
794.0
793.0
793.0
791.0
793.0
794.0
792.0
795.0
795.0
793.0
791.0
797.0
794.0
788.0
784.0
780.0
780.0
777.0
776.0
775.0
772.0
769.0
760.0
759.0
754.0
751.0
745.0
744.0
749.0
747.0
748.0
753.0
755.0
755.0
758.0
757.0
755.0
756.0
752.0
751.0
749.0
747.0
746.0
752.0
760.0
776.0
803.0
841.0
892.0
957.0
1025.0
1107.0
1194.0
1285.0
1364.0
1430.0
1469.0
1483.0
1458.0
1389.0
1269.0
1141.0
1013.0
885.0
757.0
647.0
674.0
728.0
777.0
810.0
820.0
812.0
793.0
773.0
756.0
748.0
745.0
744.0
747.0
751.0
755.0
757.0
758.0
757.0
754.0
752.0
751.0
749.0
750.0
751.0
754.0
754.0
757.0
761.0
765.0
767.0
768.0
767.0
771.0
767.0
765.0
766.0
765.0
768.0
769.0
779.0
783.0
786.0
785.0
785.0
789.0
793.0
796.0
797.0
800.0
808.0
810.0
815.0
818.0
826.0
829.0
830.0
835.0
838.0
846.0
852.0
856.0
865.0
872.0
883.0
891.0
895.0
900.0
898.0
898.0
899.0
901.0
901.0
905.0
906.0
910.0
908.0
910.0
905.0
902.0
892.0
882.0
867.0
855.0
844.0
831.0
822.0
813.0
808.0
800.0
793.0
786.0
778.0
770.0
763.0
757.0
752.0
746.0
743.0
744.0
744.0
744.0
739.0
739.0
734.0
732.0
728.0
727.0
728.0
730.0
731.0
731.0
733.0
734.0
734.0
738.0
737.0
735.0
733.0
731.0
732.0
733.0
734.0
735.0
739.0
744.0
745.0
746.0
744.0
741.0
738.0
736.0
737.0
738.0
739.0
736.0
741.0
749.0
753.0
754.0
754.0
751.0
749.0
744.0
739.0
739.0
737.0
735.0
739.0
741.0
742.0
743.0
740.0
737.0
733.0
732.0
732.0
729.0
733.0
734.0
736.0
740.0
742.0
741.0
736.0
731.0
726.0
728.0
725.0
725.0
730.0
732.0
734.0
735.0
734.0
729.0
728.0
723.0
725.0
725.0
724.0
728.0
732.0
731.0
734.0
736.0
736.0
734.0
732.0
730.0
729.0
729.0
728.0
729.0
733.0
738.0
742.0
744.0
750.0
750.0
746.0
746.0
746.0
745.0
746.0
745.0
744.0
744.0
746.0
747.0
749.0
749.0
750.0
750.0
749.0
748.0
741.0
740.0
740.0
739.0
736.0
741.0
739.0
735.0
731.0
730.0
721.0
715.0
711.0
708.0
707.0
703.0
707.0
708.0
711.0
713.0
713.0
710.0
706.0
708.0
706.0
703.0
707.0
705.0
709.0
714.0
715.0
718.0
721.0
732.0
753.0
780.0
821.0
874.0
935.0
1003.0
1080.0
1154.0
1225.0
1279.0
1303.0
1292.0
1236.0
1133.0
1005.0
877.0
749.0
621.0
578.0
599.0
645.0
695.0
729.0
743.0
743.0
730.0
715.0
705.0
698.0
699.0
705.0
709.0
713.0
713.0
715.0
712.0
709.0
707.0
703.0
700.0
705.0
712.0
715.0
718.0
718.0
719.0
716.0
719.0
718.0
717.0
716.0
722.0
726.0
726.0
728.0
732.0
734.0
734.0
737.0
737.0
737.0
738.0
739.0
742.0
746.0
748.0
752.0
758.0
759.0
763.0
762.0
765.0
767.0
771.0
778.0
782.0
785.0
793.0
799.0
802.0
804.0
808.0
808.0
807.0
808.0
814.0
818.0
825.0
831.0
838.0
840.0
845.0
848.0
847.0
842.0
838.0
832.0
828.0
826.0
819.0
813.0
813.0
813.0
811.0
803.0
796.0
787.0
777.0
768.0
760.0
753.0
744.0
744.0
743.0
740.0
738.0
734.0
728.0
725.0
721.0
720.0
718.0
718.0
724.0
727.0
725.0
722.0
719.0
717.0
714.0
712.0
705.0
707.0
712.0
709.0
712.0
714.0
716.0
717.0
719.0
721.0
721.0
720.0
718.0
718.0
715.0
716.0
715.0
716.0
721.0
724.0
727.0
726.0
726.0
726.0
724.0
727.0
726.0
724.0
724.0
726.0
729.0
728.0
732.0
731.0
730.0
728.0
725.0
724.0
725.0
726.0
728.0
732.0
732.0
729.0
730.0
726.0
726.0
724.0
720.0
719.0
717.0
715.0
715.0
718.0
721.0
721.0
723.0
725.0
727.0
727.0
725.0
722.0
721.0
723.0
721.0
725.0
724.0
728.0
728.0
727.0
726.0
726.0
725.0
722.0
721.0
723.0
725.0
728.0
731.0
733.0
738.0
736.0
731.0
730.0
727.0
733.0
737.0
743.0
753.0
756.0
759.0
758.0
761.0
761.0
761.0
759.0
760.0
761.0
762.0
765.0
767.0
772.0
780.0
781.0
784.0
787.0
785.0
782.0
779.0
773.0
771.0
767.0
762.0
765.0
766.0
764.0
766.0
767.0
767.0
763.0
755.0
747.0
736.0
732.0
731.0
731.0
736.0
746.0
750.0
752.0
754.0
751.0
751.0
749.0
749.0
748.0
746.0
749.0
754.0
761.0
769.0
782.0
797.0
811.0
831.0
853.0
882.0
914.0
950.0
996.0
1044.0
1098.0
1149.0
1189.0
1206.0
1190.0
1130.0
1024.0
896.0
773.0
690.0
658.0
672.0
711.0
757.0
786.0
803.0
804.0
794.0
782.0
773.0
767.0
764.0
767.0
771.0
776.0
779.0
778.0
777.0
775.0
770.0
770.0
770.0
770.0
773.0
776.0
780.0
782.0
784.0
783.0
787.0
790.0
788.0
789.0
792.0
793.0
793.0
795.0
796.0
799.0
808.0
806.0
805.0
807.0
803.0
803.0
802.0
805.0
810.0
811.0
817.0
823.0
827.0
833.0
834.0
834.0
831.0
832.0
839.0
841.0
849.0
856.0
864.0
870.0
875.0
879.0
883.0
887.0
887.0
886.0
890.0
894.0
896.0
902.0
908.0
905.0
907.0
913.0
918.0
919.0
920.0
918.0
917.0
914.0
909.0
905.0
907.0
903.0
896.0
888.0
881.0
871.0
869.0
859.0
853.0
843.0
837.0
834.0
833.0
830.0
827.0
818.0
814.0
808.0
806.0
802.0
801.0
800.0
803.0
804.0
804.0
805.0
804.0
803.0
802.0
801.0
799.0
799.0
801.0
799.0
799.0
799.0
803.0
802.0
805.0
807.0
811.0
809.0
802.0
798.0
794.0
791.0
792.0
798.0
802.0
805.0
811.0
810.0
810.0
807.0
806.0
807.0
806.0
805.0
804.0
805.0
806.0
811.0
816.0
814.0
816.0
817.0
816.0
812.0
814.0
812.0
814.0
814.0
813.0
811.0
814.0
817.0
816.0
816.0
814.0
811.0
812.0
812.0
812.0
812.0
812.0
810.0
814.0
811.0
813.0
812.0
812.0
811.0
808.0
806.0
807.0
807.0
809.0
815.0
817.0
818.0
819.0
818.0
816.0
813.0
809.0
809.0
812.0
812.0
812.0
815.0
818.0
820.0
820.0
818.0
813.0
813.0
815.0
817.0
816.0
817.0
817.0
821.0
821.0
826.0
825.0
828.0
830.0
832.0
834.0
838.0
839.0
845.0
847.0
846.0
848.0
849.0
849.0
850.0
853.0
853.0
856.0
859.0
862.0
864.0
862.0
861.0
861.0
858.0
857.0
858.0
853.0
853.0
852.0
849.0
846.0
844.0
843.0
841.0
841.0
842.0
840.0
835.0
831.0
826.0
821.0
816.0
818.0
824.0
825.0
832.0
832.0
828.0
826.0
827.0
825.0
825.0
826.0
825.0
827.0
828.0
830.0
838.0
855.0
874.0
904.0
944.0
990.0
1046.0
1111.0
1177.0
1251.0
1319.0
1379.0
1419.0
1435.0
1411.0
1332.0
1204.0
1076.0
948.0
820.0
729.0
736.0
782.0
836.0
878.0
901.0
900.0
885.0
868.0
854.0
839.0
831.0
829.0
830.0
836.0
841.0
841.0
844.0
843.0
840.0
842.0
837.0
839.0
842.0
840.0
839.0
845.0
847.0
847.0
853.0
857.0
856.0
859.0
859.0
859.0
859.0
858.0
859.0
864.0
869.0
870.0
871.0
872.0
877.0
881.0
880.0
883.0
883.0
886.0
889.0
893.0
900.0
902.0
907.0
910.0
915.0
918.0
924.0
926.0
923.0
923.0
924.0
930.0
937.0
945.0
953.0
960.0
967.0
972.0
972.0
979.0
980.0
979.0
982.0
984.0
988.0
989.0
993.0
989.0
986.0
980.0
973.0
967.0
960.0
952.0
943.0
935.0
925.0
920.0
913.0
903.0
899.0
891.0
884.0
879.0
874.0
868.0
864.0
862.0
862.0
862.0
861.0
861.0
859.0
858.0
856.0
852.0
845.0
844.0
842.0
842.0
846.0
847.0
849.0
849.0
851.0
851.0
850.0
846.0
844.0
843.0
845.0
845.0
849.0
851.0
853.0
854.0
852.0
856.0
849.0
846.0
846.0
844.0
844.0
847.0
852.0
853.0
855.0
858.0
858.0
857.0
853.0
851.0
850.0
846.0
849.0
847.0
853.0
855.0
857.0
856.0
858.0
855.0
850.0
848.0
845.0
839.0
838.0
839.0
842.0
845.0
849.0
844.0
847.0
848.0
844.0
841.0
842.0
839.0
845.0
847.0
852.0
849.0
851.0
852.0
855.0
855.0
854.0
848.0
845.0
836.0
831.0
828.0
830.0
833.0
841.0
846.0
847.0
848.0
844.0
841.0
839.0
840.0
837.0
840.0
844.0
843.0
849.0
851.0
854.0
852.0
850.0
850.0
852.0
854.0
858.0
865.0
867.0
867.0
870.0
871.0
873.0
869.0
870.0
871.0
871.0
876.0
879.0
881.0
878.0
878.0
880.0
880.0
879.0
879.0
877.0
874.0
870.0
866.0
861.0
850.0
846.0
842.0
837.0
837.0
837.0
836.0
835.0
833.0
832.0
832.0
832.0
835.0
837.0
840.0
841.0
839.0
838.0
835.0
831.0
828.0
826.0
822.0
823.0
829.0
839.0
851.0
873.0
900.0
940.0
988.0
1051.0
1118.0
1190.0
1271.0
1345.0
1410.0
1457.0
1476.0
1448.0
1357.0
1229.0
1101.0
973.0
845.0
735.0
751.0
797.0
849.0
887.0
903.0
902.0
888.0
870.0
853.0
840.0
838.0
842.0
843.0
847.0
846.0
851.0
850.0
851.0
849.0
847.0
846.0
843.0
843.0
840.0
844.0
849.0
851.0
861.0
861.0
863.0
862.0
862.0
862.0
859.0
860.0
859.0
859.0
863.0
862.0
869.0
877.0
881.0
888.0
891.0
890.0
891.0
887.0
892.0
891.0
893.0
897.0
905.0
908.0
921.0
922.0
924.0
924.0
923.0
920.0
926.0
933.0
941.0
950.0
959.0
970.0
970.0
974.0
976.0
979.0
981.0
982.0
987.0
994.0
993.0
997.0
998.0
1001.0
1003.0
1004.0
1003.0
996.0
991.0
986.0
976.0
966.0
959.0
950.0
940.0
933.0
927.0
925.0
917.0
907.0
902.0
893.0
886.0
883.0
876.0
872.0
870.0
861.0
861.0
856.0
856.0
857.0
857.0
857.0
857.0
858.0
856.0
855.0
856.0
852.0
850.0
849.0
848.0
846.0
849.0
848.0
846.0
848.0
847.0
849.0
852.0
855.0
860.0
862.0
861.0
860.0
849.0
846.0
849.0
849.0
849.0
848.0
851.0
852.0
856.0
859.0
858.0
858.0
855.0
852.0
850.0
850.0
849.0
849.0
849.0
850.0
851.0
850.0
850.0
850.0
847.0
846.0
844.0
841.0
844.0
840.0
842.0
842.0
844.0
839.0
840.0
840.0
841.0
838.0
839.0
835.0
833.0
836.0
836.0
838.0
841.0
844.0
843.0
842.0
841.0
842.0
839.0
836.0
833.0
829.0
830.0
831.0
834.0
836.0
832.0
831.0
828.0
825.0
825.0
824.0
825.0
828.0
827.0
831.0
833.0
834.0
834.0
834.0
832.0
836.0
839.0
844.0
848.0
851.0
855.0
856.0
859.0
857.0
856.0
856.0
857.0
857.0
856.0
860.0
863.0
867.0
868.0
869.0
866.0
868.0
864.0
864.0
856.0
857.0
855.0
854.0
848.0
847.0
844.0
839.0
837.0
832.0
827.0
819.0
819.0
811.0
810.0
807.0
809.0
812.0
812.0
812.0
813.0
815.0
815.0
814.0
811.0
811.0
810.0
808.0
809.0
810.0
809.0
813.0
818.0
825.0
836.0
855.0
883.0
924.0
982.0
1047.0
1118.0
1194.0
1278.0
1353.0
1422.0
1474.0
1503.0
1498.0
1458.0
1369.0
1241.0
1113.0
985.0
857.0
729.0
727.0
773.0
829.0
873.0
887.0
883.0
864.0
844.0
827.0
819.0
816.0
820.0
822.0
821.0
821.0
818.0
818.0
814.0
812.0
813.0
811.0
813.0
815.0
820.0
823.0
825.0
825.0
825.0
826.0
826.0
827.0
827.0
827.0
826.0
825.0
829.0
832.0
834.0
837.0
836.0
836.0
838.0
837.0
837.0
838.0
838.0
845.0
849.0
853.0
856.0
860.0
860.0
860.0
863.0
868.0
871.0
871.0
873.0
882.0
885.0
891.0
899.0
903.0
904.0
910.0
912.0
920.0
923.0
929.0
933.0
938.0
946.0
955.0
965.0
973.0
975.0
974.0
974.0
972.0
970.0
977.0
977.0
975.0
982.0
981.0
981.0
979.0
975.0
969.0
961.0
950.0
942.0
934.0
920.0
910.0
901.0
892.0
887.0
880.0
871.0
861.0
854.0
846.0
840.0
834.0
830.0
829.0
827.0
825.0
822.0
823.0
817.0
816.0
814.0
812.0
809.0
805.0
808.0
804.0
804.0
804.0
807.0
809.0
815.0
813.0
815.0
812.0
811.0
807.0
808.0
808.0
810.0
814.0
814.0
817.0
816.0
818.0
815.0
814.0
812.0
810.0
811.0
812.0
815.0
818.0
819.0
820.0
819.0
816.0
813.0
812.0
808.0
808.0
805.0
807.0
809.0
809.0
810.0
812.0
812.0
812.0
810.0
807.0
804.0
800.0
801.0
802.0
803.0
804.0
807.0
811.0
811.0
810.0
807.0
804.0
800.0
797.0
796.0
798.0
798.0
800.0
803.0
803.0
801.0
795.0
797.0
794.0
796.0
792.0
794.0
795.0
797.0
797.0
797.0
798.0
802.0
799.0
796.0
792.0
788.0
787.0
783.0
786.0
790.0
790.0
795.0
800.0
805.0
806.0
807.0
807.0
805.0
807.0
809.0
805.0
809.0
811.0
813.0
818.0
818.0
819.0
819.0
821.0
821.0
823.0
824.0
829.0
832.0
832.0
827.0
824.0
823.0
819.0
815.0
813.0
810.0
805.0
802.0
800.0
800.0
800.0
798.0
796.0
787.0
784.0
779.0
774.0
773.0
770.0
767.0
768.0
767.0
773.0
774.0
777.0
779.0
782.0
780.0
777.0
775.0
774.0
771.0
777.0
786.0
804.0
831.0
877.0
946.0
1023.0
1113.0
1205.0
1298.0
1382.0
1446.0
1480.0
1481.0
1440.0
1354.0
1226.0
1098.0
970.0
842.0
714.0
670.0
720.0
780.0
829.0
854.0
851.0
833.0
812.0
791.0
777.0
769.0
766.0
767.0
765.0
768.0
767.0
768.0
770.0
771.0
774.0
775.0
778.0
776.0
777.0
775.0
775.0
775.0
775.0
777.0
778.0
782.0
785.0
786.0
787.0
787.0
787.0
787.0
786.0
791.0
793.0
795.0
797.0
802.0
807.0
810.0
813.0
816.0
813.0
812.0
816.0
815.0
819.0
822.0
829.0
835.0
844.0
855.0
856.0
866.0
868.0
874.0
877.0
883.0
887.0
895.0
900.0
907.0
909.0
918.0
922.0
923.0
926.0
930.0
930.0
932.0
933.0
933.0
935.0
938.0
937.0
931.0
927.0
917.0
909.0
900.0
889.0
880.0
870.0
861.0
854.0
847.0
845.0
835.0
826.0
813.0
808.0
795.0
790.0
783.0
776.0
771.0
768.0
771.0
768.0
768.0
766.0
763.0
759.0
758.0
756.0
753.0
750.0
749.0
750.0
749.0
755.0
752.0
752.0
752.0
750.0
750.0
749.0
749.0
749.0
748.0
752.0
754.0
755.0
758.0
756.0
756.0
754.0
750.0
749.0
749.0
748.0
750.0
751.0
755.0
760.0
757.0
759.0
756.0
754.0
750.0
747.0
744.0
745.0
744.0
746.0
747.0
748.0
748.0
748.0
746.0
744.0
745.0
744.0
741.0
740.0
742.0
741.0
741.0
742.0
741.0
738.0
739.0
735.0
733.0
732.0
730.0
729.0
729.0
731.0
733.0
735.0
736.0
735.0
731.0
731.0
730.0
728.0
728.0
728.0
729.0
728.0
732.0
732.0
730.0
731.0
733.0
732.0
730.0
731.0
730.0
729.0
732.0
735.0
739.0
740.0
746.0
746.0
746.0
745.0
745.0
745.0
744.0
743.0
743.0
745.0
747.0
751.0
755.0
759.0
763.0
763.0
762.0
762.0
759.0
757.0
753.0
752.0
750.0
749.0
747.0
748.0
747.0
746.0
739.0
738.0
732.0
725.0
719.0
711.0
708.0
710.0
712.0
711.0
712.0
711.0
715.0
714.0
714.0
715.0
718.0
717.0
719.0
721.0
723.0
723.0
725.0
724.0
736.0
753.0
788.0
842.0
911.0
1003.0
1102.0
1207.0
1306.0
1386.0
1438.0
1449.0
1408.0
1303.0
1175.0
1047.0
919.0
791.0
663.0
602.0
657.0
719.0
766.0
783.0
777.0
758.0
738.0
722.0
714.0
714.0
713.0
721.0
722.0
723.0
723.0
724.0
721.0
721.0
725.0
724.0
728.0
728.0
727.0
733.0
732.0
735.0
736.0
734.0
736.0
737.0
739.0
739.0
747.0
750.0
753.0
754.0
756.0
757.0
757.0
758.0
762.0
762.0
766.0
766.0
771.0
777.0
781.0
789.0
795.0
796.0
800.0
802.0
806.0
807.0
812.0
815.0
821.0
829.0
837.0
845.0
852.0
857.0
863.0
866.0
870.0
869.0
871.0
868.0
875.0
879.0
881.0
884.0
890.0
890.0
889.0
881.0
877.0
870.0
861.0
854.0
848.0
841.0
831.0
830.0
822.0
814.0
805.0
792.0
782.0
772.0
764.0
756.0
751.0
752.0
750.0
751.0
754.0
750.0
749.0
747.0
745.0
741.0
741.0
737.0
738.0
734.0
738.0
742.0
741.0
739.0
741.0
739.0
736.0
737.0
737.0
740.0
745.0
749.0
752.0
758.0
756.0
756.0
757.0
751.0
754.0
750.0
747.0
746.0
746.0
748.0
752.0
757.0
762.0
763.0
763.0
758.0
757.0
755.0
750.0
749.0
748.0
753.0
756.0
762.0
755.0
758.0
757.0
751.0
749.0
747.0
748.0
748.0
746.0
748.0
748.0
753.0
753.0
750.0
751.0
746.0
745.0
741.0
739.0
740.0
745.0
749.0
753.0
756.0
754.0
