# Simple Text Format
# Sampling Rate (Hz):= 360.00
# Resolution:= 12
# Labels:= ECG
912.0
917.0
926.0
930.0
930.0
932.0
931.0
932.0
935.0
938.0
940.0
943.0
943.0
944.0
946.0
944.0
940.0
935.0
930.0
921.0
909.0
903.0
891.0
884.0
876.0
866.0
861.0
851.0
843.0
836.0
828.0
821.0
815.0
810.0
806.0
806.0
805.0
800.0
803.0
798.0
797.0
797.0
792.0
792.0
790.0
791.0
791.0
791.0
797.0
799.0
803.0
800.0
801.0
800.0
795.0
797.0
797.0
798.0
796.0
799.0
802.0
803.0
807.0
809.0
807.0
806.0
803.0
799.0
800.0
801.0
799.0
798.0
800.0
800.0
805.0
806.0
806.0
804.0
802.0
800.0
798.0
797.0
796.0
798.0
795.0
794.0
793.0
793.0
793.0
791.0
791.0
790.0
786.0
789.0
788.0
792.0
791.0
791.0
793.0
794.0
791.0
787.0
787.0
785.0
783.0
786.0
785.0
788.0
787.0
790.0
788.0
785.0
785.0
784.0
785.0
782.0
783.0
780.0
781.0
783.0
784.0
786.0
790.0
788.0
787.0
786.0
784.0
777.0
782.0
784.0
788.0
791.0
796.0
802.0
805.0
805.0
804.0
803.0
804.0
801.0
803.0
801.0
805.0
808.0
813.0
817.0
823.0
826.0
827.0
824.0
819.0
816.0
813.0
812.0
813.0
813.0
814.0
814.0
810.0
809.0
804.0
799.0
793.0
788.0
785.0
781.0
777.0
773.0
770.0
771.0
772.0
775.0
781.0
783.0
779.0
777.0
779.0
777.0
779.0
780.0
776.0
775.0
778.0
782.0
792.0
808.0
830.0
861.0
901.0
954.0
1025.0
1103.0
1190.0
1286.0
1375.0
1445.0
1483.0
1487.0
1442.0
1346.0
1218.0
1090.0
962.0
834.0
706.0
689.0
744.0
800.0
845.0
862.0
860.0
843.0
827.0
810.0
798.0
794.0
794.0
799.0
799.0
805.0
806.0
804.0
802.0
800.0
802.0
801.0
804.0
807.0
808.0
813.0
817.0
817.0
816.0
816.0
817.0
817.0
818.0
818.0
820.0
823.0
825.0
829.0
833.0
837.0
832.0
836.0
838.0
840.0
842.0
847.0
851.0
855.0
859.0
863.0
872.0
871.0
874.0
875.0
880.0
876.0
880.0
884.0
890.0
898.0
905.0
914.0
924.0
934.0
938.0
941.0
942.0
941.0
944.0
945.0
947.0
953.0
956.0
956.0
960.0
963.0
960.0
960.0
960.0
957.0
955.0
949.0
944.0
939.0
931.0
925.0
917.0
909.0
899.0
889.0
879.0
870.0
864.0
853.0
848.0
845.0
842.0
839.0
838.0
831.0
826.0
825.0
819.0
818.0
814.0
813.0
809.0
810.0
810.0
814.0
818.0
816.0
816.0
815.0
812.0
810.0
809.0
812.0
812.0
814.0
816.0
818.0
819.0
821.0
820.0
816.0
817.0
817.0
817.0
814.0
816.0
820.0
825.0
825.0
826.0
828.0
828.0
826.0
824.0
821.0
818.0
815.0
815.0
813.0
814.0
816.0
820.0
819.0
818.0
815.0
815.0
815.0
815.0
811.0
805.0
807.0
806.0
811.0
813.0
813.0
808.0
812.0
811.0
807.0
804.0
802.0
802.0
802.0
805.0
806.0
807.0
806.0
807.0
807.0
804.0
800.0
799.0
797.0
798.0
801.0
805.0
805.0
807.0
808.0
805.0
803.0
801.0
796.0
795.0
798.0
797.0
797.0
797.0
801.0
807.0
809.0
815.0
817.0
818.0
819.0
822.0
821.0
820.0
825.0
824.0
828.0
830.0
828.0
827.0
827.0
830.0
829.0
837.0
838.0
838.0
842.0
842.0
840.0
843.0
841.0
836.0
834.0
829.0
826.0
822.0
818.0
810.0
805.0
800.0
800.0
800.0
796.0
795.0
789.0
787.0
785.0
786.0
784.0
787.0
790.0
791.0
792.0
796.0
798.0
796.0
796.0
790.0
789.0
789.0
786.0
792.0
806.0
831.0
869.0
919.0
988.0
1060.0
1144.0
1229.0
1315.0
1396.0
1457.0
1498.0
1519.0
1516.0
1493.0
1442.0
1343.0
1215.0
1087.0
959.0
831.0
703.0
701.0
754.0
812.0
854.0
871.0
864.0
848.0
825.0
806.0
793.0
791.0
793.0
796.0
798.0
802.0
805.0
803.0
805.0
805.0
799.0
798.0
798.0
797.0
797.0
797.0
796.0
799.0
803.0
807.0
811.0
815.0
816.0
820.0
820.0
818.0
820.0
819.0
821.0
823.0
827.0
828.0
832.0
836.0
835.0
839.0
841.0
842.0
844.0
846.0
849.0
853.0
857.0
862.0
870.0
875.0
875.0
880.0
883.0
885.0
889.0
893.0
895.0
904.0
911.0
915.0
923.0
930.0
934.0
938.0
942.0
944.0
947.0
947.0
950.0
953.0
959.0
961.0
965.0
965.0
966.0
961.0
954.0
954.0
953.0
945.0
942.0
937.0
932.0
928.0
924.0
916.0
901.0
892.0
879.0
867.0
859.0
849.0
844.0
837.0
835.0
830.0
829.0
824.0
823.0
819.0
815.0
811.0
808.0
803.0
800.0
801.0
800.0
801.0
808.0
807.0
807.0
805.0
803.0
804.0
804.0
804.0
805.0
806.0
808.0
807.0
811.0
813.0
813.0
813.0
812.0
809.0
807.0
805.0
807.0
809.0
811.0
816.0
818.0
821.0
821.0
820.0
815.0
815.0
812.0
812.0
808.0
810.0
816.0
818.0
819.0
822.0
820.0
818.0
816.0
817.0
812.0
810.0
808.0
810.0
810.0
811.0
813.0
813.0
809.0
810.0
806.0
804.0
802.0
798.0
801.0
802.0
805.0
808.0
807.0
806.0
808.0
804.0
803.0
804.0
801.0
798.0
797.0
799.0
802.0
802.0
805.0
805.0
806.0
802.0
802.0
799.0
800.0
798.0
800.0
796.0
798.0
799.0
799.0
800.0
800.0
802.0
804.0
807.0
810.0
815.0
817.0
820.0
825.0
824.0
824.0
826.0
828.0
829.0
830.0
834.0
839.0
842.0
847.0
848.0
848.0
845.0
847.0
844.0
842.0
839.0
834.0
831.0
824.0
822.0
815.0
815.0
812.0
813.0
814.0
812.0
807.0
801.0
791.0
793.0
790.0
790.0
789.0
790.0
790.0
790.0
792.0
794.0
798.0
797.0
796.0
795.0
793.0
792.0
793.0
798.0
808.0
823.0
850.0
892.0
947.0
1011.0
1085.0
1157.0
1232.0
1310.0
1376.0
1439.0
1485.0
1506.0
1495.0
1445.0
1335.0
1207.0
1079.0
951.0
823.0
695.0
713.0
784.0
844.0
879.0
887.0
873.0
848.0
826.0
807.0
801.0
800.0
802.0
805.0
805.0
806.0
807.0
808.0
809.0
810.0
812.0
811.0
814.0
812.0
814.0
816.0
818.0
823.0
825.0
827.0
826.0
825.0
818.0
820.0
821.0
825.0
827.0
829.0
834.0
839.0
841.0
846.0
848.0
848.0
853.0
854.0
856.0
857.0
857.0
860.0
867.0
873.0
879.0
888.0
894.0
901.0
903.0
907.0
912.0
913.0
918.0
926.0
932.0
943.0
950.0
958.0
963.0
967.0
969.0
975.0
974.0
975.0
972.0
972.0
974.0
974.0
975.0
977.0
977.0
975.0
969.0
960.0
951.0
942.0
932.0
923.0
912.0
904.0
898.0
889.0
883.0
877.0
867.0
858.0
849.0
842.0
835.0
834.0
833.0
831.0
829.0
830.0
827.0
819.0
818.0
814.0
809.0
806.0
804.0
803.0
809.0
813.0
814.0
819.0
819.0
818.0
815.0
813.0
810.0
809.0
809.0
813.0
815.0
815.0
817.0
817.0
819.0
819.0
821.0
820.0
821.0
820.0
819.0
818.0
816.0
816.0
820.0
823.0
825.0
821.0
824.0
821.0
816.0
815.0
813.0
813.0
817.0
817.0
819.0
821.0
822.0
823.0
823.0
816.0
809.0
802.0
799.0
800.0
800.0
802.0
806.0
811.0
812.0
811.0
808.0
805.0
801.0
799.0
797.0
797.0
796.0
798.0
799.0
803.0
805.0
805.0
803.0
802.0
800.0
801.0
801.0
799.0
795.0
799.0
799.0
800.0
802.0
801.0
798.0
798.0
795.0
791.0
790.0
794.0
794.0
796.0
800.0
805.0
807.0
817.0
817.0
820.0
820.0
821.0
818.0
818.0
817.0
821.0
821.0
825.0
832.0
838.0
839.0
838.0
835.0
830.0
829.0
825.0
828.0
825.0
827.0
824.0
823.0
819.0
817.0
811.0
802.0
797.0
792.0
786.0
780.0
779.0
779.0
779.0
781.0
779.0
783.0
784.0
783.0
781.0
784.0
779.0
780.0
782.0
784.0
786.0
788.0
788.0
787.0
792.0
801.0
824.0
861.0
910.0
980.0
1052.0
1132.0
1209.0
1292.0
1365.0
1431.0
1471.0
1489.0
1473.0
1426.0
1327.0
1199.0
1071.0
943.0
815.0
687.0
703.0
761.0
817.0
851.0
857.0
846.0
824.0
804.0
790.0
783.0
782.0
788.0
789.0
789.0
790.0
790.0
788.0
785.0
787.0
787.0
789.0
794.0
798.0
800.0
801.0
798.0
797.0
795.0
796.0
800.0
804.0
804.0
804.0
806.0
808.0
811.0
815.0
814.0
817.0
814.0
816.0
819.0
823.0
826.0
832.0
839.0
842.0
846.0
850.0
852.0
853.0
851.0
856.0
860.0
858.0
866.0
873.0
880.0
889.0
893.0
904.0
904.0
911.0
914.0
916.0
915.0
918.0
926.0
933.0
935.0
945.0
951.0
956.0
955.0
956.0
952.0
951.0
948.0
944.0
939.0
936.0
931.0
924.0
916.0
904.0
895.0
882.0
873.0
863.0
854.0
847.0
840.0
834.0
826.0
820.0
813.0
808.0
803.0
795.0
791.0
787.0
785.0
784.0
785.0
782.0
782.0
783.0
787.0
787.0
792.0
789.0
782.0
780.0
773.0
773.0
775.0
777.0
781.0
785.0
787.0
787.0
787.0
787.0
786.0
783.0
782.0
781.0
781.0
782.0
786.0
786.0
787.0
788.0
789.0
787.0
784.0
783.0
784.0
783.0
782.0
782.0
785.0
783.0
785.0
783.0
783.0
783.0
783.0
785.0
781.0
778.0
777.0
772.0
771.0
769.0
769.0
769.0
772.0
771.0
771.0
764.0
764.0
761.0
761.0
762.0
768.0
771.0
774.0
771.0
769.0
762.0
760.0
757.0
759.0
759.0
759.0
760.0
761.0
765.0
767.0
768.0
767.0
765.0
763.0
760.0
759.0
760.0
758.0
758.0
763.0
763.0
767.0
769.0
772.0
773.0
775.0
771.0
771.0
771.0
771.0
772.0
779.0
784.0
788.0
787.0
786.0
784.0
784.0
785.0
789.0
789.0
790.0
790.0
792.0
792.0
792.0
794.0
793.0
793.0
790.0
786.0
786.0
785.0
783.0
782.0
779.0
777.0
774.0
769.0
763.0
760.0
753.0
748.0
752.0
750.0
753.0
756.0
760.0
755.0
754.0
751.0
751.0
748.0
750.0
751.0
752.0
754.0
756.0
758.0
762.0
769.0
787.0
808.0
843.0
888.0
944.0
1011.0
1082.0
1163.0
1249.0
1333.0
1401.0
1452.0
1470.0
1457.0
1400.0
1292.0
1164.0
1036.0
908.0
780.0
652.0
652.0
700.0
751.0
794.0
814.0
817.0
807.0
797.0
786.0
775.0
770.0
769.0
770.0
772.0
774.0
780.0
779.0
778.0
775.0
772.0
771.0
774.0
775.0
777.0
781.0
782.0
790.0
795.0
799.0
797.0
793.0
793.0
790.0
791.0
794.0
797.0
800.0
803.0
806.0
805.0
806.0
806.0
811.0
811.0
813.0
814.0
812.0
816.0
820.0
830.0
833.0
842.0
847.0
846.0
852.0
849.0
850.0
855.0
858.0
866.0
877.0
888.0
899.0
904.0
908.0
910.0
911.0
908.0
910.0
914.0
919.0
924.0
928.0
932.0
933.0
938.0
936.0
943.0
945.0
945.0
944.0
940.0
934.0
928.0
928.0
925.0
922.0
917.0
908.0
903.0
892.0
882.0
877.0
868.0
861.0
854.0
849.0
846.0
844.0
838.0
830.0
820.0
813.0
805.0
799.0
796.0
792.0
793.0
794.0
796.0
798.0
803.0
804.0
804.0
803.0
801.0
797.0
794.0
797.0
798.0
799.0
801.0
805.0
807.0
809.0
809.0
812.0
811.0
808.0
808.0
805.0
806.0
807.0
807.0
806.0
807.0
810.0
810.0
813.0
814.0
812.0
814.0
813.0
811.0
812.0
813.0
814.0
816.0
816.0
815.0
812.0
809.0
805.0
804.0
799.0
800.0
804.0
808.0
813.0
816.0
813.0
808.0
799.0
792.0
791.0
792.0
794.0
800.0
803.0
799.0
798.0
799.0
802.0
797.0
800.0
799.0
800.0
799.0
796.0
793.0
788.0
784.0
785.0
787.0
789.0
789.0
791.0
791.0
793.0
796.0
797.0
799.0
802.0
799.0
796.0
798.0
797.0
802.0
798.0
802.0
804.0
802.0
803.0
803.0
809.0
813.0
817.0
824.0
821.0
820.0
819.0
815.0
815.0
816.0
814.0
819.0
826.0
831.0
838.0
844.0
843.0
841.0
840.0
839.0
835.0
832.0
825.0
821.0
818.0
819.0
815.0
817.0
816.0
807.0
801.0
792.0
785.0
780.0
776.0
779.0
783.0
786.0
792.0
797.0
798.0
799.0
794.0
793.0
789.0
785.0
786.0
788.0
789.0
790.0
789.0
797.0
804.0
818.0
840.0
873.0
920.0
983.0
1056.0
1139.0
1228.0
1314.0
1396.0
1463.0
1499.0
1509.0
1482.0
1406.0
1280.0
1152.0
1024.0
896.0
768.0
659.0
704.0
776.0
836.0
870.0
877.0
860.0
833.0
812.0
795.0
794.0
794.0
796.0
799.0
802.0
801.0
804.0
803.0
801.0
799.0
803.0
802.0
797.0
798.0
799.0
803.0
805.0
810.0
814.0
811.0
817.0
816.0
814.0
812.0
814.0
816.0
819.0
821.0
827.0
827.0
827.0
829.0
831.0
827.0
830.0
835.0
835.0
838.0
841.0
845.0
852.0
855.0
861.0
862.0
863.0
866.0
868.0
871.0
876.0
880.0
892.0
896.0
904.0
914.0
920.0
926.0
929.0
932.0
936.0
934.0
936.0
939.0
947.0
954.0
963.0
968.0
970.0
972.0
971.0
971.0
970.0
966.0
966.0
958.0
957.0
948.0
945.0
939.0
929.0
924.0
914.0
906.0
897.0
884.0
876.0
870.0
864.0
856.0
851.0
844.0
838.0
830.0
826.0
818.0
813.0
809.0
808.0
807.0
807.0
808.0
808.0
807.0
801.0
799.0
798.0
802.0
803.0
800.0
802.0
800.0
802.0
797.0
802.0
802.0
807.0
804.0
804.0
803.0
803.0
801.0
799.0
802.0
804.0
805.0
810.0
808.0
810.0
811.0
808.0
803.0
804.0
799.0
797.0
800.0
804.0
805.0
809.0
811.0
810.0
811.0
806.0
800.0
799.0
794.0
794.0
794.0
795.0
797.0
800.0
801.0
801.0
801.0
798.0
797.0
794.0
788.0
786.0
788.0
793.0
795.0
797.0
793.0
789.0
789.0
789.0
787.0
784.0
784.0
783.0
781.0
782.0
786.0
788.0
793.0
793.0
793.0
793.0
786.0
782.0
778.0
780.0
782.0
785.0
788.0
788.0
791.0
788.0
789.0
794.0
799.0
800.0
798.0
797.0
797.0
803.0
804.0
809.0
808.0
810.0
808.0
806.0
805.0
812.0
816.0
814.0
819.0
822.0
819.0
819.0
816.0
813.0
807.0
807.0
804.0
802.0
799.0
797.0
797.0
798.0
795.0
794.0
790.0
784.0
780.0
774.0
769.0
768.0
767.0
768.0
770.0
771.0
774.0
777.0
779.0
780.0
779.0
781.0
780.0
778.0
780.0
790.0
802.0
825.0
860.0
912.0
982.0
1064.0
1160.0
1260.0
1354.0
1434.0
1482.0
1500.0
1482.0
1415.0
1292.0
1164.0
1036.0
908.0
780.0
652.0
687.0
746.0
798.0
830.0
838.0
825.0
804.0
788.0
778.0
773.0
775.0
778.0
781.0
785.0
783.0
784.0
784.0
783.0
783.0
788.0
791.0
793.0
795.0
795.0
796.0
800.0
798.0
799.0
800.0
800.0
799.0
806.0
807.0
811.0
810.0
809.0
808.0
811.0
813.0
816.0
818.0
823.0
829.0
835.0
837.0
842.0
845.0
847.0
850.0
851.0
855.0
854.0
862.0
869.0
876.0
883.0
888.0
894.0
898.0
901.0
906.0
910.0
912.0
916.0
921.0
929.0
933.0
934.0
937.0
936.0
939.0
937.0
933.0
931.0
925.0
923.0
924.0
919.0
912.0
908.0
901.0
889.0
880.0
870.0
858.0
847.0
835.0
823.0
818.0
817.0
813.0
814.0
811.0
804.0
796.0
789.0
786.0
782.0
782.0
781.0
779.0
779.0
780.0
778.0
772.0
773.0
771.0
771.0
770.0
773.0
773.0
773.0
770.0
775.0
777.0
783.0
782.0
783.0
780.0
775.0
772.0
774.0
773.0
776.0
780.0
781.0
785.0
788.0
785.0
784.0
781.0
780.0
780.0
781.0
780.0
777.0
776.0
779.0
781.0
784.0
786.0
786.0
788.0
782.0
783.0
780.0
774.0
773.0
775.0
774.0
777.0
781.0
782.0
781.0
780.0
780.0
777.0
772.0
772.0
769.0
767.0
765.0
765.0
765.0
768.0
775.0
779.0
777.0
777.0
776.0
771.0
767.0
767.0
765.0
766.0
770.0
771.0
770.0
771.0
770.0
768.0
768.0
765.0
765.0
766.0
769.0
771.0
773.0
777.0
777.0
775.0
770.0
771.0
772.0
775.0
778.0
781.0
787.0
788.0
789.0
793.0
793.0
794.0
795.0
792.0
789.0
789.0
788.0
792.0
795.0
800.0
806.0
811.0
809.0
810.0
810.0
807.0
806.0
803.0
801.0
798.0
800.0
801.0
803.0
802.0
798.0
792.0
788.0
782.0
777.0
777.0
773.0
772.0
775.0
775.0
778.0
779.0
777.0
774.0
773.0
771.0
771.0
770.0
773.0
775.0
780.0
780.0
784.0
783.0
788.0
796.0
807.0
826.0
857.0
896.0
942.0
1003.0
1069.0
1142.0
1229.0
1313.0
1386.0
1438.0
1455.0
1429.0
1345.0
1217.0
1089.0
961.0
833.0
705.0
689.0
743.0
797.0
838.0
855.0
849.0
833.0
814.0
801.0
793.0
791.0
797.0
801.0
804.0
806.0
805.0
804.0
803.0
803.0
805.0
810.0
813.0
814.0
815.0
816.0
817.0
814.0
815.0
812.0
814.0
817.0
817.0
817.0
818.0
818.0
822.0
826.0
831.0
834.0
839.0
839.0
839.0
839.0
837.0
839.0
842.0
849.0
852.0
860.0
864.0
869.0
871.0
876.0
876.0
879.0
881.0
887.0
897.0
907.0
914.0
920.0
925.0
924.0
923.0
928.0
932.0
932.0
938.0
942.0
945.0
950.0
954.0
959.0
964.0
966.0
963.0
959.0
953.0
951.0
948.0
942.0
934.0
934.0
930.0
928.0
924.0
914.0
901.0
888.0
871.0
862.0
853.0
845.0
839.0
837.0
835.0
835.0
835.0
834.0
830.0
827.0
825.0
824.0
823.0
819.0
815.0
815.0
812.0
811.0
816.0
814.0
814.0
815.0
817.0
815.0
817.0
815.0
817.0
816.0
818.0
817.0
818.0
817.0
813.0
812.0
815.0
815.0
817.0
817.0
821.0
821.0
822.0
825.0
828.0
828.0
825.0
825.0
822.0
820.0
819.0
817.0
821.0
824.0
824.0
828.0
828.0
828.0
827.0
827.0
824.0
821.0
815.0
812.0
809.0
811.0
812.0
815.0
816.0
817.0
816.0
819.0
815.0
812.0
809.0
806.0
806.0
810.0
813.0
813.0
810.0
807.0
811.0
812.0
813.0
812.0
811.0
811.0
810.0
812.0
814.0
813.0
814.0
816.0
812.0
806.0
801.0
799.0
799.0
805.0
805.0
805.0
808.0
811.0
811.0
813.0
816.0
817.0
824.0
826.0
826.0
824.0
826.0
827.0
828.0
834.0
839.0
837.0
838.0
838.0
842.0
842.0
849.0
849.0
850.0
851.0
851.0
851.0
855.0
855.0
856.0
852.0
849.0
844.0
833.0
829.0
823.0
821.0
817.0
816.0
813.0
808.0
805.0
799.0
791.0
791.0
796.0
797.0
800.0
804.0
804.0
808.0
811.0
810.0
810.0
809.0
806.0
805.0
805.0
808.0
813.0
826.0
845.0
875.0
921.0
976.0
1044.0
1119.0
1203.0
1294.0
1379.0
1447.0
1499.0
1521.0
1523.0
1502.0
1451.0
1356.0
1228.0
1100.0
972.0
844.0
716.0
712.0
774.0
836.0
872.0
884.0
876.0
850.0
826.0
810.0
801.0
798.0
802.0
804.0
809.0
812.0
813.0
814.0
815.0
814.0
815.0
815.0
815.0
812.0
814.0
813.0
817.0
822.0
824.0
828.0
832.0
831.0
829.0
824.0
824.0
824.0
829.0
825.0
830.0
833.0
836.0
840.0
849.0
850.0
850.0
848.0
846.0
848.0
849.0
850.0
856.0
857.0
868.0
877.0
885.0
890.0
896.0
898.0
900.0
901.0
905.0
911.0
915.0
924.0
933.0
941.0
950.0
956.0
957.0
958.0
959.0
958.0
955.0
957.0
956.0
959.0
964.0
966.0
971.0
967.0
965.0
959.0
954.0
949.0
941.0
935.0
923.0
913.0
907.0
897.0
891.0
880.0
864.0
858.0
847.0
842.0
837.0
829.0
831.0
828.0
827.0
825.0
821.0
820.0
819.0
817.0
818.0
815.0
811.0
811.0
811.0
812.0
811.0
813.0
813.0
812.0
811.0
812.0
814.0
815.0
815.0
817.0
817.0
817.0
816.0
816.0
817.0
816.0
815.0
815.0
815.0
813.0
812.0
811.0
810.0
812.0
815.0
816.0
821.0
822.0
822.0
821.0
823.0
819.0
818.0
814.0
811.0
811.0
815.0
815.0
815.0
816.0
814.0
814.0
812.0
812.0
810.0
810.0
809.0
810.0
805.0
809.0
809.0
812.0
813.0
810.0
809.0
806.0
804.0
798.0
798.0
803.0
805.0
806.0
810.0
808.0
807.0
803.0
800.0
797.0
797.0
797.0
799.0
802.0
803.0
802.0
802.0
800.0
795.0
796.0
795.0
795.0
797.0
794.0
795.0
798.0
800.0
803.0
807.0
809.0
808.0
808.0
808.0
810.0
812.0
813.0
816.0
818.0
818.0
821.0
820.0
821.0
823.0
827.0
828.0
831.0
835.0
837.0
840.0
841.0
843.0
846.0
845.0
843.0
839.0
834.0
829.0
825.0
825.0
822.0
821.0
818.0
815.0
807.0
806.0
801.0
798.0
793.0
790.0
787.0
785.0
783.0
786.0
788.0
788.0
791.0
793.0
795.0
795.0
797.0
797.0
794.0
796.0
794.0
792.0
795.0
803.0
818.0
846.0
884.0
936.0
1002.0
1076.0
1161.0
1245.0
1327.0
1402.0
1460.0
1497.0
1511.0
1501.0
1466.0
1387.0
1259.0
1131.0
1003.0
875.0
747.0
693.0
740.0
801.0
849.0
873.0
871.0
856.0
830.0
807.0
793.0
788.0
789.0
793.0
801.0
806.0
807.0
809.0
808.0
807.0
801.0
800.0
795.0
795.0
800.0
804.0
809.0
813.0
817.0
817.0
817.0
818.0
820.0
820.0
822.0
821.0
820.0
818.0
821.0
825.0
825.0
829.0
831.0
833.0
837.0
839.0
842.0
843.0
842.0
843.0
846.0
852.0
862.0
871.0
875.0
880.0
883.0
884.0
886.0
888.0
891.0
895.0
907.0
914.0
919.0
924.0
932.0
937.0
938.0
944.0
950.0
953.0
957.0
961.0
963.0
967.0
967.0
970.0
970.0
968.0
965.0
961.0
957.0
955.0
950.0
947.0
944.0
940.0
933.0
925.0
912.0
900.0
892.0
882.0
871.0
860.0
848.0
839.0
836.0
832.0
831.0
828.0
825.0
820.0
815.0
810.0
806.0
804.0
803.0
801.0
805.0
804.0
807.0
806.0
802.0
803.0
800.0
803.0
806.0
802.0
799.0
796.0
792.0
795.0
798.0
802.0
805.0
812.0
811.0
810.0
810.0
807.0
805.0
804.0
804.0
806.0
807.0
813.0
815.0
816.0
814.0
810.0
806.0
803.0
802.0
800.0
801.0
804.0
803.0
805.0
805.0
805.0
807.0
807.0
806.0
802.0
796.0
796.0
794.0
796.0
796.0
800.0
802.0
801.0
803.0
798.0
796.0
795.0
789.0
790.0
789.0
790.0
790.0
790.0
791.0
792.0
792.0
791.0
792.0
791.0
787.0
786.0
786.0
787.0
789.0
788.0
788.0
788.0
785.0
785.0
784.0
784.0
785.0
784.0
787.0
792.0
793.0
793.0
787.0
786.0
778.0
773.0
774.0
777.0
784.0
785.0
799.0
808.0
813.0
816.0
812.0
808.0
802.0
801.0
800.0
800.0
805.0
806.0
811.0
813.0
817.0
820.0
826.0
823.0
821.0
817.0
818.0
815.0
812.0
806.0
807.0
806.0
802.0
800.0
796.0
787.0
786.0
781.0
779.0
776.0
774.0
772.0
771.0
770.0
767.0
769.0
772.0
774.0
771.0
770.0
768.0
768.0
766.0
765.0
768.0
770.0
777.0
782.0
794.0
811.0
835.0
878.0
929.0
997.0
1072.0
1160.0
1255.0
1349.0
1430.0
1483.0
1501.0
1481.0
1415.0
1287.0
1159.0
1031.0
903.0
775.0
647.0
686.0
751.0
810.0
846.0
851.0
835.0
805.0
784.0
766.0
759.0
758.0
765.0
770.0
773.0
774.0
776.0
769.0
767.0
768.0
769.0
768.0
773.0
770.0
777.0
780.0
782.0
788.0
787.0
788.0
791.0
791.0
788.0
786.0
783.0
784.0
787.0
789.0
792.0
800.0
801.0
807.0
808.0
810.0
810.0
813.0
816.0
816.0
819.0
822.0
826.0
829.0
832.0
835.0
839.0
842.0
847.0
852.0
855.0
860.0
865.0
874.0
883.0
891.0
894.0
899.0
900.0
902.0
901.0
904.0
911.0
911.0
917.0
924.0
929.0
935.0
935.0
932.0
929.0
921.0
914.0
909.0
903.0
896.0
886.0
881.0
869.0
857.0
849.0
838.0
830.0
826.0
817.0
811.0
808.0
802.0
796.0
791.0
790.0
790.0
786.0
781.0
775.0
770.0
771.0
768.0
767.0
767.0
771.0
771.0
773.0
773.0
772.0
774.0
774.0
776.0
773.0
768.0
766.0
764.0
764.0
768.0
770.0
773.0
777.0
782.0
781.0
779.0
777.0
774.0
773.0
768.0
770.0
771.0
774.0
773.0
776.0
774.0
774.0
773.0
768.0
767.0
764.0
765.0
767.0
769.0
772.0
777.0
775.0
773.0
768.0
763.0
759.0
758.0
757.0
757.0
755.0
759.0
761.0
764.0
765.0
765.0
767.0
761.0
754.0
753.0
747.0
748.0
753.0
754.0
754.0
753.0
753.0
753.0
756.0
757.0
754.0
753.0
752.0
751.0
753.0
752.0
750.0
757.0
756.0
756.0
751.0
748.0
744.0
745.0
747.0
746.0
753.0
757.0
761.0
766.0
766.0
764.0
766.0
768.0
769.0
769.0
769.0
770.0
766.0
774.0
773.0
776.0
780.0
781.0
786.0
789.0
791.0
794.0
791.0
792.0
791.0
794.0
794.0
791.0
792.0
791.0
788.0
786.0
779.0
774.0
768.0
765.0
763.0
761.0
757.0
757.0
757.0
756.0
754.0
754.0
753.0
753.0
754.0
754.0
756.0
761.0
761.0
764.0
766.0
765.0
764.0
763.0
763.0
766.0
771.0
782.0
805.0
838.0
883.0
946.0
1015.0
1097.0
1184.0
1272.0
1354.0
1418.0
1450.0
1448.0
1390.0
1279.0
1151.0
1023.0
895.0
767.0
639.0
643.0
701.0
761.0
800.0
819.0
819.0
808.0
790.0
781.0
774.0
773.0
774.0
776.0
776.0
776.0
774.0
775.0
777.0
779.0
779.0
784.0
783.0
784.0
781.0
783.0
780.0
786.0
783.0
782.0
784.0
792.0
797.0
801.0
807.0
809.0
805.0
804.0
804.0
807.0
804.0
801.0
807.0
809.0
817.0
825.0
826.0
829.0
827.0
831.0
833.0
837.0
842.0
847.0
850.0
858.0
863.0
869.0
869.0
874.0
881.0
885.0
893.0
899.0
906.0
909.0
915.0
919.0
923.0
926.0
928.0
931.0
932.0
933.0
936.0
935.0
937.0
935.0
933.0
935.0
937.0
937.0
937.0
932.0
923.0
906.0
897.0
887.0
869.0
859.0
853.0
847.0
838.0
830.0
825.0
821.0
815.0
807.0
805.0
801.0
803.0
794.0
795.0
794.0
788.0
791.0
791.0
788.0
785.0
784.0
783.0
782.0
781.0
780.0
786.0
788.0
791.0
791.0
787.0
786.0
788.0
787.0
790.0
794.0
794.0
795.0
795.0
796.0
796.0
795.0
796.0
799.0
797.0
797.0
799.0
796.0
795.0
795.0
795.0
797.0
796.0
796.0
798.0
795.0
799.0
794.0
792.0
786.0
784.0
785.0
786.0
789.0
791.0
794.0
792.0
791.0
791.0
789.0
783.0
784.0
781.0
778.0
777.0
781.0
781.0
784.0
787.0
780.0
779.0
777.0
782.0
781.0
784.0
781.0
778.0
779.0
779.0
781.0
783.0
784.0
784.0
783.0
785.0
783.0
782.0
779.0
777.0
775.0
775.0
775.0
778.0
775.0
775.0
775.0
775.0
775.0
772.0
771.0
772.0
777.0
783.0
783.0
788.0
789.0
792.0
793.0
797.0
796.0
795.0
793.0
795.0
799.0
802.0
806.0
808.0
805.0
806.0
808.0
815.0
816.0
818.0
821.0
819.0
817.0
817.0
817.0
817.0
816.0
819.0
820.0
818.0
813.0
808.0
803.0
797.0
792.0
787.0
785.0
785.0
783.0
781.0
772.0
770.0
764.0
762.0
765.0
765.0
767.0
769.0
771.0
772.0
772.0
770.0
771.0
768.0
768.0
769.0
769.0
772.0
775.0
784.0
793.0
804.0
823.0
853.0
894.0
954.0
1016.0
1093.0
1178.0
1263.0
1347.0
1418.0
1472.0
1501.0
1501.0
1468.0
1390.0
1263.0
1135.0
1007.0
879.0
751.0
631.0
669.0
739.0
801.0
841.0
854.0
842.0
822.0
801.0
785.0
776.0
778.0
780.0
783.0
787.0
788.0
783.0
784.0
780.0
780.0
778.0
774.0
777.0
783.0
787.0
789.0
794.0
795.0
799.0
801.0
800.0
794.0
793.0
794.0
796.0
797.0
803.0
811.0
816.0
818.0
818.0
817.0
815.0
816.0
818.0
820.0
817.0
821.0
824.0
829.0
836.0
838.0
843.0
851.0
853.0
863.0
866.0
869.0
873.0
876.0
880.0
885.0
890.0
898.0
905.0
911.0
915.0
919.0
925.0
929.0
933.0
940.0
944.0
950.0
953.0
957.0
957.0
958.0
960.0
955.0
954.0
943.0
937.0
937.0
936.0
931.0
927.0
924.0
911.0
900.0
886.0
871.0
860.0
850.0
842.0
839.0
831.0
825.0
821.0
820.0
815.0
810.0
806.0
799.0
793.0
791.0
