# Simple Text Format
# Sampling Rate (Hz):= 360.00
# Resolution:= 12
# Labels:= ECG
784.0
785.0
784.0
784.0
786.0
787.0
787.0
788.0
786.0
783.0
782.0
779.0
777.0
776.0
775.0
775.0
777.0
778.0
781.0
782.0
782.0
781.0
780.0
776.0
773.0
773.0
769.0
773.0
773.0
774.0
776.0
777.0
776.0
774.0
770.0
770.0
772.0
771.0
770.0
776.0
778.0
778.0
779.0
776.0
776.0
776.0
777.0
780.0
783.0
784.0
784.0
788.0
790.0
793.0
799.0
797.0
799.0
798.0
797.0
796.0
799.0
799.0
802.0
803.0
804.0
805.0
807.0
805.0
805.0
800.0
797.0
796.0
791.0
786.0
787.0
787.0
786.0
783.0
778.0
772.0
767.0
764.0
758.0
761.0
760.0
763.0
764.0
762.0
764.0
763.0
764.0
766.0
770.0
771.0
770.0
766.0
766.0
766.0
770.0
780.0
794.0
824.0
868.0
922.0
984.0
1061.0
1141.0
1223.0
1307.0
1382.0
1443.0
1482.0
1494.0
1475.0
1422.0
1318.0
1190.0
1062.0
934.0
806.0
678.0
668.0
717.0
771.0
813.0
832.0
830.0
812.0
793.0
775.0
764.0
759.0
760.0
761.0
764.0
766.0
769.0
769.0
772.0
772.0
770.0
770.0
768.0
767.0
768.0
769.0
769.0
769.0
771.0
773.0
775.0
778.0
781.0
785.0
789.0
789.0
789.0
787.0
786.0
785.0
787.0
792.0
795.0
798.0
799.0
799.0
802.0
807.0
807.0
808.0
808.0
814.0
819.0
821.0
828.0
837.0
840.0
841.0
843.0
848.0
852.0
855.0
865.0
871.0
881.0
888.0
893.0
901.0
899.0
904.0
908.0
912.0
916.0
922.0
926.0
931.0
934.0
938.0
940.0
937.0
936.0
934.0
931.0
927.0
922.0
908.0
904.0
896.0
889.0
881.0
875.0
868.0
857.0
848.0
838.0
827.0
816.0
808.0
800.0
798.0
795.0
792.0
792.0
790.0
791.0
789.0
788.0
785.0
784.0
781.0
780.0
780.0
779.0
778.0
777.0
777.0
779.0
775.0
771.0
774.0
776.0
776.0
774.0
776.0
780.0
783.0
787.0
787.0
789.0
790.0
789.0
785.0
783.0
783.0
782.0
784.0
786.0
793.0
796.0
796.0
799.0
799.0
798.0
796.0
794.0
794.0
794.0
795.0
797.0
797.0
795.0
797.0
796.0
791.0
789.0
787.0
791.0
794.0
794.0
794.0
796.0
798.0
799.0
799.0
797.0
796.0
794.0
791.0
788.0
787.0
789.0
790.0
791.0
792.0
794.0
797.0
795.0
793.0
796.0
789.0
791.0
784.0
788.0
787.0
790.0
795.0
797.0
800.0
801.0
801.0
798.0
795.0
790.0
788.0
784.0
786.0
789.0
793.0
796.0
798.0
798.0
802.0
799.0
798.0
797.0
799.0
799.0
805.0
810.0
814.0
817.0
818.0
819.0
817.0
817.0
817.0
817.0
819.0
823.0
827.0
833.0
834.0
843.0
842.0
839.0
838.0
833.0
827.0
826.0
825.0
825.0
826.0
824.0
825.0
822.0
820.0
816.0
809.0
803.0
799.0
795.0
787.0
784.0
784.0
787.0
793.0
799.0
800.0
801.0
801.0
799.0
798.0
796.0
796.0
797.0
798.0
798.0
800.0
803.0
809.0
820.0
842.0
874.0
926.0
990.0
1066.0
1147.0
1237.0
1324.0
1402.0
1468.0
1509.0
1523.0
1506.0
1450.0
1340.0
1212.0
1084.0
956.0
828.0
717.0
751.0
812.0
859.0
885.0
886.0
868.0
845.0
825.0
805.0
797.0
798.0
806.0
810.0
812.0
814.0
814.0
808.0
810.0
809.0
804.0
805.0
806.0
808.0
809.0
816.0
821.0
822.0
821.0
819.0
820.0
819.0
819.0
820.0
822.0
826.0
832.0
836.0
837.0
836.0
835.0
841.0
841.0
844.0
849.0
852.0
852.0
853.0
857.0
862.0
867.0
870.0
875.0
881.0
884.0
891.0
897.0
899.0
906.0
910.0
915.0
922.0
929.0
936.0
943.0
946.0
950.0
951.0
958.0
963.0
969.0
975.0
979.0
982.0
984.0
982.0
983.0
978.0
978.0
973.0
971.0
967.0
960.0
952.0
944.0
937.0
930.0
922.0
913.0
904.0
889.0
876.0
867.0
859.0
853.0
845.0
839.0
835.0
832.0
829.0
828.0
825.0
820.0
815.0
814.0
808.0
808.0
813.0
815.0
814.0
813.0
814.0
810.0
807.0
803.0
802.0
800.0
800.0
798.0
798.0
801.0
804.0
812.0
816.0
813.0
813.0
805.0
803.0
804.0
799.0
801.0
804.0
805.0
809.0
811.0
812.0
811.0
809.0
807.0
805.0
808.0
810.0
809.0
811.0
810.0
811.0
813.0
813.0
811.0
812.0
807.0
804.0
801.0
801.0
799.0
800.0
801.0
801.0
809.0
810.0
808.0
806.0
802.0
800.0
798.0
796.0
797.0
799.0
800.0
801.0
803.0
802.0
799.0
799.0
799.0
801.0
797.0
798.0
795.0
793.0
794.0
796.0
801.0
801.0
803.0
804.0
805.0
801.0
799.0
795.0
794.0
795.0
796.0
797.0
801.0
803.0
806.0
807.0
807.0
804.0
807.0
809.0
809.0
812.0
815.0
819.0
826.0
827.0
828.0
827.0
824.0
821.0
820.0
822.0
827.0
833.0
841.0
846.0
847.0
847.0
843.0
839.0
835.0
833.0
830.0
830.0
826.0
824.0
822.0
821.0
823.0
819.0
814.0
807.0
802.0
800.0
797.0
796.0
793.0
791.0
797.0
796.0
801.0
802.0
803.0
804.0
799.0
798.0
800.0
798.0
800.0
800.0
803.0
799.0
808.0
814.0
820.0
838.0
870.0
916.0
983.0
1065.0
1156.0
1256.0
1347.0
1431.0
1492.0
1530.0
1543.0
1534.0
1499.0
1431.0
1311.0
1183.0
1055.0
927.0
799.0
723.0
764.0
823.0
864.0
886.0
884.0
867.0
847.0
829.0
820.0
817.0
816.0
816.0
818.0
821.0
819.0
820.0
820.0
815.0
816.0
816.0
815.0
819.0
823.0
823.0
828.0
830.0
834.0
834.0
831.0
827.0
827.0
825.0
825.0
831.0
832.0
833.0
836.0
844.0
849.0
851.0
851.0
852.0
853.0
852.0
853.0
856.0
860.0
865.0
871.0
877.0
882.0
885.0
888.0
890.0
893.0
899.0
904.0
908.0
915.0
923.0
930.0
938.0
944.0
949.0
954.0
956.0
959.0
964.0
962.0
970.0
979.0
986.0
993.0
999.0
1002.0
1000.0
999.0
996.0
993.0
992.0
987.0
986.0
979.0
976.0
968.0
958.0
945.0
930.0
921.0
910.0
897.0
886.0
875.0
869.0
864.0
857.0
851.0
847.0
839.0
838.0
834.0
833.0
830.0
825.0
824.0
819.0
822.0
816.0
817.0
819.0
819.0
817.0
812.0
810.0
809.0
811.0
810.0
810.0
814.0
817.0
820.0
819.0
821.0
819.0
815.0
812.0
806.0
810.0
811.0
812.0
819.0
822.0
826.0
827.0
828.0
826.0
821.0
822.0
821.0
818.0
815.0
816.0
822.0
822.0
824.0
824.0
829.0
828.0
827.0
824.0
824.0
823.0
822.0
821.0
820.0
818.0
820.0
816.0
814.0
816.0
816.0
817.0
815.0
814.0
813.0
815.0
818.0
817.0
819.0
823.0
820.0
818.0
816.0
814.0
807.0
808.0
808.0
812.0
813.0
814.0
815.0
815.0
814.0
812.0
810.0
809.0
808.0
808.0
811.0
809.0
809.0
811.0
811.0
813.0
807.0
810.0
810.0
808.0
806.0
805.0
805.0
805.0
813.0
819.0
824.0
828.0
826.0
831.0
831.0
827.0
825.0
826.0
826.0
826.0
827.0
829.0
834.0
838.0
842.0
842.0
845.0
841.0
843.0
841.0
841.0
841.0
840.0
839.0
838.0
837.0
836.0
834.0
831.0
829.0
824.0
816.0
807.0
801.0
801.0
797.0
798.0
798.0
801.0
800.0
799.0
799.0
800.0
799.0
802.0
801.0
799.0
798.0
794.0
791.0
793.0
793.0
791.0
794.0
794.0
800.0
811.0
834.0
866.0
914.0
977.0
1050.0
1125.0
1209.0
1291.0
1369.0
1438.0
1489.0
1514.0
1517.0
1489.0
1419.0
1309.0
1181.0
1053.0
925.0
797.0
715.0
749.0
804.0
848.0
873.0
875.0
860.0
841.0
821.0
811.0
802.0
799.0
799.0
797.0
798.0
797.0
798.0
797.0
798.0
800.0
800.0
799.0
800.0
801.0
801.0
797.0
796.0
798.0
801.0
806.0
809.0
813.0
813.0
814.0
817.0
817.0
816.0
814.0
816.0
816.0
818.0
817.0
824.0
825.0
825.0
828.0
830.0
832.0
832.0
833.0
835.0
842.0
844.0
850.0
855.0
864.0
867.0
873.0
877.0
882.0
884.0
887.0
892.0
894.0
902.0
906.0
915.0
921.0
926.0
936.0
940.0
946.0
950.0
954.0
961.0
963.0
967.0
970.0
970.0
970.0
970.0
967.0
963.0
958.0
954.0
946.0
942.0
936.0
927.0
919.0
909.0
897.0
886.0
873.0
862.0
853.0
841.0
832.0
821.0
815.0
811.0
810.0
810.0
808.0
804.0
800.0
796.0
790.0
787.0
785.0
782.0
782.0
782.0
776.0
776.0
776.0
778.0
780.0
780.0
777.0
775.0
776.0
774.0
772.0
772.0
780.0
779.0
783.0
785.0
785.0
784.0
785.0
784.0
783.0
784.0
785.0
786.0
785.0
789.0
792.0
793.0
793.0
789.0
784.0
782.0
784.0
785.0
785.0
788.0
789.0
791.0
791.0
790.0
789.0
786.0
786.0
782.0
780.0
779.0
778.0
778.0
778.0
778.0
783.0
786.0
783.0
779.0
778.0
775.0
775.0
774.0
774.0
778.0
777.0
776.0
776.0
777.0
773.0
773.0
769.0
771.0
767.0
765.0
769.0
772.0
770.0
769.0
768.0
767.0
763.0
767.0
767.0
763.0
762.0
761.0
761.0
767.0
773.0
782.0
785.0
789.0
791.0
788.0
787.0
783.0
782.0
783.0
779.0
779.0
780.0
785.0
792.0
795.0
801.0
801.0
802.0
800.0
797.0
793.0
788.0
789.0
791.0
790.0
790.0
790.0
788.0
787.0
781.0
777.0
771.0
765.0
759.0
758.0
753.0
754.0
754.0
757.0
757.0
762.0
762.0
761.0
755.0
754.0
751.0
750.0
753.0
753.0
758.0
759.0
760.0
759.0
764.0
770.0
783.0
803.0
837.0
885.0
946.0
1015.0
1089.0
1170.0
1256.0
1337.0
1409.0
1461.0
1484.0
1472.0
1413.0
1301.0
1173.0
1045.0
917.0
789.0
661.0
685.0
736.0
785.0
819.0
829.0
821.0
802.0
783.0
772.0
763.0
760.0
763.0
766.0
763.0
763.0
761.0
759.0
757.0
758.0
758.0
760.0
764.0
766.0
765.0
767.0
768.0
769.0
767.0
765.0
767.0
769.0
770.0
772.0
777.0
781.0
783.0
784.0
784.0
787.0
784.0
782.0
782.0
785.0
794.0
800.0
802.0
806.0
808.0
809.0
811.0
812.0
814.0
817.0
821.0
827.0
835.0
839.0
848.0
855.0
866.0
872.0
877.0
877.0
880.0
879.0
886.0
890.0
900.0
907.0
915.0
922.0
925.0
926.0
926.0
926.0
925.0
923.0
922.0
918.0
917.0
912.0
905.0
898.0
887.0
879.0
870.0
856.0
847.0
838.0
823.0
816.0
807.0
802.0
794.0
790.0
784.0
777.0
769.0
770.0
767.0
767.0
763.0
766.0
768.0
767.0
768.0
768.0
769.0
766.0
764.0
760.0
758.0
756.0
752.0
753.0
754.0
758.0
762.0
767.0
771.0
774.0
771.0
771.0
765.0
761.0
765.0
767.0
771.0
772.0
772.0
771.0
774.0
775.0
775.0
774.0
772.0
774.0
773.0
775.0
777.0
779.0
781.0
782.0
782.0
779.0
778.0
777.0
774.0
774.0
775.0
773.0
777.0
779.0
779.0
783.0
783.0
781.0
779.0
779.0
775.0
773.0
774.0
772.0
767.0
772.0
768.0
775.0
778.0
775.0
773.0
769.0
769.0
767.0
767.0
768.0
770.0
775.0
777.0
781.0
778.0
781.0
777.0
774.0
769.0
768.0
771.0
772.0
771.0
772.0
773.0
773.0
776.0
776.0
772.0
774.0
772.0
776.0
777.0
780.0
785.0
790.0
793.0
796.0
798.0
800.0
800.0
799.0
798.0
793.0
796.0
795.0
799.0
803.0
808.0
815.0
819.0
821.0
821.0
821.0
815.0
811.0
810.0
809.0
808.0
811.0
809.0
810.0
809.0
803.0
795.0
788.0
784.0
778.0
775.0
772.0
772.0
771.0
777.0
782.0
784.0
785.0
782.0
783.0
783.0
782.0
780.0
780.0
779.0
780.0
780.0
784.0
785.0
792.0
805.0
827.0
864.0
915.0
982.0
1061.0
1146.0
1230.0
1311.0
1389.0
1453.0
1496.0
1516.0
1499.0
1441.0
1325.0
1197.0
1069.0
941.0
813.0
697.0
736.0
793.0
841.0
863.0
864.0
848.0
829.0
812.0
795.0
793.0
794.0
797.0
798.0
799.0
797.0
792.0
792.0
793.0
792.0
790.0
793.0
796.0
799.0
802.0
807.0
811.0
812.0
812.0
811.0
809.0
808.0
810.0
810.0
817.0
817.0
816.0
820.0
823.0
817.0
819.0
819.0
820.0
822.0
827.0
825.0
832.0
838.0
844.0
848.0
851.0
855.0
858.0
862.0
861.0
868.0
869.0
874.0
879.0
888.0
895.0
905.0
910.0
914.0
917.0
923.0
927.0
928.0
931.0
939.0
943.0
947.0
955.0
961.0
967.0
973.0
971.0
967.0
966.0
969.0
970.0
971.0
973.0
970.0
969.0
962.0
954.0
947.0
939.0
930.0
923.0
912.0
898.0
885.0
877.0
869.0
861.0
857.0
848.0
839.0
830.0
824.0
817.0
814.0
813.0
808.0
810.0
814.0
812.0
814.0
812.0
805.0
805.0
802.0
793.0
794.0
796.0
796.0
799.0
799.0
801.0
803.0
803.0
802.0
800.0
800.0
804.0
803.0
802.0
802.0
802.0
800.0
799.0
804.0
803.0
805.0
804.0
804.0
803.0
802.0
803.0
801.0
804.0
804.0
807.0
811.0
809.0
810.0
809.0
810.0
809.0
809.0
809.0
809.0
810.0
810.0
812.0
812.0
814.0
811.0
809.0
805.0
804.0
800.0
801.0
798.0
799.0
798.0
799.0
807.0
806.0
808.0
808.0
805.0
800.0
799.0
796.0
794.0
797.0
798.0
802.0
802.0
801.0
799.0
799.0
798.0
798.0
797.0
790.0
793.0
790.0
791.0
794.0
797.0
797.0
795.0
795.0
793.0
787.0
787.0
786.0
785.0
786.0
790.0
795.0
800.0
799.0
799.0
799.0
795.0
799.0
803.0
807.0
808.0
806.0
806.0
805.0
813.0
813.0
817.0
818.0
819.0
816.0
817.0
816.0
815.0
819.0
823.0
824.0
829.0
828.0
829.0
825.0
821.0
818.0
812.0
808.0
807.0
809.0
807.0
807.0
803.0
797.0
790.0
783.0
778.0
772.0
768.0
766.0
766.0
771.0
774.0
777.0
779.0
781.0
779.0
773.0
771.0
774.0
770.0
770.0
769.0
772.0
775.0
787.0
810.0
841.0
896.0
960.0
1029.0
1107.0
1190.0
1270.0
1354.0
1429.0
1482.0
1510.0
1503.0
1447.0
1331.0
1203.0
1075.0
947.0
819.0
691.0
723.0
779.0
823.0
848.0
847.0
831.0
809.0
787.0
773.0
767.0
764.0
763.0
767.0
772.0
774.0
774.0
774.0
774.0
774.0
771.0
769.0
770.0
769.0
771.0
773.0
776.0
781.0
783.0
783.0
787.0
784.0
785.0
783.0
783.0
782.0
784.0
786.0
789.0
791.0
792.0
797.0
804.0
805.0
807.0
807.0
809.0
812.0
813.0
815.0
819.0
820.0
824.0
833.0
837.0
848.0
854.0
857.0
862.0
863.0
868.0
875.0
880.0
889.0
898.0
902.0
913.0
916.0
921.0
921.0
924.0
927.0
927.0
930.0
931.0
933.0
935.0
936.0
935.0
926.0
920.0
912.0
902.0
891.0
875.0
862.0
851.0
847.0
840.0
836.0
829.0
821.0
812.0
802.0
790.0
781.0
775.0
773.0
771.0
771.0
771.0
770.0
767.0
766.0
767.0
764.0
760.0
759.0
756.0
754.0
755.0
756.0
757.0
758.0
760.0
759.0
761.0
760.0
758.0
756.0
756.0
754.0
755.0
757.0
762.0
764.0
764.0
765.0
763.0
760.0
760.0
756.0
756.0
757.0
760.0
761.0
764.0
766.0
763.0
762.0
762.0
763.0
763.0
766.0
763.0
764.0
758.0
761.0
761.0
765.0
765.0
766.0
765.0
763.0
761.0
757.0
755.0
754.0
756.0
760.0
761.0
763.0
763.0
760.0
759.0
754.0
752.0
754.0
752.0
752.0
748.0
752.0
751.0
753.0
754.0
756.0
756.0
755.0
752.0
748.0
750.0
748.0
747.0
751.0
757.0
755.0
757.0
758.0
757.0
756.0
751.0
750.0
746.0
749.0
752.0
755.0
757.0
765.0
771.0
773.0
774.0
772.0
771.0
767.0
765.0
765.0
768.0
772.0
775.0
779.0
779.0
783.0
786.0
786.0
787.0
789.0
786.0
784.0
786.0
784.0
782.0
783.0
785.0
783.0
784.0
777.0
775.0
770.0
765.0
755.0
752.0
752.0
748.0
747.0
748.0
747.0
746.0
742.0
740.0
738.0
738.0
740.0
740.0
744.0
746.0
750.0
751.0
750.0
748.0
746.0
747.0
748.0
756.0
763.0
782.0
810.0
850.0
909.0
979.0
1065.0
1160.0
1257.0
1350.0
1423.0
1467.0
1469.0
1418.0
1301.0
1173.0
1045.0
917.0
789.0
661.0
664.0
714.0
766.0
802.0
813.0
808.0
794.0
778.0
765.0
759.0
755.0
756.0
757.0
758.0
757.0
757.0
757.0
755.0
758.0
759.0
764.0
768.0
771.0
771.0
768.0
768.0
764.0
763.0
764.0
767.0
771.0
776.0
780.0
781.0
782.0
783.0
779.0
785.0
786.0
787.0
788.0
791.0
795.0
794.0
799.0
803.0
806.0
805.0
808.0
812.0
815.0
820.0
825.0
826.0
835.0
840.0
846.0
849.0
852.0
856.0
859.0
859.0
865.0
868.0
874.0
884.0
894.0
901.0
910.0
916.0
920.0
922.0
923.0
925.0
923.0
924.0
924.0
926.0
929.0
926.0
925.0
923.0
921.0
913.0
906.0
890.0
880.0
871.0
864.0
848.0
841.0
833.0
827.0
820.0
812.0
804.0
798.0
792.0
785.0
784.0
782.0
783.0
788.0
787.0
788.0
785.0
781.0
778.0
772.0
772.0
770.0
770.0
773.0
776.0
779.0
781.0
781.0
783.0
782.0
783.0
786.0
781.0
776.0
775.0
775.0
776.0
782.0
785.0
788.0
790.0
790.0
789.0
785.0
785.0
783.0
782.0
785.0
784.0
783.0
784.0
785.0
791.0
790.0
790.0
789.0
788.0
785.0
786.0
783.0
781.0
784.0
788.0
788.0
792.0
792.0
789.0
786.0
783.0
782.0
782.0
781.0
782.0
783.0
783.0
782.0
784.0
785.0
784.0
779.0
778.0
776.0
775.0
779.0
777.0
776.0
779.0
783.0
787.0
789.0
785.0
785.0
779.0
776.0
776.0
775.0
776.0
774.0
775.0
778.0
783.0
787.0
787.0
786.0
784.0
780.0
783.0
784.0
788.0
796.0
801.0
804.0
807.0
806.0
806.0
805.0
801.0
799.0
799.0
799.0
803.0
813.0
820.0
821.0
827.0
828.0
827.0
823.0
822.0
818.0
814.0
810.0
809.0
808.0
809.0
809.0
809.0
801.0
799.0
792.0
786.0
780.0
775.0
774.0
771.0
772.0
773.0
774.0
779.0
779.0
778.0
775.0
775.0
775.0
774.0
774.0
778.0
782.0
781.0
780.0
781.0
778.0
781.0
782.0
791.0
809.0
837.0
882.0
937.0
1006.0
1085.0
1169.0
1258.0
1348.0
1431.0
1488.0
1514.0
1505.0
1451.0
1346.0
1218.0
1090.0
962.0
834.0
706.0
740.0
796.0
844.0
871.0
871.0
851.0
827.0
803.0
792.0
785.0
786.0
790.0
795.0
795.0
796.0
794.0
790.0
789.0
787.0
788.0
791.0
794.0
794.0
800.0
797.0
798.0
796.0
795.0
796.0
799.0
804.0
805.0
806.0
808.0
810.0
812.0
816.0
814.0
815.0
813.0
810.0
814.0
815.0
822.0
827.0
826.0
831.0
837.0
844.0
846.0
844.0
843.0
848.0
850.0
854.0
856.0
860.0
866.0
876.0
884.0
894.0
894.0
898.0
898.0
900.0
905.0
911.0
918.0
926.0
933.0
941.0
946.0
948.0
955.0
960.0
963.0
963.0
962.0
956.0
958.0
960.0
960.0
957.0
955.0
957.0
950.0
941.0
931.0
919.0
912.0
901.0
890.0
880.0
872.0
865.0
858.0
848.0
838.0
829.0
819.0
808.0
802.0
796.0
797.0
796.0
797.0
795.0
797.0
795.0
793.0
787.0
783.0
780.0
778.0
774.0
776.0
776.0
777.0
781.0
782.0
778.0
779.0
777.0
779.0
775.0
775.0
777.0
777.0
778.0
778.0
777.0
778.0
780.0
781.0
782.0
780.0
779.0
779.0
777.0
777.0
779.0
784.0
786.0
789.0
789.0
787.0
785.0
781.0
779.0
775.0
775.0
772.0
775.0
778.0
782.0
781.0
779.0
780.0
775.0
775.0
770.0
769.0
769.0
769.0
768.0
769.0
771.0
771.0
770.0
771.0
769.0
770.0
768.0
767.0
766.0
766.0
768.0
771.0
770.0
771.0
769.0
764.0
761.0
758.0
757.0
757.0
759.0
760.0
766.0
769.0
772.0
772.0
770.0
767.0
764.0
762.0
760.0
761.0
761.0
764.0
768.0
776.0
780.0
784.0
784.0
783.0
781.0
778.0
775.0
775.0
781.0
783.0
785.0
789.0
795.0
797.0
797.0
800.0
799.0
796.0
795.0
794.0
791.0
788.0
783.0
786.0
784.0
789.0
788.0
783.0
780.0
773.0
767.0
757.0
753.0
749.0
748.0
751.0
757.0
760.0
757.0
754.0
757.0
755.0
751.0
750.0
753.0
756.0
758.0
759.0
761.0
760.0
761.0
770.0
776.0
795.0
824.0
876.0
941.0
1027.0
1121.0
1222.0
1319.0
1403.0
1464.0
1493.0
1489.0
1453.0
1374.0
1248.0
1120.0
992.0
864.0
736.0
648.0
678.0
729.0
782.0
817.0
826.0
815.0
795.0
777.0
758.0
754.0
756.0
761.0
769.0
771.0
773.0
772.0
772.0
767.0
763.0
763.0
762.0
768.0
770.0
775.0
778.0
780.0
777.0
780.0
778.0
777.0
780.0
781.0
784.0
786.0
788.0
789.0
791.0
794.0
794.0
792.0
797.0
800.0
804.0
805.0
808.0
811.0
815.0
822.0
825.0
828.0
840.0
843.0
843.0
845.0
848.0
848.0
852.0
858.0
865.0
874.0
882.0
889.0
894.0
897.0
904.0
902.0
910.0
914.0
922.0
925.0
931.0
932.0
937.0
939.0
938.0
933.0
933.0
930.0
927.0
925.0
920.0
917.0
910.0
901.0
892.0
884.0
870.0
862.0
849.0
841.0
833.0
824.0
817.0
812.0
805.0
807.0
805.0
801.0
798.0
795.0
792.0
786.0
780.0
778.0
778.0
778.0
779.0
778.0
784.0
783.0
784.0
783.0
777.0
779.0
780.0
778.0
778.0
786.0
784.0
787.0
789.0
788.0
788.0
788.0
788.0
787.0
787.0
785.0
783.0
788.0
792.0
793.0
797.0
799.0
800.0
797.0
796.0
793.0
789.0
788.0
784.0
786.0
784.0
786.0
793.0
793.0
791.0
793.0
789.0
786.0
787.0
783.0
784.0
789.0
790.0
791.0
789.0
790.0
787.0
786.0
780.0
781.0
779.0
779.0
781.0
779.0
779.0
781.0
781.0
782.0
783.0
781.0
778.0
775.0
776.0
776.0
779.0
778.0
779.0
778.0
781.0
782.0
781.0
778.0
778.0
779.0
777.0
777.0
776.0
777.0
780.0
782.0
785.0
784.0
785.0
783.0
784.0
783.0
784.0
784.0
793.0
799.0
802.0
807.0
808.0
811.0
811.0
808.0
806.0
804.0
805.0
809.0
812.0
817.0
821.0
826.0
828.0
828.0
827.0
822.0
820.0
817.0
815.0
811.0
808.0
808.0
808.0
805.0
802.0
795.0
791.0
786.0
777.0
775.0
775.0
773.0
775.0
778.0
779.0
782.0
786.0
787.0
786.0
788.0
784.0
786.0
782.0
780.0
775.0
775.0
780.0
790.0
803.0
823.0
860.0
913.0
980.0
1056.0
1138.0
1227.0
1312.0
1392.0
1455.0
1500.0
1520.0
1517.0
1485.0
1418.0
1294.0
1166.0
1038.0
910.0
782.0
708.0
749.0
803.0
851.0
871.0
867.0
846.0
821.0
807.0
799.0
796.0
798.0
797.0
802.0
799.0
799.0
800.0
801.0
800.0
797.0
795.0
794.0
794.0
791.0
796.0
798.0
805.0
811.0
812.0
815.0
814.0
811.0
807.0
807.0
807.0
804.0
815.0
817.0
821.0
829.0
830.0
832.0
834.0
837.0
837.0
838.0
840.0
842.0
843.0
852.0
857.0
861.0
862.0
865.0
868.0
869.0
873.0
881.0
886.0
890.0
896.0
902.0
912.0
924.0
933.0
939.0
942.0
945.0
945.0
949.0
949.0
949.0
958.0
964.0
969.0
977.0
976.0
979.0
977.0
973.0
970.0
970.0
965.0
959.0
951.0
943.0
936.0
930.0
920.0
909.0
900.0
888.0
879.0
874.0
864.0
859.0
849.0
843.0
834.0
831.0
828.0
824.0
819.0
815.0
814.0
811.0
807.0
807.0
804.0
803.0
803.0
807.0
809.0
807.0
810.0
805.0
802.0
799.0
796.0
796.0
797.0
799.0
805.0
809.0
809.0
807.0
806.0
805.0
803.0
802.0
800.0
799.0
801.0
803.0
809.0
811.0
814.0
814.0
811.0
812.0
807.0
807.0
809.0
804.0
805.0
803.0
801.0
806.0
808.0
809.0
810.0
809.0
808.0
806.0
797.0
791.0
789.0
795.0
797.0
798.0
799.0
801.0
797.0
795.0
793.0
789.0
786.0
786.0
786.0
787.0
788.0
789.0
790.0
790.0
789.0
785.0
780.0
777.0
780.0
779.0
780.0
782.0
781.0
782.0
783.0
779.0
778.0
777.0
776.0
773.0
773.0
775.0
776.0
777.0
775.0
777.0
779.0
780.0
781.0
780.0
781.0
781.0
784.0
786.0
792.0
791.0
796.0
800.0
799.0
798.0
794.0
789.0
788.0
792.0
791.0
796.0
801.0
805.0
807.0
811.0
808.0
807.0
807.0
805.0
804.0
798.0
797.0
790.0
789.0
787.0
789.0
791.0
788.0
784.0
781.0
774.0
768.0
764.0
758.0
757.0
752.0
753.0
753.0
757.0
756.0
757.0
755.0
752.0
754.0
750.0
744.0
742.0
743.0
744.0
746.0
752.0
754.0
761.0
767.0
774.0
786.0
807.0
842.0
896.0
966.0
1046.0
1140.0
1237.0
1333.0
1411.0
1467.0
1487.0
1470.0
1405.0
1280.0
1152.0
1024.0
896.0
768.0
640.0
662.0
717.0
767.0
799.0
808.0
802.0
783.0
765.0
749.0
744.0
742.0
743.0
748.0
748.0
750.0
743.0
740.0
735.0
734.0
735.0
739.0
737.0
739.0
742.0
748.0
752.0
750.0
748.0
746.0
746.0
747.0
749.0
753.0
754.0
757.0
757.0
759.0
761.0
762.0
761.0
766.0
764.0
763.0
767.0
770.0
767.0
773.0
779.0
788.0
792.0
793.0
792.0
794.0
796.0
799.0
806.0
812.0
818.0
824.0
831.0
836.0
839.0
843.0
846.0
851.0
856.0
863.0
869.0
875.0
882.0
886.0
891.0
893.0
893.0
894.0
890.0
887.0
888.0
883.0
877.0
871.0
869.0
865.0
859.0
852.0
846.0
837.0
827.0
816.0
801.0
789.0
777.0
771.0
762.0
758.0
757.0
751.0
745.0
739.0
732.0
729.0
730.0
731.0
732.0
733.0
734.0
733.0
731.0
728.0
725.0
722.0
722.0
723.0
721.0
720.0
720.0
719.0
722.0
726.0
730.0
731.0
729.0
727.0
725.0
725.0
723.0
721.0
726.0
728.0
729.0
732.0
732.0
733.0
733.0
732.0
728.0
727.0
730.0
730.0
728.0
729.0
731.0
734.0
738.0
740.0
741.0
740.0
737.0
733.0
726.0
722.0
724.0
725.0
726.0
733.0
733.0
734.0
731.0
728.0
726.0
721.0
723.0
722.0
723.0
723.0
727.0
728.0
728.0
729.0
727.0
727.0
727.0
726.0
727.0
723.0
724.0
721.0
724.0
730.0
732.0
733.0
733.0
730.0
727.0
725.0
729.0
724.0
723.0
726.0
732.0
735.0
741.0
744.0
745.0
745.0
744.0
744.0
747.0
748.0
751.0
753.0
755.0
761.0
761.0
763.0
765.0
768.0
766.0
768.0
771.0
779.0
788.0
798.0
812.0
811.0
810.0
805.0
799.0
791.0
788.0
786.0
784.0
783.0
787.0
788.0
786.0
784.0
782.0
783.0
778.0
775.0
770.0
765.0
762.0
761.0
761.0
763.0
765.0
767.0
771.0
771.0
773.0
773.0
771.0
768.0
766.0
764.0
764.0
771.0
780.0
792.0
814.0
846.0
890.0
948.0
1019.0
1101.0
1191.0
1279.0
1355.0
1409.0
1431.0
1402.0
1316.0
1188.0
1060.0
932.0
804.0
676.0
653.0
698.0
755.0
806.0
832.0
839.0
831.0
817.0
806.0
796.0
789.0
784.0
782.0
783.0
784.0
784.0
784.0
787.0
788.0
787.0
788.0
786.0
785.0
791.0
792.0
794.0
793.0
793.0
793.0
793.0
797.0
802.0
803.0
803.0
802.0
802.0
798.0
799.0
800.0
799.0
805.0
809.0
814.0
819.0
820.0
823.0
825.0
825.0
830.0
830.0
831.0
830.0
837.0
843.0
849.0
854.0
857.0
861.0
865.0
865.0
866.0
871.0
877.0
883.0
889.0
894.0
896.0
907.0
910.0
912.0
911.0
913.0
914.0
914.0
914.0
915.0
918.0
919.0
921.0
916.0
911.0
908.0
896.0
887.0
877.0
870.0
858.0
851.0
841.0
835.0
826.0
817.0
809.0
802.0
797.0
792.0
786.0
777.0
771.0
766.0
766.0
765.0
770.0
772.0
771.0
766.0
761.0
758.0
757.0
752.0
756.0
753.0
754.0
752.0
755.0
757.0
756.0
755.0
753.0
748.0
748.0
748.0
748.0
746.0
750.0
753.0
758.0
761.0
759.0
761.0
757.0
753.0
751.0
749.0
745.0
745.0
748.0
745.0
744.0
747.0
743.0
740.0
737.0
732.0
731.0
729.0
728.0
729.0
731.0
735.0
736.0
741.0
744.0
740.0
737.0
734.0
728.0
727.0
727.0
728.0
732.0
737.0
740.0
739.0
738.0
738.0
