# Simple Text Format
# Sampling Rate (Hz):= 360.00
# Resolution:= 12
# Labels:= ECG
811.0
816.0
819.0
824.0
824.0
823.0
825.0
824.0
822.0
822.0
821.0
824.0
826.0
828.0
832.0
837.0
839.0
839.0
842.0
838.0
834.0
832.0
833.0
832.0
835.0
839.0
837.0
834.0
831.0
828.0
820.0
815.0
813.0
807.0
803.0
802.0
802.0
804.0
799.0
794.0
794.0
792.0
793.0
791.0
792.0
792.0
795.0
796.0
799.0
801.0
805.0
805.0
803.0
798.0
793.0
794.0
788.0
796.0
810.0
836.0
875.0
933.0
1002.0
1090.0
1181.0
1274.0
1363.0
1438.0
1491.0
1524.0
1535.0
1530.0
1500.0
1442.0
1331.0
1203.0
1075.0
947.0
819.0
715.0
737.0
782.0
836.0
866.0
873.0
866.0
845.0
825.0
809.0
800.0
793.0
798.0
799.0
800.0
796.0
797.0
798.0
798.0
796.0
797.0
797.0
797.0
797.0
798.0
801.0
801.0
805.0
809.0
812.0
809.0
813.0
811.0
810.0
807.0
808.0
810.0
807.0
808.0
814.0
816.0
818.0
820.0
824.0
827.0
827.0
828.0
829.0
830.0
831.0
831.0
833.0
836.0
844.0
848.0
853.0
857.0
860.0
862.0
864.0
868.0
869.0
870.0
877.0
883.0
890.0
899.0
904.0
908.0
914.0
917.0
922.0
923.0
927.0
930.0
937.0
942.0
945.0
949.0
951.0
952.0
953.0
954.0
955.0
953.0
951.0
946.0
944.0
940.0
934.0
929.0
919.0
915.0
903.0
893.0
885.0
878.0
866.0
856.0
846.0
839.0
829.0
828.0
824.0
818.0
815.0
810.0
804.0
801.0
797.0
794.0
796.0
797.0
801.0
799.0
800.0
799.0
799.0
796.0
789.0
787.0
784.0
782.0
784.0
788.0
793.0
798.0
799.0
797.0
798.0
794.0
793.0
792.0
793.0
791.0
794.0
799.0
798.0
799.0
797.0
796.0
796.0
795.0
793.0
796.0
797.0
795.0
799.0
800.0
801.0
803.0
800.0
797.0
796.0
796.0
793.0
792.0
790.0
793.0
792.0
791.0
792.0
793.0
790.0
790.0
790.0
789.0
787.0
789.0
789.0
786.0
782.0
781.0
782.0
785.0
789.0
788.0
790.0
788.0
787.0
783.0
781.0
780.0
779.0
782.0
783.0
785.0
785.0
788.0
784.0
784.0
782.0
777.0
779.0
774.0
773.0
774.0
778.0
780.0
784.0
786.0
787.0
781.0
781.0
778.0
779.0
783.0
788.0
795.0
801.0
806.0
810.0
807.0
802.0
800.0
799.0
802.0
802.0
801.0
803.0
810.0
813.0
821.0
823.0
827.0
827.0
824.0
818.0
818.0
814.0
813.0
812.0
815.0
816.0
818.0
820.0
816.0
811.0
805.0
798.0
791.0
784.0
782.0
782.0
785.0
784.0
790.0
792.0
791.0
793.0
792.0
788.0
788.0
787.0
787.0
788.0
790.0
791.0
796.0
796.0
801.0
811.0
832.0
875.0
931.0
1007.0
1091.0
1185.0
1281.0
1372.0
1443.0
1497.0
1528.0
1533.0
1519.0
1478.0
1397.0
1270.0
1142.0
1014.0
886.0
758.0
705.0
752.0
809.0
855.0
872.0
868.0
851.0
829.0
806.0
799.0
801.0
800.0
805.0
808.0
807.0
810.0
806.0
805.0
803.0
802.0
800.0
803.0
805.0
806.0
811.0
814.0
815.0
814.0
815.0
818.0
817.0
818.0
817.0
819.0
821.0
821.0
823.0
826.0
830.0
830.0
830.0
834.0
836.0
838.0
841.0
844.0
845.0
850.0
857.0
861.0
860.0
866.0
867.0
869.0
874.0
874.0
882.0
891.0
897.0
901.0
908.0
914.0
921.0
931.0
938.0
943.0
943.0
947.0
944.0
949.0
951.0
953.0
960.0
962.0
964.0
964.0
965.0
963.0
958.0
954.0
948.0
946.0
938.0
932.0
925.0
919.0
908.0
897.0
888.0
878.0
871.0
863.0
855.0
851.0
848.0
841.0
838.0
833.0
823.0
820.0
814.0
812.0
810.0
808.0
807.0
806.0
803.0
801.0
802.0
803.0
806.0
804.0
799.0
802.0
800.0
801.0
804.0
805.0
807.0
810.0
813.0
812.0
814.0
812.0
810.0
808.0
808.0
810.0
812.0
810.0
814.0
819.0
820.0
821.0
820.0
816.0
816.0
815.0
814.0
812.0
810.0
811.0
812.0
813.0
819.0
821.0
822.0
825.0
823.0
814.0
812.0
807.0
805.0
806.0
807.0
810.0
809.0
811.0
808.0
805.0
804.0
803.0
802.0
803.0
804.0
805.0
804.0
804.0
805.0
805.0
804.0
805.0
802.0
801.0
800.0
796.0
794.0
795.0
798.0
800.0
804.0
804.0
807.0
809.0
804.0
806.0
803.0
798.0
797.0
796.0
793.0
796.0
796.0
798.0
801.0
800.0
801.0
798.0
795.0
796.0
797.0
794.0
796.0
799.0
801.0
803.0
807.0
806.0
809.0
813.0
817.0
817.0
816.0
818.0
818.0
822.0
821.0
825.0
823.0
823.0
824.0
823.0
826.0
829.0
830.0
836.0
836.0
833.0
836.0
832.0
830.0
827.0
824.0
821.0
822.0
820.0
817.0
812.0
810.0
808.0
805.0
802.0
798.0
794.0
790.0
787.0
787.0
785.0
785.0
786.0
789.0
789.0
795.0
793.0
795.0
792.0
788.0
785.0
782.0
781.0
789.0
801.0
823.0
862.0
919.0
990.0
1084.0
1191.0
1300.0
1400.0
1478.0
1521.0
1526.0
1496.0
1416.0
1288.0
1160.0
1032.0
904.0
776.0
683.0
726.0
786.0
841.0
871.0
870.0
857.0
834.0
816.0
802.0
801.0
799.0
799.0
797.0
798.0
796.0
797.0
797.0
796.0
802.0
805.0
806.0
805.0
804.0
805.0
807.0
806.0
809.0
806.0
808.0
809.0
813.0
814.0
816.0
814.0
813.0
813.0
815.0
816.0
819.0
825.0
829.0
827.0
834.0
840.0
850.0
853.0
854.0
850.0
854.0
854.0
857.0
860.0
867.0
874.0
877.0
883.0
890.0
896.0
904.0
910.0
912.0
924.0
930.0
934.0
938.0
941.0
942.0
944.0
946.0
950.0
952.0
950.0
951.0
947.0
954.0
953.0
952.0
950.0
947.0
943.0
931.0
921.0
911.0
899.0
893.0
884.0
875.0
869.0
858.0
854.0
849.0
846.0
842.0
837.0
830.0
822.0
815.0
810.0
806.0
804.0
801.0
803.0
806.0
805.0
803.0
801.0
801.0
798.0
796.0
798.0
800.0
803.0
801.0
802.0
800.0
802.0
803.0
804.0
807.0
805.0
805.0
803.0
807.0
807.0
808.0
810.0
813.0
817.0
818.0
820.0
818.0
812.0
813.0
810.0
809.0
808.0
807.0
812.0
812.0
814.0
815.0
815.0
816.0
813.0
810.0
808.0
807.0
801.0
803.0
805.0
804.0
805.0
808.0
803.0
804.0
801.0
799.0
797.0
794.0
796.0
795.0
799.0
799.0
799.0
795.0
797.0
792.0
788.0
785.0
782.0
779.0
784.0
786.0
791.0
793.0
795.0
794.0
790.0
790.0
789.0
788.0
784.0
785.0
785.0
783.0
785.0
786.0
788.0
788.0
788.0
788.0
789.0
785.0
783.0
783.0
783.0
785.0
788.0
790.0
790.0
790.0
791.0
791.0
796.0
801.0
804.0
808.0
807.0
806.0
805.0
804.0
806.0
806.0
807.0
809.0
810.0
812.0
813.0
813.0
815.0
817.0
820.0
821.0
826.0
826.0
827.0
822.0
817.0
813.0
811.0
808.0
806.0
806.0
807.0
802.0
798.0
795.0
793.0
792.0
788.0
784.0
780.0
774.0
771.0
773.0
772.0
776.0
782.0
783.0
784.0
785.0
778.0
773.0
772.0
775.0
775.0
774.0
773.0
779.0
782.0
793.0
810.0
834.0
878.0
937.0
1014.0
1104.0
1201.0
1302.0
1394.0
1462.0
1500.0
1511.0
1488.0
1422.0
1301.0
1173.0
1045.0
917.0
789.0
694.0
730.0
787.0
835.0
865.0
865.0
849.0
824.0
800.0
784.0
778.0
775.0
777.0
780.0
781.0
782.0
783.0
780.0
783.0
781.0
782.0
782.0
782.0
786.0
790.0
791.0
791.0
791.0
793.0
796.0
793.0
794.0
794.0
791.0
789.0
792.0
796.0
802.0
805.0
808.0
814.0
812.0
814.0
816.0
817.0
822.0
820.0
821.0
823.0
821.0
827.0
833.0
843.0
848.0
851.0
858.0
862.0
866.0
868.0
868.0
874.0
880.0
888.0
892.0
901.0
907.0
913.0
916.0
921.0
924.0
928.0
929.0
932.0
937.0
942.0
942.0
944.0
939.0
938.0
933.0
926.0
921.0
912.0
907.0
903.0
896.0
884.0
882.0
873.0
860.0
849.0
837.0
824.0
816.0
810.0
805.0
802.0
798.0
795.0
788.0
794.0
789.0
789.0
787.0
781.0
779.0
776.0
772.0
772.0
773.0
771.0
775.0
775.0
774.0
774.0
773.0
774.0
775.0
775.0
772.0
774.0
773.0
775.0
776.0
779.0
779.0
779.0
776.0
774.0
776.0
777.0
777.0
780.0
782.0
783.0
781.0
781.0
780.0
782.0
780.0
780.0
776.0
775.0
775.0
771.0
775.0
775.0
775.0
777.0
775.0
773.0
769.0
770.0
769.0
766.0
769.0
765.0
769.0
766.0
768.0
769.0
767.0
766.0
766.0
761.0
760.0
759.0
756.0
757.0
759.0
764.0
765.0
766.0
766.0
765.0
761.0
758.0
756.0
753.0
752.0
754.0
756.0
759.0
760.0
765.0
762.0
762.0
762.0
758.0
754.0
751.0
749.0
748.0
752.0
757.0
758.0
762.0
762.0
760.0
762.0
760.0
764.0
767.0
771.0
774.0
776.0
777.0
779.0
782.0
778.0
779.0
781.0
778.0
779.0
780.0
783.0
784.0
784.0
791.0
792.0
797.0
795.0
793.0
790.0
785.0
779.0
778.0
780.0
780.0
780.0
782.0
780.0
776.0
772.0
766.0
760.0
754.0
751.0
750.0
748.0
752.0
753.0
758.0
760.0
758.0
760.0
759.0
761.0
761.0
756.0
754.0
755.0
753.0
754.0
759.0
768.0
784.0
810.0
858.0
921.0
1002.0
1096.0
1193.0
1297.0
1389.0
1456.0
1496.0
1512.0
1483.0
1407.0
1279.0
1151.0
1023.0
895.0
767.0
655.0
697.0
755.0
800.0
826.0
828.0
817.0
795.0
779.0
767.0
763.0
763.0
762.0
764.0
768.0
770.0
770.0
772.0
770.0
773.0
772.0
773.0
771.0
770.0
772.0
775.0
777.0
782.0
783.0
786.0
783.0
788.0
789.0
788.0
787.0
788.0
788.0
789.0
793.0
794.0
801.0
805.0
806.0
809.0
810.0
811.0
815.0
818.0
823.0
824.0
829.0
833.0
835.0
840.0
843.0
844.0
845.0
847.0
853.0
861.0
868.0
874.0
879.0
886.0
894.0
904.0
908.0
910.0
911.0
913.0
915.0
916.0
918.0
922.0
923.0
930.0
933.0
935.0
935.0
929.0
921.0
918.0
911.0
904.0
897.0
887.0
882.0
875.0
869.0
864.0
849.0
847.0
838.0
828.0
820.0
808.0
803.0
799.0
798.0
800.0
799.0
800.0
798.0
795.0
793.0
788.0
783.0
782.0
778.0
782.0
783.0
783.0
785.0
789.0
789.0
790.0
789.0
785.0
785.0
781.0
785.0
788.0
792.0
795.0
796.0
799.0
798.0
797.0
796.0
793.0
794.0
794.0
794.0
794.0
794.0
794.0
799.0
801.0
798.0
798.0
796.0
793.0
792.0
792.0
792.0
794.0
796.0
798.0
797.0
799.0
798.0
794.0
790.0
787.0
786.0
784.0
783.0
781.0
782.0
786.0
787.0
791.0
788.0
787.0
787.0
784.0
782.0
783.0
780.0
779.0
778.0
783.0
782.0
781.0
779.0
782.0
780.0
777.0
776.0
777.0
778.0
776.0
778.0
781.0
785.0
784.0
779.0
780.0
774.0
776.0
771.0
770.0
770.0
771.0
776.0
780.0
782.0
785.0
786.0
781.0
781.0
777.0
778.0
783.0
784.0
786.0
793.0
798.0
801.0
801.0
798.0
797.0
796.0
794.0
795.0
801.0
803.0
805.0
810.0
812.0
814.0
820.0
818.0
816.0
812.0
804.0
804.0
803.0
803.0
806.0
806.0
806.0
804.0
806.0
801.0
798.0
788.0
783.0
777.0
776.0
772.0
766.0
765.0
769.0
770.0
771.0
769.0
771.0
771.0
771.0
770.0
772.0
769.0
770.0
771.0
772.0
771.0
772.0
771.0
774.0
779.0
789.0
807.0
841.0
886.0
950.0
1028.0
1116.0
1212.0
1311.0
1404.0
1473.0
1513.0
1511.0
1471.0
1369.0
1241.0
1113.0
985.0
857.0
729.0
703.0
761.0
818.0
852.0
853.0
839.0
815.0
791.0
777.0
771.0
772.0
778.0
785.0
786.0
785.0
782.0
778.0
778.0
775.0
774.0
777.0
781.0
783.0
785.0
787.0
787.0
788.0
789.0
791.0
792.0
792.0
795.0
794.0
797.0
795.0
797.0
801.0
802.0
806.0
809.0
808.0
806.0
808.0
812.0
815.0
818.0
821.0
826.0
828.0
830.0
836.0
838.0
840.0
844.0
847.0
851.0
857.0
862.0
870.0
874.0
880.0
883.0
890.0
895.0
898.0
902.0
906.0
912.0
916.0
922.0
927.0
934.0
936.0
938.0
942.0
939.0
937.0
936.0
934.0
933.0
931.0
933.0
933.0
931.0
927.0
920.0
908.0
898.0
887.0
875.0
865.0
855.0
846.0
840.0
836.0
829.0
828.0
822.0
816.0
813.0
807.0
800.0
799.0
796.0
790.0
788.0
786.0
782.0
788.0
785.0
788.0
787.0
783.0
779.0
776.0
777.0
778.0
782.0
786.0
786.0
788.0
785.0
781.0
784.0
783.0
781.0
780.0
780.0
780.0
779.0
786.0
792.0
795.0
796.0
791.0
791.0
791.0
787.0
789.0
790.0
790.0
795.0
795.0
799.0
801.0
800.0
800.0
799.0
796.0
794.0
791.0
790.0
787.0
788.0
792.0
793.0
796.0
792.0
792.0
790.0
786.0
788.0
789.0
789.0
786.0
787.0
788.0
786.0
789.0
786.0
784.0
784.0
780.0
779.0
776.0
775.0
777.0
781.0
784.0
786.0
787.0
782.0
782.0
782.0
779.0
779.0
779.0
775.0
775.0
773.0
771.0
774.0
776.0
777.0
779.0
782.0
778.0
777.0
775.0
775.0
776.0
778.0
779.0
777.0
781.0
782.0
782.0
783.0
783.0
784.0
787.0
789.0
793.0
797.0
801.0
804.0
807.0
805.0
805.0
803.0
798.0
798.0
795.0
796.0
800.0
809.0
820.0
821.0
823.0
816.0
812.0
808.0
803.0
802.0
805.0
802.0
803.0
804.0
800.0
799.0
799.0
795.0
790.0
787.0
784.0
781.0
776.0
772.0
769.0
767.0
774.0
777.0
777.0
777.0
775.0
776.0
774.0
775.0
775.0
771.0
771.0
771.0
772.0
778.0
788.0
799.0
822.0
865.0
925.0
1000.0
1094.0
1204.0
1312.0
1407.0
1476.0
1514.0
1522.0
1499.0
1437.0
1326.0
1198.0
1070.0
942.0
814.0
686.0
687.0
750.0
810.0
854.0
867.0
856.0
834.0
807.0
783.0
771.0
768.0
769.0
771.0
779.0
782.0
786.0
791.0
787.0
788.0
787.0
786.0
784.0
783.0
780.0
780.0
785.0
788.0
794.0
798.0
796.0
796.0
797.0
799.0
800.0
798.0
800.0
799.0
803.0
807.0
813.0
817.0
817.0
822.0
820.0
821.0
819.0
817.0
821.0
832.0
838.0
844.0
853.0
853.0
857.0
860.0
858.0
859.0
860.0
867.0
871.0
880.0
890.0
896.0
908.0
913.0
916.0
921.0
921.0
927.0
929.0
932.0
934.0
936.0
938.0
940.0
943.0
944.0
942.0
940.0
937.0
935.0
932.0
923.0
916.0
906.0
897.0
884.0
875.0
866.0
857.0
846.0
835.0
823.0
815.0
809.0
803.0
799.0
804.0
804.0
803.0
802.0
797.0
791.0
787.0
781.0
779.0
776.0
776.0
779.0
783.0
780.0
784.0
783.0
780.0
779.0
780.0
778.0
780.0
778.0
779.0
780.0
784.0
787.0
793.0
787.0
786.0
785.0
787.0
783.0
783.0
781.0
781.0
782.0
785.0
790.0
791.0
792.0
792.0
791.0
784.0
783.0
786.0
784.0
785.0
785.0
783.0
782.0
786.0
783.0
784.0
784.0
782.0
779.0
779.0
778.0
775.0
773.0
773.0
776.0
780.0
778.0
778.0
776.0
772.0
772.0
773.0
771.0
773.0
771.0
768.0
766.0
767.0
768.0
770.0
774.0
770.0
772.0
768.0
765.0
765.0
767.0
769.0
771.0
770.0
771.0
770.0
770.0
766.0
765.0
764.0
764.0
765.0
767.0
771.0
773.0
776.0
778.0
782.0
785.0
786.0
782.0
781.0
776.0
775.0
778.0
781.0
785.0
791.0
794.0
797.0
799.0
798.0
796.0
799.0
798.0
799.0
797.0
795.0
792.0
793.0
793.0
793.0
790.0
791.0
792.0
787.0
782.0
777.0
776.0
773.0
766.0
764.0
762.0
758.0
756.0
755.0
755.0
757.0
758.0
761.0
761.0
762.0
763.0
765.0
765.0
763.0
762.0
760.0
758.0
754.0
760.0
769.0
789.0
818.0
860.0
920.0
991.0
1073.0
1156.0
1242.0
1330.0
1407.0
1463.0
1492.0
1498.0
1467.0
1386.0
1258.0
1130.0
1002.0
874.0
746.0
666.0
704.0
756.0
798.0
820.0
823.0
813.0
805.0
788.0
777.0
770.0
766.0
766.0
765.0
766.0
765.0
764.0
767.0
770.0
772.0
777.0
779.0
779.0
774.0
776.0
775.0
773.0
776.0
778.0
780.0
783.0
789.0
788.0
791.0
791.0
791.0
793.0
795.0
797.0
796.0
796.0
798.0
803.0
807.0
814.0
821.0
825.0
827.0
826.0
825.0
826.0
830.0
834.0
838.0
844.0
852.0
858.0
859.0
868.0
870.0
875.0
881.0
890.0
894.0
899.0
903.0
909.0
912.0
918.0
920.0
924.0
922.0
924.0
925.0
926.0
929.0
928.0
930.0
930.0
922.0
920.0
914.0
906.0
900.0
891.0
882.0
872.0
862.0
858.0
852.0
849.0
843.0
838.0
828.0
818.0
810.0
803.0
801.0
794.0
791.0
793.0
795.0
795.0
795.0
796.0
794.0
794.0
794.0
792.0
793.0
791.0
792.0
791.0
793.0
790.0
793.0
793.0
791.0
792.0
790.0
793.0
791.0
792.0
794.0
795.0
798.0
803.0
806.0
809.0
809.0
808.0
804.0
795.0
794.0
794.0
797.0
799.0
802.0
802.0
802.0
802.0
806.0
804.0
800.0
798.0
796.0
793.0
791.0
791.0
791.0
797.0
801.0
804.0
804.0
802.0
798.0
796.0
795.0
794.0
793.0
792.0
794.0
794.0
795.0
796.0
794.0
794.0
792.0
788.0
786.0
785.0
782.0
786.0
786.0
793.0
795.0
796.0
795.0
792.0
789.0
790.0
786.0
783.0
781.0
783.0
786.0
790.0
795.0
797.0
797.0
797.0
794.0
788.0
786.0
781.0
781.0
785.0
791.0
791.0
795.0
796.0
799.0
799.0
802.0
805.0
807.0
808.0
809.0
810.0
811.0
813.0
816.0
819.0
820.0
822.0
822.0
821.0
816.0
820.0
822.0
824.0
825.0
826.0
824.0
828.0
825.0
820.0
819.0
816.0
814.0
811.0
808.0
803.0
803.0
802.0
800.0
796.0
795.0
790.0
787.0
785.0
784.0
783.0
784.0
781.0
785.0
785.0
787.0
791.0
790.0
785.0
786.0
785.0
784.0
783.0
781.0
783.0
788.0
796.0
817.0
845.0
888.0
945.0
1016.0
1095.0
1181.0
1275.0
1365.0
1446.0
1504.0
1534.0
1545.0
1532.0
1489.0
1403.0
1275.0
1147.0
1019.0
891.0
763.0
722.0
761.0
814.0
854.0
871.0
864.0
851.0
829.0
810.0
797.0
793.0
791.0
793.0
797.0
800.0
803.0
803.0
804.0
801.0
800.0
798.0
799.0
798.0
799.0
800.0
803.0
808.0
808.0
814.0
814.0
812.0
811.0
810.0
810.0
812.0
810.0
811.0
813.0
812.0
817.0
817.0
822.0
828.0
828.0
829.0
831.0
833.0
836.0
842.0
846.0
849.0
851.0
854.0
856.0
858.0
857.0
861.0
864.0
869.0
869.0
877.0
887.0
893.0
899.0
911.0
916.0
923.0
927.0
928.0
931.0
935.0
934.0
940.0
942.0
944.0
950.0
956.0
961.0
962.0
961.0
960.0
956.0
951.0
950.0
946.0
944.0
941.0
935.0
926.0
916.0
905.0
896.0
887.0
879.0
869.0
861.0
852.0
847.0
844.0
837.0
831.0
827.0
823.0
819.0
812.0
811.0
809.0
806.0
805.0
804.0
803.0
804.0
807.0
805.0
804.0
802.0
804.0
800.0
800.0
800.0
799.0
800.0
805.0
805.0
805.0
802.0
804.0
804.0
803.0
801.0
802.0
801.0
802.0
805.0
809.0
812.0
815.0
818.0
815.0
813.0
809.0
807.0
806.0
804.0
807.0
809.0
814.0
816.0
815.0
819.0
816.0
814.0
811.0
806.0
807.0
805.0
808.0
809.0
806.0
805.0
802.0
804.0
801.0
799.0
800.0
801.0
800.0
803.0
799.0
796.0
797.0
799.0
804.0
803.0
799.0
802.0
796.0
795.0
796.0
792.0
792.0
797.0
797.0
801.0
802.0
799.0
799.0
795.0
794.0
790.0
788.0
786.0
787.0
789.0
789.0
791.0
793.0
795.0
794.0
793.0
787.0
786.0
786.0
789.0
790.0
796.0
800.0
804.0
806.0
810.0
815.0
817.0
816.0
812.0
811.0
810.0
808.0
808.0
811.0
814.0
822.0
828.0
830.0
833.0
827.0
824.0
824.0
823.0
823.0
825.0
824.0
821.0
825.0
819.0
813.0
811.0
805.0
802.0
799.0
793.0
790.0
790.0
787.0
786.0
784.0
785.0
787.0
786.0
784.0
782.0
781.0
779.0
781.0
782.0
784.0
787.0
791.0
791.0
788.0
790.0
791.0
791.0
802.0
821.0
854.0
909.0
977.0
1067.0
1162.0
1267.0
1367.0
1450.0
1507.0
1538.0
1536.0
1509.0
1450.0
1345.0
1217.0
1089.0
961.0
833.0
705.0
701.0
755.0
813.0
852.0
865.0
857.0
839.0
816.0
803.0
799.0
795.0
796.0
793.0
793.0
794.0
792.0
790.0
789.0
790.0
790.0
793.0
793.0
794.0
798.0
799.0
800.0
800.0
799.0
801.0
799.0
803.0
804.0
809.0
812.0
808.0
816.0
814.0
814.0
811.0
811.0
813.0
811.0
818.0
824.0
830.0
835.0
838.0
836.0
839.0
838.0
837.0
839.0
839.0
842.0
853.0
857.0
865.0
875.0
882.0
884.0
885.0
889.0
891.0
895.0
904.0
909.0
918.0
924.0
932.0
941.0
944.0
950.0
953.0
954.0
954.0
954.0
953.0
954.0
956.0
958.0
957.0
954.0
949.0
940.0
931.0
924.0
916.0
906.0
895.0
888.0
877.0
870.0
865.0
859.0
852.0
844.0
838.0
832.0
825.0
820.0
817.0
812.0
809.0
804.0
802.0
805.0
804.0
805.0
802.0
798.0
795.0
794.0
794.0
791.0
794.0
794.0
796.0
799.0
800.0
800.0
799.0
796.0
793.0
790.0
793.0
796.0
796.0
797.0
799.0
801.0
801.0
799.0
803.0
802.0
803.0
804.0
801.0
802.0
804.0
805.0
808.0
808.0
809.0
808.0
808.0
805.0
801.0
796.0
793.0
793.0
797.0
798.0
803.0
803.0
805.0
803.0
801.0
798.0
797.0
794.0
793.0
794.0
798.0
799.0
801.0
801.0
798.0
791.0
792.0
789.0
788.0
787.0
789.0
792.0
795.0
797.0
795.0
794.0
790.0
794.0
794.0
795.0
796.0
794.0
790.0
788.0
789.0
792.0
791.0
786.0
784.0
781.0
787.0
789.0
789.0
789.0
789.0
791.0
791.0
791.0
791.0
795.0
794.0
793.0
793.0
795.0
799.0
802.0
806.0
808.0
812.0
813.0
818.0
816.0
817.0
816.0
820.0
816.0
816.0
822.0
827.0
829.0
831.0
830.0
831.0
827.0
822.0
818.0
813.0
815.0
816.0
814.0
807.0
805.0
797.0
791.0
785.0
789.0
786.0
784.0
783.0
784.0
784.0
785.0
784.0
785.0
783.0
783.0
781.0
780.0
786.0
789.0
786.0
783.0
779.0
780.0
789.0
804.0
834.0
885.0
952.0
1035.0
1125.0
1222.0
1321.0
1409.0
1479.0
1518.0
1520.0
1479.0
1387.0
1259.0
1131.0
1003.0
875.0
747.0
723.0
775.0
827.0
861.0
869.0
854.0
834.0
812.0
797.0
789.0
788.0
787.0
789.0
787.0
786.0
786.0
784.0
785.0
783.0
785.0
790.0
792.0
794.0
795.0
794.0
795.0
792.0
790.0
791.0
795.0
796.0
802.0
806.0
810.0
813.0
814.0
809.0
806.0
802.0
806.0
813.0
818.0
824.0
830.0
832.0
839.0
841.0
841.0
840.0
840.0
836.0
841.0
842.0
848.0
853.0
861.0
874.0
881.0
887.0
893.0
898.0
903.0
906.0
911.0
917.0
919.0
923.0
930.0
935.0
943.0
946.0
949.0
949.0
947.0
946.0
946.0
941.0
938.0
937.0
932.0
927.0
921.0
914.0
904.0
893.0
882.0
872.0
865.0
857.0
847.0
841.0
835.0
830.0
820.0
816.0
811.0
808.0
805.0
800.0
796.0
792.0
791.0
790.0
791.0
794.0
795.0
794.0
793.0
793.0
792.0
793.0
792.0
790.0
786.0
788.0
785.0
787.0
791.0
792.0
792.0
792.0
794.0
796.0
795.0
794.0
791.0
789.0
789.0
792.0
797.0
804.0
803.0
801.0
800.0
796.0
796.0
794.0
793.0
794.0
795.0
798.0
803.0
804.0
803.0
801.0
799.0
795.0
795.0
791.0
790.0
789.0
789.0
795.0
797.0
797.0
795.0
793.0
787.0
785.0
785.0
782.0
783.0
782.0
784.0
782.0
787.0
785.0
787.0
786.0
786.0
780.0
783.0
780.0
780.0
781.0
782.0
783.0
783.0
785.0
782.0
781.0
780.0
776.0
777.0
775.0
772.0
778.0
781.0
779.0
785.0
785.0
786.0
785.0
781.0
779.0
776.0
775.0
774.0
773.0
773.0
775.0
780.0
783.0
785.0
790.0
788.0
791.0
792.0
794.0
795.0
799.0
804.0
803.0
803.0
804.0
806.0
805.0
803.0
804.0
805.0
809.0
811.0
816.0
820.0
819.0
819.0
817.0
816.0
812.0
807.0
804.0
798.0
798.0
798.0
799.0
794.0
791.0
785.0
780.0
778.0
773.0
769.0
763.0
764.0
762.0
761.0
763.0
768.0
770.0
775.0
776.0
771.0
776.0
773.0
772.0
771.0
767.0
765.0
767.0
771.0
783.0
801.0
831.0
877.0
942.0
1022.0
1113.0
1212.0
1314.0
1404.0
1477.0
1520.0
1530.0
1514.0
1460.0
1358.0
1230.0
1102.0
974.0
846.0
718.0
688.0
743.0
801.0
839.0
855.0
844.0
824.0
797.0
777.0
766.0
762.0
760.0
763.0
767.0
771.0
772.0
774.0
774.0
774.0
777.0
777.0
776.0
772.0
774.0
772.0
775.0
777.0
779.0
782.0
785.0
787.0
789.0
788.0
786.0
788.0
783.0
786.0
789.0
792.0
796.0
802.0
807.0
807.0
812.0
812.0
813.0
816.0
819.0
820.0
827.0
827.0
835.0
844.0
845.0
850.0
851.0
856.0
859.0
865.0
873.0
879.0
885.0
891.0
897.0
906.0
911.0
915.0
918.0
917.0
919.0
919.0
921.0
923.0
926.0
931.0
932.0
934.0
931.0
924.0
917.0
909.0
901.0
891.0
879.0
868.0
855.0
848.0
843.0
841.0
834.0
827.0
820.0
811.0
801.0
794.0
788.0
783.0
781.0
782.0
782.0
783.0
782.0
783.0
783.0
781.0
779.0
779.0
778.0
775.0
777.0
776.0
781.0
782.0
782.0
780.0
781.0
781.0
782.0
783.0
780.0
782.0
780.0
781.0
785.0
787.0
785.0
790.0
785.0
787.0
785.0
782.0
786.0
785.0
786.0
787.0
789.0
792.0
792.0
788.0
788.0
783.0
781.0
780.0
781.0
778.0
780.0
782.0
784.0
786.0
785.0
784.0
782.0
778.0
775.0
778.0
774.0
774.0
775.0
774.0
776.0
781.0
779.0
779.0
777.0
779.0
775.0
769.0
765.0
764.0
766.0
769.0
771.0
773.0
772.0
772.0
773.0
768.0
769.0
768.0
768.0
765.0
767.0
768.0
769.0
769.0
770.0
769.0
766.0
764.0
765.0
765.0
765.0
764.0
767.0
769.0
772.0
770.0
771.0
770.0
771.0
770.0
775.0
776.0
773.0
775.0
780.0
785.0
789.0
790.0
788.0
786.0
784.0
782.0
782.0
788.0
788.0
793.0
794.0
799.0
803.0
802.0
799.0
798.0
793.0
788.0
786.0
784.0
785.0
784.0
782.0
778.0
775.0
772.0
765.0
760.0
756.0
750.0
751.0
753.0
753.0
752.0
758.0
757.0
759.0
759.0
757.0
759.0
757.0
755.0
754.0
756.0
752.0
753.0
759.0
766.0
777.0
794.0
824.0
871.0
933.0
1012.0
1109.0
1213.0
1319.0
1409.0
1471.0
1505.0
1506.0
1478.0
1408.0
1292.0
1164.0
1036.0
908.0
780.0
663.0
683.0
734.0
783.0
818.0
830.0
824.0
805.0
782.0
763.0
754.0
750.0
753.0
756.0
757.0
760.0
762.0
763.0
763.0
762.0
758.0
760.0
758.0
756.0
755.0
755.0
757.0
762.0
766.0
771.0
776.0
774.0
776.0
777.0
776.0
775.0
775.0
773.0
778.0
778.0
781.0
784.0
789.0
791.0
794.0
794.0
796.0
797.0
800.0
802.0
807.0
813.0
815.0
822.0
824.0
825.0
828.0
829.0
832.0
839.0
844.0
848.0
855.0
862.0
868.0
874.0
878.0
882.0
889.0
890.0
893.0
895.0
895.0
899.0
904.0
912.0
913.0
917.0
918.0
916.0
913.0
908.0
900.0
899.0
893.0
886.0
882.0
873.0
867.0
860.0
848.0
840.0
830.0
821.0
814.0
807.0
801.0
793.0
786.0
785.0
777.0
776.0
776.0
774.0
770.0
767.0
762.0
758.0
754.0
753.0
756.0
759.0
760.0
764.0
764.0
764.0
764.0
757.0
758.0
752.0
751.0
755.0
758.0
761.0
762.0
766.0
767.0
765.0
761.0
764.0
761.0
761.0
759.0
761.0
761.0
762.0
759.0
763.0
766.0
770.0
770.0
766.0
766.0
763.0
763.0
760.0
759.0
761.0
762.0
768.0
767.0
766.0
761.0
761.0
758.0
755.0
752.0
752.0
750.0
752.0
752.0
750.0
752.0
755.0
752.0
750.0
746.0
743.0
742.0
742.0
