# Simple Text Format
# Sampling Rate (Hz):= 360.00
# Resolution:= 12
# Labels:= ECG
790.0
792.0
788.0
786.0
785.0
788.0
785.0
789.0
787.0
785.0
781.0
782.0
781.0
780.0
787.0
792.0
796.0
800.0
798.0
798.0
794.0
791.0
793.0
796.0
794.0
791.0
790.0
793.0
792.0
796.0
797.0
796.0
795.0
788.0
791.0
791.0
792.0
791.0
793.0
791.0
795.0
797.0
795.0
794.0
791.0
789.0
787.0
788.0
787.0
787.0
786.0
780.0
780.0
783.0
785.0
785.0
782.0
779.0
774.0
771.0
773.0
772.0
775.0
779.0
782.0
785.0
782.0
780.0
775.0
771.0
768.0
768.0
767.0
770.0
775.0
779.0
781.0
781.0
778.0
780.0
778.0
779.0
781.0
779.0
779.0
778.0
774.0
772.0
772.0
775.0
773.0
778.0
778.0
782.0
785.0
788.0
788.0
792.0
796.0
797.0
802.0
808.0
808.0
808.0
806.0
803.0
801.0
803.0
806.0
809.0
818.0
819.0
820.0
823.0
820.0
818.0
815.0
810.0
809.0
808.0
806.0
801.0
803.0
802.0
802.0
799.0
797.0
790.0
782.0
777.0
768.0
763.0
760.0
760.0
763.0
763.0
765.0
768.0
772.0
773.0
770.0
771.0
768.0
766.0
768.0
765.0
766.0
770.0
775.0
785.0
805.0
835.0
882.0
945.0
1023.0
1115.0
1214.0
1316.0
1400.0
1463.0
1492.0
1485.0
1435.0
1328.0
1200.0
1072.0
944.0
816.0
688.0
639.0
707.0
777.0
832.0
862.0
859.0
839.0
814.0
788.0
771.0
769.0
769.0
775.0
781.0
781.0
781.0
783.0
784.0
786.0
785.0
790.0
791.0
789.0
785.0
784.0
783.0
783.0
787.0
791.0
791.0
795.0
797.0
798.0
798.0
796.0
795.0
796.0
800.0
806.0
813.0
819.0
821.0
820.0
820.0
821.0
815.0
816.0
822.0
825.0
829.0
832.0
838.0
842.0
846.0
853.0
861.0
861.0
864.0
867.0
871.0
875.0
885.0
890.0
900.0
906.0
908.0
912.0
913.0
916.0
920.0
925.0
930.0
935.0
942.0
943.0
948.0
949.0
951.0
946.0
949.0
948.0
944.0
941.0
937.0
933.0
927.0
918.0
913.0
902.0
897.0
888.0
881.0
872.0
865.0
861.0
851.0
844.0
832.0
822.0
815.0
813.0
807.0
803.0
803.0
801.0
799.0
794.0
787.0
783.0
784.0
783.0
787.0
788.0
792.0
797.0
794.0
793.0
792.0
789.0
789.0
786.0
784.0
786.0
789.0
790.0
790.0
790.0
789.0
791.0
788.0
788.0
789.0
792.0
792.0
792.0
794.0
796.0
796.0
797.0
797.0
792.0
787.0
785.0
781.0
783.0
783.0
783.0
785.0
788.0
786.0
787.0
787.0
783.0
782.0
779.0
777.0
773.0
775.0
778.0
778.0
781.0
778.0
778.0
775.0
775.0
771.0
771.0
768.0
769.0
770.0
769.0
772.0
776.0
774.0
773.0
774.0
767.0
767.0
767.0
764.0
762.0
762.0
765.0
767.0
769.0
772.0
774.0
774.0
771.0
770.0
767.0
765.0
764.0
758.0
760.0
762.0
764.0
770.0
770.0
774.0
775.0
776.0
777.0
778.0
779.0
781.0
781.0
777.0
782.0
782.0
785.0
789.0
789.0
788.0
787.0
791.0
793.0
800.0
806.0
810.0
812.0
809.0
804.0
796.0
790.0
785.0
780.0
783.0
785.0
788.0
785.0
785.0
780.0
772.0
766.0
757.0
757.0
755.0
752.0
757.0
762.0
765.0
763.0
765.0
763.0
762.0
764.0
766.0
767.0
767.0
767.0
759.0
755.0
757.0
768.0
793.0
836.0
893.0
973.0
1067.0
1169.0
1278.0
1371.0
1439.0
1480.0
1493.0
1469.0
1399.0
1271.0
1143.0
1015.0
887.0
759.0
651.0
693.0
747.0
795.0
815.0
822.0
807.0
791.0
774.0
766.0
760.0
763.0
762.0
764.0
763.0
762.0
764.0
766.0
770.0
773.0
770.0
773.0
772.0
774.0
773.0
772.0
770.0
770.0
770.0
772.0
777.0
785.0
786.0
789.0
790.0
788.0
782.0
782.0
784.0
787.0
790.0
795.0
799.0
805.0
806.0
808.0
810.0
813.0
814.0
818.0
820.0
825.0
830.0
838.0
841.0
846.0
849.0
851.0
857.0
859.0
864.0
869.0
875.0
880.0
883.0
888.0
895.0
900.0
906.0
907.0
909.0
908.0
908.0
905.0
906.0
905.0
901.0
902.0
898.0
902.0
899.0
896.0
888.0
878.0
867.0
854.0
839.0
827.0
820.0
818.0
816.0
811.0
803.0
797.0
791.0
782.0
776.0
773.0
766.0
763.0
764.0
763.0
765.0
764.0
763.0
760.0
762.0
760.0
754.0
753.0
751.0
747.0
748.0
749.0
752.0
755.0
756.0
758.0
758.0
759.0
755.0
752.0
752.0
752.0
753.0
756.0
754.0
760.0
762.0
764.0
764.0
764.0
762.0
753.0
755.0
752.0
757.0
758.0
760.0
765.0
763.0
760.0
759.0
756.0
753.0
753.0
751.0
753.0
755.0
757.0
758.0
763.0
764.0
760.0
759.0
755.0
752.0
746.0
746.0
749.0
753.0
756.0
757.0
761.0
760.0
755.0
751.0
745.0
747.0
746.0
748.0
750.0
753.0
756.0
757.0
758.0
757.0
755.0
752.0
752.0
751.0
752.0
751.0
750.0
752.0
755.0
761.0
763.0
763.0
762.0
760.0
759.0
758.0
759.0
758.0
758.0
758.0
760.0
764.0
771.0
772.0
776.0
774.0
775.0
778.0
775.0
780.0
783.0
786.0
785.0
785.0
790.0
790.0
787.0
792.0
792.0
797.0
798.0
797.0
796.0
798.0
807.0
804.0
807.0
809.0
809.0
807.0
802.0
800.0
796.0
796.0
788.0
787.0
780.0
778.0
772.0
767.0
767.0
765.0
761.0
764.0
766.0
763.0
762.0
768.0
771.0
773.0
778.0
777.0
777.0
776.0
770.0
770.0
771.0
770.0
770.0
781.0
800.0
832.0
875.0
931.0
1001.0
1078.0
1155.0
1232.0
1308.0
1377.0
1430.0
1460.0
1469.0
1439.0
1361.0
1233.0
1105.0
977.0
849.0
721.0
665.0
711.0
767.0
812.0
834.0
834.0
823.0
804.0
787.0
777.0
774.0
773.0
771.0
773.0
774.0
775.0
780.0
782.0
788.0
790.0
794.0
793.0
791.0
788.0
783.0
781.0
780.0
785.0
789.0
792.0
796.0
796.0
794.0
795.0
793.0
795.0
798.0
796.0
797.0
798.0
804.0
808.0
819.0
824.0
825.0
826.0
826.0
823.0
824.0
824.0
827.0
835.0
840.0
846.0
857.0
861.0
867.0
871.0
873.0
878.0
885.0
888.0
893.0
904.0
910.0
914.0
919.0
920.0
918.0
923.0
923.0
923.0
924.0
924.0
925.0
926.0
929.0
927.0
930.0
923.0
920.0
912.0
905.0
895.0
885.0
874.0
861.0
855.0
853.0
851.0
848.0
842.0
832.0
828.0
818.0
810.0
804.0
797.0
792.0
789.0
785.0
779.0
782.0
781.0
780.0
782.0
780.0
777.0
773.0
771.0
772.0
775.0
777.0
779.0
781.0
779.0
775.0
775.0
773.0
775.0
778.0
778.0
780.0
784.0
785.0
789.0
791.0
793.0
792.0
790.0
787.0
784.0
781.0
780.0
781.0
784.0
792.0
792.0
796.0
794.0
791.0
790.0
790.0
787.0
785.0
782.0
784.0
787.0
790.0
791.0
791.0
788.0
785.0
785.0
785.0
779.0
781.0
779.0
780.0
780.0
777.0
782.0
783.0
785.0
784.0
782.0
777.0
777.0
772.0
771.0
773.0
778.0
781.0
783.0
786.0
783.0
779.0
779.0
774.0
772.0
769.0
766.0
769.0
768.0
772.0
777.0
781.0
780.0
779.0
776.0
775.0
770.0
768.0
764.0
765.0
765.0
770.0
772.0
779.0
783.0
786.0
793.0
793.0
796.0
793.0
797.0
796.0
799.0
803.0
802.0
802.0
801.0
802.0
805.0
807.0
809.0
811.0
812.0
811.0
808.0
808.0
810.0
812.0
814.0
810.0
808.0
804.0
799.0
798.0
791.0
783.0
782.0
780.0
773.0
771.0
769.0
765.0
767.0
770.0
771.0
772.0
772.0
769.0
766.0
770.0
770.0
771.0
777.0
778.0
778.0
774.0
773.0
773.0
778.0
799.0
825.0
871.0
936.0
1014.0
1103.0
1199.0
1298.0
1384.0
1449.0
1489.0
1501.0
1481.0
1430.0
1336.0
1208.0
1080.0
952.0
824.0
696.0
666.0
714.0
772.0
820.0
844.0
839.0
825.0
808.0
795.0
780.0
776.0
778.0
778.0
779.0
780.0
779.0
783.0
784.0
787.0
786.0
788.0
786.0
784.0
785.0
784.0
787.0
787.0
785.0
788.0
788.0
792.0
794.0
801.0
802.0
804.0
808.0
808.0
805.0
807.0
811.0
810.0
812.0
817.0
819.0
825.0
827.0
828.0
831.0
834.0
840.0
840.0
846.0
846.0
854.0
861.0
865.0
876.0
881.0
886.0
889.0
894.0
901.0
908.0
914.0
918.0
919.0
925.0
924.0
928.0
931.0
929.0
929.0
934.0
934.0
935.0
932.0
931.0
928.0
927.0
930.0
926.0
920.0
911.0
899.0
887.0
879.0
866.0
860.0
852.0
843.0
837.0
833.0
830.0
825.0
819.0
814.0
807.0
803.0
801.0
798.0
796.0
794.0
794.0
794.0
795.0
794.0
794.0
790.0
790.0
784.0
782.0
781.0
781.0
783.0
785.0
787.0
788.0
790.0
790.0
791.0
789.0
791.0
789.0
787.0
781.0
780.0
783.0
787.0
792.0
796.0
797.0
798.0
796.0
793.0
793.0
792.0
793.0
794.0
794.0
792.0
797.0
799.0
802.0
802.0
799.0
793.0
790.0
785.0
783.0
780.0
783.0
789.0
792.0
792.0
791.0
785.0
781.0
779.0
776.0
774.0
774.0
776.0
782.0
788.0
792.0
790.0
789.0
786.0
778.0
776.0
773.0
776.0
775.0
776.0
779.0
782.0
777.0
779.0
780.0
780.0
778.0
779.0
779.0
775.0
772.0
769.0
770.0
771.0
777.0
782.0
782.0
784.0
782.0
780.0
777.0
775.0
777.0
779.0
789.0
793.0
798.0
800.0
800.0
799.0
798.0
797.0
797.0
794.0
795.0
797.0
800.0
807.0
811.0
816.0
815.0
814.0
812.0
811.0
807.0
803.0
802.0
807.0
806.0
802.0
800.0
801.0
800.0
799.0
795.0
789.0
787.0
780.0
775.0
775.0
771.0
768.0
770.0
769.0
770.0
769.0
765.0
762.0
759.0
759.0
762.0
765.0
771.0
774.0
777.0
778.0
774.0
771.0
773.0
780.0
795.0
819.0
857.0
915.0
984.0
1063.0
1158.0
1253.0
1345.0
1422.0
1471.0
1493.0
1484.0
1441.0
1357.0
1232.0
1104.0
976.0
848.0
720.0
634.0
665.0
722.0
788.0
827.0
841.0
839.0
817.0
799.0
784.0
776.0
781.0
775.0
776.0
776.0
775.0
776.0
777.0
781.0
781.0
783.0
785.0
786.0
783.0
784.0
783.0
780.0
780.0
778.0
780.0
786.0
789.0
791.0
792.0
791.0
797.0
801.0
803.0
806.0
808.0
808.0
807.0
805.0
807.0
811.0
817.0
824.0
828.0
831.0
833.0
831.0
832.0
834.0
835.0
838.0
840.0
848.0
852.0
857.0
869.0
875.0
879.0
882.0
884.0
887.0
889.0
891.0
897.0
901.0
908.0
917.0
922.0
929.0
929.0
933.0
936.0
937.0
938.0
939.0
938.0
939.0
944.0
946.0
945.0
942.0
940.0
937.0
932.0
926.0
915.0
909.0
900.0
893.0
882.0
876.0
868.0
862.0
857.0
846.0
834.0
825.0
818.0
813.0
808.0
801.0
801.0
800.0
797.0
797.0
795.0
790.0
791.0
789.0
786.0
784.0
778.0
783.0
780.0
784.0
786.0
792.0
793.0
791.0
790.0
789.0
790.0
786.0
780.0
781.0
781.0
786.0
791.0
796.0
796.0
800.0
798.0
795.0
790.0
788.0
788.0
789.0
794.0
797.0
798.0
797.0
796.0
794.0
795.0
792.0
790.0
789.0
788.0
791.0
791.0
794.0
797.0
798.0
797.0
794.0
788.0
784.0
784.0
783.0
784.0
784.0
787.0
788.0
791.0
789.0
792.0
789.0
788.0
788.0
786.0
784.0
781.0
776.0
774.0
773.0
776.0
780.0
785.0
783.0
780.0
779.0
780.0
778.0
781.0
782.0
780.0
778.0
778.0
771.0
775.0
774.0
778.0
778.0
780.0
779.0
777.0
777.0
782.0
785.0
788.0
786.0
785.0
784.0
784.0
787.0
786.0
792.0
796.0
800.0
804.0
802.0
806.0
804.0
802.0
800.0
797.0
793.0
795.0
802.0
809.0
813.0
814.0
817.0
819.0
815.0
812.0
810.0
808.0
806.0
806.0
801.0
795.0
790.0
787.0
783.0
783.0
779.0
778.0
777.0
770.0
768.0
765.0
764.0
764.0
764.0
765.0
768.0
771.0
775.0
775.0
774.0
770.0
765.0
760.0
758.0
762.0
772.0
791.0
820.0
859.0
916.0
989.0
1074.0
1176.0
1278.0
1373.0
1446.0
1492.0
1504.0
1478.0
1409.0
1281.0
1153.0
1025.0
897.0
769.0
645.0
692.0
754.0
813.0
850.0
858.0
850.0
827.0
805.0
789.0
774.0
771.0
770.0
773.0
774.0
775.0
779.0
780.0
782.0
782.0
781.0
781.0
778.0
778.0
778.0
779.0
782.0
784.0
788.0
790.0
790.0
790.0
790.0
791.0
793.0
795.0
798.0
798.0
797.0
795.0
797.0
800.0
801.0
810.0
810.0
814.0
816.0
817.0
820.0
824.0
825.0
829.0
832.0
838.0
844.0
849.0
857.0
864.0
867.0
875.0
877.0
880.0
881.0
890.0
896.0
904.0
910.0
918.0
920.0
922.0
922.0
927.0
931.0
932.0
936.0
935.0
937.0
939.0
941.0
941.0
940.0
939.0
934.0
925.0
921.0
911.0
903.0
891.0
882.0
876.0
871.0
865.0
856.0
848.0
840.0
830.0
821.0
815.0
808.0
801.0
802.0
799.0
799.0
797.0
795.0
790.0
786.0
783.0
779.0
780.0
779.0
781.0
781.0
781.0
781.0
783.0
786.0
785.0
783.0
783.0
784.0
782.0
783.0
786.0
787.0
790.0
791.0
793.0
793.0
791.0
788.0
785.0
782.0
782.0
782.0
784.0
785.0
787.0
789.0
792.0
793.0
794.0
789.0
786.0
784.0
783.0
780.0
777.0
781.0
782.0
788.0
790.0
786.0
782.0
777.0
773.0
771.0
769.0
772.0
768.0
770.0
773.0
776.0
781.0
781.0
782.0
783.0
783.0
779.0
774.0
762.0
760.0
760.0
758.0
761.0
771.0
773.0
773.0
770.0
770.0
767.0
759.0
761.0
759.0
761.0
762.0
763.0
764.0
764.0
764.0
765.0
763.0
760.0
761.0
762.0
758.0
763.0
766.0
767.0
773.0
779.0
784.0
783.0
784.0
782.0
778.0
779.0
778.0
783.0
789.0
789.0
796.0
797.0
799.0
797.0
795.0
791.0
789.0
788.0
788.0
789.0
787.0
782.0
786.0
788.0
787.0
783.0
781.0
773.0
766.0
766.0
760.0
757.0
750.0
751.0
750.0
753.0
757.0
756.0
752.0
751.0
751.0
750.0
751.0
757.0
758.0
762.0
763.0
760.0
759.0
760.0
762.0
771.0
793.0
829.0
883.0
952.0
1031.0
1118.0
1210.0
1300.0
1381.0
1443.0
1481.0
1490.0
1468.0
1402.0
1279.0
1151.0
1023.0
895.0
767.0
661.0
692.0
745.0
791.0
818.0
827.0
817.0
799.0
783.0
773.0
766.0
767.0
766.0
768.0
768.0
764.0
766.0
765.0
763.0
764.0
770.0
769.0
773.0
775.0
775.0
773.0
773.0
775.0
777.0
779.0
778.0
782.0
783.0
786.0
792.0
794.0
795.0
798.0
793.0
790.0
789.0
788.0
786.0
795.0
801.0
805.0
810.0
816.0
818.0
820.0
824.0
821.0
820.0
822.0
819.0
825.0
833.0
839.0
847.0
854.0
862.0
872.0
877.0
882.0
886.0
889.0
893.0
900.0
904.0
911.0
914.0
922.0
923.0
924.0
925.0
927.0
925.0
926.0
921.0
916.0
913.0
906.0
898.0
888.0
881.0
870.0
861.0
849.0
842.0
829.0
822.0
819.0
817.0
814.0
812.0
808.0
801.0
795.0
784.0
782.0
775.0
770.0
769.0
769.0
767.0
768.0
770.0
771.0
772.0
772.0
777.0
771.0
771.0
770.0
767.0
763.0
762.0
762.0
768.0
769.0
771.0
773.0
774.0
775.0
775.0
771.0
768.0
767.0
769.0
769.0
774.0
777.0
779.0
778.0
775.0
771.0
767.0
768.0
767.0
768.0
770.0
777.0
779.0
780.0
779.0
773.0
770.0
767.0
764.0
762.0
762.0
763.0
769.0
770.0
771.0
772.0
770.0
765.0
759.0
753.0
751.0
747.0
747.0
751.0
752.0
753.0
756.0
756.0
757.0
755.0
751.0
751.0
749.0
745.0
747.0
746.0
747.0
750.0
753.0
751.0
753.0
753.0
751.0
744.0
743.0
741.0
740.0
739.0
738.0
738.0
744.0
749.0
754.0
762.0
765.0
769.0
771.0
768.0
765.0
760.0
756.0
753.0
757.0
763.0
763.0
765.0
766.0
766.0
767.0
768.0
771.0
775.0
778.0
784.0
784.0
783.0
781.0
781.0
777.0
775.0
774.0
770.0
770.0
769.0
770.0
769.0
772.0
769.0
766.0
762.0
755.0
745.0
738.0
737.0
743.0
746.0
751.0
752.0
754.0
753.0
750.0
749.0
747.0
750.0
752.0
753.0
755.0
755.0
753.0
754.0
758.0
767.0
776.0
796.0
824.0
863.0
916.0
984.0
1060.0
1142.0
1224.0
1304.0
1370.0
1423.0
1457.0
1469.0
1452.0
1392.0
1280.0
1152.0
1024.0
896.0
768.0
640.0
656.0
707.0
765.0
804.0
822.0
820.0
809.0
793.0
778.0
770.0
768.0
765.0
773.0
778.0
780.0
779.0
777.0
774.0
774.0
770.0
772.0
774.0
780.0
783.0
786.0
791.0
797.0
796.0
795.0
793.0
791.0
787.0
790.0
791.0
788.0
791.0
793.0
796.0
796.0
801.0
806.0
809.0
812.0
816.0
818.0
818.0
824.0
826.0
830.0
833.0
836.0
835.0
845.0
847.0
849.0
847.0
851.0
856.0
862.0
868.0
873.0
881.0
886.0
890.0
902.0
903.0
906.0
909.0
910.0
910.0
915.0
921.0
926.0
934.0
940.0
945.0
944.0
939.0
937.0
935.0
934.0
933.0
930.0
927.0
922.0
920.0
914.0
906.0
899.0
887.0
876.0
867.0
859.0
857.0
852.0
844.0
836.0
830.0
822.0
817.0
812.0
803.0
799.0
798.0
798.0
796.0
796.0
795.0
789.0
793.0
793.0
792.0
790.0
787.0
785.0
784.0
782.0
781.0
782.0
780.0
785.0
793.0
798.0
798.0
799.0
799.0
797.0
791.0
793.0
795.0
796.0
797.0
799.0
803.0
803.0
802.0
805.0
801.0
803.0
799.0
798.0
796.0
795.0
795.0
797.0
803.0
806.0
809.0
810.0
809.0
804.0
800.0
798.0
794.0
794.0
795.0
803.0
803.0
800.0
801.0
800.0
797.0
793.0
793.0
791.0
792.0
796.0
798.0
794.0
798.0
795.0
795.0
792.0
789.0
787.0
786.0
782.0
786.0
786.0
789.0
786.0
791.0
796.0
796.0
798.0
794.0
790.0
788.0
784.0
783.0
783.0
789.0
791.0
794.0
794.0
791.0
792.0
788.0
787.0
788.0
788.0
792.0
801.0
807.0
815.0
817.0
819.0
817.0
812.0
808.0
814.0
814.0
811.0
812.0
813.0
812.0
816.0
820.0
819.0
824.0
826.0
827.0
826.0
822.0
823.0
821.0
822.0
821.0
820.0
825.0
822.0
819.0
812.0
804.0
798.0
789.0
784.0
779.0
781.0
781.0
783.0
785.0
784.0
787.0
787.0
787.0
786.0
783.0
781.0
778.0
780.0
781.0
784.0
787.0
790.0
788.0
790.0
793.0
807.0
839.0
889.0
957.0
1039.0
1130.0
1228.0
1326.0
1418.0
1480.0
1508.0
1507.0
1466.0
1371.0
1243.0
1115.0
987.0
859.0
731.0
711.0
765.0
819.0
859.0
874.0
866.0
850.0
827.0
810.0
801.0
800.0
799.0
802.0
804.0
805.0
802.0
801.0
801.0
798.0
798.0
798.0
797.0
798.0
801.0
805.0
810.0
810.0
811.0
811.0
811.0
811.0
811.0
813.0
815.0
817.0
820.0
825.0
827.0
829.0
826.0
823.0
822.0
822.0
824.0
826.0
830.0
835.0
838.0
844.0
849.0
853.0
856.0
857.0
858.0
857.0
859.0
863.0
869.0
876.0
883.0
890.0
902.0
906.0
908.0
912.0
914.0
918.0
922.0
925.0
930.0
937.0
944.0
953.0
960.0
966.0
966.0
965.0
962.0
959.0
956.0
951.0
954.0
953.0
954.0
952.0
942.0
936.0
924.0
915.0
904.0
896.0
888.0
884.0
876.0
873.0
867.0
863.0
855.0
845.0
837.0
830.0
822.0
817.0
814.0
815.0
813.0
812.0
813.0
816.0
816.0
819.0
817.0
815.0
816.0
814.0
807.0
805.0
803.0
802.0
805.0
809.0
812.0
813.0
814.0
814.0
814.0
813.0
812.0
811.0
809.0
811.0
813.0
816.0
814.0
815.0
819.0
818.0
819.0
816.0
817.0
815.0
817.0
818.0
818.0
819.0
819.0
819.0
818.0
815.0
814.0
811.0
812.0
810.0
808.0
811.0
810.0
813.0
817.0
816.0
817.0
816.0
813.0
810.0
807.0
807.0
806.0
809.0
813.0
816.0
818.0
815.0
809.0
810.0
808.0
808.0
810.0
810.0
813.0
813.0
813.0
811.0
810.0
811.0
810.0
806.0
809.0
807.0
804.0
803.0
803.0
805.0
805.0
805.0
809.0
813.0
814.0
812.0
813.0
812.0
815.0
820.0
822.0
827.0
829.0
830.0
837.0
834.0
834.0
835.0
836.0
835.0
837.0
835.0
838.0
842.0
844.0
847.0
849.0
849.0
847.0
850.0
849.0
846.0
840.0
841.0
833.0
832.0
824.0
817.0
812.0
806.0
803.0
798.0
796.0
792.0
795.0
796.0
798.0
799.0
801.0
800.0
801.0
799.0
800.0
798.0
801.0
799.0
793.0
794.0
795.0
802.0
818.0
847.0
895.0
969.0
1057.0
1163.0
1278.0
1378.0
1463.0
1519.0
1542.0
1538.0
1507.0
1443.0
1323.0
1195.0
1067.0
939.0
811.0
723.0
761.0
817.0
856.0
871.0
866.0
851.0
832.0
816.0
809.0
807.0
808.0
806.0
805.0
805.0
804.0
806.0
807.0
809.0
814.0
813.0
815.0
813.0
815.0
811.0
809.0
807.0
811.0
813.0
817.0
819.0
821.0
821.0
818.0
820.0
821.0
824.0
826.0
826.0
831.0
833.0
836.0
838.0
841.0
843.0
845.0
845.0
848.0
850.0
854.0
857.0
865.0
872.0
881.0
888.0
892.0
894.0
901.0
899.0
902.0
907.0
915.0
924.0
933.0
940.0
946.0
949.0
954.0
954.0
956.0
955.0
955.0
957.0
957.0
958.0
956.0
957.0
954.0
955.0
951.0
948.0
939.0
932.0
925.0
915.0
904.0
891.0
879.0
869.0
862.0
858.0
851.0
844.0
834.0
830.0
822.0
817.0
812.0
808.0
805.0
801.0
805.0
809.0
813.0
810.0
802.0
795.0
788.0
784.0
783.0
787.0
788.0
791.0
792.0
793.0
796.0
795.0
796.0
795.0
794.0
795.0
794.0
790.0
791.0
784.0
788.0
788.0
791.0
793.0
796.0
799.0
799.0
795.0
789.0
790.0
791.0
796.0
795.0
797.0
798.0
792.0
788.0
785.0
787.0
785.0
787.0
785.0
786.0
789.0
791.0
790.0
793.0
792.0
789.0
785.0
783.0
781.0
777.0
778.0
780.0
780.0
781.0
777.0
778.0
777.0
776.0
773.0
774.0
771.0
777.0
774.0
779.0
781.0
781.0
778.0
775.0
773.0
768.0
766.0
766.0
767.0
768.0
769.0
771.0
774.0
774.0
778.0
778.0
778.0
776.0
778.0
781.0
776.0
776.0
780.0
783.0
784.0
786.0
794.0
799.0
802.0
800.0
805.0
803.0
799.0
792.0
792.0
795.0
797.0
801.0
812.0
818.0
819.0
820.0
817.0
814.0
811.0
811.0
809.0
809.0
812.0
812.0
811.0
815.0
809.0
805.0
796.0
791.0
788.0
781.0
777.0
776.0
775.0
777.0
782.0
787.0
787.0
788.0
788.0
785.0
786.0
782.0
779.0
779.0
781.0
780.0
784.0
791.0
797.0
806.0
822.0
846.0
878.0
918.0
967.0
1020.0
1082.0
1156.0
1237.0
1322.0
1399.0
1454.0
1484.0
1475.0
1419.0
1303.0
1175.0
1047.0
919.0
791.0
680.0
714.0
771.0
824.0
858.0
864.0
850.0
828.0
809.0
796.0
793.0
797.0
797.0
803.0
803.0
804.0
804.0
802.0
802.0
804.0
804.0
806.0
809.0
811.0
818.0
823.0
825.0
827.0
826.0
823.0
820.0
818.0
820.0
824.0
829.0
837.0
840.0
844.0
841.0
843.0
842.0
841.0
843.0
847.0
850.0
855.0
860.0
866.0
867.0
871.0
876.0
878.0
883.0
887.0
891.0
898.0
904.0
912.0
918.0
925.0
933.0
941.0
946.0
950.0
955.0
957.0
958.0
960.0
960.0
967.0
972.0
978.0
977.0
978.0
973.0
970.0
963.0
960.0
953.0
948.0
941.0
936.0
928.0
922.0
914.0
908.0
902.0
891.0
883.0
873.0
867.0
862.0
854.0
848.0
847.0
837.0
839.0
836.0
832.0
829.0
826.0
818.0
814.0
813.0
813.0
811.0
813.0
814.0
815.0
817.0
817.0
818.0
816.0
816.0
812.0
812.0
811.0
812.0
813.0
816.0
819.0
821.0
824.0
826.0
828.0
830.0
823.0
828.0
827.0
829.0
826.0
825.0
824.0
823.0
818.0
820.0
821.0
824.0
827.0
827.0
828.0
827.0
828.0
826.0
825.0
829.0
830.0
827.0
828.0
826.0
824.0
821.0
820.0
819.0
820.0
825.0
827.0
830.0
831.0
829.0
827.0
822.0
817.0
811.0
806.0
806.0
814.0
812.0
819.0
820.0
820.0
821.0
816.0
815.0
812.0
809.0
810.0
809.0
814.0
816.0
818.0
819.0
819.0
820.0
817.0
816.0
812.0
808.0
808.0
809.0
812.0
817.0
818.0
820.0
818.0
821.0
824.0
826.0
829.0
834.0
837.0
839.0
839.0
837.0
839.0
839.0
836.0
835.0
838.0
842.0
846.0
849.0
853.0
853.0
851.0
847.0
848.0
848.0
851.0
852.0
848.0
848.0
847.0
844.0
842.0
839.0
835.0
827.0
823.0
816.0
813.0
812.0
812.0
807.0
804.0
804.0
804.0
803.0
807.0
810.0
812.0
814.0
816.0
814.0
813.0
811.0
811.0
809.0
807.0
807.0
815.0
827.0
848.0
880.0
927.0
989.0
1068.0
1155.0
1249.0
1346.0
1429.0
1497.0
1533.0
1546.0
1532.0
1495.0
1420.0
1302.0
1174.0
1046.0
918.0
790.0
724.0
761.0
816.0
863.0
890.0
893.0
879.0
857.0
837.0
823.0
812.0
812.0
817.0
818.0
821.0
821.0
824.0
822.0
817.0
817.0
815.0
819.0
817.0
820.0
820.0
822.0
822.0
821.0
821.0
825.0
827.0
831.0
835.0
835.0
834.0
834.0
832.0
831.0
834.0
842.0
848.0
853.0
858.0
857.0
858.0
856.0
857.0
856.0
858.0
864.0
874.0
878.0
888.0
896.0
894.0
893.0
898.0
899.0
905.0
908.0
911.0
917.0
925.0
934.0
946.0
951.0
955.0
959.0
963.0
966.0
973.0
977.0
980.0
980.0
979.0
976.0
978.0
975.0
976.0
972.0
972.0
970.0
964.0
956.0
946.0
933.0
927.0
916.0
910.0
904.0
892.0
884.0
877.0
868.0
859.0
855.0
842.0
836.0
833.0
835.0
837.0
842.0
843.0
837.0
837.0
830.0
823.0
816.0
815.0
815.0
814.0
817.0
821.0
826.0
822.0
825.0
825.0
821.0
817.0
819.0
817.0
817.0
822.0
822.0
824.0
823.0
822.0
822.0
825.0
822.0
822.0
822.0
820.0
822.0
826.0
828.0
827.0
828.0
828.0
828.0
825.0
822.0
819.0
820.0
817.0
819.0
821.0
819.0
821.0
823.0
821.0
818.0
818.0
817.0
814.0
815.0
812.0
806.0
806.0
804.0
808.0
811.0
814.0
813.0
812.0
807.0
803.0
804.0
804.0
803.0
807.0
807.0
810.0
809.0
808.0
810.0
806.0
804.0
799.0
801.0
801.0
800.0
798.0
797.0
798.0
801.0
802.0
804.0
802.0
806.0
802.0
799.0
796.0
798.0
799.0
801.0
803.0
809.0
813.0
810.0
817.0
814.0
811.0
810.0
807.0
807.0
812.0
816.0
821.0
829.0
831.0
835.0
836.0
835.0
833.0
829.0
826.0
819.0
819.0
817.0
817.0
822.0
821.0
824.0
819.0
813.0
806.0
798.0
790.0
788.0
784.0
783.0
783.0
779.0
779.0
779.0
782.0
782.0
782.0
778.0
777.0
780.0
785.0
785.0
788.0
791.0
788.0
789.0
787.0
791.0
801.0
825.0
865.0
918.0
983.0
1062.0
1139.0
1218.0
1299.0
1373.0
1440.0
1472.0
1485.0
1451.0
1361.0
1233.0
1105.0
977.0
849.0
721.0
704.0
750.0
805.0
840.0
851.0
839.0
819.0
794.0
779.0
772.0
776.0
783.0
788.0
786.0
784.0
784.0
781.0
779.0
777.0
782.0
787.0
787.0
791.0
797.0
798.0
800.0
799.0
796.0
796.0
795.0
792.0
793.0
801.0
802.0
808.0
809.0
808.0
808.0
811.0
817.0
819.0
824.0
820.0
821.0
820.0
822.0
829.0
839.0
846.0
846.0
851.0
857.0
860.0
860.0
864.0
864.0
866.0
872.0
876.0
884.0
892.0
898.0
907.0
910.0
916.0
919.0
921.0
924.0
928.0
934.0
938.0
944.0
945.0
945.0
943.0
944.0
946.0
950.0
950.0
948.0
949.0
944.0
941.0
938.0
932.0
920.0
905.0
897.0
885.0
873.0
867.0
863.0
856.0
854.0
849.0
848.0
842.0
835.0
828.0
819.0
813.0
809.0
808.0
804.0
806.0
807.0
808.0
810.0
809.0
808.0
804.0
801.0
801.0
801.0
802.0
803.0
803.0
806.0
803.0
809.0
810.0
805.0
805.0
805.0
807.0
808.0
811.0
810.0
809.0
812.0
812.0
815.0
818.0
819.0
819.0
818.0
815.0
816.0
814.0
816.0
819.0
825.0
827.0
826.0
826.0
823.0
818.0
816.0
