# Simple Text Format
# Sampling Rate (Hz):= 360.00
# Resolution:= 12
# Labels:= ECG
758.0
752.0
748.0
748.0
743.0
739.0
742.0
740.0
743.0
743.0
747.0
748.0
750.0
752.0
749.0
748.0
747.0
745.0
743.0
748.0
749.0
753.0
756.0
756.0
756.0
755.0
753.0
750.0
755.0
756.0
762.0
767.0
774.0
778.0
781.0
779.0
782.0
779.0
776.0
772.0
772.0
778.0
781.0
786.0
789.0
795.0
799.0
799.0
796.0
790.0
792.0
789.0
784.0
780.0
779.0
778.0
779.0
782.0
782.0
782.0
776.0
770.0
762.0
756.0
751.0
748.0
746.0
747.0
748.0
747.0
753.0
752.0
750.0
749.0
748.0
750.0
750.0
751.0
755.0
754.0
754.0
754.0
755.0
756.0
759.0
764.0
779.0
803.0
843.0
899.0
966.0
1043.0
1123.0
1206.0
1288.0
1359.0
1418.0
1461.0
1478.0
1461.0
1393.0
1265.0
1137.0
1009.0
881.0
753.0
668.0
713.0
772.0
813.0
834.0
828.0
814.0
786.0
767.0
759.0
759.0
761.0
764.0
767.0
767.0
764.0
761.0
762.0
762.0
763.0
765.0
768.0
769.0
768.0
772.0
773.0
777.0
779.0
778.0
776.0
774.0
773.0
771.0
775.0
779.0
782.0
786.0
788.0
790.0
793.0
794.0
795.0
794.0
797.0
797.0
800.0
802.0
807.0
816.0
822.0
825.0
829.0
828.0
833.0
832.0
836.0
844.0
848.0
857.0
864.0
871.0
880.0
883.0
890.0
893.0
898.0
903.0
908.0
910.0
916.0
923.0
927.0
930.0
933.0
936.0
932.0
931.0
928.0
924.0
920.0
920.0
917.0
918.0
910.0
901.0
889.0
880.0
865.0
848.0
838.0
828.0
823.0
811.0
809.0
805.0
801.0
801.0
797.0
793.0
791.0
785.0
782.0
778.0
775.0
772.0
771.0
773.0
773.0
773.0
771.0
773.0
773.0
770.0
773.0
772.0
772.0
771.0
772.0
770.0
772.0
773.0
778.0
778.0
779.0
775.0
772.0
773.0
772.0
774.0
776.0
779.0
781.0
782.0
778.0
781.0
780.0
777.0
775.0
774.0
772.0
774.0
775.0
775.0
779.0
781.0
782.0
782.0
779.0
776.0
776.0
771.0
772.0
771.0
768.0
773.0
773.0
778.0
777.0
774.0
773.0
770.0
769.0
768.0
767.0
768.0
769.0
769.0
768.0
768.0
767.0
767.0
767.0
764.0
764.0
761.0
760.0
759.0
760.0
763.0
765.0
769.0
772.0
771.0
770.0
767.0
765.0
764.0
761.0
762.0
764.0
764.0
764.0
765.0
768.0
771.0
769.0
768.0
769.0
767.0
770.0
774.0
778.0
784.0
789.0
793.0
790.0
789.0
781.0
779.0
780.0
780.0
782.0
787.0
793.0
797.0
802.0
807.0
808.0
806.0
802.0
797.0
795.0
792.0
790.0
791.0
793.0
794.0
791.0
789.0
787.0
779.0
773.0
766.0
756.0
754.0
748.0
748.0
747.0
750.0
753.0
756.0
759.0
757.0
759.0
759.0
758.0
756.0
755.0
748.0
747.0
750.0
750.0
756.0
761.0
771.0
785.0
809.0
847.0
900.0
968.0
1048.0
1137.0
1231.0
1321.0
1402.0
1464.0
1500.0
1507.0
1484.0
1425.0
1322.0
1194.0
1066.0
938.0
810.0
682.0
690.0
741.0
795.0
830.0
842.0
834.0
811.0
792.0
769.0
760.0
759.0
764.0
767.0
771.0
775.0
773.0
772.0
770.0
767.0
765.0
767.0
765.0
768.0
768.0
773.0
776.0
778.0
778.0
781.0
781.0
781.0
779.0
779.0
781.0
787.0
789.0
789.0
793.0
796.0
795.0
795.0
796.0
797.0
799.0
803.0
807.0
812.0
815.0
819.0
826.0
831.0
834.0
838.0
844.0
843.0
845.0
845.0
853.0
857.0
865.0
874.0
883.0
889.0
898.0
900.0
905.0
908.0
909.0
916.0
920.0
925.0
936.0
940.0
942.0
942.0
941.0
940.0
938.0
934.0
931.0
924.0
920.0
911.0
905.0
900.0
892.0
883.0
872.0
858.0
842.0
833.0
824.0
814.0
811.0
808.0
803.0
801.0
799.0
797.0
794.0
791.0
788.0
781.0
783.0
781.0
779.0
783.0
780.0
782.0
782.0
779.0
779.0
777.0
778.0
777.0
774.0
773.0
773.0
777.0
779.0
784.0
787.0
787.0
784.0
782.0
777.0
776.0
781.0
782.0
782.0
784.0
785.0
786.0
787.0
789.0
787.0
784.0
788.0
783.0
784.0
781.0
782.0
781.0
782.0
783.0
787.0
787.0
787.0
786.0
782.0
781.0
780.0
780.0
779.0
775.0
775.0
775.0
778.0
778.0
781.0
777.0
775.0
772.0
771.0
771.0
774.0
777.0
777.0
778.0
780.0
777.0
772.0
773.0
768.0
767.0
766.0
766.0
764.0
765.0
767.0
769.0
772.0
778.0
775.0
773.0
769.0
767.0
764.0
762.0
763.0
765.0
767.0
770.0
769.0
770.0
771.0
773.0
777.0
781.0
782.0
784.0
783.0
782.0
784.0
786.0
789.0
790.0
790.0
792.0
788.0
790.0
793.0
796.0
803.0
802.0
803.0
805.0
804.0
804.0
802.0
795.0
791.0
788.0
786.0
783.0
780.0
778.0
773.0
770.0
769.0
763.0
760.0
755.0
752.0
748.0
748.0
748.0
750.0
751.0
755.0
758.0
759.0
760.0
756.0
754.0
752.0
753.0
750.0
751.0
754.0
757.0
767.0
784.0
807.0
837.0
880.0
938.0
1010.0
1094.0
1190.0
1291.0
1381.0
1452.0
1487.0
1485.0
1439.0
1332.0
1204.0
1076.0
948.0
820.0
692.0
682.0
734.0
787.0
824.0
836.0
828.0
809.0
786.0
772.0
761.0
760.0
761.0
762.0
765.0
765.0
765.0
762.0
759.0
754.0
755.0
757.0
759.0
758.0
761.0
761.0
765.0
767.0
773.0
773.0
776.0
777.0
778.0
777.0
776.0
776.0
775.0
778.0
778.0
786.0
790.0
794.0
794.0
797.0
796.0
798.0
802.0
803.0
802.0
800.0
804.0
810.0
816.0
819.0
832.0
835.0
841.0
844.0
846.0
849.0
856.0
862.0
867.0
875.0
880.0
886.0
892.0
898.0
903.0
905.0
908.0
908.0
909.0
909.0
909.0
910.0
914.0
915.0
918.0
917.0
915.0
907.0
901.0
894.0
885.0
873.0
862.0
856.0
847.0
839.0
840.0
832.0
825.0
815.0
805.0
796.0
788.0
782.0
774.0
772.0
767.0
766.0
767.0
764.0
764.0
763.0
761.0
758.0
758.0
754.0
753.0
751.0
753.0
754.0
755.0
755.0
754.0
751.0
750.0
752.0
748.0
749.0
749.0
751.0
755.0
756.0
759.0
760.0
761.0
760.0
760.0
755.0
756.0
754.0
752.0
758.0
755.0
763.0
763.0
762.0
762.0
757.0
754.0
750.0
749.0
747.0
748.0
749.0
751.0
756.0
758.0
760.0
761.0
757.0
754.0
749.0
745.0
743.0
744.0
748.0
748.0
748.0
748.0
746.0
745.0
738.0
737.0
737.0
740.0
739.0
740.0
740.0
743.0
743.0
746.0
744.0
743.0
739.0
737.0
732.0
729.0
728.0
730.0
735.0
740.0
743.0
745.0
745.0
739.0
733.0
729.0
726.0
728.0
726.0
728.0
729.0
728.0
732.0
739.0
741.0
747.0
748.0
748.0
751.0
748.0
748.0
744.0
743.0
749.0
750.0
754.0
755.0
755.0
758.0
759.0
761.0
765.0
767.0
769.0
769.0
766.0
764.0
765.0
764.0
761.0
758.0
758.0
757.0
757.0
753.0
752.0
749.0
745.0
742.0
739.0
734.0
729.0
730.0
727.0
728.0
730.0
730.0
729.0
730.0
732.0
734.0
736.0
737.0
737.0
735.0
732.0
733.0
733.0
735.0
738.0
757.0
780.0
814.0
863.0
922.0
991.0
1069.0
1153.0
1241.0
1324.0
1394.0
1437.0
1446.0
1409.0
1317.0
1189.0
1061.0
933.0
805.0
677.0
626.0
662.0
718.0
765.0
793.0
801.0
793.0
783.0
768.0
758.0
751.0
750.0
750.0
753.0
754.0
755.0
759.0
759.0
758.0
761.0
762.0
761.0
761.0
763.0
762.0
765.0
767.0
767.0
770.0
773.0
777.0
780.0
780.0
784.0
784.0
782.0
785.0
786.0
784.0
791.0
791.0
796.0
799.0
804.0
806.0
808.0
807.0
807.0
808.0
811.0
816.0
817.0
826.0
834.0
839.0
846.0
850.0
853.0
857.0
861.0
868.0
875.0
879.0
883.0
893.0
897.0
901.0
910.0
915.0
916.0
919.0
920.0
919.0
920.0
917.0
917.0
921.0
925.0
925.0
924.0
919.0
912.0
901.0
890.0
880.0
870.0
861.0
854.0
848.0
843.0
834.0
832.0
824.0
819.0
810.0
804.0
797.0
792.0
787.0
782.0
780.0
780.0
782.0
787.0
789.0
786.0
781.0
779.0
776.0
776.0
772.0
773.0
776.0
778.0
780.0
783.0
784.0
784.0
782.0
781.0
783.0
781.0
780.0
784.0
786.0
789.0
789.0
792.0
788.0
789.0
790.0
786.0
786.0
790.0
790.0
790.0
795.0
796.0
796.0
798.0
799.0
797.0
795.0
792.0
790.0
788.0
784.0
781.0
784.0
785.0
788.0
790.0
793.0
791.0
787.0
785.0
783.0
778.0
774.0
779.0
784.0
786.0
785.0
787.0
783.0
782.0
778.0
780.0
783.0
778.0
782.0
780.0
785.0
785.0
786.0
785.0
787.0
787.0
783.0
781.0
778.0
778.0
773.0
773.0
775.0
777.0
782.0
785.0
786.0
784.0
780.0
777.0
777.0
774.0
773.0
775.0
781.0
785.0
793.0
803.0
806.0
807.0
804.0
800.0
800.0
799.0
799.0
800.0
801.0
807.0
814.0
819.0
819.0
822.0
823.0
819.0
817.0
815.0
810.0
813.0
813.0
812.0
815.0
816.0
812.0
808.0
804.0
799.0
793.0
789.0
783.0
776.0
771.0
771.0
774.0
779.0
779.0
784.0
784.0
782.0
779.0
777.0
775.0
774.0
775.0
778.0
775.0
780.0
782.0
783.0
789.0
800.0
818.0
850.0
896.0
959.0
1037.0
1120.0
1208.0
1301.0
1386.0
1455.0
1497.0
1508.0
1478.0
1396.0
1268.0
1140.0
1012.0
884.0
756.0
696.0
745.0
803.0
851.0
865.0
861.0
841.0
818.0
797.0
786.0
789.0
790.0
797.0
804.0
803.0
802.0
797.0
795.0
789.0
788.0
786.0
786.0
791.0
799.0
802.0
804.0
802.0
805.0
807.0
804.0
806.0
806.0
801.0
803.0
809.0
812.0
818.0
821.0
823.0
823.0
824.0
823.0
820.0
824.0
828.0
833.0
839.0
846.0
850.0
853.0
849.0
850.0
850.0
853.0
857.0
864.0
870.0
880.0
888.0
891.0
899.0
905.0
909.0
915.0
918.0
921.0
927.0
928.0
934.0
939.0
938.0
949.0
955.0
960.0
963.0
964.0
961.0
954.0
950.0
945.0
940.0
934.0
935.0
928.0
919.0
911.0
901.0
890.0
881.0
871.0
863.0
855.0
847.0
841.0
835.0
831.0
830.0
824.0
821.0
815.0
811.0
809.0
805.0
804.0
802.0
806.0
806.0
806.0
806.0
804.0
802.0
801.0
800.0
798.0
800.0
796.0
798.0
800.0
802.0
802.0
806.0
808.0
806.0
805.0
805.0
803.0
805.0
804.0
806.0
805.0
810.0
810.0
811.0
813.0
809.0
813.0
811.0
810.0
810.0
811.0
813.0
812.0
813.0
815.0
813.0
810.0
811.0
806.0
802.0
803.0
801.0
803.0
805.0
806.0
807.0
805.0
808.0
809.0
808.0
810.0
805.0
800.0
797.0
797.0
796.0
801.0
800.0
800.0
802.0
804.0
804.0
800.0
798.0
800.0
798.0
795.0
797.0
797.0
795.0
794.0
796.0
798.0
798.0
798.0
797.0
794.0
792.0
793.0
793.0
798.0
799.0
802.0
802.0
805.0
802.0
801.0
802.0
801.0
802.0
804.0
811.0
815.0
820.0
818.0
819.0
819.0
819.0
819.0
820.0
823.0
822.0
825.0
831.0
833.0
833.0
836.0
834.0
831.0
827.0
828.0
828.0
828.0
821.0
820.0
820.0
820.0
820.0
814.0
809.0
806.0
801.0
795.0
790.0
787.0
783.0
782.0
778.0
778.0
783.0
790.0
792.0
797.0
797.0
792.0
788.0
784.0
781.0
780.0
777.0
777.0
783.0
789.0
798.0
815.0
840.0
874.0
927.0
992.0
1071.0
1150.0
1232.0
1320.0
1398.0
1462.0
1498.0
1510.0
1487.0
1421.0
1304.0
1176.0
1048.0
920.0
792.0
708.0
742.0
795.0
840.0
864.0
864.0
851.0
832.0
809.0
797.0
790.0
788.0
792.0
796.0
794.0
794.0
793.0
791.0
787.0
783.0
784.0
786.0
787.0
789.0
789.0
792.0
796.0
801.0
800.0
797.0
800.0
798.0
798.0
796.0
796.0
798.0
801.0
804.0
808.0
810.0
815.0
817.0
817.0
818.0
815.0
818.0
821.0
822.0
829.0
828.0
829.0
830.0
837.0
844.0
845.0
848.0
853.0
857.0
859.0
863.0
865.0
873.0
877.0
889.0
893.0
898.0
903.0
902.0
906.0
909.0
918.0
925.0
931.0
935.0
940.0
943.0
942.0
945.0
946.0
947.0
948.0
944.0
944.0
939.0
937.0
935.0
932.0
925.0
922.0
912.0
902.0
887.0
879.0
867.0
861.0
850.0
845.0
835.0
831.0
824.0
819.0
814.0
805.0
794.0
788.0
785.0
785.0
785.0
783.0
787.0
789.0
790.0
790.0
790.0
786.0
780.0
778.0
775.0
775.0
773.0
772.0
778.0
781.0
781.0
782.0
784.0
784.0
784.0
782.0
779.0
781.0
778.0
779.0
783.0
784.0
787.0
788.0
783.0
785.0
779.0
775.0
776.0
778.0
779.0
781.0
785.0
785.0
791.0
792.0
792.0
791.0
786.0
782.0
777.0
775.0
773.0
774.0
776.0
778.0
780.0
785.0
783.0
782.0
780.0
778.0
772.0
773.0
767.0
767.0
772.0
776.0
775.0
779.0
778.0
770.0
771.0
772.0
771.0
771.0
769.0
768.0
771.0
769.0
771.0
774.0
773.0
772.0
771.0
770.0
770.0
768.0
764.0
765.0
765.0
771.0
777.0
781.0
779.0
778.0
778.0
781.0
778.0
781.0
784.0
783.0
784.0
789.0
788.0
790.0
793.0
797.0
796.0
796.0
798.0
800.0
804.0
805.0
809.0
808.0
810.0
812.0
810.0
804.0
796.0
792.0
788.0
790.0
792.0
792.0
793.0
790.0
788.0
784.0
776.0
775.0
766.0
760.0
756.0
754.0
758.0
760.0
756.0
761.0
760.0
763.0
767.0
770.0
771.0
769.0
765.0
763.0
759.0
760.0
764.0
772.0
789.0
813.0
845.0
893.0
960.0
1033.0
1119.0
1211.0
1307.0
1391.0
1454.0
1487.0
1475.0
1417.0
1301.0
1173.0
1045.0
917.0
789.0
661.0
681.0
737.0
787.0
822.0
830.0
827.0
815.0
797.0
783.0
770.0
765.0
767.0
767.0
769.0
771.0
771.0
772.0
774.0
774.0
771.0
771.0
774.0
774.0
774.0
774.0
776.0
776.0
780.0
779.0
785.0
786.0
787.0
786.0
790.0
788.0
791.0
792.0
793.0
798.0
802.0
805.0
808.0
811.0
813.0
814.0
816.0
814.0
819.0
821.0
825.0
830.0
833.0
836.0
844.0
850.0
848.0
859.0
856.0
864.0
867.0
870.0
875.0
881.0
891.0
895.0
902.0
909.0
912.0
914.0
919.0
922.0
923.0
928.0
932.0
933.0
936.0
935.0
935.0
932.0
931.0
929.0
925.0
918.0
913.0
901.0
894.0
891.0
885.0
879.0
873.0
864.0
853.0
844.0
835.0
825.0
815.0
807.0
803.0
801.0
797.0
799.0
798.0
796.0
795.0
794.0
793.0
792.0
789.0
789.0
789.0
789.0
788.0
785.0
788.0
783.0
788.0
786.0
785.0
787.0
788.0
783.0
790.0
790.0
796.0
798.0
802.0
801.0
802.0
798.0
795.0
793.0
796.0
794.0
797.0
801.0
799.0
801.0
799.0
800.0
800.0
803.0
800.0
801.0
799.0
798.0
796.0
798.0
800.0
799.0
804.0
806.0
805.0
801.0
798.0
793.0
795.0
795.0
797.0
797.0
799.0
801.0
799.0
797.0
797.0
798.0
794.0
791.0
788.0
789.0
786.0
787.0
791.0
792.0
795.0
794.0
795.0
795.0
791.0
790.0
785.0
783.0
787.0
788.0
792.0
793.0
794.0
794.0
796.0
795.0
793.0
792.0
786.0
785.0
783.0
788.0
791.0
794.0
795.0
794.0
794.0
796.0
794.0
793.0
794.0
796.0
801.0
809.0
811.0
822.0
824.0
826.0
826.0
819.0
819.0
817.0
814.0
818.0
818.0
826.0
834.0
836.0
840.0
842.0
836.0
832.0
827.0
825.0
822.0
819.0
820.0
820.0
822.0
822.0
820.0
815.0
806.0
799.0
792.0
793.0
785.0
783.0
783.0
786.0
791.0
794.0
796.0
795.0
793.0
792.0
790.0
791.0
791.0
791.0
791.0
793.0
796.0
802.0
812.0
830.0
861.0
909.0
975.0
1054.0
1144.0
1243.0
1340.0
1424.0
1485.0
1518.0
1514.0
1466.0
1358.0
1230.0
1102.0
974.0
846.0
718.0
743.0
798.0
845.0
869.0
865.0
855.0
834.0
815.0
803.0
799.0
797.0
797.0
800.0
802.0
799.0
805.0
808.0
808.0
811.0
807.0
805.0
808.0
808.0
807.0
806.0
806.0
811.0
810.0
817.0
818.0
819.0
822.0
820.0
820.0
821.0
822.0
827.0
828.0
830.0
835.0
842.0
843.0
846.0
845.0
847.0
846.0
849.0
854.0
859.0
864.0
870.0
875.0
883.0
890.0
893.0
896.0
899.0
902.0
905.0
911.0
921.0
930.0
941.0
949.0
957.0
957.0
957.0
956.0
957.0
957.0
957.0
961.0
962.0
965.0
970.0
970.0
966.0
961.0
956.0
944.0
930.0
918.0
911.0
897.0
887.0
881.0
874.0
868.0
865.0
857.0
848.0
843.0
833.0
831.0
827.0
822.0
819.0
817.0
817.0
815.0
817.0
812.0
811.0
811.0
808.0
806.0
802.0
803.0
802.0
803.0
806.0
808.0
814.0
813.0
813.0
809.0
809.0
806.0
805.0
805.0
805.0
810.0
812.0
814.0
815.0
814.0
816.0
817.0
813.0
811.0
808.0
810.0
810.0
812.0
813.0
818.0
821.0
821.0
822.0
820.0
816.0
812.0
810.0
809.0
810.0
810.0
812.0
812.0
814.0
815.0
814.0
811.0
810.0
806.0
806.0
805.0
804.0
803.0
810.0
812.0
813.0
812.0
808.0
806.0
803.0
797.0
797.0
797.0
795.0
799.0
797.0
800.0
806.0
808.0
808.0
808.0
804.0
800.0
800.0
798.0
796.0
794.0
800.0
802.0
804.0
803.0
805.0
802.0
802.0
803.0
804.0
801.0
800.0
804.0
807.0
815.0
823.0
826.0
824.0
825.0
818.0
819.0
819.0
819.0
820.0
823.0
827.0
830.0
838.0
843.0
841.0
845.0
843.0
838.0
836.0
832.0
829.0
830.0
831.0
834.0
834.0
836.0
832.0
827.0
817.0
812.0
805.0
796.0
793.0
790.0
791.0
792.0
798.0
797.0
796.0
793.0
788.0
790.0
787.0
784.0
782.0
788.0
790.0
792.0
796.0
794.0
795.0
793.0
790.0
794.0
804.0
820.0
848.0
885.0
936.0
997.0
1069.0
1145.0
1225.0
1304.0
1378.0
1438.0
1479.0
1495.0
1490.0
1456.0
1383.0
1262.0
1134.0
1006.0
878.0
750.0
724.0
766.0
821.0
859.0
874.0
870.0
850.0
828.0
811.0
801.0
798.0
801.0
803.0
804.0
804.0
800.0
801.0
799.0
801.0
803.0
809.0
807.0
808.0
810.0
806.0
805.0
808.0
804.0
808.0
811.0
812.0
815.0
819.0
820.0
820.0
818.0
821.0
820.0
820.0
822.0
828.0
830.0
837.0
841.0
843.0
845.0
846.0
849.0
851.0
854.0
856.0
860.0
862.0
865.0
871.0
877.0
889.0
899.0
904.0
910.0
915.0
919.0
920.0
920.0
922.0
927.0
931.0
939.0
946.0
953.0
959.0
962.0
964.0
963.0
960.0
960.0
955.0
955.0
954.0
948.0
946.0
937.0
928.0
916.0
906.0
895.0
886.0
877.0
869.0
862.0
854.0
845.0
842.0
836.0
830.0
823.0
815.0
808.0
805.0
798.0
798.0
797.0
799.0
800.0
800.0
803.0
802.0
799.0
796.0
792.0
787.0
785.0
784.0
789.0
790.0
790.0
792.0
793.0
793.0
793.0
794.0
793.0
793.0
794.0
796.0
799.0
801.0
801.0
802.0
797.0
796.0
795.0
797.0
798.0
798.0
797.0
795.0
795.0
795.0
798.0
801.0
803.0
803.0
798.0
795.0
797.0
792.0
789.0
788.0
792.0
794.0
796.0
795.0
793.0
796.0
794.0
793.0
791.0
789.0
785.0
783.0
783.0
784.0
784.0
787.0
788.0
787.0
787.0
784.0
785.0
785.0
783.0
778.0
780.0
783.0
783.0
787.0
786.0
781.0
781.0
776.0
774.0
779.0
778.0
777.0
780.0
780.0
782.0
781.0
786.0
789.0
790.0
788.0
785.0
788.0
789.0
787.0
791.0
794.0
798.0
804.0
803.0
803.0
806.0
806.0
806.0
807.0
809.0
806.0
809.0
810.0
807.0
807.0
808.0
803.0
803.0
802.0
801.0
798.0
797.0
793.0
793.0
790.0
787.0
785.0
780.0
772.0
768.0
764.0
763.0
764.0
766.0
766.0
768.0
769.0
772.0
771.0
773.0
769.0
770.0
769.0
767.0
766.0
761.0
763.0
770.0
786.0
802.0
824.0
862.0
909.0
969.0
1042.0
1124.0
1211.0
1303.0
1388.0
1455.0
1491.0
1486.0
1437.0
1325.0
1197.0
1069.0
941.0
813.0
688.0
713.0
763.0
810.0
842.0
848.0
843.0
824.0
806.0
790.0
781.0
779.0
778.0
778.0
780.0
781.0
779.0
780.0
783.0
785.0
785.0
784.0
784.0
784.0
786.0
783.0
785.0
788.0
793.0
793.0
800.0
800.0
802.0
804.0
802.0
799.0
799.0
800.0
802.0
806.0
813.0
817.0
823.0
824.0
827.0
827.0
827.0
827.0
828.0
831.0
834.0
839.0
844.0
847.0
852.0
858.0
861.0
868.0
871.0
876.0
882.0
886.0
893.0
899.0
906.0
913.0
920.0
922.0
927.0
928.0
932.0
930.0
930.0
930.0
933.0
933.0
935.0
938.0
936.0
934.0
930.0
923.0
919.0
912.0
904.0
894.0
884.0
877.0
868.0
857.0
855.0
845.0
838.0
826.0
821.0
811.0
808.0
799.0
795.0
793.0
794.0
790.0
790.0
787.0
787.0
782.0
777.0
772.0
770.0
770.0
770.0
769.0
771.0
772.0
776.0
779.0
777.0
777.0
775.0
771.0
771.0
771.0
772.0
771.0
780.0
780.0
780.0
780.0
780.0
780.0
777.0
776.0
775.0
775.0
776.0
777.0
781.0
781.0
784.0
785.0
784.0
783.0
782.0
778.0
775.0
774.0
776.0
777.0
780.0
779.0
780.0
778.0
776.0
777.0
774.0
776.0
773.0
768.0
768.0
771.0
774.0
773.0
773.0
774.0
776.0
772.0
771.0
770.0
768.0
767.0
767.0
767.0
770.0
769.0
771.0
770.0
771.0
772.0
771.0
771.0
770.0
768.0
763.0
764.0
765.0
770.0
772.0
772.0
773.0
769.0
769.0
766.0
766.0
762.0
765.0
764.0
769.0
778.0
781.0
787.0
786.0
789.0
787.0
788.0
786.0
791.0
792.0
789.0
796.0
797.0
800.0
804.0
807.0
807.0
809.0
809.0
813.0
813.0
811.0
809.0
812.0
813.0
812.0
813.0
813.0
812.0
812.0
808.0
805.0
800.0
798.0
791.0
787.0
782.0
778.0
778.0
776.0
775.0
778.0
779.0
778.0
780.0
780.0
782.0
780.0
781.0
779.0
782.0
785.0
780.0
778.0
777.0
778.0
777.0
780.0
790.0
806.0
830.0
864.0
912.0
977.0
1052.0
1139.0
1231.0
1321.0
1404.0
1470.0
1506.0
1516.0
1498.0
1450.0
1353.0
1225.0
1097.0
969.0
841.0
713.0
699.0
738.0
794.0
836.0
857.0
858.0
844.0
826.0
806.0
796.0
790.0
790.0
794.0
798.0
798.0
798.0
801.0
804.0
803.0
799.0
794.0
798.0
795.0
793.0
796.0
796.0
800.0
806.0
809.0
812.0
813.0
815.0
815.0
818.0
817.0
814.0
816.0
816.0
818.0
822.0
825.0
830.0
832.0
833.0
833.0
835.0
836.0
841.0
848.0
849.0
852.0
857.0
863.0
869.0
873.0
876.0
880.0
882.0
885.0
891.0
899.0
902.0
910.0
917.0
922.0
927.0
931.0
939.0
942.0
943.0
946.0
946.0
948.0
955.0
956.0
960.0
960.0
963.0
966.0
966.0
963.0
959.0
958.0
952.0
945.0
937.0
925.0
920.0
910.0
899.0
892.0
882.0
873.0
862.0
853.0
847.0
838.0
838.0
834.0
830.0
828.0
829.0
826.0
823.0
819.0
816.0
814.0
811.0
808.0
807.0
804.0
803.0
802.0
808.0
811.0
813.0
809.0
809.0
807.0
802.0
803.0
799.0
802.0
806.0
808.0
812.0
814.0
815.0
814.0
814.0
812.0
809.0
807.0
807.0
810.0
814.0
820.0
824.0
822.0
822.0
822.0
818.0
819.0
818.0
815.0
813.0
816.0
814.0
817.0
820.0
824.0
826.0
824.0
820.0
816.0
810.0
805.0
808.0
807.0
811.0
813.0
814.0
818.0
817.0
817.0
816.0
811.0
808.0
806.0
803.0
802.0
803.0
807.0
811.0
808.0
809.0
806.0
805.0
802.0
804.0
805.0
805.0
804.0
807.0
806.0
808.0
809.0
808.0
807.0
805.0
806.0
801.0
800.0
800.0
802.0
806.0
805.0
804.0
808.0
807.0
807.0
809.0
806.0
806.0
806.0
806.0
806.0
812.0
817.0
824.0
831.0
832.0
833.0
830.0
827.0
825.0
828.0
825.0
827.0
828.0
827.0
833.0
837.0
848.0
850.0
847.0
844.0
839.0
836.0
835.0
835.0
832.0
833.0
837.0
842.0
840.0
835.0
828.0
819.0
812.0
807.0
801.0
798.0
796.0
796.0
801.0
802.0
803.0
803.0
801.0
799.0
797.0
792.0
795.0
797.0
801.0
803.0
799.0
798.0
799.0
801.0
807.0
816.0
828.0
856.0
895.0
955.0
1032.0
1117.0
1215.0
1316.0
1405.0
1473.0
1515.0
1525.0
1501.0
1438.0
1318.0
1190.0
1062.0
934.0
806.0
704.0
739.0
797.0
852.0
881.0
886.0
871.0
848.0
823.0
810.0
806.0
808.0
812.0
811.0
814.0
813.0
809.0
807.0
807.0
806.0
806.0
808.0
812.0
815.0
817.0
820.0
816.0
820.0
820.0
821.0
819.0
819.0
821.0
823.0
828.0
828.0
828.0
830.0
832.0
835.0
833.0
833.0
836.0
839.0
840.0
847.0
848.0
848.0
855.0
860.0
860.0
861.0
864.0
867.0
874.0
881.0
888.0
892.0
900.0
907.0
912.0
918.0
920.0
924.0
931.0
936.0
942.0
944.0
952.0
959.0
965.0
975.0
978.0
982.0
982.0
982.0
979.0
972.0
966.0
958.0
956.0
953.0
952.0
945.0
937.0
928.0
919.0
907.0
894.0
879.0
873.0
863.0
854.0
852.0
846.0
843.0
843.0
837.0
834.0
830.0
825.0
821.0
818.0
811.0
812.0
811.0
811.0
811.0
817.0
817.0
812.0
808.0
808.0
807.0
803.0
802.0
805.0
806.0
809.0
810.0
813.0
813.0
814.0
812.0
810.0
811.0
813.0
812.0
816.0
816.0
815.0
815.0
816.0
818.0
818.0
818.0
818.0
818.0
816.0
816.0
815.0
816.0
822.0
823.0
822.0
820.0
817.0
816.0
815.0
812.0
812.0
811.0
811.0
813.0
816.0
814.0
815.0
815.0
816.0
816.0
812.0
810.0
807.0
805.0
807.0
808.0
808.0
811.0
812.0
811.0
810.0
809.0
809.0
808.0
803.0
804.0
806.0
807.0
804.0
807.0
807.0
811.0
810.0
809.0
809.0
807.0
806.0
802.0
801.0
799.0
803.0
807.0
810.0
813.0
811.0
812.0
812.0
803.0
806.0
802.0
802.0
803.0
807.0
813.0
819.0
823.0
828.0
831.0
830.0
828.0
827.0
823.0
820.0
825.0
832.0
837.0
840.0
846.0
849.0
847.0
847.0
844.0
842.0
840.0
834.0
837.0
834.0
834.0
834.0
829.0
829.0
822.0
817.0
808.0
804.0
802.0
795.0
794.0
792.0
794.0
795.0
798.0
798.0
798.0
797.0
795.0
796.0
797.0
798.0
800.0
799.0
801.0
800.0
798.0
802.0
803.0
809.0
815.0
834.0
860.0
902.0
955.0
1023.0
1106.0
1203.0
1302.0
1389.0
1466.0
1507.0
1522.0
1504.0
1445.0
1337.0
1209.0
1081.0
953.0
825.0
697.0
722.0
781.0
833.0
873.0
885.0
873.0
855.0
833.0
816.0
810.0
807.0
808.0
809.0
809.0
808.0
807.0
807.0
805.0
808.0
808.0
804.0
805.0
810.0
813.0
816.0
816.0
815.0
815.0
815.0
815.0
817.0
818.0
824.0
825.0
828.0
830.0
830.0
828.0
830.0
832.0
830.0
835.0
837.0
840.0
843.0
847.0
854.0
856.0
856.0
858.0
860.0
861.0
863.0
870.0
875.0
882.0
887.0
891.0
900.0
906.0
907.0
914.0
920.0
924.0
926.0
935.0
942.0
950.0
955.0
958.0
962.0
965.0
967.0
968.0
970.0
967.0
965.0
962.0
960.0
959.0
956.0
953.0
951.0
943.0
931.0
920.0
913.0
899.0
889.0
877.0
870.0
864.0
858.0
859.0
858.0
854.0
845.0
839.0
831.0
823.0
821.0
816.0
814.0
817.0
815.0
817.0
821.0
818.0
818.0
811.0
812.0
808.0
806.0
806.0
807.0
809.0
808.0
810.0
813.0
814.0
817.0
816.0
813.0
812.0
812.0
812.0
809.0
816.0
817.0
820.0
824.0
824.0
823.0
819.0
817.0
817.0
820.0
818.0
819.0
816.0
821.0
823.0
824.0
821.0
826.0
823.0
820.0
818.0
818.0
813.0
814.0
817.0
818.0
817.0
818.0
817.0
816.0
817.0
818.0
817.0
816.0
815.0
810.0
810.0
808.0
807.0
810.0
811.0
811.0
811.0
810.0
812.0
805.0
806.0
804.0
804.0
809.0
808.0
809.0
811.0
811.0
807.0
804.0
801.0
802.0
801.0
802.0
802.0
803.0
806.0
807.0
810.0
811.0
807.0
807.0
803.0
804.0
800.0
800.0
804.0
810.0
