# Simple Text Format
# Sampling Rate (Hz):= 360.00
# Resolution:= 12
# Labels:= ECG
828.0
824.0
823.0
822.0
819.0
823.0
822.0
821.0
829.0
829.0
829.0
826.0
823.0
823.0
821.0
823.0
822.0
818.0
820.0
817.0
816.0
818.0
815.0
817.0
815.0
814.0
813.0
810.0
811.0
813.0
813.0
815.0
815.0
814.0
813.0
814.0
813.0
811.0
811.0
809.0
811.0
812.0
811.0
814.0
813.0
815.0
816.0
815.0
813.0
812.0
812.0
808.0
803.0
808.0
807.0
810.0
813.0
814.0
812.0
813.0
811.0
809.0
806.0
804.0
804.0
808.0
807.0
809.0
812.0
814.0
813.0
813.0
811.0
809.0
807.0
807.0
808.0
805.0
809.0
808.0
810.0
811.0
812.0
812.0
808.0
807.0
804.0
803.0
803.0
805.0
807.0
809.0
812.0
809.0
813.0
814.0
812.0
812.0
810.0
807.0
808.0
805.0
806.0
809.0
810.0
813.0
809.0
813.0
809.0
807.0
805.0
804.0
805.0
805.0
807.0
810.0
810.0
812.0
810.0
810.0
807.0
806.0
806.0
807.0
805.0
806.0
810.0
810.0
813.0
814.0
813.0
809.0
811.0
810.0
809.0
806.0
804.0
804.0
806.0
809.0
810.0
811.0
809.0
812.0
811.0
809.0
806.0
806.0
803.0
804.0
805.0
807.0
810.0
811.0
811.0
811.0
809.0
809.0
806.0
801.0
804.0
805.0
807.0
808.0
811.0
815.0
815.0
812.0
809.0
809.0
809.0
807.0
806.0
807.0
806.0
807.0
811.0
814.0
813.0
814.0
810.0
807.0
808.0
807.0
805.0
804.0
807.0
808.0
810.0
813.0
815.0
812.0
811.0
809.0
807.0
809.0
806.0
807.0
808.0
811.0
813.0
820.0
820.0
823.0
823.0
823.0
823.0
819.0
820.0
821.0
826.0
827.0
833.0
840.0
843.0
841.0
846.0
845.0
843.0
842.0
838.0
837.0
840.0
836.0
836.0
838.0
835.0
833.0
830.0
828.0
821.0
816.0
813.0
810.0
808.0
809.0
813.0
813.0
812.0
814.0
810.0
807.0
805.0
805.0
802.0
802.0
803.0
801.0
801.0
804.0
806.0
804.0
802.0
801.0
802.0
797.0
796.0
796.0
800.0
803.0
806.0
812.0
812.0
811.0
808.0
807.0
809.0
814.0
821.0
836.0
854.0
879.0
906.0
937.0
958.0
968.0
960.0
926.0
878.0
821.0
768.0
714.0
675.0
651.0
645.0
659.0
679.0
704.0
723.0
740.0
757.0
769.0
780.0
789.0
801.0
808.0
812.0
815.0
811.0
809.0
810.0
809.0
809.0
812.0
815.0
813.0
819.0
820.0
823.0
823.0
825.0
825.0
824.0
823.0
819.0
824.0
820.0
822.0
824.0
827.0
831.0
834.0
836.0
834.0
833.0
832.0
832.0
831.0
827.0
829.0
831.0
834.0
838.0
840.0
839.0
839.0
839.0
838.0
842.0
842.0
842.0
842.0
848.0
848.0
852.0
854.0
853.0
860.0
858.0
857.0
859.0
857.0
855.0
857.0
863.0
867.0
872.0
876.0
882.0
883.0
888.0
889.0
891.0
897.0
897.0
900.0
905.0
910.0
915.0
922.0
927.0
930.0
934.0
935.0
936.0
936.0
937.0
936.0
940.0
949.0
948.0
953.0
952.0
950.0
948.0
947.0
945.0
942.0
941.0
936.0
937.0
932.0
928.0
926.0
921.0
912.0
906.0
893.0
888.0
880.0
877.0
872.0
865.0
860.0
859.0
858.0
852.0
850.0
845.0
840.0
835.0
832.0
829.0
827.0
828.0
828.0
826.0
828.0
826.0
826.0
824.0
819.0
820.0
817.0
819.0
819.0
819.0
820.0
821.0
827.0
824.0
824.0
822.0
819.0
817.0
818.0
818.0
819.0
820.0
823.0
823.0
826.0
824.0
823.0
821.0
816.0
818.0
816.0
817.0
814.0
818.0
821.0
821.0
823.0
823.0
821.0
822.0
818.0
826.0
822.0
822.0
820.0
821.0
823.0
824.0
824.0
822.0
820.0
821.0
818.0
818.0
815.0
815.0
814.0
814.0
815.0
819.0
818.0
817.0
815.0
815.0
812.0
811.0
812.0
809.0
806.0
812.0
813.0
817.0
819.0
817.0
817.0
816.0
815.0
812.0
812.0
809.0
810.0
811.0
812.0
812.0
815.0
813.0
809.0
814.0
808.0
804.0
805.0
806.0
807.0
810.0
812.0
811.0
814.0
810.0
809.0
806.0
805.0
806.0
806.0
803.0
803.0
806.0
808.0
811.0
815.0
813.0
814.0
813.0
809.0
806.0
807.0
806.0
804.0
807.0
809.0
806.0
814.0
813.0
813.0
813.0
810.0
809.0
810.0
809.0
808.0
809.0
808.0
810.0
810.0
811.0
810.0
810.0
807.0
807.0
806.0
804.0
803.0
805.0
811.0
814.0
816.0
816.0
815.0
813.0
809.0
809.0
806.0
804.0
808.0
806.0
807.0
809.0
815.0
814.0
815.0
814.0
812.0
809.0
810.0
807.0
807.0
812.0
811.0
812.0
816.0
816.0
815.0
814.0
808.0
807.0
811.0
810.0
810.0
813.0
812.0
817.0
821.0
817.0
818.0
815.0
815.0
809.0
812.0
808.0
811.0
813.0
815.0
817.0
819.0
819.0
818.0
820.0
819.0
816.0
814.0
815.0
816.0
817.0
819.0
821.0
821.0
820.0
820.0
819.0
823.0
818.0
814.0
816.0
816.0
820.0
820.0
822.0
829.0
829.0
831.0
827.0
829.0
829.0
831.0
831.0
834.0
831.0
836.0
840.0
846.0
849.0
851.0
854.0
854.0
854.0
851.0
852.0
852.0
854.0
849.0
850.0
848.0
846.0
846.0
844.0
840.0
837.0
838.0
833.0
831.0
827.0
827.0
823.0
824.0
823.0
822.0
819.0
816.0
817.0
814.0
815.0
812.0
816.0
815.0
816.0
818.0
817.0
820.0
818.0
818.0
817.0
815.0
813.0
812.0
816.0
818.0
819.0
820.0
821.0
821.0
820.0
822.0
824.0
824.0
826.0
828.0
839.0
854.0
876.0
903.0
929.0
962.0
987.0
1001.0
993.0
967.0
924.0
869.0
816.0
764.0
719.0
689.0
673.0
682.0
700.0
724.0
744.0
760.0
774.0
787.0
800.0
812.0
821.0
829.0
834.0
832.0
833.0
830.0
829.0
828.0
830.0
829.0
833.0
837.0
839.0
841.0
842.0
842.0
843.0
841.0
842.0
844.0
845.0
841.0
843.0
845.0
847.0
852.0
855.0
854.0
854.0
853.0
851.0
851.0
848.0
850.0
854.0
856.0
861.0
861.0
860.0
861.0
863.0
861.0
857.0
861.0
859.0
860.0
866.0
865.0
871.0
873.0
877.0
877.0
878.0
879.0
879.0
878.0
878.0
884.0
885.0
890.0
894.0
901.0
899.0
905.0
905.0
905.0
909.0
909.0
908.0
911.0
920.0
925.0
930.0
936.0
941.0
944.0
947.0
948.0
951.0
951.0
953.0
954.0
961.0
961.0
965.0
968.0
970.0
970.0
969.0
970.0
970.0
965.0
966.0
964.0
966.0
965.0
963.0
962.0
957.0
950.0
946.0
938.0
932.0
923.0
917.0
913.0
907.0
905.0
901.0
897.0
891.0
884.0
882.0
874.0
868.0
861.0
858.0
857.0
853.0
852.0
854.0
854.0
854.0
854.0
850.0
848.0
847.0
844.0
842.0
841.0
842.0
842.0
844.0
844.0
844.0
844.0
846.0
844.0
840.0
844.0
841.0
839.0
840.0
841.0
841.0
848.0
849.0
847.0
844.0
843.0
843.0
840.0
841.0
840.0
841.0
842.0
847.0
849.0
848.0
847.0
845.0
846.0
844.0
842.0
839.0
838.0
841.0
843.0
843.0
847.0
848.0
844.0
846.0
843.0
841.0
838.0
838.0
838.0
838.0
837.0
839.0
842.0
843.0
838.0
836.0
835.0
833.0
834.0
829.0
833.0
833.0
838.0
837.0
840.0
837.0
836.0
834.0
833.0
831.0
829.0
828.0
829.0
831.0
835.0
835.0
836.0
835.0
829.0
834.0
831.0
829.0
828.0
827.0
828.0
831.0
832.0
833.0
832.0
831.0
831.0
831.0
828.0
828.0
828.0
826.0
829.0
829.0
831.0
830.0
835.0
833.0
832.0
832.0
830.0
830.0
823.0
821.0
822.0
827.0
829.0
832.0
836.0
835.0
836.0
833.0
830.0
830.0
828.0
828.0
826.0
827.0
827.0
829.0
832.0
834.0
835.0
829.0
832.0
831.0
830.0
826.0
828.0
826.0
829.0
831.0
834.0
836.0
835.0
834.0
828.0
828.0
827.0
827.0
825.0
828.0
831.0
830.0
833.0
834.0
832.0
833.0
830.0
833.0
829.0
826.0
825.0
823.0
822.0
825.0
825.0
828.0
830.0
827.0
829.0
827.0
825.0
826.0
825.0
826.0
832.0
832.0
836.0
834.0
834.0
833.0
832.0
828.0
830.0
830.0
830.0
826.0
830.0
828.0
830.0
834.0
836.0
835.0
833.0
832.0
832.0
828.0
829.0
829.0
830.0
830.0
835.0
833.0
834.0
835.0
834.0
831.0
829.0
829.0
829.0
833.0
834.0
833.0
835.0
835.0
835.0
833.0
831.0
828.0
828.0
827.0
826.0
826.0
827.0
834.0
835.0
834.0
837.0
835.0
835.0
833.0
835.0
837.0
841.0
844.0
847.0
852.0
855.0
855.0
855.0
857.0
859.0
859.0
859.0
862.0
863.0
865.0
866.0
866.0
867.0
862.0
862.0
861.0
855.0
852.0
851.0
850.0
847.0
850.0
845.0
843.0
842.0
842.0
837.0
832.0
831.0
830.0
825.0
826.0
822.0
824.0
826.0
828.0
829.0
830.0
830.0
829.0
827.0
827.0
824.0
822.0
822.0
822.0
823.0
825.0
827.0
829.0
826.0
826.0
827.0
824.0
826.0
829.0
829.0
835.0
846.0
858.0
876.0
897.0
919.0
947.0
968.0
987.0
983.0
963.0
925.0
878.0
826.0
778.0
733.0
699.0
679.0
673.0
683.0
703.0
725.0
742.0
758.0
770.0
782.0
798.0
811.0
821.0
830.0
836.0
838.0
835.0
832.0
830.0
832.0
831.0
838.0
840.0
843.0
844.0
847.0
843.0
844.0
842.0
843.0
842.0
842.0
847.0
852.0
850.0
854.0
857.0
859.0
856.0
852.0
851.0
849.0
846.0
849.0
851.0
855.0
857.0
861.0
861.0
863.0
862.0
862.0
861.0
860.0
861.0
859.0
861.0
860.0
863.0
868.0
870.0
872.0
873.0
870.0
867.0
867.0
870.0
874.0
877.0
882.0
886.0
887.0
891.0
895.0
896.0
894.0
894.0
896.0
894.0
898.0
901.0
907.0
913.0
920.0
923.0
925.0
933.0
934.0
937.0
940.0
941.0
947.0
951.0
951.0
958.0
961.0
961.0
965.0
969.0
970.0
973.0
971.0
974.0
972.0
974.0
977.0
977.0
978.0
979.0
976.0
973.0
966.0
964.0
957.0
951.0
947.0
944.0
938.0
935.0
928.0
922.0
918.0
910.0
904.0
895.0
889.0
881.0
874.0
872.0
870.0
869.0
867.0
862.0
861.0
858.0
856.0
852.0
848.0
847.0
846.0
847.0
846.0
849.0
848.0
848.0
845.0
845.0
841.0
839.0
839.0
839.0
837.0
839.0
841.0
841.0
841.0
845.0
845.0
847.0
842.0
839.0
839.0
837.0
840.0
838.0
841.0
843.0
845.0
846.0
846.0
845.0
845.0
843.0
843.0
841.0
841.0
841.0
842.0
845.0
847.0
846.0
847.0
845.0
843.0
841.0
840.0
840.0
841.0
839.0
842.0
844.0
844.0
845.0
840.0
842.0
837.0
837.0
832.0
830.0
833.0
831.0
833.0
837.0
840.0
838.0
838.0
836.0
831.0
832.0
826.0
827.0
829.0
831.0
834.0
833.0
834.0
834.0
835.0
833.0
832.0
832.0
827.0
824.0
825.0
829.0
829.0
831.0
834.0
833.0
833.0
830.0
831.0
829.0
826.0
824.0
822.0
824.0
827.0
829.0
829.0
833.0
833.0
833.0
827.0
827.0
829.0
827.0
825.0
825.0
827.0
829.0
828.0
831.0
829.0
829.0
825.0
822.0
822.0
824.0
823.0
822.0
826.0
828.0
830.0
830.0
829.0
827.0
827.0
825.0
824.0
823.0
823.0
824.0
828.0
827.0
831.0
832.0
832.0
832.0
828.0
827.0
826.0
820.0
820.0
821.0
822.0
824.0
827.0
830.0
831.0
829.0
829.0
829.0
826.0
826.0
826.0
824.0
831.0
829.0
828.0
829.0
831.0
827.0
828.0
824.0
825.0
827.0
824.0
823.0
826.0
829.0
827.0
833.0
833.0
831.0
828.0
829.0
827.0
825.0
827.0
826.0
829.0
828.0
830.0
833.0
833.0
833.0
831.0
831.0
826.0
827.0
829.0
831.0
831.0
832.0
831.0
831.0
832.0
830.0
829.0
827.0
824.0
826.0
827.0
828.0
832.0
831.0
834.0
835.0
835.0
837.0
835.0
834.0
834.0
830.0
833.0
831.0
834.0
836.0
836.0
843.0
845.0
845.0
847.0
846.0
848.0
848.0
850.0
850.0
854.0
857.0
859.0
863.0
864.0
867.0
868.0
869.0
866.0
865.0
865.0
868.0
864.0
863.0
864.0
864.0
863.0
861.0
858.0
853.0
846.0
838.0
834.0
834.0
833.0
835.0
839.0
836.0
835.0
840.0
836.0
833.0
833.0
828.0
828.0
830.0
829.0
833.0
832.0
833.0
832.0
835.0
831.0
831.0
831.0
830.0
828.0
831.0
832.0
838.0
834.0
838.0
839.0
839.0
837.0
839.0
837.0
844.0
849.0
864.0
889.0
911.0
941.0
972.0
995.0
1012.0
1010.0
985.0
947.0
897.0
839.0
787.0
739.0
702.0
682.0
684.0
696.0
718.0
740.0
761.0
767.0
777.0
789.0
804.0
818.0
833.0
841.0
849.0
850.0
848.0
842.0
843.0
839.0
839.0
840.0
843.0
846.0
851.0
854.0
859.0
857.0
856.0
854.0
852.0
853.0
850.0
853.0
858.0
856.0
857.0
864.0
862.0
862.0
862.0
861.0
863.0
865.0
860.0
861.0
862.0
867.0
869.0
870.0
869.0
872.0
871.0
871.0
872.0
869.0
869.0
868.0
873.0
876.0
880.0
882.0
883.0
884.0
883.0
884.0
887.0
884.0
887.0
885.0
891.0
893.0
896.0
900.0
905.0
906.0
908.0
910.0
910.0
913.0
911.0
914.0
920.0
925.0
930.0
936.0
937.0
940.0
945.0
948.0
948.0
949.0
951.0
953.0
959.0
963.0
968.0
973.0
976.0
981.0
982.0
980.0
981.0
980.0
980.0
978.0
977.0
981.0
979.0
978.0
980.0
976.0
974.0
965.0
958.0
954.0
948.0
942.0
938.0
934.0
927.0
920.0
919.0
909.0
903.0
896.0
889.0
883.0
878.0
873.0
870.0
866.0
866.0
867.0
866.0
858.0
857.0
854.0
854.0
845.0
847.0
847.0
848.0
851.0
851.0
854.0
856.0
850.0
851.0
851.0
851.0
849.0
846.0
844.0
845.0
845.0
848.0
850.0
853.0
852.0
853.0
851.0
849.0
848.0
845.0
847.0
847.0
848.0
853.0
853.0
853.0
847.0
848.0
849.0
844.0
844.0
845.0
847.0
849.0
847.0
850.0
855.0
855.0
855.0
855.0
852.0
847.0
844.0
841.0
844.0
844.0
845.0
845.0
847.0
846.0
848.0
845.0
846.0
841.0
840.0
839.0
837.0
838.0
841.0
842.0
842.0
844.0
843.0
842.0
840.0
840.0
838.0
834.0
834.0
834.0
837.0
838.0
837.0
838.0
842.0
840.0
836.0
836.0
832.0
830.0
828.0
830.0
834.0
834.0
836.0
836.0
841.0
840.0
839.0
836.0
837.0
831.0
833.0
832.0
832.0
834.0
833.0
836.0
837.0
838.0
835.0
835.0
833.0
834.0
834.0
836.0
837.0
839.0
841.0
841.0
839.0
838.0
838.0
839.0
834.0
836.0
835.0
834.0
835.0
840.0
841.0
843.0
841.0
842.0
840.0
839.0
836.0
835.0
833.0
835.0
835.0
840.0
842.0
840.0
843.0
841.0
840.0
839.0
838.0
836.0
836.0
835.0
838.0
836.0
839.0
839.0
839.0
841.0
839.0
834.0
834.0
837.0
836.0
836.0
837.0
840.0
843.0
843.0
839.0
839.0
838.0
835.0
833.0
836.0
832.0
834.0
836.0
840.0
843.0
841.0
840.0
844.0
842.0
840.0
838.0
838.0
839.0
842.0
840.0
841.0
842.0
840.0
841.0
841.0
840.0
840.0
840.0
841.0
836.0
838.0
839.0
838.0
841.0
844.0
838.0
842.0
842.0
843.0
842.0
840.0
840.0
838.0
843.0
844.0
843.0
847.0
846.0
847.0
845.0
843.0
841.0
838.0
839.0
841.0
844.0
845.0
846.0
843.0
846.0
850.0
849.0
852.0
853.0
851.0
858.0
860.0
864.0
866.0
865.0
868.0
869.0
870.0
870.0
873.0
875.0
875.0
874.0
877.0
877.0
883.0
880.0
878.0
873.0
873.0
869.0
866.0
865.0
861.0
860.0
857.0
850.0
847.0
845.0
846.0
845.0
847.0
847.0
847.0
844.0
843.0
841.0
839.0
839.0
841.0
840.0
842.0
842.0
840.0
840.0
836.0
834.0
834.0
832.0
838.0
839.0
839.0
843.0
846.0
845.0
847.0
847.0
846.0
845.0
848.0
850.0
864.0
882.0
906.0
931.0
961.0
987.0
1004.0
1013.0
997.0
963.0
915.0
864.0
812.0
761.0
721.0
695.0
689.0
694.0
719.0
741.0
761.0
773.0
785.0
798.0
812.0
825.0
835.0
842.0
853.0
854.0
853.0
849.0
848.0
846.0
849.0
849.0
848.0
852.0
854.0
859.0
862.0
859.0
862.0
862.0
860.0
857.0
860.0
858.0
860.0
862.0
862.0
864.0
867.0
869.0
870.0
870.0
868.0
867.0
867.0
869.0
868.0
870.0
873.0
875.0
875.0
874.0
875.0
872.0
873.0
873.0
873.0
875.0
876.0
880.0
879.0
882.0
887.0
886.0
885.0
887.0
887.0
888.0
890.0
892.0
890.0
894.0
896.0
901.0
905.0
906.0
911.0
913.0
911.0
915.0
917.0
919.0
921.0
927.0
933.0
938.0
945.0
946.0
949.0
952.0
953.0
954.0
960.0
959.0
964.0
970.0
974.0
979.0
982.0
986.0
987.0
987.0
988.0
986.0
986.0
985.0
984.0
989.0
986.0
987.0
988.0
984.0
979.0
974.0
968.0
959.0
951.0
944.0
938.0
934.0
929.0
925.0
920.0
912.0
908.0
901.0
895.0
890.0
883.0
879.0
872.0
874.0
870.0
871.0
869.0
868.0
866.0
860.0
858.0
855.0
857.0
853.0
854.0
855.0
856.0
857.0
857.0
861.0
858.0
858.0
855.0
857.0
856.0
850.0
850.0
851.0
853.0
853.0
858.0
851.0
855.0
857.0
853.0
854.0
852.0
851.0
850.0
851.0
858.0
857.0
859.0
856.0
856.0
853.0
853.0
849.0
853.0
850.0
850.0
851.0
855.0
856.0
860.0
860.0
857.0
854.0
850.0
848.0
848.0
846.0
843.0
844.0
846.0
849.0
850.0
851.0
850.0
849.0
848.0
846.0
843.0
841.0
838.0
841.0
841.0
844.0
843.0
846.0
845.0
843.0
841.0
839.0
841.0
840.0
840.0
840.0
842.0
843.0
846.0
842.0
842.0
842.0
841.0
839.0
838.0
835.0
834.0
838.0
840.0
841.0
846.0
845.0
839.0
839.0
841.0
836.0
838.0
837.0
833.0
835.0
836.0
835.0
839.0
838.0
840.0
838.0
838.0
833.0
838.0
835.0
834.0
836.0
834.0
839.0
842.0
840.0
839.0
839.0
836.0
836.0
835.0
835.0
837.0
837.0
838.0
840.0
843.0
843.0
845.0
842.0
841.0
836.0
837.0
831.0
833.0
835.0
835.0
839.0
845.0
841.0
841.0
842.0
838.0
833.0
835.0
833.0
833.0
836.0
839.0
840.0
841.0
841.0
841.0
841.0
838.0
837.0
837.0
832.0
835.0
837.0
838.0
839.0
844.0
843.0
842.0
840.0
838.0
836.0
837.0
836.0
837.0
840.0
839.0
841.0
843.0
845.0
841.0
843.0
840.0
840.0
841.0
835.0
834.0
836.0
836.0
838.0
845.0
844.0
839.0
842.0
838.0
840.0
840.0
839.0
839.0
841.0
842.0
845.0
847.0
844.0
842.0
842.0
842.0
841.0
839.0
836.0
840.0
840.0
845.0
846.0
850.0
851.0
850.0
853.0
855.0
855.0
856.0
857.0
859.0
861.0
864.0
864.0
869.0
873.0
875.0
875.0
875.0
876.0
873.0
872.0
873.0
878.0
879.0
875.0
875.0
871.0
869.0
867.0
864.0
860.0
853.0
849.0
846.0
847.0
846.0
844.0
845.0
847.0
846.0
843.0
841.0
841.0
840.0
835.0
832.0
832.0
835.0
840.0
840.0
842.0
840.0
839.0
839.0
839.0
836.0
835.0
836.0
838.0
841.0
841.0
845.0
846.0
845.0
846.0
843.0
843.0
844.0
850.0
858.0
869.0
890.0
912.0
936.0
965.0
992.0
1012.0
1013.0
996.0
962.0
918.0
862.0
809.0
760.0
718.0
693.0
679.0
683.0
698.0
719.0
739.0
757.0
768.0
780.0
793.0
807.0
822.0
838.0
846.0
851.0
851.0
849.0
849.0
848.0
851.0
847.0
857.0
858.0
862.0
867.0
864.0
867.0
867.0
864.0
861.0
861.0
861.0
863.0
867.0
869.0
871.0
875.0
874.0
872.0
874.0
873.0
873.0
872.0
874.0
872.0
872.0
875.0
877.0
879.0
881.0
878.0
878.0
878.0
879.0
880.0
882.0
881.0
885.0
888.0
891.0
894.0
895.0
892.0
895.0
894.0
891.0
895.0
894.0
896.0
900.0
905.0
909.0
915.0
913.0
912.0
914.0
918.0
917.0
919.0
921.0
925.0
927.0
934.0
936.0
944.0
943.0
945.0
952.0
952.0
954.0
956.0
959.0
963.0
965.0
975.0
978.0
982.0
984.0
986.0
986.0
990.0
989.0
988.0
987.0
988.0
989.0
992.0
991.0
995.0
996.0
992.0
988.0
984.0
982.0
977.0
971.0
965.0
963.0
957.0
953.0
947.0
942.0
939.0
934.0
925.0
919.0
915.0
906.0
901.0
900.0
896.0
891.0
892.0
883.0
885.0
879.0
877.0
875.0
871.0
871.0
868.0
868.0
870.0
874.0
873.0
875.0
875.0
872.0
871.0
868.0
867.0
864.0
864.0
866.0
865.0
865.0
870.0
870.0
873.0
874.0
870.0
867.0
867.0
866.0
863.0
867.0
869.0
869.0
871.0
872.0
869.0
869.0
868.0
869.0
867.0
868.0
866.0
866.0
866.0
871.0
869.0
873.0
873.0
871.0
871.0
868.0
869.0
866.0
860.0
860.0
863.0
864.0
870.0
871.0
870.0
869.0
869.0
863.0
861.0
858.0
858.0
859.0
861.0
859.0
860.0
860.0
859.0
859.0
859.0
856.0
853.0
855.0
852.0
856.0
855.0
858.0
861.0
860.0
859.0
855.0
854.0
854.0
848.0
853.0
851.0
854.0
853.0
857.0
860.0
858.0
858.0
858.0
854.0
857.0
854.0
853.0
852.0
851.0
855.0
855.0
853.0
853.0
856.0
856.0
853.0
853.0
852.0
847.0
848.0
850.0
851.0
856.0
856.0
856.0
857.0
857.0
853.0
850.0
849.0
849.0
851.0
849.0
854.0
857.0
859.0
857.0
856.0
854.0
855.0
854.0
853.0
850.0
850.0
853.0
853.0
854.0
855.0
859.0
857.0
859.0
855.0
854.0
855.0
852.0
850.0
853.0
854.0
853.0
854.0
858.0
855.0
853.0
851.0
853.0
852.0
849.0
852.0
856.0
858.0
858.0
856.0
858.0
861.0
859.0
858.0
855.0
855.0
851.0
851.0
852.0
855.0
853.0
858.0
858.0
852.0
855.0
854.0
852.0
851.0
849.0
852.0
848.0
854.0
859.0
858.0
857.0
856.0
856.0
855.0
852.0
851.0
850.0
853.0
852.0
856.0
858.0
859.0
856.0
855.0
855.0
850.0
852.0
850.0
854.0
848.0
853.0
854.0
859.0
857.0
858.0
857.0
856.0
856.0
856.0
856.0
854.0
856.0
854.0
856.0
857.0
858.0
860.0
862.0
863.0
863.0
864.0
862.0
865.0
869.0
871.0
873.0
879.0
881.0
881.0
881.0
879.0
880.0
882.0
883.0
886.0
888.0
890.0
893.0
893.0
897.0
897.0
893.0
890.0
885.0
882.0
879.0
878.0
875.0
876.0
873.0
872.0
868.0
868.0
868.0
862.0
860.0
860.0
857.0
858.0
857.0
856.0
857.0
857.0
856.0
856.0
855.0
854.0
852.0
851.0
849.0
849.0
852.0
853.0
854.0
858.0
861.0
861.0
861.0
859.0
858.0
857.0
859.0
856.0
857.0
864.0
874.0
884.0
906.0
925.0
954.0
982.0
1007.0
1028.0
1030.0
1020.0
990.0
943.0
892.0
844.0
800.0
760.0
731.0
712.0
708.0
722.0
740.0
761.0
778.0
799.0
810.0
822.0
834.0
848.0
858.0
864.0
868.0
865.0
860.0
860.0
859.0
862.0
865.0
868.0
871.0
873.0
873.0
876.0
874.0
874.0
872.0
870.0
873.0
873.0
874.0
879.0
877.0
882.0
879.0
883.0
881.0
882.0
880.0
878.0
877.0
879.0
881.0
883.0
884.0
886.0
888.0
888.0
885.0
884.0
882.0
881.0
882.0
887.0
890.0
888.0
894.0
897.0
894.0
897.0
897.0
896.0
892.0
897.0
899.0
900.0
903.0
908.0
912.0
913.0
916.0
917.0
914.0
914.0
918.0
919.0
924.0
927.0
931.0
938.0
940.0
946.0
946.0
951.0
952.0
954.0
955.0
958.0
963.0
966.0
972.0
978.0
981.0
987.0
988.0
987.0
986.0
991.0
991.0
993.0
995.0
996.0
998.0
998.0
999.0
999.0
998.0
998.0
995.0
994.0
994.0
989.0
983.0
980.0
976.0
971.0
967.0
960.0
957.0
952.0
943.0
935.0
928.0
918.0
914.0
909.0
903.0
900.0
897.0
894.0
890.0
884.0
878.0
878.0
871.0
869.0
866.0
867.0
868.0
869.0
869.0
870.0
869.0
868.0
866.0
866.0
865.0
863.0
861.0
863.0
865.0
864.0
866.0
867.0
868.0
864.0
866.0
859.0
857.0
858.0
862.0
865.0
865.0
865.0
868.0
866.0
868.0
870.0
869.0
870.0
863.0
862.0
864.0
866.0
868.0
863.0
866.0
866.0
867.0
868.0
868.0
864.0
862.0
864.0
863.0
861.0
865.0
866.0
868.0
868.0
866.0
864.0
863.0
862.0
857.0
858.0
858.0
860.0
861.0
860.0
863.0
864.0
862.0
860.0
859.0
856.0
854.0
848.0
849.0
847.0
853.0
849.0
857.0
858.0
858.0
857.0
854.0
851.0
850.0
849.0
847.0
846.0
851.0
849.0
852.0
854.0
852.0
854.0
854.0
849.0
848.0
846.0
846.0
852.0
852.0
855.0
854.0
853.0
853.0
850.0
847.0
847.0
847.0
845.0
847.0
850.0
850.0
851.0
852.0
853.0
850.0
851.0
849.0
849.0
847.0
845.0
846.0
848.0
848.0
850.0
852.0
855.0
855.0
852.0
850.0
850.0
846.0
845.0
846.0
848.0
848.0
846.0
848.0
851.0
851.0
851.0
849.0
847.0
845.0
847.0
845.0
848.0
849.0
851.0
851.0
852.0
852.0
853.0
847.0
849.0
846.0
847.0
847.0
845.0
848.0
851.0
853.0
853.0
853.0
855.0
852.0
849.0
846.0
843.0
843.0
842.0
842.0
844.0
849.0
851.0
850.0
849.0
847.0
847.0
843.0
845.0
846.0
847.0
847.0
849.0
848.0
849.0
849.0
847.0
848.0
847.0
846.0
847.0
847.0
846.0
847.0
849.0
850.0
850.0
851.0
850.0
850.0
850.0
847.0
845.0
847.0
846.0
848.0
851.0
853.0
853.0
852.0
852.0
851.0
853.0
854.0
855.0
856.0
860.0
861.0
864.0
868.0
869.0
871.0
870.0
873.0
875.0
882.0
880.0
882.0
884.0
881.0
888.0
885.0
880.0
877.0
874.0
871.0
869.0
866.0
863.0
860.0
859.0
853.0
854.0
853.0
854.0
851.0
853.0
850.0
847.0
845.0
841.0
842.0
840.0
843.0
845.0
844.0
843.0
844.0
843.0
843.0
842.0
842.0
840.0
842.0
840.0
843.0
842.0
845.0
850.0
850.0
848.0
849.0
848.0
848.0
851.0
861.0
873.0
893.0
917.0
945.0
973.0
995.0
1008.0
1002.0
977.0
930.0
876.0
816.0
764.0
721.0
689.0
672.0
678.0
690.0
719.0
740.0
757.0
770.0
783.0
793.0
811.0
825.0
837.0
847.0
856.0
857.0
854.0
854.0
854.0
852.0
850.0
853.0
857.0
859.0
864.0
867.0
868.0
868.0
870.0
867.0
867.0
865.0
863.0
866.0
867.0
870.0
872.0
874.0
875.0
877.0
876.0
873.0
873.0
875.0
874.0
872.0
875.0
877.0
879.0
883.0
889.0
888.0
887.0
886.0
885.0
886.0
885.0
886.0
887.0
892.0
893.0
894.0
899.0
899.0
901.0
902.0
901.0
900.0
897.0
899.0
904.0
904.0
908.0
914.0
919.0
922.0
924.0
925.0
931.0
929.0
932.0
935.0
939.0
941.0
945.0
953.0
957.0
960.0
964.0
967.0
968.0
968.0
970.0
973.0
975.0
982.0
989.0
992.0
995.0
997.0
996.0
997.0
997.0
998.0
998.0
998.0
999.0
1001.0
1001.0
1003.0
999.0
997.0
992.0
987.0
980.0
972.0
967.0
965.0
959.0
957.0
950.0
947.0
942.0
937.0
929.0
923.0
915.0
908.0
903.0
899.0
894.0
892.0
885.0
884.0
883.0
881.0
879.0
877.0
874.0
871.0
870.0
869.0
871.0
874.0
873.0
876.0
871.0
874.0
873.0
871.0
867.0
866.0
864.0
863.0
865.0
867.0
869.0
868.0
875.0
872.0
872.0
869.0
869.0
866.0
866.0
867.0
866.0
868.0
869.0
872.0
871.0
870.0
873.0
870.0
869.0
866.0
866.0
868.0
870.0
869.0
873.0
876.0
875.0
874.0
867.0
866.0
864.0
860.0
864.0
863.0
863.0
864.0
868.0
870.0
870.0
870.0
866.0
865.0
867.0
863.0
862.0
862.0
862.0
861.0
861.0
863.0
862.0
862.0
860.0
860.0
858.0
856.0
856.0
854.0
855.0
857.0
858.0
860.0
859.0
859.0
859.0
858.0
857.0
853.0
852.0
852.0
854.0
854.0
856.0
856.0
858.0
860.0
860.0
858.0
857.0
852.0
849.0
851.0
851.0
853.0
852.0
856.0
858.0
