# Simple Text Format
# Sampling Rate (Hz):= 360.00
# Resolution:= 12
# Labels:= ECG
878.0
877.0
877.0
875.0
867.0
862.0
858.0
854.0
852.0
852.0
848.0
848.0
850.0
851.0
849.0
848.0
848.0
845.0
842.0
839.0
838.0
840.0
843.0
844.0
842.0
846.0
844.0
842.0
840.0
838.0
840.0
838.0
839.0
841.0
842.0
844.0
846.0
848.0
848.0
849.0
851.0
851.0
854.0
865.0
876.0
897.0
917.0
942.0
972.0
998.0
1009.0
1006.0
982.0
941.0
896.0
843.0
795.0
752.0
715.0
691.0
686.0
695.0
717.0
741.0
756.0
768.0
779.0
789.0
803.0
821.0
834.0
845.0
852.0
856.0
856.0
855.0
852.0
851.0
850.0
852.0
851.0
856.0
859.0
861.0
864.0
862.0
862.0
863.0
857.0
861.0
858.0
857.0
859.0
864.0
862.0
864.0
865.0
868.0
871.0
871.0
869.0
868.0
869.0
864.0
866.0
866.0
869.0
869.0
870.0
874.0
873.0
875.0
874.0
875.0
874.0
874.0
871.0
878.0
878.0
878.0
883.0
883.0
883.0
887.0
888.0
885.0
886.0
884.0
888.0
891.0
895.0
898.0
903.0
906.0
908.0
906.0
908.0
912.0
911.0
912.0
913.0
916.0
922.0
928.0
934.0
938.0
942.0
944.0
949.0
948.0
949.0
954.0
957.0
960.0
967.0
968.0
971.0
976.0
973.0
974.0
974.0
975.0
972.0
978.0
978.0
978.0
981.0
979.0
979.0
975.0
972.0
966.0
961.0
955.0
947.0
941.0
936.0
932.0
928.0
921.0
920.0
913.0
908.0
903.0
897.0
891.0
885.0
880.0
875.0
873.0
872.0
872.0
871.0
870.0
869.0
867.0
863.0
860.0
860.0
859.0
856.0
854.0
854.0
858.0
858.0
857.0
858.0
858.0
857.0
855.0
851.0
849.0
846.0
848.0
848.0
852.0
855.0
854.0
855.0
858.0
854.0
854.0
852.0
852.0
850.0
849.0
856.0
855.0
856.0
858.0
859.0
857.0
853.0
852.0
851.0
852.0
851.0
851.0
852.0
854.0
854.0
855.0
853.0
852.0
853.0
849.0
846.0
845.0
848.0
846.0
845.0
846.0
847.0
845.0
847.0
844.0
843.0
844.0
841.0
840.0
837.0
836.0
837.0
837.0
840.0
840.0
844.0
843.0
842.0
838.0
832.0
831.0
830.0
830.0
836.0
837.0
838.0
840.0
840.0
839.0
836.0
834.0
830.0
834.0
832.0
834.0
838.0
837.0
837.0
839.0
835.0
838.0
836.0
829.0
829.0
826.0
829.0
831.0
834.0
836.0
835.0
838.0
836.0
838.0
835.0
833.0
834.0
832.0
830.0
827.0
831.0
831.0
831.0
834.0
836.0
833.0
832.0
832.0
829.0
831.0
831.0
832.0
835.0
838.0
838.0
838.0
836.0
837.0
836.0
832.0
830.0
830.0
832.0
828.0
835.0
835.0
836.0
838.0
838.0
840.0
838.0
836.0
834.0
832.0
831.0
830.0
831.0
833.0
833.0
836.0
834.0
837.0
835.0
832.0
829.0
828.0
830.0
831.0
831.0
834.0
834.0
836.0
835.0
836.0
834.0
835.0
832.0
833.0
832.0
833.0
835.0
840.0
839.0
840.0
839.0
838.0
839.0
834.0
831.0
830.0
829.0
833.0
831.0
834.0
836.0
840.0
842.0
842.0
839.0
838.0
839.0
835.0
834.0
836.0
837.0
838.0
841.0
841.0
840.0
838.0
842.0
842.0
842.0
840.0
844.0
846.0
850.0
853.0
857.0
859.0
858.0
859.0
858.0
857.0
857.0
860.0
865.0
870.0
871.0
875.0
877.0
878.0
877.0
872.0
871.0
866.0
862.0
860.0
859.0
859.0
855.0
855.0
855.0
850.0
847.0
844.0
841.0
842.0
836.0
834.0
836.0
839.0
835.0
837.0
839.0
836.0
834.0
836.0
835.0
832.0
828.0
830.0
830.0
831.0
834.0
836.0
839.0
841.0
839.0
841.0
840.0
838.0
835.0
836.0
837.0
839.0
840.0
849.0
858.0
869.0
887.0
906.0
928.0
954.0
982.0
1003.0
1009.0
1000.0
973.0
928.0
876.0
824.0
774.0
734.0
704.0
688.0
690.0
708.0
728.0
750.0
768.0
783.0
797.0
811.0
823.0
835.0
839.0
845.0
848.0
847.0
843.0
843.0
845.0
846.0
849.0
851.0
856.0
856.0
856.0
855.0
855.0
853.0
853.0
854.0
858.0
857.0
859.0
863.0
862.0
865.0
862.0
863.0
863.0
860.0
861.0
863.0
867.0
868.0
870.0
871.0
873.0
870.0
870.0
872.0
870.0
869.0
871.0
872.0
874.0
878.0
880.0
882.0
884.0
885.0
883.0
886.0
886.0
885.0
885.0
888.0
891.0
890.0
898.0
902.0
903.0
906.0
907.0
907.0
911.0
911.0
911.0
919.0
920.0
923.0
928.0
931.0
934.0
936.0
938.0
939.0
941.0
944.0
947.0
951.0
950.0
958.0
962.0
965.0
967.0
970.0
973.0
971.0
972.0
971.0
972.0
974.0
973.0
975.0
976.0
977.0
972.0
970.0
969.0
962.0
956.0
950.0
944.0
940.0
937.0
936.0
934.0
929.0
919.0
915.0
910.0
901.0
896.0
888.0
878.0
875.0
878.0
874.0
872.0
877.0
873.0
870.0
867.0
859.0
860.0
855.0
854.0
855.0
854.0
856.0
857.0
857.0
856.0
858.0
856.0
853.0
851.0
851.0
849.0
851.0
848.0
853.0
853.0
855.0
854.0
856.0
853.0
851.0
849.0
851.0
850.0
848.0
851.0
853.0
856.0
857.0
857.0
858.0
858.0
853.0
854.0
853.0
850.0
851.0
854.0
855.0
858.0
858.0
860.0
857.0
854.0
854.0
850.0
849.0
850.0
847.0
849.0
852.0
851.0
852.0
852.0
851.0
853.0
848.0
848.0
847.0
844.0
844.0
843.0
847.0
846.0
848.0
849.0
848.0
846.0
845.0
843.0
842.0
841.0
841.0
840.0
843.0
846.0
845.0
842.0
845.0
846.0
842.0
841.0
840.0
835.0
836.0
835.0
838.0
840.0
842.0
841.0
838.0
838.0
841.0
838.0
839.0
835.0
836.0
836.0
838.0
840.0
841.0
839.0
840.0
842.0
839.0
838.0
839.0
837.0
835.0
839.0
839.0
842.0
841.0
842.0
837.0
842.0
838.0
837.0
836.0
832.0
833.0
834.0
839.0
840.0
844.0
840.0
842.0
839.0
837.0
836.0
838.0
834.0
835.0
830.0
838.0
841.0
840.0
840.0
837.0
836.0
836.0
837.0
838.0
835.0
837.0
838.0
836.0
841.0
844.0
839.0
836.0
836.0
835.0
832.0
834.0
832.0
838.0
839.0
837.0
843.0
844.0
845.0
843.0
843.0
839.0
838.0
836.0
834.0
838.0
838.0
839.0
836.0
840.0
841.0
840.0
840.0
840.0
840.0
837.0
839.0
839.0
842.0
842.0
843.0
842.0
842.0
840.0
838.0
837.0
834.0
836.0
836.0
839.0
841.0
843.0
841.0
844.0
843.0
842.0
842.0
837.0
838.0
841.0
836.0
835.0
839.0
840.0
841.0
840.0
842.0
845.0
846.0
842.0
842.0
843.0
845.0
849.0
849.0
855.0
858.0
863.0
864.0
862.0
860.0
862.0
863.0
866.0
869.0
870.0
871.0
870.0
873.0
876.0
875.0
871.0
869.0
865.0
861.0
861.0
855.0
855.0
855.0
857.0
853.0
850.0
848.0
845.0
844.0
839.0
839.0
838.0
835.0
840.0
839.0
838.0
837.0
837.0
836.0
837.0
836.0
835.0
835.0
835.0
833.0
834.0
833.0
836.0
835.0
841.0
835.0
835.0
835.0
835.0
833.0
838.0
839.0
839.0
843.0
848.0
853.0
867.0
884.0
908.0
931.0
955.0
977.0
998.0
1005.0
994.0
970.0
931.0
885.0
838.0
791.0
750.0
715.0
697.0
694.0
706.0
722.0
744.0
760.0
777.0
787.0
803.0
813.0
824.0
835.0
843.0
845.0
846.0
844.0
842.0
844.0
846.0
850.0
852.0
852.0
852.0
854.0
852.0
851.0
850.0
852.0
851.0
853.0
854.0
858.0
862.0
860.0
862.0
862.0
859.0
860.0
860.0
860.0
860.0
855.0
859.0
863.0
865.0
865.0
864.0
865.0
864.0
861.0
860.0
862.0
863.0
866.0
866.0
871.0
869.0
872.0
871.0
869.0
874.0
869.0
871.0
865.0
869.0
870.0
873.0
879.0
882.0
884.0
886.0
887.0
888.0
889.0
891.0
889.0
893.0
894.0
899.0
903.0
907.0
910.0
910.0
914.0
916.0
914.0
919.0
922.0
924.0
930.0
933.0
941.0
945.0
947.0
947.0
952.0
953.0
953.0
955.0
958.0
958.0
961.0
967.0
970.0
971.0
970.0
970.0
970.0
970.0
970.0
968.0
967.0
966.0
960.0
961.0
957.0
953.0
947.0
940.0
933.0
927.0
920.0
912.0
906.0
898.0
897.0
894.0
891.0
889.0
883.0
881.0
876.0
870.0
865.0
859.0
854.0
853.0
849.0
849.0
851.0
851.0
852.0
850.0
851.0
847.0
844.0
844.0
842.0
843.0
845.0
845.0
846.0
850.0
847.0
847.0
841.0
841.0
842.0
841.0
839.0
839.0
841.0
844.0
844.0
850.0
848.0
845.0
849.0
843.0
844.0
840.0
839.0
841.0
841.0
844.0
845.0
848.0
846.0
847.0
849.0
851.0
847.0
843.0
840.0
841.0
842.0
848.0
847.0
849.0
846.0
844.0
843.0
842.0
839.0
841.0
839.0
840.0
840.0
842.0
844.0
844.0
843.0
842.0
838.0
838.0
839.0
836.0
832.0
831.0
834.0
835.0
835.0
835.0
838.0
836.0
835.0
836.0
833.0
834.0
830.0
834.0
833.0
835.0
832.0
834.0
833.0
833.0
831.0
832.0
830.0
827.0
827.0
825.0
828.0
831.0
832.0
836.0
834.0
831.0
832.0
829.0
829.0
830.0
826.0
825.0
827.0
832.0
832.0
835.0
834.0
832.0
832.0
832.0
831.0
831.0
829.0
828.0
825.0
827.0
829.0
831.0
830.0
833.0
833.0
831.0
834.0
832.0
830.0
827.0
829.0
831.0
833.0
833.0
836.0
836.0
834.0
833.0
829.0
828.0
825.0
827.0
831.0
833.0
833.0
835.0
836.0
836.0
835.0
834.0
831.0
831.0
828.0
830.0
831.0
831.0
835.0
836.0
836.0
836.0
833.0
832.0
831.0
832.0
829.0
827.0
828.0
832.0
833.0
837.0
836.0
835.0
833.0
831.0
832.0
831.0
827.0
832.0
828.0
830.0
832.0
834.0
838.0
835.0
836.0
831.0
829.0
830.0
830.0
828.0
830.0
833.0
832.0
838.0
836.0
836.0
834.0
835.0
834.0
831.0
829.0
830.0
832.0
830.0
831.0
833.0
836.0
832.0
834.0
830.0
836.0
833.0
831.0
831.0
831.0
836.0
837.0
842.0
842.0
844.0
842.0
844.0
844.0
845.0
847.0
851.0
853.0
853.0
859.0
862.0
869.0
871.0
872.0
872.0
871.0
873.0
873.0
870.0
868.0
864.0
863.0
863.0
857.0
861.0
860.0
856.0
854.0
853.0
846.0
843.0
841.0
840.0
843.0
843.0
842.0
840.0
840.0
836.0
834.0
832.0
829.0
828.0
828.0
830.0
832.0
833.0
836.0
837.0
837.0
834.0
834.0
832.0
829.0
830.0
830.0
830.0
833.0
837.0
836.0
835.0
835.0
838.0
841.0
848.0
857.0
871.0
893.0
920.0
946.0
978.0
999.0
1003.0
987.0
950.0
899.0
840.0
783.0
733.0
693.0
670.0
659.0
667.0
691.0
712.0
735.0
751.0
762.0
777.0
788.0
804.0
818.0
831.0
838.0
846.0
844.0
842.0
842.0
839.0
840.0
840.0
841.0
841.0
846.0
847.0
851.0
852.0
854.0
858.0
855.0
853.0
850.0
852.0
854.0
852.0
854.0
858.0
860.0
861.0
861.0
860.0
863.0
864.0
860.0
859.0
855.0
858.0
859.0
863.0
863.0
867.0
869.0
869.0
870.0
870.0
871.0
866.0
869.0
868.0
871.0
874.0
876.0
880.0
881.0
882.0
882.0
883.0
885.0
887.0
889.0
891.0
895.0
902.0
905.0
908.0
910.0
911.0
912.0
913.0
913.0
916.0
919.0
921.0
927.0
930.0
935.0
941.0
944.0
946.0
951.0
952.0
956.0
960.0
957.0
962.0
963.0
966.0
969.0
974.0
974.0
975.0
977.0
977.0
975.0
973.0
972.0
972.0
971.0
971.0
971.0
971.0
969.0
965.0
958.0
948.0
945.0
936.0
934.0
927.0
923.0
919.0
915.0
909.0
909.0
901.0
895.0
890.0
886.0
880.0
877.0
873.0
869.0
868.0
868.0
870.0
869.0
863.0
864.0
860.0
857.0
858.0
854.0
853.0
855.0
854.0
856.0
855.0
858.0
858.0
857.0
854.0
854.0
852.0
850.0
850.0
854.0
858.0
859.0
861.0
861.0
863.0
859.0
858.0
860.0
857.0
856.0
855.0
857.0
855.0
857.0
858.0
859.0
861.0
859.0
858.0
860.0
858.0
856.0
855.0
853.0
856.0
859.0
862.0
859.0
861.0
860.0
859.0
856.0
856.0
853.0
850.0
851.0
856.0
857.0
857.0
854.0
854.0
855.0
852.0
847.0
845.0
842.0
843.0
846.0
848.0
847.0
849.0
848.0
848.0
847.0
843.0
843.0
843.0
841.0
842.0
843.0
843.0
843.0
846.0
845.0
840.0
840.0
839.0
838.0
835.0
834.0
835.0
837.0
840.0
841.0
842.0
842.0
841.0
842.0
840.0
842.0
837.0
837.0
837.0
836.0
839.0
839.0
841.0
838.0
843.0
839.0
839.0
838.0
839.0
838.0
839.0
839.0
841.0
838.0
842.0
846.0
841.0
840.0
839.0
838.0
836.0
833.0
836.0
840.0
841.0
839.0
840.0
842.0
838.0
840.0
838.0
836.0
836.0
835.0
835.0
835.0
838.0
840.0
842.0
843.0
842.0
841.0
840.0
839.0
839.0
836.0
836.0
838.0
838.0
842.0
842.0
845.0
844.0
841.0
840.0
840.0
837.0
838.0
837.0
839.0
841.0
844.0
846.0
846.0
843.0
844.0
842.0
842.0
838.0
837.0
839.0
840.0
839.0
839.0
841.0
841.0
842.0
841.0
842.0
843.0
838.0
835.0
836.0
839.0
841.0
842.0
846.0
845.0
844.0
841.0
842.0
842.0
839.0
837.0
837.0
837.0
841.0
843.0
844.0
846.0
843.0
844.0
842.0
841.0
839.0
840.0
839.0
842.0
843.0
846.0
848.0
848.0
847.0
846.0
849.0
845.0
846.0
848.0
849.0
857.0
856.0
861.0
868.0
868.0
870.0
871.0
872.0
874.0
874.0
874.0
876.0
873.0
874.0
879.0
876.0
874.0
871.0
867.0
867.0
864.0
862.0
860.0
857.0
853.0
852.0
849.0
848.0
849.0
847.0
845.0
843.0
840.0
839.0
836.0
837.0
837.0
836.0
837.0
839.0
840.0
840.0
840.0
836.0
837.0
833.0
830.0
833.0
835.0
834.0
839.0
842.0
843.0
841.0
842.0
844.0
845.0
842.0
843.0
845.0
855.0
871.0
889.0
909.0
934.0
962.0
990.0
1009.0
1016.0
1008.0
981.0
937.0
887.0
829.0
781.0
737.0
708.0
695.0
698.0
714.0
737.0
756.0
776.0
791.0
804.0
819.0
831.0
844.0
851.0
858.0
858.0
852.0
851.0
849.0
848.0
851.0
852.0
856.0
859.0
858.0
859.0
858.0
857.0
858.0
863.0
859.0
860.0
861.0
864.0
865.0
869.0
873.0
873.0
873.0
873.0
872.0
870.0
867.0
869.0
868.0
870.0
873.0
874.0
879.0
882.0
879.0
878.0
876.0
879.0
876.0
874.0
877.0
878.0
877.0
884.0
886.0
886.0
887.0
892.0
890.0
893.0
890.0
893.0
894.0
898.0
902.0
905.0
907.0
911.0
912.0
913.0
914.0
916.0
915.0
917.0
923.0
928.0
932.0
939.0
947.0
950.0
951.0
955.0
957.0
959.0
959.0
961.0
964.0
966.0
974.0
974.0
979.0
983.0
985.0
984.0
984.0
983.0
981.0
982.0
986.0
984.0
988.0
988.0
986.0
990.0
987.0
982.0
975.0
970.0
963.0
957.0
953.0
949.0
945.0
941.0
938.0
933.0
924.0
917.0
911.0
903.0
896.0
891.0
887.0
883.0
882.0
881.0
879.0
877.0
873.0
872.0
867.0
866.0
862.0
860.0
858.0
860.0
860.0
863.0
861.0
862.0
860.0
860.0
857.0
858.0
854.0
854.0
852.0
858.0
859.0
862.0
862.0
865.0
864.0
864.0
861.0
861.0
858.0
854.0
856.0
856.0
857.0
858.0
862.0
865.0
864.0
863.0
866.0
862.0
860.0
860.0
861.0
860.0
861.0
862.0
865.0
868.0
867.0
865.0
865.0
858.0
857.0
856.0
856.0
857.0
855.0
861.0
863.0
862.0
861.0
859.0
858.0
855.0
854.0
851.0
851.0
848.0
849.0
851.0
855.0
855.0
851.0
854.0
854.0
851.0
850.0
847.0
844.0
847.0
848.0
849.0
850.0
851.0
849.0
848.0
848.0
848.0
846.0
843.0
845.0
844.0
844.0
849.0
850.0
850.0
851.0
852.0
851.0
847.0
847.0
843.0
844.0
843.0
844.0
845.0
849.0
848.0
848.0
849.0
847.0
846.0
847.0
847.0
846.0
848.0
845.0
848.0
853.0
850.0
846.0
843.0
840.0
842.0
843.0
839.0
841.0
840.0
842.0
843.0
846.0
851.0
847.0
850.0
847.0
848.0
846.0
842.0
841.0
843.0
842.0
846.0
849.0
849.0
848.0
847.0
848.0
846.0
844.0
845.0
846.0
844.0
846.0
848.0
850.0
850.0
848.0
845.0
846.0
846.0
844.0
842.0
843.0
843.0
846.0
848.0
848.0
852.0
850.0
850.0
847.0
846.0
846.0
845.0
844.0
845.0
847.0
846.0
847.0
849.0
849.0
850.0
849.0
848.0
847.0
843.0
844.0
845.0
846.0
846.0
845.0
847.0
848.0
850.0
848.0
841.0
842.0
840.0
843.0
848.0
850.0
851.0
853.0
852.0
848.0
846.0
849.0
845.0
846.0
845.0
843.0
847.0
849.0
850.0
852.0
852.0
853.0
853.0
849.0
847.0
844.0
843.0
847.0
849.0
851.0
852.0
857.0
859.0
860.0
863.0
861.0
861.0
864.0
867.0
865.0
867.0
871.0
876.0
877.0
881.0
885.0
883.0
881.0
879.0
878.0
873.0
874.0
873.0
872.0
870.0
875.0
873.0
871.0
867.0
862.0
857.0
848.0
848.0
846.0
847.0
847.0
849.0
850.0
852.0
847.0
848.0
844.0
838.0
838.0
836.0
835.0
837.0
839.0
839.0
845.0
844.0
845.0
846.0
842.0
840.0
840.0
841.0
840.0
843.0
845.0
849.0
851.0
855.0
859.0
870.0
882.0
900.0
922.0
950.0
976.0
996.0
1004.0
988.0
956.0
904.0
847.0
792.0
740.0
702.0
675.0
671.0
684.0
705.0
730.0
754.0
771.0
788.0
799.0
812.0
826.0
836.0
842.0
851.0
851.0
850.0
853.0
852.0
849.0
851.0
854.0
858.0
859.0
862.0
858.0
857.0
859.0
863.0
861.0
861.0
866.0
867.0
870.0
868.0
867.0
865.0
866.0
864.0
867.0
867.0
869.0
871.0
875.0
874.0
876.0
874.0
874.0
875.0
873.0
875.0
875.0
872.0
873.0
879.0
883.0
882.0
885.0
884.0
887.0
883.0
884.0
881.0
882.0
885.0
885.0
889.0
892.0
898.0
900.0
903.0
904.0
904.0
905.0
903.0
906.0
908.0
916.0
918.0
926.0
930.0
934.0
934.0
938.0
943.0
940.0
944.0
948.0
952.0
959.0
963.0
969.0
971.0
975.0
975.0
976.0
978.0
979.0
978.0
980.0
983.0
989.0
987.0
988.0
989.0
989.0
986.0
982.0
978.0
977.0
976.0
971.0
972.0
967.0
965.0
962.0
954.0
949.0
944.0
937.0
931.0
920.0
917.0
912.0
908.0
903.0
897.0
896.0
892.0
888.0
884.0
880.0
875.0
873.0
869.0
868.0
868.0
868.0
869.0
867.0
869.0
869.0
864.0
863.0
860.0
858.0
857.0
858.0
858.0
858.0
862.0
863.0
861.0
861.0
862.0
861.0
859.0
858.0
855.0
854.0
856.0
858.0
862.0
861.0
862.0
862.0
864.0
863.0
862.0
855.0
859.0
855.0
854.0
858.0
860.0
863.0
862.0
866.0
866.0
862.0
863.0
861.0
860.0
857.0
854.0
856.0
860.0
860.0
862.0
863.0
859.0
858.0
856.0
855.0
855.0
850.0
853.0
854.0
856.0
855.0
856.0
858.0
858.0
855.0
852.0
852.0
848.0
845.0
847.0
847.0
848.0
851.0
851.0
851.0
851.0
850.0
848.0
845.0
845.0
845.0
842.0
848.0
849.0
848.0
851.0
849.0
851.0
850.0
845.0
845.0
843.0
844.0
843.0
847.0
848.0
849.0
849.0
847.0
847.0
845.0
845.0
842.0
842.0
838.0
838.0
838.0
841.0
844.0
850.0
850.0
848.0
846.0
847.0
845.0
842.0
839.0
842.0
844.0
845.0
847.0
848.0
850.0
849.0
846.0
848.0
846.0
843.0
843.0
844.0
845.0
847.0
844.0
848.0
850.0
848.0
848.0
847.0
845.0
841.0
842.0
843.0
844.0
848.0
849.0
851.0
851.0
849.0
848.0
847.0
848.0
843.0
847.0
845.0
847.0
846.0
846.0
849.0
847.0
850.0
850.0
848.0
846.0
847.0
844.0
845.0
844.0
846.0
849.0
851.0
851.0
850.0
849.0
850.0
846.0
846.0
841.0
844.0
848.0
849.0
850.0
852.0
857.0
856.0
851.0
850.0
849.0
849.0
849.0
846.0
849.0
848.0
852.0
855.0
855.0
854.0
849.0
850.0
849.0
848.0
846.0
850.0
851.0
853.0
856.0
859.0
862.0
864.0
867.0
867.0
865.0
868.0
868.0
867.0
869.0
875.0
879.0
882.0
884.0
886.0
887.0
880.0
881.0
879.0
873.0
873.0
871.0
874.0
873.0
875.0
874.0
872.0
869.0
861.0
857.0
852.0
848.0
851.0
847.0
849.0
847.0
850.0
849.0
850.0
849.0
847.0
844.0
844.0
840.0
843.0
842.0
841.0
842.0
844.0
848.0
847.0
846.0
843.0
842.0
841.0
839.0
843.0
844.0
843.0
848.0
847.0
852.0
852.0
851.0
853.0
854.0
856.0
865.0
877.0
900.0
924.0
953.0
979.0
1005.0
1018.0
1009.0
986.0
946.0
894.0
841.0
791.0
747.0
716.0
702.0
709.0
726.0
746.0
766.0
783.0
797.0
806.0
817.0
829.0
838.0
850.0
855.0
859.0
860.0
861.0
858.0
858.0
857.0
856.0
854.0
858.0
862.0
864.0
865.0
866.0
862.0
867.0
865.0
865.0
866.0
864.0
864.0
865.0
870.0
871.0
871.0
874.0
874.0
874.0
870.0
867.0
868.0
867.0
870.0
871.0
875.0
878.0
879.0
882.0
882.0
881.0
885.0
885.0
881.0
885.0
885.0
886.0
889.0
886.0
888.0
894.0
897.0
895.0
896.0
898.0
897.0
898.0
893.0
900.0
901.0
908.0
914.0
916.0
918.0
921.0
920.0
920.0
924.0
926.0
926.0
933.0
937.0
943.0
947.0
955.0
956.0
960.0
960.0
961.0
963.0
966.0
967.0
967.0
972.0
972.0
976.0
983.0
983.0
986.0
984.0
984.0
980.0
981.0
978.0
981.0
981.0
977.0
976.0
974.0
970.0
966.0
958.0
955.0
951.0
945.0
939.0
932.0
929.0
925.0
923.0
917.0
911.0
909.0
903.0
899.0
890.0
886.0
882.0
878.0
876.0
879.0
876.0
879.0
872.0
870.0
871.0
867.0
864.0
866.0
863.0
862.0
861.0
862.0
864.0
867.0
867.0
867.0
865.0
864.0
863.0
861.0
861.0
859.0
861.0
863.0
865.0
870.0
871.0
867.0
868.0
863.0
861.0
861.0
862.0
863.0
864.0
864.0
867.0
869.0
867.0
865.0
866.0
866.0
864.0
866.0
862.0
861.0
864.0
865.0
867.0
867.0
868.0
864.0
861.0
861.0
860.0
861.0
860.0
862.0
859.0
862.0
862.0
862.0
862.0
862.0
859.0
857.0
854.0
854.0
853.0
851.0
855.0
854.0
856.0
860.0
860.0
859.0
859.0
855.0
853.0
854.0
853.0
850.0
850.0
851.0
852.0
852.0
853.0
852.0
852.0
848.0
847.0
847.0
845.0
845.0
847.0
845.0
848.0
852.0
852.0
850.0
850.0
850.0
847.0
847.0
847.0
848.0
846.0
848.0
850.0
851.0
850.0
851.0
852.0
848.0
843.0
846.0
846.0
848.0
849.0
850.0
851.0
854.0
850.0
850.0
853.0
851.0
847.0
850.0
847.0
847.0
847.0
849.0
850.0
853.0
852.0
849.0
852.0
847.0
843.0
844.0
845.0
846.0
847.0
851.0
854.0
854.0
853.0
850.0
853.0
847.0
849.0
848.0
847.0
847.0
848.0
847.0
852.0
851.0
853.0
856.0
854.0
850.0
849.0
849.0
846.0
844.0
847.0
850.0
853.0
855.0
854.0
853.0
855.0
851.0
850.0
850.0
851.0
851.0
851.0
851.0
853.0
855.0
855.0
853.0
853.0
850.0
852.0
849.0
848.0
849.0
850.0
848.0
853.0
857.0
855.0
855.0
855.0
851.0
850.0
849.0
849.0
851.0
851.0
850.0
852.0
854.0
855.0
853.0
852.0
851.0
851.0
847.0
848.0
850.0
852.0
851.0
856.0
857.0
856.0
855.0
856.0
854.0
849.0
852.0
851.0
853.0
857.0
862.0
865.0
868.0
871.0
873.0
873.0
873.0
871.0
870.0
871.0
876.0
881.0
885.0
887.0
891.0
890.0
890.0
887.0
885.0
875.0
872.0
870.0
868.0
869.0
873.0
872.0
871.0
867.0
860.0
858.0
855.0
851.0
850.0
848.0
847.0
847.0
850.0
852.0
852.0
851.0
852.0
848.0
843.0
839.0
842.0
841.0
841.0
842.0
838.0
841.0
843.0
846.0
846.0
847.0
844.0
843.0
845.0
843.0
843.0
844.0
847.0
849.0
854.0
856.0
858.0
867.0
890.0
909.0
934.0
960.0
982.0
995.0
987.0
963.0
923.0
869.0
817.0
768.0
724.0
699.0
695.0
701.0
722.0
745.0
768.0
784.0
798.0
811.0
825.0
832.0
840.0
847.0
851.0
850.0
849.0
849.0
850.0
850.0
854.0
854.0
858.0
858.0
857.0
862.0
859.0
857.0
857.0
860.0
862.0
864.0
867.0
869.0
870.0
872.0
870.0
867.0
865.0
865.0
866.0
865.0
869.0
873.0
874.0
876.0
875.0
875.0
874.0
872.0
873.0
871.0
869.0
872.0
873.0
881.0
883.0
881.0
884.0
882.0
883.0
883.0
882.0
881.0
883.0
886.0
893.0
895.0
899.0
899.0
903.0
903.0
903.0
906.0
907.0
909.0
913.0
918.0
925.0
929.0
934.0
938.0
939.0
943.0
946.0
947.0
946.0
950.0
954.0
959.0
964.0
966.0
970.0
972.0
971.0
975.0
974.0
973.0
975.0
972.0
973.0
973.0
974.0
975.0
975.0
977.0
973.0
966.0
963.0
957.0
952.0
947.0
942.0
937.0
937.0
934.0
930.0
926.0
920.0
911.0
902.0
895.0
891.0
883.0
880.0
880.0
880.0
881.0
881.0
878.0
875.0
872.0
867.0
863.0
862.0
858.0
858.0
857.0
859.0
859.0
860.0
862.0
860.0
858.0
858.0
857.0
857.0
856.0
852.0
858.0
857.0
860.0
859.0
859.0
858.0
859.0
857.0
857.0
855.0
854.0
853.0
855.0
857.0
858.0
857.0
858.0
861.0
862.0
859.0
856.0
853.0
850.0
848.0
850.0
855.0
856.0
858.0
859.0
858.0
856.0
852.0
851.0
849.0
849.0
849.0
850.0
851.0
850.0
852.0
850.0
851.0
847.0
846.0
845.0
845.0
842.0
843.0
845.0
846.0
847.0
849.0
849.0
849.0
848.0
847.0
845.0
843.0
843.0
841.0
842.0
846.0
843.0
847.0
850.0
847.0
847.0
842.0
845.0
837.0
839.0
839.0
840.0
841.0
844.0
846.0
843.0
845.0
845.0
840.0
841.0
841.0
841.0
840.0
843.0
844.0
845.0
846.0
847.0
847.0
844.0
843.0
843.0
841.0
841.0
839.0
844.0
841.0
846.0
849.0
847.0
848.0
845.0
846.0
841.0
839.0
841.0
837.0
840.0
844.0
844.0
844.0
849.0
844.0
844.0
839.0
838.0
841.0
842.0
842.0
842.0
844.0
844.0
847.0
846.0
849.0
847.0
844.0
844.0
842.0
843.0
843.0
843.0
847.0
849.0
851.0
852.0
847.0
847.0
845.0
841.0
838.0
838.0
840.0
844.0
844.0
847.0
849.0
851.0
849.0
848.0
848.0
844.0
842.0
843.0
841.0
843.0
848.0
844.0
850.0
850.0
848.0
847.0
847.0
848.0
844.0
843.0
846.0
844.0
848.0
846.0
852.0
850.0
852.0
851.0
847.0
845.0
845.0
841.0
842.0
843.0
847.0
847.0
849.0
852.0
847.0
849.0
846.0
846.0
847.0
844.0
843.0
843.0
846.0
845.0
853.0
856.0
856.0
856.0
860.0
863.0
863.0
862.0
863.0
862.0
864.0
870.0
874.0
876.0
878.0
879.0
880.0
881.0
874.0
875.0
873.0
873.0
873.0
874.0
874.0
874.0
870.0
870.0
864.0
860.0
854.0
848.0
847.0
846.0
845.0
849.0
853.0
855.0
853.0
852.0
848.0
845.0
843.0
839.0
842.0
839.0
843.0
844.0
845.0
846.0
846.0
846.0
842.0
844.0
844.0
843.0
845.0
845.0
847.0
847.0
849.0
854.0
854.0
859.0
855.0
859.0
867.0
878.0
893.0
917.0
946.0
977.0
1000.0
1013.0
1007.0
978.0
936.0
885.0
828.0
775.0
732.0
704.0
696.0
705.0
725.0
750.0
771.0
790.0
805.0
815.0
827.0
838.0
846.0
853.0
863.0
863.0
865.0
865.0
866.0
864.0
863.0
862.0
864.0
865.0
864.0
867.0
869.0
871.0
873.0
874.0
875.0
877.0
875.0
876.0
872.0
869.0
869.0
872.0
872.0
873.0
878.0
883.0
886.0
885.0
883.0
883.0
878.0
877.0
878.0
880.0
883.0
886.0
884.0
886.0
888.0
888.0
889.0
887.0
884.0
886.0
888.0
890.0
892.0
896.0
901.0
903.0
902.0
904.0
905.0
906.0
904.0
908.0
908.0
909.0
914.0
917.0
923.0
926.0
928.0
930.0
932.0
932.0
933.0
936.0
937.0
943.0
