# Simple Text Format
# Sampling Rate (Hz):= 360.00
# Resolution:= 12
# Labels:= ECG
872.0
874.0
875.0
871.0
868.0
869.0
867.0
869.0
869.0
874.0
876.0
880.0
881.0
881.0
885.0
883.0
885.0
884.0
880.0
881.0
882.0
880.0
880.0
884.0
889.0
885.0
890.0
892.0
890.0
890.0
887.0
885.0
885.0
887.0
886.0
888.0
893.0
894.0
894.0
896.0
895.0
892.0
894.0
891.0
896.0
895.0
899.0
903.0
907.0
907.0
911.0
911.0
913.0
909.0
910.0
912.0
915.0
917.0
921.0
923.0
930.0
935.0
935.0
938.0
943.0
945.0
944.0
945.0
951.0
956.0
961.0
966.0
970.0
974.0
979.0
981.0
982.0
984.0
986.0
988.0
992.0
994.0
997.0
1000.0
1006.0
1005.0
1006.0
1011.0
1007.0
1004.0
1004.0
1001.0
998.0
997.0
995.0
996.0
990.0
990.0
984.0
979.0
971.0
965.0
956.0
949.0
943.0
939.0
935.0
928.0
924.0
919.0
915.0
912.0
907.0
900.0
900.0
893.0
889.0
889.0
888.0
889.0
886.0
884.0
880.0
881.0
877.0
876.0
872.0
870.0
869.0
870.0
874.0
877.0
877.0
876.0
874.0
876.0
874.0
871.0
870.0
865.0
868.0
870.0
867.0
871.0
874.0
874.0
876.0
876.0
874.0
871.0
869.0
869.0
873.0
872.0
874.0
875.0
878.0
878.0
874.0
872.0
870.0
871.0
872.0
872.0
873.0
874.0
875.0
877.0
878.0
880.0
878.0
879.0
875.0
876.0
870.0
868.0
869.0
869.0
870.0
872.0
874.0
874.0
875.0
871.0
867.0
868.0
860.0
861.0
862.0
863.0
860.0
865.0
866.0
862.0
864.0
862.0
860.0
859.0
856.0
856.0
858.0
859.0
862.0
861.0
863.0
863.0
862.0
861.0
860.0
856.0
854.0
855.0
852.0
852.0
853.0
854.0
855.0
858.0
859.0
859.0
856.0
857.0
853.0
853.0
852.0
853.0
854.0
853.0
854.0
856.0
853.0
855.0
854.0
857.0
854.0
853.0
852.0
850.0
854.0
855.0
856.0
856.0
858.0
856.0
855.0
851.0
851.0
850.0
851.0
853.0
856.0
855.0
858.0
861.0
856.0
857.0
855.0
852.0
850.0
850.0
853.0
851.0
855.0
853.0
857.0
859.0
856.0
853.0
852.0
851.0
850.0
848.0
852.0
853.0
851.0
853.0
856.0
856.0
856.0
857.0
855.0
853.0
853.0
850.0
850.0
852.0
853.0
855.0
853.0
856.0
856.0
853.0
854.0
853.0
850.0
848.0
847.0
847.0
849.0
853.0
857.0
858.0
856.0
857.0
853.0
854.0
851.0
849.0
848.0
853.0
855.0
852.0
853.0
855.0
852.0
854.0
851.0
847.0
848.0
847.0
848.0
848.0
849.0
852.0
853.0
855.0
852.0
851.0
851.0
850.0
848.0
848.0
847.0
847.0
850.0
852.0
853.0
855.0
857.0
856.0
852.0
852.0
848.0
847.0
850.0
848.0
850.0
850.0
850.0
853.0
853.0
853.0
851.0
849.0
851.0
851.0
852.0
855.0
857.0
859.0
864.0
867.0
869.0
873.0
867.0
866.0
862.0
867.0
868.0
869.0
874.0
880.0
884.0
887.0
888.0
889.0
887.0
885.0
884.0
880.0
878.0
874.0
874.0
874.0
875.0
876.0
871.0
870.0
863.0
858.0
852.0
847.0
845.0
847.0
849.0
854.0
855.0
851.0
850.0
850.0
849.0
843.0
843.0
837.0
837.0
839.0
841.0
844.0
845.0
846.0
847.0
846.0
845.0
844.0
841.0
843.0
842.0
844.0
845.0
845.0
846.0
849.0
850.0
852.0
854.0
865.0
877.0
893.0
917.0
943.0
975.0
998.0
1015.0
1016.0
999.0
970.0
924.0
872.0
822.0
773.0
734.0
706.0
692.0
695.0
714.0
733.0
756.0
772.0
786.0
797.0
803.0
815.0
824.0
837.0
846.0
850.0
853.0
853.0
852.0
850.0
849.0
853.0
851.0
850.0
853.0
857.0
860.0
863.0
864.0
865.0
862.0
863.0
860.0
864.0
859.0
861.0
860.0
863.0
863.0
866.0
869.0
870.0
872.0
872.0
872.0
869.0
870.0
867.0
867.0
870.0
872.0
874.0
878.0
877.0
879.0
878.0
879.0
878.0
879.0
877.0
878.0
882.0
884.0
886.0
890.0
889.0
892.0
892.0
888.0
889.0
889.0
890.0
894.0
896.0
904.0
904.0
907.0
913.0
917.0
919.0
920.0
921.0
925.0
925.0
926.0
932.0
937.0
942.0
949.0
953.0
958.0
962.0
965.0
966.0
967.0
969.0
970.0
978.0
982.0
985.0
990.0
990.0
990.0
986.0
986.0
988.0
984.0
981.0
982.0
982.0
983.0
980.0
981.0
981.0
977.0
973.0
966.0
960.0
951.0
942.0
937.0
930.0
925.0
921.0
916.0
914.0
905.0
899.0
895.0
889.0
882.0
878.0
873.0
870.0
867.0
867.0
865.0
864.0
861.0
859.0
858.0
854.0
850.0
850.0
848.0
849.0
852.0
853.0
852.0
854.0
854.0
851.0
848.0
846.0
845.0
845.0
843.0
843.0
843.0
848.0
846.0
848.0
851.0
850.0
850.0
850.0
845.0
843.0
844.0
844.0
848.0
849.0
850.0
851.0
851.0
850.0
850.0
845.0
846.0
842.0
845.0
846.0
848.0
847.0
850.0
853.0
850.0
851.0
848.0
844.0
840.0
840.0
839.0
841.0
842.0
839.0
843.0
842.0
844.0
841.0
840.0
837.0
835.0
834.0
835.0
830.0
830.0
832.0
833.0
834.0
832.0
835.0
835.0
830.0
830.0
828.0
830.0
830.0
833.0
833.0
835.0
836.0
834.0
828.0
832.0
830.0
828.0
828.0
829.0
830.0
831.0
834.0
835.0
838.0
837.0
838.0
834.0
832.0
829.0
829.0
828.0
826.0
826.0
832.0
832.0
834.0
832.0
833.0
831.0
830.0
829.0
825.0
827.0
829.0
829.0
831.0
831.0
832.0
831.0
830.0
828.0
828.0
827.0
827.0
824.0
827.0
826.0
829.0
829.0
832.0
831.0
832.0
830.0
828.0
826.0
825.0
825.0
825.0
828.0
831.0
835.0
834.0
830.0
833.0
829.0
827.0
824.0
825.0
827.0
823.0
827.0
829.0
828.0
832.0
831.0
830.0
832.0
830.0
828.0
825.0
827.0
829.0
829.0
833.0
835.0
835.0
834.0
834.0
829.0
825.0
826.0
825.0
823.0
825.0
828.0
828.0
831.0
837.0
836.0
833.0
832.0
831.0
827.0
827.0
826.0
823.0
826.0
826.0
831.0
831.0
828.0
831.0
829.0
829.0
828.0
829.0
828.0
829.0
831.0
833.0
836.0
835.0
833.0
833.0
832.0
832.0
831.0
832.0
832.0
833.0
834.0
834.0
837.0
839.0
841.0
840.0
843.0
845.0
844.0
841.0
844.0
846.0
847.0
853.0
854.0
859.0
859.0
862.0
864.0
867.0
866.0
865.0
865.0
862.0
863.0
864.0
862.0
861.0
863.0
859.0
855.0
853.0
846.0
844.0
838.0
838.0
834.0
835.0
839.0
840.0
840.0
840.0
835.0
830.0
830.0
823.0
825.0
826.0
825.0
828.0
831.0
829.0
831.0
832.0
832.0
829.0
829.0
826.0
826.0
827.0
828.0
832.0
831.0
835.0
838.0
838.0
836.0
834.0
838.0
846.0
854.0
866.0
887.0
908.0
938.0
965.0
989.0
1009.0
1004.0
982.0
943.0
888.0
829.0
775.0
727.0
688.0
666.0
664.0
677.0
700.0
724.0
743.0
756.0
766.0
776.0
792.0
807.0
822.0
831.0
843.0
845.0
846.0
846.0
842.0
842.0
837.0
841.0
843.0
845.0
850.0
852.0
856.0
857.0
857.0
854.0
852.0
852.0
851.0
853.0
855.0
855.0
860.0
861.0
863.0
864.0
860.0
860.0
862.0
860.0
859.0
859.0
862.0
864.0
867.0
870.0
873.0
874.0
873.0
874.0
872.0
871.0
871.0
870.0
872.0
875.0
878.0
880.0
882.0
883.0
886.0
886.0
885.0
887.0
889.0
888.0
891.0
895.0
897.0
903.0
906.0
907.0
909.0
909.0
909.0
914.0
915.0
920.0
922.0
928.0
930.0
933.0
940.0
948.0
948.0
952.0
958.0
957.0
961.0
961.0
965.0
971.0
975.0
978.0
980.0
982.0
983.0
981.0
979.0
983.0
983.0
978.0
977.0
977.0
981.0
979.0
976.0
972.0
967.0
957.0
951.0
943.0
935.0
933.0
928.0
923.0
919.0
915.0
907.0
904.0
898.0
888.0
881.0
875.0
872.0
870.0
867.0
869.0
867.0
865.0
866.0
865.0
863.0
860.0
858.0
856.0
854.0
855.0
853.0
852.0
854.0
856.0
857.0
857.0
855.0
856.0
854.0
851.0
851.0
849.0
850.0
853.0
851.0
851.0
855.0
854.0
854.0
851.0
854.0
853.0
850.0
849.0
852.0
852.0
855.0
856.0
855.0
854.0
856.0
858.0
854.0
854.0
856.0
851.0
849.0
850.0
854.0
856.0
856.0
855.0
852.0
853.0
848.0
852.0
851.0
850.0
852.0
849.0
853.0
849.0
854.0
851.0
850.0
848.0
849.0
844.0
841.0
843.0
840.0
840.0
842.0
848.0
850.0
850.0
847.0
845.0
842.0
841.0
841.0
839.0
838.0
840.0
841.0
843.0
846.0
843.0
844.0
845.0
841.0
840.0
840.0
835.0
837.0
837.0
837.0
841.0
841.0
841.0
839.0
838.0
837.0
836.0
836.0
834.0
838.0
836.0
840.0
841.0
843.0
841.0
842.0
839.0
837.0
837.0
830.0
833.0
836.0
836.0
836.0
838.0
844.0
842.0
840.0
839.0
838.0
837.0
836.0
833.0
836.0
838.0
838.0
837.0
840.0
838.0
836.0
837.0
837.0
837.0
832.0
836.0
834.0
839.0
838.0
839.0
839.0
839.0
838.0
837.0
837.0
834.0
833.0
834.0
832.0
837.0
836.0
840.0
840.0
841.0
843.0
840.0
839.0
837.0
839.0
833.0
833.0
836.0
837.0
839.0
841.0
839.0
841.0
839.0
839.0
836.0
836.0
836.0
834.0
837.0
839.0
837.0
840.0
839.0
834.0
835.0
836.0
833.0
836.0
833.0
837.0
837.0
842.0
843.0
844.0
842.0
843.0
837.0
832.0
829.0
834.0
832.0
830.0
833.0
837.0
839.0
841.0
839.0
838.0
837.0
840.0
836.0
836.0
836.0
835.0
836.0
839.0
837.0
842.0
839.0
837.0
839.0
838.0
837.0
838.0
837.0
839.0
840.0
847.0
852.0
857.0
859.0
858.0
857.0
858.0
855.0
859.0
860.0
861.0
867.0
875.0
876.0
876.0
876.0
873.0
870.0
869.0
863.0
859.0
857.0
854.0
856.0
857.0
858.0
856.0
852.0
848.0
843.0
841.0
838.0
836.0
832.0
834.0
839.0
839.0
838.0
838.0
834.0
833.0
832.0
828.0
830.0
826.0
828.0
829.0
830.0
834.0
837.0
835.0
837.0
835.0
835.0
834.0
831.0
830.0
829.0
832.0
833.0
839.0
842.0
849.0
854.0
863.0
879.0
899.0
918.0
944.0
973.0
997.0
1010.0
1008.0
987.0
957.0
912.0
862.0
815.0
769.0
730.0
702.0
691.0
696.0
711.0
735.0
757.0
776.0
789.0
797.0
807.0
815.0
823.0
832.0
834.0
841.0
842.0
844.0
841.0
844.0
844.0
848.0
847.0
846.0
843.0
846.0
845.0
846.0
847.0
850.0
852.0
851.0
853.0
856.0
857.0
855.0
856.0
855.0
854.0
856.0
858.0
861.0
862.0
864.0
865.0
863.0
861.0
862.0
862.0
860.0
860.0
863.0
865.0
870.0
871.0
873.0
874.0
875.0
878.0
877.0
876.0
875.0
876.0
877.0
881.0
884.0
884.0
889.0
892.0
893.0
895.0
896.0
894.0
895.0
896.0
900.0
902.0
912.0
914.0
917.0
918.0
923.0
926.0
928.0
932.0
935.0
938.0
941.0
947.0
951.0
957.0
963.0
965.0
968.0
970.0
970.0
973.0
972.0
971.0
973.0
977.0
980.0
982.0
983.0
986.0
985.0
987.0
983.0
980.0
978.0
975.0
974.0
969.0
969.0
962.0
957.0
954.0
944.0
940.0
931.0
924.0
914.0
910.0
902.0
899.0
894.0
891.0
890.0
884.0
879.0
875.0
866.0
864.0
860.0
857.0
853.0
854.0
854.0
853.0
852.0
851.0
849.0
846.0
843.0
842.0
841.0
842.0
841.0
843.0
846.0
845.0
847.0
847.0
845.0
846.0
844.0
845.0
843.0
840.0
839.0
842.0
844.0
846.0
850.0
848.0
848.0
845.0
842.0
842.0
841.0
841.0
839.0
843.0
846.0
848.0
849.0
850.0
848.0
850.0
847.0
845.0
844.0
841.0
840.0
842.0
841.0
843.0
846.0
846.0
845.0
840.0
838.0
834.0
835.0
833.0
833.0
833.0
833.0
838.0
836.0
838.0
834.0
837.0
834.0
831.0
831.0
827.0
831.0
833.0
833.0
833.0
833.0
834.0
832.0
830.0
829.0
826.0
825.0
822.0
822.0
824.0
826.0
830.0
833.0
832.0
829.0
829.0
829.0
828.0
826.0
824.0
824.0
827.0
826.0
828.0
830.0
830.0
829.0
829.0
826.0
822.0
821.0
822.0
824.0
826.0
825.0
827.0
830.0
830.0
829.0
825.0
824.0
822.0
821.0
821.0
821.0
826.0
827.0
828.0
830.0
827.0
827.0
827.0
825.0
824.0
821.0
819.0
818.0
820.0
823.0
826.0
829.0
824.0
825.0
826.0
824.0
824.0
824.0
823.0
822.0
822.0
825.0
826.0
829.0
828.0
824.0
825.0
822.0
824.0
824.0
824.0
822.0
823.0
825.0
827.0
830.0
830.0
829.0
827.0
825.0
821.0
823.0
823.0
824.0
825.0
830.0
828.0
832.0
831.0
829.0
830.0
825.0
825.0
825.0
821.0
821.0
822.0
826.0
824.0
829.0
826.0
827.0
828.0
828.0
825.0
822.0
823.0
823.0
825.0
826.0
828.0
829.0
828.0
828.0
829.0
828.0
827.0
827.0
827.0
827.0
828.0
831.0
830.0
830.0
831.0
831.0
830.0
828.0
828.0
823.0
823.0
823.0
826.0
828.0
827.0
832.0
832.0
832.0
839.0
837.0
838.0
838.0
840.0
842.0
845.0
846.0
849.0
855.0
857.0
861.0
862.0
863.0
859.0
858.0
857.0
857.0
855.0
851.0
855.0
852.0
852.0
850.0
849.0
844.0
841.0
835.0
828.0
825.0
827.0
830.0
831.0
831.0
828.0
833.0
830.0
828.0
822.0
822.0
818.0
818.0
817.0
818.0
823.0
823.0
823.0
824.0
825.0
823.0
819.0
818.0
822.0
819.0
823.0
823.0
827.0
827.0
828.0
828.0
827.0
826.0
834.0
843.0
858.0
879.0
908.0
939.0
964.0
986.0
992.0
972.0
935.0
881.0
825.0
768.0
721.0
682.0
655.0
655.0
667.0
690.0
714.0
735.0
751.0
762.0
771.0
784.0
795.0
806.0
819.0
824.0
832.0
835.0
833.0
831.0
831.0
831.0
832.0
834.0
830.0
833.0
840.0
840.0
843.0
848.0
847.0
844.0
846.0
843.0
839.0
840.0
837.0
841.0
844.0
846.0
850.0
854.0
853.0
851.0
852.0
854.0
851.0
848.0
848.0
847.0
849.0
852.0
856.0
860.0
859.0
863.0
859.0
859.0
856.0
856.0
859.0
857.0
861.0
863.0
871.0
874.0
874.0
876.0
876.0
877.0
874.0
874.0
878.0
881.0
886.0
891.0
896.0
900.0
906.0
908.0
911.0
912.0
914.0
915.0
917.0
918.0
926.0
929.0
938.0
941.0
944.0
948.0
953.0
955.0
957.0
959.0
958.0
961.0
966.0
969.0
974.0
977.0
979.0
978.0
978.0
975.0
974.0
972.0
972.0
971.0
969.0
964.0
964.0
962.0
959.0
951.0
944.0
938.0
929.0
924.0
914.0
906.0
903.0
900.0
891.0
890.0
885.0
881.0
871.0
867.0
865.0
859.0
853.0
852.0
852.0
851.0
851.0
853.0
849.0
847.0
843.0
846.0
845.0
844.0
844.0
842.0
841.0
842.0
844.0
847.0
846.0
847.0
843.0
844.0
841.0
836.0
834.0
834.0
835.0
838.0
844.0
844.0
846.0
845.0
844.0
843.0
842.0
840.0
839.0
835.0
837.0
841.0
841.0
842.0
844.0
844.0
842.0
840.0
841.0
842.0
838.0
841.0
841.0
842.0
843.0
843.0
844.0
841.0
840.0
837.0
835.0
833.0
834.0
835.0
832.0
838.0
836.0
841.0
840.0
838.0
839.0
834.0
833.0
831.0
830.0
828.0
828.0
831.0
835.0
838.0
837.0
837.0
835.0
836.0
834.0
830.0
829.0
832.0
830.0
833.0
833.0
834.0
836.0
833.0
832.0
828.0
826.0
829.0
828.0
828.0
830.0
830.0
830.0
834.0
832.0
831.0
828.0
828.0
827.0
824.0
823.0
825.0
827.0
830.0
834.0
835.0
835.0
836.0
833.0
832.0
826.0
825.0
824.0
828.0
829.0
824.0
830.0
834.0
831.0
833.0
835.0
832.0
830.0
831.0
829.0
828.0
831.0
826.0
833.0
833.0
834.0
834.0
833.0
833.0
831.0
828.0
823.0
824.0
825.0
826.0
832.0
835.0
834.0
835.0
834.0
832.0
830.0
828.0
826.0
828.0
827.0
829.0
830.0
833.0
834.0
833.0
834.0
832.0
831.0
829.0
832.0
830.0
831.0
833.0
835.0
835.0
838.0
834.0
833.0
833.0
832.0
830.0
830.0
831.0
828.0
832.0
837.0
837.0
838.0
836.0
838.0
836.0
834.0
832.0
831.0
831.0
833.0
835.0
835.0
838.0
841.0
839.0
836.0
835.0
835.0
835.0
836.0
835.0
832.0
836.0
837.0
842.0
843.0
839.0
839.0
840.0
838.0
835.0
838.0
839.0
838.0
838.0
845.0
847.0
847.0
854.0
853.0
854.0
855.0
848.0
854.0
855.0
859.0
866.0
869.0
872.0
873.0
874.0
875.0
870.0
868.0
866.0
857.0
857.0
856.0
859.0
859.0
860.0
859.0
856.0
855.0
849.0
845.0
839.0
838.0
838.0
834.0
837.0
834.0
837.0
839.0
837.0
835.0
833.0
831.0
827.0
826.0
829.0
826.0
832.0
833.0
834.0
835.0
837.0
835.0
832.0
832.0
826.0
830.0
832.0
834.0
837.0
837.0
839.0
840.0
844.0
849.0
854.0
868.0
886.0
907.0
935.0
967.0
993.0
1012.0
1012.0
999.0
964.0
918.0
866.0
814.0
768.0
728.0
701.0
695.0
703.0
720.0
744.0
765.0
780.0
794.0
803.0
808.0
822.0
829.0
836.0
838.0
842.0
843.0
843.0
845.0
845.0
847.0
843.0
843.0
848.0
846.0
847.0
851.0
851.0
852.0
854.0
857.0
858.0
860.0
854.0
857.0
855.0
856.0
854.0
852.0
859.0
859.0
860.0
866.0
863.0
864.0
860.0
862.0
860.0
862.0
862.0
861.0
866.0
869.0
869.0
871.0
871.0
871.0
867.0
871.0
872.0
876.0
877.0
878.0
884.0
885.0
885.0
890.0
893.0
894.0
894.0
894.0
895.0
896.0
900.0
900.0
905.0
908.0
913.0
917.0
919.0
924.0
924.0
924.0
926.0
931.0
934.0
938.0
945.0
948.0
955.0
958.0
963.0
963.0
966.0
968.0
969.0
968.0
974.0
972.0
976.0
980.0
979.0
981.0
984.0
986.0
984.0
984.0
983.0
978.0
975.0
972.0
969.0
970.0
967.0
960.0
955.0
946.0
937.0
930.0
923.0
916.0
910.0
908.0
903.0
902.0
895.0
888.0
883.0
879.0
875.0
871.0
868.0
861.0
856.0
855.0
855.0
856.0
856.0
856.0
855.0
857.0
852.0
853.0
850.0
848.0
847.0
849.0
849.0
847.0
848.0
850.0
847.0
846.0
846.0
847.0
843.0
843.0
842.0
844.0
846.0
850.0
852.0
854.0
854.0
854.0
851.0
849.0
848.0
845.0
846.0
847.0
850.0
850.0
853.0
855.0
850.0
850.0
852.0
849.0
848.0
846.0
846.0
845.0
848.0
847.0
851.0
850.0
851.0
848.0
845.0
846.0
844.0
844.0
843.0
844.0
845.0
844.0
846.0
844.0
844.0
842.0
840.0
840.0
834.0
835.0
832.0
832.0
833.0
838.0
840.0
846.0
844.0
843.0
837.0
838.0
836.0
835.0
833.0
833.0
834.0
836.0
838.0
836.0
838.0
835.0
835.0
837.0
835.0
832.0
833.0
836.0
835.0
837.0
839.0
840.0
837.0
837.0
837.0
834.0
829.0
830.0
829.0
827.0
833.0
834.0
834.0
839.0
834.0
836.0
834.0
831.0
831.0
831.0
827.0
830.0
828.0
831.0
836.0
835.0
838.0
837.0
833.0
831.0
829.0
827.0
828.0
830.0
832.0
832.0
834.0
833.0
834.0
832.0
835.0
832.0
834.0
832.0
830.0
832.0
833.0
833.0
834.0
837.0
838.0
837.0
833.0
831.0
829.0
828.0
830.0
828.0
830.0
829.0
832.0
835.0
837.0
839.0
836.0
837.0
833.0
833.0
834.0
832.0
833.0
833.0
837.0
839.0
835.0
836.0
837.0
834.0
833.0
833.0
832.0
834.0
832.0
834.0
837.0
834.0
834.0
837.0
836.0
835.0
833.0
830.0
831.0
833.0
834.0
837.0
837.0
842.0
840.0
839.0
838.0
833.0
831.0
829.0
830.0
830.0
833.0
835.0
836.0
839.0
837.0
834.0
834.0
837.0
835.0
834.0
834.0
833.0
836.0
837.0
837.0
838.0
835.0
836.0
835.0
835.0
836.0
835.0
836.0
839.0
842.0
845.0
852.0
854.0
851.0
851.0
851.0
852.0
852.0
853.0
854.0
859.0
864.0
867.0
868.0
870.0
873.0
875.0
869.0
867.0
864.0
854.0
851.0
856.0
856.0
856.0
856.0
851.0
847.0
846.0
839.0
838.0
835.0
833.0
830.0
834.0
831.0
833.0
836.0
834.0
830.0
831.0
828.0
827.0
822.0
821.0
824.0
826.0
828.0
829.0
833.0
831.0
830.0
827.0
828.0
825.0
826.0
826.0
825.0
829.0
830.0
830.0
836.0
842.0
851.0
862.0
881.0
903.0
926.0
955.0
977.0
989.0
984.0
960.0
921.0
870.0
817.0
769.0
725.0
697.0
683.0
689.0
708.0
731.0
755.0
771.0
788.0
806.0
816.0
826.0
831.0
834.0
833.0
833.0
834.0
833.0
833.0
837.0
843.0
846.0
845.0
846.0
848.0
847.0
846.0
847.0
845.0
848.0
849.0
851.0
854.0
856.0
854.0
849.0
853.0
854.0
854.0
855.0
855.0
853.0
856.0
858.0
862.0
861.0
862.0
862.0
863.0
859.0
857.0
858.0
858.0
862.0
864.0
866.0
868.0
872.0
868.0
873.0
872.0
872.0
869.0
873.0
876.0
880.0
880.0
884.0
885.0
888.0
890.0
892.0
891.0
892.0
895.0
895.0
898.0
898.0
907.0
911.0
915.0
920.0
922.0
927.0
930.0
930.0
933.0
936.0
941.0
941.0
944.0
952.0
956.0
961.0
964.0
964.0
964.0
962.0
962.0
963.0
967.0
967.0
968.0
968.0
972.0
975.0
971.0
971.0
969.0
962.0
958.0
951.0
947.0
941.0
936.0
932.0
926.0
922.0
918.0
913.0
904.0
897.0
891.0
884.0
880.0
874.0
871.0
869.0
870.0
868.0
863.0
859.0
856.0
851.0
846.0
842.0
847.0
846.0
848.0
848.0
852.0
850.0
850.0
850.0
844.0
843.0
843.0
840.0
841.0
841.0
842.0
846.0
845.0
847.0
845.0
846.0
845.0
844.0
840.0
841.0
841.0
844.0
844.0
845.0
848.0
848.0
847.0
847.0
847.0
844.0
844.0
843.0
843.0
840.0
845.0
849.0
850.0
852.0
851.0
851.0
847.0
842.0
845.0
843.0
838.0
841.0
841.0
841.0
845.0
843.0
843.0
846.0
843.0
838.0
834.0
833.0
834.0
836.0
835.0
836.0
838.0
838.0
837.0
834.0
837.0
833.0
833.0
833.0
832.0
829.0
834.0
834.0
838.0
837.0
838.0
832.0
835.0
829.0
827.0
826.0
831.0
827.0
830.0
834.0
835.0
833.0
833.0
834.0
832.0
829.0
829.0
827.0
828.0
827.0
830.0
835.0
834.0
831.0
830.0
835.0
834.0
830.0
830.0
825.0
826.0
831.0
829.0
830.0
834.0
833.0
835.0
835.0
832.0
830.0
827.0
823.0
824.0
825.0
827.0
831.0
833.0
836.0
836.0
835.0
834.0
831.0
828.0
826.0
828.0
828.0
829.0
832.0
832.0
835.0
834.0
834.0
832.0
831.0
831.0
829.0
829.0
828.0
830.0
832.0
834.0
832.0
831.0
831.0
826.0
827.0
827.0
831.0
830.0
828.0
831.0
834.0
834.0
836.0
836.0
834.0
834.0
831.0
832.0
831.0
831.0
831.0
833.0
833.0
833.0
833.0
836.0
836.0
834.0
831.0
831.0
831.0
827.0
826.0
830.0
832.0
833.0
833.0
833.0
835.0
832.0
837.0
834.0
831.0
834.0
836.0
838.0
838.0
841.0
841.0
841.0
834.0
837.0
836.0
834.0
831.0
830.0
830.0
832.0
835.0
839.0
839.0
841.0
842.0
838.0
836.0
837.0
837.0
838.0
838.0
842.0
848.0
851.0
851.0
856.0
854.0
851.0
852.0
855.0
856.0
858.0
861.0
863.0
866.0
868.0
870.0
866.0
863.0
860.0
855.0
854.0
854.0
854.0
855.0
854.0
847.0
846.0
838.0
838.0
836.0
833.0
834.0
831.0
828.0
827.0
829.0
832.0
832.0
832.0
832.0
833.0
832.0
830.0
828.0
830.0
829.0
824.0
829.0
829.0
832.0
829.0
829.0
833.0
836.0
835.0
835.0
833.0
833.0
837.0
841.0
849.0
863.0
875.0
901.0
923.0
954.0
980.0
998.0
997.0
970.0
929.0
877.0
821.0
767.0
722.0
692.0
681.0
681.0
704.0
726.0
746.0
763.0
777.0
791.0
806.0
819.0
832.0
843.0
849.0
850.0
850.0
848.0
847.0
843.0
846.0
847.0
851.0
852.0
856.0
855.0
855.0
857.0
856.0
855.0
853.0
854.0
854.0
858.0
860.0
865.0
864.0
866.0
868.0
868.0
868.0
866.0
864.0
863.0
862.0
864.0
868.0
868.0
871.0
872.0
875.0
875.0
873.0
873.0
873.0
872.0
871.0
873.0
874.0
880.0
883.0
885.0
884.0
884.0
885.0
885.0
889.0
891.0
890.0
894.0
897.0
902.0
906.0
910.0
910.0
913.0
915.0
916.0
917.0
920.0
921.0
924.0
929.0
930.0
940.0
945.0
947.0
952.0
953.0
955.0
957.0
958.0
961.0
963.0
969.0
972.0
976.0
978.0
978.0
979.0
979.0
978.0
978.0
978.0
977.0
978.0
978.0
979.0
980.0
976.0
975.0
968.0
960.0
954.0
951.0
945.0
937.0
935.0
929.0
925.0
922.0
916.0
911.0
908.0
902.0
894.0
888.0
883.0
881.0
875.0
874.0
871.0
873.0
872.0
872.0
868.0
867.0
866.0
868.0
863.0
865.0
863.0
864.0
863.0
866.0
868.0
864.0
865.0
862.0
859.0
859.0
859.0
859.0
863.0
864.0
862.0
865.0
866.0
865.0
864.0
867.0
862.0
860.0
861.0
859.0
860.0
859.0
863.0
865.0
868.0
867.0
868.0
867.0
867.0
864.0
859.0
863.0
864.0
865.0
866.0
866.0
866.0
867.0
866.0
862.0
861.0
856.0
854.0
856.0
856.0
856.0
862.0
864.0
864.0
863.0
859.0
858.0
857.0
855.0
854.0
852.0
853.0
854.0
852.0
855.0
856.0
853.0
859.0
857.0
852.0
852.0
851.0
849.0
850.0
849.0
849.0
850.0
851.0
851.0
850.0
850.0
850.0
849.0
849.0
847.0
844.0
848.0
850.0
852.0
855.0
854.0
854.0
851.0
852.0
847.0
844.0
842.0
844.0
844.0
851.0
849.0
853.0
853.0
853.0
851.0
851.0
848.0
847.0
847.0
846.0
846.0
846.0
850.0
850.0
850.0
847.0
845.0
844.0
844.0
846.0
845.0
848.0
846.0
849.0
849.0
854.0
853.0
851.0
853.0
847.0
844.0
843.0
841.0
842.0
845.0
847.0
851.0
852.0
853.0
853.0
850.0
847.0
847.0
846.0
844.0
843.0
843.0
848.0
849.0
853.0
852.0
849.0
849.0
847.0
847.0
847.0
845.0
846.0
846.0
850.0
851.0
849.0
850.0
851.0
848.0
849.0
845.0
847.0
845.0
845.0
846.0
851.0
851.0
854.0
854.0
853.0
853.0
851.0
848.0
849.0
842.0
845.0
848.0
848.0
848.0
850.0
852.0
852.0
852.0
851.0
850.0
850.0
848.0
847.0
851.0
851.0
851.0
852.0
850.0
849.0
850.0
848.0
847.0
846.0
847.0
846.0
850.0
850.0
853.0
854.0
853.0
853.0
855.0
850.0
848.0
848.0
847.0
848.0
852.0
849.0
854.0
859.0
861.0
862.0
865.0
869.0
868.0
867.0
867.0
865.0
869.0
872.0
878.0
880.0
882.0
883.0
883.0
882.0
879.0
881.0
877.0
874.0
875.0
871.0
871.0
872.0
874.0
874.0
867.0
865.0
860.0
854.0
850.0
847.0
847.0
849.0
851.0
856.0
854.0
854.0
850.0
849.0
848.0
847.0
844.0
841.0
844.0
843.0
844.0
846.0
847.0
846.0
845.0
843.0
843.0
844.0
842.0
844.0
845.0
843.0
847.0
850.0
851.0
850.0
851.0
850.0
853.0
859.0
874.0
893.0
919.0
947.0
977.0
1004.0
1017.0
1013.0
990.0
946.0
893.0
838.0
785.0
740.0
709.0
700.0
712.0
732.0
761.0
779.0
796.0
810.0
820.0
833.0
842.0
848.0
855.0
856.0
856.0
857.0
857.0
856.0
857.0
857.0
856.0
858.0
855.0
857.0
862.0
866.0
867.0
871.0
870.0
872.0
869.0
871.0
867.0
866.0
864.0
864.0
865.0
867.0
871.0
877.0
877.0
876.0
877.0
878.0
877.0
873.0
876.0
874.0
876.0
880.0
883.0
880.0
883.0
883.0
882.0
885.0
886.0
887.0
889.0
888.0
893.0
894.0
895.0
900.0
901.0
903.0
902.0
898.0
899.0
902.0
901.0
906.0
911.0
918.0
923.0
929.0
932.0
934.0
937.0
938.0
940.0
942.0
945.0
947.0
952.0
954.0
960.0
965.0
964.0
967.0
971.0
974.0
975.0
978.0
978.0
981.0
987.0
987.0
990.0
995.0
990.0
991.0
990.0
986.0
987.0
979.0
981.0
979.0
979.0
