# Simple Text Format
# Sampling Rate (Hz):= 360.00
# Resolution:= 12
# Labels:= ECG
845.0
848.0
847.0
847.0
850.0
854.0
858.0
858.0
859.0
859.0
858.0
857.0
855.0
857.0
856.0
855.0
857.0
862.0
859.0
866.0
864.0
864.0
864.0
865.0
864.0
864.0
865.0
863.0
867.0
868.0
870.0
870.0
871.0
874.0
876.0
875.0
878.0
877.0
880.0
878.0
882.0
884.0
886.0
889.0
893.0
894.0
895.0
897.0
895.0
898.0
900.0
904.0
909.0
915.0
919.0
926.0
929.0
932.0
938.0
939.0
941.0
942.0
947.0
949.0
954.0
956.0
962.0
965.0
966.0
970.0
973.0
972.0
972.0
973.0
971.0
973.0
973.0
978.0
979.0
980.0
976.0
971.0
970.0
964.0
960.0
955.0
950.0
945.0
942.0
941.0
936.0
931.0
925.0
919.0
910.0
904.0
895.0
892.0
888.0
878.0
877.0
875.0
876.0
874.0
873.0
868.0
869.0
860.0
862.0
857.0
856.0
852.0
853.0
854.0
856.0
859.0
854.0
853.0
853.0
849.0
847.0
848.0
845.0
849.0
847.0
849.0
849.0
852.0
854.0
855.0
850.0
848.0
847.0
846.0
845.0
844.0
848.0
851.0
852.0
855.0
855.0
853.0
853.0
847.0
847.0
849.0
845.0
846.0
848.0
845.0
851.0
853.0
854.0
852.0
852.0
849.0
850.0
849.0
845.0
847.0
847.0
849.0
846.0
848.0
848.0
843.0
845.0
842.0
841.0
841.0
837.0
839.0
843.0
843.0
843.0
847.0
847.0
844.0
843.0
840.0
840.0
839.0
834.0
835.0
836.0
834.0
835.0
839.0
842.0
839.0
837.0
836.0
835.0
837.0
830.0
834.0
835.0
835.0
837.0
841.0
842.0
841.0
838.0
834.0
836.0
834.0
831.0
832.0
838.0
835.0
839.0
843.0
840.0
841.0
838.0
840.0
833.0
835.0
833.0
833.0
835.0
838.0
838.0
839.0
838.0
837.0
835.0
835.0
834.0
834.0
834.0
832.0
836.0
836.0
836.0
838.0
839.0
836.0
836.0
835.0
833.0
830.0
829.0
827.0
829.0
834.0
837.0
835.0
833.0
832.0
834.0
829.0
830.0
832.0
831.0
833.0
833.0
836.0
833.0
838.0
839.0
839.0
835.0
836.0
833.0
833.0
830.0
836.0
832.0
836.0
835.0
838.0
840.0
842.0
839.0
837.0
834.0
831.0
834.0
833.0
835.0
839.0
838.0
841.0
839.0
840.0
839.0
837.0
837.0
839.0
836.0
836.0
837.0
839.0
842.0
843.0
841.0
839.0
840.0
838.0
838.0
835.0
836.0
834.0
836.0
838.0
839.0
842.0
842.0
845.0
847.0
843.0
840.0
837.0
839.0
839.0
838.0
841.0
843.0
848.0
853.0
855.0
852.0
858.0
859.0
857.0
855.0
856.0
862.0
862.0
869.0
872.0
876.0
878.0
876.0
875.0
875.0
874.0
870.0
867.0
864.0
864.0
863.0
864.0
864.0
861.0
862.0
854.0
852.0
849.0
841.0
841.0
844.0
843.0
843.0
845.0
846.0
846.0
844.0
841.0
840.0
837.0
837.0
835.0
836.0
835.0
839.0
842.0
842.0
842.0
840.0
837.0
833.0
837.0
831.0
830.0
833.0
833.0
838.0
840.0
842.0
841.0
845.0
845.0
843.0
841.0
848.0
861.0
878.0
896.0
920.0
945.0
973.0
996.0
1008.0
1012.0
993.0
958.0
921.0
869.0
820.0
774.0
734.0
710.0
698.0
711.0
726.0
746.0
765.0
781.0
793.0
805.0
815.0
826.0
837.0
847.0
853.0
854.0
849.0
848.0
849.0
845.0
846.0
848.0
853.0
853.0
856.0
860.0
859.0
858.0
858.0
859.0
859.0
860.0
860.0
858.0
862.0
862.0
869.0
868.0
870.0
871.0
871.0
868.0
866.0
867.0
863.0
862.0
867.0
869.0
871.0
872.0
873.0
876.0
876.0
876.0
876.0
876.0
877.0
876.0
879.0
881.0
885.0
886.0
884.0
885.0
889.0
887.0
888.0
888.0
888.0
889.0
893.0
897.0
899.0
899.0
904.0
908.0
908.0
911.0
909.0
911.0
910.0
910.0
913.0
917.0
924.0
929.0
934.0
936.0
940.0
944.0
947.0
944.0
948.0
949.0
954.0
959.0
964.0
971.0
968.0
971.0
971.0
972.0
971.0
974.0
975.0
979.0
977.0
979.0
985.0
986.0
985.0
979.0
975.0
971.0
966.0
961.0
958.0
952.0
948.0
947.0
942.0
940.0
936.0
928.0
921.0
914.0
907.0
902.0
896.0
892.0
889.0
885.0
882.0
880.0
879.0
877.0
873.0
869.0
866.0
862.0
860.0
858.0
858.0
860.0
860.0
859.0
859.0
857.0
857.0
855.0
854.0
851.0
849.0
849.0
850.0
850.0
850.0
856.0
856.0
857.0
854.0
849.0
853.0
850.0
851.0
849.0
851.0
853.0
855.0
859.0
859.0
857.0
858.0
855.0
857.0
857.0
855.0
854.0
856.0
856.0
859.0
860.0
861.0
861.0
858.0
857.0
854.0
853.0
849.0
848.0
850.0
850.0
855.0
856.0
857.0
852.0
854.0
849.0
851.0
848.0
849.0
844.0
846.0
846.0
845.0
847.0
847.0
851.0
850.0
848.0
849.0
846.0
846.0
843.0
840.0
841.0
843.0
844.0
844.0
845.0
843.0
840.0
841.0
840.0
839.0
837.0
840.0
844.0
842.0
845.0
846.0
844.0
843.0
841.0
842.0
840.0
839.0
840.0
837.0
840.0
839.0
841.0
840.0
842.0
841.0
843.0
840.0
839.0
838.0
839.0
838.0
838.0
838.0
841.0
842.0
842.0
841.0
839.0
840.0
839.0
834.0
837.0
837.0
840.0
841.0
842.0
841.0
841.0
839.0
837.0
837.0
832.0
832.0
833.0
835.0
838.0
838.0
840.0
841.0
839.0
837.0
837.0
835.0
835.0
836.0
835.0
836.0
840.0
841.0
839.0
839.0
837.0
835.0
837.0
835.0
836.0
833.0
833.0
835.0
838.0
840.0
841.0
841.0
841.0
837.0
837.0
835.0
834.0
836.0
837.0
835.0
840.0
841.0
843.0
841.0
842.0
840.0
837.0
834.0
835.0
835.0
834.0
836.0
834.0
836.0
838.0
839.0
837.0
838.0
836.0
831.0
831.0
833.0
832.0
834.0
838.0
837.0
839.0
837.0
839.0
839.0
838.0
836.0
833.0
834.0
838.0
838.0
839.0
842.0
844.0
843.0
841.0
840.0
837.0
836.0
836.0
834.0
833.0
833.0
837.0
840.0
841.0
843.0
846.0
851.0
850.0
854.0
851.0
852.0
851.0
851.0
853.0
856.0
859.0
866.0
866.0
867.0
866.0
867.0
867.0
867.0
864.0
864.0
860.0
861.0
862.0
862.0
861.0
855.0
852.0
848.0
841.0
834.0
832.0
833.0
836.0
837.0
837.0
836.0
838.0
835.0
835.0
833.0
831.0
826.0
825.0
825.0
827.0
829.0
829.0
832.0
829.0
827.0
827.0
827.0
828.0
827.0
826.0
828.0
830.0
831.0
835.0
837.0
834.0
834.0
835.0
836.0
839.0
843.0
853.0
872.0
893.0
919.0
944.0
967.0
978.0
975.0
955.0
918.0
870.0
819.0
772.0
731.0
699.0
680.0
678.0
692.0
710.0
733.0
750.0
763.0
780.0
793.0
804.0
816.0
829.0
838.0
840.0
840.0
838.0
834.0
834.0
832.0
836.0
839.0
841.0
843.0
848.0
848.0
850.0
849.0
851.0
849.0
847.0
849.0
848.0
848.0
846.0
851.0
851.0
856.0
855.0
858.0
858.0
860.0
858.0
856.0
855.0
852.0
850.0
853.0
857.0
860.0
860.0
860.0
858.0
862.0
860.0
861.0
861.0
858.0
859.0
866.0
863.0
868.0
871.0
869.0
872.0
872.0
871.0
871.0
873.0
871.0
875.0
878.0
878.0
884.0
886.0
892.0
894.0
896.0
896.0
902.0
901.0
903.0
904.0
911.0
918.0
921.0
929.0
931.0
935.0
934.0
936.0
939.0
944.0
943.0
950.0
954.0
957.0
961.0
964.0
968.0
968.0
968.0
966.0
966.0
963.0
959.0
957.0
956.0
956.0
956.0
958.0
955.0
952.0
948.0
938.0
931.0
923.0
918.0
911.0
910.0
905.0
898.0
890.0
886.0
883.0
882.0
873.0
870.0
864.0
861.0
858.0
853.0
857.0
854.0
853.0
854.0
851.0
849.0
843.0
842.0
840.0
840.0
838.0
841.0
840.0
841.0
844.0
844.0
841.0
842.0
837.0
836.0
833.0
832.0
830.0
830.0
836.0
837.0
836.0
840.0
838.0
840.0
837.0
836.0
835.0
834.0
837.0
837.0
837.0
839.0
837.0
837.0
835.0
839.0
836.0
836.0
831.0
835.0
834.0
833.0
836.0
838.0
837.0
834.0
833.0
831.0
830.0
828.0
830.0
828.0
828.0
830.0
829.0
831.0
835.0
834.0
834.0
832.0
832.0
827.0
828.0
825.0
826.0
826.0
824.0
825.0
827.0
826.0
825.0
826.0
827.0
826.0
825.0
821.0
819.0
819.0
822.0
824.0
824.0
825.0
825.0
822.0
820.0
820.0
819.0
819.0
818.0
820.0
822.0
822.0
823.0
827.0
827.0
824.0
822.0
820.0
817.0
816.0
814.0
816.0
816.0
820.0
823.0
824.0
822.0
822.0
822.0
819.0
818.0
819.0
816.0
814.0
818.0
820.0
821.0
821.0
817.0
816.0
818.0
819.0
816.0
812.0
813.0
815.0
818.0
819.0
820.0
825.0
820.0
819.0
816.0
816.0
813.0
814.0
813.0
817.0
818.0
822.0
823.0
824.0
825.0
824.0
822.0
822.0
818.0
818.0
815.0
818.0
816.0
819.0
821.0
823.0
825.0
823.0
823.0
822.0
821.0
816.0
816.0
817.0
816.0
819.0
821.0
824.0
823.0
819.0
821.0
819.0
816.0
818.0
817.0
819.0
820.0
820.0
819.0
826.0
825.0
825.0
823.0
823.0
820.0
815.0
820.0
821.0
823.0
827.0
830.0
831.0
835.0
838.0
838.0
840.0
840.0
840.0
838.0
840.0
843.0
846.0
850.0
853.0
854.0
854.0
857.0
856.0
858.0
855.0
849.0
847.0
848.0
848.0
851.0
850.0
845.0
841.0
835.0
831.0
824.0
822.0
823.0
824.0
822.0
828.0
829.0
828.0
827.0
827.0
823.0
821.0
813.0
811.0
813.0
815.0
817.0
816.0
819.0
818.0
821.0
820.0
818.0
819.0
817.0
818.0
819.0
820.0
822.0
825.0
828.0
830.0
831.0
835.0
847.0
862.0
877.0
904.0
933.0
960.0
985.0
994.0
987.0
960.0
918.0
866.0
810.0
761.0
717.0
686.0
676.0
679.0
700.0
723.0
745.0
765.0
775.0
781.0
792.0
801.0
812.0
823.0
828.0
831.0
834.0
830.0
834.0
834.0
830.0
834.0
836.0
834.0
834.0
837.0
836.0
840.0
839.0
842.0
843.0
844.0
848.0
847.0
843.0
844.0
843.0
841.0
844.0
844.0
847.0
847.0
852.0
854.0
856.0
849.0
856.0
853.0
854.0
850.0
849.0
854.0
857.0
859.0
858.0
863.0
865.0
864.0
865.0
864.0
863.0
864.0
864.0
865.0
867.0
871.0
877.0
875.0
874.0
877.0
878.0
877.0
877.0
878.0
879.0
882.0
888.0
892.0
897.0
901.0
900.0
903.0
906.0
907.0
911.0
912.0
915.0
919.0
924.0
929.0
932.0
938.0
941.0
943.0
944.0
946.0
946.0
950.0
952.0
953.0
957.0
956.0
961.0
965.0
966.0
967.0
966.0
962.0
960.0
958.0
956.0
956.0
956.0
958.0
956.0
951.0
947.0
942.0
935.0
929.0
923.0
911.0
904.0
898.0
899.0
894.0
892.0
891.0
885.0
881.0
875.0
869.0
863.0
858.0
853.0
853.0
855.0
850.0
853.0
851.0
851.0
847.0
845.0
843.0
839.0
839.0
840.0
838.0
841.0
842.0
841.0
839.0
841.0
842.0
840.0
840.0
837.0
835.0
832.0
835.0
838.0
838.0
840.0
842.0
842.0
843.0
839.0
838.0
839.0
835.0
836.0
839.0
842.0
844.0
843.0
841.0
840.0
844.0
843.0
840.0
842.0
841.0
837.0
840.0
839.0
843.0
843.0
846.0
843.0
843.0
842.0
842.0
837.0
837.0
837.0
836.0
835.0
834.0
839.0
841.0
842.0
841.0
837.0
838.0
833.0
831.0
831.0
832.0
833.0
833.0
836.0
834.0
830.0
831.0
833.0
829.0
829.0
830.0
828.0
829.0
829.0
830.0
833.0
832.0
833.0
832.0
830.0
829.0
825.0
825.0
821.0
821.0
825.0
827.0
831.0
831.0
831.0
830.0
830.0
829.0
827.0
825.0
824.0
825.0
825.0
826.0
830.0
828.0
829.0
826.0
828.0
824.0
827.0
826.0
826.0
826.0
827.0
830.0
831.0
832.0
827.0
827.0
825.0
826.0
824.0
823.0
822.0
827.0
824.0
828.0
831.0
832.0
831.0
828.0
824.0
824.0
823.0
819.0
818.0
818.0
824.0
822.0
825.0
827.0
829.0
827.0
828.0
826.0
826.0
823.0
824.0
825.0
824.0
828.0
829.0
828.0
827.0
829.0
829.0
827.0
825.0
824.0
822.0
821.0
826.0
828.0
830.0
832.0
829.0
830.0
828.0
828.0
824.0
823.0
825.0
823.0
825.0
827.0
829.0
829.0
830.0
832.0
827.0
826.0
826.0
824.0
821.0
823.0
825.0
826.0
827.0
831.0
830.0
828.0
824.0
823.0
823.0
824.0
824.0
824.0
826.0
828.0
830.0
832.0
830.0
828.0
830.0
829.0
828.0
825.0
825.0
828.0
831.0
832.0
831.0
833.0
835.0
834.0
838.0
839.0
838.0
840.0
839.0
842.0
843.0
846.0
849.0
851.0
853.0
858.0
860.0
862.0
860.0
861.0
861.0
861.0
857.0
857.0
857.0
855.0
856.0
852.0
850.0
848.0
846.0
840.0
835.0
832.0
829.0
829.0
829.0
831.0
831.0
832.0
830.0
827.0
825.0
823.0
819.0
814.0
816.0
816.0
818.0
820.0
822.0
823.0
819.0
820.0
821.0
819.0
818.0
821.0
823.0
822.0
825.0
824.0
827.0
827.0
825.0
824.0
824.0
831.0
837.0
850.0
871.0
896.0
920.0
951.0
977.0
988.0
985.0
959.0
914.0
862.0
806.0
753.0
712.0
684.0
679.0
689.0
711.0
733.0
754.0
769.0
782.0
792.0
802.0
813.0
821.0
827.0
831.0
829.0
830.0
829.0
829.0
830.0
826.0
830.0
830.0
834.0
835.0
838.0
840.0
841.0
842.0
841.0
842.0
843.0
838.0
839.0
839.0
840.0
844.0
842.0
845.0
848.0
853.0
851.0
849.0
850.0
848.0
845.0
844.0
843.0
846.0
849.0
847.0
856.0
855.0
855.0
859.0
857.0
855.0
853.0
856.0
855.0
859.0
860.0
865.0
866.0
867.0
869.0
871.0
871.0
871.0
873.0
870.0
875.0
878.0
879.0
883.0
890.0
893.0
893.0
896.0
898.0
896.0
897.0
902.0
908.0
913.0
916.0
922.0
927.0
930.0
933.0
935.0
935.0
935.0
939.0
937.0
941.0
942.0
949.0
951.0
956.0
955.0
958.0
958.0
958.0
956.0
956.0
951.0
949.0
948.0
949.0
947.0
943.0
935.0
931.0
923.0
912.0
906.0
901.0
897.0
891.0
890.0
884.0
880.0
877.0
871.0
864.0
859.0
853.0
846.0
841.0
835.0
836.0
836.0
835.0
837.0
835.0
834.0
832.0
830.0
826.0
823.0
825.0
826.0
824.0
826.0
829.0
829.0
829.0
825.0
825.0
824.0
822.0
823.0
821.0
821.0
823.0
824.0
829.0
829.0
829.0
829.0
825.0
825.0
823.0
820.0
818.0
817.0
824.0
824.0
827.0
829.0
829.0
828.0
828.0
828.0
828.0
826.0
825.0
822.0
822.0
823.0
824.0
821.0
824.0
824.0
826.0
824.0
822.0
820.0
821.0
820.0
819.0
820.0
820.0
821.0
822.0
819.0
816.0
814.0
812.0
811.0
810.0
808.0
809.0
811.0
815.0
815.0
816.0
814.0
813.0
810.0
810.0
810.0
811.0
811.0
809.0
807.0
810.0
811.0
814.0
814.0
812.0
812.0
810.0
810.0
808.0
805.0
806.0
807.0
807.0
810.0
810.0
813.0
808.0
812.0
809.0
808.0
810.0
809.0
808.0
806.0
809.0
811.0
813.0
810.0
811.0
811.0
807.0
804.0
803.0
803.0
803.0
805.0
806.0
811.0
811.0
810.0
812.0
812.0
808.0
808.0
806.0
805.0
804.0
804.0
809.0
810.0
811.0
810.0
812.0
809.0
806.0
804.0
805.0
803.0
805.0
806.0
807.0
811.0
813.0
812.0
808.0
808.0
805.0
804.0
803.0
806.0
805.0
806.0
810.0
810.0
811.0
812.0
807.0
810.0
808.0
807.0
806.0
803.0
806.0
802.0
803.0
805.0
810.0
810.0
813.0
811.0
809.0
807.0
806.0
804.0
805.0
808.0
807.0
807.0
810.0
808.0
806.0
806.0
808.0
805.0
803.0
805.0
805.0
805.0
806.0
810.0
812.0
813.0
814.0
811.0
812.0
806.0
808.0
805.0
807.0
809.0
809.0
808.0
815.0
812.0
812.0
812.0
814.0
816.0
818.0
819.0
822.0
824.0
825.0
823.0
828.0
827.0
831.0
833.0
834.0
840.0
840.0
839.0
841.0
841.0
846.0
844.0
843.0
841.0
839.0
837.0
833.0
832.0
824.0
823.0
816.0
819.0
816.0
813.0
817.0
816.0
814.0
811.0
813.0
810.0
809.0
805.0
805.0
807.0
804.0
805.0
805.0
801.0
803.0
805.0
803.0
804.0
804.0
801.0
800.0
802.0
805.0
806.0
809.0
810.0
810.0
809.0
809.0
805.0
804.0
808.0
814.0
828.0
843.0
861.0
887.0
913.0
936.0
959.0
962.0
949.0
914.0
862.0
804.0
747.0
691.0
652.0
632.0
630.0
640.0
667.0
688.0
710.0
731.0
745.0
761.0
774.0
787.0
800.0
808.0
809.0
812.0
809.0
808.0
808.0
809.0
807.0
809.0
814.0
816.0
812.0
822.0
824.0
822.0
823.0
822.0
822.0
820.0
819.0
819.0
823.0
823.0
823.0
825.0
824.0
826.0
826.0
826.0
826.0
827.0
826.0
828.0
832.0
832.0
833.0
835.0
838.0
836.0
836.0
836.0
835.0
834.0
831.0
832.0
834.0
841.0
842.0
847.0
848.0
849.0
846.0
846.0
847.0
849.0
851.0
849.0
852.0
859.0
862.0
868.0
871.0
871.0
877.0
876.0
875.0
879.0
878.0
884.0
891.0
897.0
903.0
907.0
908.0
910.0
907.0
914.0
915.0
916.0
916.0
921.0
927.0
932.0
935.0
940.0
942.0
941.0
939.0
938.0
937.0
938.0
937.0
935.0
937.0
939.0
939.0
937.0
938.0
934.0
930.0
927.0
919.0
914.0
910.0
905.0
901.0
898.0
894.0
893.0
885.0
877.0
875.0
863.0
860.0
857.0
849.0
847.0
845.0
847.0
844.0
841.0
839.0
838.0
835.0
829.0
826.0
825.0
822.0
822.0
823.0
819.0
824.0
825.0
822.0
821.0
822.0
823.0
820.0
817.0
818.0
818.0
816.0
819.0
822.0
825.0
824.0
824.0
822.0
822.0
820.0
820.0
819.0
818.0
821.0
819.0
822.0
825.0
824.0
823.0
822.0
820.0
820.0
822.0
818.0
820.0
820.0
823.0
820.0
825.0
825.0
827.0
824.0
817.0
820.0
819.0
816.0
816.0
815.0
818.0
819.0
822.0
820.0
822.0
820.0
817.0
816.0
814.0
813.0
812.0
813.0
813.0
813.0
814.0
811.0
810.0
811.0
810.0
810.0
810.0
808.0
806.0
807.0
811.0
812.0
811.0
811.0
812.0
811.0
809.0
808.0
808.0
805.0
807.0
807.0
809.0
811.0
815.0
815.0
812.0
811.0
808.0
806.0
804.0
807.0
805.0
807.0
808.0
811.0
812.0
812.0
812.0
812.0
810.0
809.0
809.0
807.0
805.0
807.0
812.0
812.0
816.0
815.0
815.0
815.0
810.0
811.0
806.0
806.0
806.0
805.0
808.0
808.0
810.0
814.0
814.0
815.0
811.0
813.0
810.0
809.0
809.0
809.0
810.0
813.0
812.0
815.0
814.0
811.0
810.0
811.0
811.0
810.0
809.0
812.0
812.0
816.0
816.0
816.0
813.0
812.0
810.0
806.0
808.0
808.0
809.0
809.0
810.0
810.0
814.0
815.0
814.0
814.0
814.0
814.0
813.0
814.0
808.0
809.0
811.0
813.0
814.0
814.0
813.0
815.0
811.0
810.0
809.0
809.0
813.0
815.0
815.0
815.0
815.0
818.0
817.0
816.0
814.0
813.0
810.0
810.0
810.0
812.0
814.0
818.0
818.0
821.0
819.0
820.0
817.0
818.0
818.0
814.0
815.0
818.0
819.0
818.0
821.0
821.0
821.0
817.0
818.0
819.0
819.0
818.0
820.0
821.0
829.0
830.0
834.0
835.0
836.0
839.0
835.0
834.0
834.0
836.0
841.0
845.0
846.0
849.0
851.0
852.0
853.0
849.0
846.0
843.0
837.0
833.0
835.0
835.0
836.0
836.0
836.0
832.0
828.0
828.0
823.0
819.0
816.0
812.0
811.0
812.0
814.0
814.0
814.0
815.0
813.0
811.0
808.0
806.0
805.0
804.0
805.0
808.0
813.0
812.0
810.0
813.0
813.0
811.0
809.0
810.0
807.0
810.0
806.0
811.0
813.0
813.0
824.0
822.0
831.0
843.0
861.0
879.0
903.0
930.0
959.0
981.0
990.0
977.0
947.0
902.0
847.0
789.0
736.0
691.0
669.0
665.0
681.0
709.0
738.0
761.0
781.0
797.0
811.0
815.0
822.0
823.0
821.0
821.0
819.0
820.0
823.0
825.0
831.0
834.0
833.0
833.0
831.0
831.0
831.0
831.0
832.0
835.0
836.0
836.0
840.0
841.0
843.0
840.0
842.0
841.0
842.0
841.0
842.0
844.0
844.0
844.0
848.0
849.0
850.0
848.0
849.0
850.0
851.0
848.0
851.0
851.0
858.0
856.0
859.0
861.0
863.0
863.0
861.0
863.0
860.0
862.0
864.0
870.0
872.0
872.0
878.0
881.0
881.0
886.0
886.0
889.0
889.0
890.0
895.0
897.0
902.0
907.0
912.0
915.0
919.0
922.0
924.0
928.0
932.0
936.0
937.0
941.0
944.0
951.0
955.0
956.0
957.0
954.0
958.0
958.0
957.0
952.0
955.0
956.0
960.0
966.0
963.0
965.0
961.0
957.0
952.0
946.0
941.0
930.0
922.0
920.0
917.0
910.0
908.0
903.0
898.0
892.0
883.0
877.0
871.0
865.0
860.0
856.0
853.0
852.0
852.0
847.0
846.0
842.0
839.0
838.0
835.0
836.0
836.0
834.0
837.0
835.0
840.0
836.0
833.0
833.0
831.0
830.0
828.0
827.0
826.0
828.0
832.0
831.0
835.0
836.0
838.0
835.0
833.0
830.0
832.0
830.0
830.0
829.0
831.0
833.0
834.0
829.0
832.0
832.0
832.0
832.0
830.0
828.0
831.0
829.0
835.0
834.0
833.0
834.0
833.0
833.0
829.0
826.0
828.0
825.0
825.0
828.0
829.0
831.0
832.0
833.0
829.0
828.0
826.0
822.0
818.0
817.0
816.0
817.0
820.0
820.0
822.0
823.0
824.0
822.0
823.0
823.0
817.0
819.0
819.0
821.0
819.0
819.0
820.0
821.0
819.0
818.0
818.0
816.0
814.0
815.0
814.0
814.0
817.0
815.0
818.0
821.0
818.0
820.0
818.0
816.0
813.0
813.0
812.0
812.0
815.0
817.0
816.0
817.0
818.0
814.0
812.0
814.0
812.0
810.0
811.0
810.0
810.0
813.0
814.0
816.0
817.0
811.0
811.0
809.0
807.0
810.0
811.0
812.0
815.0
812.0
814.0
815.0
816.0
812.0
809.0
809.0
808.0
809.0
808.0
810.0
808.0
812.0
813.0
814.0
816.0
815.0
810.0
811.0
810.0
808.0
807.0
805.0
808.0
808.0
811.0
814.0
811.0
815.0
810.0
807.0
806.0
803.0
805.0
808.0
810.0
813.0
814.0
814.0
810.0
811.0
810.0
807.0
807.0
807.0
805.0
806.0
811.0
808.0
810.0
811.0
812.0
813.0
810.0
809.0
807.0
807.0
807.0
807.0
805.0
808.0
813.0
814.0
816.0
812.0
810.0
808.0
806.0
804.0
805.0
808.0
807.0
808.0
810.0
809.0
809.0
807.0
810.0
809.0
809.0
810.0
809.0
811.0
809.0
813.0
814.0
814.0
814.0
812.0
807.0
809.0
805.0
805.0
805.0
804.0
808.0
811.0
813.0
815.0
812.0
817.0
816.0
817.0
816.0
816.0
820.0
822.0
827.0
827.0
831.0
831.0
832.0
829.0
832.0
839.0
839.0
840.0
842.0
843.0
847.0
843.0
841.0
840.0
837.0
835.0
831.0
828.0
826.0
822.0
823.0
821.0
820.0
819.0
817.0
814.0
814.0
814.0
812.0
811.0
804.0
801.0
802.0
801.0
804.0
804.0
807.0
808.0
806.0
807.0
803.0
801.0
799.0
798.0
800.0
799.0
802.0
804.0
807.0
806.0
809.0
806.0
806.0
802.0
801.0
804.0
811.0
819.0
831.0
846.0
866.0
890.0
912.0
939.0
957.0
956.0
942.0
908.0
862.0
808.0
754.0
706.0
673.0
651.0
645.0
658.0
675.0
697.0
718.0
736.0
751.0
767.0
782.0
793.0
807.0
811.0
814.0
817.0
815.0
811.0
811.0
808.0
814.0
815.0
818.0
819.0
820.0
821.0
823.0
825.0
821.0
823.0
820.0
820.0
820.0
822.0
828.0
829.0
832.0
832.0
832.0
831.0
833.0
831.0
830.0
828.0
831.0
830.0
830.0
836.0
838.0
838.0
840.0
838.0
838.0
839.0
837.0
834.0
838.0
839.0
842.0
846.0
847.0
849.0
850.0
853.0
851.0
851.0
852.0
851.0
859.0
858.0
862.0
869.0
874.0
878.0
881.0
880.0
884.0
884.0
885.0
890.0
893.0
899.0
900.0
907.0
914.0
920.0
923.0
927.0
921.0
926.0
927.0
929.0
932.0
936.0
938.0
943.0
946.0
946.0
946.0
946.0
946.0
950.0
945.0
943.0
937.0
940.0
939.0
944.0
943.0
938.0
934.0
927.0
922.0
912.0
907.0
898.0
893.0
884.0
881.0
875.0
874.0
869.0
863.0
860.0
855.0
848.0
840.0
838.0
835.0
828.0
831.0
828.0
829.0
827.0
827.0
824.0
818.0
819.0
815.0
816.0
816.0
817.0
816.0
816.0
819.0
820.0
819.0
818.0
818.0
817.0
815.0
811.0
813.0
814.0
815.0
815.0
817.0
820.0
818.0
822.0
817.0
817.0
816.0
812.0
812.0
813.0
814.0
813.0
817.0
818.0
821.0
820.0
818.0
814.0
815.0
817.0
815.0
815.0
819.0
818.0
820.0
822.0
818.0
818.0
814.0
814.0
811.0
810.0
811.0
810.0
812.0
813.0
819.0
818.0
814.0
814.0
814.0
809.0
807.0
808.0
805.0
804.0
805.0
805.0
804.0
807.0
808.0
808.0
806.0
805.0
803.0
801.0
801.0
799.0
806.0
804.0
804.0
806.0
804.0
802.0
799.0
797.0
795.0
797.0
798.0
799.0
802.0
803.0
804.0
805.0
801.0
802.0
799.0
798.0
800.0
797.0
793.0
795.0
795.0
798.0
802.0
806.0
804.0
803.0
804.0
803.0
799.0
799.0
799.0
801.0
801.0
805.0
805.0
807.0
802.0
806.0
802.0
801.0
798.0
799.0
799.0
803.0
803.0
803.0
805.0
807.0
807.0
806.0
804.0
802.0
801.0
799.0
798.0
800.0
802.0
805.0
807.0
807.0
805.0
804.0
807.0
804.0
802.0
801.0
801.0
800.0
805.0
806.0
807.0
806.0
802.0
804.0
804.0
803.0
798.0
799.0
799.0
801.0
805.0
803.0
808.0
812.0
810.0
811.0
809.0
806.0
805.0
803.0
800.0
802.0
803.0
807.0
809.0
812.0
813.0
810.0
809.0
810.0
803.0
800.0
796.0
798.0
802.0
805.0
805.0
808.0
807.0
810.0
804.0
804.0
804.0
802.0
800.0
805.0
812.0
810.0
812.0
812.0
811.0
807.0
806.0
808.0
805.0
805.0
803.0
806.0
807.0
808.0
811.0
815.0
812.0
812.0
814.0
810.0
809.0
808.0
806.0
808.0
810.0
811.0
812.0
814.0
814.0
814.0
814.0
811.0
812.0
810.0
818.0
824.0
824.0
826.0
827.0
833.0
833.0
834.0
834.0
835.0
834.0
837.0
838.0
837.0
839.0
841.0
839.0
839.0
837.0
835.0
829.0
829.0
830.0
827.0
826.0
823.0
823.0
818.0
816.0
813.0
812.0
809.0
809.0
806.0
807.0
806.0
806.0
808.0
810.0
808.0
810.0
808.0
807.0
806.0
804.0
799.0
797.0
799.0
798.0
799.0
800.0
801.0
809.0
809.0
810.0
812.0
809.0
810.0
810.0
810.0
809.0
816.0
823.0
835.0
855.0
879.0
906.0
935.0
962.0
979.0
981.0
964.0
928.0
881.0
829.0
779.0
731.0
693.0
670.0
664.0
675.0
696.0
720.0
732.0
747.0
767.0
784.0
797.0
808.0
819.0
820.0
822.0
818.0
818.0
813.0
811.0
815.0
813.0
818.0
824.0
824.0
828.0
831.0
829.0
828.0
827.0
828.0
826.0
827.0
830.0
831.0
835.0
835.0
836.0
836.0
834.0
835.0
832.0
832.0
830.0
833.0
832.0
835.0
836.0
844.0
843.0
845.0
845.0
846.0
844.0
843.0
843.0
842.0
845.0
847.0
851.0
853.0
857.0
856.0
859.0
860.0
859.0
856.0
858.0
863.0
864.0
867.0
871.0
874.0
880.0
880.0
883.0
886.0
888.0
886.0
891.0
893.0
898.0
904.0
908.0
915.0
920.0
922.0
926.0
930.0
930.0
928.0
932.0
933.0
940.0
945.0
947.0
952.0
956.0
955.0
958.0
961.0
957.0
953.0
953.0
952.0
953.0
953.0
951.0
950.0
947.0
943.0
937.0
929.0
926.0
917.0
910.0
907.0
901.0
896.0
892.0
887.0
882.0
877.0
870.0
861.0
857.0
852.0
847.0
845.0
840.0
840.0
836.0
838.0
840.0
836.0
834.0
830.0
827.0
825.0
823.0
822.0
823.0
821.0
822.0
822.0
826.0
829.0
827.0
826.0
827.0
823.0
820.0
821.0
820.0
822.0
821.0
822.0
822.0
822.0
821.0
821.0
819.0
822.0
819.0
821.0
821.0
824.0
826.0
830.0
829.0
827.0
828.0
