# Simple Text Format
# Sampling Rate (Hz):= 360.00
# Resolution:= 12
# Labels:= ECG
829.0
827.0
827.0
833.0
831.0
834.0
836.0
836.0
834.0
832.0
829.0
832.0
829.0
827.0
829.0
831.0
831.0
830.0
832.0
830.0
832.0
832.0
832.0
832.0
832.0
831.0
830.0
833.0
836.0
835.0
836.0
835.0
831.0
831.0
830.0
828.0
827.0
828.0
829.0
835.0
833.0
836.0
839.0
837.0
836.0
833.0
834.0
833.0
832.0
829.0
830.0
833.0
837.0
844.0
843.0
846.0
851.0
848.0
850.0
846.0
851.0
853.0
856.0
861.0
865.0
867.0
871.0
871.0
872.0
867.0
866.0
861.0
856.0
852.0
853.0
852.0
855.0
856.0
854.0
848.0
846.0
837.0
834.0
832.0
832.0
829.0
829.0
830.0
831.0
832.0
831.0
832.0
829.0
828.0
825.0
821.0
819.0
818.0
818.0
822.0
822.0
825.0
824.0
821.0
825.0
823.0
821.0
821.0
821.0
818.0
821.0
823.0
825.0
828.0
828.0
830.0
832.0
834.0
839.0
849.0
863.0
883.0
906.0
933.0
960.0
980.0
987.0
973.0
942.0
895.0
842.0
793.0
747.0
710.0
682.0
673.0
681.0
704.0
724.0
744.0
762.0
773.0
783.0
792.0
806.0
818.0
827.0
828.0
833.0
836.0
837.0
834.0
839.0
838.0
836.0
833.0
834.0
837.0
833.0
837.0
838.0
842.0
845.0
842.0
845.0
845.0
845.0
844.0
839.0
843.0
844.0
847.0
851.0
854.0
853.0
849.0
852.0
850.0
850.0
847.0
846.0
849.0
852.0
854.0
856.0
858.0
860.0
862.0
861.0
862.0
857.0
855.0
858.0
859.0
860.0
860.0
867.0
867.0
871.0
874.0
876.0
876.0
876.0
874.0
876.0
878.0
881.0
885.0
888.0
892.0
896.0
898.0
900.0
904.0
907.0
906.0
911.0
914.0
920.0
923.0
926.0
931.0
935.0
937.0
941.0
947.0
947.0
946.0
947.0
950.0
953.0
958.0
960.0
965.0
967.0
968.0
966.0
965.0
964.0
960.0
959.0
959.0
957.0
959.0
954.0
955.0
955.0
947.0
942.0
937.0
931.0
921.0
913.0
907.0
898.0
895.0
896.0
894.0
888.0
883.0
877.0
870.0
860.0
859.0
852.0
851.0
851.0
849.0
847.0
847.0
850.0
847.0
846.0
842.0
841.0
840.0
833.0
832.0
836.0
835.0
840.0
838.0
839.0
837.0
836.0
837.0
837.0
834.0
836.0
834.0
835.0
833.0
835.0
838.0
840.0
835.0
833.0
833.0
831.0
828.0
830.0
828.0
831.0
832.0
836.0
835.0
836.0
838.0
836.0
835.0
832.0
829.0
830.0
829.0
824.0
827.0
827.0
828.0
833.0
833.0
831.0
832.0
829.0
827.0
827.0
825.0
826.0
826.0
827.0
827.0
828.0
822.0
821.0
819.0
819.0
814.0
815.0
817.0
820.0
817.0
820.0
823.0
825.0
823.0
820.0
819.0
818.0
817.0
816.0
813.0
813.0
813.0
818.0
820.0
819.0
816.0
815.0
815.0
812.0
814.0
814.0
812.0
812.0
812.0
812.0
819.0
817.0
819.0
814.0
815.0
813.0
812.0
812.0
809.0
808.0
817.0
817.0
819.0
821.0
819.0
816.0
814.0
812.0
808.0
810.0
809.0
810.0
813.0
816.0
818.0
819.0
819.0
815.0
816.0
814.0
809.0
812.0
810.0
811.0
810.0
812.0
815.0
817.0
817.0
818.0
819.0
815.0
812.0
813.0
812.0
811.0
814.0
813.0
817.0
817.0
816.0
815.0
811.0
811.0
808.0
809.0
810.0
810.0
810.0
816.0
818.0
820.0
820.0
818.0
815.0
814.0
811.0
812.0
809.0
807.0
812.0
814.0
817.0
816.0
816.0
817.0
817.0
813.0
812.0
810.0
813.0
814.0
814.0
814.0
819.0
820.0
821.0
819.0
818.0
817.0
818.0
817.0
817.0
819.0
819.0
818.0
824.0
823.0
825.0
823.0
822.0
820.0
818.0
816.0
814.0
817.0
819.0
822.0
824.0
822.0
827.0
826.0
829.0
832.0
835.0
833.0
835.0
834.0
834.0
838.0
841.0
847.0
847.0
851.0
848.0
849.0
848.0
847.0
846.0
846.0
844.0
844.0
844.0
841.0
838.0
840.0
837.0
834.0
826.0
819.0
819.0
816.0
813.0
817.0
821.0
820.0
821.0
817.0
816.0
814.0
812.0
809.0
808.0
806.0
807.0
812.0
812.0
815.0
814.0
816.0
814.0
814.0
810.0
811.0
813.0
813.0
815.0
818.0
821.0
821.0
823.0
822.0
822.0
831.0
836.0
850.0
871.0
894.0
921.0
950.0
975.0
987.0
983.0
952.0
906.0
850.0
792.0
739.0
690.0
657.0
639.0
643.0
657.0
684.0
712.0
729.0
744.0
757.0
767.0
779.0
794.0
806.0
818.0
824.0
826.0
827.0
825.0
825.0
824.0
824.0
825.0
823.0
828.0
831.0
832.0
836.0
838.0
841.0
844.0
840.0
840.0
839.0
839.0
841.0
836.0
838.0
839.0
844.0
846.0
851.0
849.0
850.0
846.0
847.0
845.0
847.0
847.0
849.0
850.0
852.0
858.0
858.0
859.0
858.0
856.0
858.0
857.0
859.0
863.0
862.0
864.0
865.0
871.0
872.0
876.0
874.0
877.0
875.0
874.0
879.0
880.0
883.0
890.0
893.0
896.0
901.0
902.0
906.0
906.0
906.0
908.0
911.0
912.0
914.0
923.0
927.0
933.0
940.0
942.0
946.0
945.0
947.0
951.0
949.0
951.0
954.0
960.0
957.0
965.0
963.0
962.0
961.0
961.0
962.0
956.0
953.0
955.0
947.0
950.0
947.0
947.0
946.0
938.0
934.0
927.0
922.0
915.0
907.0
901.0
896.0
895.0
893.0
888.0
887.0
883.0
878.0
874.0
869.0
866.0
858.0
857.0
853.0
857.0
854.0
856.0
857.0
851.0
852.0
850.0
845.0
846.0
845.0
844.0
847.0
847.0
849.0
851.0
851.0
850.0
850.0
850.0
846.0
847.0
841.0
840.0
843.0
842.0
844.0
848.0
851.0
851.0
849.0
850.0
849.0
847.0
847.0
848.0
847.0
847.0
848.0
850.0
849.0
852.0
849.0
851.0
848.0
847.0
846.0
843.0
848.0
845.0
849.0
851.0
853.0
850.0
850.0
848.0
843.0
841.0
842.0
841.0
842.0
841.0
843.0
843.0
840.0
838.0
837.0
839.0
836.0
836.0
832.0
834.0
832.0
834.0
835.0
840.0
841.0
839.0
839.0
837.0
836.0
835.0
833.0
832.0
832.0
836.0
837.0
838.0
837.0
838.0
836.0
834.0
834.0
829.0
828.0
831.0
830.0
834.0
832.0
838.0
834.0
835.0
834.0
831.0
833.0
830.0
828.0
828.0
831.0
832.0
833.0
837.0
836.0
834.0
835.0
832.0
834.0
833.0
831.0
833.0
832.0
833.0
835.0
837.0
836.0
839.0
837.0
835.0
835.0
832.0
832.0
833.0
834.0
833.0
834.0
835.0
835.0
837.0
837.0
834.0
832.0
833.0
830.0
830.0
832.0
834.0
835.0
836.0
840.0
841.0
839.0
837.0
834.0
830.0
831.0
831.0
827.0
830.0
833.0
836.0
840.0
839.0
838.0
838.0
838.0
837.0
832.0
834.0
836.0
838.0
839.0
842.0
838.0
837.0
837.0
836.0
833.0
832.0
833.0
832.0
834.0
835.0
839.0
841.0
843.0
845.0
842.0
838.0
837.0
836.0
836.0
836.0
834.0
836.0
837.0
838.0
839.0
844.0
841.0
840.0
843.0
840.0
838.0
838.0
841.0
843.0
841.0
848.0
851.0
852.0
852.0
858.0
857.0
856.0
856.0
856.0
856.0
861.0
865.0
871.0
874.0
876.0
874.0
872.0
868.0
865.0
862.0
858.0
857.0
856.0
859.0
863.0
859.0
860.0
854.0
851.0
843.0
842.0
836.0
834.0
833.0
833.0
833.0
836.0
840.0
839.0
838.0
836.0
831.0
831.0
829.0
829.0
831.0
834.0
834.0
833.0
836.0
832.0
836.0
834.0
834.0
833.0
831.0
830.0
831.0
835.0
834.0
837.0
840.0
845.0
849.0
857.0
867.0
891.0
909.0
937.0
964.0
992.0
1006.0
1007.0
996.0
965.0
916.0
862.0
807.0
755.0
717.0
698.0
691.0
704.0
726.0
752.0
774.0
786.0
801.0
812.0
821.0
826.0
829.0
839.0
844.0
846.0
852.0
851.0
851.0
852.0
852.0
852.0
853.0
851.0
852.0
853.0
853.0
854.0
856.0
857.0
861.0
860.0
862.0
858.0
859.0
860.0
859.0
859.0
858.0
858.0
865.0
860.0
866.0
866.0
864.0
866.0
865.0
864.0
863.0
866.0
867.0
869.0
871.0
876.0
877.0
878.0
877.0
875.0
876.0
874.0
875.0
878.0
877.0
883.0
888.0
891.0
895.0
893.0
894.0
894.0
895.0
896.0
899.0
901.0
904.0
907.0
911.0
914.0
918.0
923.0
927.0
930.0
933.0
932.0
936.0
938.0
943.0
948.0
953.0
957.0
958.0
964.0
966.0
969.0
972.0
970.0
973.0
973.0
974.0
979.0
982.0
985.0
988.0
987.0
987.0
988.0
982.0
980.0
976.0
973.0
969.0
965.0
964.0
963.0
957.0
952.0
943.0
936.0
930.0
922.0
913.0
909.0
902.0
900.0
894.0
893.0
887.0
884.0
878.0
873.0
870.0
864.0
861.0
858.0
858.0
860.0
860.0
862.0
862.0
861.0
860.0
857.0
854.0
851.0
850.0
848.0
846.0
850.0
852.0
851.0
854.0
855.0
854.0
853.0
855.0
853.0
850.0
851.0
850.0
852.0
853.0
856.0
857.0
857.0
855.0
854.0
851.0
849.0
851.0
852.0
851.0
854.0
857.0
856.0
860.0
858.0
856.0
855.0
852.0
854.0
852.0
849.0
849.0
848.0
851.0
851.0
852.0
854.0
853.0
851.0
848.0
850.0
848.0
846.0
848.0
848.0
849.0
848.0
850.0
851.0
851.0
846.0
845.0
841.0
842.0
838.0
843.0
841.0
841.0
840.0
841.0
842.0
843.0
839.0
838.0
839.0
835.0
835.0
835.0
837.0
836.0
840.0
840.0
835.0
839.0
843.0
836.0
836.0
835.0
835.0
831.0
833.0
836.0
841.0
840.0
838.0
838.0
838.0
835.0
836.0
832.0
836.0
835.0
836.0
838.0
836.0
839.0
834.0
838.0
839.0
838.0
835.0
833.0
831.0
833.0
832.0
832.0
836.0
839.0
840.0
841.0
841.0
837.0
836.0
829.0
829.0
832.0
833.0
834.0
836.0
838.0
839.0
837.0
836.0
835.0
834.0
835.0
831.0
835.0
835.0
835.0
838.0
840.0
841.0
840.0
835.0
832.0
830.0
831.0
828.0
828.0
831.0
837.0
836.0
839.0
839.0
838.0
837.0
837.0
834.0
833.0
831.0
834.0
833.0
840.0
838.0
836.0
835.0
835.0
836.0
833.0
830.0
831.0
830.0
829.0
835.0
836.0
835.0
838.0
839.0
838.0
835.0
833.0
829.0
829.0
828.0
829.0
832.0
834.0
832.0
835.0
837.0
836.0
836.0
833.0
833.0
833.0
830.0
831.0
831.0
833.0
833.0
834.0
835.0
835.0
836.0
834.0
833.0
832.0
831.0
831.0
832.0
834.0
838.0
841.0
840.0
838.0
840.0
838.0
838.0
838.0
838.0
841.0
846.0
850.0
851.0
854.0
858.0
855.0
860.0
862.0
864.0
867.0
864.0
866.0
864.0
867.0
868.0
871.0
865.0
865.0
860.0
861.0
858.0
855.0
852.0
849.0
849.0
846.0
843.0
840.0
835.0
834.0
836.0
835.0
832.0
834.0
829.0
829.0
831.0
835.0
835.0
834.0
834.0
833.0
831.0
829.0
829.0
826.0
825.0
827.0
824.0
828.0
832.0
836.0
835.0
834.0
835.0
833.0
833.0
834.0
834.0
838.0
845.0
855.0
871.0
895.0
916.0
939.0
965.0
984.0
992.0
986.0
958.0
918.0
869.0
820.0
772.0
730.0
693.0
673.0
672.0
686.0
704.0
727.0
741.0
758.0
774.0
787.0
806.0
822.0
829.0
835.0
842.0
840.0
839.0
834.0
835.0
836.0
835.0
841.0
844.0
849.0
847.0
851.0
851.0
850.0
851.0
851.0
848.0
847.0
849.0
854.0
854.0
857.0
858.0
857.0
859.0
856.0
859.0
858.0
856.0
856.0
860.0
861.0
867.0
868.0
869.0
870.0
869.0
867.0
868.0
867.0
866.0
864.0
866.0
870.0
874.0
877.0
877.0
879.0
880.0
880.0
879.0
879.0
881.0
884.0
890.0
891.0
896.0
903.0
903.0
905.0
907.0
908.0
911.0
912.0
914.0
916.0
923.0
924.0
930.0
939.0
940.0
947.0
947.0
949.0
951.0
949.0
951.0
957.0
962.0
967.0
972.0
976.0
975.0
976.0
980.0
980.0
980.0
979.0
981.0
979.0
978.0
976.0
978.0
979.0
973.0
970.0
967.0
963.0
955.0
950.0
946.0
938.0
936.0
931.0
928.0
923.0
917.0
914.0
908.0
899.0
893.0
885.0
881.0
876.0
876.0
873.0
873.0
873.0
871.0
867.0
862.0
861.0
856.0
852.0
851.0
852.0
851.0
853.0
857.0
855.0
857.0
853.0
852.0
852.0
848.0
847.0
845.0
846.0
850.0
852.0
853.0
857.0
858.0
854.0
855.0
851.0
848.0
848.0
848.0
847.0
851.0
850.0
853.0
857.0
858.0
854.0
854.0
851.0
851.0
849.0
848.0
848.0
848.0
849.0
852.0
856.0
853.0
853.0
853.0
851.0
848.0
850.0
847.0
845.0
847.0
851.0
852.0
852.0
851.0
850.0
848.0
846.0
843.0
841.0
840.0
837.0
841.0
844.0
846.0
848.0
846.0
849.0
844.0
841.0
839.0
837.0
835.0
834.0
834.0
836.0
840.0
841.0
842.0
841.0
837.0
839.0
838.0
834.0
829.0
833.0
835.0
834.0
837.0
839.0
838.0
838.0
840.0
838.0
835.0
832.0
832.0
834.0
835.0
837.0
840.0
840.0
839.0
840.0
840.0
838.0
836.0
836.0
834.0
835.0
834.0
836.0
838.0
842.0
841.0
835.0
836.0
836.0
836.0
836.0
831.0
832.0
836.0
839.0
839.0
842.0
840.0
839.0
838.0
836.0
837.0
837.0
836.0
837.0
837.0
839.0
841.0
842.0
839.0
839.0
839.0
837.0
836.0
832.0
832.0
835.0
836.0
839.0
842.0
843.0
839.0
841.0
835.0
839.0
843.0
841.0
837.0
835.0
839.0
842.0
841.0
842.0
844.0
845.0
846.0
843.0
840.0
841.0
841.0
840.0
841.0
843.0
845.0
848.0
847.0
846.0
846.0
842.0
840.0
839.0
840.0
839.0
842.0
842.0
845.0
848.0
847.0
847.0
849.0
847.0
845.0
844.0
840.0
840.0
843.0
843.0
845.0
851.0
848.0
848.0
847.0
846.0
844.0
846.0
847.0
846.0
850.0
851.0
855.0
858.0
861.0
863.0
862.0
867.0
864.0
864.0
863.0
862.0
867.0
871.0
876.0
879.0
881.0
883.0
886.0
880.0
876.0
874.0
873.0
869.0
865.0
867.0
867.0
870.0
868.0
868.0
864.0
858.0
854.0
851.0
848.0
846.0
847.0
848.0
849.0
850.0
847.0
847.0
846.0
843.0
839.0
838.0
836.0
835.0
840.0
842.0
843.0
845.0
847.0
844.0
844.0
843.0
844.0
838.0
837.0
836.0
841.0
847.0
847.0
854.0
853.0
856.0
862.0
873.0
892.0
911.0
942.0
972.0
1000.0
1019.0
1017.0
999.0
954.0
901.0
843.0
786.0
738.0
706.0
695.0
703.0
728.0
754.0
777.0
796.0
812.0
818.0
829.0
837.0
845.0
847.0
849.0
852.0
853.0
855.0
854.0
855.0
855.0
857.0
856.0
859.0
860.0
860.0
858.0
859.0
861.0
866.0
865.0
869.0
869.0
873.0
870.0
871.0
868.0
867.0
866.0
869.0
872.0
870.0
873.0
875.0
876.0
875.0
878.0
878.0
877.0
876.0
875.0
876.0
875.0
882.0
885.0
888.0
888.0
891.0
889.0
887.0
889.0
890.0
889.0
889.0
894.0
898.0
903.0
907.0
912.0
912.0
914.0
915.0
911.0
912.0
916.0
921.0
922.0
926.0
933.0
940.0
945.0
949.0
952.0
952.0
954.0
955.0
958.0
959.0
965.0
974.0
977.0
981.0
984.0
984.0
986.0
985.0
985.0
987.0
983.0
988.0
988.0
984.0
988.0
987.0
985.0
983.0
980.0
974.0
965.0
961.0
949.0
943.0
942.0
937.0
932.0
930.0
925.0
918.0
911.0
905.0
902.0
896.0
889.0
884.0
880.0
877.0
875.0
875.0
874.0
874.0
867.0
865.0
865.0
863.0
861.0
857.0
853.0
855.0
859.0
861.0
861.0
862.0
862.0
857.0
856.0
854.0
854.0
854.0
858.0
857.0
858.0
862.0
861.0
862.0
862.0
862.0
861.0
860.0
855.0
853.0
858.0
858.0
856.0
860.0
860.0
862.0
861.0
864.0
861.0
859.0
858.0
857.0
858.0
859.0
859.0
865.0
860.0
859.0
859.0
857.0
856.0
855.0
851.0
852.0
855.0
857.0
857.0
859.0
859.0
854.0
855.0
850.0
850.0
851.0
847.0
847.0
850.0
846.0
849.0
847.0
852.0
851.0
848.0
846.0
846.0
842.0
840.0
839.0
843.0
847.0
848.0
846.0
845.0
842.0
841.0
845.0
843.0
843.0
842.0
840.0
840.0
839.0
842.0
847.0
849.0
848.0
846.0
844.0
840.0
840.0
835.0
836.0
837.0
840.0
844.0
848.0
847.0
847.0
846.0
844.0
843.0
839.0
840.0
839.0
837.0
840.0
838.0
843.0
841.0
843.0
845.0
840.0
842.0
841.0
839.0
840.0
839.0
841.0
846.0
845.0
844.0
842.0
841.0
843.0
842.0
840.0
838.0
836.0
841.0
841.0
843.0
847.0
844.0
847.0
846.0
841.0
844.0
844.0
841.0
840.0
843.0
842.0
843.0
845.0
844.0
845.0
845.0
843.0
838.0
837.0
836.0
836.0
838.0
840.0
842.0
848.0
844.0
844.0
843.0
841.0
840.0
839.0
838.0
840.0
839.0
842.0
846.0
848.0
847.0
847.0
845.0
843.0
841.0
841.0
841.0
841.0
836.0
838.0
842.0
843.0
843.0
841.0
841.0
842.0
843.0
842.0
842.0
841.0
840.0
845.0
842.0
843.0
843.0
842.0
841.0
844.0
841.0
841.0
840.0
843.0
842.0
843.0
846.0
848.0
851.0
849.0
846.0
847.0
843.0
843.0
844.0
844.0
845.0
849.0
850.0
853.0
860.0
861.0
864.0
865.0
864.0
865.0
863.0
863.0
865.0
870.0
875.0
879.0
879.0
877.0
879.0
878.0
875.0
870.0
867.0
865.0
864.0
861.0
868.0
868.0
864.0
856.0
852.0
847.0
841.0
839.0
834.0
835.0
839.0
842.0
843.0
843.0
842.0
841.0
840.0
836.0
832.0
830.0
831.0
827.0
831.0
834.0
834.0
835.0
836.0
838.0
834.0
834.0
835.0
834.0
833.0
834.0
836.0
835.0
839.0
839.0
842.0
848.0
856.0
862.0
878.0
892.0
915.0
944.0
972.0
988.0
992.0
976.0
939.0
892.0
834.0
780.0
737.0
701.0
683.0
685.0
702.0
724.0
745.0
771.0
784.0
799.0
812.0
823.0
828.0
833.0
836.0
837.0
839.0
837.0
839.0
840.0
843.0
843.0
847.0
849.0
849.0
849.0
849.0
851.0
851.0
854.0
855.0
857.0
862.0
859.0
863.0
859.0
859.0
859.0
856.0
856.0
857.0
856.0
860.0
864.0
866.0
865.0
864.0
863.0
861.0
863.0
863.0
863.0
861.0
866.0
864.0
871.0
871.0
872.0
873.0
872.0
874.0
871.0
872.0
876.0
878.0
882.0
885.0
889.0
890.0
893.0
895.0
893.0
897.0
892.0
896.0
900.0
905.0
908.0
914.0
922.0
923.0
928.0
933.0
936.0
936.0
940.0
943.0
944.0
950.0
953.0
958.0
964.0
968.0
972.0
975.0
975.0
976.0
976.0
978.0
978.0
979.0
981.0
983.0
983.0
984.0
981.0
981.0
976.0
976.0
969.0
966.0
961.0
959.0
953.0
951.0
949.0
944.0
937.0
930.0
924.0
914.0
907.0
900.0
895.0
891.0
887.0
886.0
881.0
879.0
878.0
874.0
867.0
867.0
862.0
858.0
851.0
852.0
852.0
852.0
855.0
854.0
854.0
849.0
849.0
849.0
840.0
846.0
844.0
846.0
846.0
848.0
851.0
852.0
852.0
850.0
849.0
847.0
843.0
843.0
844.0
845.0
848.0
848.0
849.0
847.0
854.0
853.0
852.0
852.0
849.0
848.0
844.0
844.0
847.0
847.0
848.0
850.0
848.0
849.0
848.0
848.0
845.0
846.0
844.0
845.0
847.0
845.0
846.0
848.0
847.0
846.0
845.0
841.0
840.0
837.0
838.0
839.0
839.0
842.0
842.0
843.0
841.0
839.0
839.0
840.0
836.0
834.0
833.0
833.0
836.0
836.0
836.0
837.0
837.0
836.0
835.0
835.0
831.0
830.0
833.0
834.0
835.0
837.0
838.0
837.0
831.0
837.0
832.0
832.0
830.0
827.0
828.0
827.0
830.0
833.0
833.0
831.0
835.0
831.0
830.0
828.0
827.0
828.0
829.0
829.0
830.0
831.0
833.0
834.0
833.0
834.0
833.0
832.0
830.0
830.0
830.0
831.0
830.0
829.0
835.0
831.0
833.0
835.0
832.0
828.0
827.0
827.0
827.0
828.0
827.0
832.0
832.0
834.0
835.0
834.0
831.0
826.0
827.0
828.0
827.0
827.0
829.0
831.0
833.0
831.0
837.0
834.0
831.0
832.0
830.0
829.0
827.0
831.0
830.0
827.0
827.0
830.0
837.0
836.0
835.0
835.0
834.0
830.0
831.0
833.0
833.0
834.0
836.0
833.0
839.0
838.0
834.0
833.0
832.0
829.0
830.0
830.0
833.0
835.0
839.0
836.0
837.0
837.0
838.0
835.0
832.0
832.0
833.0
830.0
836.0
836.0
838.0
840.0
840.0
840.0
839.0
837.0
835.0
834.0
832.0
834.0
835.0
840.0
837.0
842.0
845.0
844.0
842.0
845.0
847.0
849.0
851.0
855.0
855.0
858.0
859.0
861.0
863.0
861.0
866.0
865.0
867.0
869.0
867.0
869.0
870.0
868.0
870.0
865.0
863.0
864.0
861.0
857.0
851.0
849.0
844.0
841.0
838.0
836.0
835.0
837.0
839.0
839.0
836.0
835.0
834.0
831.0
827.0
830.0
831.0
832.0
833.0
835.0
838.0
838.0
831.0
830.0
827.0
827.0
827.0
829.0
830.0
831.0
834.0
837.0
838.0
836.0
839.0
838.0
837.0
839.0
842.0
854.0
866.0
881.0
905.0
929.0
957.0
983.0
994.0
996.0
973.0
932.0
883.0
829.0
779.0
734.0
702.0
686.0
692.0
713.0
736.0
752.0
771.0
786.0
798.0
813.0
828.0
836.0
843.0
848.0
845.0
846.0
846.0
846.0
842.0
843.0
844.0
846.0
849.0
851.0
850.0
851.0
851.0
854.0
855.0
855.0
856.0
855.0
853.0
854.0
854.0
858.0
862.0
862.0
863.0
862.0
862.0
859.0
864.0
861.0
864.0
865.0
869.0
868.0
872.0
874.0
873.0
869.0
875.0
872.0
870.0
870.0
869.0
872.0
877.0
878.0
881.0
886.0
886.0
887.0
888.0
888.0
889.0
890.0
893.0
893.0
897.0
901.0
906.0
909.0
912.0
913.0
914.0
917.0
919.0
920.0
925.0
927.0
935.0
939.0
944.0
950.0
952.0
955.0
957.0
958.0
960.0
961.0
965.0
968.0
976.0
977.0
979.0
983.0
984.0
984.0
980.0
979.0
975.0
973.0
970.0
970.0
965.0
962.0
959.0
953.0
953.0
950.0
942.0
937.0
932.0
926.0
919.0
914.0
908.0
907.0
903.0
896.0
890.0
886.0
884.0
879.0
874.0
870.0
867.0
866.0
867.0
868.0
867.0
865.0
863.0
862.0
858.0
858.0
855.0
853.0
851.0
849.0
853.0
853.0
856.0
857.0
857.0
855.0
853.0
855.0
850.0
847.0
849.0
851.0
852.0
856.0
852.0
853.0
856.0
856.0
854.0
855.0
852.0
851.0
850.0
852.0
853.0
857.0
857.0
860.0
856.0
856.0
857.0
855.0
853.0
850.0
848.0
852.0
852.0
855.0
856.0
859.0
859.0
856.0
856.0
852.0
849.0
852.0
850.0
850.0
851.0
852.0
851.0
850.0
850.0
851.0
849.0
845.0
846.0
841.0
842.0
843.0
844.0
845.0
846.0
846.0
846.0
846.0
844.0
844.0
840.0
838.0
836.0
840.0
837.0
842.0
841.0
844.0
842.0
843.0
838.0
838.0
838.0
836.0
834.0
834.0
836.0
837.0
840.0
840.0
841.0
841.0
840.0
838.0
836.0
837.0
835.0
836.0
838.0
836.0
837.0
839.0
841.0
837.0
835.0
831.0
832.0
830.0
833.0
832.0
836.0
838.0
840.0
838.0
841.0
840.0
837.0
837.0
834.0
837.0
835.0
836.0
835.0
837.0
836.0
842.0
843.0
843.0
840.0
837.0
830.0
833.0
829.0
828.0
830.0
839.0
838.0
839.0
839.0
839.0
839.0
835.0
835.0
834.0
836.0
834.0
837.0
838.0
841.0
839.0
840.0
839.0
834.0
837.0
833.0
834.0
829.0
834.0
834.0
835.0
838.0
840.0
841.0
841.0
841.0
834.0
838.0
838.0
837.0
839.0
838.0
839.0
840.0
840.0
840.0
837.0
839.0
836.0
835.0
836.0
838.0
836.0
840.0
842.0
845.0
847.0
845.0
847.0
843.0
840.0
840.0
838.0
837.0
835.0
836.0
839.0
841.0
843.0
845.0
844.0
846.0
843.0
839.0
843.0
840.0
841.0
842.0
845.0
847.0
847.0
848.0
847.0
844.0
843.0
842.0
843.0
841.0
843.0
844.0
846.0
855.0
858.0
857.0
858.0
858.0
859.0
860.0
860.0
858.0
860.0
861.0
865.0
867.0
875.0
876.0
878.0
878.0
876.0
875.0
871.0
868.0
867.0
867.0
865.0
868.0
865.0
864.0
862.0
858.0
854.0
849.0
845.0
842.0
844.0
843.0
844.0
847.0
844.0
846.0
845.0
841.0
839.0
832.0
831.0
831.0
832.0
833.0
833.0
838.0
839.0
841.0
840.0
838.0
834.0
833.0
836.0
834.0
836.0
839.0
842.0
841.0
842.0
842.0
842.0
842.0
842.0
844.0
847.0
858.0
870.0
891.0
914.0
938.0
965.0
993.0
1008.0
1007.0
989.0
953.0
904.0
852.0
797.0
752.0
714.0
701.0
702.0
720.0
744.0
763.0
782.0
798.0
809.0
819.0
827.0
837.0
844.0
849.0
853.0
851.0
852.0
847.0
846.0
846.0
849.0
848.0
850.0
849.0
855.0
857.0
854.0
860.0
863.0
863.0
856.0
856.0
855.0
855.0
859.0
860.0
860.0
868.0
868.0
868.0
868.0
869.0
865.0
866.0
865.0
865.0
868.0
870.0
872.0
876.0
876.0
877.0
876.0
872.0
875.0
876.0
875.0
872.0
877.0
878.0
880.0
880.0
883.0
886.0
889.0
888.0
889.0
889.0
889.0
886.0
891.0
894.0
898.0
903.0
906.0
908.0
912.0
913.0
911.0
916.0
915.0
918.0
923.0
928.0
929.0
936.0
941.0
942.0
947.0
949.0
946.0
955.0
956.0
961.0
964.0
965.0
970.0
976.0
977.0
981.0
981.0
980.0
979.0
976.0
973.0
976.0
977.0
978.0
978.0
979.0
981.0
970.0
968.0
960.0
956.0
948.0
942.0
935.0
929.0
927.0
919.0
918.0
915.0
904.0
906.0
899.0
893.0
885.0
881.0
874.0
871.0
872.0
871.0
872.0
871.0
866.0
862.0
857.0
856.0
851.0
850.0
849.0
851.0
851.0
853.0
853.0
856.0
856.0
858.0
851.0
851.0
850.0
849.0
846.0
845.0
844.0
845.0
848.0
854.0
852.0
854.0
852.0
853.0
854.0
850.0
849.0
846.0
849.0
852.0
853.0
852.0
850.0
853.0
854.0
856.0
854.0
852.0
848.0
854.0
853.0
854.0
854.0
856.0
855.0
851.0
850.0
845.0
843.0
843.0
840.0
842.0
846.0
851.0
850.0
853.0
854.0
853.0
851.0
848.0
844.0
843.0
840.0
841.0
841.0
842.0
844.0
847.0
846.0
845.0
842.0
842.0
841.0
841.0
841.0
842.0
841.0
843.0
844.0
846.0
846.0
843.0
845.0
840.0
839.0
837.0
836.0
838.0
841.0
842.0
845.0
844.0
843.0
843.0
841.0
837.0
836.0
832.0
830.0
833.0
836.0
836.0
840.0
844.0
842.0
838.0
841.0
836.0
835.0
835.0
834.0
831.0
837.0
836.0
834.0
838.0
839.0
838.0
836.0
832.0
835.0
834.0
831.0
834.0
835.0
837.0
838.0
840.0
839.0
838.0
837.0
837.0
834.0
832.0
830.0
828.0
832.0
832.0
833.0
838.0
840.0
838.0
836.0
835.0
834.0
833.0
833.0
835.0
834.0
835.0
835.0
838.0
840.0
840.0
837.0
837.0
837.0
833.0
833.0
833.0
836.0
838.0
840.0
841.0
840.0
836.0
833.0
832.0
831.0
835.0
834.0
833.0
837.0
839.0
841.0
844.0
838.0
842.0
839.0
838.0
837.0
836.0
836.0
835.0
834.0
838.0
841.0
845.0
842.0
839.0
839.0
841.0
840.0
840.0
833.0
840.0
839.0
841.0
843.0
846.0
845.0
841.0
838.0
837.0
836.0
835.0
830.0
835.0
837.0
841.0
843.0
844.0
846.0
844.0
841.0
843.0
839.0
839.0
842.0
841.0
844.0
848.0
850.0
853.0
852.0
856.0
858.0
858.0
855.0
858.0
858.0
861.0
868.0
872.0
874.0
877.0
875.0
873.0
871.0
868.0
864.0
859.0
858.0
858.0
858.0
858.0
861.0
857.0
851.0
847.0
840.0
842.0
837.0
836.0
836.0
835.0
835.0
838.0
839.0
841.0
840.0
834.0
833.0
835.0
830.0
829.0
827.0
829.0
829.0
833.0
834.0
835.0
836.0
836.0
835.0
835.0
833.0
834.0
836.0
834.0
837.0
836.0
838.0
845.0
847.0
858.0
870.0
884.0
901.0
924.0
947.0
970.0
983.0
982.0
959.0
923.0
869.0
816.0
763.0
720.0
685.0
668.0
668.0
683.0
708.0
736.0
753.0
774.0
784.0
796.0
812.0
822.0
832.0
838.0
838.0
838.0
840.0
840.0
842.0
846.0
851.0
848.0
850.0
846.0
