# Simple Text Format
# Sampling Rate (Hz):= 360.00
# Resolution:= 12
# Labels:= ECG
856.0
858.0
858.0
854.0
850.0
848.0
852.0
850.0
853.0
855.0
855.0
857.0
855.0
854.0
853.0
852.0
852.0
853.0
852.0
853.0
855.0
856.0
858.0
860.0
858.0
856.0
856.0
853.0
848.0
850.0
851.0
852.0
855.0
856.0
856.0
859.0
860.0
861.0
859.0
856.0
855.0
855.0
855.0
853.0
856.0
858.0
857.0
859.0
859.0
860.0
858.0
859.0
856.0
854.0
853.0
854.0
854.0
861.0
862.0
861.0
862.0
860.0
855.0
854.0
850.0
852.0
852.0
852.0
857.0
854.0
858.0
860.0
857.0
862.0
859.0
858.0
856.0
854.0
853.0
855.0
857.0
857.0
856.0
855.0
859.0
859.0
860.0
859.0
857.0
858.0
858.0
859.0
859.0
858.0
863.0
863.0
861.0
861.0
860.0
858.0
855.0
856.0
856.0
861.0
865.0
867.0
871.0
874.0
877.0
878.0
877.0
880.0
880.0
874.0
876.0
876.0
882.0
889.0
894.0
897.0
896.0
896.0
895.0
893.0
889.0
886.0
884.0
884.0
884.0
885.0
883.0
882.0
878.0
875.0
869.0
867.0
863.0
859.0
859.0
860.0
860.0
860.0
861.0
860.0
860.0
860.0
856.0
852.0
850.0
843.0
848.0
850.0
852.0
854.0
856.0
859.0
854.0
855.0
855.0
856.0
852.0
853.0
852.0
853.0
855.0
855.0
860.0
860.0
863.0
872.0
887.0
902.0
923.0
949.0
979.0
1009.0
1030.0
1036.0
1026.0
994.0
945.0
885.0
830.0
777.0
734.0
706.0
701.0
716.0
739.0
761.0
784.0
803.0
817.0
830.0
841.0
851.0
856.0
861.0
865.0
865.0
867.0
866.0
869.0
870.0
868.0
870.0
871.0
873.0
870.0
872.0
872.0
872.0
876.0
876.0
881.0
883.0
882.0
884.0
882.0
881.0
879.0
880.0
880.0
882.0
884.0
886.0
887.0
890.0
890.0
894.0
893.0
892.0
890.0
890.0
887.0
888.0
891.0
893.0
896.0
899.0
898.0
899.0
900.0
899.0
901.0
897.0
899.0
901.0
903.0
908.0
912.0
915.0
917.0
918.0
918.0
917.0
918.0
920.0
923.0
925.0
931.0
933.0
936.0
942.0
946.0
947.0
951.0
952.0
954.0
957.0
960.0
961.0
967.0
970.0
975.0
984.0
988.0
988.0
989.0
992.0
993.0
991.0
994.0
995.0
999.0
1002.0
1005.0
1004.0
1004.0
1003.0
1001.0
998.0
998.0
995.0
993.0
990.0
982.0
983.0
979.0
973.0
965.0
962.0
954.0
948.0
938.0
930.0
926.0
915.0
914.0
910.0
906.0
906.0
899.0
898.0
895.0
887.0
885.0
883.0
878.0
876.0
875.0
875.0
877.0
875.0
874.0
875.0
872.0
869.0
868.0
867.0
865.0
863.0
869.0
872.0
868.0
870.0
871.0
870.0
868.0
868.0
865.0
864.0
865.0
865.0
867.0
869.0
872.0
874.0
873.0
873.0
874.0
870.0
869.0
867.0
863.0
868.0
869.0
870.0
871.0
871.0
874.0
872.0
869.0
869.0
866.0
866.0
866.0
869.0
865.0
869.0
868.0
870.0
870.0
871.0
868.0
867.0
863.0
860.0
861.0
859.0
860.0
860.0
862.0
866.0
867.0
863.0
865.0
861.0
858.0
857.0
857.0
856.0
858.0
859.0
858.0
862.0
859.0
859.0
856.0
855.0
853.0
854.0
855.0
853.0
854.0
855.0
858.0
862.0
858.0
855.0
857.0
852.0
852.0
853.0
850.0
850.0
850.0
853.0
854.0
856.0
856.0
858.0
857.0
853.0
848.0
850.0
847.0
849.0
852.0
854.0
855.0
858.0
856.0
856.0
854.0
854.0
855.0
853.0
852.0
852.0
853.0
856.0
856.0
853.0
853.0
855.0
853.0
852.0
851.0
850.0
847.0
850.0
852.0
853.0
855.0
855.0
856.0
854.0
852.0
853.0
849.0
850.0
849.0
849.0
851.0
853.0
854.0
856.0
853.0
854.0
852.0
851.0
851.0
848.0
848.0
847.0
845.0
847.0
849.0
849.0
851.0
852.0
852.0
851.0
849.0
847.0
846.0
846.0
849.0
848.0
853.0
853.0
852.0
849.0
851.0
849.0
843.0
845.0
844.0
845.0
847.0
847.0
847.0
850.0
849.0
848.0
847.0
847.0
848.0
846.0
838.0
840.0
838.0
843.0
845.0
848.0
850.0
849.0
848.0
846.0
844.0
845.0
842.0
841.0
843.0
846.0
849.0
850.0
849.0
849.0
849.0
845.0
843.0
845.0
844.0
844.0
847.0
846.0
851.0
851.0
854.0
850.0
850.0
847.0
845.0
846.0
846.0
847.0
851.0
857.0
861.0
864.0
863.0
863.0
866.0
868.0
869.0
870.0
869.0
875.0
877.0
880.0
880.0
879.0
879.0
883.0
880.0
880.0
874.0
869.0
866.0
868.0
869.0
869.0
868.0
862.0
860.0
855.0
851.0
843.0
842.0
839.0
841.0
839.0
842.0
844.0
845.0
844.0
844.0
842.0
840.0
838.0
835.0
833.0
832.0
832.0
834.0
837.0
838.0
839.0
839.0
840.0
840.0
838.0
839.0
838.0
836.0
839.0
841.0
845.0
848.0
854.0
862.0
876.0
892.0
913.0
939.0
969.0
989.0
997.0
985.0
956.0
904.0
849.0
789.0
737.0
700.0
675.0
669.0
679.0
696.0
721.0
748.0
768.0
784.0
803.0
817.0
831.0
840.0
846.0
847.0
848.0
844.0
847.0
847.0
849.0
852.0
855.0
858.0
858.0
855.0
857.0
854.0
855.0
853.0
853.0
858.0
860.0
865.0
867.0
865.0
867.0
861.0
860.0
860.0
857.0
854.0
857.0
857.0
863.0
865.0
871.0
872.0
871.0
871.0
872.0
867.0
866.0
869.0
870.0
869.0
873.0
876.0
878.0
879.0
880.0
880.0
879.0
878.0
878.0
880.0
881.0
886.0
890.0
895.0
899.0
900.0
903.0
902.0
901.0
904.0
906.0
906.0
909.0
914.0
916.0
922.0
929.0
931.0
932.0
937.0
938.0
942.0
944.0
948.0
952.0
955.0
958.0
966.0
970.0
971.0
975.0
973.0
975.0
978.0
982.0
984.0
985.0
989.0
990.0
991.0
993.0
992.0
989.0
989.0
986.0
980.0
979.0
974.0
969.0
967.0
962.0
960.0
953.0
951.0
941.0
935.0
927.0
921.0
917.0
907.0
906.0
900.0
896.0
890.0
888.0
886.0
880.0
877.0
872.0
870.0
868.0
860.0
860.0
860.0
860.0
862.0
860.0
860.0
861.0
858.0
855.0
852.0
849.0
849.0
852.0
853.0
856.0
857.0
860.0
860.0
859.0
856.0
855.0
851.0
852.0
849.0
849.0
849.0
851.0
855.0
857.0
852.0
854.0
854.0
855.0
853.0
852.0
853.0
852.0
850.0
855.0
855.0
857.0
857.0
853.0
852.0
850.0
848.0
847.0
844.0
847.0
848.0
850.0
851.0
854.0
853.0
850.0
851.0
849.0
847.0
847.0
845.0
843.0
843.0
842.0
844.0
846.0
844.0
845.0
841.0
840.0
841.0
840.0
836.0
837.0
839.0
840.0
844.0
843.0
840.0
842.0
840.0
837.0
836.0
834.0
833.0
829.0
832.0
834.0
835.0
838.0
837.0
837.0
836.0
834.0
834.0
833.0
833.0
833.0
833.0
835.0
836.0
837.0
840.0
837.0
834.0
833.0
832.0
832.0
831.0
829.0
832.0
836.0
837.0
839.0
841.0
837.0
836.0
833.0
831.0
830.0
825.0
827.0
829.0
829.0
834.0
838.0
837.0
838.0
837.0
837.0
830.0
835.0
830.0
832.0
829.0
834.0
831.0
835.0
836.0
833.0
837.0
836.0
835.0
834.0
834.0
832.0
837.0
835.0
837.0
839.0
840.0
835.0
834.0
833.0
831.0
831.0
830.0
831.0
831.0
832.0
837.0
838.0
839.0
839.0
837.0
837.0
834.0
833.0
830.0
830.0
831.0
831.0
835.0
840.0
836.0
837.0
836.0
834.0
836.0
833.0
834.0
833.0
834.0
833.0
836.0
838.0
839.0
837.0
837.0
835.0
833.0
830.0
828.0
828.0
829.0
833.0
837.0
842.0
842.0
842.0
844.0
840.0
838.0
837.0
833.0
837.0
837.0
839.0
840.0
841.0
842.0
842.0
839.0
837.0
839.0
837.0
837.0
838.0
841.0
841.0
844.0
846.0
848.0
848.0
844.0
845.0
846.0
849.0
850.0
852.0
859.0
861.0
864.0
866.0
866.0
866.0
868.0
871.0
869.0
869.0
871.0
870.0
872.0
875.0
875.0
871.0
868.0
869.0
869.0
866.0
865.0
862.0
857.0
854.0
853.0
849.0
848.0
847.0
843.0
844.0
842.0
841.0
838.0
836.0
836.0
833.0
835.0
836.0
840.0
840.0
840.0
843.0
840.0
837.0
837.0
836.0
837.0
834.0
833.0
837.0
838.0
845.0
848.0
847.0
847.0
847.0
847.0
846.0
848.0
853.0
860.0
882.0
906.0
935.0
961.0
992.0
1012.0
1025.0
1018.0
991.0
945.0
887.0
831.0
778.0
731.0
697.0
683.0
687.0
706.0
729.0
747.0
767.0
783.0
799.0
814.0
829.0
842.0
852.0
854.0
858.0
859.0
856.0
850.0
854.0
852.0
856.0
856.0
860.0
859.0
861.0
865.0
866.0
865.0
866.0
866.0
869.0
867.0
866.0
870.0
869.0
874.0
875.0
877.0
876.0
875.0
872.0
867.0
869.0
868.0
873.0
871.0
877.0
877.0
882.0
882.0
886.0
885.0
885.0
883.0
882.0
882.0
882.0
886.0
891.0
892.0
896.0
899.0
899.0
899.0
897.0
896.0
899.0
899.0
903.0
907.0
912.0
914.0
918.0
918.0
922.0
926.0
922.0
926.0
927.0
930.0
933.0
939.0
944.0
948.0
953.0
958.0
959.0
965.0
964.0
966.0
963.0
964.0
970.0
975.0
980.0
984.0
987.0
991.0
992.0
991.0
992.0
992.0
991.0
991.0
991.0
991.0
988.0
990.0
988.0
985.0
979.0
976.0
972.0
962.0
957.0
948.0
944.0
940.0
934.0
927.0
925.0
918.0
916.0
909.0
901.0
895.0
890.0
883.0
879.0
879.0
873.0
875.0
876.0
873.0
870.0
868.0
865.0
863.0
861.0
860.0
860.0
858.0
862.0
863.0
865.0
864.0
864.0
862.0
861.0
862.0
859.0
857.0
855.0
859.0
860.0
860.0
864.0
865.0
865.0
863.0
860.0
861.0
857.0
858.0
858.0
859.0
864.0
863.0
867.0
863.0
862.0
860.0
858.0
860.0
858.0
858.0
855.0
857.0
858.0
859.0
861.0
863.0
864.0
859.0
860.0
857.0
857.0
854.0
855.0
856.0
859.0
860.0
857.0
859.0
859.0
857.0
852.0
853.0
848.0
849.0
847.0
849.0
853.0
855.0
854.0
854.0
852.0
854.0
849.0
849.0
844.0
844.0
842.0
845.0
844.0
847.0
852.0
852.0
848.0
845.0
847.0
845.0
841.0
840.0
842.0
843.0
847.0
848.0
849.0
848.0
847.0
845.0
844.0
842.0
842.0
840.0
841.0
842.0
844.0
845.0
847.0
847.0
846.0
845.0
845.0
841.0
842.0
841.0
841.0
843.0
843.0
846.0
846.0
849.0
846.0
845.0
843.0
840.0
838.0
837.0
839.0
841.0
841.0
840.0
842.0
845.0
846.0
844.0
844.0
845.0
845.0
843.0
841.0
843.0
843.0
845.0
844.0
846.0
846.0
844.0
842.0
844.0
842.0
839.0
840.0
839.0
845.0
845.0
848.0
849.0
849.0
848.0
845.0
845.0
839.0
838.0
838.0
837.0
841.0
844.0
843.0
846.0
846.0
843.0
841.0
839.0
840.0
839.0
840.0
843.0
846.0
845.0
847.0
847.0
843.0
846.0
844.0
844.0
841.0
841.0
845.0
845.0
844.0
847.0
849.0
851.0
850.0
850.0
848.0
847.0
842.0
842.0
840.0
844.0
844.0
844.0
849.0
851.0
850.0
850.0
847.0
848.0
844.0
842.0
843.0
845.0
844.0
848.0
851.0
851.0
850.0
848.0
845.0
848.0
847.0
850.0
850.0
858.0
859.0
866.0
866.0
871.0
872.0
871.0
867.0
870.0
865.0
869.0
871.0
878.0
883.0
883.0
888.0
890.0
887.0
887.0
882.0
877.0
873.0
873.0
865.0
869.0
870.0
869.0
866.0
865.0
858.0
858.0
853.0
849.0
848.0
847.0
846.0
848.0
846.0
849.0
849.0
850.0
846.0
841.0
839.0
837.0
835.0
832.0
836.0
836.0
839.0
843.0
845.0
845.0
845.0
843.0
844.0
842.0
841.0
841.0
841.0
843.0
845.0
853.0
864.0
882.0
901.0
922.0
952.0
981.0
1005.0
1013.0
1003.0
973.0
927.0
870.0
813.0
758.0
712.0
685.0
681.0
693.0
713.0
741.0
764.0
784.0
803.0
815.0
830.0
838.0
847.0
851.0
853.0
846.0
840.0
845.0
843.0
843.0
846.0
854.0
855.0
860.0
860.0
856.0
855.0
853.0
853.0
856.0
855.0
857.0
858.0
861.0
863.0
866.0
863.0
862.0
865.0
863.0
864.0
862.0
863.0
866.0
866.0
864.0
869.0
871.0
870.0
869.0
868.0
869.0
868.0
867.0
870.0
870.0
875.0
875.0
877.0
878.0
884.0
885.0
884.0
885.0
883.0
879.0
883.0
885.0
889.0
893.0
898.0
903.0
906.0
907.0
909.0
910.0
913.0
913.0
917.0
921.0
926.0
933.0
937.0
940.0
941.0
944.0
947.0
951.0
953.0
958.0
956.0
960.0
963.0
968.0
972.0
973.0
975.0
975.0
978.0
979.0
979.0
975.0
975.0
976.0
978.0
976.0
977.0
976.0
972.0
966.0
962.0
960.0
953.0
946.0
943.0
935.0
931.0
926.0
919.0
912.0
906.0
901.0
895.0
890.0
884.0
876.0
874.0
872.0
872.0
870.0
868.0
866.0
864.0
861.0
858.0
856.0
850.0
846.0
844.0
840.0
846.0
846.0
850.0
849.0
850.0
848.0
845.0
845.0
840.0
839.0
838.0
841.0
843.0
843.0
843.0
847.0
847.0
845.0
841.0
842.0
839.0
839.0
840.0
840.0
843.0
845.0
849.0
850.0
848.0
846.0
841.0
840.0
841.0
840.0
840.0
838.0
842.0
844.0
847.0
847.0
846.0
846.0
842.0
839.0
838.0
838.0
838.0
835.0
836.0
836.0
836.0
838.0
842.0
840.0
838.0
834.0
833.0
833.0
834.0
834.0
836.0
832.0
835.0
835.0
833.0
833.0
831.0
826.0
826.0
821.0
824.0
824.0
829.0
828.0
833.0
833.0
833.0
832.0
830.0
829.0
826.0
824.0
821.0
824.0
824.0
826.0
826.0
827.0
828.0
826.0
828.0
826.0
824.0
824.0
821.0
822.0
825.0
826.0
827.0
827.0
829.0
829.0
826.0
825.0
821.0
822.0
819.0
824.0
826.0
826.0
831.0
830.0
831.0
830.0
826.0
821.0
821.0
818.0
821.0
819.0
822.0
822.0
826.0
829.0
828.0
828.0
827.0
827.0
823.0
822.0
823.0
825.0
825.0
826.0
827.0
830.0
828.0
827.0
825.0
821.0
819.0
818.0
821.0
819.0
825.0
827.0
829.0
830.0
832.0
830.0
826.0
824.0
820.0
820.0
819.0
819.0
821.0
824.0
823.0
828.0
826.0
825.0
825.0
825.0
825.0
822.0
821.0
824.0
826.0
828.0
830.0
829.0
830.0
829.0
827.0
826.0
824.0
821.0
821.0
824.0
827.0
826.0
829.0
831.0
832.0
831.0
828.0
826.0
824.0
819.0
819.0
821.0
823.0
825.0
827.0
829.0
825.0
827.0
827.0
829.0
826.0
825.0
824.0
825.0
826.0
827.0
828.0
829.0
826.0
824.0
823.0
823.0
827.0
825.0
826.0
826.0
829.0
833.0
836.0
840.0
840.0
844.0
843.0
846.0
845.0
845.0
845.0
845.0
845.0
851.0
854.0
856.0
862.0
860.0
860.0
861.0
861.0
857.0
858.0
858.0
854.0
853.0
857.0
855.0
855.0
849.0
845.0
841.0
834.0
829.0
825.0
824.0
825.0
826.0
829.0
830.0
830.0
827.0
827.0
824.0
824.0
820.0
817.0
819.0
817.0
819.0
820.0
816.0
820.0
818.0
819.0
820.0
820.0
819.0
817.0
818.0
820.0
824.0
822.0
826.0
829.0
831.0
830.0
829.0
832.0
837.0
848.0
865.0
887.0
913.0
945.0
976.0
1000.0
1009.0
993.0
956.0
902.0
839.0
776.0
719.0
671.0
644.0
641.0
655.0
682.0
711.0
735.0
754.0
768.0
783.0
796.0
811.0
823.0
828.0
835.0
836.0
840.0
838.0
835.0
836.0
838.0
840.0
839.0
841.0
845.0
845.0
849.0
851.0
853.0
851.0
851.0
851.0
847.0
845.0
845.0
843.0
847.0
852.0
855.0
859.0
859.0
862.0
859.0
858.0
858.0
858.0
854.0
856.0
859.0
859.0
863.0
864.0
865.0
867.0
868.0
867.0
868.0
867.0
867.0
865.0
870.0
877.0
876.0
879.0
881.0
883.0
882.0
883.0
884.0
883.0
886.0
891.0
894.0
900.0
904.0
906.0
907.0
910.0
913.0
914.0
915.0
917.0
921.0
925.0
929.0
935.0
942.0
945.0
950.0
954.0
955.0
957.0
956.0
958.0
963.0
965.0
968.0
972.0
974.0
977.0
978.0
976.0
976.0
972.0
967.0
967.0
967.0
965.0
967.0
964.0
963.0
958.0
956.0
948.0
941.0
934.0
927.0
922.0
913.0
904.0
904.0
900.0
897.0
893.0
887.0
884.0
876.0
872.0
865.0
862.0
857.0
858.0
859.0
859.0
858.0
857.0
858.0
856.0
851.0
845.0
843.0
845.0
843.0
845.0
848.0
853.0
853.0
856.0
856.0
854.0
854.0
851.0
849.0
847.0
848.0
849.0
852.0
851.0
855.0
857.0
857.0
859.0
855.0
851.0
850.0
851.0
848.0
850.0
847.0
850.0
850.0
854.0
854.0
854.0
853.0
853.0
853.0
850.0
850.0
847.0
853.0
853.0
855.0
855.0
853.0
854.0
851.0
848.0
846.0
845.0
841.0
843.0
846.0
847.0
848.0
849.0
849.0
847.0
847.0
846.0
841.0
839.0
837.0
840.0
837.0
841.0
839.0
839.0
843.0
843.0
841.0
839.0
841.0
836.0
835.0
833.0
834.0
835.0
839.0
840.0
840.0
838.0
834.0
832.0
831.0
833.0
834.0
833.0
836.0
837.0
837.0
839.0
838.0
840.0
839.0
837.0
835.0
831.0
831.0
829.0
834.0
835.0
837.0
838.0
838.0
839.0
835.0
829.0
829.0
831.0
834.0
835.0
836.0
837.0
836.0
840.0
840.0
834.0
837.0
833.0
832.0
831.0
830.0
831.0
834.0
836.0
837.0
839.0
837.0
838.0
838.0
832.0
830.0
830.0
829.0
834.0
834.0
833.0
836.0
839.0
838.0
838.0
837.0
837.0
836.0
834.0
833.0
834.0
834.0
836.0
837.0
838.0
840.0
839.0
839.0
836.0
834.0
834.0
832.0
836.0
833.0
836.0
837.0
837.0
842.0
841.0
840.0
837.0
835.0
838.0
834.0
832.0
833.0
835.0
837.0
840.0
842.0
840.0
840.0
840.0
837.0
839.0
840.0
835.0
836.0
839.0
838.0
839.0
842.0
839.0
841.0
839.0
840.0
838.0
838.0
841.0
843.0
845.0
844.0
846.0
846.0
847.0
843.0
841.0
840.0
838.0
838.0
839.0
840.0
841.0
846.0
849.0
852.0
854.0
856.0
861.0
860.0
857.0
860.0
861.0
862.0
865.0
869.0
872.0
878.0
880.0
880.0
878.0
877.0
874.0
869.0
870.0
874.0
873.0
872.0
873.0
870.0
868.0
866.0
859.0
855.0
850.0
844.0
844.0
845.0
847.0
846.0
848.0
849.0
849.0
845.0
844.0
841.0
841.0
834.0
833.0
835.0
834.0
836.0
839.0
837.0
836.0
836.0
836.0
835.0
835.0
834.0
836.0
836.0
839.0
843.0
846.0
845.0
843.0
845.0
845.0
848.0
852.0
868.0
885.0
911.0
938.0
965.0
995.0
1019.0
1027.0
1014.0
988.0
947.0
894.0
838.0
783.0
739.0
704.0
690.0
691.0
708.0
734.0
758.0
775.0
792.0
808.0
821.0
831.0
841.0
846.0
852.0
855.0
850.0
851.0
854.0
854.0
853.0
851.0
852.0
857.0
858.0
857.0
864.0
865.0
864.0
866.0
865.0
864.0
865.0
861.0
859.0
863.0
863.0
867.0
870.0
875.0
869.0
874.0
873.0
871.0
872.0
868.0
869.0
869.0
872.0
871.0
875.0
879.0
877.0
876.0
878.0
875.0
876.0
882.0
878.0
881.0
882.0
884.0
890.0
895.0
894.0
895.0
898.0
899.0
901.0
901.0
901.0
906.0
909.0
915.0
918.0
927.0
930.0
928.0
932.0
933.0
939.0
937.0
944.0
946.0
952.0
959.0
964.0
970.0
974.0
975.0
977.0
978.0
979.0
983.0
981.0
982.0
986.0
989.0
990.0
992.0
991.0
995.0
989.0
987.0
980.0
979.0
974.0
971.0
966.0
963.0
956.0
952.0
941.0
937.0
925.0
922.0
910.0
905.0
900.0
895.0
893.0
887.0
885.0
883.0
881.0
878.0
873.0
869.0
865.0
861.0
857.0
852.0
854.0
852.0
854.0
856.0
855.0
856.0
852.0
852.0
848.0
847.0
846.0
848.0
846.0
851.0
852.0
855.0
853.0
852.0
849.0
845.0
846.0
847.0
849.0
849.0
851.0
853.0
857.0
856.0
856.0
855.0
850.0
848.0
844.0
843.0
847.0
846.0
849.0
850.0
854.0
852.0
852.0
852.0
847.0
847.0
844.0
844.0
842.0
840.0
845.0
844.0
844.0
846.0
842.0
844.0
846.0
845.0
838.0
840.0
840.0
836.0
839.0
840.0
841.0
841.0
842.0
837.0
838.0
836.0
834.0
832.0
832.0
830.0
832.0
833.0
835.0
839.0
837.0
835.0
833.0
829.0
826.0
826.0
829.0
827.0
828.0
828.0
830.0
832.0
835.0
834.0
833.0
836.0
833.0
831.0
826.0
826.0
828.0
831.0
830.0
834.0
833.0
828.0
825.0
825.0
823.0
824.0
823.0
824.0
827.0
828.0
830.0
832.0
833.0
833.0
827.0
824.0
826.0
826.0
824.0
824.0
826.0
828.0
829.0
831.0
829.0
832.0
827.0
825.0
822.0
823.0
823.0
825.0
826.0
829.0
827.0
832.0
831.0
830.0
828.0
830.0
829.0
827.0
824.0
823.0
824.0
827.0
828.0
832.0
831.0
832.0
832.0
828.0
825.0
823.0
822.0
822.0
823.0
826.0
826.0
832.0
832.0
831.0
830.0
827.0
829.0
825.0
824.0
823.0
825.0
826.0
827.0
833.0
833.0
831.0
828.0
829.0
827.0
830.0
829.0
829.0
829.0
833.0
834.0
838.0
833.0
834.0
832.0
830.0
830.0
830.0
827.0
827.0
828.0
830.0
829.0
833.0
832.0
831.0
831.0
829.0
831.0
830.0
825.0
824.0
828.0
828.0
827.0
829.0
830.0
834.0
832.0
832.0
834.0
835.0
837.0
836.0
842.0
845.0
847.0
853.0
847.0
850.0
849.0
849.0
853.0
853.0
857.0
863.0
865.0
868.0
871.0
871.0
871.0
866.0
861.0
856.0
852.0
850.0
850.0
847.0
846.0
844.0
842.0
839.0
837.0
833.0
834.0
829.0
830.0
829.0
828.0
823.0
826.0
827.0
824.0
824.0
825.0
825.0
820.0
821.0
820.0
816.0
816.0
817.0
819.0
823.0
822.0
829.0
828.0
828.0
827.0
824.0
824.0
821.0
822.0
823.0
826.0
830.0
835.0
845.0
854.0
869.0
882.0
907.0
933.0
958.0
980.0
994.0
990.0
965.0
922.0
868.0
812.0
755.0
706.0
666.0
642.0
642.0
657.0
684.0
711.0
736.0
755.0
774.0
789.0
803.0
817.0
825.0
832.0
830.0
828.0
827.0
829.0
834.0
838.0
841.0
842.0
845.0
844.0
846.0
844.0
843.0
845.0
844.0
847.0
849.0
850.0
852.0
851.0
852.0
851.0
852.0
853.0
848.0
848.0
850.0
848.0
854.0
857.0
860.0
861.0
863.0
860.0
860.0
858.0
857.0
856.0
859.0
863.0
864.0
867.0
872.0
871.0
873.0
874.0
874.0
871.0
871.0
871.0
874.0
877.0
881.0
885.0
889.0
891.0
893.0
894.0
898.0
900.0
901.0
903.0
903.0
913.0
916.0
918.0
926.0
932.0
934.0
934.0
937.0
940.0
943.0
945.0
949.0
951.0
960.0
965.0
972.0
975.0
973.0
974.0
974.0
974.0
973.0
973.0
971.0
974.0
975.0
973.0
974.0
972.0
970.0
970.0
965.0
959.0
951.0
945.0
942.0
938.0
933.0
925.0
922.0
916.0
912.0
902.0
895.0
888.0
884.0
879.0
874.0
870.0
867.0
869.0
864.0
864.0
857.0
855.0
854.0
847.0
848.0
845.0
845.0
845.0
847.0
846.0
848.0
847.0
851.0
847.0
843.0
847.0
844.0
841.0
841.0
843.0
845.0
847.0
849.0
850.0
849.0
848.0
848.0
845.0
845.0
844.0
844.0
846.0
849.0
848.0
850.0
849.0
849.0
848.0
845.0
843.0
844.0
841.0
843.0
843.0
850.0
851.0
851.0
851.0
848.0
848.0
847.0
845.0
843.0
841.0
841.0
841.0
841.0
843.0
845.0
841.0
844.0
843.0
840.0
837.0
835.0
832.0
831.0
832.0
835.0
839.0
837.0
839.0
837.0
837.0
839.0
835.0
833.0
832.0
831.0
832.0
833.0
837.0
838.0
840.0
837.0
836.0
834.0
831.0
827.0
830.0
829.0
837.0
838.0
840.0
843.0
841.0
840.0
836.0
835.0
834.0
832.0
831.0
831.0
831.0
834.0
836.0
836.0
839.0
838.0
837.0
834.0
832.0
831.0
831.0
833.0
834.0
833.0
835.0
839.0
837.0
837.0
836.0
834.0
833.0
830.0
831.0
832.0
834.0
837.0
838.0
841.0
836.0
839.0
837.0
837.0
835.0
834.0
830.0
830.0
834.0
834.0
836.0
840.0
841.0
838.0
839.0
838.0
838.0
837.0
835.0
835.0
838.0
839.0
839.0
838.0
840.0
841.0
836.0
835.0
837.0
835.0
835.0
837.0
839.0
841.0
840.0
844.0
841.0
842.0
843.0
840.0
841.0
839.0
835.0
838.0
838.0
836.0
839.0
844.0
840.0
839.0
841.0
843.0
843.0
840.0
842.0
838.0
840.0
844.0
847.0
847.0
846.0
847.0
845.0
842.0
840.0
840.0
841.0
841.0
843.0
844.0
845.0
849.0
851.0
849.0
850.0
845.0
846.0
845.0
844.0
843.0
846.0
851.0
853.0
861.0
865.0
864.0
866.0
864.0
864.0
862.0
864.0
869.0
872.0
873.0
879.0
883.0
884.0
883.0
883.0
878.0
873.0
868.0
865.0
865.0
867.0
869.0
868.0
867.0
862.0
858.0
855.0
848.0
846.0
846.0
844.0
844.0
844.0
847.0
847.0
849.0
847.0
848.0
846.0
839.0
839.0
839.0
836.0
835.0
835.0
837.0
841.0
843.0
846.0
846.0
845.0
845.0
844.0
844.0
841.0
843.0
846.0
849.0
851.0
857.0
872.0
887.0
909.0
933.0
962.0
987.0
1012.0
1023.0
1020.0
995.0
957.0
908.0
855.0
801.0
753.0
714.0
693.0
694.0
709.0
735.0
759.0
782.0
799.0
815.0
830.0
840.0
850.0
854.0
855.0
854.0
851.0
849.0
850.0
853.0
853.0
855.0
855.0
859.0
860.0
858.0
856.0
858.0
862.0
864.0
866.0
870.0
870.0
871.0
874.0
874.0
872.0
872.0
870.0
869.0
869.0
870.0
871.0
875.0
877.0
880.0
882.0
880.0
881.0
880.0
880.0
880.0
877.0
882.0
884.0
885.0
888.0
890.0
892.0
891.0
892.0
893.0
894.0
894.0
896.0
897.0
902.0
904.0
905.0
906.0
909.0
910.0
913.0
914.0
917.0
919.0
921.0
923.0
925.0
935.0
937.0
943.0
947.0
948.0
953.0
951.0
956.0
958.0
957.0
961.0
967.0
972.0
976.0
981.0
984.0
987.0
988.0
986.0
990.0
988.0
992.0
991.0
992.0
994.0
994.0
989.0
990.0
990.0
987.0
981.0
978.0
970.0
967.0
959.0
955.0
952.0
949.0
946.0
938.0
932.0
928.0
917.0
909.0
903.0
895.0
892.0
889.0
890.0
884.0
883.0
883.0
879.0
881.0
874.0
871.0
871.0
869.0
866.0
866.0
868.0
867.0
866.0
867.0
866.0
865.0
863.0
865.0
859.0
859.0
863.0
864.0
863.0
867.0
866.0
867.0
862.0
864.0
856.0
859.0
858.0
860.0
857.0
861.0
863.0
865.0
868.0
872.0
869.0
869.0
868.0
868.0
863.0
862.0
864.0
863.0
863.0
865.0
868.0
866.0
868.0
865.0
863.0
865.0
863.0
860.0
858.0
859.0
857.0
863.0
859.0
861.0
862.0
860.0
858.0
858.0
856.0
857.0
856.0
858.0
858.0
858.0
861.0
859.0
857.0
851.0
848.0
849.0
850.0
846.0
845.0
850.0
849.0
853.0
853.0
856.0
858.0
857.0
854.0
851.0
854.0
850.0
850.0
851.0
850.0
846.0
854.0
854.0
854.0
855.0
854.0
856.0
851.0
850.0
850.0
852.0
854.0
850.0
856.0
857.0
857.0
854.0
853.0
851.0
850.0
849.0
848.0
849.0
854.0
854.0
853.0
859.0
857.0
857.0
855.0
851.0
852.0
845.0
849.0
848.0
848.0
850.0
852.0
856.0
855.0
855.0
852.0
851.0
848.0
851.0
850.0
852.0
853.0
855.0
856.0
855.0
854.0
856.0
852.0
852.0
850.0
851.0
849.0
851.0
852.0
853.0
852.0
851.0
852.0
850.0
851.0
853.0
852.0
848.0
851.0
851.0
851.0
853.0
855.0
855.0
855.0
858.0
856.0
853.0
855.0
850.0
851.0
854.0
855.0
857.0
857.0
858.0
856.0
854.0
851.0
851.0
852.0
851.0
853.0
853.0
855.0
856.0
855.0
858.0
856.0
854.0
853.0
854.0
852.0
852.0
851.0
852.0
854.0
855.0
859.0
861.0
859.0
859.0
857.0
854.0
854.0
850.0
852.0
852.0
853.0
854.0
856.0
856.0
856.0
855.0
854.0
853.0
850.0
851.0
852.0
853.0
855.0
855.0
859.0
865.0
865.0
869.0
867.0
869.0
868.0
865.0
869.0
871.0
870.0
874.0
880.0
884.0
887.0
887.0
884.0
885.0
881.0
879.0
879.0
878.0
876.0
875.0
