# Simple Text Format
# Sampling Rate (Hz):= 360.00
# Resolution:= 12
# Labels:= ECG
814.0
816.0
812.0
819.0
822.0
824.0
826.0
822.0
823.0
821.0
823.0
819.0
820.0
820.0
819.0
822.0
821.0
826.0
829.0
828.0
830.0
834.0
842.0
854.0
870.0
889.0
919.0
946.0
967.0
978.0
964.0
928.0
876.0
815.0
755.0
706.0
672.0
651.0
659.0
679.0
705.0
734.0
755.0
770.0
781.0
795.0
808.0
818.0
822.0
825.0
829.0
830.0
833.0
829.0
835.0
836.0
837.0
840.0
840.0
840.0
840.0
837.0
839.0
841.0
847.0
847.0
849.0
848.0
845.0
845.0
849.0
846.0
844.0
843.0
844.0
850.0
854.0
854.0
857.0
856.0
855.0
858.0
855.0
853.0
852.0
848.0
854.0
856.0
861.0
865.0
867.0
868.0
867.0
868.0
867.0
867.0
865.0
863.0
867.0
873.0
868.0
873.0
878.0
879.0
880.0
882.0
882.0
884.0
885.0
888.0
891.0
899.0
905.0
906.0
910.0
913.0
914.0
918.0
917.0
918.0
922.0
923.0
932.0
935.0
940.0
945.0
946.0
952.0
955.0
956.0
954.0
958.0
960.0
961.0
960.0
960.0
965.0
967.0
970.0
968.0
967.0
963.0
961.0
962.0
955.0
951.0
946.0
946.0
943.0
940.0
937.0
931.0
925.0
917.0
912.0
906.0
897.0
888.0
886.0
885.0
879.0
876.0
878.0
871.0
869.0
867.0
862.0
859.0
855.0
850.0
847.0
851.0
851.0
851.0
853.0
854.0
852.0
850.0
850.0
850.0
846.0
845.0
844.0
843.0
847.0
848.0
849.0
848.0
848.0
849.0
845.0
845.0
845.0
844.0
846.0
845.0
846.0
850.0
853.0
855.0
852.0
853.0
848.0
847.0
847.0
846.0
845.0
847.0
847.0
849.0
853.0
853.0
852.0
849.0
849.0
846.0
846.0
843.0
842.0
843.0
844.0
846.0
848.0
846.0
846.0
843.0
842.0
841.0
842.0
837.0
841.0
841.0
843.0
843.0
843.0
845.0
844.0
844.0
840.0
838.0
836.0
835.0
835.0
837.0
839.0
841.0
843.0
844.0
841.0
841.0
842.0
839.0
837.0
837.0
835.0
835.0
835.0
838.0
839.0
841.0
839.0
840.0
839.0
835.0
835.0
834.0
834.0
837.0
837.0
836.0
838.0
839.0
840.0
836.0
836.0
834.0
832.0
832.0
832.0
835.0
836.0
836.0
842.0
836.0
840.0
837.0
836.0
835.0
831.0
832.0
830.0
831.0
830.0
835.0
837.0
838.0
838.0
837.0
836.0
836.0
833.0
833.0
831.0
834.0
834.0
834.0
836.0
836.0
837.0
835.0
835.0
832.0
833.0
828.0
831.0
834.0
836.0
839.0
840.0
841.0
838.0
838.0
837.0
834.0
830.0
828.0
831.0
829.0
835.0
835.0
837.0
836.0
836.0
836.0
835.0
835.0
833.0
833.0
831.0
833.0
834.0
837.0
840.0
841.0
837.0
836.0
834.0
833.0
830.0
831.0
833.0
832.0
834.0
837.0
837.0
841.0
840.0
839.0
834.0
835.0
836.0
834.0
832.0
833.0
836.0
836.0
841.0
842.0
840.0
839.0
839.0
837.0
836.0
836.0
837.0
838.0
839.0
841.0
843.0
842.0
843.0
844.0
846.0
845.0
848.0
847.0
847.0
853.0
856.0
858.0
862.0
864.0
866.0
866.0
867.0
869.0
868.0
862.0
866.0
865.0
867.0
868.0
866.0
865.0
861.0
859.0
860.0
854.0
853.0
850.0
846.0
843.0
842.0
839.0
841.0
839.0
838.0
837.0
835.0
835.0
834.0
832.0
829.0
830.0
833.0
832.0
833.0
835.0
835.0
835.0
832.0
830.0
830.0
829.0
829.0
831.0
832.0
835.0
838.0
838.0
840.0
838.0
839.0
839.0
843.0
846.0
858.0
874.0
888.0
913.0
939.0
962.0
987.0
1000.0
996.0
978.0
948.0
902.0
853.0
805.0
763.0
729.0
706.0
698.0
703.0
721.0
741.0
759.0
772.0
787.0
800.0
815.0
826.0
836.0
844.0
844.0
848.0
846.0
846.0
842.0
844.0
842.0
843.0
846.0
848.0
851.0
853.0
852.0
854.0
852.0
855.0
850.0
855.0
852.0
854.0
856.0
863.0
864.0
867.0
865.0
864.0
864.0
864.0
861.0
858.0
861.0
862.0
864.0
866.0
868.0
871.0
873.0
872.0
870.0
871.0
870.0
868.0
866.0
865.0
868.0
871.0
874.0
875.0
879.0
882.0
880.0
880.0
876.0
881.0
884.0
884.0
886.0
891.0
893.0
897.0
899.0
901.0
902.0
905.0
904.0
903.0
905.0
907.0
911.0
919.0
923.0
927.0
931.0
933.0
937.0
936.0
940.0
941.0
940.0
942.0
946.0
953.0
953.0
958.0
963.0
962.0
962.0
963.0
963.0
965.0
962.0
966.0
965.0
967.0
966.0
965.0
963.0
958.0
954.0
948.0
941.0
939.0
932.0
926.0
922.0
917.0
915.0
913.0
908.0
902.0
899.0
894.0
888.0
880.0
873.0
871.0
868.0
865.0
862.0
861.0
860.0
856.0
856.0
852.0
847.0
844.0
843.0
844.0
843.0
842.0
843.0
842.0
847.0
846.0
847.0
841.0
840.0
838.0
840.0
840.0
842.0
845.0
843.0
850.0
846.0
846.0
847.0
847.0
843.0
841.0
840.0
842.0
843.0
843.0
848.0
846.0
847.0
849.0
847.0
847.0
844.0
843.0
839.0
841.0
842.0
844.0
842.0
842.0
841.0
841.0
843.0
841.0
840.0
837.0
838.0
836.0
841.0
836.0
839.0
839.0
842.0
838.0
839.0
838.0
834.0
832.0
829.0
829.0
832.0
831.0
830.0
836.0
837.0
835.0
833.0
834.0
830.0
830.0
828.0
829.0
829.0
831.0
828.0
832.0
834.0
833.0
833.0
830.0
829.0
825.0
826.0
825.0
828.0
829.0
832.0
831.0
831.0
832.0
832.0
828.0
826.0
823.0
824.0
823.0
825.0
828.0
826.0
829.0
828.0
831.0
829.0
828.0
824.0
823.0
821.0
824.0
822.0
824.0
823.0
824.0
824.0
826.0
826.0
823.0
823.0
823.0
821.0
824.0
824.0
824.0
823.0
826.0
831.0
831.0
830.0
826.0
822.0
821.0
816.0
820.0
821.0
824.0
825.0
827.0
827.0
830.0
828.0
828.0
825.0
823.0
821.0
822.0
821.0
825.0
825.0
827.0
827.0
824.0
826.0
819.0
820.0
821.0
819.0
820.0
821.0
822.0
823.0
827.0
830.0
828.0
825.0
824.0
824.0
820.0
820.0
821.0
823.0
825.0
826.0
827.0
828.0
823.0
828.0
827.0
827.0
822.0
822.0
823.0
825.0
823.0
826.0
827.0
827.0
829.0
828.0
825.0
825.0
822.0
820.0
816.0
821.0
827.0
828.0
828.0
828.0
829.0
830.0
825.0
824.0
822.0
823.0
821.0
825.0
826.0
826.0
829.0
830.0
828.0
828.0
829.0
824.0
825.0
822.0
822.0
828.0
829.0
835.0
833.0
838.0
840.0
843.0
841.0
842.0
842.0
842.0
844.0
847.0
851.0
852.0
860.0
862.0
860.0
861.0
859.0
859.0
853.0
851.0
847.0
847.0
848.0
847.0
849.0
851.0
846.0
840.0
837.0
827.0
826.0
822.0
822.0
825.0
824.0
826.0
830.0
828.0
827.0
825.0
819.0
816.0
817.0
816.0
816.0
817.0
818.0
819.0
820.0
820.0
817.0
814.0
818.0
816.0
815.0
816.0
821.0
821.0
827.0
826.0
831.0
834.0
838.0
845.0
854.0
869.0
887.0
908.0
933.0
957.0
968.0
962.0
940.0
899.0
851.0
800.0
751.0
709.0
679.0
670.0
672.0
693.0
715.0
738.0
756.0
774.0
786.0
800.0
813.0
821.0
824.0
826.0
824.0
824.0
827.0
831.0
833.0
834.0
838.0
836.0
835.0
831.0
834.0
834.0
835.0
838.0
838.0
842.0
847.0
847.0
847.0
849.0
844.0
844.0
841.0
844.0
846.0
844.0
850.0
848.0
853.0
851.0
852.0
853.0
853.0
851.0
852.0
851.0
853.0
856.0
857.0
855.0
858.0
861.0
862.0
865.0
863.0
865.0
864.0
865.0
867.0
869.0
872.0
874.0
879.0
881.0
882.0
884.0
882.0
880.0
882.0
884.0
887.0
891.0
895.0
900.0
907.0
911.0
914.0
916.0
914.0
921.0
921.0
924.0
927.0
933.0
936.0
941.0
943.0
946.0
948.0
946.0
952.0
956.0
953.0
954.0
954.0
954.0
958.0
959.0
961.0
958.0
957.0
951.0
949.0
942.0
938.0
933.0
928.0
924.0
917.0
915.0
911.0
907.0
902.0
896.0
887.0
877.0
873.0
868.0
864.0
860.0
860.0
856.0
855.0
852.0
848.0
844.0
843.0
840.0
839.0
838.0
836.0
838.0
838.0
837.0
837.0
840.0
839.0
838.0
835.0
834.0
833.0
833.0
834.0
836.0
835.0
834.0
836.0
837.0
833.0
835.0
833.0
832.0
832.0
834.0
833.0
835.0
837.0
836.0
839.0
842.0
841.0
841.0
839.0
836.0
836.0
836.0
836.0
840.0
838.0
839.0
839.0
838.0
835.0
839.0
836.0
834.0
829.0
828.0
828.0
831.0
829.0
831.0
832.0
832.0
834.0
833.0
830.0
828.0
828.0
824.0
823.0
824.0
826.0
828.0
830.0
827.0
828.0
829.0
824.0
823.0
823.0
820.0
821.0
822.0
822.0
821.0
823.0
825.0
822.0
826.0
824.0
823.0
822.0
820.0
819.0
824.0
826.0
826.0
828.0
827.0
827.0
826.0
824.0
823.0
821.0
819.0
821.0
819.0
824.0
827.0
825.0
826.0
827.0
829.0
826.0
827.0
823.0
824.0
822.0
823.0
823.0
824.0
826.0
827.0
828.0
828.0
826.0
823.0
819.0
818.0
819.0
822.0
826.0
827.0
829.0
829.0
829.0
826.0
824.0
822.0
821.0
824.0
825.0
824.0
826.0
828.0
829.0
831.0
829.0
829.0
826.0
825.0
823.0
825.0
822.0
823.0
826.0
826.0
829.0
825.0
824.0
828.0
827.0
824.0
821.0
818.0
819.0
820.0
825.0
825.0
828.0
829.0
829.0
831.0
827.0
827.0
825.0
822.0
825.0
826.0
822.0
831.0
831.0
835.0
831.0
829.0
829.0
827.0
825.0
824.0
825.0
824.0
830.0
829.0
829.0
830.0
834.0
834.0
831.0
830.0
829.0
828.0
829.0
828.0
828.0
829.0
831.0
830.0
833.0
834.0
832.0
832.0
831.0
830.0
833.0
833.0
837.0
839.0
843.0
845.0
848.0
850.0
847.0
848.0
843.0
845.0
849.0
853.0
858.0
864.0
866.0
868.0
868.0
867.0
867.0
863.0
856.0
848.0
847.0
848.0
849.0
850.0
849.0
849.0
843.0
841.0
837.0
832.0
828.0
828.0
829.0
829.0
830.0
835.0
833.0
833.0
832.0
830.0
827.0
823.0
825.0
823.0
825.0
828.0
829.0
828.0
832.0
833.0
833.0
833.0
829.0
827.0
826.0
828.0
830.0
829.0
835.0
835.0
839.0
844.0
854.0
868.0
884.0
904.0
928.0
955.0
975.0
988.0
984.0
956.0
918.0
873.0
819.0
768.0
724.0
694.0
679.0
679.0
699.0
721.0
743.0
761.0
773.0
786.0
801.0
812.0
825.0
832.0
836.0
840.0
840.0
843.0
840.0
839.0
840.0
845.0
847.0
851.0
852.0
851.0
850.0
845.0
848.0
850.0
852.0
857.0
856.0
860.0
855.0
860.0
857.0
857.0
857.0
854.0
854.0
858.0
860.0
859.0
864.0
866.0
865.0
866.0
864.0
862.0
861.0
863.0
864.0
863.0
867.0
870.0
874.0
874.0
878.0
875.0
875.0
874.0
877.0
875.0
879.0
882.0
882.0
886.0
886.0
892.0
893.0
892.0
897.0
896.0
898.0
900.0
902.0
907.0
910.0
916.0
920.0
923.0
925.0
927.0
928.0
931.0
934.0
934.0
938.0
941.0
947.0
954.0
954.0
957.0
959.0
959.0
962.0
963.0
964.0
958.0
959.0
960.0
962.0
964.0
962.0
963.0
964.0
964.0
959.0
955.0
947.0
942.0
936.0
932.0
927.0
924.0
916.0
916.0
909.0
904.0
894.0
890.0
887.0
880.0
876.0
869.0
871.0
871.0
867.0
866.0
865.0
860.0
858.0
853.0
851.0
851.0
849.0
852.0
851.0
853.0
852.0
852.0
851.0
848.0
846.0
843.0
842.0
841.0
842.0
839.0
842.0
843.0
845.0
849.0
850.0
849.0
846.0
849.0
846.0
845.0
845.0
846.0
848.0
850.0
849.0
854.0
852.0
853.0
851.0
846.0
846.0
844.0
844.0
847.0
851.0
854.0
855.0
855.0
854.0
851.0
852.0
847.0
845.0
843.0
841.0
845.0
843.0
847.0
845.0
845.0
844.0
841.0
840.0
838.0
837.0
835.0
836.0
836.0
838.0
840.0
841.0
841.0
840.0
839.0
834.0
835.0
835.0
833.0
832.0
834.0
834.0
835.0
838.0
834.0
835.0
835.0
832.0
830.0
832.0
828.0
826.0
830.0
833.0
834.0
836.0
835.0
838.0
836.0
832.0
833.0
829.0
829.0
827.0
831.0
832.0
829.0
831.0
828.0
831.0
829.0
829.0
830.0
829.0
828.0
829.0
830.0
828.0
831.0
830.0
835.0
833.0
829.0
830.0
828.0
826.0
824.0
826.0
823.0
829.0
828.0
834.0
833.0
832.0
834.0
832.0
833.0
828.0
828.0
828.0
831.0
829.0
831.0
832.0
831.0
832.0
836.0
830.0
828.0
825.0
826.0
827.0
828.0
828.0
834.0
834.0
836.0
835.0
837.0
832.0
831.0
828.0
822.0
824.0
826.0
828.0
830.0
833.0
832.0
833.0
831.0
831.0
831.0
828.0
827.0
829.0
828.0
831.0
832.0
833.0
831.0
835.0
835.0
829.0
830.0
826.0
829.0
827.0
829.0
833.0
834.0
835.0
837.0
837.0
833.0
830.0
828.0
830.0
830.0
828.0
830.0
828.0
833.0
832.0
837.0
836.0
837.0
834.0
832.0
831.0
831.0
832.0
830.0
835.0
836.0
837.0
837.0
839.0
839.0
839.0
836.0
833.0
835.0
836.0
838.0
842.0
845.0
851.0
852.0
853.0
853.0
853.0
851.0
851.0
852.0
856.0
863.0
866.0
869.0
872.0
871.0
874.0
868.0
869.0
863.0
860.0
856.0
855.0
857.0
856.0
854.0
853.0
852.0
845.0
840.0
837.0
835.0
832.0
830.0
830.0
830.0
830.0
830.0
830.0
832.0
829.0
830.0
824.0
822.0
822.0
821.0
821.0
823.0
827.0
824.0
827.0
829.0
829.0
828.0
825.0
824.0
823.0
824.0
824.0
824.0
829.0
836.0
844.0
857.0
872.0
893.0
917.0
940.0
964.0
980.0
982.0
969.0
940.0
900.0
855.0
802.0
754.0
717.0
688.0
682.0
690.0
708.0
733.0
754.0
769.0
784.0
795.0
807.0
813.0
823.0
830.0
835.0
832.0
831.0
832.0
831.0
834.0
836.0
840.0
842.0
843.0
842.0
843.0
841.0
840.0
841.0
841.0
844.0
848.0
845.0
846.0
845.0
849.0
850.0
850.0
849.0
848.0
849.0
847.0
850.0
853.0
855.0
858.0
859.0
861.0
861.0
854.0
854.0
850.0
853.0
852.0
856.0
860.0
863.0
865.0
866.0
866.0
865.0
869.0
866.0
868.0
864.0
869.0
868.0
873.0
875.0
880.0
882.0
883.0
886.0
888.0
888.0
888.0
888.0
891.0
896.0
899.0
903.0
908.0
911.0
913.0
910.0
914.0
918.0
921.0
925.0
923.0
928.0
934.0
938.0
942.0
946.0
946.0
947.0
950.0
949.0
947.0
947.0
950.0
951.0
955.0
958.0
960.0
960.0
955.0
956.0
949.0
947.0
942.0
938.0
933.0
927.0
924.0
919.0
916.0
912.0
905.0
897.0
895.0
891.0
882.0
876.0
866.0
862.0
858.0
857.0
855.0
856.0
852.0
849.0
847.0
842.0
834.0
834.0
833.0
833.0
835.0
836.0
837.0
838.0
835.0
834.0
832.0
831.0
832.0
831.0
829.0
831.0
834.0
834.0
834.0
833.0
837.0
837.0
835.0
836.0
831.0
832.0
831.0
833.0
831.0
836.0
837.0
837.0
836.0
836.0
835.0
833.0
833.0
831.0
832.0
832.0
833.0
834.0
832.0
835.0
833.0
836.0
834.0
834.0
833.0
831.0
828.0
827.0
827.0
829.0
828.0
831.0
832.0
827.0
830.0
829.0
822.0
819.0
823.0
821.0
821.0
823.0
822.0
821.0
820.0
822.0
821.0
823.0
818.0
819.0
818.0
819.0
818.0
817.0
816.0
819.0
819.0
821.0
820.0
819.0
817.0
816.0
815.0
815.0
816.0
817.0
819.0
821.0
819.0
822.0
818.0
820.0
818.0
814.0
812.0
813.0
812.0
816.0
819.0
817.0
816.0
818.0
818.0
813.0
813.0
812.0
816.0
815.0
818.0
816.0
821.0
824.0
822.0
822.0
818.0
817.0
809.0
810.0
809.0
810.0
814.0
818.0
819.0
821.0
822.0
821.0
818.0
817.0
815.0
814.0
812.0
812.0
814.0
816.0
818.0
817.0
817.0
817.0
817.0
816.0
813.0
813.0
811.0
811.0
814.0
816.0
818.0
818.0
818.0
820.0
817.0
810.0
811.0
811.0
812.0
813.0
814.0
815.0
819.0
819.0
817.0
815.0
818.0
815.0
813.0
813.0
811.0
813.0
813.0
815.0
819.0
818.0
817.0
818.0
820.0
819.0
814.0
813.0
814.0
815.0
814.0
821.0
819.0
822.0
819.0
820.0
820.0
813.0
815.0
814.0
814.0
814.0
818.0
821.0
824.0
822.0
824.0
819.0
820.0
820.0
816.0
815.0
815.0
818.0
818.0
824.0
827.0
832.0
834.0
837.0
839.0
836.0
832.0
833.0
834.0
836.0
841.0
845.0
849.0
854.0
856.0
854.0
854.0
851.0
852.0
848.0
844.0
841.0
843.0
842.0
845.0
846.0
842.0
839.0
834.0
827.0
820.0
819.0
816.0
816.0
819.0
821.0
822.0
825.0
824.0
821.0
820.0
817.0
816.0
813.0
812.0
814.0
811.0
814.0
815.0
817.0
816.0
816.0
817.0
814.0
813.0
809.0
811.0
815.0
815.0
821.0
824.0
823.0
823.0
825.0
823.0
828.0
833.0
842.0
856.0
881.0
905.0
935.0
957.0
970.0
964.0
937.0
893.0
833.0
774.0
729.0
686.0
659.0
650.0
662.0
682.0
705.0
727.0
744.0
755.0
771.0
781.0
796.0
807.0
816.0
826.0
829.0
829.0
832.0
830.0
827.0
828.0
829.0
829.0
828.0
828.0
829.0
832.0
833.0
839.0
840.0
843.0
841.0
845.0
840.0
840.0
838.0
838.0
836.0
837.0
840.0
844.0
846.0
847.0
847.0
844.0
846.0
844.0
845.0
844.0
845.0
847.0
850.0
850.0
852.0
852.0
851.0
849.0
851.0
847.0
853.0
852.0
853.0
856.0
860.0
863.0
867.0
869.0
872.0
871.0
873.0
873.0
873.0
873.0
876.0
877.0
883.0
884.0
889.0
893.0
897.0
895.0
897.0
897.0
903.0
909.0
909.0
913.0
921.0
924.0
930.0
932.0
936.0
937.0
937.0
939.0
941.0
940.0
946.0
950.0
950.0
955.0
957.0
956.0
960.0
958.0
959.0
955.0
952.0
948.0
946.0
943.0
943.0
940.0
940.0
937.0
924.0
921.0
916.0
907.0
901.0
892.0
887.0
883.0
880.0
879.0
875.0
870.0
864.0
859.0
853.0
852.0
849.0
844.0
841.0
840.0
841.0
842.0
845.0
841.0
841.0
836.0
835.0
833.0
831.0
827.0
828.0
834.0
838.0
836.0
837.0
838.0
837.0
835.0
835.0
831.0
828.0
829.0
828.0
827.0
833.0
830.0
832.0
833.0
830.0
833.0
835.0
832.0
833.0
831.0
831.0
833.0
834.0
836.0
837.0
837.0
835.0
838.0
832.0
830.0
831.0
828.0
828.0
830.0
830.0
830.0
836.0
835.0
837.0
834.0
829.0
827.0
824.0
823.0
825.0
825.0
826.0
826.0
830.0
827.0
827.0
829.0
824.0
822.0
820.0
817.0
818.0
819.0
822.0
821.0
825.0
822.0
822.0
819.0
819.0
819.0
816.0
819.0
818.0
819.0
818.0
817.0
822.0
822.0
820.0
818.0
817.0
816.0
814.0
812.0
814.0
815.0
816.0
821.0
820.0
821.0
822.0
820.0
817.0
815.0
814.0
812.0
812.0
814.0
816.0
817.0
819.0
817.0
816.0
820.0
816.0
816.0
814.0
815.0
815.0
817.0
816.0
818.0
819.0
816.0
819.0
817.0
815.0
812.0
813.0
813.0
810.0
816.0
813.0
817.0
820.0
818.0
818.0
819.0
817.0
814.0
813.0
811.0
811.0
814.0
815.0
819.0
821.0
820.0
819.0
822.0
818.0
818.0
813.0
814.0
815.0
813.0
816.0
816.0
820.0
820.0
822.0
821.0
821.0
821.0
818.0
818.0
818.0
821.0
821.0
823.0
822.0
822.0
822.0
819.0
817.0
819.0
819.0
817.0
817.0
819.0
821.0
824.0
824.0
825.0
825.0
824.0
822.0
817.0
817.0
811.0
816.0
821.0
824.0
827.0
829.0
831.0
833.0
834.0
834.0
837.0
839.0
837.0
839.0
841.0
843.0
849.0
853.0
855.0
855.0
857.0
852.0
850.0
850.0
848.0
850.0
849.0
849.0
851.0
852.0
848.0
845.0
844.0
839.0
836.0
830.0
826.0
825.0
824.0
824.0
823.0
824.0
825.0
825.0
823.0
820.0
818.0
818.0
813.0
816.0
816.0
818.0
816.0
821.0
820.0
820.0
818.0
817.0
817.0
816.0
814.0
815.0
819.0
820.0
825.0
826.0
824.0
825.0
828.0
830.0
833.0
846.0
861.0
884.0
909.0
942.0
963.0
987.0
1002.0
990.0
961.0
918.0
864.0
810.0
756.0
709.0
683.0
671.0
682.0
702.0
722.0
743.0
759.0
773.0
782.0
796.0
805.0
818.0
824.0
829.0
834.0
835.0
836.0
833.0
832.0
831.0
828.0
831.0
831.0
832.0
837.0
838.0
840.0
843.0
844.0
844.0
845.0
846.0
843.0
844.0
841.0
839.0
844.0
849.0
848.0
849.0
850.0
848.0
849.0
849.0
849.0
852.0
851.0
849.0
851.0
853.0
857.0
860.0
860.0
859.0
861.0
861.0
859.0
860.0
858.0
859.0
861.0
862.0
868.0
873.0
871.0
872.0
875.0
876.0
875.0
877.0
876.0
876.0
881.0
881.0
886.0
888.0
894.0
895.0
901.0
901.0
902.0
908.0
907.0
909.0
916.0
918.0
928.0
931.0
933.0
937.0
939.0
943.0
941.0
943.0
945.0
945.0
948.0
954.0
957.0
962.0
961.0
960.0
960.0
958.0
957.0
955.0
953.0
949.0
947.0
945.0
941.0
941.0
933.0
931.0
926.0
918.0
913.0
907.0
899.0
893.0
890.0
882.0
883.0
880.0
874.0
869.0
863.0
857.0
852.0
849.0
846.0
843.0
842.0
841.0
841.0
842.0
841.0
838.0
838.0
837.0
835.0
835.0
833.0
830.0
831.0
831.0
832.0
836.0
836.0
834.0
835.0
834.0
831.0
831.0
830.0
830.0
833.0
833.0
832.0
840.0
839.0
836.0
834.0
831.0
831.0
832.0
830.0
824.0
831.0
832.0
833.0
834.0
838.0
839.0
838.0
835.0
832.0
831.0
829.0
828.0
830.0
834.0
835.0
837.0
835.0
833.0
833.0
831.0
829.0
829.0
825.0
824.0
828.0
826.0
827.0
829.0
826.0
826.0
827.0
824.0
822.0
821.0
821.0
820.0
821.0
822.0
824.0
822.0
822.0
822.0
822.0
817.0
815.0
818.0
816.0
816.0
818.0
818.0
822.0
824.0
824.0
822.0
820.0
819.0
821.0
818.0
812.0
810.0
811.0
816.0
819.0
822.0
823.0
818.0
821.0
819.0
820.0
817.0
817.0
818.0
814.0
818.0
819.0
822.0
821.0
822.0
818.0
817.0
817.0
814.0
815.0
814.0
814.0
818.0
818.0
820.0
819.0
819.0
818.0
818.0
817.0
815.0
812.0
812.0
811.0
817.0
820.0
822.0
821.0
823.0
823.0
822.0
822.0
821.0
818.0
817.0
817.0
819.0
821.0
822.0
824.0
823.0
822.0
822.0
821.0
820.0
818.0
819.0
821.0
823.0
823.0
824.0
825.0
824.0
824.0
824.0
822.0
822.0
820.0
818.0
818.0
822.0
823.0
826.0
826.0
824.0
821.0
822.0
820.0
821.0
821.0
821.0
823.0
822.0
822.0
826.0
826.0
825.0
824.0
822.0
824.0
824.0
824.0
824.0
823.0
825.0
826.0
828.0
827.0
827.0
826.0
824.0
822.0
823.0
820.0
820.0
822.0
828.0
828.0
829.0
829.0
830.0
827.0
827.0
825.0
825.0
823.0
822.0
823.0
828.0
830.0
834.0
834.0
841.0
843.0
841.0
842.0
844.0
843.0
845.0
847.0
850.0
856.0
860.0
862.0
865.0
861.0
861.0
857.0
853.0
849.0
851.0
851.0
848.0
851.0
851.0
854.0
848.0
846.0
837.0
833.0
825.0
826.0
823.0
822.0
820.0
825.0
825.0
823.0
824.0
826.0
822.0
820.0
817.0
816.0
815.0
815.0
817.0
817.0
820.0
821.0
820.0
818.0
816.0
820.0
818.0
816.0
816.0
818.0
821.0
825.0
827.0
829.0
828.0
829.0
832.0
849.0
863.0
882.0
902.0
926.0
954.0
978.0
988.0
982.0
957.0
918.0
866.0
812.0
761.0
719.0
684.0
669.0
677.0
694.0
718.0
741.0
756.0
771.0
785.0
794.0
808.0
816.0
823.0
826.0
834.0
835.0
835.0
832.0
835.0
834.0
836.0
833.0
835.0
835.0
834.0
837.0
839.0
840.0
844.0
844.0
845.0
847.0
845.0
848.0
843.0
847.0
844.0
842.0
844.0
843.0
848.0
850.0
851.0
851.0
850.0
850.0
850.0
849.0
848.0
851.0
853.0
854.0
857.0
856.0
858.0
858.0
856.0
856.0
856.0
855.0
859.0
862.0
865.0
868.0
870.0
872.0
875.0
872.0
877.0
876.0
874.0
872.0
875.0
879.0
881.0
884.0
890.0
893.0
896.0
901.0
901.0
905.0
903.0
909.0
909.0
913.0
918.0
921.0
930.0
934.0
936.0
938.0
937.0
938.0
938.0
939.0
940.0
944.0
949.0
950.0
953.0
959.0
959.0
960.0
957.0
954.0
952.0
949.0
947.0
943.0
943.0
939.0
939.0
933.0
929.0
921.0
915.0
910.0
902.0
897.0
888.0
882.0
885.0
878.0
876.0
871.0
867.0
862.0
857.0
852.0
847.0
844.0
843.0
842.0
840.0
840.0
841.0
839.0
841.0
839.0
834.0
834.0
830.0
827.0
826.0
826.0
828.0
830.0
832.0
836.0
834.0
836.0
833.0
834.0
830.0
830.0
829.0
834.0
833.0
834.0
835.0
835.0
833.0
833.0
832.0
829.0
829.0
829.0
828.0
831.0
832.0
833.0
834.0
834.0
834.0
832.0
832.0
830.0
827.0
827.0
825.0
826.0
828.0
832.0
834.0
833.0
831.0
833.0
827.0
826.0
822.0
823.0
822.0
824.0
824.0
825.0
826.0
826.0
823.0
817.0
816.0
819.0
816.0
818.0
815.0
818.0
820.0
819.0
819.0
824.0
822.0
821.0
820.0
819.0
816.0
815.0
816.0
817.0
818.0
817.0
821.0
820.0
821.0
817.0
817.0
818.0
810.0
806.0
807.0
811.0
814.0
816.0
814.0
816.0
818.0
819.0
816.0
814.0
811.0
813.0
814.0
814.0
814.0
817.0
820.0
819.0
818.0
817.0
813.0
812.0
812.0
810.0
811.0
810.0
814.0
813.0
818.0
817.0
816.0
817.0
816.0
812.0
813.0
807.0
807.0
811.0
812.0
813.0
815.0
818.0
816.0
815.0
815.0
813.0
812.0
811.0
813.0
812.0
814.0
811.0
814.0
817.0
818.0
817.0
815.0
812.0
815.0
812.0
810.0
809.0
813.0
815.0
814.0
816.0
816.0
814.0
811.0
813.0
814.0
815.0
812.0
810.0
810.0
814.0
819.0
821.0
819.0
817.0
815.0
813.0
813.0
812.0
812.0
814.0
818.0
818.0
819.0
819.0
821.0
822.0
818.0
816.0
812.0
810.0
812.0
814.0
817.0
817.0
818.0
819.0
820.0
819.0
820.0
817.0
815.0
813.0
814.0
815.0
817.0
819.0
823.0
825.0
826.0
825.0
826.0
828.0
828.0
830.0
832.0
836.0
836.0
838.0
839.0
841.0
847.0
847.0
852.0
854.0
853.0
853.0
854.0
853.0
853.0
850.0
851.0
851.0
846.0
845.0
842.0
836.0
834.0
829.0
825.0
817.0
818.0
820.0
823.0
823.0
823.0
818.0
817.0
814.0
815.0
811.0
810.0
812.0
812.0
813.0
817.0
817.0
818.0
813.0
811.0
811.0
811.0
808.0
811.0
814.0
816.0
819.0
821.0
821.0
822.0
822.0
819.0
822.0
825.0
837.0
850.0
870.0
895.0
920.0
946.0
970.0
977.0
967.0
937.0
896.0
841.0
785.0
740.0
698.0
667.0
652.0
648.0
662.0
683.0
701.0
717.0
731.0
748.0
758.0
770.0
786.0
801.0
812.0
823.0
825.0
828.0
825.0
824.0
822.0
821.0
823.0
824.0
829.0
833.0
835.0
837.0
837.0
836.0
840.0
839.0
835.0
836.0
833.0
835.0
839.0
839.0
842.0
844.0
847.0
848.0
848.0
844.0
845.0
843.0
844.0
844.0
846.0
846.0
848.0
850.0
852.0
850.0
852.0
851.0
850.0
850.0
849.0
852.0
855.0
857.0
856.0
864.0
866.0
866.0
865.0
865.0
866.0
865.0
868.0
867.0
873.0
874.0
879.0
884.0
886.0
889.0
892.0
890.0
895.0
895.0
899.0
901.0
904.0
910.0
913.0
918.0
922.0
925.0
925.0
926.0
930.0
929.0
934.0
937.0
941.0
943.0
950.0
948.0
953.0
952.0
955.0
953.0
953.0
952.0
951.0
952.0
954.0
949.0
952.0
951.0
948.0
948.0
943.0
941.0
934.0
927.0
921.0
913.0
908.0
903.0
897.0
895.0
893.0
888.0
883.0
876.0
868.0
864.0
860.0
857.0
852.0
852.0
853.0
853.0
850.0
847.0
840.0
842.0
836.0
833.0
831.0
833.0
835.0
835.0
838.0
838.0
834.0
835.0
836.0
834.0
834.0
832.0
832.0
831.0
832.0
834.0
835.0
837.0
837.0
835.0
833.0
832.0
