# Simple Text Format
# Sampling Rate (Hz):= 360.00
# Resolution:= 12
# Labels:= ECG
812.0
812.0
815.0
817.0
821.0
821.0
821.0
821.0
820.0
816.0
814.0
812.0
809.0
814.0
816.0
817.0
820.0
820.0
819.0
821.0
819.0
819.0
818.0
814.0
816.0
816.0
821.0
820.0
823.0
823.0
823.0
823.0
820.0
818.0
814.0
812.0
813.0
817.0
817.0
821.0
822.0
823.0
823.0
821.0
818.0
820.0
817.0
815.0
814.0
814.0
814.0
818.0
822.0
824.0
822.0
824.0
821.0
818.0
816.0
816.0
817.0
818.0
819.0
820.0
822.0
822.0
822.0
821.0
819.0
817.0
816.0
815.0
817.0
819.0
817.0
822.0
825.0
825.0
823.0
822.0
821.0
818.0
816.0
817.0
819.0
818.0
821.0
822.0
826.0
829.0
834.0
836.0
834.0
832.0
835.0
834.0
838.0
837.0
841.0
845.0
850.0
853.0
850.0
853.0
850.0
853.0
847.0
845.0
842.0
843.0
840.0
843.0
846.0
846.0
842.0
837.0
835.0
826.0
821.0
816.0
810.0
815.0
815.0
818.0
821.0
821.0
818.0
822.0
818.0
816.0
811.0
810.0
808.0
810.0
812.0
815.0
814.0
816.0
816.0
816.0
815.0
816.0
815.0
813.0
813.0
815.0
816.0
819.0
819.0
822.0
825.0
828.0
837.0
851.0
867.0
889.0
916.0
942.0
960.0
971.0
960.0
929.0
885.0
832.0
776.0
729.0
692.0
669.0
665.0
678.0
696.0
722.0
744.0
762.0
775.0
789.0
796.0
809.0
814.0
819.0
819.0
819.0
819.0
822.0
823.0
823.0
824.0
826.0
821.0
827.0
826.0
824.0
827.0
830.0
831.0
835.0
836.0
839.0
838.0
837.0
834.0
835.0
834.0
834.0
835.0
839.0
839.0
844.0
843.0
847.0
848.0
849.0
848.0
845.0
846.0
843.0
844.0
846.0
847.0
845.0
853.0
857.0
857.0
858.0
859.0
856.0
855.0
851.0
854.0
858.0
858.0
866.0
868.0
871.0
872.0
872.0
874.0
873.0
875.0
875.0
877.0
882.0
885.0
890.0
896.0
897.0
904.0
907.0
905.0
905.0
909.0
914.0
915.0
917.0
924.0
929.0
932.0
934.0
935.0
940.0
940.0
941.0
941.0
939.0
942.0
944.0
945.0
946.0
945.0
945.0
941.0
939.0
933.0
928.0
920.0
914.0
907.0
902.0
900.0
894.0
891.0
886.0
880.0
874.0
866.0
859.0
853.0
851.0
847.0
844.0
843.0
843.0
840.0
838.0
839.0
836.0
832.0
830.0
827.0
821.0
823.0
825.0
821.0
825.0
823.0
824.0
826.0
824.0
823.0
820.0
819.0
821.0
821.0
821.0
821.0
825.0
827.0
828.0
826.0
823.0
821.0
825.0
820.0
820.0
821.0
824.0
824.0
828.0
827.0
827.0
827.0
825.0
823.0
820.0
820.0
816.0
816.0
818.0
820.0
819.0
822.0
823.0
824.0
826.0
825.0
823.0
822.0
817.0
817.0
815.0
818.0
824.0
824.0
824.0
820.0
820.0
817.0
813.0
812.0
813.0
815.0
814.0
817.0
815.0
820.0
822.0
821.0
819.0
818.0
817.0
811.0
812.0
811.0
813.0
814.0
813.0
816.0
819.0
818.0
818.0
816.0
815.0
811.0
811.0
812.0
812.0
813.0
810.0
816.0
818.0
815.0
815.0
816.0
813.0
810.0
804.0
803.0
807.0
810.0
811.0
816.0
815.0
816.0
812.0
811.0
810.0
807.0
807.0
808.0
808.0
812.0
811.0
815.0
814.0
813.0
809.0
812.0
805.0
806.0
805.0
807.0
806.0
806.0
812.0
810.0
812.0
811.0
811.0
810.0
811.0
810.0
807.0
807.0
808.0
810.0
812.0
811.0
812.0
812.0
808.0
807.0
809.0
804.0
803.0
806.0
809.0
809.0
810.0
812.0
814.0
813.0
814.0
810.0
811.0
811.0
809.0
809.0
809.0
809.0
810.0
814.0
811.0
812.0
812.0
809.0
809.0
808.0
807.0
807.0
809.0
812.0
813.0
814.0
813.0
812.0
812.0
812.0
808.0
807.0
806.0
808.0
808.0
810.0
809.0
813.0
813.0
814.0
817.0
815.0
812.0
810.0
810.0
809.0
811.0
814.0
815.0
818.0
816.0
818.0
813.0
812.0
809.0
810.0
810.0
811.0
809.0
814.0
816.0
816.0
818.0
818.0
818.0
817.0
815.0
812.0
813.0
817.0
819.0
822.0
827.0
830.0
834.0
835.0
836.0
832.0
833.0
832.0
834.0
838.0
842.0
845.0
850.0
850.0
853.0
850.0
849.0
847.0
841.0
837.0
835.0
834.0
837.0
836.0
837.0
834.0
832.0
826.0
823.0
819.0
816.0
814.0
813.0
816.0
814.0
816.0
815.0
814.0
816.0
817.0
814.0
811.0
809.0
810.0
808.0
809.0
809.0
810.0
812.0
814.0
816.0
816.0
816.0
813.0
815.0
816.0
811.0
815.0
818.0
823.0
827.0
839.0
849.0
866.0
880.0
900.0
926.0
952.0
968.0
974.0
957.0
928.0
881.0
830.0
781.0
733.0
693.0
662.0
647.0
649.0
662.0
685.0
709.0
728.0
745.0
758.0
773.0
785.0
801.0
811.0
820.0
822.0
826.0
822.0
824.0
823.0
823.0
828.0
833.0
828.0
834.0
825.0
829.0
834.0
833.0
832.0
835.0
835.0
840.0
841.0
844.0
842.0
839.0
837.0
838.0
841.0
837.0
839.0
839.0
843.0
846.0
849.0
853.0
854.0
852.0
849.0
849.0
848.0
849.0
852.0
849.0
853.0
857.0
858.0
861.0
857.0
863.0
863.0
864.0
865.0
865.0
863.0
865.0
866.0
870.0
874.0
877.0
876.0
880.0
880.0
881.0
882.0
886.0
890.0
895.0
898.0
905.0
906.0
911.0
915.0
920.0
922.0
926.0
923.0
924.0
927.0
925.0
931.0
935.0
938.0
943.0
949.0
950.0
947.0
948.0
947.0
949.0
949.0
952.0
951.0
950.0
949.0
947.0
946.0
944.0
940.0
935.0
932.0
924.0
919.0
917.0
914.0
908.0
903.0
898.0
892.0
884.0
880.0
874.0
868.0
862.0
859.0
854.0
854.0
853.0
852.0
850.0
849.0
846.0
844.0
842.0
841.0
839.0
837.0
836.0
838.0
838.0
839.0
843.0
838.0
837.0
835.0
834.0
834.0
832.0
834.0
834.0
836.0
836.0
837.0
840.0
836.0
836.0
834.0
834.0
833.0
835.0
835.0
835.0
838.0
836.0
840.0
841.0
838.0
837.0
837.0
834.0
834.0
832.0
834.0
833.0
830.0
836.0
836.0
841.0
839.0
840.0
836.0
832.0
833.0
833.0
831.0
832.0
831.0
831.0
831.0
833.0
827.0
828.0
825.0
827.0
825.0
824.0
823.0
824.0
827.0
828.0
828.0
832.0
831.0
831.0
828.0
826.0
824.0
820.0
819.0
821.0
821.0
824.0
825.0
827.0
824.0
825.0
820.0
821.0
822.0
819.0
820.0
814.0
816.0
817.0
820.0
822.0
820.0
819.0
818.0
819.0
820.0
817.0
815.0
817.0
818.0
820.0
823.0
824.0
822.0
820.0
820.0
816.0
816.0
813.0
814.0
816.0
817.0
820.0
820.0
821.0
821.0
819.0
819.0
820.0
817.0
818.0
818.0
819.0
818.0
819.0
822.0
823.0
821.0
821.0
818.0
819.0
816.0
816.0
813.0
816.0
820.0
823.0
823.0
827.0
824.0
822.0
820.0
819.0
815.0
816.0
815.0
817.0
818.0
823.0
825.0
826.0
824.0
826.0
822.0
820.0
817.0
815.0
818.0
818.0
819.0
820.0
821.0
823.0
821.0
824.0
824.0
823.0
821.0
821.0
819.0
818.0
819.0
823.0
824.0
823.0
824.0
822.0
822.0
823.0
819.0
820.0
820.0
817.0
819.0
824.0
822.0
824.0
828.0
827.0
825.0
824.0
821.0
822.0
824.0
823.0
824.0
828.0
828.0
830.0
832.0
829.0
827.0
828.0
824.0
823.0
822.0
824.0
825.0
824.0
826.0
830.0
829.0
829.0
832.0
830.0
832.0
835.0
838.0
838.0
837.0
839.0
845.0
848.0
848.0
851.0
849.0
850.0
855.0
853.0
856.0
857.0
857.0
859.0
857.0
857.0
854.0
853.0
851.0
849.0
849.0
848.0
842.0
836.0
833.0
832.0
831.0
830.0
830.0
829.0
828.0
829.0
827.0
824.0
826.0
825.0
825.0
824.0
825.0
825.0
825.0
822.0
819.0
818.0
823.0
822.0
821.0
824.0
822.0
823.0
824.0
828.0
828.0
829.0
830.0
826.0
829.0
830.0
839.0
855.0
877.0
899.0
934.0
963.0
988.0
1001.0
999.0
976.0
935.0
887.0
835.0
782.0
740.0
704.0
685.0
683.0
694.0
715.0
738.0
754.0
769.0
787.0
798.0
811.0
821.0
827.0
835.0
839.0
841.0
839.0
834.0
833.0
833.0
831.0
832.0
836.0
840.0
842.0
848.0
846.0
848.0
849.0
848.0
846.0
845.0
846.0
842.0
842.0
846.0
848.0
851.0
853.0
854.0
854.0
852.0
851.0
854.0
851.0
851.0
859.0
859.0
860.0
862.0
863.0
863.0
864.0
863.0
862.0
860.0
862.0
861.0
863.0
865.0
868.0
871.0
875.0
878.0
878.0
879.0
881.0
880.0
878.0
877.0
881.0
884.0
886.0
891.0
898.0
899.0
902.0
903.0
907.0
906.0
910.0
914.0
918.0
919.0
923.0
934.0
936.0
939.0
940.0
942.0
944.0
945.0
947.0
947.0
953.0
956.0
962.0
965.0
968.0
970.0
966.0
968.0
964.0
963.0
964.0
962.0
962.0
961.0
958.0
957.0
956.0
952.0
948.0
943.0
938.0
930.0
923.0
916.0
911.0
907.0
899.0
894.0
889.0
885.0
881.0
872.0
869.0
865.0
861.0
854.0
851.0
853.0
849.0
849.0
850.0
850.0
845.0
847.0
842.0
842.0
838.0
837.0
833.0
836.0
838.0
840.0
841.0
841.0
840.0
839.0
838.0
836.0
833.0
832.0
833.0
837.0
836.0
838.0
840.0
840.0
837.0
839.0
841.0
837.0
836.0
835.0
835.0
836.0
839.0
838.0
845.0
842.0
839.0
838.0
834.0
832.0
830.0
831.0
831.0
835.0
836.0
839.0
839.0
838.0
837.0
836.0
837.0
832.0
832.0
833.0
832.0
833.0
834.0
830.0
835.0
833.0
830.0
829.0
827.0
827.0
824.0
824.0
824.0
825.0
827.0
825.0
826.0
830.0
826.0
826.0
824.0
822.0
819.0
820.0
819.0
821.0
822.0
824.0
826.0
825.0
825.0
823.0
821.0
818.0
817.0
815.0
814.0
817.0
819.0
821.0
821.0
823.0
823.0
821.0
821.0
816.0
814.0
814.0
817.0
819.0
818.0
821.0
821.0
815.0
819.0
820.0
820.0
817.0
813.0
815.0
817.0
818.0
820.0
823.0
826.0
822.0
822.0
821.0
821.0
817.0
815.0
816.0
815.0
815.0
818.0
821.0
824.0
824.0
822.0
821.0
820.0
818.0
814.0
813.0
816.0
816.0
821.0
818.0
820.0
817.0
822.0
820.0
819.0
819.0
818.0
817.0
817.0
819.0
820.0
821.0
822.0
822.0
821.0
817.0
815.0
816.0
815.0
814.0
814.0
817.0
817.0
820.0
823.0
823.0
822.0
821.0
819.0
818.0
820.0
816.0
818.0
818.0
817.0
818.0
819.0
817.0
820.0
819.0
815.0
817.0
817.0
816.0
815.0
816.0
821.0
820.0
824.0
822.0
824.0
822.0
817.0
817.0
813.0
811.0
816.0
817.0
818.0
821.0
825.0
824.0
822.0
822.0
817.0
815.0
815.0
817.0
817.0
817.0
821.0
820.0
822.0
824.0
826.0
826.0
827.0
829.0
831.0
833.0
835.0
840.0
841.0
843.0
844.0
844.0
847.0
845.0
849.0
849.0
851.0
853.0
852.0
856.0
853.0
857.0
856.0
853.0
848.0
845.0
844.0
841.0
838.0
838.0
834.0
831.0
826.0
826.0
826.0
823.0
826.0
822.0
823.0
820.0
817.0
816.0
814.0
819.0
818.0
819.0
817.0
818.0
818.0
816.0
818.0
813.0
814.0
812.0
811.0
816.0
813.0
819.0
822.0
822.0
821.0
820.0
820.0
818.0
821.0
820.0
818.0
822.0
832.0
843.0
859.0
876.0
899.0
923.0
950.0
967.0
975.0
965.0
938.0
899.0
846.0
796.0
749.0
707.0
674.0
656.0
654.0
666.0
687.0
706.0
725.0
747.0
761.0
777.0
796.0
808.0
818.0
820.0
824.0
827.0
829.0
824.0
823.0
827.0
828.0
831.0
837.0
836.0
837.0
839.0
839.0
837.0
837.0
836.0
835.0
839.0
841.0
843.0
848.0
848.0
845.0
845.0
845.0
846.0
845.0
845.0
844.0
847.0
849.0
851.0
854.0
852.0
854.0
855.0
851.0
849.0
851.0
849.0
850.0
849.0
850.0
855.0
860.0
864.0
862.0
864.0
862.0
865.0
863.0
866.0
864.0
870.0
874.0
875.0
878.0
879.0
878.0
878.0
881.0
881.0
881.0
885.0
892.0
896.0
902.0
906.0
909.0
911.0
917.0
915.0
919.0
917.0
924.0
925.0
928.0
932.0
938.0
942.0
949.0
952.0
956.0
956.0
956.0
957.0
957.0
957.0
957.0
962.0
964.0
965.0
966.0
966.0
964.0
963.0
958.0
953.0
952.0
945.0
941.0
936.0
934.0
935.0
933.0
925.0
920.0
913.0
902.0
895.0
889.0
880.0
875.0
872.0
867.0
866.0
868.0
863.0
859.0
855.0
851.0
848.0
846.0
842.0
842.0
842.0
840.0
844.0
843.0
844.0
841.0
841.0
841.0
838.0
837.0
838.0
834.0
836.0
836.0
841.0
845.0
841.0
841.0
837.0
836.0
836.0
833.0
831.0
832.0
837.0
840.0
839.0
842.0
839.0
840.0
838.0
841.0
832.0
834.0
833.0
832.0
835.0
839.0
839.0
841.0
842.0
840.0
841.0
837.0
840.0
837.0
835.0
833.0
835.0
838.0
837.0
839.0
838.0
835.0
834.0
830.0
830.0
829.0
824.0
827.0
831.0
834.0
834.0
835.0
836.0
835.0
833.0
829.0
827.0
826.0
825.0
822.0
822.0
825.0
830.0
827.0
827.0
829.0
831.0
830.0
826.0
829.0
823.0
824.0
827.0
825.0
828.0
831.0
830.0
828.0
827.0
826.0
824.0
824.0
823.0
822.0
821.0
829.0
831.0
832.0
832.0
829.0
829.0
828.0
821.0
821.0
818.0
823.0
825.0
824.0
826.0
829.0
830.0
828.0
827.0
826.0
828.0
822.0
822.0
823.0
824.0
822.0
827.0
830.0
829.0
828.0
827.0
828.0
824.0
824.0
823.0
825.0
822.0
825.0
827.0
830.0
831.0
828.0
827.0
826.0
824.0
823.0
822.0
822.0
823.0
825.0
827.0
829.0
829.0
830.0
827.0
830.0
828.0
829.0
824.0
824.0
827.0
827.0
828.0
830.0
829.0
826.0
825.0
828.0
826.0
825.0
823.0
826.0
825.0
829.0
828.0
832.0
830.0
829.0
827.0
824.0
826.0
825.0
826.0
825.0
825.0
830.0
829.0
831.0
833.0
831.0
832.0
831.0
829.0
828.0
827.0
824.0
826.0
826.0
829.0
832.0
832.0
830.0
831.0
827.0
827.0
828.0
828.0
828.0
829.0
831.0
834.0
834.0
831.0
832.0
836.0
835.0
836.0
839.0
841.0
846.0
849.0
851.0
851.0
855.0
854.0
859.0
859.0
863.0
861.0
861.0
858.0
858.0
859.0
857.0
858.0
858.0
857.0
856.0
854.0
854.0
850.0
847.0
843.0
838.0
837.0
834.0
834.0
838.0
836.0
837.0
835.0
832.0
828.0
824.0
826.0
826.0
824.0
829.0
829.0
832.0
831.0
828.0
827.0
825.0
822.0
824.0
822.0
824.0
827.0
829.0
833.0
833.0
835.0
836.0
835.0
835.0
833.0
835.0
839.0
853.0
868.0
900.0
929.0
958.0
986.0
1006.0
1011.0
996.0
962.0
913.0
859.0
808.0
757.0
719.0
692.0
686.0
692.0
711.0
736.0
758.0
774.0
788.0
800.0
812.0
823.0
836.0
843.0
847.0
846.0
843.0
840.0
839.0
842.0
840.0
839.0
842.0
845.0
848.0
852.0
854.0
854.0
856.0
856.0
855.0
856.0
855.0
855.0
853.0
855.0
856.0
858.0
864.0
864.0
867.0
864.0
864.0
861.0
863.0
864.0
864.0
867.0
869.0
872.0
876.0
874.0
873.0
871.0
873.0
870.0
870.0
868.0
873.0
874.0
877.0
878.0
882.0
884.0
888.0
889.0
890.0
889.0
888.0
889.0
891.0
896.0
895.0
897.0
902.0
908.0
911.0
911.0
916.0
917.0
921.0
923.0
925.0
931.0
936.0
939.0
944.0
950.0
949.0
951.0
955.0
954.0
958.0
961.0
964.0
963.0
973.0
972.0
976.0
974.0
977.0
979.0
979.0
976.0
975.0
972.0
969.0
967.0
966.0
964.0
963.0
957.0
953.0
947.0
941.0
933.0
928.0
921.0
914.0
911.0
907.0
904.0
899.0
895.0
889.0
883.0
877.0
873.0
870.0
864.0
860.0
860.0
861.0
859.0
860.0
853.0
854.0
854.0
852.0
848.0
843.0
843.0
844.0
847.0
846.0
848.0
852.0
851.0
850.0
850.0
848.0
845.0
842.0
840.0
842.0
842.0
843.0
847.0
850.0
850.0
849.0
847.0
847.0
844.0
844.0
841.0
842.0
844.0
848.0
848.0
849.0
848.0
845.0
846.0
843.0
843.0
844.0
843.0
842.0
844.0
844.0
844.0
848.0
848.0
851.0
846.0
844.0
841.0
838.0
835.0
835.0
839.0
837.0
838.0
838.0
839.0
839.0
838.0
837.0
837.0
835.0
833.0
834.0
835.0
834.0
835.0
835.0
840.0
838.0
836.0
833.0
830.0
828.0
828.0
830.0
831.0
833.0
835.0
837.0
837.0
837.0
837.0
833.0
832.0
831.0
829.0
831.0
831.0
830.0
832.0
835.0
836.0
836.0
834.0
831.0
832.0
826.0
828.0
827.0
826.0
832.0
833.0
833.0
833.0
832.0
832.0
827.0
828.0
826.0
826.0
824.0
829.0
829.0
831.0
834.0
834.0
834.0
833.0
831.0
830.0
828.0
829.0
825.0
829.0
828.0
827.0
828.0
833.0
832.0
835.0
830.0
829.0
825.0
822.0
824.0
828.0
833.0
829.0
829.0
830.0
831.0
831.0
828.0
828.0
828.0
827.0
826.0
830.0
833.0
832.0
834.0
834.0
835.0
833.0
830.0
829.0
829.0
828.0
827.0
828.0
832.0
834.0
836.0
836.0
836.0
834.0
832.0
831.0
829.0
828.0
828.0
830.0
829.0
831.0
834.0
833.0
833.0
834.0
831.0
832.0
830.0
830.0
831.0
830.0
833.0
833.0
837.0
836.0
836.0
835.0
831.0
829.0
829.0
831.0
831.0
831.0
828.0
836.0
837.0
837.0
835.0
832.0
833.0
830.0
828.0
832.0
833.0
832.0
829.0
830.0
839.0
839.0
838.0
838.0
839.0
837.0
835.0
835.0
837.0
837.0
839.0
841.0
842.0
844.0
847.0
850.0
849.0
847.0
848.0
848.0
849.0
851.0
856.0
861.0
866.0
871.0
874.0
876.0
872.0
873.0
870.0
870.0
865.0
862.0
862.0
860.0
861.0
863.0
859.0
859.0
853.0
845.0
840.0
838.0
834.0
834.0
833.0
836.0
833.0
835.0
838.0
835.0
832.0
829.0
830.0
826.0
824.0
824.0
822.0
827.0
831.0
830.0
832.0
829.0
829.0
824.0
822.0
823.0
826.0
828.0
829.0
831.0
834.0
833.0
832.0
833.0
833.0
836.0
836.0
841.0
851.0
866.0
883.0
903.0
932.0
961.0
982.0
991.0
984.0
959.0
917.0
866.0
812.0
763.0
726.0
698.0
682.0
684.0
699.0
718.0
738.0
750.0
765.0
778.0
796.0
808.0
823.0
831.0
840.0
845.0
844.0
844.0
845.0
840.0
840.0
841.0
843.0
847.0
850.0
852.0
855.0
855.0
856.0
856.0
855.0
854.0
854.0
850.0
852.0
856.0
858.0
859.0
866.0
865.0
866.0
865.0
866.0
864.0
863.0
865.0
863.0
865.0
864.0
868.0
870.0
869.0
871.0
871.0
869.0
870.0
872.0
871.0
871.0
873.0
875.0
877.0
880.0
883.0
877.0
881.0
879.0
880.0
880.0
882.0
884.0
887.0
889.0
895.0
896.0
902.0
901.0
901.0
902.0
902.0
906.0
908.0
905.0
912.0
917.0
920.0
924.0
928.0
929.0
933.0
939.0
941.0
944.0
946.0
948.0
951.0
958.0
961.0
966.0
969.0
970.0
974.0
972.0
975.0
975.0
977.0
978.0
977.0
979.0
979.0
980.0
984.0
980.0
979.0
976.0
972.0
964.0
962.0
954.0
949.0
946.0
947.0
941.0
938.0
930.0
925.0
918.0
909.0
905.0
901.0
895.0
891.0
888.0
885.0
881.0
879.0
875.0
870.0
864.0
863.0
858.0
855.0
854.0
855.0
857.0
854.0
857.0
858.0
855.0
855.0
852.0
849.0
847.0
847.0
846.0
848.0
850.0
852.0
853.0
853.0
854.0
855.0
854.0
854.0
851.0
851.0
850.0
850.0
851.0
857.0
857.0
858.0
856.0
857.0
854.0
852.0
848.0
850.0
851.0
850.0
855.0
856.0
857.0
860.0
858.0
855.0
854.0
853.0
854.0
855.0
851.0
851.0
851.0
848.0
850.0
854.0
853.0
854.0
850.0
849.0
847.0
847.0
847.0
847.0
847.0
846.0
850.0
851.0
848.0
848.0
844.0
844.0
842.0
841.0
841.0
843.0
843.0
843.0
845.0
842.0
844.0
844.0
842.0
839.0
837.0
835.0
833.0
838.0
839.0
841.0
839.0
843.0
844.0
844.0
843.0
840.0
834.0
836.0
836.0
837.0
838.0
840.0
841.0
844.0
843.0
843.0
839.0
839.0
838.0
834.0
836.0
837.0
836.0
836.0
839.0
841.0
841.0
840.0
837.0
838.0
836.0
837.0
832.0
834.0
837.0
838.0
843.0
843.0
841.0
844.0
841.0
837.0
837.0
833.0
835.0
834.0
838.0
838.0
839.0
840.0
838.0
838.0
837.0
837.0
836.0
835.0
836.0
838.0
841.0
838.0
838.0
843.0
844.0
844.0
842.0
837.0
836.0
833.0
832.0
834.0
835.0
839.0
839.0
843.0
840.0
841.0
840.0
839.0
840.0
838.0
836.0
836.0
836.0
839.0
839.0
843.0
840.0
836.0
836.0
839.0
837.0
835.0
835.0
836.0
840.0
841.0
840.0
840.0
843.0
842.0
842.0
843.0
838.0
835.0
838.0
838.0
839.0
838.0
842.0
842.0
844.0
843.0
841.0
840.0
839.0
842.0
842.0
843.0
845.0
845.0
847.0
848.0
848.0
849.0
845.0
844.0
843.0
843.0
845.0
848.0
851.0
856.0
859.0
860.0
860.0
860.0
863.0
864.0
862.0
864.0
867.0
874.0
879.0
882.0
882.0
881.0
882.0
879.0
875.0
871.0
863.0
862.0
861.0
859.0
859.0
861.0
860.0
854.0
851.0
848.0
849.0
847.0
845.0
843.0
845.0
842.0
844.0
844.0
844.0
843.0
843.0
842.0
840.0
838.0
841.0
838.0
838.0
837.0
839.0
839.0
843.0
845.0
846.0
842.0
844.0
841.0
840.0
838.0
841.0
840.0
844.0
846.0
854.0
861.0
875.0
891.0
913.0
938.0
971.0
992.0
1008.0
1007.0
982.0
942.0
892.0
834.0
778.0
729.0
696.0
683.0
690.0
711.0
734.0
758.0
776.0
792.0
804.0
818.0
832.0
841.0
849.0
854.0
856.0
852.0
851.0
854.0
857.0
856.0
861.0
861.0
862.0
867.0
867.0
866.0
866.0
863.0
867.0
868.0
868.0
868.0
875.0
875.0
875.0
875.0
870.0
872.0
873.0
875.0
875.0
876.0
877.0
876.0
880.0
882.0
883.0
884.0
881.0
879.0
879.0
876.0
883.0
885.0
886.0
889.0
892.0
894.0
894.0
891.0
894.0
893.0
890.0
889.0
892.0
893.0
895.0
900.0
903.0
906.0
911.0
911.0
911.0
912.0
908.0
911.0
915.0
919.0
920.0
925.0
933.0
934.0
939.0
940.0
943.0
944.0
946.0
949.0
952.0
956.0
958.0
967.0
970.0
973.0
974.0
976.0
978.0
980.0
975.0
975.0
977.0
980.0
983.0
984.0
985.0
989.0
987.0
988.0
981.0
979.0
977.0
973.0
970.0
967.0
967.0
964.0
963.0
957.0
951.0
946.0
940.0
932.0
925.0
918.0
915.0
909.0
907.0
905.0
903.0
899.0
893.0
888.0
885.0
877.0
878.0
874.0
870.0
870.0
869.0
868.0
868.0
867.0
866.0
866.0
867.0
865.0
864.0
860.0
861.0
858.0
861.0
864.0
866.0
861.0
859.0
858.0
857.0
858.0
854.0
855.0
856.0
861.0
861.0
863.0
865.0
867.0
867.0
866.0
865.0
864.0
861.0
860.0
859.0
862.0
865.0
864.0
866.0
866.0
869.0
869.0
866.0
862.0
860.0
860.0
859.0
859.0
859.0
864.0
861.0
860.0
857.0
859.0
856.0
855.0
855.0
853.0
852.0
854.0
854.0
854.0
856.0
858.0
856.0
855.0
853.0
852.0
848.0
846.0
845.0
844.0
849.0
850.0
851.0
850.0
850.0
849.0
851.0
847.0
847.0
840.0
842.0
844.0
846.0
845.0
846.0
850.0
847.0
846.0
846.0
845.0
844.0
844.0
842.0
843.0
842.0
845.0
845.0
849.0
847.0
847.0
844.0
841.0
841.0
838.0
839.0
838.0
838.0
842.0
844.0
848.0
845.0
847.0
844.0
846.0
844.0
843.0
841.0
840.0
844.0
842.0
846.0
844.0
843.0
842.0
842.0
841.0
841.0
842.0
841.0
840.0
842.0
842.0
843.0
848.0
844.0
844.0
842.0
839.0
839.0
840.0
841.0
840.0
845.0
845.0
847.0
849.0
847.0
847.0
846.0
844.0
841.0
842.0
840.0
839.0
842.0
846.0
845.0
848.0
848.0
847.0
848.0
845.0
841.0
840.0
842.0
841.0
845.0
845.0
846.0
847.0
846.0
843.0
845.0
843.0
841.0
838.0
839.0
839.0
842.0
842.0
846.0
846.0
847.0
846.0
842.0
842.0
839.0
839.0
839.0
839.0
844.0
843.0
846.0
849.0
850.0
848.0
848.0
845.0
843.0
842.0
838.0
837.0
842.0
838.0
843.0
844.0
845.0
846.0
846.0
843.0
840.0
840.0
840.0
842.0
846.0
846.0
848.0
848.0
854.0
856.0
854.0
854.0
855.0
855.0
856.0
860.0
866.0
870.0
873.0
879.0
880.0
880.0
880.0
879.0
876.0
873.0
868.0
868.0
866.0
864.0
867.0
869.0
869.0
864.0
857.0
853.0
848.0
844.0
842.0
842.0
839.0
844.0
845.0
846.0
845.0
844.0
840.0
841.0
837.0
834.0
833.0
835.0
834.0
835.0
835.0
839.0
841.0
841.0
837.0
834.0
832.0
836.0
834.0
835.0
835.0
834.0
839.0
843.0
846.0
845.0
845.0
849.0
857.0
873.0
891.0
914.0
944.0
970.0
996.0
1004.0
997.0
970.0
929.0
878.0
826.0
777.0
736.0
705.0
695.0
701.0
717.0
744.0
763.0
781.0
788.0
800.0
808.0
817.0
829.0
838.0
845.0
849.0
854.0
853.0
853.0
853.0
851.0
853.0
851.0
851.0
854.0
855.0
858.0
859.0
861.0
860.0
862.0
863.0
862.0
860.0
858.0
859.0
857.0
861.0
864.0
866.0
864.0
864.0
868.0
870.0
865.0
865.0
864.0
863.0
862.0
865.0
867.0
871.0
872.0
875.0
876.0
877.0
874.0
872.0
869.0
868.0
874.0
874.0
877.0
879.0
883.0
884.0
886.0
886.0
885.0
886.0
890.0
891.0
892.0
895.0
900.0
903.0
902.0
909.0
912.0
913.0
915.0
914.0
912.0
919.0
918.0
927.0
929.0
932.0
942.0
947.0
951.0
950.0
950.0
952.0
957.0
958.0
959.0
964.0
963.0
967.0
969.0
971.0
972.0
975.0
977.0
975.0
974.0
970.0
969.0
969.0
971.0
970.0
968.0
969.0
966.0
959.0
952.0
946.0
940.0
934.0
929.0
924.0
921.0
919.0
914.0
910.0
904.0
898.0
891.0
887.0
881.0
877.0
873.0
868.0
868.0
867.0
868.0
867.0
862.0
859.0
857.0
854.0
849.0
853.0
851.0
851.0
852.0
852.0
854.0
857.0
851.0
852.0
849.0
848.0
846.0
843.0
843.0
844.0
848.0
848.0
853.0
854.0
854.0
853.0
853.0
850.0
849.0
845.0
845.0
843.0
847.0
846.0
849.0
850.0
849.0
847.0
848.0
848.0
846.0
844.0
845.0
845.0
851.0
850.0
849.0
851.0
850.0
848.0
847.0
843.0
842.0
840.0
841.0
841.0
841.0
846.0
843.0
847.0
847.0
843.0
841.0
837.0
840.0
836.0
835.0
836.0
835.0
838.0
839.0
840.0
836.0
836.0
836.0
835.0
832.0
832.0
832.0
830.0
832.0
835.0
834.0
832.0
833.0
831.0
831.0
833.0
827.0
826.0
824.0
825.0
827.0
831.0
830.0
830.0
832.0
829.0
828.0
829.0
827.0
824.0
824.0
823.0
824.0
826.0
829.0
830.0
831.0
828.0
826.0
824.0
825.0
825.0
823.0
824.0
827.0
826.0
825.0
827.0
828.0
827.0
828.0
826.0
824.0
823.0
822.0
823.0
825.0
828.0
829.0
830.0
828.0
828.0
827.0
826.0
822.0
822.0
822.0
820.0
822.0
827.0
826.0
830.0
829.0
831.0
827.0
825.0
824.0
824.0
823.0
824.0
826.0
827.0
827.0
832.0
828.0
829.0
826.0
825.0
824.0
823.0
822.0
824.0
824.0
826.0
827.0
830.0
829.0
826.0
828.0
827.0
820.0
819.0
819.0
824.0
826.0
828.0
830.0
833.0
831.0
830.0
830.0
830.0
827.0
825.0
825.0
822.0
823.0
824.0
828.0
831.0
828.0
828.0
830.0
831.0
828.0
827.0
825.0
827.0
829.0
830.0
832.0
833.0
830.0
831.0
827.0
828.0
824.0
827.0
826.0
828.0
828.0
831.0
834.0
842.0
843.0
845.0
847.0
848.0
847.0
846.0
844.0
844.0
846.0
851.0
855.0
863.0
864.0
866.0
865.0
862.0
860.0
857.0
853.0
847.0
852.0
850.0
850.0
851.0
844.0
843.0
837.0
834.0
829.0
828.0
826.0
824.0
825.0
828.0
830.0
834.0
830.0
830.0
824.0
823.0
819.0
