# Simple Text Format
# Sampling Rate (Hz):= 360.00
# Resolution:= 12
# Labels:= ECG
839.0
839.0
839.0
839.0
839.0
839.0
839.0
840.0
840.0
836.0
836.0
833.0
830.0
830.0
828.0
828.0
831.0
834.0
836.0
842.0
839.0
838.0
835.0
834.0
832.0
832.0
831.0
830.0
831.0
830.0
827.0
834.0
834.0
834.0
838.0
839.0
836.0
834.0
830.0
833.0
832.0
832.0
835.0
838.0
839.0
836.0
836.0
836.0
833.0
834.0
828.0
832.0
831.0
835.0
834.0
835.0
835.0
833.0
832.0
833.0
830.0
828.0
830.0
829.0
831.0
834.0
834.0
837.0
838.0
838.0
836.0
837.0
834.0
830.0
831.0
831.0
830.0
830.0
832.0
838.0
834.0
832.0
829.0
833.0
832.0
832.0
832.0
830.0
833.0
836.0
836.0
838.0
839.0
838.0
839.0
837.0
832.0
834.0
832.0
833.0
835.0
836.0
839.0
840.0
839.0
840.0
839.0
837.0
837.0
837.0
832.0
835.0
843.0
847.0
853.0
859.0
859.0
861.0
859.0
862.0
857.0
857.0
857.0
867.0
868.0
872.0
874.0
872.0
875.0
874.0
869.0
868.0
864.0
859.0
855.0
856.0
857.0
859.0
857.0
854.0
851.0
845.0
840.0
838.0
836.0
835.0
833.0
828.0
830.0
830.0
830.0
837.0
831.0
832.0
832.0
831.0
827.0
827.0
826.0
825.0
829.0
827.0
830.0
833.0
835.0
835.0
833.0
834.0
830.0
827.0
829.0
834.0
843.0
858.0
874.0
900.0
924.0
956.0
989.0
1017.0
1030.0
1026.0
1002.0
958.0
908.0
851.0
793.0
741.0
699.0
673.0
672.0
688.0
711.0
735.0
758.0
775.0
791.0
804.0
821.0
836.0
847.0
852.0
851.0
850.0
847.0
846.0
843.0
842.0
846.0
854.0
855.0
857.0
855.0
857.0
856.0
854.0
858.0
855.0
855.0
853.0
860.0
862.0
862.0
866.0
867.0
867.0
869.0
866.0
868.0
864.0
867.0
867.0
868.0
872.0
873.0
878.0
880.0
880.0
879.0
878.0
879.0
879.0
880.0
876.0
879.0
883.0
887.0
892.0
888.0
891.0
893.0
895.0
894.0
899.0
898.0
901.0
906.0
910.0
912.0
918.0
921.0
923.0
927.0
930.0
928.0
934.0
934.0
936.0
945.0
948.0
957.0
963.0
963.0
966.0
969.0
969.0
974.0
973.0
974.0
976.0
980.0
984.0
985.0
989.0
990.0
990.0
989.0
988.0
985.0
985.0
978.0
977.0
971.0
971.0
968.0
964.0
957.0
952.0
944.0
938.0
930.0
923.0
916.0
911.0
906.0
902.0
898.0
894.0
891.0
886.0
877.0
874.0
869.0
865.0
866.0
860.0
862.0
862.0
862.0
861.0
861.0
860.0
859.0
855.0
851.0
850.0
846.0
847.0
849.0
850.0
850.0
854.0
852.0
853.0
853.0
852.0
850.0
850.0
850.0
851.0
851.0
854.0
856.0
855.0
860.0
852.0
850.0
852.0
851.0
850.0
851.0
852.0
855.0
856.0
860.0
860.0
860.0
858.0
859.0
857.0
854.0
850.0
849.0
849.0
848.0
849.0
849.0
851.0
853.0
853.0
851.0
848.0
849.0
846.0
845.0
844.0
846.0
845.0
847.0
847.0
847.0
846.0
844.0
841.0
841.0
840.0
837.0
840.0
839.0
843.0
844.0
845.0
843.0
841.0
838.0
838.0
834.0
835.0
829.0
833.0
838.0
837.0
842.0
843.0
845.0
842.0
843.0
841.0
841.0
837.0
838.0
837.0
838.0
840.0
841.0
843.0
840.0
840.0
839.0
841.0
838.0
836.0
835.0
834.0
838.0
840.0
840.0
842.0
840.0
841.0
840.0
836.0
834.0
835.0
836.0
835.0
835.0
836.0
839.0
838.0
840.0
839.0
837.0
837.0
835.0
835.0
829.0
829.0
832.0
837.0
839.0
841.0
839.0
839.0
840.0
839.0
837.0
837.0
834.0
836.0
837.0
839.0
839.0
841.0
840.0
839.0
840.0
837.0
835.0
833.0
833.0
833.0
834.0
838.0
838.0
841.0
840.0
838.0
835.0
833.0
830.0
828.0
832.0
829.0
835.0
836.0
837.0
841.0
840.0
838.0
839.0
836.0
836.0
837.0
835.0
836.0
837.0
839.0
840.0
840.0
841.0
838.0
840.0
840.0
838.0
836.0
835.0
837.0
838.0
839.0
841.0
842.0
843.0
843.0
841.0
837.0
837.0
835.0
838.0
843.0
847.0
852.0
855.0
861.0
862.0
864.0
863.0
858.0
860.0
859.0
864.0
865.0
867.0
872.0
877.0
880.0
879.0
876.0
874.0
870.0
864.0
862.0
860.0
862.0
859.0
859.0
855.0
856.0
849.0
847.0
840.0
839.0
835.0
834.0
834.0
833.0
835.0
835.0
836.0
839.0
838.0
835.0
835.0
834.0
832.0
828.0
830.0
830.0
830.0
832.0
832.0
835.0
833.0
834.0
833.0
831.0
832.0
832.0
833.0
835.0
840.0
842.0
852.0
867.0
881.0
904.0
926.0
953.0
979.0
1004.0
1015.0
1006.0
982.0
938.0
886.0
830.0
776.0
726.0
691.0
678.0
684.0
704.0
726.0
749.0
769.0
784.0
800.0
817.0
828.0
838.0
847.0
846.0
846.0
850.0
845.0
842.0
845.0
850.0
853.0
856.0
860.0
858.0
860.0
857.0
855.0
856.0
855.0
857.0
858.0
858.0
862.0
866.0
866.0
866.0
866.0
864.0
864.0
864.0
864.0
862.0
867.0
868.0
869.0
873.0
873.0
872.0
873.0
873.0
872.0
870.0
873.0
871.0
873.0
875.0
878.0
883.0
876.0
882.0
883.0
881.0
882.0
882.0
883.0
886.0
891.0
895.0
902.0
905.0
906.0
905.0
908.0
909.0
911.0
912.0
914.0
918.0
921.0
928.0
931.0
938.0
943.0
949.0
946.0
948.0
951.0
955.0
955.0
961.0
964.0
968.0
974.0
974.0
976.0
978.0
979.0
980.0
977.0
977.0
978.0
979.0
975.0
976.0
974.0
974.0
972.0
970.0
963.0
957.0
949.0
941.0
934.0
928.0
924.0
923.0
914.0
909.0
907.0
901.0
895.0
888.0
880.0
874.0
869.0
869.0
864.0
862.0
862.0
861.0
860.0
856.0
851.0
849.0
847.0
844.0
846.0
845.0
844.0
847.0
847.0
847.0
846.0
848.0
847.0
845.0
842.0
843.0
842.0
845.0
846.0
846.0
848.0
851.0
851.0
851.0
853.0
847.0
850.0
848.0
844.0
845.0
847.0
850.0
850.0
853.0
854.0
854.0
853.0
851.0
850.0
849.0
845.0
843.0
845.0
845.0
844.0
849.0
847.0
847.0
847.0
844.0
842.0
841.0
838.0
836.0
837.0
838.0
841.0
842.0
840.0
843.0
839.0
835.0
836.0
832.0
829.0
831.0
832.0
833.0
833.0
830.0
835.0
835.0
835.0
831.0
830.0
828.0
825.0
822.0
820.0
825.0
826.0
830.0
830.0
830.0
831.0
826.0
825.0
823.0
821.0
824.0
825.0
826.0
826.0
826.0
824.0
825.0
824.0
824.0
823.0
820.0
817.0
818.0
819.0
820.0
822.0
825.0
823.0
824.0
822.0
818.0
819.0
818.0
815.0
815.0
819.0
817.0
820.0
823.0
823.0
823.0
822.0
820.0
821.0
817.0
816.0
815.0
814.0
818.0
819.0
821.0
820.0
821.0
822.0
816.0
817.0
814.0
814.0
814.0
815.0
815.0
820.0
824.0
824.0
821.0
822.0
822.0
820.0
817.0
812.0
812.0
818.0
816.0
818.0
822.0
821.0
820.0
824.0
822.0
821.0
818.0
818.0
817.0
817.0
817.0
818.0
819.0
824.0
823.0
819.0
818.0
819.0
815.0
814.0
816.0
816.0
822.0
822.0
823.0
822.0
822.0
820.0
820.0
822.0
820.0
819.0
816.0
820.0
821.0
823.0
826.0
825.0
828.0
828.0
827.0
824.0
824.0
825.0
827.0
831.0
833.0
838.0
839.0
839.0
840.0
838.0
840.0
844.0
845.0
847.0
849.0
849.0
855.0
859.0
860.0
863.0
862.0
860.0
856.0
851.0
846.0
844.0
841.0
843.0
845.0
842.0
841.0
836.0
832.0
829.0
823.0
823.0
822.0
822.0
818.0
817.0
816.0
821.0
821.0
819.0
820.0
819.0
815.0
815.0
813.0
812.0
812.0
812.0
815.0
816.0
817.0
821.0
822.0
823.0
817.0
820.0
817.0
817.0
820.0
828.0
842.0
858.0
881.0
904.0
932.0
957.0
981.0
991.0
984.0
957.0
861.0
805.0
749.0
703.0
665.0
643.0
639.0
652.0
672.0
695.0
714.0
731.0
745.0
762.0
779.0
793.0
809.0
820.0
827.0
825.0
826.0
824.0
823.0
823.0
826.0
826.0
829.0
832.0
836.0
840.0
839.0
837.0
837.0
838.0
835.0
840.0
838.0
839.0
842.0
846.0
848.0
850.0
850.0
845.0
846.0
843.0
843.0
845.0
845.0
849.0
849.0
854.0
853.0
856.0
855.0
850.0
851.0
851.0
853.0
853.0
857.0
860.0
865.0
862.0
866.0
867.0
868.0
867.0
865.0
866.0
870.0
870.0
875.0
877.0
879.0
885.0
892.0
895.0
894.0
897.0
900.0
901.0
902.0
907.0
911.0
917.0
922.0
926.0
930.0
935.0
938.0
938.0
938.0
941.0
944.0
946.0
949.0
953.0
958.0
965.0
967.0
967.0
971.0
968.0
968.0
967.0
961.0
965.0
962.0
965.0
964.0
963.0
960.0
955.0
950.0
944.0
938.0
928.0
919.0
912.0
905.0
901.0
896.0
893.0
889.0
882.0
878.0
872.0
869.0
864.0
858.0
855.0
852.0
851.0
850.0
852.0
851.0
848.0
846.0
842.0
841.0
837.0
838.0
838.0
838.0
841.0
841.0
843.0
843.0
842.0
844.0
837.0
837.0
832.0
834.0
836.0
838.0
839.0
842.0
845.0
845.0
849.0
847.0
845.0
845.0
842.0
841.0
842.0
845.0
843.0
844.0
847.0
848.0
849.0
847.0
846.0
847.0
845.0
842.0
844.0
843.0
845.0
846.0
846.0
848.0
849.0
843.0
844.0
842.0
838.0
839.0
837.0
838.0
837.0
840.0
843.0
844.0
843.0
843.0
837.0
836.0
834.0
833.0
833.0
831.0
835.0
837.0
838.0
837.0
835.0
837.0
835.0
836.0
831.0
830.0
831.0
832.0
833.0
833.0
833.0
835.0
835.0
834.0
830.0
832.0
830.0
830.0
829.0
831.0
831.0
833.0
833.0
833.0
833.0
831.0
831.0
829.0
828.0
824.0
827.0
829.0
829.0
833.0
834.0
834.0
833.0
831.0
830.0
832.0
831.0
828.0
829.0
829.0
829.0
831.0
834.0
832.0
830.0
828.0
835.0
831.0
828.0
826.0
827.0
829.0
828.0
831.0
832.0
834.0
833.0
833.0
833.0
830.0
830.0
831.0
828.0
830.0
832.0
833.0
834.0
836.0
835.0
835.0
830.0
831.0
830.0
829.0
829.0
829.0
832.0
834.0
834.0
834.0
838.0
839.0
837.0
836.0
834.0
832.0
832.0
833.0
830.0
832.0
834.0
833.0
835.0
835.0
836.0
835.0
831.0
832.0
832.0
834.0
834.0
834.0
838.0
838.0
838.0
838.0
836.0
837.0
832.0
833.0
834.0
835.0
835.0
838.0
839.0
842.0
841.0
840.0
840.0
842.0
845.0
843.0
849.0
849.0
855.0
858.0
857.0
861.0
862.0
864.0
863.0
868.0
866.0
868.0
869.0
870.0
870.0
870.0
867.0
862.0
864.0
862.0
861.0
858.0
855.0
855.0
849.0
844.0
843.0
842.0
839.0
840.0
839.0
840.0
841.0
836.0
833.0
829.0
830.0
830.0
833.0
833.0
833.0
832.0
832.0
837.0
834.0
832.0
831.0
831.0
830.0
831.0
835.0
835.0
837.0
839.0
838.0
840.0
839.0
837.0
843.0
852.0
865.0
884.0
909.0
937.0
971.0
994.0
1017.0
1020.0
1012.0
983.0
939.0
884.0
828.0
775.0
729.0
700.0
692.0
701.0
724.0
749.0
771.0
791.0
803.0
815.0
827.0
841.0
843.0
850.0
857.0
857.0
856.0
853.0
850.0
853.0
855.0
853.0
857.0
859.0
860.0
862.0
863.0
865.0
865.0
867.0
867.0
865.0
863.0
863.0
863.0
860.0
866.0
867.0
872.0
874.0
876.0
875.0
876.0
871.0
871.0
868.0
872.0
872.0
875.0
877.0
879.0
880.0
883.0
883.0
882.0
882.0
883.0
877.0
883.0
885.0
887.0
891.0
894.0
895.0
898.0
897.0
897.0
895.0
896.0
901.0
904.0
906.0
908.0
914.0
917.0
921.0
922.0
925.0
928.0
929.0
931.0
933.0
936.0
937.0
942.0
949.0
953.0
958.0
963.0
964.0
964.0
967.0
965.0
972.0
974.0
974.0
981.0
985.0
984.0
989.0
989.0
994.0
992.0
991.0
990.0
987.0
987.0
985.0
986.0
982.0
981.0
978.0
973.0
964.0
958.0
949.0
944.0
938.0
935.0
929.0
923.0
920.0
914.0
913.0
908.0
903.0
894.0
887.0
883.0
879.0
876.0
876.0
874.0
872.0
871.0
872.0
869.0
867.0
866.0
864.0
862.0
859.0
858.0
859.0
859.0
861.0
863.0
861.0
863.0
860.0
860.0
858.0
855.0
855.0
855.0
854.0
856.0
861.0
864.0
864.0
865.0
866.0
865.0
864.0
861.0
860.0
853.0
856.0
858.0
864.0
867.0
868.0
867.0
867.0
866.0
863.0
861.0
858.0
856.0
859.0
861.0
861.0
862.0
861.0
860.0
857.0
860.0
856.0
853.0
853.0
851.0
854.0
853.0
855.0
856.0
854.0
854.0
853.0
849.0
846.0
847.0
845.0
845.0
845.0
847.0
843.0
848.0
847.0
850.0
847.0
848.0
846.0
843.0
843.0
842.0
844.0
841.0
843.0
843.0
847.0
845.0
844.0
844.0
843.0
842.0
842.0
842.0
843.0
838.0
843.0
844.0
844.0
843.0
843.0
837.0
839.0
840.0
837.0
836.0
839.0
837.0
842.0
842.0
841.0
840.0
840.0
840.0
838.0
840.0
836.0
835.0
836.0
837.0
835.0
837.0
839.0
837.0
840.0
837.0
837.0
837.0
835.0
836.0
834.0
839.0
837.0
839.0
839.0
839.0
839.0
835.0
835.0
835.0
832.0
833.0
835.0
836.0
840.0
841.0
842.0
842.0
842.0
838.0
839.0
838.0
834.0
833.0
837.0
840.0
836.0
839.0
841.0
842.0
842.0
839.0
838.0
834.0
834.0
832.0
834.0
837.0
836.0
838.0
838.0
840.0
838.0
839.0
839.0
838.0
836.0
836.0
840.0
841.0
839.0
842.0
841.0
842.0
844.0
842.0
838.0
839.0
835.0
834.0
835.0
837.0
841.0
843.0
844.0
845.0
846.0
845.0
844.0
839.0
837.0
839.0
840.0
840.0
840.0
841.0
845.0
845.0
845.0
844.0
844.0
843.0
844.0
847.0
847.0
851.0
854.0
858.0
858.0
862.0
858.0
860.0
860.0
860.0
862.0
865.0
867.0
873.0
878.0
878.0
882.0
884.0
882.0
875.0
874.0
867.0
860.0
861.0
860.0
862.0
862.0
860.0
860.0
857.0
853.0
845.0
842.0
841.0
839.0
839.0
839.0
841.0
838.0
840.0
840.0
837.0
834.0
831.0
831.0
825.0
828.0
827.0
829.0
833.0
830.0
836.0
839.0
836.0
832.0
834.0
834.0
829.0
831.0
832.0
832.0
839.0
844.0
852.0
866.0
883.0
903.0
925.0
953.0
978.0
995.0
1002.0
988.0
962.0
918.0
870.0
822.0
768.0
725.0
690.0
682.0
685.0
704.0
726.0
748.0
773.0
793.0
805.0
821.0
832.0
844.0
846.0
849.0
849.0
847.0
844.0
841.0
843.0
848.0
854.0
856.0
857.0
855.0
857.0
859.0
855.0
857.0
854.0
856.0
856.0
859.0
858.0
861.0
863.0
860.0
861.0
860.0
859.0
858.0
860.0
863.0
866.0
867.0
870.0
869.0
871.0
871.0
870.0
871.0
865.0
866.0
865.0
865.0
871.0
874.0
873.0
878.0
877.0
879.0
880.0
879.0
878.0
878.0
879.0
877.0
883.0
887.0
889.0
894.0
897.0
897.0
899.0
899.0
902.0
901.0
904.0
909.0
912.0
915.0
919.0
927.0
929.0
932.0
939.0
939.0
943.0
938.0
945.0
949.0
951.0
955.0
965.0
971.0
973.0
975.0
974.0
972.0
972.0
970.0
972.0
972.0
973.0
972.0
970.0
972.0
971.0
966.0
960.0
955.0
946.0
943.0
933.0
926.0
922.0
918.0
910.0
904.0
900.0
894.0
886.0
881.0
873.0
871.0
866.0
862.0
861.0
860.0
862.0
860.0
856.0
853.0
852.0
848.0
847.0
846.0
845.0
845.0
845.0
846.0
848.0
847.0
847.0
850.0
848.0
845.0
844.0
846.0
843.0
841.0
841.0
847.0
845.0
849.0
844.0
841.0
842.0
842.0
843.0
842.0
842.0
839.0
842.0
845.0
845.0
846.0
848.0
845.0
846.0
844.0
843.0
841.0
839.0
839.0
842.0
845.0
845.0
850.0
847.0
847.0
843.0
840.0
838.0
840.0
837.0
835.0
837.0
833.0
838.0
840.0
838.0
835.0
834.0
832.0
828.0
829.0
829.0
826.0
830.0
831.0
832.0
835.0
833.0
834.0
827.0
824.0
821.0
824.0
824.0
826.0
825.0
828.0
829.0
830.0
832.0
831.0
827.0
824.0
823.0
822.0
821.0
821.0
822.0
824.0
826.0
826.0
828.0
829.0
827.0
828.0
825.0
823.0
819.0
819.0
823.0
822.0
826.0
826.0
828.0
824.0
823.0
821.0
818.0
819.0
820.0
819.0
822.0
822.0
825.0
824.0
820.0
820.0
817.0
819.0
818.0
813.0
813.0
813.0
817.0
822.0
823.0
824.0
822.0
824.0
823.0
818.0
819.0
817.0
817.0
818.0
819.0
819.0
821.0
820.0
820.0
822.0
821.0
817.0
815.0
816.0
818.0
816.0
816.0
818.0
820.0
822.0
825.0
824.0
823.0
817.0
812.0
815.0
815.0
816.0
819.0
818.0
822.0
824.0
823.0
821.0
823.0
820.0
819.0
821.0
818.0
820.0
819.0
820.0
819.0
824.0
822.0
822.0
825.0
823.0
822.0
822.0
819.0
818.0
821.0
820.0
823.0
826.0
825.0
827.0
822.0
823.0
823.0
820.0
818.0
821.0
823.0
826.0
830.0
830.0
831.0
830.0
836.0
839.0
839.0
838.0
836.0
836.0
837.0
841.0
845.0
850.0
852.0
858.0
856.0
856.0
855.0
856.0
853.0
851.0
850.0
851.0
852.0
851.0
849.0
849.0
845.0
838.0
832.0
823.0
822.0
821.0
816.0
819.0
822.0
821.0
823.0
822.0
821.0
818.0
816.0
815.0
812.0
812.0
811.0
811.0
815.0
818.0
818.0
821.0
820.0
818.0
818.0
818.0
816.0
816.0
817.0
819.0
821.0
824.0
827.0
825.0
829.0
832.0
847.0
864.0
882.0
904.0
935.0
964.0
988.0
998.0
985.0
952.0
904.0
847.0
787.0
733.0
684.0
652.0
640.0
649.0
672.0
700.0
723.0
741.0
756.0
766.0
778.0
791.0
805.0
816.0
826.0
832.0
835.0
837.0
836.0
836.0
835.0
837.0
835.0
838.0
837.0
838.0
842.0
846.0
847.0
850.0
847.0
849.0
849.0
848.0
847.0
848.0
846.0
849.0
850.0
853.0
855.0
860.0
859.0
861.0
858.0
857.0
851.0
852.0
855.0
855.0
858.0
861.0
865.0
863.0
864.0
866.0
869.0
868.0
869.0
869.0
867.0
870.0
875.0
876.0
881.0
883.0
884.0
884.0
887.0
885.0
886.0
891.0
894.0
895.0
900.0
903.0
907.0
913.0
916.0
920.0
925.0
927.0
925.0
929.0
928.0
933.0
940.0
944.0
946.0
951.0
949.0
953.0
951.0
957.0
959.0
960.0
963.0
962.0
965.0
965.0
965.0
967.0
968.0
964.0
963.0
960.0
963.0
957.0
956.0
954.0
951.0
950.0
948.0
946.0
941.0
932.0
924.0
914.0
911.0
905.0
900.0
893.0
888.0
887.0
884.0
879.0
873.0
869.0
864.0
859.0
857.0
855.0
851.0
852.0
851.0
849.0
848.0
851.0
848.0
844.0
843.0
841.0
842.0
840.0
840.0
841.0
844.0
844.0
845.0
846.0
845.0
845.0
844.0
844.0
842.0
841.0
839.0
842.0
841.0
844.0
847.0
851.0
849.0
849.0
847.0
844.0
844.0
844.0
842.0
839.0
846.0
845.0
849.0
847.0
846.0
845.0
846.0
844.0
842.0
841.0
838.0
843.0
841.0
844.0
845.0
846.0
846.0
845.0
844.0
838.0
837.0
835.0
834.0
831.0
832.0
834.0
837.0
843.0
840.0
840.0
838.0
834.0
834.0
831.0
828.0
831.0
832.0
831.0
836.0
836.0
835.0
836.0
834.0
830.0
830.0
828.0
826.0
828.0
830.0
830.0
832.0
834.0
833.0
833.0
829.0
826.0
826.0
825.0
825.0
826.0
826.0
828.0
828.0
828.0
830.0
831.0
830.0
828.0
826.0
828.0
827.0
824.0
822.0
827.0
829.0
830.0
829.0
828.0
825.0
826.0
823.0
826.0
823.0
822.0
828.0
828.0
828.0
831.0
831.0
830.0
828.0
828.0
827.0
828.0
824.0
826.0
826.0
827.0
832.0
835.0
833.0
829.0
828.0
829.0
827.0
826.0
823.0
822.0
823.0
826.0
828.0
830.0
829.0
825.0
828.0
828.0
826.0
825.0
825.0
826.0
827.0
828.0
830.0
831.0
830.0
827.0
828.0
826.0
824.0
824.0
825.0
825.0
827.0
831.0
832.0
835.0
835.0
834.0
832.0
831.0
828.0
829.0
826.0
828.0
828.0
827.0
830.0
828.0
832.0
832.0
834.0
829.0
829.0
828.0
829.0
827.0
829.0
832.0
833.0
833.0
834.0
833.0
832.0
831.0
832.0
830.0
824.0
827.0
832.0
833.0
835.0
836.0
835.0
838.0
835.0
831.0
832.0
831.0
829.0
833.0
834.0
837.0
840.0
844.0
847.0
850.0
852.0
852.0
854.0
852.0
851.0
850.0
854.0
855.0
864.0
868.0
870.0
868.0
866.0
868.0
865.0
865.0
859.0
856.0
858.0
859.0
856.0
857.0
854.0
853.0
851.0
846.0
841.0
837.0
831.0
831.0
830.0
830.0
830.0
834.0
832.0
835.0
833.0
831.0
826.0
822.0
823.0
822.0
822.0
822.0
826.0
828.0
826.0
831.0
831.0
829.0
828.0
827.0
829.0
831.0
834.0
833.0
834.0
838.0
846.0
850.0
863.0
879.0
905.0
931.0
961.0
991.0
1006.0
1006.0
983.0
944.0
895.0
839.0
784.0
733.0
695.0
681.0
685.0
704.0
729.0
755.0
776.0
794.0
809.0
821.0
833.0
839.0
842.0
844.0
840.0
841.0
842.0
842.0
843.0
847.0
849.0
851.0
850.0
851.0
848.0
847.0
848.0
849.0
851.0
853.0
854.0
859.0
857.0
855.0
854.0
857.0
856.0
856.0
856.0
853.0
858.0
860.0
862.0
863.0
862.0
865.0
863.0
864.0
866.0
864.0
866.0
864.0
869.0
870.0
872.0
876.0
876.0
875.0
873.0
876.0
877.0
877.0
877.0
879.0
886.0
887.0
889.0
892.0
897.0
900.0
901.0
901.0
902.0
905.0
907.0
908.0
915.0
922.0
927.0
930.0
931.0
932.0
935.0
941.0
943.0
944.0
947.0
952.0
954.0
960.0
963.0
970.0
973.0
976.0
977.0
977.0
975.0
978.0
978.0
978.0
980.0
983.0
982.0
984.0
981.0
980.0
977.0
973.0
963.0
960.0
952.0
946.0
943.0
935.0
933.0
930.0
924.0
914.0
909.0
900.0
889.0
889.0
882.0
874.0
872.0
871.0
868.0
867.0
864.0
861.0
856.0
857.0
851.0
846.0
843.0
845.0
847.0
847.0
847.0
850.0
847.0
847.0
847.0
844.0
842.0
839.0
844.0
843.0
844.0
845.0
846.0
849.0
849.0
845.0
845.0
844.0
842.0
843.0
840.0
841.0
844.0
845.0
847.0
851.0
849.0
851.0
852.0
848.0
849.0
845.0
845.0
847.0
846.0
850.0
850.0
854.0
852.0
849.0
849.0
849.0
843.0
846.0
842.0
842.0
842.0
846.0
846.0
846.0
847.0
847.0
845.0
844.0
838.0
835.0
834.0
834.0
835.0
836.0
839.0
842.0
843.0
837.0
837.0
835.0
831.0
831.0
831.0
831.0
833.0
833.0
834.0
836.0
838.0
836.0
835.0
832.0
833.0
832.0
832.0
832.0
830.0
833.0
832.0
836.0
836.0
838.0
836.0
834.0
829.0
829.0
828.0
830.0
832.0
834.0
837.0
838.0
839.0
839.0
836.0
834.0
835.0
833.0
832.0
832.0
834.0
834.0
834.0
836.0
835.0
834.0
835.0
834.0
833.0
833.0
831.0
832.0
831.0
832.0
834.0
836.0
836.0
835.0
835.0
833.0
832.0
830.0
829.0
833.0
833.0
834.0
835.0
836.0
836.0
836.0
836.0
837.0
830.0
832.0
832.0
832.0
831.0
832.0
837.0
837.0
837.0
838.0
839.0
837.0
836.0
832.0
830.0
830.0
836.0
836.0
837.0
840.0
841.0
840.0
838.0
835.0
833.0
838.0
835.0
833.0
836.0
837.0
840.0
843.0
839.0
836.0
839.0
838.0
836.0
836.0
832.0
831.0
834.0
839.0
838.0
841.0
840.0
838.0
839.0
835.0
837.0
837.0
834.0
834.0
835.0
837.0
842.0
842.0
841.0
840.0
841.0
838.0
839.0
837.0
837.0
835.0
836.0
839.0
840.0
843.0
842.0
838.0
842.0
840.0
837.0
839.0
842.0
843.0
848.0
851.0
857.0
860.0
860.0
862.0
859.0
860.0
861.0
862.0
867.0
871.0
872.0
873.0
873.0
873.0
876.0
873.0
870.0
866.0
863.0
858.0
855.0
856.0
854.0
851.0
850.0
845.0
844.0
845.0
841.0
839.0
837.0
832.0
831.0
834.0
833.0
833.0
836.0
832.0
830.0
830.0
833.0
830.0
829.0
828.0
827.0
826.0
829.0
831.0
831.0
835.0
839.0
840.0
839.0
839.0
835.0
833.0
836.0
838.0
846.0
862.0
877.0
898.0
924.0
953.0
977.0
998.0
1000.0
983.0
947.0
896.0
839.0
783.0
728.0
691.0
672.0
674.0
690.0
715.0
738.0
760.0
778.0
798.0
811.0
827.0
836.0
843.0
845.0
845.0
843.0
841.0
840.0
839.0
842.0
843.0
848.0
851.0
853.0
857.0
859.0
855.0
858.0
855.0
858.0
856.0
858.0
856.0
858.0
860.0
860.0
860.0
864.0
864.0
864.0
866.0
863.0
864.0
861.0
864.0
864.0
865.0
868.0
870.0
871.0
870.0
870.0
869.0
869.0
870.0
869.0
871.0
872.0
877.0
881.0
882.0
889.0
888.0
888.0
889.0
888.0
890.0
890.0
895.0
898.0
902.0
909.0
912.0
913.0
919.0
922.0
922.0
924.0
926.0
931.0
935.0
938.0
944.0
948.0
953.0
957.0
961.0
962.0
965.0
966.0
966.0
967.0
969.0
977.0
977.0
980.0
985.0
988.0
990.0
987.0
988.0
984.0
985.0
978.0
976.0
977.0
972.0
970.0
968.0
963.0
960.0
952.0
947.0
940.0
932.0
923.0
920.0
913.0
904.0
900.0
897.0
890.0
888.0
882.0
877.0
874.0
870.0
860.0
863.0
862.0
860.0
858.0
860.0
859.0
857.0
853.0
850.0
851.0
850.0
847.0
847.0
847.0
846.0
847.0
849.0
851.0
850.0
851.0
848.0
846.0
847.0
847.0
846.0
846.0
849.0
850.0
853.0
854.0
851.0
850.0
850.0
851.0
849.0
849.0
852.0
852.0
855.0
854.0
857.0
855.0
856.0
853.0
850.0
850.0
848.0
848.0
849.0
851.0
852.0
854.0
855.0
854.0
855.0
851.0
850.0
847.0
844.0
841.0
845.0
844.0
842.0
843.0
847.0
844.0
841.0
845.0
844.0
841.0
835.0
838.0
837.0
837.0
840.0
841.0
841.0
842.0
841.0
842.0
838.0
835.0
832.0
834.0
835.0
838.0
838.0
841.0
842.0
844.0
845.0
843.0
840.0
837.0
828.0
833.0
828.0
831.0
832.0
832.0
837.0
836.0
835.0
838.0
835.0
831.0
830.0
833.0
829.0
834.0
835.0
838.0
839.0
840.0
837.0
835.0
834.0
834.0
833.0
831.0
832.0
833.0
835.0
838.0
839.0
838.0
836.0
832.0
832.0
834.0
829.0
830.0
831.0
831.0
832.0
832.0
835.0
836.0
835.0
837.0
836.0
833.0
831.0
830.0
832.0
834.0
834.0
837.0
838.0
837.0
837.0
835.0
831.0
835.0
831.0
830.0
833.0
834.0
834.0
837.0
842.0
842.0
841.0
839.0
838.0
837.0
828.0
831.0
833.0
831.0
834.0
834.0
832.0
836.0
837.0
836.0
835.0
837.0
832.0
832.0
832.0
832.0
835.0
837.0
839.0
840.0
840.0
839.0
838.0
837.0
835.0
834.0
835.0
835.0
836.0
838.0
841.0
841.0
842.0
840.0
838.0
835.0
835.0
834.0
834.0
836.0
839.0
840.0
841.0
840.0
842.0
842.0
843.0
839.0
840.0
840.0
842.0
843.0
845.0
850.0
855.0
856.0
858.0
859.0
857.0
856.0
858.0
858.0
863.0
868.0
873.0
876.0
879.0
880.0
880.0
878.0
878.0
873.0
871.0
864.0
863.0
864.0
864.0
863.0
862.0
856.0
855.0
849.0
847.0
845.0
843.0
844.0
838.0
839.0
842.0
842.0
844.0
847.0
844.0
841.0
839.0
838.0
833.0
835.0
836.0
839.0
837.0
843.0
843.0
845.0
843.0
844.0
842.0
839.0
839.0
838.0
840.0
841.0
843.0
847.0
851.0
854.0
864.0
874.0
894.0
912.0
936.0
964.0
993.0
1018.0
1024.0
1016.0
989.0
945.0
892.0
828.0
778.0
729.0
696.0
685.0
694.0
710.0
737.0
761.0
778.0
793.0
806.0
818.0
832.0
842.0
849.0
853.0
861.0
858.0
859.0
858.0
862.0
865.0
865.0
871.0
868.0
869.0
868.0
866.0
867.0
866.0
869.0
871.0
874.0
876.0
878.0
876.0
877.0
876.0
874.0
874.0
874.0
877.0
880.0
881.0
885.0
886.0
886.0
881.0
884.0
882.0
881.0
883.0
884.0
886.0
888.0
893.0
892.0
898.0
899.0
900.0
897.0
900.0
899.0
900.0
903.0
904.0
908.0
909.0
912.0
916.0
917.0
920.0
920.0
