# Simple Text Format
# Sampling Rate (Hz):= 360.00
# Resolution:= 12
# Labels:= ECG
854.0
856.0
857.0
857.0
856.0
855.0
855.0
853.0
851.0
848.0
847.0
847.0
847.0
852.0
854.0
855.0
852.0
852.0
850.0
848.0
848.0
843.0
842.0
841.0
842.0
844.0
843.0
847.0
849.0
847.0
846.0
844.0
844.0
843.0
842.0
843.0
843.0
841.0
842.0
841.0
844.0
843.0
842.0
844.0
841.0
843.0
842.0
842.0
844.0
842.0
848.0
848.0
849.0
848.0
848.0
845.0
845.0
837.0
836.0
838.0
840.0
840.0
845.0
845.0
848.0
848.0
848.0
846.0
843.0
842.0
836.0
833.0
839.0
840.0
840.0
843.0
848.0
846.0
843.0
843.0
844.0
841.0
841.0
840.0
844.0
843.0
844.0
847.0
847.0
847.0
845.0
842.0
842.0
840.0
842.0
839.0
840.0
843.0
845.0
848.0
851.0
850.0
850.0
847.0
847.0
846.0
842.0
841.0
841.0
844.0
845.0
848.0
853.0
850.0
853.0
849.0
850.0
847.0
843.0
842.0
844.0
846.0
849.0
848.0
852.0
853.0
853.0
851.0
852.0
849.0
849.0
848.0
848.0
850.0
852.0
851.0
851.0
854.0
852.0
850.0
850.0
848.0
847.0
849.0
846.0
853.0
852.0
854.0
856.0
854.0
854.0
848.0
849.0
847.0
849.0
848.0
853.0
851.0
851.0
856.0
854.0
853.0
855.0
857.0
853.0
852.0
853.0
855.0
850.0
857.0
860.0
861.0
862.0
863.0
860.0
857.0
858.0
859.0
862.0
863.0
869.0
870.0
874.0
878.0
877.0
879.0
880.0
882.0
885.0
884.0
885.0
885.0
883.0
884.0
887.0
884.0
886.0
883.0
883.0
879.0
876.0
876.0
874.0
871.0
871.0
868.0
865.0
862.0
861.0
860.0
856.0
854.0
854.0
853.0
849.0
850.0
849.0
850.0
848.0
850.0
850.0
848.0
851.0
852.0
851.0
849.0
846.0
847.0
849.0
849.0
852.0
853.0
856.0
857.0
856.0
856.0
858.0
857.0
854.0
855.0
865.0
875.0
890.0
912.0
939.0
965.0
994.0
1013.0
1020.0
1011.0
983.0
945.0
894.0
844.0
798.0
759.0
728.0
715.0
724.0
737.0
758.0
779.0
795.0
811.0
823.0
836.0
848.0
858.0
862.0
863.0
863.0
862.0
859.0
860.0
860.0
860.0
862.0
864.0
868.0
870.0
868.0
866.0
871.0
875.0
872.0
872.0
872.0
870.0
872.0
873.0
875.0
874.0
877.0
881.0
880.0
879.0
878.0
877.0
875.0
877.0
877.0
880.0
880.0
885.0
885.0
885.0
887.0
886.0
885.0
884.0
881.0
882.0
884.0
887.0
891.0
895.0
898.0
899.0
899.0
898.0
901.0
899.0
901.0
899.0
903.0
904.0
907.0
909.0
916.0
914.0
919.0
919.0
923.0
923.0
924.0
928.0
931.0
933.0
939.0
945.0
951.0
955.0
954.0
957.0
960.0
960.0
959.0
960.0
964.0
968.0
973.0
975.0
978.0
977.0
984.0
984.0
983.0
982.0
983.0
980.0
980.0
981.0
981.0
981.0
978.0
976.0
969.0
961.0
953.0
951.0
945.0
940.0
933.0
932.0
926.0
923.0
922.0
913.0
907.0
902.0
898.0
891.0
886.0
883.0
878.0
877.0
877.0
876.0
876.0
875.0
874.0
870.0
867.0
863.0
864.0
863.0
861.0
863.0
864.0
865.0
865.0
867.0
864.0
862.0
858.0
857.0
858.0
857.0
859.0
860.0
863.0
865.0
868.0
865.0
863.0
864.0
862.0
858.0
859.0
859.0
860.0
860.0
865.0
865.0
868.0
868.0
864.0
865.0
866.0
866.0
867.0
860.0
858.0
864.0
864.0
866.0
869.0
868.0
866.0
865.0
863.0
861.0
860.0
855.0
856.0
861.0
861.0
860.0
859.0
859.0
855.0
855.0
855.0
852.0
852.0
850.0
851.0
850.0
851.0
852.0
854.0
854.0
853.0
851.0
851.0
849.0
846.0
843.0
846.0
844.0
849.0
850.0
854.0
850.0
850.0
849.0
848.0
844.0
845.0
843.0
844.0
844.0
846.0
847.0
847.0
851.0
850.0
849.0
843.0
847.0
845.0
843.0
847.0
847.0
847.0
848.0
848.0
851.0
850.0
847.0
849.0
848.0
844.0
846.0
846.0
849.0
845.0
848.0
849.0
850.0
849.0
846.0
846.0
843.0
840.0
842.0
840.0
843.0
843.0
846.0
849.0
849.0
848.0
846.0
848.0
847.0
846.0
846.0
843.0
844.0
847.0
845.0
848.0
847.0
846.0
844.0
842.0
845.0
845.0
845.0
846.0
846.0
846.0
848.0
849.0
846.0
845.0
847.0
845.0
845.0
843.0
843.0
840.0
845.0
845.0
844.0
851.0
849.0
846.0
846.0
845.0
842.0
842.0
839.0
839.0
841.0
845.0
845.0
850.0
849.0
843.0
845.0
842.0
844.0
844.0
844.0
844.0
843.0
846.0
848.0
848.0
849.0
845.0
843.0
842.0
839.0
841.0
842.0
841.0
841.0
844.0
844.0
848.0
845.0
848.0
850.0
844.0
845.0
844.0
843.0
841.0
843.0
846.0
843.0
850.0
852.0
849.0
847.0
847.0
846.0
846.0
843.0
841.0
846.0
847.0
851.0
850.0
854.0
855.0
858.0
860.0
857.0
858.0
857.0
858.0
863.0
867.0
871.0
876.0
877.0
879.0
880.0
877.0
869.0
872.0
866.0
866.0
864.0
864.0
864.0
869.0
867.0
864.0
859.0
854.0
850.0
847.0
841.0
842.0
841.0
842.0
843.0
846.0
844.0
843.0
840.0
842.0
836.0
835.0
835.0
834.0
835.0
837.0
842.0
844.0
842.0
840.0
842.0
841.0
838.0
839.0
837.0
837.0
839.0
839.0
843.0
846.0
845.0
846.0
850.0
853.0
861.0
871.0
884.0
902.0
926.0
951.0
976.0
991.0
986.0
968.0
935.0
888.0
837.0
790.0
745.0
711.0
694.0
688.0
703.0
721.0
740.0
758.0
770.0
779.0
790.0
801.0
815.0
826.0
839.0
847.0
850.0
854.0
853.0
851.0
850.0
848.0
846.0
850.0
850.0
850.0
853.0
855.0
855.0
860.0
859.0
860.0
859.0
860.0
858.0
859.0
857.0
857.0
863.0
866.0
867.0
869.0
868.0
870.0
867.0
864.0
866.0
865.0
863.0
866.0
867.0
869.0
872.0
871.0
870.0
869.0
874.0
874.0
872.0
875.0
876.0
876.0
878.0
878.0
882.0
883.0
882.0
886.0
888.0
888.0
891.0
894.0
893.0
894.0
896.0
902.0
904.0
912.0
914.0
913.0
915.0
915.0
914.0
916.0
920.0
923.0
928.0
935.0
939.0
947.0
949.0
951.0
952.0
954.0
956.0
961.0
958.0
960.0
962.0
965.0
971.0
976.0
978.0
977.0
980.0
977.0
976.0
978.0
972.0
973.0
972.0
972.0
970.0
972.0
965.0
965.0
957.0
952.0
944.0
941.0
934.0
926.0
923.0
921.0
919.0
914.0
909.0
902.0
898.0
890.0
887.0
881.0
875.0
871.0
871.0
872.0
871.0
871.0
868.0
867.0
865.0
863.0
859.0
857.0
856.0
851.0
856.0
858.0
858.0
860.0
859.0
860.0
857.0
854.0
854.0
852.0
852.0
851.0
852.0
856.0
858.0
858.0
861.0
861.0
855.0
854.0
851.0
855.0
854.0
856.0
859.0
859.0
862.0
863.0
862.0
860.0
860.0
858.0
855.0
855.0
852.0
855.0
858.0
859.0
857.0
859.0
860.0
861.0
859.0
857.0
854.0
854.0
847.0
847.0
854.0
853.0
855.0
856.0
855.0
853.0
851.0
848.0
845.0
845.0
843.0
841.0
844.0
839.0
842.0
845.0
851.0
849.0
847.0
846.0
844.0
845.0
839.0
843.0
844.0
844.0
843.0
847.0
844.0
845.0
844.0
842.0
837.0
841.0
839.0
837.0
840.0
840.0
844.0
845.0
846.0
847.0
845.0
843.0
841.0
837.0
836.0
834.0
837.0
843.0
844.0
847.0
847.0
846.0
845.0
842.0
839.0
841.0
839.0
838.0
837.0
839.0
841.0
842.0
842.0
844.0
842.0
840.0
840.0
838.0
835.0
838.0
838.0
840.0
842.0
846.0
844.0
844.0
843.0
841.0
838.0
838.0
838.0
840.0
838.0
838.0
840.0
843.0
842.0
846.0
840.0
841.0
840.0
839.0
837.0
838.0
838.0
838.0
840.0
844.0
842.0
842.0
842.0
842.0
842.0
840.0
836.0
837.0
840.0
841.0
843.0
840.0
840.0
841.0
843.0
840.0
839.0
836.0
836.0
839.0
840.0
844.0
844.0
849.0
844.0
847.0
845.0
842.0
842.0
840.0
839.0
842.0
839.0
841.0
840.0
841.0
846.0
846.0
845.0
843.0
844.0
841.0
840.0
839.0
844.0
844.0
846.0
846.0
845.0
845.0
841.0
842.0
842.0
842.0
839.0
840.0
842.0
843.0
847.0
850.0
844.0
846.0
846.0
847.0
846.0
846.0
845.0
849.0
853.0
858.0
862.0
865.0
865.0
865.0
865.0
863.0
865.0
868.0
869.0
870.0
875.0
875.0
878.0
879.0
879.0
877.0
878.0
869.0
867.0
867.0
862.0
859.0
861.0
865.0
863.0
859.0
857.0
851.0
848.0
844.0
845.0
843.0
845.0
845.0
848.0
847.0
845.0
848.0
845.0
843.0
844.0
842.0
840.0
838.0
838.0
840.0
843.0
843.0
844.0
847.0
848.0
847.0
850.0
849.0
845.0
845.0
847.0
847.0
852.0
855.0
861.0
877.0
895.0
919.0
943.0
970.0
995.0
1008.0
1004.0
986.0
949.0
902.0
850.0
799.0
751.0
721.0
708.0
710.0
725.0
746.0
767.0
783.0
797.0
811.0
826.0
839.0
849.0
858.0
860.0
856.0
859.0
858.0
852.0
856.0
856.0
863.0
860.0
867.0
869.0
867.0
867.0
868.0
867.0
868.0
866.0
865.0
869.0
872.0
871.0
874.0
876.0
877.0
876.0
879.0
877.0
875.0
874.0
877.0
879.0
881.0
883.0
885.0
885.0
884.0
884.0
883.0
882.0
885.0
884.0
885.0
889.0
887.0
894.0
896.0
894.0
895.0
898.0
902.0
900.0
902.0
901.0
903.0
907.0
909.0
914.0
917.0
922.0
921.0
924.0
923.0
924.0
924.0
929.0
931.0
934.0
941.0
947.0
952.0
956.0
957.0
959.0
960.0
964.0
965.0
966.0
967.0
973.0
976.0
981.0
985.0
988.0
989.0
988.0
988.0
988.0
986.0
984.0
985.0
984.0
983.0
983.0
982.0
978.0
974.0
969.0
963.0
955.0
954.0
949.0
945.0
940.0
937.0
932.0
931.0
924.0
921.0
914.0
909.0
903.0
895.0
891.0
888.0
883.0
884.0
883.0
882.0
881.0
879.0
878.0
876.0
874.0
872.0
869.0
869.0
871.0
870.0
870.0
871.0
870.0
871.0
869.0
867.0
865.0
867.0
868.0
866.0
865.0
868.0
869.0
873.0
874.0
872.0
872.0
871.0
869.0
868.0
869.0
868.0
867.0
869.0
871.0
873.0
872.0
873.0
872.0
870.0
870.0
868.0
867.0
870.0
866.0
869.0
870.0
872.0
875.0
872.0
872.0
871.0
870.0
866.0
866.0
865.0
865.0
865.0
866.0
870.0
867.0
868.0
860.0
860.0
859.0
860.0
856.0
859.0
858.0
863.0
864.0
866.0
865.0
866.0
864.0
860.0
857.0
855.0
855.0
856.0
857.0
859.0
863.0
864.0
864.0
865.0
863.0
862.0
859.0
857.0
857.0
856.0
856.0
857.0
859.0
862.0
860.0
861.0
862.0
857.0
856.0
857.0
854.0
854.0
856.0
858.0
861.0
861.0
862.0
862.0
859.0
857.0
856.0
855.0
853.0
854.0
856.0
858.0
862.0
859.0
860.0
859.0
860.0
857.0
856.0
855.0
858.0
858.0
858.0
859.0
858.0
861.0
862.0
860.0
861.0
856.0
859.0
858.0
856.0
855.0
857.0
857.0
859.0
859.0
857.0
857.0
855.0
854.0
857.0
856.0
856.0
856.0
858.0
860.0
862.0
862.0
863.0
862.0
859.0
860.0
858.0
854.0
853.0
854.0
856.0
855.0
856.0
858.0
860.0
861.0
864.0
861.0
859.0
854.0
859.0
856.0
860.0
861.0
862.0
865.0
862.0
861.0
860.0
858.0
862.0
858.0
858.0
858.0
858.0
860.0
862.0
864.0
868.0
864.0
864.0
863.0
859.0
856.0
853.0
855.0
860.0
858.0
861.0
865.0
865.0
865.0
864.0
862.0
858.0
858.0
858.0
860.0
861.0
862.0
859.0
863.0
864.0
865.0
860.0
862.0
860.0
859.0
857.0
858.0
858.0
861.0
865.0
870.0
870.0
874.0
876.0
876.0
874.0
873.0
872.0
875.0
874.0
879.0
882.0
886.0
893.0
898.0
897.0
895.0
891.0
889.0
884.0
885.0
882.0
882.0
882.0
882.0
883.0
878.0
876.0
871.0
866.0
864.0
861.0
858.0
857.0
858.0
860.0
861.0
863.0
862.0
859.0
855.0
855.0
852.0
850.0
849.0
847.0
849.0
857.0
855.0
857.0
856.0
857.0
856.0
855.0
851.0
855.0
852.0
855.0
858.0
859.0
863.0
865.0
866.0
875.0
886.0
900.0
915.0
941.0
969.0
996.0
1014.0
1013.0
996.0
961.0
912.0
861.0
806.0
761.0
727.0
711.0
713.0
733.0
756.0
780.0
800.0
813.0
825.0
837.0
847.0
854.0
860.0
862.0
864.0
864.0
862.0
862.0
863.0
865.0
868.0
871.0
871.0
869.0
868.0
870.0
871.0
872.0
877.0
876.0
878.0
876.0
877.0
879.0
879.0
878.0
877.0
875.0
881.0
879.0
882.0
883.0
885.0
885.0
885.0
888.0
885.0
884.0
881.0
881.0
882.0
884.0
889.0
892.0
892.0
894.0
896.0
894.0
892.0
897.0
894.0
893.0
895.0
896.0
900.0
903.0
910.0
912.0
913.0
914.0
915.0
913.0
913.0
915.0
915.0
923.0
924.0
929.0
932.0
937.0
937.0
940.0
938.0
940.0
945.0
945.0
948.0
958.0
959.0
966.0
971.0
974.0
977.0
978.0
977.0
980.0
978.0
979.0
980.0
982.0
988.0
987.0
990.0
989.0
992.0
993.0
987.0
984.0
983.0
981.0
977.0
972.0
967.0
962.0
963.0
955.0
949.0
944.0
936.0
930.0
923.0
917.0
912.0
909.0
906.0
901.0
899.0
898.0
893.0
888.0
885.0
881.0
877.0
870.0
870.0
867.0
870.0
869.0
875.0
875.0
873.0
870.0
869.0
866.0
865.0
866.0
860.0
861.0
863.0
864.0
867.0
868.0
866.0
866.0
865.0
862.0
861.0
860.0
858.0
862.0
864.0
866.0
867.0
869.0
868.0
868.0
866.0
864.0
861.0
859.0
858.0
861.0
862.0
864.0
866.0
867.0
868.0
866.0
866.0
862.0
860.0
858.0
854.0
855.0
860.0
860.0
858.0
862.0
858.0
858.0
858.0
856.0
856.0
853.0
853.0
855.0
854.0
857.0
855.0
855.0
853.0
854.0
851.0
849.0
845.0
844.0
844.0
847.0
847.0
848.0
850.0
850.0
853.0
849.0
845.0
846.0
844.0
840.0
844.0
843.0
843.0
845.0
845.0
844.0
844.0
847.0
845.0
845.0
843.0
841.0
837.0
838.0
843.0
841.0
846.0
848.0
849.0
846.0
844.0
842.0
842.0
839.0
837.0
841.0
841.0
839.0
842.0
845.0
843.0
843.0
838.0
842.0
836.0
836.0
835.0
836.0
838.0
837.0
838.0
836.0
840.0
841.0
841.0
839.0
839.0
837.0
837.0
838.0
838.0
840.0
843.0
843.0
841.0
841.0
838.0
836.0
837.0
831.0
834.0
836.0
837.0
837.0
843.0
844.0
842.0
845.0
843.0
841.0
840.0
836.0
836.0
835.0
838.0
838.0
840.0
838.0
840.0
842.0
840.0
839.0
837.0
831.0
832.0
831.0
833.0
837.0
838.0
836.0
837.0
834.0
835.0
836.0
834.0
829.0
836.0
835.0
839.0
841.0
842.0
844.0
840.0
839.0
840.0
838.0
834.0
834.0
834.0
835.0
835.0
838.0
841.0
842.0
841.0
842.0
838.0
839.0
835.0
834.0
834.0
837.0
839.0
840.0
841.0
842.0
840.0
837.0
834.0
837.0
834.0
833.0
835.0
834.0
836.0
838.0
843.0
842.0
842.0
841.0
839.0
838.0
836.0
836.0
837.0
836.0
841.0
844.0
850.0
852.0
854.0
856.0
856.0
850.0
851.0
851.0
854.0
857.0
864.0
867.0
868.0
868.0
867.0
868.0
867.0
865.0
862.0
858.0
853.0
856.0
855.0
858.0
858.0
858.0
854.0
851.0
841.0
835.0
831.0
831.0
830.0
829.0
833.0
833.0
835.0
838.0
836.0
833.0
831.0
826.0
826.0
824.0
824.0
826.0
828.0
830.0
829.0
832.0
831.0
830.0
827.0
827.0
825.0
828.0
831.0
830.0
832.0
834.0
836.0
839.0
840.0
842.0
848.0
862.0
873.0
890.0
915.0
941.0
970.0
988.0
988.0
969.0
934.0
882.0
831.0
778.0
731.0
696.0
673.0
667.0
675.0
696.0
721.0
740.0
754.0
766.0
778.0
792.0
802.0
812.0
821.0
832.0
837.0
839.0
842.0
838.0
839.0
842.0
840.0
839.0
837.0
839.0
841.0
842.0
844.0
846.0
852.0
851.0
845.0
850.0
850.0
849.0
843.0
844.0
844.0
844.0
847.0
850.0
853.0
854.0
857.0
856.0
856.0
855.0
852.0
850.0
856.0
858.0
862.0
865.0
866.0
867.0
867.0
866.0
867.0
864.0
864.0
867.0
864.0
867.0
872.0
873.0
876.0
881.0
881.0
883.0
882.0
887.0
885.0
887.0
888.0
893.0
895.0
901.0
907.0
911.0
915.0
921.0
922.0
923.0
924.0
926.0
929.0
931.0
935.0
941.0
946.0
953.0
955.0
954.0
956.0
958.0
959.0
959.0
959.0
962.0
966.0
967.0
970.0
973.0
971.0
967.0
963.0
961.0
958.0
952.0
946.0
945.0
943.0
937.0
936.0
932.0
930.0
922.0
917.0
908.0
901.0
896.0
889.0
881.0
876.0
878.0
875.0
868.0
867.0
864.0
860.0
859.0
851.0
850.0
852.0
851.0
851.0
850.0
851.0
853.0
852.0
846.0
844.0
845.0
846.0
843.0
843.0
844.0
846.0
847.0
847.0
849.0
850.0
850.0
849.0
844.0
842.0
843.0
844.0
841.0
842.0
843.0
849.0
852.0
853.0
854.0
852.0
855.0
850.0
848.0
848.0
850.0
852.0
850.0
854.0
854.0
854.0
851.0
853.0
847.0
850.0
848.0
850.0
848.0
851.0
850.0
850.0
853.0
851.0
850.0
845.0
843.0
842.0
842.0
843.0
843.0
843.0
844.0
848.0
846.0
847.0
847.0
844.0
843.0
841.0
839.0
838.0
841.0
839.0
840.0
842.0
843.0
842.0
840.0
838.0
839.0
839.0
839.0
839.0
839.0
841.0
841.0
843.0
844.0
840.0
839.0
840.0
836.0
836.0
836.0
834.0
833.0
834.0
837.0
838.0
841.0
839.0
840.0
840.0
838.0
835.0
833.0
834.0
832.0
834.0
840.0
841.0
844.0
841.0
841.0
840.0
837.0
836.0
837.0
834.0
837.0
836.0
839.0
843.0
842.0
841.0
840.0
836.0
839.0
837.0
834.0
836.0
839.0
838.0
840.0
842.0
843.0
842.0
845.0
839.0
841.0
837.0
837.0
835.0
834.0
837.0
840.0
839.0
842.0
840.0
840.0
844.0
840.0
838.0
835.0
834.0
837.0
839.0
837.0
842.0
840.0
843.0
841.0
839.0
839.0
838.0
837.0
840.0
841.0
844.0
843.0
846.0
843.0
846.0
840.0
836.0
840.0
837.0
835.0
836.0
837.0
839.0
838.0
840.0
842.0
843.0
842.0
840.0
839.0
836.0
839.0
839.0
838.0
841.0
843.0
843.0
844.0
845.0
846.0
845.0
843.0
841.0
843.0
845.0
841.0
841.0
846.0
848.0
848.0
848.0
848.0
846.0
844.0
842.0
842.0
843.0
845.0
845.0
851.0
853.0
862.0
862.0
863.0
861.0
862.0
860.0
863.0
865.0
864.0
871.0
872.0
874.0
879.0
877.0
879.0
877.0
876.0
871.0
869.0
865.0
866.0
866.0
869.0
866.0
868.0
866.0
863.0
857.0
852.0
846.0
847.0
841.0
842.0
844.0
844.0
847.0
848.0
848.0
848.0
846.0
843.0
842.0
835.0
834.0
835.0
837.0
840.0
841.0
843.0
842.0
842.0
841.0
840.0
839.0
841.0
838.0
840.0
841.0
843.0
848.0
849.0
853.0
857.0
865.0
880.0
899.0
925.0
952.0
982.0
1006.0
1016.0
1009.0
983.0
943.0
891.0
840.0
789.0
746.0
711.0
697.0
702.0
719.0
743.0
767.0
784.0
798.0
812.0
820.0
832.0
836.0
844.0
845.0
848.0
850.0
853.0
854.0
854.0
857.0
856.0
855.0
856.0
855.0
857.0
856.0
860.0
860.0
862.0
867.0
869.0
868.0
867.0
867.0
868.0
866.0
863.0
863.0
866.0
868.0
869.0
869.0
873.0
870.0
873.0
871.0
872.0
870.0
873.0
872.0
873.0
874.0
879.0
877.0
882.0
880.0
880.0
879.0
882.0
879.0
882.0
883.0
886.0
888.0
892.0
896.0
898.0
899.0
898.0
902.0
898.0
901.0
900.0
897.0
903.0
909.0
912.0
919.0
924.0
927.0
932.0
932.0
928.0
931.0
934.0
939.0
944.0
947.0
953.0
958.0
959.0
958.0
964.0
962.0
966.0
967.0
967.0
970.0
975.0
978.0
980.0
984.0
986.0
982.0
980.0
979.0
975.0
976.0
970.0
968.0
962.0
960.0
955.0
956.0
950.0
947.0
939.0
933.0
923.0
916.0
910.0
903.0
901.0
895.0
893.0
888.0
883.0
880.0
876.0
872.0
871.0
868.0
864.0
858.0
861.0
858.0
863.0
863.0
864.0
861.0
859.0
858.0
856.0
856.0
853.0
855.0
856.0
855.0
859.0
860.0
861.0
861.0
860.0
860.0
858.0
854.0
855.0
855.0
850.0
856.0
858.0
860.0
863.0
863.0
862.0
861.0
861.0
857.0
857.0
855.0
858.0
853.0
859.0
859.0
862.0
862.0
861.0
862.0
861.0
857.0
858.0
855.0
856.0
859.0
858.0
857.0
862.0
856.0
855.0
855.0
851.0
851.0
850.0
849.0
849.0
853.0
852.0
855.0
856.0
854.0
853.0
852.0
851.0
850.0
846.0
843.0
846.0
847.0
846.0
847.0
853.0
851.0
848.0
845.0
843.0
846.0
841.0
843.0
842.0
842.0
842.0
847.0
848.0
849.0
847.0
847.0
843.0
843.0
842.0
840.0
841.0
841.0
841.0
841.0
846.0
844.0
843.0
843.0
841.0
840.0
837.0
837.0
839.0
840.0
842.0
845.0
845.0
844.0
839.0
844.0
842.0
839.0
840.0
833.0
833.0
838.0
837.0
840.0
842.0
844.0
843.0
842.0
841.0
840.0
836.0
834.0
835.0
836.0
840.0
841.0
841.0
838.0
842.0
841.0
837.0
836.0
833.0
832.0
834.0
836.0
839.0
839.0
841.0
844.0
841.0
840.0
836.0
835.0
835.0
833.0
832.0
833.0
831.0
833.0
836.0
834.0
834.0
835.0
834.0
831.0
835.0
834.0
834.0
830.0
835.0
836.0
839.0
835.0
834.0
833.0
827.0
828.0
827.0
827.0
829.0
832.0
833.0
833.0
835.0
834.0
835.0
832.0
830.0
830.0
829.0
826.0
827.0
827.0
828.0
831.0
829.0
832.0
830.0
831.0
828.0
829.0
827.0
828.0
826.0
830.0
832.0
832.0
836.0
833.0
833.0
833.0
828.0
830.0
828.0
827.0
828.0
829.0
832.0
836.0
838.0
837.0
838.0
837.0
836.0
835.0
840.0
840.0
842.0
843.0
845.0
850.0
853.0
856.0
857.0
859.0
859.0
861.0
858.0
860.0
858.0
861.0
861.0
864.0
861.0
857.0
855.0
851.0
846.0
847.0
846.0
842.0
840.0
833.0
834.0
833.0
833.0
832.0
830.0
831.0
827.0
822.0
818.0
819.0
820.0
819.0
822.0
822.0
825.0
824.0
823.0
821.0
821.0
821.0
817.0
820.0
817.0
819.0
822.0
819.0
825.0
824.0
825.0
826.0
825.0
826.0
824.0
823.0
829.0
838.0
850.0
866.0
889.0
914.0
936.0
960.0
974.0
974.0
955.0
919.0
873.0
824.0
778.0
734.0
701.0
677.0
673.0
683.0
699.0
717.0
735.0
750.0
766.0
782.0
796.0
809.0
824.0
828.0
833.0
835.0
832.0
830.0
827.0
826.0
830.0
830.0
833.0
838.0
834.0
837.0
835.0
837.0
839.0
836.0
838.0
836.0
839.0
841.0
843.0
845.0
848.0
847.0
847.0
849.0
849.0
848.0
846.0
843.0
845.0
845.0
847.0
850.0
852.0
855.0
854.0
854.0
850.0
849.0
848.0
846.0
853.0
855.0
857.0
859.0
863.0
864.0
864.0
861.0
860.0
864.0
864.0
866.0
866.0
873.0
873.0
880.0
885.0
886.0
886.0
890.0
889.0
893.0
893.0
894.0
896.0
899.0
907.0
909.0
919.0
920.0
925.0
928.0
929.0
930.0
932.0
934.0
936.0
942.0
949.0
949.0
958.0
959.0
959.0
960.0
958.0
956.0
958.0
958.0
958.0
959.0
963.0
964.0
964.0
964.0
958.0
952.0
943.0
936.0
929.0
924.0
918.0
912.0
909.0
906.0
903.0
895.0
890.0
883.0
875.0
869.0
864.0
859.0
856.0
853.0
854.0
854.0
854.0
850.0
851.0
848.0
847.0
842.0
837.0
836.0
834.0
835.0
837.0
838.0
839.0
840.0
838.0
835.0
838.0
834.0
832.0
833.0
834.0
834.0
837.0
839.0
838.0
838.0
838.0
838.0
836.0
834.0
836.0
830.0
831.0
832.0
835.0
837.0
840.0
840.0
838.0
836.0
834.0
836.0
833.0
831.0
827.0
831.0
831.0
833.0
835.0
835.0
834.0
833.0
832.0
831.0
830.0
825.0
826.0
826.0
827.0
832.0
833.0
832.0
831.0
830.0
827.0
828.0
820.0
822.0
823.0
824.0
825.0
827.0
831.0
829.0
825.0
823.0
827.0
826.0
820.0
821.0
820.0
822.0
823.0
825.0
828.0
828.0
826.0
826.0
823.0
819.0
818.0
815.0
818.0
820.0
822.0
819.0
823.0
823.0
826.0
823.0
822.0
821.0
818.0
817.0
819.0
818.0
821.0
826.0
827.0
821.0
819.0
824.0
823.0
819.0
820.0
814.0
814.0
816.0
816.0
822.0
825.0
825.0
827.0
824.0
823.0
823.0
819.0
819.0
818.0
822.0
820.0
824.0
824.0
825.0
823.0
822.0
820.0
820.0
817.0
815.0
816.0
819.0
825.0
826.0
829.0
827.0
827.0
828.0
820.0
819.0
818.0
817.0
818.0
819.0
821.0
823.0
824.0
825.0
827.0
826.0
826.0
824.0
825.0
821.0
821.0
819.0
824.0
824.0
823.0
825.0
828.0
829.0
827.0
824.0
823.0
822.0
817.0
822.0
824.0
827.0
830.0
828.0
828.0
826.0
827.0
824.0
824.0
822.0
823.0
826.0
830.0
828.0
832.0
828.0
831.0
831.0
831.0
829.0
827.0
825.0
825.0
829.0
829.0
832.0
837.0
839.0
844.0
843.0
845.0
845.0
846.0
846.0
846.0
849.0
854.0
857.0
858.0
866.0
865.0
864.0
859.0
861.0
860.0
856.0
856.0
856.0
855.0
856.0
859.0
856.0
857.0
853.0
847.0
844.0
837.0
832.0
828.0
831.0
830.0
831.0
834.0
835.0
836.0
835.0
833.0
828.0
826.0
823.0
822.0
825.0
825.0
826.0
830.0
824.0
829.0
827.0
828.0
827.0
826.0
827.0
827.0
828.0
829.0
831.0
835.0
835.0
834.0
834.0
840.0
845.0
850.0
866.0
883.0
911.0
939.0
968.0
993.0
1009.0
1005.0
983.0
944.0
900.0
845.0
792.0
745.0
707.0
687.0
687.0
701.0
721.0
746.0
764.0
775.0
788.0
800.0
811.0
823.0
835.0
839.0
846.0
847.0
845.0
843.0
842.0
841.0
843.0
843.0
844.0
843.0
845.0
847.0
851.0
854.0
853.0
856.0
855.0
853.0
855.0
854.0
856.0
853.0
857.0
858.0
854.0
860.0
858.0
857.0
859.0
858.0
861.0
859.0
856.0
859.0
858.0
860.0
866.0
871.0
870.0
870.0
868.0
870.0
869.0
869.0
868.0
871.0
870.0
874.0
879.0
881.0
882.0
882.0
886.0
886.0
886.0
886.0
887.0
890.0
893.0
897.0
899.0
904.0
908.0
913.0
917.0
917.0
922.0
921.0
923.0
927.0
931.0
936.0
939.0
944.0
948.0
953.0
952.0
949.0
950.0
954.0
959.0
961.0
962.0
968.0
972.0
974.0
975.0
977.0
975.0
974.0
974.0
974.0
968.0
966.0
962.0
959.0
960.0
956.0
952.0
952.0
947.0
938.0
934.0
927.0
921.0
915.0
906.0
899.0
897.0
898.0
893.0
888.0
883.0
872.0
867.0
861.0
862.0
860.0
859.0
861.0
859.0
860.0
860.0
859.0
855.0
854.0
849.0
844.0
842.0
841.0
844.0
847.0
846.0
852.0
853.0
851.0
851.0
851.0
847.0
845.0
843.0
844.0
846.0
848.0
851.0
852.0
849.0
847.0
851.0
848.0
846.0
849.0
849.0
848.0
845.0
850.0
852.0
855.0
854.0
850.0
849.0
849.0
849.0
847.0
845.0
846.0
846.0
847.0
852.0
851.0
852.0
849.0
852.0
850.0
847.0
845.0
844.0
843.0
845.0
844.0
843.0
845.0
845.0
844.0
845.0
845.0
842.0
841.0
838.0
835.0
836.0
837.0
840.0
843.0
843.0
838.0
840.0
834.0
832.0
830.0
831.0
829.0
833.0
834.0
835.0
838.0
839.0
839.0
836.0
835.0
835.0
830.0
828.0
830.0
829.0
832.0
831.0
833.0
834.0
834.0
834.0
834.0
829.0
829.0
830.0
830.0
830.0
833.0
833.0
835.0
837.0
835.0
836.0
834.0
831.0
829.0
830.0
828.0
832.0
833.0
834.0
837.0
837.0
838.0
836.0
832.0
831.0
826.0
823.0
826.0
829.0
829.0
832.0
831.0
834.0
836.0
833.0
833.0
831.0
829.0
829.0
832.0
831.0
830.0
833.0
831.0
835.0
832.0
829.0
827.0
827.0
826.0
829.0
829.0
829.0
831.0
832.0
832.0
834.0
832.0
832.0
831.0
829.0
829.0
