# Simple Text Format
# Sampling Rate (Hz):= 360.00
# Resolution:= 12
# Labels:= ECG
835.0
839.0
835.0
831.0
831.0
829.0
824.0
827.0
831.0
833.0
836.0
837.0
835.0
836.0
835.0
834.0
833.0
831.0
829.0
831.0
832.0
832.0
837.0
837.0
838.0
834.0
834.0
833.0
831.0
831.0
830.0
829.0
830.0
833.0
833.0
835.0
838.0
837.0
835.0
835.0
835.0
832.0
832.0
835.0
837.0
839.0
842.0
843.0
844.0
849.0
849.0
849.0
848.0
848.0
848.0
848.0
849.0
855.0
858.0
864.0
868.0
870.0
867.0
870.0
870.0
864.0
866.0
860.0
861.0
861.0
864.0
864.0
861.0
857.0
853.0
848.0
845.0
839.0
835.0
835.0
834.0
835.0
835.0
838.0
840.0
840.0
835.0
836.0
831.0
828.0
828.0
828.0
828.0
831.0
831.0
834.0
832.0
831.0
832.0
834.0
832.0
829.0
830.0
832.0
835.0
836.0
837.0
839.0
841.0
843.0
840.0
843.0
854.0
866.0
884.0
908.0
935.0
963.0
990.0
1007.0
1007.0
981.0
937.0
886.0
824.0
769.0
719.0
684.0
666.0
666.0
685.0
711.0
734.0
750.0
767.0
777.0
785.0
790.0
808.0
821.0
832.0
840.0
845.0
845.0
845.0
843.0
841.0
841.0
842.0
841.0
843.0
844.0
850.0
851.0
854.0
855.0
853.0
854.0
854.0
854.0
850.0
850.0
850.0
851.0
854.0
857.0
859.0
862.0
863.0
861.0
857.0
859.0
857.0
856.0
859.0
858.0
863.0
865.0
868.0
869.0
872.0
869.0
869.0
869.0
865.0
865.0
870.0
872.0
875.0
875.0
879.0
880.0
886.0
886.0
886.0
887.0
885.0
885.0
887.0
893.0
895.0
897.0
898.0
908.0
910.0
914.0
915.0
918.0
920.0
919.0
924.0
928.0
930.0
935.0
941.0
945.0
947.0
954.0
955.0
956.0
957.0
956.0
957.0
962.0
967.0
970.0
975.0
975.0
973.0
976.0
977.0
976.0
972.0
969.0
972.0
971.0
969.0
968.0
967.0
967.0
963.0
960.0
956.0
947.0
942.0
935.0
928.0
919.0
921.0
917.0
914.0
907.0
901.0
898.0
892.0
885.0
880.0
876.0
871.0
870.0
867.0
865.0
866.0
865.0
862.0
859.0
856.0
855.0
854.0
853.0
847.0
847.0
849.0
850.0
855.0
855.0
855.0
852.0
850.0
849.0
846.0
847.0
845.0
849.0
849.0
850.0
852.0
852.0
853.0
853.0
853.0
850.0
851.0
847.0
849.0
848.0
847.0
848.0
852.0
852.0
854.0
854.0
851.0
850.0
848.0
848.0
846.0
850.0
850.0
854.0
852.0
856.0
855.0
852.0
851.0
850.0
846.0
845.0
845.0
847.0
846.0
848.0
850.0
850.0
844.0
846.0
848.0
842.0
839.0
843.0
842.0
843.0
843.0
842.0
844.0
846.0
843.0
844.0
840.0
840.0
838.0
835.0
834.0
834.0
837.0
839.0
839.0
841.0
839.0
840.0
835.0
832.0
832.0
832.0
830.0
831.0
832.0
835.0
835.0
839.0
839.0
836.0
837.0
836.0
834.0
831.0
829.0
830.0
830.0
833.0
834.0
835.0
835.0
835.0
833.0
832.0
832.0
831.0
830.0
831.0
830.0
833.0
834.0
837.0
834.0
834.0
832.0
832.0
831.0
827.0
828.0
828.0
830.0
831.0
831.0
836.0
835.0
837.0
835.0
834.0
831.0
827.0
828.0
827.0
830.0
831.0
835.0
837.0
836.0
837.0
831.0
833.0
831.0
829.0
830.0
831.0
832.0
834.0
835.0
834.0
836.0
835.0
834.0
831.0
830.0
829.0
827.0
833.0
833.0
836.0
838.0
835.0
835.0
833.0
831.0
830.0
830.0
830.0
829.0
826.0
833.0
834.0
834.0
835.0
836.0
838.0
836.0
837.0
832.0
832.0
833.0
834.0
835.0
837.0
838.0
838.0
839.0
837.0
837.0
838.0
835.0
835.0
835.0
836.0
835.0
836.0
840.0
845.0
842.0
847.0
847.0
848.0
847.0
851.0
852.0
853.0
854.0
856.0
857.0
862.0
869.0
874.0
873.0
875.0
873.0
873.0
867.0
866.0
868.0
866.0
864.0
861.0
858.0
858.0
858.0
855.0
852.0
846.0
842.0
840.0
841.0
839.0
839.0
839.0
840.0
837.0
835.0
833.0
831.0
829.0
828.0
830.0
830.0
833.0
835.0
837.0
839.0
837.0
836.0
834.0
829.0
831.0
828.0
829.0
835.0
837.0
840.0
839.0
839.0
843.0
845.0
854.0
863.0
879.0
904.0
933.0
962.0
990.0
1012.0
1021.0
1012.0
980.0
938.0
889.0
831.0
780.0
736.0
704.0
694.0
698.0
719.0
742.0
762.0
784.0
796.0
811.0
818.0
829.0
832.0
839.0
845.0
845.0
844.0
846.0
847.0
848.0
852.0
853.0
850.0
851.0
853.0
853.0
852.0
856.0
861.0
862.0
861.0
861.0
861.0
863.0
860.0
861.0
864.0
860.0
860.0
863.0
866.0
872.0
872.0
874.0
871.0
870.0
868.0
864.0
867.0
868.0
870.0
872.0
877.0
880.0
880.0
880.0
881.0
882.0
884.0
878.0
879.0
880.0
882.0
886.0
889.0
895.0
896.0
897.0
896.0
897.0
897.0
899.0
902.0
904.0
907.0
912.0
917.0
921.0
925.0
928.0
929.0
933.0
930.0
935.0
939.0
941.0
947.0
950.0
960.0
965.0
968.0
970.0
970.0
974.0
972.0
972.0
979.0
980.0
985.0
984.0
986.0
988.0
990.0
986.0
984.0
980.0
977.0
972.0
968.0
964.0
959.0
957.0
950.0
947.0
942.0
936.0
926.0
918.0
910.0
902.0
896.0
895.0
889.0
888.0
888.0
885.0
880.0
876.0
871.0
867.0
864.0
858.0
856.0
854.0
852.0
854.0
855.0
858.0
856.0
853.0
852.0
854.0
852.0
849.0
846.0
847.0
848.0
847.0
850.0
853.0
850.0
849.0
850.0
847.0
849.0
846.0
845.0
848.0
847.0
846.0
850.0
854.0
854.0
850.0
848.0
849.0
847.0
847.0
846.0
846.0
847.0
851.0
852.0
856.0
855.0
855.0
852.0
852.0
850.0
847.0
842.0
845.0
845.0
846.0
849.0
850.0
851.0
851.0
849.0
845.0
845.0
844.0
842.0
841.0
840.0
841.0
844.0
845.0
842.0
843.0
841.0
837.0
836.0
835.0
837.0
834.0
837.0
837.0
839.0
843.0
838.0
837.0
836.0
833.0
833.0
830.0
828.0
830.0
832.0
832.0
834.0
837.0
835.0
835.0
836.0
834.0
834.0
833.0
833.0
827.0
831.0
830.0
830.0
834.0
831.0
834.0
833.0
833.0
830.0
830.0
831.0
831.0
828.0
829.0
834.0
835.0
831.0
834.0
832.0
828.0
828.0
829.0
827.0
826.0
827.0
830.0
832.0
836.0
835.0
833.0
829.0
826.0
828.0
827.0
826.0
828.0
828.0
831.0
833.0
834.0
832.0
832.0
832.0
831.0
831.0
828.0
827.0
826.0
827.0
829.0
833.0
834.0
831.0
832.0
831.0
827.0
826.0
827.0
827.0
825.0
829.0
833.0
835.0
834.0
830.0
832.0
828.0
830.0
826.0
826.0
828.0
824.0
826.0
827.0
831.0
832.0
832.0
831.0
831.0
830.0
824.0
826.0
824.0
828.0
828.0
830.0
832.0
833.0
836.0
835.0
833.0
832.0
831.0
829.0
830.0
829.0
830.0
832.0
834.0
837.0
832.0
838.0
837.0
835.0
838.0
838.0
841.0
842.0
845.0
849.0
849.0
852.0
855.0
854.0
856.0
856.0
858.0
860.0
860.0
864.0
867.0
864.0
867.0
869.0
870.0
866.0
860.0
857.0
852.0
852.0
848.0
848.0
848.0
844.0
841.0
840.0
836.0
832.0
833.0
829.0
828.0
829.0
828.0
828.0
826.0
828.0
831.0
831.0
830.0
826.0
825.0
824.0
824.0
822.0
821.0
823.0
825.0
828.0
827.0
833.0
830.0
830.0
832.0
835.0
833.0
840.0
843.0
856.0
875.0
898.0
925.0
952.0
976.0
990.0
987.0
967.0
927.0
880.0
823.0
771.0
728.0
693.0
672.0
669.0
680.0
703.0
724.0
742.0
756.0
772.0
786.0
798.0
813.0
827.0
834.0
841.0
842.0
841.0
839.0
838.0
837.0
836.0
835.0
837.0
840.0
844.0
847.0
850.0
849.0
851.0
850.0
848.0
850.0
847.0
850.0
851.0
851.0
853.0
857.0
859.0
860.0
861.0
856.0
855.0
854.0
852.0
849.0
854.0
857.0
858.0
860.0
865.0
867.0
865.0
865.0
866.0
863.0
864.0
863.0
864.0
864.0
867.0
869.0
870.0
875.0
872.0
878.0
874.0
876.0
878.0
879.0
885.0
887.0
891.0
894.0
899.0
899.0
904.0
903.0
904.0
907.0
911.0
911.0
916.0
924.0
929.0
937.0
939.0
943.0
948.0
949.0
951.0
950.0
951.0
955.0
958.0
963.0
970.0
973.0
980.0
975.0
976.0
982.0
982.0
980.0
979.0
977.0
977.0
982.0
978.0
979.0
978.0
974.0
969.0
967.0
960.0
953.0
945.0
936.0
931.0
928.0
921.0
915.0
910.0
903.0
897.0
890.0
883.0
877.0
872.0
867.0
862.0
862.0
860.0
859.0
858.0
856.0
856.0
852.0
844.0
849.0
844.0
839.0
842.0
843.0
847.0
845.0
847.0
847.0
846.0
842.0
841.0
839.0
839.0
839.0
838.0
840.0
839.0
840.0
843.0
844.0
846.0
845.0
841.0
842.0
836.0
835.0
836.0
840.0
844.0
843.0
847.0
847.0
846.0
844.0
842.0
835.0
839.0
836.0
841.0
840.0
844.0
842.0
846.0
843.0
840.0
843.0
843.0
842.0
841.0
838.0
835.0
838.0
838.0
841.0
840.0
840.0
841.0
839.0
834.0
833.0
833.0
831.0
830.0
831.0
833.0
834.0
837.0
837.0
839.0
835.0
837.0
833.0
832.0
830.0
830.0
833.0
832.0
831.0
833.0
833.0
828.0
827.0
827.0
827.0
824.0
824.0
826.0
827.0
830.0
832.0
833.0
831.0
833.0
830.0
829.0
826.0
825.0
824.0
825.0
825.0
827.0
829.0
831.0
831.0
830.0
831.0
830.0
829.0
827.0
828.0
826.0
828.0
830.0
829.0
832.0
834.0
831.0
831.0
828.0
828.0
828.0
826.0
827.0
832.0
831.0
831.0
834.0
834.0
834.0
834.0
832.0
829.0
829.0
826.0
826.0
828.0
827.0
829.0
830.0
832.0
832.0
832.0
831.0
829.0
830.0
828.0
827.0
831.0
833.0
834.0
836.0
836.0
836.0
835.0
836.0
833.0
830.0
826.0
830.0
832.0
832.0
835.0
834.0
835.0
837.0
834.0
834.0
831.0
830.0
827.0
828.0
831.0
833.0
837.0
839.0
842.0
839.0
839.0
836.0
834.0
832.0
830.0
830.0
832.0
835.0
835.0
838.0
837.0
836.0
837.0
836.0
836.0
836.0
836.0
835.0
837.0
838.0
838.0
839.0
838.0
842.0
841.0
840.0
840.0
841.0
839.0
839.0
847.0
850.0
857.0
861.0
861.0
860.0
861.0
860.0
861.0
860.0
862.0
863.0
864.0
868.0
870.0
871.0
871.0
866.0
862.0
859.0
856.0
854.0
850.0
849.0
849.0
847.0
843.0
842.0
842.0
841.0
838.0
836.0
838.0
835.0
834.0
834.0
837.0
838.0
837.0
835.0
836.0
834.0
833.0
834.0
827.0
826.0
829.0
832.0
830.0
831.0
833.0
838.0
838.0
840.0
842.0
840.0
839.0
838.0
843.0
852.0
864.0
882.0
906.0
939.0
968.0
993.0
1014.0
1016.0
996.0
958.0
906.0
846.0
795.0
747.0
708.0
691.0
694.0
710.0
731.0
754.0
773.0
786.0
796.0
809.0
820.0
831.0
842.0
847.0
850.0
851.0
849.0
847.0
845.0
844.0
845.0
847.0
849.0
852.0
855.0
859.0
860.0
861.0
859.0
858.0
854.0
853.0
855.0
858.0
858.0
863.0
868.0
867.0
866.0
868.0
867.0
865.0
866.0
865.0
866.0
866.0
870.0
871.0
873.0
876.0
877.0
878.0
880.0
878.0
877.0
878.0
880.0
880.0
884.0
885.0
888.0
892.0
890.0
895.0
895.0
895.0
896.0
894.0
899.0
902.0
905.0
907.0
911.0
913.0
918.0
920.0
922.0
925.0
928.0
932.0
936.0
940.0
944.0
951.0
955.0
962.0
966.0
968.0
970.0
973.0
973.0
976.0
977.0
978.0
982.0
985.0
991.0
992.0
995.0
999.0
998.0
998.0
997.0
996.0
992.0
992.0
991.0
990.0
990.0
987.0
982.0
974.0
972.0
960.0
954.0
946.0
938.0
935.0
928.0
923.0
919.0
916.0
909.0
904.0
896.0
886.0
883.0
879.0
873.0
870.0
868.0
870.0
872.0
874.0
870.0
868.0
865.0
861.0
857.0
855.0
855.0
855.0
853.0
856.0
860.0
861.0
861.0
861.0
858.0
856.0
858.0
854.0
856.0
851.0
853.0
860.0
859.0
862.0
862.0
862.0
863.0
861.0
860.0
857.0
855.0
856.0
858.0
861.0
862.0
866.0
866.0
866.0
865.0
863.0
860.0
858.0
855.0
855.0
859.0
862.0
865.0
864.0
865.0
865.0
865.0
862.0
860.0
859.0
855.0
857.0
854.0
858.0
860.0
860.0
856.0
858.0
855.0
853.0
851.0
850.0
848.0
851.0
852.0
855.0
855.0
854.0
856.0
855.0
851.0
850.0
849.0
846.0
847.0
846.0
848.0
849.0
850.0
853.0
855.0
854.0
853.0
852.0
852.0
847.0
845.0
843.0
846.0
849.0
851.0
853.0
851.0
852.0
853.0
851.0
850.0
849.0
848.0
849.0
852.0
852.0
851.0
852.0
854.0
852.0
854.0
851.0
848.0
847.0
848.0
848.0
852.0
852.0
852.0
855.0
857.0
857.0
856.0
851.0
849.0
849.0
847.0
846.0
845.0
848.0
848.0
850.0
852.0
852.0
855.0
853.0
850.0
850.0
849.0
850.0
849.0
853.0
850.0
853.0
856.0
855.0
850.0
848.0
851.0
849.0
849.0
848.0
850.0
855.0
857.0
856.0
856.0
856.0
855.0
855.0
850.0
854.0
852.0
851.0
854.0
854.0
852.0
856.0
857.0
857.0
856.0
857.0
850.0
853.0
852.0
853.0
853.0
854.0
855.0
855.0
854.0
854.0
854.0
853.0
854.0
849.0
851.0
849.0
851.0
856.0
857.0
857.0
861.0
858.0
859.0
856.0
855.0
854.0
850.0
853.0
856.0
856.0
858.0
860.0
859.0
861.0
860.0
861.0
859.0
856.0
854.0
854.0
857.0
860.0
860.0
861.0
860.0
862.0
864.0
859.0
861.0
856.0
856.0
857.0
858.0
858.0
860.0
862.0
867.0
864.0
861.0
863.0
863.0
866.0
864.0
870.0
872.0
879.0
879.0
887.0
890.0
889.0
884.0
883.0
886.0
886.0
891.0
893.0
896.0
897.0
898.0
901.0
902.0
900.0
896.0
893.0
886.0
886.0
880.0
881.0
884.0
883.0
879.0
879.0
874.0
873.0
869.0
866.0
865.0
862.0
861.0
857.0
860.0
864.0
867.0
865.0
863.0
861.0
858.0
855.0
854.0
851.0
852.0
854.0
854.0
860.0
863.0
865.0
864.0
866.0
865.0
866.0
862.0
863.0
862.0
872.0
881.0
900.0
922.0
952.0
985.0
1011.0
1028.0
1023.0
1001.0
954.0
903.0
845.0
790.0
750.0
723.0
718.0
734.0
755.0
780.0
802.0
818.0
833.0
845.0
857.0
864.0
873.0
872.0
876.0
879.0
878.0
876.0
876.0
876.0
874.0
871.0
871.0
875.0
880.0
884.0
884.0
887.0
889.0
888.0
888.0
885.0
885.0
884.0
885.0
883.0
887.0
887.0
889.0
892.0
890.0
891.0
890.0
889.0
889.0
888.0
891.0
889.0
891.0
892.0
895.0
900.0
899.0
901.0
900.0
899.0
898.0
898.0
901.0
905.0
908.0
913.0
915.0
917.0
919.0
918.0
921.0
920.0
918.0
921.0
921.0
928.0
931.0
938.0
942.0
946.0
950.0
952.0
958.0
959.0
964.0
965.0
965.0
973.0
977.0
982.0
988.0
990.0
992.0
994.0
997.0
997.0
998.0
998.0
1000.0
1004.0
1006.0
1005.0
1012.0
1014.0
1008.0
1007.0
1006.0
1002.0
1000.0
993.0
990.0
984.0
981.0
976.0
971.0
967.0
959.0
953.0
946.0
936.0
930.0
919.0
914.0
913.0
907.0
904.0
901.0
900.0
897.0
896.0
891.0
888.0
884.0
883.0
881.0
879.0
876.0
879.0
880.0
880.0
879.0
879.0
876.0
877.0
872.0
870.0
869.0
873.0
870.0
874.0
877.0
875.0
874.0
874.0
871.0
869.0
869.0
865.0
868.0
865.0
870.0
872.0
873.0
875.0
877.0
875.0
874.0
870.0
872.0
871.0
873.0
872.0
875.0
874.0
873.0
875.0
875.0
879.0
874.0
873.0
871.0
867.0
864.0
866.0
873.0
871.0
875.0
877.0
874.0
871.0
872.0
870.0
863.0
863.0
863.0
861.0
862.0
864.0
867.0
865.0
865.0
865.0
861.0
864.0
861.0
861.0
860.0
858.0
858.0
858.0
862.0
859.0
861.0
859.0
856.0
859.0
855.0
853.0
854.0
852.0
857.0
857.0
860.0
857.0
855.0
860.0
856.0
854.0
854.0
850.0
852.0
851.0
851.0
850.0
852.0
858.0
858.0
857.0
856.0
853.0
852.0
852.0
846.0
850.0
854.0
848.0
853.0
853.0
854.0
852.0
852.0
854.0
853.0
852.0
852.0
852.0
855.0
855.0
859.0
858.0
857.0
857.0
852.0
852.0
847.0
849.0
850.0
851.0
853.0
856.0
854.0
855.0
853.0
853.0
851.0
853.0
852.0
849.0
850.0
849.0
853.0
848.0
852.0
856.0
856.0
857.0
855.0
853.0
848.0
848.0
850.0
850.0
849.0
849.0
853.0
857.0
855.0
853.0
851.0
847.0
847.0
844.0
849.0
851.0
851.0
850.0
854.0
854.0
855.0
854.0
853.0
851.0
850.0
850.0
850.0
848.0
849.0
853.0
857.0
856.0
856.0
857.0
854.0
853.0
852.0
849.0
851.0
848.0
852.0
852.0
849.0
852.0
848.0
849.0
847.0
848.0
848.0
850.0
850.0
851.0
853.0
854.0
856.0
857.0
855.0
856.0
854.0
853.0
848.0
843.0
846.0
848.0
850.0
851.0
854.0
856.0
856.0
855.0
853.0
851.0
846.0
848.0
850.0
847.0
848.0
852.0
855.0
855.0
857.0
861.0
861.0
865.0
865.0
867.0
868.0
868.0
868.0
869.0
873.0
876.0
879.0
882.0
879.0
880.0
878.0
877.0
878.0
878.0
880.0
878.0
878.0
875.0
878.0
872.0
871.0
868.0
862.0
857.0
853.0
852.0
850.0
852.0
855.0
853.0
852.0
851.0
852.0
850.0
846.0
846.0
842.0
841.0
843.0
846.0
850.0
848.0
851.0
850.0
848.0
849.0
847.0
846.0
849.0
850.0
850.0
854.0
854.0
858.0
857.0
856.0
861.0
871.0
878.0
896.0
916.0
947.0
978.0
1005.0
1017.0
1012.0
985.0
937.0
876.0
815.0
760.0
714.0
687.0
681.0
692.0
716.0
742.0
768.0
785.0
798.0
812.0
824.0
836.0
846.0
850.0
854.0
858.0
860.0
861.0
861.0
861.0
863.0
861.0
860.0
862.0
863.0
864.0
868.0
869.0
872.0
873.0
877.0
874.0
877.0
874.0
872.0
875.0
874.0
875.0
875.0
878.0
876.0
879.0
884.0
883.0
882.0
881.0
880.0
879.0
877.0
884.0
887.0
891.0
893.0
889.0
890.0
893.0
894.0
895.0
895.0
894.0
896.0
898.0
901.0
901.0
910.0
908.0
911.0
913.0
917.0
919.0
917.0
916.0
917.0
921.0
926.0
930.0
938.0
939.0
944.0
950.0
953.0
956.0
956.0
956.0
962.0
965.0
969.0
972.0
977.0
986.0
988.0
990.0
991.0
991.0
991.0
991.0
992.0
993.0
989.0
993.0
995.0
998.0
1000.0
997.0
997.0
993.0
989.0
981.0
977.0
972.0
968.0
964.0
959.0
957.0
950.0
947.0
941.0
934.0
927.0
917.0
913.0
908.0
903.0
900.0
901.0
898.0
896.0
892.0
887.0
884.0
883.0
880.0
877.0
876.0
877.0
877.0
875.0
881.0
879.0
879.0
875.0
877.0
874.0
872.0
872.0
870.0
873.0
873.0
874.0
876.0
875.0
876.0
874.0
875.0
871.0
872.0
871.0
871.0
871.0
871.0
872.0
877.0
874.0
877.0
879.0
876.0
875.0
873.0
874.0
875.0
873.0
875.0
876.0
878.0
878.0
881.0
879.0
875.0
872.0
874.0
873.0
872.0
873.0
875.0
878.0
878.0
878.0
879.0
877.0
875.0
871.0
870.0
869.0
868.0
867.0
869.0
868.0
870.0
873.0
872.0
872.0
868.0
869.0
862.0
862.0
863.0
863.0
864.0
866.0
865.0
866.0
868.0
868.0
864.0
863.0
863.0
863.0
863.0
863.0
859.0
865.0
864.0
869.0
868.0
863.0
865.0
861.0
860.0
856.0
855.0
855.0
861.0
859.0
860.0
864.0
865.0
865.0
862.0
858.0
858.0
857.0
856.0
857.0
858.0
860.0
859.0
863.0
862.0
862.0
862.0
863.0
861.0
858.0
856.0
856.0
855.0
859.0
856.0
861.0
858.0
860.0
859.0
858.0
858.0
859.0
859.0
859.0
860.0
862.0
866.0
867.0
867.0
867.0
864.0
864.0
857.0
859.0
858.0
860.0
861.0
862.0
866.0
866.0
867.0
866.0
862.0
863.0
859.0
859.0
855.0
858.0
859.0
859.0
864.0
862.0
864.0
862.0
863.0
862.0
859.0
859.0
858.0
860.0
860.0
860.0
863.0
865.0
867.0
866.0
865.0
860.0
857.0
858.0
859.0
859.0
861.0
864.0
864.0
864.0
865.0
864.0
864.0
866.0
859.0
859.0
857.0
856.0
862.0
862.0
863.0
865.0
866.0
866.0
864.0
863.0
862.0
861.0
859.0
860.0
861.0
864.0
864.0
865.0
866.0
867.0
864.0
862.0
861.0
861.0
861.0
863.0
866.0
866.0
868.0
871.0
872.0
872.0
869.0
869.0
867.0
861.0
866.0
869.0
872.0
880.0
881.0
883.0
883.0
888.0
884.0
887.0
887.0
888.0
893.0
896.0
898.0
900.0
903.0
901.0
900.0
900.0
895.0
889.0
888.0
884.0
882.0
884.0
885.0
883.0
878.0
876.0
872.0
871.0
866.0
861.0
863.0
862.0
862.0
863.0
866.0
866.0
866.0
866.0
865.0
860.0
860.0
859.0
857.0
858.0
856.0
856.0
857.0
859.0
859.0
859.0
860.0
860.0
859.0
858.0
858.0
857.0
860.0
860.0
867.0
879.0
894.0
917.0
943.0
968.0
996.0
1017.0
1023.0
1014.0
986.0
945.0
898.0
849.0
806.0
767.0
740.0
729.0
732.0
750.0
767.0
787.0
803.0
815.0
829.0
839.0
853.0
863.0
867.0
874.0
874.0
872.0
868.0
865.0
865.0
867.0
871.0
873.0
875.0
877.0
882.0
878.0
880.0
879.0
875.0
874.0
875.0
877.0
878.0
881.0
881.0
886.0
887.0
887.0
888.0
885.0
884.0
883.0
882.0
883.0
887.0
890.0
890.0
891.0
892.0
890.0
892.0
892.0
891.0
892.0
892.0
892.0
896.0
898.0
899.0
902.0
901.0
901.0
906.0
905.0
904.0
903.0
905.0
908.0
911.0
917.0
919.0
924.0
925.0
928.0
928.0
930.0
930.0
932.0
935.0
938.0
946.0
951.0
959.0
963.0
965.0
971.0
967.0
968.0
968.0
972.0
978.0
981.0
985.0
987.0
991.0
995.0
995.0
997.0
998.0
996.0
997.0
998.0
996.0
997.0
997.0
998.0
998.0
995.0
992.0
988.0
982.0
974.0
967.0
962.0
954.0
949.0
943.0
943.0
936.0
934.0
928.0
921.0
917.0
911.0
903.0
897.0
895.0
893.0
894.0
886.0
885.0
887.0
884.0
882.0
882.0
880.0
877.0
875.0
871.0
870.0
870.0
871.0
875.0
875.0
874.0
871.0
871.0
869.0
865.0
865.0
865.0
867.0
870.0
869.0
871.0
870.0
872.0
873.0
871.0
866.0
865.0
865.0
867.0
869.0
869.0
870.0
872.0
876.0
873.0
876.0
876.0
874.0
872.0
871.0
869.0
870.0
869.0
872.0
875.0
874.0
872.0
877.0
874.0
869.0
865.0
864.0
864.0
867.0
869.0
871.0
870.0
874.0
874.0
872.0
871.0
868.0
862.0
863.0
860.0
858.0
863.0
862.0
864.0
865.0
866.0
865.0
866.0
863.0
860.0
857.0
854.0
853.0
857.0
855.0
859.0
861.0
861.0
860.0
857.0
856.0
857.0
855.0
855.0
852.0
857.0
857.0
858.0
860.0
859.0
859.0
858.0
855.0
854.0
850.0
851.0
852.0
852.0
855.0
858.0
861.0
856.0
858.0
859.0
857.0
856.0
853.0
853.0
852.0
854.0
855.0
857.0
858.0
857.0
855.0
853.0
855.0
856.0
853.0
852.0
853.0
854.0
856.0
858.0
859.0
858.0
857.0
858.0
851.0
850.0
851.0
848.0
849.0
851.0
852.0
855.0
858.0
858.0
853.0
854.0
854.0
851.0
850.0
849.0
849.0
849.0
851.0
851.0
857.0
856.0
855.0
854.0
855.0
852.0
853.0
853.0
853.0
851.0
852.0
854.0
858.0
857.0
854.0
854.0
854.0
850.0
847.0
847.0
848.0
848.0
854.0
856.0
860.0
859.0
856.0
854.0
847.0
847.0
849.0
847.0
849.0
850.0
849.0
855.0
854.0
856.0
852.0
852.0
850.0
853.0
851.0
849.0
851.0
853.0
854.0
855.0
854.0
856.0
852.0
854.0
854.0
851.0
852.0
850.0
849.0
850.0
855.0
858.0
860.0
860.0
857.0
856.0
855.0
854.0
852.0
850.0
850.0
852.0
855.0
857.0
861.0
857.0
856.0
857.0
855.0
854.0
854.0
849.0
853.0
853.0
856.0
857.0
862.0
862.0
864.0
866.0
868.0
862.0
868.0
866.0
868.0
870.0
877.0
877.0
884.0
887.0
887.0
889.0
887.0
882.0
881.0
880.0
878.0
878.0
877.0
874.0
876.0
874.0
875.0
872.0
863.0
859.0
857.0
852.0
851.0
847.0
851.0
851.0
855.0
853.0
852.0
852.0
849.0
847.0
847.0
847.0
845.0
843.0
843.0
844.0
852.0
848.0
847.0
847.0
843.0
847.0
844.0
841.0
841.0
847.0
848.0
851.0
854.0
858.0
855.0
858.0
862.0
868.0
880.0
896.0
919.0
944.0
970.0
990.0
1002.0
1000.0
973.0
937.0
887.0
834.0
787.0
740.0
707.0
688.0
689.0
704.0
727.0
749.0
766.0
782.0
791.0
804.0
816.0
825.0
839.0
847.0
856.0
858.0
860.0
859.0
857.0
858.0
858.0
855.0
858.0
862.0
863.0
864.0
865.0
866.0
866.0
868.0
866.0
867.0
866.0
865.0
870.0
866.0
864.0
872.0
874.0
876.0
880.0
879.0
880.0
879.0
878.0
876.0
876.0
876.0
878.0
878.0
881.0
881.0
883.0
884.0
887.0
891.0
888.0
889.0
890.0
889.0
888.0
889.0
891.0
897.0
900.0
901.0
904.0
905.0
905.0
905.0
906.0
905.0
907.0
914.0
919.0
918.0
924.0
926.0
927.0
933.0
931.0
933.0
936.0
940.0
943.0
951.0
956.0
960.0
967.0
971.0
976.0
974.0
978.0
979.0
983.0
983.0
983.0
983.0
988.0
993.0
996.0
998.0
998.0
1002.0
994.0
996.0
995.0
989.0
986.0
983.0
980.0
974.0
972.0
966.0
959.0
952.0
943.0
937.0
931.0
923.0
920.0
913.0
910.0
908.0
904.0
899.0
897.0
889.0
885.0
880.0
875.0
871.0
869.0
869.0
867.0
872.0
876.0
873.0
871.0
869.0
866.0
868.0
865.0
861.0
862.0
861.0
865.0
867.0
872.0
871.0
869.0
869.0
867.0
866.0
866.0
863.0
864.0
866.0
869.0
872.0
874.0
873.0
869.0
869.0
867.0
865.0
863.0
865.0
863.0
864.0
866.0
871.0
869.0
870.0
870.0
867.0
864.0
865.0
866.0
863.0
859.0
859.0
862.0
863.0
868.0
867.0
865.0
867.0
863.0
862.0
858.0
858.0
857.0
860.0
862.0
864.0
862.0
865.0
863.0
864.0
858.0
857.0
858.0
856.0
857.0
857.0
859.0
859.0
859.0
862.0
859.0
858.0
855.0
850.0
852.0
849.0
850.0
848.0
850.0
851.0
856.0
856.0
855.0
855.0
853.0
852.0
853.0
851.0
849.0
850.0
846.0
851.0
852.0
855.0
854.0
855.0
854.0
854.0
850.0
849.0
847.0
848.0
853.0
853.0
855.0
855.0
858.0
854.0
852.0
851.0
849.0
846.0
849.0
852.0
854.0
857.0
860.0
864.0
864.0
860.0
860.0
857.0
856.0
853.0
854.0
854.0
856.0
858.0
860.0
859.0
861.0
860.0
857.0
858.0
854.0
852.0
853.0
852.0
858.0
860.0
860.0
859.0
859.0
856.0
854.0
857.0
855.0
852.0
852.0
854.0
856.0
858.0
861.0
860.0
859.0
862.0
859.0
859.0
855.0
855.0
854.0
857.0
856.0
861.0
864.0
863.0
863.0
864.0
861.0
858.0
859.0
858.0
858.0
859.0
857.0
860.0
861.0
863.0
862.0
862.0
860.0
858.0
857.0
856.0
856.0
858.0
858.0
862.0
863.0
863.0
860.0
859.0
860.0
858.0
857.0
855.0
856.0
854.0
860.0
863.0
866.0
866.0
865.0
865.0
867.0
865.0
862.0
859.0
859.0
860.0
863.0
864.0
866.0
867.0
868.0
868.0
867.0
868.0
872.0
872.0
872.0
876.0
881.0
883.0
886.0
888.0
887.0
887.0
891.0
887.0
892.0
889.0
888.0
891.0
890.0
893.0
893.0
889.0
888.0
885.0
882.0
881.0
875.0
870.0
870.0
866.0
865.0
867.0
865.0
864.0
866.0
864.0
860.0
859.0
861.0
859.0
858.0
858.0
855.0
858.0
858.0
857.0
860.0
858.0
856.0
856.0
853.0
853.0
854.0
857.0
858.0
857.0
861.0
863.0
865.0
865.0
862.0
863.0
861.0
865.0
875.0
890.0
910.0
934.0
965.0
993.0
1015.0
1030.0
1035.0
1019.0
991.0
945.0
895.0
845.0
799.0
753.0
725.0
715.0
719.0
739.0
761.0
782.0
802.0
810.0
828.0
839.0
853.0
861.0
