# Simple Text Format
# Sampling Rate (Hz):= 360.00
# Resolution:= 12
# Labels:= ECG
860.0
861.0
858.0
858.0
855.0
856.0
859.0
856.0
860.0
863.0
860.0
860.0
861.0
857.0
858.0
858.0
854.0
853.0
855.0
857.0
859.0
862.0
862.0
859.0
859.0
858.0
855.0
855.0
851.0
855.0
856.0
856.0
858.0
861.0
858.0
859.0
856.0
855.0
851.0
855.0
854.0
853.0
853.0
854.0
855.0
859.0
859.0
857.0
859.0
857.0
853.0
853.0
852.0
852.0
853.0
854.0
853.0
856.0
860.0
858.0
860.0
856.0
855.0
853.0
854.0
853.0
855.0
859.0
858.0
860.0
859.0
859.0
857.0
852.0
849.0
851.0
849.0
851.0
854.0
858.0
859.0
861.0
862.0
858.0
855.0
854.0
851.0
852.0
852.0
851.0
855.0
854.0
854.0
858.0
856.0
856.0
855.0
855.0
853.0
854.0
854.0
854.0
852.0
856.0
857.0
859.0
860.0
857.0
856.0
854.0
855.0
852.0
851.0
851.0
856.0
854.0
856.0
859.0
861.0
857.0
858.0
855.0
855.0
853.0
851.0
851.0
855.0
855.0
856.0
857.0
858.0
859.0
858.0
860.0
857.0
855.0
854.0
852.0
852.0
855.0
858.0
858.0
855.0
856.0
856.0
855.0
855.0
855.0
854.0
855.0
859.0
861.0
866.0
871.0
868.0
871.0
869.0
873.0
873.0
870.0
868.0
870.0
872.0
881.0
886.0
888.0
888.0
892.0
890.0
888.0
886.0
881.0
874.0
870.0
871.0
873.0
873.0
875.0
872.0
868.0
866.0
858.0
854.0
851.0
849.0
847.0
845.0
846.0
852.0
853.0
851.0
849.0
842.0
842.0
842.0
840.0
839.0
840.0
841.0
843.0
846.0
850.0
849.0
848.0
845.0
845.0
841.0
843.0
843.0
842.0
842.0
846.0
850.0
855.0
858.0
869.0
878.0
895.0
917.0
943.0
966.0
990.0
998.0
995.0
964.0
921.0
866.0
810.0
764.0
725.0
700.0
696.0
704.0
727.0
750.0
771.0
791.0
808.0
822.0
827.0
841.0
846.0
848.0
852.0
852.0
849.0
848.0
851.0
855.0
859.0
859.0
861.0
861.0
861.0
859.0
860.0
858.0
858.0
859.0
863.0
864.0
867.0
865.0
865.0
865.0
865.0
866.0
868.0
864.0
864.0
867.0
867.0
870.0
874.0
875.0
875.0
874.0
872.0
871.0
871.0
873.0
874.0
873.0
878.0
883.0
883.0
886.0
885.0
886.0
883.0
886.0
883.0
883.0
884.0
886.0
891.0
896.0
899.0
899.0
901.0
903.0
902.0
908.0
906.0
906.0
909.0
914.0
919.0
921.0
926.0
932.0
938.0
939.0
940.0
944.0
946.0
948.0
953.0
955.0
954.0
963.0
967.0
968.0
972.0
973.0
976.0
977.0
975.0
977.0
977.0
980.0
979.0
981.0
983.0
983.0
984.0
979.0
975.0
968.0
965.0
959.0
952.0
949.0
944.0
940.0
938.0
932.0
926.0
916.0
910.0
904.0
897.0
889.0
883.0
878.0
877.0
875.0
874.0
870.0
866.0
864.0
857.0
854.0
854.0
850.0
852.0
851.0
853.0
852.0
855.0
853.0
853.0
855.0
849.0
848.0
847.0
844.0
846.0
847.0
849.0
850.0
853.0
851.0
852.0
851.0
848.0
846.0
847.0
844.0
843.0
845.0
846.0
850.0
854.0
851.0
850.0
849.0
848.0
846.0
843.0
843.0
842.0
843.0
846.0
848.0
850.0
849.0
849.0
847.0
847.0
843.0
842.0
840.0
840.0
839.0
840.0
841.0
843.0
845.0
845.0
842.0
841.0
843.0
839.0
839.0
841.0
837.0
839.0
841.0
841.0
840.0
838.0
837.0
835.0
837.0
830.0
831.0
833.0
832.0
835.0
837.0
835.0
837.0
833.0
836.0
835.0
831.0
831.0
830.0
829.0
831.0
835.0
835.0
837.0
838.0
837.0
835.0
833.0
830.0
830.0
826.0
824.0
826.0
827.0
828.0
831.0
832.0
833.0
831.0
831.0
830.0
828.0
827.0
828.0
829.0
830.0
829.0
831.0
832.0
831.0
830.0
830.0
823.0
824.0
823.0
824.0
826.0
828.0
826.0
830.0
833.0
832.0
831.0
829.0
825.0
825.0
824.0
825.0
824.0
826.0
826.0
827.0
826.0
826.0
829.0
833.0
830.0
829.0
826.0
825.0
824.0
828.0
829.0
831.0
832.0
830.0
828.0
828.0
825.0
825.0
825.0
824.0
827.0
828.0
829.0
830.0
828.0
833.0
833.0
832.0
828.0
827.0
828.0
827.0
826.0
828.0
833.0
832.0
833.0
833.0
834.0
832.0
832.0
829.0
827.0
828.0
826.0
830.0
831.0
831.0
833.0
832.0
831.0
830.0
825.0
826.0
830.0
829.0
829.0
835.0
836.0
835.0
835.0
834.0
836.0
838.0
835.0
834.0
830.0
830.0
831.0
833.0
838.0
837.0
839.0
840.0
837.0
835.0
834.0
832.0
833.0
834.0
838.0
839.0
842.0
846.0
848.0
850.0
852.0
853.0
856.0
852.0
851.0
853.0
856.0
858.0
865.0
870.0
871.0
871.0
874.0
870.0
871.0
868.0
868.0
865.0
866.0
863.0
864.0
865.0
863.0
863.0
859.0
854.0
846.0
840.0
837.0
833.0
835.0
840.0
840.0
843.0
843.0
842.0
842.0
837.0
835.0
832.0
832.0
834.0
836.0
836.0
839.0
837.0
839.0
835.0
835.0
831.0
837.0
837.0
835.0
838.0
837.0
842.0
845.0
849.0
849.0
853.0
856.0
871.0
887.0
908.0
935.0
965.0
993.0
1007.0
1008.0
984.0
945.0
893.0
838.0
785.0
740.0
704.0
693.0
700.0
720.0
743.0
765.0
784.0
794.0
805.0
815.0
829.0
838.0
849.0
852.0
855.0
859.0
856.0
856.0
860.0
860.0
862.0
863.0
865.0
864.0
863.0
863.0
863.0
866.0
869.0
870.0
869.0
873.0
873.0
878.0
874.0
870.0
871.0
872.0
875.0
875.0
876.0
877.0
879.0
882.0
881.0
882.0
882.0
882.0
882.0
881.0
884.0
884.0
886.0
889.0
894.0
893.0
894.0
894.0
893.0
892.0
891.0
894.0
890.0
897.0
900.0
901.0
905.0
907.0
908.0
911.0
912.0
912.0
912.0
914.0
915.0
919.0
924.0
928.0
931.0
934.0
937.0
940.0
940.0
945.0
947.0
950.0
952.0
953.0
958.0
967.0
970.0
974.0
979.0
981.0
981.0
980.0
981.0
980.0
984.0
985.0
991.0
989.0
991.0
990.0
991.0
990.0
983.0
981.0
977.0
973.0
970.0
966.0
965.0
961.0
960.0
955.0
949.0
944.0
937.0
928.0
920.0
914.0
907.0
906.0
902.0
900.0
895.0
894.0
890.0
887.0
881.0
879.0
874.0
871.0
870.0
870.0
873.0
874.0
876.0
875.0
873.0
873.0
865.0
867.0
864.0
865.0
864.0
867.0
866.0
868.0
869.0
869.0
869.0
870.0
867.0
867.0
860.0
863.0
862.0
862.0
865.0
866.0
869.0
869.0
871.0
870.0
869.0
869.0
865.0
864.0
865.0
870.0
867.0
873.0
875.0
873.0
871.0
873.0
867.0
866.0
865.0
863.0
866.0
867.0
869.0
869.0
874.0
874.0
874.0
868.0
868.0
866.0
865.0
859.0
862.0
862.0
864.0
865.0
865.0
868.0
866.0
863.0
862.0
863.0
862.0
855.0
854.0
856.0
860.0
860.0
863.0
862.0
863.0
861.0
858.0
858.0
857.0
854.0
856.0
858.0
858.0
860.0
861.0
860.0
861.0
859.0
856.0
855.0
853.0
854.0
853.0
854.0
856.0
858.0
856.0
858.0
859.0
858.0
857.0
858.0
854.0
853.0
857.0
857.0
859.0
864.0
863.0
863.0
861.0
860.0
859.0
855.0
855.0
855.0
856.0
856.0
859.0
860.0
861.0
862.0
864.0
861.0
858.0
858.0
855.0
855.0
852.0
854.0
860.0
860.0
863.0
860.0
860.0
861.0
861.0
861.0
859.0
859.0
858.0
855.0
856.0
856.0
859.0
859.0
859.0
859.0
859.0
858.0
858.0
856.0
856.0
858.0
862.0
863.0
862.0
864.0
863.0
862.0
860.0
857.0
855.0
854.0
855.0
857.0
859.0
860.0
863.0
865.0
863.0
864.0
862.0
857.0
856.0
857.0
861.0
859.0
858.0
859.0
864.0
865.0
860.0
860.0
859.0
861.0
860.0
859.0
858.0
861.0
860.0
863.0
862.0
864.0
865.0
862.0
862.0
860.0
856.0
854.0
857.0
859.0
860.0
862.0
864.0
866.0
868.0
867.0
863.0
864.0
862.0
859.0
860.0
862.0
861.0
865.0
867.0
867.0
867.0
864.0
866.0
863.0
863.0
863.0
863.0
859.0
864.0
864.0
866.0
867.0
869.0
866.0
861.0
862.0
861.0
863.0
861.0
861.0
866.0
870.0
874.0
875.0
880.0
881.0
880.0
883.0
881.0
876.0
878.0
877.0
883.0
887.0
891.0
894.0
897.0
900.0
898.0
899.0
895.0
893.0
894.0
890.0
887.0
884.0
890.0
889.0
887.0
886.0
879.0
876.0
869.0
866.0
865.0
862.0
866.0
868.0
868.0
869.0
866.0
866.0
862.0
854.0
856.0
856.0
851.0
851.0
852.0
853.0
859.0
861.0
859.0
861.0
860.0
857.0
857.0
854.0
856.0
856.0
858.0
861.0
863.0
866.0
869.0
875.0
889.0
903.0
923.0
947.0
974.0
997.0
1020.0
1020.0
1011.0
985.0
944.0
891.0
840.0
793.0
748.0
720.0
712.0
722.0
747.0
770.0
792.0
810.0
825.0
835.0
844.0
855.0
864.0
867.0
870.0
869.0
871.0
870.0
873.0
871.0
871.0
870.0
871.0
873.0
874.0
874.0
871.0
874.0
878.0
878.0
882.0
881.0
882.0
881.0
880.0
879.0
878.0
877.0
878.0
881.0
882.0
885.0
890.0
889.0
890.0
888.0
885.0
883.0
885.0
884.0
885.0
881.0
886.0
889.0
894.0
895.0
896.0
899.0
898.0
896.0
896.0
894.0
897.0
898.0
899.0
904.0
909.0
912.0
912.0
914.0
913.0
917.0
917.0
920.0
923.0
927.0
933.0
935.0
938.0
943.0
950.0
949.0
948.0
951.0
953.0
956.0
959.0
963.0
971.0
974.0
979.0
984.0
982.0
985.0
985.0
988.0
983.0
985.0
987.0
990.0
991.0
993.0
994.0
995.0
994.0
988.0
987.0
979.0
971.0
964.0
957.0
952.0
948.0
939.0
937.0
931.0
927.0
918.0
910.0
902.0
894.0
887.0
884.0
884.0
881.0
882.0
883.0
879.0
877.0
872.0
870.0
866.0
861.0
860.0
856.0
860.0
861.0
863.0
863.0
865.0
865.0
865.0
863.0
861.0
859.0
857.0
854.0
855.0
859.0
859.0
861.0
860.0
861.0
859.0
860.0
857.0
853.0
854.0
855.0
858.0
857.0
859.0
861.0
862.0
859.0
860.0
863.0
858.0
854.0
855.0
857.0
855.0
857.0
859.0
861.0
860.0
859.0
864.0
863.0
861.0
857.0
855.0
855.0
855.0
855.0
855.0
859.0
857.0
852.0
853.0
851.0
850.0
850.0
847.0
846.0
847.0
846.0
852.0
854.0
854.0
853.0
852.0
850.0
843.0
842.0
841.0
840.0
839.0
842.0
844.0
844.0
850.0
849.0
847.0
848.0
846.0
843.0
840.0
837.0
840.0
844.0
844.0
845.0
847.0
846.0
845.0
843.0
843.0
842.0
840.0
840.0
841.0
842.0
843.0
845.0
848.0
846.0
845.0
842.0
843.0
841.0
840.0
838.0
839.0
840.0
843.0
843.0
846.0
846.0
842.0
842.0
839.0
837.0
835.0
832.0
835.0
838.0
839.0
842.0
844.0
844.0
843.0
844.0
839.0
837.0
839.0
837.0
837.0
839.0
839.0
842.0
845.0
845.0
842.0
843.0
842.0
835.0
836.0
841.0
841.0
846.0
842.0
844.0
845.0
845.0
842.0
841.0
842.0
841.0
839.0
840.0
842.0
841.0
842.0
843.0
846.0
848.0
846.0
843.0
838.0
840.0
839.0
838.0
839.0
842.0
844.0
846.0
844.0
846.0
846.0
843.0
844.0
842.0
842.0
840.0
842.0
842.0
846.0
844.0
846.0
845.0
848.0
846.0
843.0
840.0
839.0
840.0
843.0
843.0
848.0
847.0
847.0
848.0
849.0
847.0
844.0
846.0
843.0
842.0
843.0
844.0
845.0
846.0
845.0
845.0
845.0
849.0
843.0
846.0
843.0
845.0
842.0
845.0
844.0
845.0
851.0
849.0
847.0
846.0
847.0
845.0
848.0
849.0
852.0
854.0
863.0
866.0
867.0
866.0
868.0
865.0
864.0
865.0
868.0
869.0
873.0
876.0
878.0
880.0
883.0
883.0
878.0
875.0
873.0
873.0
871.0
865.0
869.0
868.0
867.0
863.0
859.0
856.0
854.0
850.0
846.0
846.0
845.0
847.0
847.0
847.0
850.0
850.0
846.0
848.0
846.0
841.0
839.0
838.0
840.0
842.0
842.0
845.0
847.0
845.0
849.0
850.0
851.0
851.0
846.0
845.0
845.0
845.0
849.0
853.0
858.0
870.0
881.0
899.0
923.0
946.0
974.0
997.0
1016.0
1013.0
992.0
953.0
905.0
851.0
798.0
752.0
714.0
690.0
689.0
709.0
731.0
756.0
777.0
792.0
808.0
820.0
836.0
847.0
856.0
855.0
859.0
858.0
855.0
858.0
856.0
860.0
864.0
870.0
871.0
874.0
875.0
875.0
875.0
876.0
871.0
870.0
871.0
875.0
875.0
879.0
881.0
877.0
880.0
878.0
877.0
878.0
877.0
877.0
884.0
882.0
886.0
888.0
886.0
888.0
893.0
892.0
892.0
890.0
890.0
890.0
891.0
897.0
898.0
901.0
904.0
906.0
903.0
905.0
904.0
903.0
902.0
904.0
911.0
914.0
916.0
919.0
924.0
925.0
931.0
930.0
929.0
931.0
933.0
932.0
941.0
946.0
950.0
955.0
960.0
964.0
965.0
965.0
968.0
970.0
973.0
974.0
978.0
982.0
986.0
990.0
993.0
995.0
996.0
995.0
991.0
990.0
987.0
988.0
987.0
987.0
987.0
986.0
983.0
979.0
974.0
970.0
963.0
957.0
948.0
943.0
938.0
934.0
929.0
927.0
921.0
917.0
909.0
907.0
900.0
894.0
893.0
887.0
886.0
887.0
884.0
883.0
882.0
881.0
879.0
879.0
877.0
874.0
870.0
872.0
874.0
875.0
877.0
875.0
879.0
882.0
879.0
875.0
873.0
873.0
869.0
870.0
869.0
871.0
872.0
875.0
875.0
873.0
872.0
873.0
871.0
870.0
871.0
872.0
873.0
872.0
875.0
877.0
878.0
875.0
876.0
875.0
874.0
874.0
871.0
870.0
870.0
874.0
875.0
878.0
878.0
876.0
877.0
874.0
871.0
871.0
872.0
869.0
868.0
871.0
870.0
872.0
873.0
873.0
871.0
871.0
870.0
866.0
863.0
866.0
867.0
866.0
864.0
868.0
865.0
867.0
866.0
865.0
862.0
861.0
860.0
860.0
859.0
862.0
862.0
865.0
866.0
868.0
866.0
866.0
862.0
860.0
858.0
858.0
858.0
859.0
860.0
861.0
867.0
868.0
865.0
862.0
861.0
860.0
859.0
857.0
856.0
858.0
860.0
860.0
861.0
861.0
861.0
859.0
858.0
857.0
856.0
857.0
856.0
859.0
860.0
863.0
865.0
862.0
861.0
860.0
857.0
857.0
856.0
855.0
854.0
857.0
860.0
860.0
860.0
860.0
864.0
861.0
857.0
862.0
861.0
863.0
858.0
860.0
861.0
860.0
862.0
864.0
862.0
862.0
856.0
859.0
859.0
857.0
855.0
857.0
857.0
861.0
865.0
863.0
862.0
863.0
861.0
859.0
858.0
857.0
860.0
859.0
861.0
862.0
864.0
862.0
861.0
862.0
861.0
860.0
858.0
854.0
856.0
860.0
860.0
861.0
863.0
865.0
863.0
863.0
861.0
856.0
855.0
857.0
856.0
859.0
863.0
861.0
866.0
863.0
865.0
863.0
863.0
858.0
853.0
853.0
857.0
861.0
860.0
862.0
864.0
863.0
863.0
864.0
863.0
862.0
859.0
860.0
858.0
861.0
862.0
863.0
865.0
867.0
864.0
863.0
861.0
862.0
862.0
859.0
863.0
864.0
864.0
866.0
866.0
869.0
869.0
865.0
867.0
864.0
864.0
863.0
865.0
867.0
870.0
876.0
876.0
880.0
882.0
884.0
885.0
883.0
885.0
883.0
885.0
889.0
895.0
899.0
904.0
904.0
902.0
901.0
896.0
895.0
892.0
890.0
887.0
888.0
888.0
891.0
888.0
885.0
881.0
878.0
869.0
865.0
864.0
861.0
860.0
861.0
862.0
866.0
868.0
869.0
865.0
861.0
859.0
857.0
857.0
855.0
856.0
857.0
859.0
863.0
864.0
863.0
867.0
860.0
860.0
858.0
858.0
858.0
860.0
862.0
864.0
868.0
870.0
875.0
879.0
893.0
908.0
928.0
953.0
973.0
1000.0
1020.0
1031.0
1027.0
1007.0
972.0
926.0
879.0
833.0
789.0
750.0
725.0
716.0
724.0
738.0
762.0
782.0
799.0
814.0
825.0
836.0
848.0
856.0
867.0
872.0
874.0
877.0
878.0
873.0
872.0
874.0
875.0
873.0
874.0
876.0
876.0
879.0
883.0
888.0
889.0
891.0
889.0
890.0
888.0
888.0
886.0
887.0
885.0
886.0
886.0
886.0
891.0
894.0
893.0
895.0
894.0
894.0
891.0
892.0
892.0
895.0
897.0
901.0
901.0
905.0
902.0
904.0
904.0
904.0
904.0
904.0
905.0
905.0
908.0
911.0
908.0
915.0
917.0
916.0
918.0
916.0
922.0
923.0
923.0
927.0
933.0
937.0
942.0
946.0
949.0
951.0
954.0
955.0
958.0
959.0
960.0
962.0
969.0
974.0
981.0
982.0
984.0
986.0
986.0
991.0
991.0
992.0
991.0
993.0
992.0
994.0
1002.0
1007.0
1001.0
1003.0
998.0
991.0
991.0
986.0
980.0
974.0
973.0
970.0
969.0
964.0
959.0
950.0
940.0
936.0
927.0
920.0
912.0
910.0
908.0
905.0
903.0
900.0
897.0
893.0
891.0
884.0
884.0
881.0
877.0
875.0
876.0
875.0
878.0
879.0
878.0
874.0
872.0
872.0
870.0
868.0
868.0
867.0
868.0
869.0
875.0
876.0
873.0
872.0
872.0
870.0
872.0
869.0
865.0
865.0
868.0
868.0
870.0
871.0
873.0
873.0
874.0
873.0
870.0
869.0
868.0
869.0
870.0
871.0
872.0
875.0
872.0
870.0
870.0
869.0
868.0
866.0
868.0
866.0
867.0
864.0
869.0
868.0
866.0
865.0
864.0
862.0
860.0
861.0
859.0
858.0
856.0
859.0
861.0
863.0
863.0
862.0
860.0
859.0
856.0
855.0
852.0
850.0
854.0
855.0
855.0
856.0
858.0
854.0
854.0
852.0
851.0
853.0
851.0
848.0
846.0
852.0
850.0
853.0
852.0
851.0
849.0
848.0
847.0
842.0
842.0
844.0
846.0
848.0
849.0
855.0
851.0
850.0
853.0
849.0
850.0
845.0
847.0
846.0
848.0
848.0
850.0
854.0
853.0
852.0
851.0
846.0
850.0
847.0
846.0
841.0
843.0
845.0
848.0
850.0
850.0
848.0
850.0
848.0
843.0
843.0
839.0
844.0
842.0
845.0
848.0
850.0
849.0
846.0
846.0
844.0
844.0
844.0
841.0
839.0
844.0
844.0
847.0
849.0
849.0
848.0
847.0
849.0
847.0
845.0
841.0
843.0
847.0
847.0
847.0
849.0
848.0
844.0
843.0
844.0
843.0
840.0
841.0
839.0
841.0
845.0
848.0
851.0
851.0
850.0
849.0
847.0
843.0
842.0
841.0
839.0
843.0
842.0
845.0
845.0
846.0
846.0
849.0
848.0
848.0
846.0
841.0
844.0
844.0
847.0
848.0
850.0
847.0
848.0
846.0
844.0
842.0
844.0
841.0
844.0
846.0
848.0
848.0
849.0
848.0
848.0
847.0
843.0
843.0
843.0
838.0
839.0
838.0
842.0
845.0
848.0
850.0
847.0
848.0
847.0
848.0
847.0
853.0
855.0
856.0
860.0
864.0
865.0
866.0
866.0
866.0
865.0
864.0
866.0
871.0
875.0
879.0
883.0
882.0
883.0
882.0
877.0
876.0
867.0
869.0
867.0
864.0
862.0
862.0
864.0
861.0
859.0
851.0
847.0
846.0
845.0
842.0
844.0
843.0
836.0
839.0
840.0
839.0
841.0
837.0
841.0
841.0
839.0
838.0
839.0
836.0
835.0
837.0
840.0
838.0
843.0
845.0
846.0
844.0
844.0
847.0
845.0
843.0
844.0
846.0
859.0
868.0
884.0
901.0
923.0
949.0
974.0
995.0
999.0
984.0
955.0
913.0
864.0
813.0
768.0
726.0
695.0
680.0
679.0
697.0
716.0
738.0
754.0
768.0
780.0
794.0
812.0
826.0
838.0
846.0
847.0
850.0
847.0
843.0
841.0
850.0
851.0
854.0
857.0
860.0
863.0
862.0
862.0
860.0
859.0
858.0
857.0
860.0
861.0
867.0
869.0
869.0
871.0
870.0
870.0
869.0
869.0
869.0
867.0
868.0
871.0
871.0
875.0
877.0
874.0
878.0
877.0
876.0
876.0
876.0
877.0
882.0
883.0
884.0
886.0
891.0
890.0
887.0
892.0
890.0
891.0
893.0
894.0
898.0
902.0
906.0
912.0
915.0
917.0
918.0
919.0
922.0
923.0
926.0
926.0
929.0
933.0
939.0
946.0
952.0
956.0
959.0
959.0
960.0
964.0
964.0
965.0
970.0
975.0
979.0
982.0
982.0
984.0
987.0
984.0
984.0
984.0
981.0
982.0
980.0
978.0
974.0
973.0
969.0
961.0
954.0
947.0
940.0
935.0
926.0
923.0
917.0
913.0
909.0
903.0
897.0
894.0
889.0
884.0
879.0
876.0
871.0
868.0
866.0
870.0
865.0
867.0
865.0
868.0
864.0
863.0
861.0
858.0
859.0
858.0
859.0
859.0
862.0
866.0
865.0
864.0
860.0
859.0
854.0
857.0
857.0
857.0
857.0
859.0
861.0
862.0
863.0
864.0
863.0
862.0
859.0
859.0
859.0
860.0
860.0
862.0
863.0
867.0
866.0
866.0
869.0
866.0
858.0
858.0
860.0
860.0
862.0
860.0
863.0
864.0
865.0
863.0
862.0
862.0
857.0
857.0
858.0
856.0
855.0
854.0
855.0
858.0
856.0
855.0
852.0
851.0
849.0
844.0
843.0
842.0
846.0
848.0
852.0
854.0
854.0
852.0
852.0
851.0
848.0
842.0
844.0
842.0
844.0
845.0
847.0
846.0
847.0
846.0
848.0
845.0
845.0
845.0
842.0
843.0
844.0
843.0
843.0
845.0
842.0
845.0
848.0
846.0
845.0
844.0
843.0
843.0
841.0
844.0
849.0
849.0
850.0
848.0
845.0
846.0
844.0
844.0
843.0
839.0
843.0
844.0
843.0
846.0
849.0
850.0
849.0
847.0
848.0
843.0
842.0
844.0
843.0
845.0
847.0
848.0
848.0
849.0
848.0
847.0
846.0
844.0
843.0
843.0
844.0
847.0
847.0
849.0
847.0
849.0
848.0
846.0
844.0
843.0
841.0
842.0
843.0
845.0
848.0
850.0
851.0
850.0
850.0
845.0
846.0
843.0
841.0
844.0
844.0
843.0
845.0
846.0
851.0
849.0
847.0
848.0
845.0
843.0
843.0
843.0
843.0
845.0
846.0
850.0
851.0
848.0
847.0
847.0
846.0
842.0
841.0
841.0
844.0
846.0
847.0
849.0
850.0
850.0
847.0
846.0
845.0
845.0
844.0
843.0
846.0
849.0
851.0
853.0
851.0
855.0
851.0
851.0
846.0
847.0
844.0
844.0
846.0
849.0
850.0
856.0
856.0
857.0
852.0
857.0
857.0
862.0
864.0
868.0
866.0
870.0
871.0
875.0
877.0
880.0
882.0
882.0
882.0
879.0
881.0
880.0
882.0
880.0
880.0
882.0
881.0
877.0
878.0
873.0
875.0
872.0
868.0
866.0
862.0
861.0
854.0
854.0
854.0
856.0
849.0
847.0
844.0
846.0
844.0
847.0
848.0
849.0
850.0
849.0
851.0
846.0
849.0
847.0
845.0
842.0
839.0
844.0
838.0
844.0
849.0
851.0
853.0
854.0
852.0
856.0
852.0
852.0
853.0
858.0
872.0
889.0
911.0
933.0
959.0
984.0
1005.0
1015.0
1016.0
1002.0
972.0
935.0
889.0
845.0
801.0
761.0
730.0
714.0
713.0
725.0
745.0
764.0
782.0
795.0
808.0
819.0
834.0
846.0
855.0
860.0
861.0
863.0
859.0
856.0
855.0
855.0
858.0
861.0
865.0
865.0
870.0
871.0
872.0
870.0
872.0
872.0
870.0
870.0
874.0
875.0
878.0
878.0
879.0
880.0
880.0
879.0
875.0
876.0
877.0
877.0
881.0
881.0
885.0
889.0
888.0
888.0
887.0
888.0
887.0
888.0
884.0
885.0
886.0
891.0
894.0
895.0
898.0
898.0
903.0
900.0
902.0
902.0
903.0
905.0
908.0
911.0
916.0
915.0
919.0
923.0
925.0
927.0
927.0
929.0
930.0
934.0
939.0
947.0
950.0
956.0
958.0
961.0
964.0
964.0
967.0
967.0
971.0
973.0
975.0
980.0
981.0
989.0
989.0
994.0
991.0
991.0
992.0
992.0
989.0
989.0
989.0
990.0
993.0
989.0
986.0
982.0
975.0
967.0
960.0
953.0
948.0
942.0
937.0
931.0
923.0
923.0
917.0
910.0
906.0
898.0
893.0
885.0
881.0
880.0
880.0
878.0
875.0
879.0
878.0
875.0
873.0
871.0
867.0
868.0
864.0
863.0
864.0
865.0
865.0
868.0
867.0
865.0
867.0
864.0
864.0
862.0
862.0
859.0
860.0
863.0
865.0
868.0
864.0
865.0
867.0
864.0
860.0
858.0
859.0
863.0
862.0
866.0
866.0
869.0
869.0
870.0
868.0
866.0
865.0
862.0
861.0
862.0
862.0
863.0
862.0
866.0
866.0
869.0
867.0
865.0
859.0
862.0
859.0
858.0
855.0
858.0
859.0
858.0
856.0
859.0
858.0
855.0
854.0
853.0
853.0
854.0
853.0
851.0
852.0
855.0
855.0
857.0
853.0
852.0
851.0
847.0
845.0
845.0
846.0
851.0
849.0
852.0
853.0
853.0
850.0
847.0
846.0
843.0
842.0
840.0
841.0
844.0
848.0
848.0
847.0
848.0
845.0
842.0
846.0
843.0
844.0
841.0
843.0
843.0
848.0
848.0
849.0
847.0
846.0
845.0
839.0
841.0
837.0
836.0
836.0
842.0
841.0
844.0
844.0
846.0
847.0
844.0
843.0
841.0
838.0
837.0
842.0
843.0
845.0
845.0
844.0
843.0
846.0
842.0
844.0
843.0
842.0
843.0
843.0
843.0
845.0
847.0
848.0
848.0
845.0
846.0
843.0
838.0
839.0
841.0
842.0
844.0
845.0
847.0
848.0
848.0
848.0
843.0
843.0
842.0
841.0
840.0
843.0
846.0
844.0
846.0
849.0
851.0
850.0
847.0
846.0
844.0
846.0
844.0
843.0
848.0
847.0
847.0
849.0
846.0
847.0
844.0
845.0
839.0
837.0
843.0
844.0
844.0
846.0
850.0
848.0
847.0
846.0
845.0
843.0
841.0
841.0
842.0
842.0
844.0
847.0
849.0
850.0
850.0
851.0
851.0
849.0
847.0
846.0
846.0
846.0
848.0
850.0
852.0
847.0
848.0
848.0
849.0
849.0
847.0
847.0
848.0
849.0
851.0
854.0
857.0
857.0
862.0
862.0
861.0
862.0
864.0
863.0
861.0
866.0
868.0
873.0
879.0
885.0
883.0
886.0
887.0
884.0
881.0
880.0
879.0
876.0
873.0
873.0
873.0
872.0
872.0
870.0
868.0
866.0
859.0
850.0
852.0
850.0
847.0
850.0
852.0
852.0
852.0
851.0
848.0
846.0
840.0
836.0
840.0
840.0
840.0
840.0
846.0
843.0
844.0
842.0
843.0
842.0
840.0
839.0
840.0
841.0
841.0
844.0
849.0
850.0
853.0
852.0
857.0
865.0
875.0
890.0
908.0
931.0
956.0
982.0
1002.0
1011.0
1002.0
975.0
934.0
888.0
837.0
791.0
753.0
719.0
704.0
705.0
717.0
736.0
757.0
776.0
788.0
800.0
809.0
822.0
831.0
841.0
851.0
856.0
858.0
860.0
859.0
860.0
854.0
855.0
855.0
858.0
859.0
861.0
860.0
862.0
866.0
869.0
870.0
871.0
870.0
869.0
869.0
865.0
868.0
868.0
871.0
876.0
879.0
880.0
879.0
879.0
874.0
875.0
870.0
869.0
871.0
872.0
877.0
878.0
883.0
884.0
889.0
887.0
885.0
886.0
882.0
888.0
887.0
886.0
890.0
893.0
896.0
898.0
902.0
903.0
903.0
901.0
903.0
903.0
907.0
911.0
912.0
920.0
923.0
928.0
932.0
932.0
934.0
938.0
941.0
943.0
949.0
952.0
960.0
963.0
969.0
971.0
972.0
974.0
976.0
975.0
978.0
981.0
982.0
984.0
986.0
987.0
990.0
994.0
992.0
988.0
988.0
985.0
976.0
974.0
970.0
964.0
962.0
958.0
954.0
949.0
945.0
937.0
927.0
919.0
911.0
905.0
901.0
899.0
896.0
898.0
893.0
890.0
884.0
880.0
875.0
872.0
864.0
863.0
862.0
862.0
864.0
865.0
866.0
865.0
865.0
862.0
861.0
857.0
851.0
851.0
850.0
852.0
854.0
855.0
858.0
857.0
856.0
854.0
855.0
855.0
852.0
854.0
851.0
854.0
856.0
857.0
856.0
859.0
858.0
856.0
855.0
853.0
852.0
854.0
851.0
849.0
855.0
855.0
857.0
856.0
856.0
855.0
855.0
854.0
850.0
847.0
848.0
851.0
852.0
852.0
854.0
852.0
851.0
850.0
846.0
846.0
847.0
843.0
842.0
844.0
843.0
846.0
847.0
845.0
847.0
847.0
844.0
845.0
839.0
838.0
837.0
837.0
840.0
839.0
840.0
845.0
845.0
844.0
840.0
838.0
833.0
834.0
835.0
833.0
835.0
836.0
835.0
834.0
836.0
836.0
837.0
834.0
830.0
832.0
829.0
831.0
834.0
833.0
836.0
838.0
837.0
836.0
832.0
832.0
830.0
829.0
831.0
836.0
835.0
837.0
838.0
837.0
837.0
837.0
834.0
833.0
834.0
830.0
830.0
832.0
835.0
838.0
838.0
841.0
842.0
842.0
837.0
834.0
834.0
832.0
828.0
829.0
830.0
830.0
836.0
835.0
837.0
835.0
833.0
833.0
830.0
830.0
830.0
832.0
834.0
834.0
836.0
839.0
