# Simple Text Format
# Sampling Rate (Hz):= 360.00
# Resolution:= 12
# Labels:= ECG
922.0
925.0
927.0
929.0
931.0
938.0
943.0
949.0
954.0
956.0
960.0
962.0
964.0
967.0
971.0
973.0
975.0
983.0
986.0
991.0
993.0
992.0
993.0
993.0
991.0
991.0
992.0
989.0
989.0
988.0
987.0
985.0
986.0
984.0
979.0
974.0
966.0
962.0
954.0
948.0
943.0
938.0
933.0
931.0
926.0
922.0
916.0
909.0
904.0
899.0
893.0
891.0
887.0
886.0
883.0
885.0
883.0
882.0
877.0
875.0
871.0
866.0
864.0
864.0
865.0
866.0
868.0
872.0
868.0
870.0
866.0
868.0
864.0
860.0
858.0
860.0
861.0
862.0
865.0
865.0
870.0
867.0
869.0
866.0
864.0
864.0
863.0
864.0
863.0
865.0
866.0
867.0
868.0
869.0
869.0
868.0
866.0
866.0
863.0
864.0
867.0
868.0
870.0
871.0
871.0
871.0
871.0
870.0
866.0
864.0
860.0
860.0
860.0
862.0
863.0
864.0
865.0
864.0
864.0
862.0
860.0
857.0
854.0
851.0
852.0
851.0
856.0
859.0
857.0
856.0
856.0
854.0
854.0
854.0
852.0
851.0
852.0
850.0
853.0
855.0
855.0
854.0
850.0
850.0
848.0
846.0
846.0
845.0
841.0
845.0
847.0
851.0
854.0
854.0
853.0
852.0
850.0
844.0
844.0
843.0
847.0
847.0
848.0
850.0
853.0
850.0
851.0
849.0
847.0
843.0
842.0
844.0
843.0
845.0
847.0
852.0
850.0
850.0
851.0
851.0
848.0
847.0
846.0
846.0
848.0
849.0
850.0
847.0
849.0
851.0
850.0
850.0
849.0
845.0
844.0
841.0
841.0
842.0
847.0
848.0
850.0
851.0
851.0
848.0
848.0
848.0
844.0
842.0
842.0
846.0
847.0
851.0
853.0
849.0
850.0
849.0
849.0
844.0
842.0
844.0
843.0
846.0
846.0
850.0
854.0
852.0
853.0
850.0
849.0
848.0
848.0
848.0
848.0
850.0
850.0
848.0
853.0
854.0
852.0
853.0
851.0
848.0
847.0
847.0
846.0
849.0
852.0
849.0
855.0
854.0
853.0
847.0
849.0
850.0
845.0
845.0
846.0
853.0
852.0
854.0
855.0
855.0
855.0
852.0
849.0
845.0
846.0
845.0
846.0
853.0
854.0
855.0
856.0
857.0
853.0
855.0
855.0
853.0
854.0
857.0
860.0
863.0
865.0
869.0
871.0
871.0
876.0
874.0
878.0
877.0
877.0
884.0
887.0
887.0
889.0
891.0
891.0
890.0
886.0
885.0
880.0
876.0
872.0
872.0
871.0
871.0
866.0
865.0
865.0
862.0
860.0
856.0
853.0
852.0
844.0
847.0
850.0
850.0
853.0
851.0
852.0
846.0
848.0
846.0
846.0
845.0
841.0
843.0
844.0
846.0
848.0
849.0
850.0
849.0
848.0
849.0
850.0
849.0
850.0
851.0
855.0
860.0
867.0
880.0
897.0
918.0
942.0
970.0
994.0
1014.0
1021.0
1010.0
981.0
936.0
883.0
831.0
782.0
738.0
713.0
699.0
709.0
729.0
756.0
777.0
795.0
811.0
823.0
835.0
851.0
859.0
865.0
864.0
861.0
863.0
857.0
858.0
860.0
861.0
870.0
872.0
874.0
873.0
872.0
874.0
873.0
871.0
869.0
871.0
873.0
876.0
877.0
880.0
883.0
883.0
883.0
881.0
881.0
881.0
879.0
881.0
883.0
885.0
889.0
888.0
892.0
892.0
894.0
892.0
886.0
889.0
885.0
887.0
886.0
893.0
895.0
897.0
902.0
901.0
903.0
906.0
906.0
907.0
907.0
910.0
913.0
917.0
920.0
925.0
925.0
932.0
932.0
933.0
937.0
938.0
939.0
943.0
947.0
956.0
959.0
964.0
967.0
971.0
978.0
977.0
980.0
982.0
981.0
984.0
987.0
992.0
992.0
995.0
997.0
998.0
996.0
997.0
992.0
989.0
989.0
986.0
984.0
982.0
979.0
973.0
968.0
962.0
957.0
949.0
941.0
937.0
927.0
923.0
915.0
913.0
909.0
905.0
901.0
896.0
889.0
886.0
883.0
878.0
873.0
870.0
871.0
869.0
869.0
869.0
872.0
871.0
870.0
868.0
864.0
864.0
865.0
861.0
861.0
865.0
865.0
866.0
867.0
866.0
866.0
862.0
862.0
862.0
861.0
862.0
862.0
864.0
865.0
870.0
868.0
868.0
867.0
868.0
867.0
864.0
863.0
862.0
864.0
865.0
867.0
870.0
870.0
872.0
871.0
866.0
867.0
864.0
862.0
863.0
863.0
861.0
862.0
861.0
866.0
867.0
863.0
861.0
858.0
855.0
852.0
856.0
853.0
853.0
854.0
856.0
858.0
855.0
854.0
850.0
850.0
847.0
848.0
849.0
851.0
851.0
850.0
851.0
851.0
853.0
854.0
850.0
847.0
845.0
843.0
844.0
843.0
844.0
847.0
848.0
848.0
852.0
849.0
848.0
845.0
841.0
842.0
841.0
840.0
841.0
843.0
845.0
846.0
847.0
846.0
845.0
843.0
839.0
836.0
836.0
836.0
839.0
841.0
843.0
842.0
845.0
842.0
840.0
841.0
839.0
839.0
836.0
838.0
839.0
842.0
843.0
843.0
843.0
840.0
841.0
837.0
836.0
835.0
835.0
836.0
837.0
839.0
838.0
841.0
841.0
841.0
840.0
841.0
838.0
838.0
837.0
835.0
836.0
840.0
838.0
839.0
844.0
844.0
838.0
838.0
834.0
837.0
836.0
838.0
839.0
839.0
841.0
843.0
845.0
841.0
839.0
838.0
836.0
835.0
836.0
836.0
837.0
838.0
837.0
840.0
838.0
841.0
841.0
839.0
840.0
835.0
833.0
832.0
836.0
840.0
844.0
844.0
842.0
842.0
838.0
841.0
838.0
836.0
837.0
834.0
834.0
836.0
842.0
843.0
842.0
843.0
841.0
840.0
837.0
838.0
835.0
837.0
838.0
841.0
839.0
843.0
845.0
844.0
840.0
837.0
835.0
835.0
836.0
839.0
842.0
848.0
851.0
854.0
856.0
859.0
860.0
858.0
855.0
859.0
861.0
863.0
866.0
873.0
878.0
878.0
874.0
877.0
873.0
869.0
865.0
862.0
857.0
858.0
860.0
858.0
857.0
860.0
853.0
848.0
844.0
840.0
836.0
834.0
834.0
835.0
835.0
836.0
837.0
837.0
838.0
835.0
833.0
828.0
829.0
828.0
828.0
828.0
828.0
831.0
832.0
831.0
831.0
833.0
834.0
833.0
830.0
832.0
832.0
833.0
837.0
838.0
842.0
849.0
860.0
876.0
891.0
911.0
936.0
963.0
981.0
993.0
991.0
970.0
935.0
884.0
831.0
781.0
734.0
694.0
669.0
660.0
667.0
692.0
718.0
739.0
755.0
772.0
786.0
799.0
814.0
826.0
829.0
836.0
836.0
835.0
839.0
836.0
842.0
843.0
844.0
846.0
846.0
847.0
847.0
846.0
847.0
846.0
849.0
852.0
855.0
858.0
857.0
855.0
853.0
854.0
851.0
852.0
854.0
856.0
854.0
856.0
860.0
860.0
862.0
864.0
863.0
861.0
862.0
863.0
865.0
865.0
867.0
867.0
867.0
868.0
873.0
875.0
876.0
872.0
874.0
876.0
877.0
878.0
883.0
885.0
889.0
896.0
895.0
896.0
897.0
903.0
901.0
905.0
904.0
911.0
914.0
916.0
919.0
929.0
929.0
935.0
936.0
940.0
944.0
946.0
948.0
956.0
959.0
962.0
966.0
973.0
974.0
979.0
979.0
975.0
976.0
975.0
976.0
972.0
978.0
978.0
980.0
978.0
977.0
970.0
961.0
959.0
949.0
942.0
934.0
927.0
918.0
916.0
910.0
908.0
902.0
895.0
890.0
885.0
877.0
870.0
863.0
863.0
860.0
857.0
858.0
859.0
858.0
853.0
852.0
849.0
847.0
848.0
844.0
845.0
847.0
847.0
849.0
848.0
848.0
847.0
845.0
844.0
840.0
841.0
838.0
837.0
839.0
842.0
843.0
846.0
845.0
847.0
847.0
845.0
842.0
844.0
841.0
845.0
843.0
846.0
848.0
849.0
846.0
848.0
850.0
845.0
846.0
845.0
845.0
846.0
845.0
845.0
850.0
845.0
842.0
844.0
842.0
841.0
840.0
838.0
839.0
839.0
839.0
841.0
840.0
841.0
842.0
839.0
838.0
834.0
834.0
836.0
834.0
833.0
835.0
837.0
835.0
835.0
839.0
837.0
834.0
835.0
834.0
833.0
831.0
829.0
829.0
827.0
831.0
836.0
834.0
834.0
833.0
829.0
832.0
831.0
831.0
829.0
831.0
833.0
835.0
827.0
829.0
832.0
831.0
828.0
827.0
827.0
826.0
828.0
830.0
831.0
832.0
840.0
837.0
837.0
834.0
833.0
831.0
830.0
830.0
829.0
828.0
830.0
834.0
836.0
834.0
832.0
832.0
832.0
830.0
832.0
833.0
830.0
832.0
832.0
834.0
837.0
835.0
835.0
833.0
831.0
831.0
832.0
830.0
832.0
834.0
835.0
837.0
840.0
839.0
838.0
837.0
836.0
834.0
834.0
832.0
831.0
834.0
833.0
837.0
838.0
839.0
838.0
837.0
833.0
835.0
834.0
834.0
833.0
833.0
835.0
838.0
839.0
838.0
838.0
836.0
836.0
834.0
834.0
832.0
834.0
835.0
839.0
840.0
840.0
841.0
840.0
838.0
837.0
835.0
833.0
833.0
834.0
837.0
835.0
837.0
841.0
843.0
842.0
842.0
841.0
839.0
837.0
837.0
835.0
839.0
839.0
841.0
844.0
843.0
843.0
845.0
840.0
843.0
843.0
844.0
844.0
849.0
850.0
856.0
856.0
860.0
859.0
858.0
859.0
859.0
862.0
862.0
868.0
871.0
877.0
879.0
884.0
881.0
882.0
876.0
872.0
869.0
867.0
864.0
862.0
860.0
861.0
860.0
858.0
855.0
848.0
850.0
848.0
844.0
843.0
843.0
841.0
840.0
841.0
844.0
844.0
843.0
842.0
836.0
835.0
835.0
836.0
831.0
832.0
835.0
840.0
842.0
845.0
844.0
843.0
841.0
840.0
843.0
841.0
840.0
840.0
843.0
848.0
855.0
867.0
881.0
902.0
924.0
951.0
983.0
1008.0
1020.0
1017.0
998.0
960.0
912.0
857.0
805.0
758.0
716.0
696.0
694.0
711.0
732.0
756.0
778.0
794.0
811.0
821.0
830.0
844.0
852.0
855.0
851.0
852.0
850.0
850.0
852.0
858.0
858.0
863.0
865.0
863.0
862.0
865.0
865.0
863.0
863.0
862.0
864.0
865.0
868.0
873.0
873.0
873.0
872.0
873.0
869.0
871.0
870.0
870.0
872.0
875.0
877.0
880.0
879.0
881.0
883.0
881.0
877.0
878.0
881.0
881.0
882.0
890.0
892.0
892.0
891.0
892.0
894.0
896.0
894.0
891.0
894.0
900.0
906.0
910.0
913.0
917.0
919.0
920.0
922.0
924.0
926.0
931.0
930.0
934.0
941.0
944.0
949.0
958.0
956.0
962.0
964.0
967.0
966.0
969.0
971.0
973.0
982.0
985.0
991.0
992.0
994.0
994.0
995.0
994.0
992.0
989.0
990.0
987.0
989.0
985.0
987.0
985.0
978.0
972.0
970.0
962.0
957.0
949.0
941.0
936.0
929.0
925.0
921.0
917.0
911.0
904.0
900.0
894.0
887.0
883.0
878.0
871.0
872.0
871.0
872.0
872.0
867.0
867.0
866.0
863.0
857.0
857.0
853.0
854.0
855.0
858.0
858.0
861.0
858.0
857.0
856.0
854.0
855.0
852.0
853.0
852.0
856.0
855.0
856.0
861.0
859.0
861.0
861.0
859.0
858.0
857.0
855.0
855.0
857.0
859.0
863.0
864.0
863.0
864.0
863.0
860.0
860.0
859.0
857.0
861.0
863.0
864.0
867.0
867.0
866.0
865.0
861.0
864.0
860.0
858.0
855.0
854.0
857.0
859.0
860.0
862.0
860.0
861.0
858.0
855.0
851.0
852.0
850.0
847.0
851.0
850.0
854.0
854.0
854.0
854.0
852.0
851.0
849.0
847.0
847.0
846.0
847.0
849.0
851.0
853.0
850.0
850.0
850.0
846.0
845.0
843.0
841.0
844.0
843.0
846.0
846.0
848.0
847.0
846.0
848.0
846.0
846.0
843.0
839.0
840.0
841.0
844.0
843.0
845.0
846.0
848.0
847.0
845.0
842.0
843.0
838.0
842.0
843.0
845.0
844.0
847.0
844.0
848.0
845.0
844.0
840.0
841.0
840.0
842.0
842.0
844.0
845.0
845.0
847.0
844.0
842.0
844.0
845.0
840.0
839.0
840.0
840.0
842.0
845.0
845.0
850.0
848.0
846.0
845.0
847.0
846.0
842.0
844.0
844.0
846.0
845.0
848.0
845.0
843.0
843.0
843.0
842.0
841.0
842.0
842.0
845.0
847.0
850.0
851.0
847.0
848.0
845.0
845.0
847.0
847.0
845.0
847.0
846.0
846.0
848.0
850.0
849.0
851.0
851.0
849.0
846.0
846.0
845.0
846.0
847.0
848.0
847.0
850.0
847.0
846.0
846.0
846.0
846.0
846.0
844.0
842.0
845.0
845.0
846.0
849.0
850.0
848.0
848.0
846.0
846.0
846.0
840.0
845.0
843.0
848.0
851.0
853.0
853.0
853.0
852.0
854.0
851.0
850.0
846.0
846.0
851.0
848.0
855.0
857.0
859.0
862.0
859.0
862.0
867.0
869.0
867.0
868.0
869.0
871.0
874.0
881.0
883.0
887.0
887.0
887.0
885.0
883.0
880.0
878.0
877.0
877.0
875.0
877.0
877.0
874.0
871.0
869.0
865.0
858.0
854.0
849.0
849.0
850.0
853.0
855.0
852.0
850.0
850.0
845.0
847.0
846.0
845.0
844.0
845.0
844.0
845.0
848.0
847.0
848.0
845.0
849.0
844.0
839.0
837.0
840.0
842.0
842.0
844.0
847.0
848.0
851.0
850.0
850.0
849.0
854.0
863.0
875.0
895.0
923.0
949.0
979.0
1005.0
1020.0
1018.0
1001.0
965.0
918.0
863.0
811.0
768.0
729.0
704.0
699.0
705.0
722.0
741.0
761.0
776.0
788.0
799.0
811.0
826.0
837.0
851.0
859.0
862.0
861.0
856.0
855.0
854.0
854.0
849.0
853.0
857.0
862.0
864.0
867.0
868.0
867.0
867.0
869.0
866.0
869.0
866.0
866.0
870.0
874.0
873.0
873.0
878.0
877.0
872.0
870.0
870.0
872.0
869.0
869.0
870.0
876.0
879.0
882.0
883.0
883.0
885.0
884.0
881.0
883.0
883.0
882.0
886.0
887.0
889.0
892.0
895.0
895.0
897.0
898.0
896.0
898.0
898.0
901.0
902.0
907.0
912.0
911.0
916.0
917.0
922.0
920.0
924.0
927.0
929.0
932.0
940.0
944.0
946.0
956.0
960.0
960.0
960.0
963.0
966.0
966.0
971.0
972.0
977.0
981.0
983.0
987.0
987.0
989.0
990.0
993.0
990.0
991.0
989.0
990.0
991.0
985.0
989.0
986.0
984.0
977.0
972.0
965.0
960.0
953.0
947.0
941.0
935.0
931.0
927.0
923.0
916.0
911.0
903.0
896.0
892.0
884.0
882.0
876.0
872.0
874.0
874.0
874.0
872.0
870.0
865.0
865.0
862.0
860.0
856.0
856.0
858.0
857.0
859.0
860.0
860.0
860.0
858.0
856.0
856.0
853.0
855.0
853.0
856.0
858.0
857.0
862.0
860.0
860.0
860.0
859.0
855.0
853.0
851.0
854.0
855.0
859.0
857.0
856.0
860.0
862.0
861.0
860.0
862.0
857.0
856.0
856.0
858.0
857.0
859.0
859.0
861.0
859.0
858.0
857.0
854.0
855.0
854.0
853.0
855.0
856.0
857.0
856.0
855.0
854.0
849.0
850.0
847.0
847.0
845.0
847.0
846.0
848.0
848.0
850.0
849.0
848.0
845.0
842.0
840.0
839.0
841.0
840.0
838.0
841.0
844.0
846.0
846.0
845.0
843.0
842.0
841.0
841.0
839.0
839.0
841.0
841.0
842.0
841.0
843.0
843.0
842.0
842.0
839.0
838.0
838.0
839.0
841.0
841.0
843.0
843.0
844.0
840.0
840.0
839.0
839.0
836.0
835.0
836.0
838.0
837.0
838.0
841.0
840.0
843.0
844.0
840.0
841.0
841.0
837.0
835.0
836.0
838.0
839.0
842.0
844.0
842.0
839.0
840.0
840.0
838.0
836.0
840.0
839.0
842.0
842.0
844.0
842.0
841.0
839.0
841.0
837.0
835.0
837.0
833.0
839.0
839.0
839.0
844.0
843.0
842.0
841.0
839.0
838.0
835.0
836.0
834.0
834.0
841.0
841.0
842.0
842.0
844.0
839.0
840.0
838.0
840.0
834.0
837.0
838.0
840.0
840.0
841.0
842.0
844.0
841.0
841.0
839.0
838.0
837.0
836.0
838.0
839.0
839.0
844.0
844.0
845.0
843.0
841.0
840.0
836.0
834.0
835.0
835.0
839.0
843.0
844.0
846.0
846.0
842.0
842.0
839.0
837.0
838.0
839.0
843.0
844.0
848.0
851.0
850.0
856.0
857.0
858.0
859.0
858.0
857.0
856.0
858.0
863.0
872.0
878.0
879.0
880.0
879.0
877.0
876.0
869.0
869.0
866.0
863.0
864.0
864.0
866.0
865.0
860.0
856.0
850.0
845.0
842.0
837.0
837.0
839.0
840.0
842.0
843.0
845.0
843.0
842.0
839.0
838.0
834.0
833.0
833.0
835.0
839.0
839.0
838.0
837.0
837.0
839.0
837.0
836.0
833.0
831.0
836.0
840.0
843.0
845.0
847.0
850.0
860.0
871.0
886.0
907.0
931.0
962.0
984.0
1006.0
1006.0
984.0
944.0
889.0
832.0
775.0
725.0
689.0
671.0
678.0
699.0
722.0
749.0
768.0
781.0
794.0
806.0
818.0
829.0
838.0
849.0
850.0
853.0
851.0
853.0
853.0
858.0
857.0
857.0
861.0
862.0
860.0
859.0
861.0
863.0
865.0
867.0
868.0
872.0
874.0
874.0
874.0
868.0
872.0
871.0
872.0
871.0
870.0
877.0
877.0
881.0
883.0
883.0
884.0
880.0
880.0
876.0
876.0
881.0
879.0
883.0
887.0
889.0
893.0
891.0
895.0
893.0
893.0
893.0
893.0
895.0
898.0
901.0
908.0
910.0
910.0
917.0
914.0
915.0
917.0
913.0
918.0
922.0
928.0
934.0
937.0
945.0
948.0
950.0
956.0
960.0
960.0
960.0
963.0
964.0
969.0
974.0
980.0
982.0
985.0
987.0
990.0
989.0
989.0
989.0
992.0
990.0
992.0
994.0
993.0
994.0
992.0
990.0
986.0
981.0
979.0
970.0
967.0
964.0
957.0
952.0
950.0
945.0
942.0
937.0
932.0
923.0
918.0
910.0
905.0
899.0
895.0
892.0
890.0
888.0
887.0
883.0
882.0
879.0
877.0
872.0
871.0
870.0
869.0
870.0
874.0
871.0
871.0
868.0
867.0
867.0
867.0
866.0
866.0
866.0
869.0
868.0
869.0
870.0
873.0
868.0
871.0
871.0
869.0
869.0
865.0
867.0
868.0
866.0
869.0
873.0
873.0
873.0
872.0
874.0
873.0
871.0
870.0
869.0
871.0
871.0
873.0
875.0
875.0
875.0
872.0
870.0
869.0
871.0
869.0
871.0
871.0
872.0
873.0
872.0
873.0
872.0
871.0
868.0
868.0
866.0
865.0
862.0
862.0
864.0
859.0
864.0
868.0
870.0
866.0
864.0
863.0
862.0
860.0
860.0
859.0
861.0
861.0
865.0
861.0
863.0
863.0
861.0
859.0
860.0
858.0
859.0
856.0
859.0
861.0
861.0
859.0
862.0
861.0
860.0
856.0
854.0
854.0
855.0
858.0
860.0
859.0
862.0
864.0
865.0
863.0
860.0
858.0
855.0
853.0
853.0
856.0
859.0
856.0
860.0
860.0
861.0
859.0
860.0
859.0
856.0
854.0
853.0
854.0
856.0
858.0
861.0
861.0
859.0
857.0
856.0
855.0
855.0
854.0
855.0
854.0
857.0
859.0
862.0
862.0
860.0
860.0
860.0
857.0
856.0
856.0
858.0
853.0
857.0
858.0
860.0
861.0
860.0
858.0
859.0
857.0
855.0
857.0
856.0
855.0
857.0
858.0
861.0
860.0
858.0
860.0
855.0
855.0
856.0
856.0
857.0
857.0
859.0
860.0
863.0
861.0
862.0
860.0
856.0
855.0
856.0
855.0
856.0
858.0
859.0
861.0
862.0
864.0
862.0
861.0
861.0
860.0
860.0
858.0
858.0
859.0
859.0
859.0
862.0
860.0
861.0
862.0
861.0
861.0
862.0
858.0
860.0
861.0
862.0
863.0
868.0
868.0
866.0
864.0
864.0
866.0
861.0
863.0
864.0
864.0
871.0
873.0
875.0
883.0
885.0
883.0
881.0
880.0
883.0
882.0
886.0
891.0
895.0
897.0
900.0
902.0
903.0
901.0
893.0
889.0
889.0
886.0
885.0
881.0
884.0
884.0
881.0
879.0
871.0
868.0
867.0
865.0
864.0
862.0
861.0
860.0
864.0
864.0
863.0
865.0
864.0
862.0
858.0
855.0
849.0
848.0
851.0
852.0
856.0
861.0
863.0
863.0
863.0
862.0
862.0
860.0
857.0
856.0
856.0
858.0
859.0
865.0
866.0
869.0
878.0
890.0
903.0
920.0
945.0
972.0
1000.0
1025.0
1035.0
1029.0
1006.0
970.0
918.0
861.0
809.0
759.0
726.0
712.0
717.0
737.0
757.0
779.0
799.0
816.0
831.0
840.0
849.0
860.0
865.0
868.0
873.0
872.0
872.0
871.0
875.0
876.0
877.0
879.0
879.0
881.0
880.0
878.0
880.0
877.0
881.0
883.0
884.0
890.0
889.0
887.0
886.0
887.0
885.0
888.0
888.0
890.0
890.0
891.0
898.0
897.0
897.0
897.0
896.0
894.0
893.0
891.0
892.0
894.0
895.0
898.0
902.0
902.0
902.0
902.0
905.0
904.0
904.0
904.0
904.0
905.0
909.0
911.0
917.0
918.0
921.0
916.0
915.0
919.0
918.0
922.0
922.0
926.0
931.0
936.0
943.0
948.0
951.0
949.0
955.0
956.0
955.0
960.0
964.0
969.0
971.0
977.0
980.0
986.0
987.0
990.0
990.0
992.0
994.0
994.0
998.0
999.0
1000.0
1004.0
1005.0
1007.0
1006.0
1005.0
1003.0
1002.0
997.0
994.0
990.0
990.0
987.0
987.0
983.0
981.0
974.0
968.0
960.0
950.0
946.0
941.0
934.0
925.0
924.0
919.0
915.0
911.0
910.0
905.0
899.0
894.0
889.0
887.0
883.0
883.0
883.0
882.0
884.0
881.0
878.0
878.0
874.0
869.0
871.0
868.0
866.0
870.0
870.0
873.0
870.0
872.0
873.0
874.0
872.0
870.0
869.0
869.0
869.0
868.0
868.0
868.0
870.0
874.0
875.0
873.0
872.0
871.0
872.0
872.0
872.0
875.0
874.0
877.0
878.0
878.0
879.0
879.0
875.0
873.0
874.0
872.0
872.0
871.0
869.0
874.0
877.0
878.0
879.0
877.0
875.0
872.0
871.0
870.0
866.0
867.0
870.0
871.0
875.0
871.0
870.0
871.0
867.0
868.0
866.0
867.0
865.0
865.0
865.0
867.0
869.0
867.0
867.0
863.0
863.0
862.0
859.0
857.0
858.0
859.0
861.0
861.0
864.0
865.0
862.0
863.0
858.0
856.0
856.0
853.0
856.0
856.0
858.0
857.0
858.0
859.0
862.0
862.0
856.0
857.0
858.0
857.0
855.0
854.0
856.0
855.0
856.0
859.0
857.0
857.0
852.0
853.0
851.0
846.0
849.0
850.0
849.0
855.0
858.0
860.0
855.0
855.0
853.0
852.0
850.0
850.0
848.0
850.0
852.0
854.0
853.0
855.0
853.0
850.0
847.0
847.0
844.0
847.0
845.0
848.0
848.0
850.0
851.0
854.0
854.0
853.0
851.0
848.0
847.0
846.0
847.0
846.0
850.0
850.0
850.0
854.0
852.0
849.0
853.0
850.0
849.0
850.0
847.0
849.0
850.0
852.0
852.0
855.0
854.0
853.0
850.0
848.0
847.0
850.0
847.0
851.0
851.0
850.0
853.0
854.0
855.0
853.0
854.0
852.0
849.0
848.0
849.0
846.0
849.0
849.0
854.0
856.0
855.0
854.0
853.0
850.0
848.0
844.0
847.0
849.0
850.0
856.0
855.0
853.0
852.0
852.0
853.0
848.0
850.0
851.0
849.0
850.0
849.0
851.0
856.0
855.0
857.0
858.0
856.0
854.0
849.0
850.0
850.0
850.0
852.0
855.0
857.0
856.0
856.0
857.0
856.0
858.0
858.0
860.0
862.0
864.0
867.0
870.0
872.0
872.0
871.0
875.0
878.0
880.0
882.0
877.0
877.0
879.0
884.0
888.0
886.0
885.0
883.0
877.0
873.0
871.0
868.0
864.0
860.0
857.0
858.0
857.0
855.0
856.0
855.0
854.0
853.0
850.0
848.0
846.0
846.0
844.0
849.0
847.0
849.0
846.0
846.0
845.0
841.0
843.0
839.0
839.0
839.0
841.0
845.0
846.0
847.0
851.0
847.0
849.0
851.0
845.0
847.0
845.0
850.0
859.0
873.0
891.0
915.0
942.0
965.0
992.0
1005.0
1000.0
976.0
934.0
880.0
825.0
775.0
731.0
701.0
684.0
686.0
702.0
726.0
749.0
764.0
783.0
794.0
806.0
824.0
836.0
848.0
859.0
859.0
861.0
859.0
857.0
854.0
856.0
851.0
854.0
859.0
863.0
866.0
869.0
868.0
868.0
867.0
861.0
861.0
863.0
866.0
867.0
869.0
868.0
871.0
874.0
873.0
872.0
869.0
869.0
872.0
872.0
870.0
874.0
876.0
877.0
880.0
879.0
883.0
884.0
882.0
881.0
878.0
879.0
881.0
880.0
881.0
887.0
887.0
888.0
893.0
895.0
896.0
894.0
897.0
899.0
897.0
901.0
906.0
910.0
914.0
916.0
919.0
918.0
921.0
924.0
925.0
927.0
932.0
937.0
943.0
946.0
955.0
958.0
962.0
964.0
967.0
969.0
970.0
971.0
973.0
978.0
981.0
986.0
989.0
990.0
992.0
986.0
993.0
994.0
990.0
989.0
986.0
982.0
989.0
991.0
987.0
987.0
980.0
979.0
973.0
965.0
959.0
952.0
946.0
942.0
936.0
929.0
923.0
918.0
914.0
907.0
901.0
896.0
886.0
883.0
881.0
878.0
877.0
877.0
875.0
877.0
873.0
869.0
869.0
865.0
861.0
856.0
858.0
856.0
856.0
859.0
860.0
861.0
861.0
860.0
860.0
859.0
854.0
858.0
853.0
854.0
853.0
855.0
857.0
857.0
859.0
860.0
858.0
856.0
856.0
854.0
855.0
855.0
858.0
859.0
863.0
862.0
862.0
862.0
858.0
853.0
851.0
850.0
850.0
851.0
856.0
858.0
860.0
865.0
858.0
860.0
858.0
856.0
855.0
856.0
853.0
854.0
853.0
851.0
853.0
854.0
855.0
853.0
852.0
849.0
849.0
847.0
848.0
845.0
844.0
851.0
853.0
851.0
852.0
852.0
850.0
845.0
847.0
843.0
842.0
844.0
845.0
846.0
851.0
851.0
851.0
853.0
850.0
848.0
843.0
841.0
838.0
842.0
843.0
844.0
846.0
845.0
847.0
845.0
843.0
844.0
845.0
841.0
843.0
845.0
844.0
841.0
844.0
847.0
849.0
850.0
847.0
846.0
843.0
840.0
840.0
839.0
842.0
845.0
842.0
845.0
845.0
846.0
845.0
845.0
844.0
843.0
843.0
843.0
845.0
846.0
847.0
851.0
850.0
849.0
845.0
846.0
845.0
846.0
845.0
848.0
846.0
847.0
849.0
851.0
849.0
852.0
849.0
847.0
845.0
843.0
841.0
845.0
848.0
850.0
850.0
849.0
851.0
851.0
849.0
849.0
845.0
847.0
847.0
847.0
849.0
848.0
850.0
854.0
850.0
855.0
853.0
850.0
849.0
849.0
850.0
850.0
853.0
852.0
851.0
855.0
855.0
854.0
851.0
851.0
850.0
850.0
850.0
851.0
851.0
855.0
857.0
859.0
858.0
859.0
857.0
855.0
854.0
854.0
852.0
852.0
853.0
854.0
857.0
862.0
858.0
861.0
857.0
858.0
856.0
855.0
853.0
852.0
854.0
856.0
858.0
860.0
861.0
859.0
859.0
858.0
856.0
857.0
855.0
864.0
866.0
871.0
876.0
879.0
878.0
877.0
876.0
877.0
875.0
881.0
884.0
886.0
892.0
895.0
897.0
897.0
893.0
890.0
885.0
880.0
878.0
875.0
875.0
874.0
874.0
873.0
872.0
868.0
867.0
864.0
862.0
857.0
859.0
854.0
856.0
855.0
855.0
858.0
858.0
854.0
856.0
856.0
851.0
846.0
847.0
848.0
849.0
850.0
851.0
855.0
856.0
858.0
858.0
859.0
857.0
855.0
856.0
858.0
854.0
854.0
859.0
873.0
885.0
903.0
924.0
948.0
978.0
1003.0
1020.0
1024.0
1008.0
975.0
928.0
877.0
819.0
771.0
734.0
714.0
713.0
730.0
749.0
770.0
791.0
810.0
824.0
835.0
849.0
859.0
866.0
870.0
869.0
865.0
864.0
864.0
864.0
866.0
870.0
873.0
875.0
878.0
878.0
877.0
876.0
875.0
877.0
876.0
875.0
877.0
878.0
878.0
880.0
884.0
885.0
882.0
885.0
884.0
884.0
883.0
884.0
883.0
886.0
885.0
886.0
891.0
891.0
891.0
891.0
891.0
887.0
890.0
891.0
893.0
898.0
898.0
899.0
904.0
904.0
906.0
903.0
904.0
906.0
905.0
908.0
907.0
913.0
916.0
921.0
927.0
928.0
931.0
935.0
936.0
939.0
936.0
936.0
942.0
947.0
951.0
957.0
963.0
966.0
972.0
971.0
972.0
974.0
975.0
979.0
980.0
988.0
989.0
994.0
997.0
998.0
998.0
999.0
997.0
997.0
996.0
991.0
990.0
989.0
992.0
993.0
993.0
990.0
987.0
981.0
976.0
969.0
959.0
953.0
947.0
943.0
938.0
935.0
931.0
925.0
918.0
912.0
905.0
902.0
895.0
893.0
888.0
890.0
889.0
887.0
881.0
881.0
882.0
879.0
876.0
873.0
870.0
869.0
869.0
870.0
873.0
872.0
874.0
872.0
874.0
871.0
871.0
871.0
866.0
867.0
866.0
870.0
872.0
874.0
876.0
875.0
874.0
875.0
874.0
875.0
873.0
871.0
871.0
876.0
877.0
875.0
876.0
876.0
876.0
875.0
877.0
874.0
872.0
872.0
870.0
873.0
876.0
880.0
883.0
879.0
880.0
880.0
874.0
872.0
869.0
868.0
869.0
868.0
867.0
872.0
874.0
872.0
871.0
872.0
870.0
867.0
866.0
864.0
865.0
863.0
865.0
866.0
869.0
865.0
865.0
865.0
861.0
861.0
859.0
860.0
861.0
859.0
861.0
865.0
867.0
864.0
862.0
