# Simple Text Format
# Sampling Rate (Hz):= 360.00
# Resolution:= 12
# Labels:= ECG
826.0
825.0
824.0
824.0
822.0
819.0
821.0
821.0
821.0
823.0
824.0
824.0
826.0
825.0
824.0
823.0
822.0
820.0
822.0
821.0
824.0
826.0
828.0
828.0
829.0
827.0
823.0
825.0
823.0
820.0
819.0
824.0
825.0
827.0
829.0
829.0
828.0
829.0
823.0
824.0
825.0
824.0
825.0
825.0
827.0
826.0
828.0
828.0
827.0
828.0
827.0
825.0
827.0
821.0
826.0
826.0
827.0
829.0
829.0
831.0
829.0
830.0
830.0
827.0
828.0
827.0
827.0
827.0
828.0
830.0
832.0
830.0
832.0
833.0
834.0
832.0
833.0
835.0
833.0
837.0
839.0
843.0
841.0
839.0
843.0
842.0
842.0
841.0
840.0
838.0
838.0
838.0
836.0
838.0
842.0
844.0
843.0
843.0
841.0
841.0
839.0
836.0
836.0
836.0
837.0
839.0
835.0
836.0
834.0
833.0
832.0
829.0
829.0
828.0
829.0
831.0
831.0
833.0
835.0
836.0
836.0
837.0
836.0
836.0
835.0
836.0
836.0
844.0
858.0
869.0
890.0
917.0
944.0
971.0
990.0
1007.0
1019.0
1024.0
1028.0
1036.0
1040.0
1040.0
1036.0
1021.0
1010.0
994.0
978.0
962.0
943.0
925.0
908.0
892.0
879.0
869.0
862.0
856.0
847.0
840.0
839.0
837.0
837.0
837.0
837.0
841.0
840.0
841.0
843.0
842.0
842.0
840.0
844.0
842.0
843.0
840.0
843.0
840.0
842.0
843.0
847.0
847.0
845.0
847.0
846.0
845.0
845.0
843.0
845.0
847.0
849.0
847.0
851.0
852.0
853.0
852.0
850.0
848.0
847.0
844.0
844.0
844.0
847.0
847.0
850.0
852.0
855.0
852.0
851.0
853.0
851.0
850.0
850.0
852.0
853.0
853.0
857.0
858.0
856.0
857.0
858.0
855.0
857.0
856.0
856.0
857.0
860.0
863.0
863.0
862.0
866.0
862.0
863.0
861.0
860.0
860.0
862.0
859.0
861.0
864.0
866.0
865.0
864.0
863.0
860.0
860.0
856.0
856.0
855.0
854.0
852.0
853.0
853.0
852.0
848.0
847.0
843.0
844.0
842.0
840.0
839.0
838.0
837.0
837.0
838.0
836.0
833.0
832.0
828.0
826.0
824.0
823.0
823.0
821.0
821.0
823.0
824.0
825.0
824.0
821.0
820.0
816.0
814.0
814.0
815.0
814.0
816.0
817.0
818.0
817.0
815.0
814.0
812.0
815.0
811.0
809.0
810.0
809.0
809.0
809.0
811.0
813.0
811.0
812.0
810.0
807.0
804.0
805.0
804.0
805.0
808.0
809.0
809.0
807.0
806.0
805.0
804.0
801.0
798.0
800.0
800.0
802.0
802.0
802.0
803.0
804.0
803.0
803.0
802.0
801.0
799.0
799.0
801.0
800.0
801.0
803.0
803.0
806.0
805.0
802.0
803.0
801.0
801.0
803.0
803.0
803.0
806.0
803.0
806.0
809.0
808.0
805.0
805.0
803.0
802.0
802.0
803.0
802.0
801.0
801.0
805.0
805.0
808.0
806.0
804.0
805.0
803.0
802.0
804.0
805.0
808.0
807.0
812.0
813.0
812.0
812.0
809.0
808.0
808.0
807.0
808.0
808.0
807.0
809.0
810.0
810.0
813.0
812.0
811.0
813.0
811.0
809.0
809.0
809.0
812.0
814.0
812.0
815.0
815.0
812.0
811.0
810.0
807.0
807.0
807.0
807.0
809.0
811.0
813.0
814.0
815.0
814.0
812.0
811.0
811.0
808.0
809.0
808.0
812.0
812.0
814.0
813.0
813.0
816.0
815.0
814.0
814.0
812.0
815.0
815.0
815.0
818.0
820.0
821.0
822.0
821.0
818.0
817.0
815.0
814.0
816.0
815.0
818.0
820.0
823.0
821.0
822.0
822.0
823.0
827.0
824.0
826.0
830.0
831.0
831.0
829.0
830.0
834.0
834.0
830.0
832.0
831.0
830.0
829.0
829.0
829.0
830.0
831.0
831.0
833.0
831.0
830.0
827.0
829.0
826.0
824.0
820.0
819.0
820.0
817.0
817.0
818.0
816.0
813.0
812.0
811.0
809.0
812.0
813.0
814.0
816.0
813.0
815.0
814.0
814.0
815.0
812.0
816.0
815.0
815.0
815.0
821.0
831.0
846.0
864.0
886.0
914.0
940.0
960.0
976.0
987.0
994.0
1003.0
1009.0
1015.0
1015.0
1006.0
996.0
979.0
961.0
938.0
914.0
889.0
871.0
857.0
845.0
835.0
826.0
816.0
808.0
801.0
797.0
792.0
793.0
793.0
794.0
791.0
790.0
789.0
788.0
791.0
793.0
793.0
792.0
792.0
790.0
789.0
791.0
790.0
785.0
786.0
787.0
788.0
793.0
792.0
791.0
790.0
789.0
784.0
783.0
785.0
791.0
792.0
795.0
797.0
797.0
795.0
795.0
795.0
793.0
789.0
791.0
790.0
792.0
790.0
793.0
793.0
794.0
796.0
799.0
796.0
795.0
794.0
793.0
791.0
794.0
796.0
798.0
799.0
801.0
802.0
802.0
802.0
800.0
799.0
797.0
796.0
796.0
795.0
798.0
799.0
799.0
797.0
798.0
796.0
794.0
793.0
791.0
790.0
789.0
790.0
789.0
792.0
791.0
790.0
785.0
782.0
780.0
779.0
779.0
775.0
774.0
774.0
771.0
769.0
770.0
768.0
766.0
763.0
759.0
755.0
752.0
752.0
748.0
749.0
748.0
750.0
747.0
745.0
745.0
740.0
739.0
738.0
732.0
731.0
729.0
729.0
728.0
729.0
730.0
729.0
727.0
724.0
720.0
720.0
713.0
712.0
714.0
716.0
717.0
719.0
720.0
719.0
715.0
715.0
713.0
711.0
708.0
707.0
707.0
710.0
711.0
713.0
712.0
709.0
706.0
703.0
700.0
700.0
699.0
701.0
699.0
699.0
699.0
700.0
699.0
698.0
698.0
695.0
693.0
693.0
691.0
689.0
691.0
694.0
697.0
697.0
700.0
701.0
700.0
696.0
696.0
690.0
687.0
687.0
686.0
686.0
687.0
691.0
690.0
692.0
691.0
690.0
692.0
691.0
688.0
687.0
684.0
687.0
687.0
692.0
691.0
694.0
690.0
687.0
686.0
684.0
686.0
685.0
685.0
686.0
685.0
688.0
689.0
691.0
691.0
690.0
688.0
682.0
682.0
686.0
688.0
689.0
688.0
690.0
692.0
692.0
692.0
691.0
689.0
687.0
687.0
685.0
685.0
689.0
690.0
694.0
695.0
691.0
692.0
687.0
687.0
687.0
689.0
689.0
693.0
691.0
689.0
690.0
691.0
689.0
688.0
689.0
690.0
690.0
691.0
689.0
690.0
692.0
691.0
690.0
693.0
691.0
691.0
692.0
692.0
688.0
689.0
687.0
687.0
687.0
685.0
689.0
689.0
689.0
686.0
686.0
687.0
687.0
687.0
690.0
691.0
689.0
690.0
693.0
693.0
695.0
693.0
689.0
691.0
693.0
694.0
695.0
695.0
696.0
695.0
696.0
699.0
696.0
693.0
695.0
692.0
691.0
693.0
691.0
690.0
691.0
690.0
689.0
691.0
689.0
686.0
685.0
679.0
681.0
680.0
682.0
685.0
686.0
684.0
683.0
682.0
681.0
678.0
678.0
680.0
679.0
679.0
681.0
684.0
685.0
685.0
688.0
697.0
703.0
716.0
729.0
749.0
766.0
789.0
811.0
828.0
844.0
852.0
858.0
860.0
856.0
846.0
831.0
818.0
804.0
789.0
775.0
761.0
745.0
731.0
716.0
704.0
696.0
687.0
682.0
678.0
680.0
679.0
678.0
678.0
681.0
683.0
687.0
688.0
690.0
687.0
686.0
683.0
682.0
682.0
684.0
684.0
684.0
686.0
687.0
690.0
691.0
690.0
690.0
687.0
684.0
687.0
687.0
690.0
694.0
694.0
694.0
692.0
691.0
692.0
694.0
694.0
692.0
690.0
689.0
694.0
696.0
697.0
698.0
699.0
698.0
699.0
698.0
696.0
696.0
694.0
694.0
697.0
699.0
703.0
705.0
707.0
706.0
705.0
703.0
703.0
700.0
701.0
702.0
705.0
705.0
708.0
710.0
712.0
712.0
711.0
710.0
708.0
709.0
709.0
709.0
709.0
712.0
714.0
715.0
717.0
718.0
714.0
710.0
709.0
708.0
709.0
712.0
711.0
714.0
711.0
710.0
708.0
707.0
709.0
708.0
706.0
704.0
701.0
699.0
699.0
700.0
698.0
701.0
701.0
698.0
696.0
692.0
689.0
688.0
687.0
689.0
689.0
689.0
693.0
693.0
694.0
693.0
691.0
692.0
690.0
693.0
693.0
691.0
691.0
692.0
691.0
692.0
695.0
694.0
691.0
690.0
689.0
690.0
687.0
689.0
692.0
693.0
697.0
700.0
698.0
698.0
701.0
699.0
697.0
693.0
694.0
692.0
690.0
692.0
695.0
697.0
700.0
701.0
702.0
703.0
701.0
701.0
697.0
700.0
700.0
701.0
701.0
704.0
708.0
707.0
709.0
706.0
704.0
701.0
698.0
702.0
702.0
706.0
707.0
708.0
708.0
707.0
706.0
705.0
706.0
707.0
709.0
710.0
711.0
712.0
711.0
712.0
713.0
714.0
713.0
712.0
711.0
709.0
712.0
711.0
712.0
713.0
714.0
718.0
719.0
719.0
719.0
717.0
717.0
717.0
712.0
717.0
717.0
717.0
719.0
723.0
725.0
724.0
722.0
721.0
716.0
717.0
717.0
715.0
715.0
717.0
719.0
721.0
723.0
724.0
725.0
727.0
726.0
721.0
722.0
719.0
719.0
719.0
724.0
727.0
725.0
727.0
728.0
725.0
723.0
723.0
721.0
723.0
725.0
725.0
727.0
727.0
728.0
727.0
727.0
727.0
726.0
727.0
724.0
726.0
727.0
729.0
731.0
734.0
736.0
736.0
733.0
734.0
732.0
730.0
729.0
727.0
728.0
729.0
732.0
735.0
739.0
739.0
737.0
738.0
738.0
741.0
741.0
743.0
747.0
746.0
747.0
747.0
749.0
752.0
753.0
753.0
751.0
748.0
748.0
747.0
745.0
747.0
748.0
755.0
758.0
758.0
756.0
755.0
752.0
752.0
748.0
751.0
749.0
751.0
750.0
747.0
750.0
750.0
748.0
747.0
746.0
743.0
743.0
745.0
748.0
750.0
752.0
756.0
756.0
752.0
754.0
753.0
754.0
755.0
758.0
764.0
771.0
778.0
787.0
802.0
821.0
837.0
855.0
871.0
887.0
897.0
904.0
910.0
913.0
916.0
921.0
926.0
920.0
910.0
899.0
885.0
868.0
849.0
832.0
815.0
801.0
786.0
779.0
774.0
772.0
770.0
768.0
768.0
768.0
768.0
767.0
766.0
766.0
768.0
771.0
772.0
775.0
774.0
773.0
772.0
772.0
770.0
769.0
771.0
773.0
774.0
775.0
777.0
777.0
778.0
779.0
779.0
778.0
780.0
779.0
780.0
780.0
780.0
783.0
784.0
785.0
785.0
786.0
786.0
785.0
785.0
787.0
787.0
788.0
791.0
790.0
792.0
793.0
790.0
791.0
790.0
792.0
792.0
791.0
789.0
792.0
794.0
796.0
799.0
802.0
802.0
801.0
802.0
802.0
799.0
798.0
798.0
799.0
801.0
803.0
807.0
810.0
810.0
807.0
812.0
810.0
810.0
808.0
811.0
810.0
810.0
810.0
814.0
815.0
813.0
815.0
814.0
810.0
811.0
807.0
807.0
808.0
810.0
812.0
812.0
813.0
811.0
810.0
809.0
805.0
802.0
803.0
800.0
798.0
799.0
798.0
798.0
799.0
797.0
799.0
799.0
798.0
795.0
791.0
789.0
787.0
790.0
790.0
792.0
793.0
793.0
793.0
792.0
793.0
791.0
790.0
791.0
789.0
792.0
793.0
794.0
796.0
791.0
795.0
791.0
793.0
791.0
790.0
790.0
792.0
792.0
792.0
791.0
792.0
792.0
790.0
791.0
788.0
788.0
789.0
789.0
788.0
787.0
787.0
789.0
792.0
794.0
792.0
793.0
789.0
785.0
784.0
783.0
783.0
787.0
788.0
792.0
792.0
794.0
794.0
792.0
792.0
788.0
784.0
784.0
787.0
785.0
794.0
795.0
797.0
798.0
797.0
796.0
792.0
790.0
787.0
790.0
791.0
794.0
795.0
796.0
796.0
796.0
795.0
795.0
795.0
794.0
795.0
792.0
794.0
792.0
792.0
794.0
796.0
799.0
799.0
799.0
798.0
797.0
795.0
795.0
795.0
794.0
794.0
794.0
798.0
801.0
801.0
804.0
802.0
801.0
802.0
798.0
799.0
799.0
800.0
801.0
804.0
802.0
800.0
801.0
802.0
803.0
802.0
804.0
803.0
801.0
802.0
805.0
806.0
804.0
805.0
802.0
801.0
799.0
799.0
800.0
802.0
803.0
805.0
805.0
807.0
810.0
810.0
810.0
808.0
805.0
804.0
801.0
802.0
803.0
806.0
807.0
810.0
812.0
811.0
812.0
809.0
808.0
808.0
806.0
808.0
808.0
812.0
814.0
816.0
814.0
810.0
812.0
810.0
811.0
814.0
816.0
814.0
816.0
817.0
817.0
817.0
819.0
823.0
823.0
827.0
829.0
828.0
826.0
827.0
825.0
828.0
831.0
834.0
835.0
832.0
832.0
831.0
832.0
830.0
831.0
828.0
830.0
834.0
833.0
831.0
834.0
833.0
833.0
831.0
829.0
829.0
827.0
826.0
826.0
826.0
827.0
828.0
828.0
831.0
829.0
828.0
825.0
826.0
829.0
830.0
832.0
834.0
836.0
839.0
840.0
842.0
847.0
854.0
863.0
878.0
895.0
910.0
932.0
953.0
973.0
992.0
1002.0
1005.0
1010.0
1014.0
1015.0
1016.0
1006.0
995.0
984.0
971.0
954.0
944.0
924.0
907.0
891.0
877.0
861.0
851.0
844.0
841.0
840.0
842.0
846.0
850.0
851.0
849.0
852.0
850.0
848.0
848.0
847.0
845.0
848.0
848.0
850.0
854.0
856.0
857.0
857.0
857.0
856.0
855.0
853.0
854.0
856.0
858.0
857.0
859.0
861.0
864.0
864.0
862.0
860.0
857.0
856.0
856.0
859.0
865.0
869.0
871.0
871.0
871.0
867.0
864.0
861.0
862.0
865.0
866.0
869.0
870.0
872.0
876.0
876.0
879.0
878.0
876.0
876.0
875.0
873.0
876.0
876.0
880.0
879.0
881.0
880.0
881.0
881.0
881.0
884.0
883.0
883.0
885.0
885.0
886.0
884.0
889.0
889.0
891.0
887.0
887.0
886.0
887.0
883.0
882.0
880.0
886.0
883.0
887.0
888.0
885.0
882.0
879.0
881.0
880.0
877.0
875.0
875.0
875.0
873.0
875.0
875.0
874.0
873.0
870.0
867.0
864.0
863.0
863.0
863.0
864.0
865.0
867.0
867.0
867.0
867.0
867.0
867.0
865.0
862.0
860.0
861.0
863.0
865.0
868.0
869.0
867.0
865.0
863.0
862.0
860.0
863.0
864.0
866.0
863.0
862.0
867.0
866.0
865.0
865.0
865.0
864.0
864.0
862.0
860.0
861.0
861.0
862.0
864.0
861.0
863.0
861.0
861.0
862.0
861.0
856.0
860.0
862.0
860.0
861.0
863.0
862.0
865.0
864.0
860.0
861.0
862.0
862.0
863.0
861.0
864.0
864.0
865.0
866.0
869.0
868.0
866.0
864.0
862.0
861.0
862.0
863.0
864.0
865.0
867.0
869.0
871.0
868.0
865.0
864.0
866.0
864.0
865.0
865.0
867.0
867.0
870.0
870.0
870.0
869.0
868.0
867.0
868.0
868.0
867.0
868.0
873.0
872.0
875.0
873.0
871.0
871.0
871.0
871.0
868.0
871.0
870.0
873.0
872.0
871.0
873.0
875.0
875.0
874.0
873.0
872.0
870.0
871.0
871.0
873.0
873.0
874.0
876.0
878.0
876.0
878.0
875.0
875.0
871.0
870.0
867.0
870.0
874.0
874.0
878.0
880.0
881.0
880.0
881.0
882.0
878.0
877.0
880.0
881.0
881.0
883.0
885.0
884.0
883.0
882.0
880.0
880.0
880.0
885.0
889.0
892.0
894.0
891.0
890.0
891.0
892.0
892.0
892.0
895.0
896.0
896.0
899.0
901.0
906.0
908.0
911.0
910.0
910.0
908.0
910.0
909.0
913.0
911.0
913.0
914.0
917.0
916.0
917.0
919.0
921.0
926.0
925.0
925.0
923.0
922.0
920.0
921.0
918.0
917.0
921.0
921.0
921.0
924.0
920.0
918.0
918.0
918.0
919.0
920.0
922.0
924.0
929.0
932.0
932.0
932.0
932.0
931.0
932.0
933.0
940.0
944.0
949.0
957.0
968.0
983.0
1002.0
1021.0
1043.0
1063.0
1081.0
1097.0
1108.0
1115.0
1121.0
1128.0
1135.0
1142.0
1140.0
1136.0
1125.0
1116.0
1101.0
1085.0
1069.0
1051.0
1036.0
1020.0
1003.0
990.0
980.0
969.0
963.0
958.0
960.0
959.0
961.0
961.0
965.0
968.0
969.0
967.0
969.0
969.0
969.0
967.0
966.0
966.0
967.0
966.0
971.0
970.0
975.0
973.0
977.0
974.0
972.0
971.0
974.0
973.0
976.0
977.0
979.0
981.0
982.0
984.0
982.0
983.0
981.0
979.0
980.0
982.0
983.0
984.0
988.0
988.0
990.0
989.0
989.0
988.0
989.0
989.0
986.0
986.0
987.0
987.0
991.0
992.0
994.0
995.0
994.0
994.0
994.0
995.0
996.0
995.0
995.0
997.0
1000.0
1003.0
1002.0
1003.0
1001.0
1004.0
1002.0
1003.0
1001.0
1005.0
1004.0
1005.0
1007.0
1006.0
1006.0
1009.0
1009.0
1011.0
1007.0
1005.0
1005.0
1004.0
1007.0
1007.0
1008.0
1008.0
1009.0
1009.0
1006.0
1006.0
1004.0
1001.0
999.0
997.0
995.0
994.0
996.0
995.0
994.0
996.0
994.0
990.0
990.0
988.0
988.0
987.0
986.0
987.0
987.0
987.0
989.0
989.0
988.0
989.0
987.0
986.0
984.0
985.0
986.0
985.0
986.0
984.0
988.0
988.0
987.0
987.0
987.0
985.0
982.0
981.0
982.0
981.0
985.0
985.0
988.0
988.0
989.0
986.0
983.0
979.0
977.0
978.0
978.0
979.0
980.0
980.0
980.0
980.0
980.0
979.0
977.0
978.0
976.0
977.0
978.0
979.0
980.0
980.0
981.0
982.0
980.0
982.0
981.0
981.0
980.0
984.0
983.0
984.0
982.0
985.0
988.0
987.0
991.0
990.0
990.0
990.0
986.0
987.0
988.0
988.0
990.0
992.0
994.0
994.0
995.0
995.0
992.0
992.0
989.0
989.0
989.0
991.0
993.0
994.0
995.0
997.0
996.0
995.0
993.0
994.0
992.0
993.0
992.0
994.0
994.0
996.0
998.0
997.0
997.0
999.0
998.0
995.0
996.0
995.0
994.0
994.0
993.0
995.0
999.0
1000.0
998.0
999.0
996.0
995.0
993.0
993.0
991.0
991.0
992.0
994.0
1000.0
1000.0
1002.0
1001.0
999.0
999.0
996.0
995.0
994.0
996.0
997.0
998.0
1001.0
1002.0
1002.0
1000.0
999.0
994.0
998.0
997.0
996.0
999.0
999.0
999.0
1000.0
1002.0
1003.0
1003.0
1000.0
999.0
998.0
997.0
997.0
999.0
1002.0
1001.0
1003.0
1003.0
1002.0
1000.0
1000.0
1004.0
1004.0
1008.0
1010.0
1009.0
1013.0
1013.0
1013.0
1014.0
1012.0
1010.0
1010.0
1008.0
1009.0
1008.0
1008.0
1008.0
1010.0
1011.0
1012.0
1014.0
1014.0
1012.0
1011.0
1009.0
1005.0
1004.0
1003.0
1003.0
1002.0
1001.0
999.0
1002.0
1001.0
1002.0
999.0
997.0
995.0
996.0
994.0
992.0
996.0
998.0
1000.0
998.0
1003.0
1003.0
1002.0
1003.0
1003.0
1005.0
1007.0
1013.0
1027.0
1043.0
1061.0
1083.0
1100.0
1123.0
1137.0
1147.0
1153.0
1160.0
1167.0
1177.0
1185.0
1190.0
1187.0
1177.0
1163.0
1149.0
1135.0
1117.0
1099.0
1081.0
1063.0
1048.0
1038.0
1030.0
1022.0
1015.0
1008.0
1001.0
1001.0
1001.0
1000.0
1001.0
1001.0
1001.0
1002.0
1001.0
1004.0
1003.0
1004.0
1004.0
1004.0
1004.0
1003.0
1002.0
1002.0
1001.0
1004.0
1004.0
1008.0
1008.0
1009.0
1009.0
1008.0
1004.0
1003.0
1004.0
1004.0
1004.0
1005.0
1009.0
1008.0
1009.0
1008.0
1009.0
1012.0
1012.0
1009.0
1007.0
1007.0
1010.0
1011.0
1012.0
1014.0
1016.0
1014.0
1014.0
1013.0
1011.0
1012.0
1011.0
1011.0
1012.0
1011.0
1014.0
1017.0
1016.0
1018.0
1018.0
1016.0
1016.0
1016.0
1012.0
1013.0
1016.0
1014.0
1018.0
1022.0
1020.0
1021.0
1021.0
1019.0
1017.0
1016.0
1016.0
1017.0
1017.0
1019.0
1018.0
1021.0
1017.0
1019.0
1019.0
1018.0
1017.0
1015.0
1017.0
1014.0
1017.0
1014.0
1014.0
1014.0
1016.0
1013.0
1014.0
1011.0
1010.0
1006.0
1003.0
1002.0
1003.0
1001.0
1001.0
1002.0
1001.0
1001.0
999.0
997.0
996.0
990.0
988.0
987.0
986.0
989.0
989.0
989.0
990.0
989.0
985.0
986.0
983.0
980.0
977.0
977.0
976.0
977.0
976.0
979.0
975.0
978.0
976.0
973.0
974.0
971.0
967.0
968.0
965.0
964.0
971.0
971.0
972.0
968.0
967.0
967.0
962.0
963.0
961.0
960.0
961.0
959.0
960.0
961.0
959.0
958.0
959.0
957.0
955.0
956.0
953.0
953.0
953.0
954.0
955.0
954.0
954.0
956.0
956.0
953.0
952.0
952.0
950.0
951.0
948.0
952.0
950.0
953.0
954.0
954.0
950.0
952.0
953.0
952.0
950.0
951.0
951.0
952.0
954.0
955.0
958.0
957.0
957.0
955.0
953.0
949.0
948.0
948.0
948.0
950.0
952.0
953.0
952.0
953.0
951.0
952.0
951.0
948.0
947.0
946.0
945.0
947.0
949.0
949.0
948.0
949.0
950.0
949.0
948.0
946.0
946.0
944.0
945.0
946.0
947.0
949.0
952.0
950.0
950.0
950.0
949.0
946.0
944.0
942.0
946.0
947.0
949.0
949.0
951.0
950.0
950.0
948.0
948.0
943.0
943.0
943.0
944.0
946.0
946.0
949.0
948.0
947.0
946.0
946.0
942.0
944.0
943.0
943.0
944.0
943.0
946.0
945.0
948.0
948.0
946.0
945.0
944.0
943.0
942.0
942.0
944.0
943.0
947.0
948.0
947.0
947.0
946.0
945.0
945.0
941.0
941.0
942.0
945.0
947.0
951.0
955.0
955.0
958.0
958.0
956.0
951.0
953.0
952.0
952.0
953.0
954.0
954.0
955.0
954.0
956.0
956.0
955.0
956.0
954.0
950.0
951.0
951.0
948.0
951.0
950.0
949.0
949.0
946.0
945.0
941.0
941.0
937.0
936.0
937.0
936.0
940.0
941.0
942.0
942.0
943.0
944.0
941.0
939.0
941.0
941.0
941.0
945.0
950.0
956.0
961.0
974.0
990.0
1010.0
1029.0
1047.0
1060.0
1074.0
1080.0
1088.0
1097.0
1108.0
1120.0
1124.0
1124.0
1114.0
1100.0
1084.0
1066.0
1049.0
1029.0
1014.0
999.0
987.0
979.0
972.0
965.0
956.0
950.0
946.0
941.0
940.0
943.0
944.0
947.0
948.0
949.0
949.0
946.0
947.0
946.0
946.0
946.0
945.0
946.0
945.0
947.0
948.0
946.0
951.0
950.0
949.0
949.0
948.0
946.0
947.0
947.0
950.0
952.0
951.0
954.0
953.0
953.0
954.0
951.0
950.0
949.0
950.0
950.0
952.0
953.0
955.0
955.0
956.0
955.0
954.0
953.0
951.0
951.0
950.0
951.0
951.0
952.0
956.0
957.0
957.0
956.0
955.0
955.0
954.0
954.0
953.0
955.0
956.0
956.0
959.0
959.0
960.0
961.0
960.0
960.0
957.0
958.0
957.0
957.0
959.0
963.0
963.0
963.0
963.0
962.0
961.0
958.0
957.0
954.0
955.0
954.0
955.0
957.0
955.0
955.0
954.0
951.0
949.0
946.0
946.0
945.0
943.0
940.0
940.0
937.0
938.0
940.0
938.0
937.0
933.0
930.0
926.0
925.0
922.0
923.0
924.0
922.0
923.0
923.0
923.0
920.0
918.0
915.0
913.0
910.0
911.0
912.0
912.0
913.0
912.0
913.0
909.0
909.0
908.0
906.0
901.0
900.0
899.0
900.0
901.0
903.0
904.0
906.0
905.0
903.0
900.0
898.0
898.0
896.0
895.0
895.0
896.0
898.0
897.0
896.0
897.0
895.0
892.0
890.0
888.0
887.0
887.0
889.0
890.0
891.0
894.0
895.0
895.0
896.0
895.0
891.0
891.0
891.0
888.0
890.0
891.0
891.0
896.0
896.0
896.0
896.0
895.0
894.0
892.0
892.0
891.0
893.0
893.0
896.0
897.0
897.0
896.0
897.0
893.0
891.0
893.0
892.0
892.0
893.0
893.0
894.0
895.0
897.0
896.0
898.0
897.0
894.0
894.0
895.0
891.0
894.0
895.0
896.0
897.0
897.0
897.0
896.0
896.0
896.0
893.0
894.0
892.0
893.0
892.0
895.0
896.0
897.0
899.0
897.0
895.0
894.0
892.0
893.0
894.0
893.0
893.0
896.0
898.0
897.0
898.0
896.0
895.0
894.0
891.0
891.0
893.0
891.0
892.0
893.0
893.0
894.0
895.0
893.0
892.0
893.0
892.0
892.0
890.0
892.0
893.0
892.0
894.0
896.0
895.0
898.0
897.0
896.0
894.0
893.0
891.0
894.0
894.0
895.0
895.0
897.0
898.0
898.0
896.0
893.0
892.0
893.0
894.0
894.0
900.0
901.0
905.0
907.0
911.0
910.0
908.0
906.0
903.0
903.0
904.0
904.0
904.0
905.0
905.0
906.0
906.0
905.0
904.0
903.0
904.0
901.0
901.0
901.0
900.0
898.0
899.0
899.0
898.0
895.0
891.0
888.0
887.0
885.0
883.0
884.0
887.0
887.0
889.0
890.0
890.0
888.0
887.0
888.0
886.0
889.0
887.0
889.0
891.0
892.0
898.0
904.0
915.0
927.0
942.0
962.0
979.0
994.0
1009.0
1018.0
1024.0
1029.0
1036.0
1047.0
1054.0
1055.0
1049.0
1036.0
1023.0
1005.0
988.0
970.0
952.0
939.0
927.0
921.0
915.0
909.0
899.0
895.0
888.0
886.0
884.0
884.0
883.0
884.0
892.0
895.0
890.0
890.0
889.0
888.0
888.0
887.0
886.0
888.0
888.0
891.0
893.0
897.0
895.0
894.0
893.0
891.0
891.0
892.0
890.0
890.0
893.0
893.0
894.0
896.0
896.0
896.0
894.0
894.0
894.0
896.0
893.0
893.0
894.0
895.0
897.0
898.0
898.0
899.0
897.0
892.0
893.0
896.0
895.0
895.0
897.0
898.0
896.0
900.0
897.0
897.0
897.0
896.0
895.0
897.0
897.0
896.0
896.0
899.0
899.0
902.0
903.0
903.0
901.0
900.0
900.0
901.0
901.0
902.0
903.0
905.0
906.0
905.0
907.0
906.0
906.0
904.0
902.0
900.0
898.0
899.0
902.0
901.0
899.0
902.0
898.0
899.0
895.0
896.0
891.0
889.0
887.0
884.0
887.0
883.0
883.0
881.0
880.0
879.0
877.0
872.0
872.0
870.0
868.0
867.0
867.0
867.0
867.0
868.0
866.0
864.0
861.0
861.0
860.0
858.0
855.0
856.0
854.0
853.0
854.0
856.0
855.0
854.0
854.0
852.0
851.0
849.0
848.0
846.0
850.0
851.0
849.0
853.0
851.0
851.0
848.0
847.0
846.0
843.0
842.0
841.0
842.0
843.0
845.0
845.0
844.0
843.0
842.0
843.0
843.0
840.0
839.0
840.0
842.0
844.0
848.0
845.0
847.0
846.0
846.0
843.0
841.0
844.0
841.0
842.0
845.0
847.0
847.0
850.0
850.0
849.0
848.0
843.0
842.0
845.0
843.0
844.0
847.0
848.0
850.0
853.0
853.0
852.0
852.0
850.0
849.0
849.0
846.0
847.0
849.0
851.0
852.0
852.0
852.0
853.0
853.0
851.0
849.0
849.0
846.0
846.0
849.0
852.0
852.0
855.0
856.0
854.0
854.0
852.0
849.0
850.0
849.0
850.0
849.0
854.0
855.0
856.0
854.0
853.0
853.0
849.0
848.0
850.0
850.0
849.0
851.0
851.0
851.0
850.0
854.0
855.0
854.0
851.0
852.0
851.0
850.0
849.0
851.0
853.0
854.0
854.0
856.0
852.0
854.0
851.0
853.0
852.0
853.0
851.0
850.0
851.0
854.0
854.0
856.0
854.0
855.0
851.0
853.0
852.0
852.0
852.0
853.0
853.0
854.0
857.0
857.0
859.0
856.0
855.0
855.0
856.0
856.0
857.0
858.0
865.0
864.0
868.0
868.0
866.0
867.0
865.0
865.0
864.0
863.0
864.0
866.0
867.0
866.0
869.0
868.0
868.0
865.0
865.0
865.0
864.0
864.0
861.0
860.0
863.0
862.0
865.0
861.0
858.0
855.0
851.0
852.0
852.0
851.0
851.0
853.0
855.0
854.0
855.0
856.0
853.0
853.0
855.0
855.0
857.0
856.0
858.0
859.0
863.0
869.0
877.0
885.0
901.0
918.0
938.0
960.0
979.0
995.0
1007.0
1017.0
1024.0
1031.0
1035.0
1038.0
1037.0
1030.0
1018.0
1008.0
993.0
975.0
958.0
943.0
929.0
915.0
908.0
898.0
887.0
879.0
873.0
865.0
860.0
859.0
859.0
861.0
862.0
865.0
868.0
867.0
867.0
865.0
865.0
864.0
863.0
862.0
862.0
865.0
865.0
868.0
869.0
871.0
870.0
870.0
867.0
867.0
868.0
867.0
868.0
866.0
869.0
869.0
871.0
871.0
871.0
873.0
871.0
868.0
869.0
866.0
869.0
870.0
872.0
872.0
872.0
874.0
874.0
873.0
872.0
871.0
869.0
868.0
871.0
869.0
873.0
872.0
878.0
876.0
877.0
878.0
872.0
874.0
873.0
873.0
873.0
877.0
876.0
879.0
880.0
882.0
882.0
881.0
878.0
880.0
879.0
878.0
877.0
879.0
881.0
883.0
883.0
883.0
884.0
883.0
881.0
880.0
877.0
878.0
878.0
879.0
876.0
879.0
878.0
877.0
877.0
872.0
868.0
869.0
867.0
865.0
862.0
864.0
863.0
863.0
862.0
858.0
856.0
854.0
850.0
846.0
845.0
846.0
844.0
843.0
844.0
841.0
843.0
843.0
841.0
839.0
836.0
834.0
832.0
832.0
831.0
833.0
834.0
835.0
837.0
835.0
834.0
833.0
830.0
828.0
827.0
827.0
827.0
829.0
830.0
830.0
832.0
832.0
830.0
829.0
830.0
827.0
826.0
827.0
825.0
827.0
828.0
829.0
833.0
832.0
832.0
830.0
829.0
826.0
826.0
827.0
827.0
827.0
827.0
830.0
832.0
830.0
827.0
829.0
824.0
825.0
828.0
827.0
825.0
829.0
828.0
831.0
832.0
832.0
832.0
832.0
830.0
829.0
829.0
827.0
824.0
827.0
831.0
833.0
834.0
834.0
834.0
834.0
831.0
831.0
829.0
827.0
828.0
827.0
831.0
832.0
