# Simple Text Format
# Sampling Rate (Hz):= 360.00
# Resolution:= 12
# Labels:= ECG
860.0
861.0
860.0
863.0
864.0
863.0
861.0
859.0
859.0
859.0
859.0
862.0
863.0
865.0
866.0
868.0
869.0
867.0
866.0
864.0
862.0
860.0
859.0
858.0
858.0
858.0
859.0
857.0
857.0
855.0
854.0
854.0
852.0
852.0
852.0
854.0
854.0
857.0
860.0
862.0
860.0
862.0
863.0
866.0
865.0
871.0
878.0
886.0
903.0
923.0
947.0
970.0
992.0
1010.0
1022.0
1029.0
1034.0
1039.0
1045.0
1049.0
1048.0
1041.0
1030.0
1016.0
999.0
981.0
960.0
939.0
920.0
904.0
893.0
884.0
878.0
874.0
870.0
867.0
869.0
867.0
867.0
867.0
864.0
863.0
863.0
864.0
866.0
868.0
868.0
869.0
869.0
868.0
869.0
867.0
867.0
865.0
866.0
867.0
868.0
869.0
871.0
871.0
873.0
874.0
873.0
873.0
871.0
869.0
869.0
873.0
874.0
873.0
876.0
876.0
879.0
879.0
878.0
877.0
874.0
874.0
876.0
876.0
878.0
877.0
877.0
880.0
877.0
879.0
878.0
878.0
875.0
877.0
877.0
877.0
880.0
883.0
884.0
887.0
885.0
888.0
885.0
885.0
883.0
882.0
883.0
884.0
887.0
890.0
888.0
893.0
893.0
892.0
889.0
888.0
885.0
888.0
885.0
885.0
887.0
888.0
888.0
890.0
890.0
890.0
883.0
883.0
883.0
881.0
877.0
879.0
879.0
879.0
879.0
879.0
876.0
873.0
869.0
866.0
864.0
861.0
862.0
860.0
859.0
857.0
858.0
859.0
858.0
858.0
855.0
852.0
849.0
848.0
848.0
849.0
848.0
850.0
851.0
851.0
850.0
849.0
845.0
843.0
844.0
844.0
844.0
844.0
841.0
845.0
844.0
846.0
845.0
844.0
843.0
840.0
838.0
838.0
836.0
836.0
839.0
837.0
837.0
839.0
838.0
838.0
836.0
833.0
830.0
830.0
830.0
832.0
830.0
831.0
832.0
833.0
833.0
833.0
831.0
830.0
828.0
825.0
825.0
827.0
828.0
831.0
830.0
830.0
833.0
831.0
831.0
829.0
827.0
826.0
827.0
827.0
829.0
826.0
829.0
830.0
830.0
829.0
828.0
826.0
824.0
825.0
823.0
824.0
826.0
826.0
827.0
832.0
831.0
828.0
830.0
831.0
829.0
826.0
825.0
825.0
827.0
830.0
831.0
833.0
829.0
830.0
829.0
829.0
830.0
828.0
827.0
828.0
831.0
831.0
830.0
831.0
831.0
831.0
828.0
828.0
828.0
827.0
828.0
829.0
831.0
831.0
833.0
832.0
834.0
833.0
828.0
828.0
827.0
829.0
827.0
831.0
832.0
831.0
833.0
835.0
834.0
832.0
829.0
829.0
825.0
825.0
828.0
826.0
833.0
830.0
834.0
832.0
830.0
833.0
831.0
832.0
830.0
828.0
829.0
830.0
832.0
833.0
835.0
837.0
835.0
835.0
834.0
833.0
831.0
831.0
831.0
832.0
831.0
831.0
832.0
836.0
836.0
836.0
836.0
837.0
838.0
837.0
836.0
840.0
842.0
845.0
847.0
848.0
845.0
844.0
843.0
840.0
842.0
843.0
842.0
844.0
847.0
846.0
848.0
849.0
848.0
847.0
847.0
847.0
848.0
848.0
849.0
846.0
845.0
845.0
846.0
847.0
845.0
845.0
842.0
839.0
836.0
837.0
836.0
836.0
836.0
839.0
840.0
842.0
839.0
841.0
841.0
840.0
840.0
840.0
841.0
845.0
848.0
856.0
867.0
882.0
899.0
918.0
939.0
956.0
973.0
983.0
987.0
997.0
1002.0
1009.0
1016.0
1023.0
1023.0
1015.0
1005.0
989.0
969.0
952.0
937.0
918.0
906.0
893.0
884.0
876.0
869.0
861.0
852.0
847.0
843.0
843.0
843.0
846.0
847.0
848.0
850.0
850.0
851.0
852.0
845.0
849.0
848.0
849.0
848.0
848.0
850.0
848.0
852.0
854.0
852.0
853.0
853.0
850.0
853.0
852.0
850.0
852.0
854.0
857.0
856.0
859.0
860.0
860.0
857.0
858.0
856.0
856.0
856.0
859.0
860.0
859.0
862.0
862.0
865.0
863.0
862.0
861.0
861.0
858.0
860.0
861.0
864.0
864.0
865.0
867.0
867.0
869.0
868.0
865.0
865.0
866.0
867.0
865.0
869.0
871.0
874.0
876.0
876.0
877.0
876.0
874.0
873.0
871.0
871.0
872.0
874.0
874.0
877.0
880.0
877.0
877.0
876.0
873.0
871.0
872.0
867.0
870.0
868.0
868.0
866.0
866.0
867.0
868.0
866.0
864.0
860.0
856.0
855.0
853.0
853.0
852.0
851.0
849.0
850.0
847.0
843.0
844.0
841.0
838.0
838.0
833.0
834.0
837.0
839.0
839.0
839.0
838.0
837.0
833.0
831.0
830.0
831.0
829.0
832.0
832.0
835.0
835.0
833.0
833.0
833.0
831.0
828.0
829.0
828.0
827.0
829.0
831.0
829.0
827.0
829.0
828.0
826.0
825.0
821.0
820.0
819.0
821.0
818.0
821.0
821.0
824.0
825.0
824.0
823.0
821.0
820.0
819.0
818.0
818.0
818.0
821.0
821.0
821.0
824.0
822.0
820.0
820.0
818.0
816.0
816.0
815.0
815.0
819.0
822.0
823.0
824.0
821.0
822.0
821.0
821.0
819.0
818.0
817.0
819.0
820.0
822.0
824.0
824.0
824.0
823.0
822.0
821.0
819.0
819.0
817.0
817.0
821.0
820.0
825.0
824.0
826.0
824.0
821.0
820.0
820.0
821.0
823.0
822.0
824.0
827.0
826.0
826.0
827.0
824.0
822.0
821.0
820.0
822.0
823.0
826.0
826.0
828.0
828.0
830.0
830.0
828.0
828.0
824.0
823.0
823.0
826.0
826.0
825.0
827.0
830.0
830.0
826.0
829.0
828.0
825.0
823.0
824.0
823.0
823.0
825.0
828.0
830.0
832.0
827.0
829.0
828.0
824.0
825.0
828.0
830.0
828.0
829.0
832.0
833.0
834.0
833.0
831.0
831.0
830.0
829.0
828.0
829.0
830.0
830.0
831.0
835.0
839.0
841.0
840.0
844.0
841.0
840.0
841.0
842.0
843.0
843.0
846.0
849.0
849.0
849.0
847.0
847.0
846.0
845.0
844.0
842.0
843.0
846.0
849.0
849.0
851.0
848.0
845.0
843.0
843.0
840.0
839.0
837.0
838.0
839.0
840.0
840.0
839.0
841.0
839.0
838.0
835.0
834.0
834.0
834.0
836.0
839.0
842.0
845.0
844.0
845.0
848.0
848.0
852.0
857.0
867.0
885.0
912.0
935.0
962.0
981.0
996.0
1004.0
1005.0
1009.0
1015.0
1019.0
1018.0
1015.0
1006.0
994.0
982.0
965.0
948.0
929.0
912.0
898.0
885.0
875.0
866.0
861.0
855.0
851.0
848.0
849.0
849.0
853.0
851.0
853.0
852.0
850.0
850.0
850.0
851.0
852.0
855.0
854.0
853.0
854.0
854.0
853.0
852.0
853.0
855.0
856.0
859.0
859.0
861.0
862.0
860.0
858.0
862.0
860.0
858.0
857.0
858.0
860.0
860.0
862.0
862.0
865.0
868.0
867.0
867.0
864.0
863.0
864.0
862.0
865.0
867.0
866.0
868.0
870.0
867.0
868.0
869.0
869.0
869.0
868.0
867.0
872.0
871.0
874.0
877.0
877.0
878.0
879.0
877.0
876.0
876.0
877.0
876.0
878.0
881.0
881.0
884.0
885.0
885.0
886.0
884.0
883.0
884.0
884.0
881.0
881.0
879.0
883.0
884.0
885.0
885.0
886.0
883.0
882.0
878.0
875.0
874.0
877.0
876.0
877.0
878.0
879.0
874.0
872.0
869.0
867.0
864.0
864.0
860.0
861.0
859.0
861.0
857.0
860.0
860.0
859.0
856.0
855.0
852.0
848.0
847.0
849.0
850.0
851.0
852.0
850.0
850.0
851.0
850.0
848.0
847.0
846.0
844.0
845.0
844.0
844.0
846.0
847.0
845.0
846.0
844.0
843.0
840.0
838.0
838.0
836.0
841.0
841.0
844.0
842.0
846.0
844.0
841.0
837.0
836.0
836.0
836.0
837.0
838.0
837.0
838.0
837.0
837.0
837.0
836.0
833.0
834.0
834.0
831.0
831.0
834.0
834.0
836.0
837.0
837.0
837.0
835.0
834.0
830.0
832.0
831.0
830.0
834.0
835.0
835.0
838.0
836.0
838.0
838.0
837.0
837.0
834.0
836.0
835.0
834.0
838.0
840.0
842.0
841.0
841.0
842.0
841.0
839.0
839.0
836.0
837.0
840.0
838.0
842.0
842.0
845.0
846.0
843.0
842.0
844.0
844.0
840.0
840.0
840.0
845.0
845.0
847.0
843.0
844.0
846.0
844.0
844.0
843.0
842.0
841.0
844.0
845.0
847.0
847.0
847.0
851.0
851.0
850.0
846.0
846.0
844.0
844.0
846.0
848.0
850.0
849.0
849.0
850.0
850.0
847.0
847.0
848.0
847.0
846.0
847.0
850.0
851.0
854.0
852.0
851.0
853.0
847.0
847.0
845.0
844.0
846.0
849.0
853.0
850.0
855.0
854.0
852.0
852.0
851.0
850.0
849.0
850.0
850.0
853.0
855.0
857.0
864.0
863.0
864.0
865.0
864.0
862.0
860.0
860.0
861.0
863.0
865.0
864.0
866.0
866.0
867.0
865.0
864.0
862.0
862.0
863.0
864.0
866.0
868.0
868.0
869.0
864.0
864.0
862.0
860.0
858.0
854.0
853.0
850.0
850.0
855.0
858.0
861.0
858.0
860.0
860.0
855.0
856.0
856.0
853.0
855.0
858.0
860.0
859.0
867.0
869.0
874.0
882.0
895.0
912.0
935.0
958.0
986.0
1007.0
1026.0
1038.0
1047.0
1053.0
1056.0
1057.0
1052.0
1042.0
1026.0
1012.0
996.0
979.0
962.0
945.0
931.0
915.0
901.0
888.0
879.0
871.0
867.0
862.0
861.0
860.0
864.0
864.0
865.0
866.0
868.0
865.0
866.0
865.0
863.0
862.0
862.0
864.0
865.0
869.0
870.0
870.0
867.0
867.0
868.0
867.0
867.0
868.0
867.0
868.0
869.0
870.0
871.0
874.0
870.0
872.0
871.0
869.0
873.0
872.0
872.0
874.0
875.0
876.0
878.0
878.0
877.0
876.0
876.0
876.0
874.0
872.0
873.0
877.0
878.0
880.0
882.0
884.0
882.0
881.0
879.0
882.0
882.0
880.0
880.0
884.0
885.0
885.0
888.0
889.0
886.0
887.0
885.0
886.0
886.0
884.0
884.0
888.0
891.0
890.0
891.0
888.0
889.0
888.0
886.0
887.0
887.0
883.0
885.0
885.0
884.0
885.0
886.0
884.0
883.0
883.0
879.0
877.0
875.0
872.0
870.0
868.0
869.0
867.0
865.0
865.0
865.0
862.0
860.0
856.0
854.0
852.0
851.0
853.0
853.0
853.0
855.0
853.0
851.0
851.0
849.0
847.0
844.0
842.0
844.0
845.0
847.0
849.0
851.0
847.0
850.0
850.0
846.0
847.0
845.0
843.0
843.0
843.0
844.0
844.0
844.0
844.0
844.0
843.0
841.0
839.0
838.0
839.0
839.0
839.0
839.0
837.0
840.0
839.0
838.0
838.0
838.0
837.0
834.0
833.0
831.0
832.0
832.0
836.0
836.0
837.0
838.0
835.0
833.0
832.0
831.0
832.0
829.0
832.0
832.0
833.0
834.0
835.0
834.0
835.0
834.0
830.0
833.0
829.0
832.0
830.0
831.0
835.0
836.0
836.0
836.0
836.0
833.0
832.0
833.0
831.0
832.0
833.0
833.0
835.0
836.0
835.0
835.0
837.0
836.0
835.0
833.0
833.0
835.0
833.0
836.0
837.0
841.0
839.0
838.0
837.0
838.0
836.0
837.0
835.0
836.0
835.0
839.0
840.0
843.0
842.0
841.0
839.0
841.0
838.0
838.0
837.0
836.0
837.0
839.0
842.0
844.0
840.0
843.0
842.0
840.0
839.0
839.0
836.0
838.0
838.0
839.0
841.0
843.0
843.0
843.0
842.0
841.0
840.0
840.0
838.0
838.0
837.0
839.0
841.0
843.0
842.0
842.0
842.0
841.0
840.0
838.0
837.0
839.0
838.0
842.0
841.0
844.0
844.0
843.0
842.0
842.0
841.0
839.0
839.0
839.0
841.0
843.0
844.0
846.0
850.0
853.0
855.0
853.0
853.0
850.0
849.0
849.0
850.0
851.0
854.0
857.0
857.0
857.0
856.0
856.0
853.0
853.0
852.0
849.0
852.0
854.0
857.0
858.0
856.0
857.0
853.0
851.0
850.0
847.0
844.0
840.0
844.0
843.0
845.0
847.0
848.0
847.0
847.0
847.0
843.0
845.0
845.0
845.0
845.0
847.0
849.0
852.0
853.0
854.0
859.0
862.0
864.0
875.0
892.0
915.0
942.0
968.0
992.0
1011.0
1026.0
1032.0
1035.0
1042.0
1042.0
1034.0
1019.0
1002.0
986.0
968.0
949.0
934.0
918.0
900.0
890.0
878.0
867.0
861.0
853.0
850.0
848.0
851.0
852.0
856.0
857.0
856.0
855.0
854.0
856.0
852.0
853.0
852.0
854.0
856.0
859.0
862.0
863.0
860.0
862.0
861.0
858.0
858.0
857.0
858.0
858.0
859.0
860.0
863.0
863.0
864.0
863.0
863.0
860.0
861.0
859.0
857.0
860.0
863.0
867.0
870.0
870.0
870.0
867.0
868.0
866.0
867.0
864.0
864.0
866.0
870.0
869.0
872.0
871.0
872.0
872.0
874.0
870.0
870.0
871.0
871.0
871.0
873.0
875.0
877.0
877.0
879.0
877.0
877.0
878.0
878.0
877.0
879.0
879.0
881.0
881.0
883.0
881.0
881.0
879.0
879.0
877.0
876.0
875.0
872.0
873.0
875.0
876.0
877.0
877.0
877.0
873.0
868.0
867.0
865.0
861.0
862.0
861.0
860.0
860.0
857.0
857.0
855.0
855.0
851.0
849.0
846.0
846.0
842.0
842.0
843.0
847.0
846.0
848.0
845.0
845.0
844.0
844.0
841.0
840.0
842.0
840.0
840.0
841.0
842.0
843.0
843.0
843.0
841.0
839.0
836.0
835.0
835.0
835.0
835.0
837.0
839.0
839.0
837.0
835.0
831.0
832.0
832.0
830.0
830.0
829.0
832.0
834.0
835.0
832.0
832.0
829.0
829.0
827.0
825.0
823.0
823.0
824.0
825.0
826.0
827.0
828.0
826.0
827.0
827.0
826.0
824.0
822.0
823.0
824.0
824.0
824.0
825.0
830.0
825.0
826.0
823.0
824.0
821.0
820.0
819.0
821.0
824.0
828.0
828.0
830.0
827.0
828.0
826.0
825.0
825.0
827.0
827.0
827.0
828.0
829.0
830.0
832.0
831.0
829.0
830.0
828.0
830.0
827.0
828.0
827.0
829.0
830.0
832.0
832.0
834.0
832.0
831.0
829.0
826.0
825.0
827.0
828.0
829.0
832.0
833.0
835.0
835.0
833.0
831.0
831.0
830.0
829.0
830.0
831.0
831.0
832.0
833.0
832.0
831.0
832.0
830.0
833.0
831.0
829.0
827.0
827.0
829.0
832.0
834.0
834.0
833.0
832.0
829.0
828.0
828.0
828.0
829.0
830.0
831.0
834.0
836.0
836.0
835.0
836.0
833.0
830.0
829.0
826.0
827.0
832.0
833.0
834.0
835.0
836.0
837.0
833.0
830.0
831.0
831.0
827.0
830.0
830.0
832.0
838.0
840.0
842.0
843.0
845.0
840.0
842.0
841.0
839.0
841.0
843.0
845.0
848.0
849.0
849.0
850.0
847.0
846.0
844.0
844.0
844.0
843.0
846.0
846.0
848.0
849.0
845.0
846.0
845.0
844.0
842.0
841.0
838.0
838.0
836.0
837.0
841.0
840.0
841.0
840.0
840.0
837.0
837.0
836.0
837.0
837.0
839.0
842.0
843.0
847.0
849.0
848.0
854.0
860.0
867.0
879.0
895.0
918.0
940.0
962.0
982.0
997.0
1006.0
1010.0
1016.0
1020.0
1022.0
1017.0
1009.0
992.0
975.0
960.0
943.0
927.0
911.0
895.0
884.0
873.0
863.0
854.0
846.0
843.0
842.0
843.0
845.0
847.0
849.0
848.0
850.0
848.0
848.0
848.0
847.0
846.0
849.0
849.0
850.0
851.0
852.0
852.0
852.0
853.0
849.0
847.0
848.0
849.0
849.0
852.0
852.0
854.0
854.0
855.0
855.0
855.0
854.0
849.0
850.0
854.0
853.0
854.0
857.0
859.0
862.0
859.0
860.0
858.0
857.0
857.0
856.0
856.0
856.0
859.0
860.0
861.0
863.0
862.0
863.0
861.0
858.0
858.0
860.0
862.0
864.0
865.0
867.0
865.0
867.0
869.0
868.0
868.0
867.0
868.0
867.0
869.0
871.0
871.0
874.0
875.0
879.0
876.0
878.0
875.0
874.0
874.0
869.0
867.0
867.0
869.0
871.0
870.0
873.0
871.0
870.0
868.0
866.0
865.0
862.0
862.0
859.0
861.0
860.0
859.0
858.0
855.0
853.0
850.0
850.0
848.0
843.0
842.0
841.0
842.0
842.0
842.0
842.0
840.0
840.0
841.0
840.0
838.0
836.0
837.0
837.0
838.0
837.0
840.0
840.0
839.0
839.0
838.0
837.0
834.0
835.0
832.0
834.0
835.0
834.0
834.0
834.0
834.0
836.0
834.0
832.0
832.0
828.0
827.0
827.0
828.0
828.0
830.0
830.0
825.0
824.0
824.0
822.0
822.0
823.0
823.0
825.0
825.0
827.0
830.0
828.0
829.0
828.0
825.0
825.0
823.0
823.0
824.0
825.0
823.0
825.0
827.0
829.0
829.0
828.0
828.0
827.0
826.0
827.0
828.0
827.0
829.0
831.0
831.0
834.0
835.0
832.0
832.0
830.0
832.0
831.0
830.0
830.0
832.0
832.0
836.0
837.0
837.0
834.0
833.0
832.0
831.0
830.0
833.0
832.0
833.0
835.0
838.0
840.0
838.0
839.0
835.0
834.0
835.0
833.0
835.0
837.0
834.0
838.0
841.0
843.0
842.0
842.0
838.0
839.0
839.0
837.0
837.0
839.0
838.0
838.0
839.0
839.0
842.0
844.0
841.0
840.0
838.0
838.0
839.0
841.0
841.0
845.0
846.0
846.0
846.0
847.0
847.0
846.0
844.0
842.0
844.0
842.0
845.0
848.0
848.0
849.0
850.0
847.0
848.0
846.0
846.0
844.0
845.0
845.0
848.0
850.0
850.0
854.0
855.0
854.0
851.0
850.0
850.0
848.0
847.0
849.0
850.0
851.0
850.0
852.0
855.0
855.0
856.0
857.0
856.0
856.0
858.0
861.0
859.0
861.0
865.0
864.0
865.0
864.0
864.0
864.0
861.0
860.0
860.0
861.0
862.0
863.0
867.0
869.0
868.0
869.0
866.0
865.0
862.0
862.0
860.0
856.0
856.0
859.0
857.0
857.0
854.0
853.0
852.0
851.0
847.0
848.0
850.0
851.0
853.0
854.0
856.0
858.0
861.0
858.0
857.0
859.0
856.0
858.0
861.0
868.0
872.0
883.0
896.0
915.0
942.0
964.0
990.0
1013.0
1026.0
1037.0
1044.0
1051.0
1060.0
1063.0
1058.0
1048.0
1035.0
1021.0
1005.0
987.0
971.0
948.0
928.0
908.0
894.0
883.0
875.0
871.0
866.0
864.0
860.0
859.0
860.0
860.0
858.0
860.0
860.0
860.0
862.0
864.0
862.0
861.0
861.0
860.0
859.0
860.0
861.0
864.0
864.0
865.0
867.0
869.0
867.0
867.0
866.0
865.0
866.0
864.0
862.0
866.0
867.0
869.0
869.0
871.0
870.0
870.0
870.0
865.0
864.0
865.0
866.0
868.0
870.0
870.0
871.0
874.0
875.0
876.0
873.0
871.0
870.0
866.0
869.0
870.0
873.0
873.0
878.0
875.0
877.0
877.0
878.0
875.0
875.0
874.0
874.0
874.0
875.0
875.0
880.0
880.0
880.0
880.0
880.0
880.0
877.0
877.0
877.0
876.0
879.0
880.0
880.0
881.0
882.0
881.0
879.0
881.0
875.0
873.0
873.0
873.0
871.0
871.0
870.0
869.0
869.0
868.0
866.0
862.0
857.0
858.0
856.0
855.0
856.0
856.0
855.0
856.0
853.0
849.0
848.0
844.0
843.0
843.0
842.0
842.0
839.0
840.0
843.0
845.0
845.0
844.0
844.0
842.0
840.0
839.0
840.0
840.0
839.0
843.0
844.0
844.0
845.0
845.0
840.0
841.0
841.0
838.0
838.0
838.0
839.0
839.0
840.0
840.0
840.0
840.0
838.0
838.0
834.0
833.0
833.0
834.0
836.0
835.0
837.0
837.0
836.0
836.0
833.0
828.0
829.0
831.0
830.0
830.0
831.0
831.0
833.0
834.0
833.0
833.0
832.0
831.0
830.0
826.0
829.0
826.0
829.0
830.0
834.0
835.0
836.0
837.0
833.0
832.0
832.0
829.0
830.0
830.0
832.0
834.0
836.0
835.0
837.0
837.0
836.0
836.0
833.0
831.0
833.0
834.0
834.0
834.0
840.0
841.0
838.0
840.0
839.0
837.0
833.0
831.0
834.0
834.0
836.0
837.0
836.0
838.0
837.0
839.0
838.0
838.0
837.0
836.0
837.0
837.0
838.0
839.0
841.0
842.0
843.0
841.0
842.0
840.0
839.0
840.0
839.0
840.0
840.0
842.0
842.0
844.0
843.0
843.0
841.0
841.0
843.0
841.0
842.0
843.0
844.0
844.0
844.0
846.0
845.0
844.0
844.0
845.0
842.0
842.0
842.0
841.0
842.0
845.0
847.0
848.0
847.0
847.0
846.0
847.0
847.0
845.0
846.0
846.0
848.0
845.0
848.0
849.0
851.0
849.0
848.0
850.0
846.0
847.0
846.0
845.0
847.0
847.0
851.0
852.0
852.0
851.0
850.0
851.0
850.0
851.0
852.0
851.0
857.0
858.0
860.0
861.0
863.0
862.0
860.0
861.0
860.0
860.0
858.0
856.0
859.0
862.0
858.0
861.0
862.0
863.0
862.0
860.0
860.0
858.0
858.0
856.0
858.0
858.0
861.0
860.0
858.0
856.0
849.0
848.0
846.0
846.0
844.0
848.0
849.0
848.0
850.0
852.0
851.0
852.0
852.0
850.0
850.0
848.0
851.0
851.0
853.0
855.0
859.0
866.0
872.0
889.0
908.0
932.0
960.0
984.0
1004.0
1021.0
1033.0
1046.0
1055.0
1061.0
1054.0
1041.0
1023.0
1003.0
987.0
966.0
946.0
926.0
908.0
895.0
884.0
875.0
868.0
864.0
859.0
855.0
851.0
852.0
852.0
852.0
856.0
857.0
858.0
860.0
859.0
858.0
856.0
858.0
857.0
855.0
854.0
855.0
857.0
857.0
858.0
859.0
860.0
862.0
861.0
860.0
859.0
858.0
857.0
859.0
860.0
858.0
859.0
862.0
864.0
863.0
862.0
861.0
861.0
860.0
861.0
861.0
864.0
864.0
865.0
866.0
865.0
866.0
864.0
864.0
862.0
861.0
862.0
862.0
863.0
865.0
867.0
868.0
868.0
871.0
871.0
868.0
868.0
866.0
869.0
870.0
871.0
873.0
875.0
876.0
875.0
877.0
875.0
875.0
872.0
872.0
869.0
871.0
871.0
874.0
875.0
874.0
873.0
876.0
874.0
871.0
869.0
869.0
868.0
868.0
868.0
867.0
869.0
866.0
866.0
867.0
860.0
859.0
857.0
854.0
850.0
853.0
851.0
852.0
851.0
852.0
849.0
846.0
845.0
845.0
843.0
841.0
842.0
840.0
841.0
843.0
842.0
841.0
841.0
842.0
839.0
839.0
838.0
837.0
834.0
834.0
834.0
834.0
837.0
835.0
834.0
833.0
833.0
830.0
828.0
829.0
827.0
824.0
824.0
827.0
829.0
829.0
826.0
824.0
825.0
824.0
819.0
821.0
817.0
815.0
816.0
816.0
816.0
818.0
817.0
817.0
817.0
816.0
815.0
814.0
813.0
813.0
813.0
814.0
816.0
816.0
817.0
816.0
817.0
814.0
813.0
814.0
811.0
812.0
812.0
815.0
812.0
818.0
816.0
814.0
816.0
814.0
812.0
812.0
810.0
812.0
815.0
815.0
817.0
819.0
818.0
818.0
817.0
815.0
815.0
816.0
813.0
811.0
817.0
815.0
818.0
819.0
819.0
819.0
820.0
819.0
815.0
815.0
816.0
816.0
816.0
817.0
820.0
821.0
820.0
820.0
819.0
819.0
819.0
818.0
818.0
816.0
818.0
819.0
822.0
823.0
821.0
820.0
820.0
821.0
821.0
818.0
819.0
822.0
821.0
824.0
825.0
827.0
826.0
825.0
823.0
821.0
821.0
821.0
819.0
819.0
820.0
821.0
823.0
826.0
826.0
824.0
825.0
825.0
825.0
826.0
823.0
826.0
827.0
829.0
829.0
832.0
831.0
831.0
831.0
830.0
826.0
825.0
828.0
825.0
828.0
830.0
831.0
834.0
834.0
834.0
833.0
831.0
828.0
825.0
828.0
829.0
831.0
833.0
837.0
839.0
839.0
839.0
837.0
836.0
837.0
840.0
842.0
845.0
843.0
845.0
844.0
845.0
845.0
846.0
846.0
846.0
846.0
844.0
843.0
844.0
844.0
848.0
849.0
853.0
855.0
855.0
852.0
853.0
852.0
851.0
847.0
847.0
846.0
845.0
846.0
844.0
843.0
841.0
840.0
840.0
840.0
838.0
840.0
839.0
840.0
842.0
843.0
846.0
845.0
845.0
847.0
845.0
847.0
848.0
851.0
854.0
862.0
874.0
892.0
914.0
938.0
961.0
986.0
1002.0
1016.0
1023.0
1028.0
1035.0
1040.0
1042.0
1039.0
1031.0
1020.0
1001.0
985.0
967.0
948.0
929.0
910.0
895.0
883.0
871.0
863.0
860.0
857.0
851.0
851.0
849.0
849.0
850.0
850.0
850.0
852.0
853.0
852.0
855.0
854.0
854.0
856.0
855.0
854.0
851.0
853.0
853.0
853.0
854.0
855.0
857.0
860.0
861.0
856.0
854.0
854.0
854.0
856.0
856.0
858.0
861.0
859.0
861.0
864.0
863.0
860.0
863.0
860.0
860.0
859.0
858.0
857.0
859.0
863.0
864.0
863.0
866.0
865.0
864.0
862.0
861.0
862.0
863.0
863.0
866.0
867.0
870.0
870.0
870.0
871.0
869.0
870.0
868.0
867.0
867.0
869.0
871.0
873.0
875.0
874.0
873.0
874.0
871.0
874.0
870.0
868.0
868.0
869.0
868.0
870.0
872.0
872.0
873.0
870.0
867.0
864.0
863.0
861.0
862.0
863.0
861.0
862.0
863.0
860.0
858.0
857.0
849.0
848.0
845.0
842.0
843.0
842.0
845.0
844.0
844.0
843.0
842.0
842.0
840.0
839.0
837.0
838.0
837.0
839.0
840.0
839.0
841.0
841.0
840.0
841.0
839.0
833.0
832.0
828.0
827.0
832.0
836.0
835.0
838.0
836.0
836.0
835.0
833.0
829.0
828.0
827.0
826.0
826.0
826.0
831.0
833.0
831.0
832.0
829.0
827.0
826.0
824.0
822.0
822.0
822.0
824.0
827.0
829.0
828.0
827.0
827.0
822.0
823.0
822.0
821.0
821.0
821.0
822.0
822.0
827.0
827.0
824.0
822.0
820.0
821.0
820.0
821.0
821.0
824.0
824.0
824.0
824.0
827.0
825.0
825.0
826.0
823.0
821.0
821.0
824.0
826.0
829.0
830.0
831.0
831.0
831.0
830.0
830.0
827.0
825.0
826.0
827.0
827.0
832.0
833.0
832.0
834.0
831.0
833.0
830.0
829.0
830.0
830.0
831.0
830.0
830.0
832.0
835.0
835.0
834.0
832.0
833.0
831.0
830.0
827.0
826.0
825.0
827.0
831.0
834.0
833.0
831.0
834.0
831.0
831.0
830.0
827.0
826.0
828.0
831.0
831.0
833.0
833.0
831.0
832.0
831.0
832.0
831.0
828.0
830.0
832.0
834.0
832.0
834.0
836.0
834.0
832.0
830.0
828.0
831.0
831.0
829.0
830.0
833.0
833.0
835.0
836.0
832.0
831.0
832.0
834.0
834.0
835.0
833.0
834.0
837.0
837.0
838.0
838.0
839.0
838.0
837.0
836.0
835.0
832.0
835.0
834.0
837.0
838.0
840.0
840.0
842.0
843.0
843.0
842.0
840.0
844.0
843.0
847.0
851.0
853.0
857.0
857.0
854.0
851.0
851.0
853.0
852.0
850.0
851.0
854.0
855.0
857.0
859.0
860.0
861.0
859.0
860.0
858.0
857.0
854.0
857.0
855.0
854.0
857.0
856.0
856.0
853.0
851.0
845.0
844.0
844.0
843.0
843.0
845.0
846.0
845.0
847.0
849.0
851.0
851.0
850.0
849.0
849.0
850.0
851.0
854.0
854.0
859.0
868.0
876.0
892.0
914.0
936.0
958.0
978.0
995.0
1007.0
1017.0
1024.0
1031.0
1040.0
1049.0
1056.0
1052.0
1047.0
1032.0
1015.0
996.0
984.0
963.0
945.0
930.0
913.0
898.0
884.0
876.0
868.0
863.0
855.0
855.0
856.0
857.0
860.0
861.0
862.0
864.0
864.0
863.0
861.0
861.0
858.0
858.0
857.0
858.0
860.0
862.0
861.0
863.0
863.0
863.0
863.0
861.0
859.0
860.0
860.0
863.0
863.0
866.0
867.0
867.0
865.0
863.0
864.0
865.0
864.0
865.0
865.0
863.0
867.0
867.0
871.0
870.0
869.0
870.0
867.0
866.0
867.0
865.0
865.0
867.0
868.0
870.0
871.0
872.0
873.0
873.0
872.0
872.0
868.0
867.0
867.0
871.0
871.0
875.0
875.0
877.0
874.0
876.0
876.0
876.0
876.0
876.0
877.0
877.0
877.0
879.0
882.0
881.0
881.0
881.0
881.0
878.0
879.0
877.0
877.0
878.0
880.0
880.0
878.0
881.0
878.0
878.0
875.0
874.0
873.0
868.0
869.0
869.0
869.0
870.0
871.0
870.0
867.0
865.0
864.0
858.0
856.0
853.0
852.0
853.0
853.0
853.0
853.0
853.0
852.0
850.0
848.0
846.0
843.0
841.0
841.0
843.0
843.0
839.0
843.0
843.0
841.0
839.0
838.0
839.0
835.0
834.0
833.0
833.0
832.0
832.0
834.0
835.0
833.0
832.0
831.0
829.0
828.0
826.0
827.0
827.0
830.0
832.0
832.0
830.0
831.0
829.0
827.0
826.0
823.0
819.0
820.0
822.0
823.0
824.0
827.0
828.0
824.0
824.0
825.0
825.0
825.0
824.0
826.0
825.0
827.0
829.0
828.0
828.0
826.0
828.0
826.0
825.0
825.0
826.0
826.0
827.0
829.0
831.0
831.0
832.0
833.0
833.0
831.0
830.0
829.0
826.0
828.0
831.0
834.0
834.0
833.0
836.0
834.0
835.0
833.0
833.0
833.0
831.0
832.0
833.0
833.0
835.0
836.0
838.0
839.0
838.0
836.0
837.0
835.0
834.0
834.0
834.0
834.0
835.0
837.0
839.0
841.0
842.0
841.0
841.0
839.0
839.0
838.0
838.0
839.0
843.0
842.0
843.0
845.0
845.0
842.0
843.0
839.0
841.0
