# Simple Text Format
# Sampling Rate (Hz):= 360.00
# Resolution:= 12
# Labels:= ECG
860.0
859.0
856.0
850.0
851.0
853.0
853.0
856.0
854.0
854.0
852.0
855.0
859.0
857.0
856.0
853.0
850.0
852.0
850.0
852.0
855.0
849.0
850.0
856.0
855.0
857.0
855.0
847.0
845.0
846.0
847.0
849.0
849.0
845.0
848.0
847.0
847.0
847.0
845.0
842.0
839.0
837.0
838.0
837.0
841.0
839.0
836.0
833.0
832.0
839.0
837.0
835.0
831.0
828.0
829.0
831.0
835.0
835.0
836.0
834.0
835.0
837.0
837.0
838.0
837.0
837.0
834.0
836.0
842.0
843.0
842.0
841.0
844.0
848.0
847.0
848.0
845.0
844.0
845.0
848.0
854.0
858.0
857.0
856.0
857.0
854.0
860.0
863.0
864.0
869.0
869.0
876.0
882.0
885.0
884.0
888.0
886.0
887.0
890.0
889.0
888.0
886.0
881.0
881.0
880.0
883.0
883.0
879.0
877.0
873.0
873.0
867.0
863.0
857.0
850.0
848.0
849.0
851.0
850.0
846.0
843.0
843.0
843.0
841.0
839.0
836.0
830.0
834.0
839.0
841.0
842.0
844.0
840.0
836.0
838.0
832.0
825.0
813.0
805.0
797.0
806.0
818.0
836.0
867.0
898.0
939.0
979.0
1015.0
1046.0
1073.0
1100.0
1127.0
1152.0
1175.0
1182.0
1186.0
1177.0
1169.0
1155.0
1135.0
1105.0
1058.0
994.0
935.0
888.0
863.0
858.0
859.0
863.0
868.0
874.0
876.0
870.0
859.0
846.0
832.0
829.0
832.0
831.0
837.0
832.0
827.0
827.0
829.0
830.0
832.0
832.0
830.0
828.0
836.0
837.0
839.0
838.0
836.0
834.0
831.0
830.0
832.0
834.0
833.0
831.0
835.0
836.0
838.0
839.0
837.0
835.0
833.0
833.0
835.0
837.0
834.0
837.0
840.0
843.0
848.0
847.0
843.0
842.0
840.0
841.0
844.0
842.0
840.0
841.0
844.0
847.0
850.0
852.0
855.0
848.0
849.0
849.0
851.0
855.0
856.0
856.0
855.0
861.0
860.0
862.0
856.0
854.0
856.0
856.0
861.0
861.0
862.0
861.0
861.0
864.0
869.0
870.0
868.0
864.0
859.0
861.0
861.0
860.0
860.0
860.0
863.0
865.0
866.0
865.0
857.0
858.0
858.0
858.0
859.0
861.0
857.0
855.0
857.0
858.0
858.0
856.0
852.0
852.0
852.0
853.0
856.0
852.0
851.0
853.0
853.0
858.0
857.0
856.0
855.0
853.0
850.0
850.0
846.0
841.0
840.0
842.0
848.0
851.0
848.0
843.0
838.0
838.0
833.0
839.0
836.0
835.0
838.0
845.0
845.0
847.0
847.0
845.0
847.0
848.0
849.0
848.0
845.0
841.0
845.0
851.0
853.0
853.0
856.0
850.0
852.0
853.0
853.0
857.0
860.0
857.0
855.0
861.0
865.0
868.0
869.0
869.0
872.0
874.0
879.0
883.0
886.0
887.0
891.0
897.0
901.0
905.0
902.0
903.0
902.0
902.0
902.0
896.0
898.0
895.0
891.0
894.0
896.0
893.0
891.0
890.0
887.0
883.0
875.0
868.0
861.0
861.0
861.0
862.0
859.0
862.0
854.0
851.0
852.0
854.0
854.0
850.0
851.0
851.0
851.0
854.0
858.0
859.0
856.0
853.0
848.0
843.0
836.0
827.0
815.0
814.0
825.0
844.0
875.0
913.0
951.0
993.0
1032.0
1069.0
1102.0
1137.0
1163.0
1186.0
1201.0
1211.0
1216.0
1211.0
1196.0
1176.0
1151.0
1110.0
1054.0
991.0
936.0
901.0
882.0
881.0
886.0
896.0
898.0
896.0
888.0
878.0
865.0
854.0
846.0
840.0
842.0
847.0
849.0
848.0
847.0
851.0
850.0
853.0
845.0
846.0
842.0
844.0
850.0
854.0
858.0
855.0
854.0
849.0
851.0
854.0
851.0
853.0
847.0
844.0
847.0
849.0
856.0
853.0
853.0
852.0
853.0
857.0
857.0
857.0
853.0
853.0
857.0
860.0
860.0
863.0
861.0
860.0
861.0
866.0
865.0
865.0
861.0
862.0
864.0
870.0
868.0
870.0
871.0
872.0
874.0
877.0
874.0
874.0
867.0
869.0
875.0
880.0
883.0
882.0
879.0
880.0
883.0
882.0
882.0
883.0
880.0
881.0
881.0
884.0
887.0
887.0
887.0
885.0
886.0
885.0
882.0
880.0
880.0
880.0
883.0
886.0
885.0
888.0
884.0
882.0
884.0
884.0
887.0
882.0
878.0
876.0
877.0
883.0
885.0
883.0
885.0
884.0
883.0
884.0
881.0
881.0
874.0
872.0
873.0
880.0
879.0
883.0
877.0
878.0
874.0
876.0
875.0
874.0
867.0
864.0
862.0
869.0
870.0
871.0
869.0
868.0
869.0
872.0
867.0
864.0
862.0
862.0
865.0
869.0
873.0
874.0
873.0
872.0
872.0
874.0
873.0
871.0
864.0
866.0
869.0
875.0
875.0
878.0
878.0
880.0
884.0
887.0
887.0
885.0
883.0
882.0
887.0
892.0
895.0
900.0
906.0
909.0
915.0
918.0
924.0
923.0
918.0
918.0
924.0
925.0
926.0
930.0
929.0
927.0
928.0
924.0
919.0
913.0
910.0
907.0
909.0
913.0
912.0
908.0
902.0
894.0
893.0
892.0
888.0
888.0
882.0
879.0
876.0
878.0
876.0
875.0
877.0
873.0
877.0
881.0
876.0
874.0
870.0
869.0
871.0
875.0
869.0
864.0
856.0
845.0
835.0
836.0
839.0
851.0
874.0
909.0
953.0
997.0
1044.0
1083.0
1118.0
1152.0
1184.0
1207.0
1218.0
1221.0
1219.0
1215.0
1202.0
1187.0
1160.0
1108.0
1049.0
989.0
940.0
908.0
890.0
886.0
889.0
901.0
909.0
909.0
904.0
894.0
883.0
872.0
869.0
863.0
863.0
860.0
856.0
858.0
859.0
862.0
863.0
862.0
864.0
863.0
866.0
869.0
866.0
865.0
862.0
858.0
860.0
863.0
866.0
863.0
867.0
863.0
865.0
871.0
866.0
867.0
864.0
863.0
865.0
874.0
873.0
874.0
874.0
873.0
872.0
872.0
872.0
872.0
868.0
871.0
874.0
879.0
880.0
877.0
877.0
880.0
883.0
883.0
880.0
879.0
877.0
880.0
881.0
883.0
887.0
881.0
885.0
888.0
892.0
893.0
889.0
885.0
883.0
885.0
889.0
890.0
892.0
888.0
888.0
892.0
893.0
895.0
889.0
888.0
886.0
890.0
891.0
893.0
893.0
891.0
888.0
888.0
891.0
890.0
889.0
884.0
883.0
885.0
887.0
887.0
886.0
889.0
885.0
886.0
889.0
889.0
890.0
883.0
879.0
877.0
883.0
889.0
888.0
887.0
889.0
887.0
885.0
885.0
883.0
881.0
877.0
873.0
875.0
876.0
878.0
874.0
875.0
874.0
872.0
876.0
876.0
872.0
865.0
862.0
865.0
867.0
869.0
870.0
867.0
863.0
865.0
872.0
877.0
874.0
869.0
868.0
868.0
874.0
874.0
877.0
876.0
876.0
878.0
881.0
882.0
878.0
877.0
873.0
875.0
881.0
885.0
886.0
885.0
881.0
882.0
885.0
888.0
890.0
890.0
885.0
887.0
889.0
894.0
901.0
906.0
910.0
915.0
918.0
923.0
925.0
923.0
921.0
920.0
929.0
932.0
933.0
930.0
927.0
925.0
920.0
922.0
919.0
914.0
906.0
906.0
907.0
907.0
899.0
897.0
892.0
890.0
891.0
884.0
880.0
873.0
874.0
874.0
874.0
877.0
877.0
875.0
874.0
874.0
877.0
877.0
875.0
872.0
867.0
868.0
867.0
869.0
863.0
853.0
841.0
833.0
833.0
842.0
858.0
880.0
913.0
950.0
993.0
1037.0
1072.0
1105.0
1133.0
1162.0
1188.0
1205.0
1216.0
1221.0
1213.0
1203.0
1195.0
1183.0
1157.0
1119.0
1061.0
995.0
940.0
903.0
885.0
881.0
886.0
892.0
900.0
905.0
901.0
895.0
884.0
873.0
861.0
860.0
859.0
860.0
860.0
858.0
858.0
858.0
862.0
862.0
861.0
862.0
862.0
859.0
862.0
862.0
860.0
859.0
857.0
859.0
863.0
864.0
869.0
865.0
861.0
861.0
864.0
863.0
864.0
857.0
856.0
857.0
861.0
866.0
868.0
865.0
862.0
867.0
866.0
864.0
866.0
862.0
866.0
864.0
866.0
872.0
877.0
875.0
874.0
870.0
871.0
876.0
876.0
875.0
873.0
878.0
876.0
880.0
883.0
883.0
882.0
880.0
878.0
880.0
880.0
881.0
875.0
879.0
883.0
887.0
891.0
889.0
883.0
879.0
881.0
883.0
883.0
886.0
886.0
883.0
884.0
891.0
892.0
889.0
888.0
883.0
885.0
883.0
882.0
880.0
879.0
879.0
884.0
886.0
886.0
885.0
881.0
880.0
879.0
880.0
877.0
878.0
872.0
874.0
877.0
880.0
882.0
879.0
873.0
870.0
872.0
870.0
871.0
868.0
864.0
863.0
867.0
870.0
872.0
870.0
864.0
858.0
857.0
858.0
857.0
857.0
856.0
855.0
854.0
857.0
860.0
857.0
852.0
854.0
854.0
855.0
852.0
856.0
856.0
855.0
857.0
861.0
868.0
866.0
865.0
861.0
858.0
857.0
860.0
860.0
864.0
863.0
866.0
867.0
871.0
872.0
871.0
867.0
866.0
867.0
872.0
875.0
874.0
878.0
878.0
885.0
893.0
898.0
899.0
899.0
901.0
904.0
911.0
913.0
909.0
908.0
909.0
907.0
911.0
911.0
911.0
906.0
901.0
896.0
896.0
896.0
892.0
893.0
890.0
887.0
885.0
881.0
875.0
871.0
864.0
857.0
858.0
859.0
859.0
861.0
858.0
857.0
858.0
858.0
857.0
859.0
855.0
851.0
853.0
855.0
856.0
857.0
853.0
849.0
846.0
842.0
838.0
828.0
816.0
812.0
814.0
825.0
850.0
883.0
921.0
955.0
997.0
1035.0
1067.0
1102.0
1136.0
1162.0
1180.0
1193.0
1201.0
1200.0
1193.0
1177.0
1157.0
1122.0
1066.0
1001.0
938.0
888.0
864.0
856.0
864.0
883.0
888.0
891.0
885.0
877.0
870.0
862.0
851.0
843.0
840.0
838.0
841.0
844.0
844.0
842.0
843.0
843.0
847.0
849.0
844.0
841.0
836.0
836.0
840.0
842.0
848.0
846.0
846.0
845.0
842.0
846.0
841.0
842.0
840.0
840.0
844.0
852.0
852.0
850.0
850.0
848.0
850.0
853.0
855.0
847.0
846.0
849.0
849.0
853.0
858.0
859.0
858.0
855.0
855.0
855.0
858.0
854.0
853.0
855.0
857.0
859.0
861.0
863.0
864.0
864.0
864.0
864.0
862.0
857.0
857.0
859.0
861.0
866.0
869.0
867.0
866.0
868.0
868.0
875.0
871.0
865.0
866.0
865.0
867.0
869.0
871.0
870.0
870.0
867.0
869.0
870.0
866.0
861.0
857.0
853.0
856.0
862.0
863.0
863.0
860.0
859.0
861.0
861.0
858.0
858.0
857.0
855.0
858.0
860.0
862.0
860.0
858.0
857.0
858.0
855.0
855.0
854.0
848.0
845.0
845.0
850.0
854.0
857.0
855.0
851.0
850.0
848.0
846.0
845.0
843.0
841.0
840.0
843.0
845.0
843.0
839.0
839.0
841.0
838.0
837.0
837.0
837.0
836.0
841.0
846.0
846.0
845.0
845.0
846.0
849.0
849.0
845.0
842.0
842.0
839.0
844.0
849.0
853.0
850.0
849.0
850.0
855.0
853.0
856.0
856.0
852.0
852.0
854.0
860.0
865.0
863.0
867.0
870.0
879.0
883.0
887.0
888.0
889.0
888.0
892.0
896.0
897.0
894.0
894.0
895.0
896.0
898.0
894.0
890.0
883.0
873.0
876.0
881.0
883.0
880.0
874.0
870.0
866.0
865.0
857.0
852.0
848.0
844.0
845.0
849.0
850.0
847.0
844.0
843.0
843.0
845.0
842.0
838.0
838.0
838.0
837.0
836.0
836.0
830.0
822.0
815.0
807.0
801.0
800.0
808.0
825.0
854.0
898.0
942.0
983.0
1018.0
1057.0
1089.0
1124.0
1155.0
1177.0
1187.0
1196.0
1193.0
1190.0
1180.0
1163.0
1136.0
1095.0
1044.0
983.0
929.0
886.0
861.0
855.0
859.0
872.0
881.0
880.0
874.0
865.0
852.0
847.0
839.0
833.0
828.0
824.0
822.0
826.0
831.0
832.0
832.0
830.0
830.0
829.0
832.0
830.0
830.0
826.0
825.0
828.0
832.0
833.0
833.0
837.0
837.0
839.0
838.0
835.0
833.0
830.0
833.0
839.0
841.0
837.0
840.0
839.0
839.0
843.0
841.0
839.0
834.0
835.0
837.0
841.0
842.0
845.0
840.0
845.0
844.0
848.0
848.0
845.0
843.0
839.0
841.0
845.0
848.0
851.0
851.0
852.0
852.0
854.0
854.0
853.0
850.0
847.0
848.0
851.0
853.0
857.0
855.0
856.0
856.0
860.0
864.0
861.0
858.0
854.0
852.0
856.0
858.0
864.0
864.0
860.0
855.0
855.0
853.0
855.0
859.0
855.0
848.0
851.0
852.0
856.0
857.0
855.0
855.0
856.0
857.0
857.0
858.0
854.0
848.0
849.0
851.0
855.0
854.0
853.0
853.0
857.0
855.0
853.0
850.0
848.0
843.0
844.0
848.0
848.0
847.0
846.0
842.0
842.0
844.0
843.0
842.0
836.0
834.0
834.0
837.0
839.0
840.0
841.0
837.0
838.0
840.0
838.0
841.0
837.0
835.0
837.0
839.0
842.0
841.0
845.0
843.0
845.0
846.0
847.0
842.0
837.0
835.0
839.0
845.0
849.0
849.0
852.0
855.0
856.0
858.0
857.0
856.0
854.0
852.0
859.0
870.0
874.0
875.0
879.0
883.0
892.0
896.0
893.0
891.0
887.0
886.0
890.0
891.0
890.0
888.0
885.0
886.0
887.0
884.0
880.0
875.0
872.0
870.0
867.0
865.0
861.0
855.0
855.0
854.0
852.0
850.0
843.0
840.0
835.0
835.0
837.0
840.0
842.0
840.0
840.0
836.0
839.0
841.0
840.0
840.0
835.0
830.0
831.0
828.0
823.0
814.0
801.0
794.0
801.0
816.0
839.0
871.0
905.0
941.0
984.0
1021.0
1062.0
1095.0
1123.0
1149.0
1170.0
1181.0
1190.0
1187.0
1176.0
1167.0
1147.0
1122.0
1080.0
1025.0
963.0
909.0
872.0
853.0
850.0
858.0
864.0
867.0
866.0
861.0
850.0
842.0
832.0
828.0
822.0
826.0
824.0
822.0
817.0
816.0
816.0
819.0
824.0
823.0
824.0
825.0
825.0
826.0
829.0
826.0
820.0
819.0
817.0
817.0
825.0
827.0
827.0
824.0
825.0
824.0
824.0
826.0
825.0
823.0
823.0
825.0
831.0
833.0
830.0
828.0
828.0
832.0
831.0
833.0
829.0
827.0
829.0
831.0
835.0
835.0
838.0
838.0
835.0
836.0
835.0
839.0
834.0
834.0
834.0
837.0
843.0
846.0
844.0
842.0
843.0
842.0
843.0
844.0
839.0
840.0
838.0
844.0
847.0
848.0
844.0
845.0
844.0
846.0
845.0
845.0
841.0
840.0
841.0
845.0
849.0
844.0
843.0
843.0
843.0
846.0
841.0
842.0
837.0
835.0
837.0
840.0
840.0
843.0
841.0
838.0
840.0
842.0
841.0
839.0
834.0
835.0
836.0
838.0
841.0
841.0
838.0
836.0
834.0
836.0
838.0
834.0
830.0
826.0
827.0
831.0
832.0
830.0
833.0
826.0
826.0
828.0
827.0
826.0
824.0
821.0
821.0
823.0
828.0
827.0
826.0
825.0
824.0
826.0
825.0
824.0
823.0
823.0
821.0
829.0
830.0
829.0
832.0
831.0
832.0
833.0
831.0
828.0
828.0
826.0
830.0
833.0
839.0
843.0
842.0
842.0
840.0
841.0
841.0
842.0
840.0
842.0
844.0
854.0
860.0
866.0
869.0
872.0
874.0
875.0
881.0
878.0
876.0
871.0
869.0
874.0
876.0
880.0
876.0
872.0
866.0
867.0
866.0
865.0
861.0
855.0
846.0
843.0
843.0
842.0
841.0
836.0
836.0
833.0
832.0
833.0
829.0
826.0
824.0
824.0
828.0
826.0
828.0
830.0
828.0
827.0
824.0
825.0
823.0
816.0
811.0
799.0
795.0
788.0
788.0
791.0
804.0
829.0
864.0
908.0
950.0
988.0
1025.0
1064.0
1102.0
1134.0
1154.0
1167.0
1172.0
1178.0
1175.0
1167.0
1150.0
1126.0
1095.0
1047.0
987.0
929.0
882.0
848.0
836.0
834.0
845.0
855.0
858.0
857.0
843.0
832.0
826.0
821.0
819.0
816.0
811.0
807.0
810.0
810.0
808.0
809.0
806.0
805.0
811.0
815.0
820.0
819.0
816.0
815.0
814.0
815.0
813.0
810.0
811.0
812.0
814.0
818.0
818.0
821.0
819.0
820.0
818.0
819.0
818.0
817.0
814.0
818.0
820.0
823.0
825.0
824.0
821.0
819.0
823.0
825.0
825.0
821.0
822.0
824.0
828.0
832.0
832.0
830.0
828.0
829.0
830.0
828.0
830.0
826.0
826.0
825.0
832.0
836.0
834.0
837.0
834.0
833.0
833.0
834.0
834.0
833.0
831.0
828.0
832.0
838.0
844.0
842.0
838.0
838.0
833.0
836.0
837.0
838.0
837.0
834.0
833.0
836.0
839.0
837.0
835.0
834.0
831.0
831.0
835.0
831.0
832.0
826.0
826.0
827.0
833.0
832.0
835.0
832.0
825.0
825.0
830.0
830.0
829.0
826.0
827.0
829.0
831.0
832.0
828.0
825.0
821.0
819.0
817.0
817.0
820.0
817.0
818.0
820.0
823.0
824.0
822.0
815.0
810.0
810.0
810.0
810.0
811.0
807.0
812.0
814.0
818.0
820.0
820.0
817.0
815.0
811.0
818.0
818.0
819.0
817.0
817.0
818.0
825.0
826.0
824.0
824.0
821.0
819.0
819.0
825.0
823.0
823.0
824.0
827.0
830.0
837.0
834.0
834.0
832.0
828.0
831.0
832.0
840.0
843.0
847.0
849.0
855.0
859.0
866.0
869.0
869.0
865.0
864.0
866.0
867.0
871.0
872.0
868.0
868.0
865.0
863.0
863.0
856.0
855.0
850.0
851.0
851.0
847.0
840.0
834.0
830.0
829.0
832.0
832.0
829.0
822.0
818.0
816.0
814.0
818.0
820.0
819.0
819.0
816.0
817.0
819.0
819.0
816.0
812.0
811.0
810.0
805.0
799.0
789.0
780.0
776.0
782.0
792.0
809.0
833.0
864.0
904.0
944.0
984.0
1021.0
1056.0
1092.0
1125.0
1146.0
1164.0
1170.0
1168.0
1158.0
1144.0
1131.0
1113.0
1085.0
1036.0
975.0
917.0
873.0
846.0
835.0
835.0
839.0
844.0
847.0
847.0
844.0
831.0
821.0
812.0
808.0
803.0
804.0
805.0
801.0
797.0
798.0
806.0
807.0
808.0
809.0
813.0
812.0
815.0
815.0
812.0
807.0
805.0
805.0
805.0
812.0
812.0
813.0
811.0
808.0
810.0
811.0
813.0
809.0
805.0
802.0
806.0
809.0
818.0
818.0
819.0
815.0
814.0
816.0
815.0
817.0
818.0
811.0
811.0
811.0
822.0
823.0
826.0
823.0
819.0
819.0
821.0
822.0
823.0
821.0
819.0
820.0
827.0
828.0
831.0
829.0
825.0
823.0
823.0
826.0
827.0
830.0
820.0
823.0
822.0
831.0
835.0
836.0
833.0
834.0
829.0
833.0
830.0
832.0
829.0
830.0
831.0
831.0
833.0
831.0
829.0
832.0
832.0
828.0
827.0
821.0
820.0
823.0
828.0
832.0
833.0
830.0
826.0
824.0
824.0
825.0
828.0
821.0
818.0
823.0
827.0
830.0
829.0
824.0
821.0
821.0
820.0
821.0
818.0
815.0
810.0
810.0
816.0
821.0
820.0
818.0
814.0
810.0
810.0
813.0
811.0
807.0
803.0
807.0
810.0
814.0
814.0
811.0
808.0
807.0
810.0
808.0
813.0
808.0
806.0
807.0
813.0
814.0
814.0
817.0
814.0
814.0
818.0
815.0
814.0
812.0
812.0
817.0
821.0
818.0
820.0
823.0
827.0
829.0
827.0
828.0
823.0
821.0
825.0
827.0
839.0
842.0
841.0
845.0
848.0
851.0
856.0
859.0
860.0
859.0
861.0
865.0
866.0
864.0
862.0
857.0
858.0
857.0
858.0
856.0
847.0
846.0
846.0
849.0
852.0
850.0
847.0
835.0
829.0
821.0
821.0
820.0
819.0
815.0
812.0
812.0
816.0
817.0
817.0
816.0
810.0
808.0
806.0
807.0
814.0
809.0
808.0
808.0
807.0
810.0
810.0
803.0
791.0
777.0
767.0
770.0
780.0
800.0
833.0
876.0
925.0
970.0
1015.0
1049.0
1077.0
1108.0
1133.0
1151.0
1159.0
1156.0
1151.0
1143.0
1132.0
1115.0
1084.0
1030.0
966.0
899.0
856.0
829.0
820.0
814.0
826.0
835.0
842.0
844.0
833.0
818.0
808.0
799.0
799.0
799.0
797.0
794.0
788.0
789.0
795.0
798.0
803.0
799.0
798.0
797.0
797.0
801.0
802.0
799.0
794.0
796.0
800.0
802.0
806.0
804.0
802.0
799.0
798.0
799.0
801.0
798.0
797.0
798.0
797.0
803.0
807.0
808.0
805.0
802.0
799.0
800.0
801.0
798.0
795.0
796.0
801.0
801.0
801.0
802.0
798.0
799.0
800.0
803.0
802.0
802.0
801.0
800.0
807.0
812.0
816.0
815.0
813.0
810.0
809.0
813.0
809.0
808.0
808.0
809.0
809.0
813.0
817.0
815.0
816.0
814.0
812.0
815.0
817.0
816.0
814.0
812.0
816.0
819.0
822.0
821.0
820.0
816.0
813.0
816.0
818.0
812.0
814.0
815.0
817.0
819.0
823.0
817.0
814.0
812.0
811.0
810.0
815.0
810.0
811.0
810.0
811.0
815.0
820.0
822.0
817.0
814.0
810.0
812.0
806.0
806.0
802.0
805.0
807.0
808.0
807.0
804.0
803.0
801.0
803.0
803.0
799.0
797.0
793.0
794.0
799.0
803.0
805.0
803.0
800.0
795.0
793.0
797.0
798.0
801.0
798.0
799.0
801.0
806.0
807.0
806.0
805.0
804.0
802.0
806.0
809.0
810.0
807.0
805.0
805.0
809.0
812.0
819.0
818.0
811.0
811.0
812.0
814.0
818.0
820.0
816.0
815.0
821.0
826.0
836.0
841.0
842.0
842.0
845.0
850.0
854.0
859.0
858.0
860.0
859.0
860.0
866.0
865.0
862.0
856.0
853.0
851.0
851.0
849.0
848.0
849.0
848.0
849.0
841.0
830.0
827.0
821.0
820.0
817.0
815.0
817.0
809.0
812.0
814.0
819.0
820.0
817.0
815.0
810.0
812.0
813.0
812.0
811.0
810.0
809.0
810.0
811.0
806.0
792.0
777.0
770.0
771.0
784.0
801.0
824.0
860.0
894.0
936.0
975.0
1007.0
1038.0
1067.0
1094.0
1119.0
1141.0
1157.0
1165.0
1167.0
1161.0
1153.0
1142.0
1123.0
1084.0
1030.0
966.0
907.0
863.0
839.0
835.0
838.0
846.0
853.0
855.0
853.0
847.0
838.0
823.0
811.0
802.0
799.0
800.0
799.0
803.0
803.0
804.0
808.0
808.0
808.0
805.0
801.0
804.0
806.0
807.0
806.0
807.0
806.0
808.0
812.0
811.0
810.0
805.0
808.0
806.0
809.0
809.0
807.0
807.0
807.0
811.0
812.0
815.0
814.0
812.0
809.0
810.0
810.0
813.0
813.0
810.0
808.0
814.0
818.0
820.0
818.0
817.0
813.0
813.0
816.0
819.0
819.0
817.0
817.0
820.0
824.0
825.0
825.0
824.0
819.0
817.0
820.0
824.0
823.0
823.0
827.0
823.0
825.0
829.0
832.0
831.0
829.0
828.0
831.0
835.0
836.0
835.0
833.0
831.0
832.0
833.0
831.0
830.0
828.0
827.0
830.0
830.0
828.0
829.0
828.0
829.0
833.0
833.0
829.0
825.0
821.0
824.0
828.0
828.0
826.0
825.0
824.0
825.0
828.0
826.0
823.0
823.0
824.0
827.0
828.0
827.0
825.0
821.0
823.0
825.0
825.0
826.0
818.0
817.0
816.0
817.0
819.0
820.0
819.0
816.0
816.0
819.0
819.0
817.0
812.0
809.0
811.0
816.0
818.0
819.0
816.0
816.0
817.0
819.0
819.0
825.0
821.0
820.0
820.0
823.0
824.0
824.0
823.0
827.0
829.0
833.0
834.0
836.0
833.0
832.0
834.0
832.0
828.0
835.0
837.0
846.0
854.0
859.0
862.0
862.0
861.0
867.0
872.0
876.0
870.0
872.0
870.0
875.0
877.0
876.0
876.0
867.0
861.0
860.0
862.0
860.0
857.0
851.0
849.0
848.0
847.0
844.0
839.0
835.0
832.0
831.0
832.0
830.0
826.0
823.0
822.0
824.0
828.0
825.0
822.0
821.0
824.0
825.0
826.0
821.0
813.0
813.0
808.0
799.0
795.0
786.0
785.0
790.0
812.0
843.0
884.0
925.0
970.0
1012.0
1061.0
1100.0
1133.0
1160.0
1173.0
1184.0
1182.0
1168.0
1147.0
1119.0
1075.0
1015.0
950.0
891.0
853.0
837.0
837.0
849.0
860.0
864.0
863.0
856.0
846.0
838.0
828.0
822.0
816.0
814.0
815.0
817.0
819.0
813.0
807.0
807.0
809.0
811.0
816.0
816.0
815.0
815.0
812.0
816.0
816.0
819.0
813.0
813.0
812.0
813.0
815.0
818.0
818.0
819.0
819.0
820.0
823.0
823.0
818.0
817.0
814.0
814.0
816.0
820.0
821.0
819.0
818.0
819.0
822.0
823.0
822.0
820.0
816.0
820.0
824.0
826.0
825.0
826.0
826.0
827.0
830.0
828.0
824.0
821.0
822.0
826.0
830.0
832.0
832.0
832.0
837.0
839.0
840.0
839.0
834.0
832.0
833.0
836.0
837.0
839.0
839.0
835.0
838.0
841.0
844.0
842.0
838.0
837.0
839.0
837.0
839.0
841.0
835.0
833.0
837.0
838.0
839.0
834.0
833.0
832.0
835.0
836.0
838.0
840.0
839.0
836.0
840.0
842.0
840.0
837.0
831.0
827.0
829.0
827.0
830.0
828.0
833.0
832.0
833.0
836.0
837.0
833.0
826.0
826.0
825.0
824.0
824.0
826.0
826.0
828.0
827.0
828.0
829.0
821.0
821.0
820.0
822.0
824.0
824.0
824.0
825.0
825.0
828.0
832.0
834.0
832.0
826.0
823.0
823.0
828.0
831.0
835.0
837.0
836.0
833.0
835.0
837.0
835.0
833.0
831.0
830.0
833.0
839.0
842.0
846.0
843.0
846.0
843.0
847.0
847.0
851.0
850.0
849.0
853.0
860.0
870.0
875.0
877.0
880.0
883.0
883.0
880.0
880.0
872.0
872.0
873.0
874.0
875.0
878.0
873.0
868.0
866.0
867.0
867.0
865.0
859.0
851.0
847.0
841.0
846.0
847.0
845.0
841.0
834.0
832.0
835.0
828.0
825.0
823.0
820.0
827.0
832.0
835.0
832.0
830.0
831.0
829.0
829.0
829.0
823.0
813.0
807.0
797.0
790.0
789.0
788.0
792.0
801.0
825.0
856.0
901.0
943.0
982.0
1019.0
1052.0
1090.0
1122.0
1149.0
1164.0
1168.0
1167.0
1163.0
1159.0
1150.0
1134.0
1109.0
1068.0
1016.0
957.0
903.0
866.0
842.0
833.0
837.0
844.0
857.0
861.0
856.0
846.0
837.0
829.0
825.0
823.0
819.0
814.0
810.0
809.0
809.0
811.0
809.0
807.0
807.0
813.0
816.0
820.0
819.0
814.0
812.0
813.0
815.0
812.0
809.0
809.0
814.0
816.0
820.0
820.0
818.0
819.0
815.0
815.0
817.0
818.0
814.0
814.0
815.0
816.0
822.0
824.0
824.0
822.0
819.0
817.0
817.0
821.0
819.0
819.0
821.0
825.0
828.0
835.0
832.0
828.0
827.0
825.0
829.0
829.0
827.0
828.0
828.0
829.0
835.0
838.0
838.0
833.0
829.0
829.0
831.0
832.0
831.0
832.0
831.0
832.0
837.0
841.0
841.0
836.0
836.0
833.0
835.0
840.0
840.0
837.0
835.0
837.0
840.0
842.0
841.0
838.0
835.0
835.0
834.0
834.0
831.0
831.0
831.0
835.0
836.0
837.0
834.0
828.0
831.0
827.0
826.0
833.0
825.0
822.0
822.0
826.0
827.0
833.0
829.0
824.0
824.0
820.0
823.0
823.0
817.0
818.0
819.0
820.0
823.0
826.0
821.0
817.0
815.0
815.0
815.0
820.0
816.0
816.0
815.0
813.0
818.0
821.0
821.0
820.0
816.0
813.0
816.0
817.0
817.0
815.0
816.0
815.0
819.0
825.0
824.0
822.0
819.0
819.0
818.0
823.0
824.0
820.0
823.0
822.0
827.0
829.0
831.0
829.0
830.0
830.0
831.0
837.0
834.0
834.0
840.0
848.0
854.0
861.0
862.0
861.0
862.0
862.0
868.0
869.0
866.0
860.0
863.0
865.0
867.0
871.0
867.0
863.0
856.0
851.0
851.0
853.0
852.0
846.0
842.0
839.0
837.0
834.0
832.0
825.0
819.0
816.0
823.0
821.0
819.0
816.0
811.0
813.0
817.0
822.0
819.0
814.0
812.0
811.0
810.0
811.0
807.0
805.0
800.0
796.0
788.0
783.0
778.0
777.0
787.0
806.0
837.0
873.0
911.0
948.0
981.0
1021.0
1056.0
1092.0
1120.0
1136.0
1145.0
1149.0
1151.0
1141.0
1127.0
1110.0
1076.0
1028.0
971.0
911.0
862.0
828.0
811.0
813.0
826.0
836.0
840.0
834.0
827.0
822.0
816.0
810.0
804.0
796.0
793.0
793.0
793.0
795.0
793.0
796.0
797.0
798.0
803.0
806.0
807.0
803.0
797.0
799.0
800.0
802.0
800.0
799.0
798.0
799.0
803.0
805.0
805.0
804.0
799.0
799.0
802.0
803.0
802.0
797.0
799.0
805.0
811.0
816.0
812.0
808.0
807.0
808.0
810.0
812.0
810.0
812.0
810.0
814.0
816.0
819.0
819.0
818.0
816.0
813.0
815.0
817.0
815.0
811.0
815.0
821.0
823.0
822.0
819.0
819.0
820.0
820.0
819.0
823.0
818.0
818.0
823.0
826.0
830.0
829.0
827.0
827.0
823.0
827.0
824.0
828.0
823.0
819.0
817.0
823.0
825.0
828.0
826.0
820.0
820.0
818.0
820.0
820.0
818.0
817.0
817.0
817.0
821.0
825.0
824.0
821.0
819.0
816.0
817.0
818.0
815.0
816.0
814.0
817.0
816.0
820.0
817.0
814.0
810.0
808.0
812.0
806.0
811.0
805.0
807.0
806.0
808.0
809.0
810.0
805.0
800.0
802.0
803.0
804.0
800.0
797.0
799.0
802.0
806.0
806.0
806.0
802.0
802.0
804.0
807.0
806.0
804.0
804.0
802.0
807.0
813.0
811.0
809.0
809.0
805.0
808.0
810.0
808.0
804.0
803.0
806.0
