# Simple Text Format
# Sampling Rate (Hz):= 360.00
# Resolution:= 12
# Labels:= ECG
1115.0
1081.0
1025.0
962.0
907.0
865.0
840.0
829.0
832.0
837.0
844.0
848.0
852.0
848.0
836.0
824.0
812.0
801.0
798.0
803.0
801.0
801.0
799.0
799.0
802.0
804.0
808.0
808.0
806.0
802.0
797.0
797.0
805.0
803.0
805.0
802.0
802.0
804.0
806.0
805.0
806.0
804.0
801.0
799.0
800.0
800.0
796.0
801.0
808.0
812.0
815.0
813.0
810.0
806.0
806.0
808.0
806.0
807.0
806.0
809.0
812.0
815.0
818.0
818.0
817.0
811.0
811.0
811.0
815.0
815.0
814.0
816.0
818.0
828.0
830.0
826.0
820.0
823.0
821.0
824.0
827.0
824.0
821.0
820.0
825.0
830.0
832.0
829.0
823.0
823.0
822.0
824.0
825.0
829.0
829.0
829.0
829.0
833.0
837.0
835.0
833.0
826.0
826.0
826.0
825.0
827.0
825.0
822.0
823.0
826.0
831.0
832.0
827.0
821.0
820.0
820.0
822.0
818.0
818.0
821.0
823.0
826.0
828.0
824.0
822.0
816.0
817.0
820.0
818.0
816.0
814.0
814.0
817.0
818.0
819.0
817.0
814.0
806.0
809.0
808.0
808.0
804.0
807.0
807.0
810.0
814.0
812.0
808.0
803.0
805.0
807.0
809.0
809.0
807.0
807.0
808.0
808.0
813.0
815.0
814.0
809.0
810.0
810.0
813.0
813.0
812.0
813.0
815.0
817.0
823.0
821.0
818.0
812.0
812.0
814.0
821.0
821.0
823.0
823.0
825.0
829.0
830.0
832.0
828.0
827.0
828.0
831.0
835.0
842.0
844.0
855.0
862.0
867.0
871.0
870.0
869.0
867.0
868.0
869.0
867.0
863.0
859.0
859.0
862.0
860.0
862.0
860.0
855.0
852.0
846.0
843.0
837.0
832.0
826.0
824.0
829.0
831.0
831.0
830.0
826.0
819.0
818.0
820.0
817.0
817.0
811.0
814.0
819.0
821.0
827.0
822.0
820.0
817.0
811.0
809.0
809.0
802.0
790.0
779.0
776.0
781.0
796.0
814.0
840.0
873.0
912.0
954.0
993.0
1033.0
1064.0
1098.0
1124.0
1152.0
1170.0
1180.0
1175.0
1165.0
1147.0
1119.0
1069.0
1001.0
934.0
877.0
844.0
834.0
836.0
846.0
852.0
859.0
860.0
850.0
836.0
822.0
812.0
809.0
807.0
805.0
808.0
806.0
804.0
804.0
808.0
812.0
813.0
811.0
810.0
813.0
819.0
819.0
820.0
817.0
813.0
813.0
812.0
815.0
815.0
811.0
809.0
807.0
811.0
815.0
819.0
820.0
817.0
811.0
817.0
820.0
823.0
820.0
820.0
819.0
818.0
816.0
820.0
825.0
822.0
820.0
821.0
819.0
823.0
820.0
821.0
821.0
822.0
827.0
833.0
834.0
834.0
833.0
831.0
831.0
832.0
828.0
827.0
825.0
827.0
834.0
835.0
837.0
834.0
833.0
837.0
841.0
844.0
842.0
837.0
838.0
837.0
840.0
847.0
844.0
840.0
841.0
835.0
837.0
838.0
840.0
840.0
838.0
839.0
841.0
847.0
844.0
841.0
834.0
834.0
832.0
837.0
835.0
839.0
838.0
837.0
839.0
844.0
844.0
842.0
838.0
829.0
829.0
831.0
834.0
837.0
834.0
838.0
831.0
836.0
840.0
839.0
838.0
835.0
830.0
827.0
829.0
827.0
829.0
828.0
825.0
827.0
829.0
836.0
835.0
832.0
824.0
824.0
822.0
824.0
821.0
823.0
822.0
826.0
828.0
833.0
829.0
823.0
821.0
824.0
826.0
827.0
827.0
826.0
829.0
829.0
831.0
837.0
835.0
831.0
826.0
825.0
827.0
831.0
833.0
833.0
833.0
829.0
834.0
839.0
844.0
845.0
844.0
839.0
841.0
842.0
844.0
847.0
849.0
850.0
855.0
859.0
866.0
867.0
866.0
866.0
869.0
873.0
880.0
884.0
887.0
882.0
880.0
879.0
880.0
881.0
879.0
875.0
869.0
869.0
867.0
868.0
870.0
866.0
861.0
854.0
847.0
847.0
845.0
844.0
838.0
834.0
834.0
831.0
835.0
832.0
831.0
827.0
828.0
831.0
834.0
829.0
826.0
822.0
824.0
825.0
831.0
830.0
825.0
818.0
812.0
804.0
796.0
788.0
787.0
798.0
822.0
855.0
900.0
944.0
987.0
1026.0
1065.0
1101.0
1131.0
1149.0
1162.0
1169.0
1170.0
1172.0
1166.0
1155.0
1131.0
1094.0
1047.0
985.0
925.0
873.0
839.0
826.0
833.0
851.0
866.0
873.0
870.0
861.0
849.0
841.0
832.0
823.0
819.0
815.0
815.0
821.0
822.0
827.0
823.0
819.0
819.0
822.0
823.0
825.0
824.0
819.0
819.0
825.0
829.0
830.0
829.0
827.0
826.0
828.0
829.0
827.0
822.0
820.0
826.0
829.0
831.0
829.0
833.0
830.0
831.0
833.0
834.0
831.0
829.0
826.0
827.0
832.0
840.0
841.0
840.0
838.0
838.0
837.0
837.0
837.0
834.0
834.0
837.0
841.0
846.0
846.0
847.0
844.0
841.0
843.0
845.0
847.0
846.0
842.0
841.0
844.0
848.0
851.0
849.0
846.0
845.0
847.0
848.0
848.0
847.0
845.0
845.0
844.0
849.0
852.0
857.0
852.0
851.0
848.0
849.0
850.0
850.0
846.0
846.0
847.0
851.0
852.0
849.0
847.0
847.0
850.0
846.0
842.0
841.0
841.0
841.0
849.0
842.0
843.0
843.0
844.0
847.0
846.0
839.0
834.0
838.0
837.0
836.0
838.0
835.0
835.0
838.0
838.0
835.0
831.0
827.0
828.0
827.0
829.0
827.0
826.0
828.0
827.0
834.0
834.0
832.0
829.0
826.0
825.0
827.0
828.0
831.0
827.0
831.0
834.0
836.0
838.0
834.0
830.0
828.0
826.0
833.0
831.0
828.0
826.0
830.0
832.0
838.0
840.0
835.0
832.0
829.0
834.0
837.0
835.0
837.0
835.0
840.0
844.0
845.0
846.0
843.0
849.0
853.0
858.0
861.0
862.0
864.0
871.0
880.0
885.0
884.0
881.0
875.0
877.0
879.0
879.0
878.0
871.0
867.0
869.0
869.0
871.0
872.0
870.0
864.0
859.0
855.0
849.0
841.0
834.0
829.0
829.0
835.0
836.0
835.0
833.0
829.0
830.0
829.0
827.0
823.0
822.0
824.0
825.0
829.0
830.0
826.0
823.0
822.0
820.0
812.0
800.0
788.0
782.0
786.0
801.0
828.0
858.0
896.0
936.0
981.0
1025.0
1062.0
1094.0
1120.0
1143.0
1159.0
1164.0
1165.0
1160.0
1151.0
1130.0
1105.0
1058.0
995.0
925.0
871.0
840.0
827.0
829.0
842.0
849.0
854.0
854.0
848.0
839.0
826.0
818.0
806.0
806.0
805.0
810.0
813.0
816.0
813.0
813.0
817.0
816.0
812.0
809.0
809.0
811.0
813.0
815.0
819.0
814.0
814.0
816.0
818.0
820.0
819.0
816.0
812.0
811.0
813.0
812.0
816.0
812.0
813.0
816.0
820.0
825.0
821.0
818.0
818.0
817.0
818.0
825.0
826.0
827.0
826.0
826.0
829.0
830.0
830.0
825.0
824.0
826.0
827.0
832.0
834.0
834.0
836.0
833.0
839.0
839.0
834.0
832.0
834.0
834.0
839.0
839.0
839.0
835.0
838.0
838.0
839.0
840.0
837.0
834.0
832.0
832.0
837.0
841.0
840.0
838.0
836.0
836.0
838.0
839.0
836.0
831.0
831.0
831.0
831.0
836.0
835.0
834.0
830.0
829.0
830.0
832.0
833.0
829.0
826.0
824.0
828.0
832.0
831.0
831.0
830.0
829.0
829.0
830.0
830.0
826.0
819.0
818.0
822.0
821.0
825.0
824.0
820.0
817.0
820.0
818.0
818.0
814.0
811.0
810.0
810.0
810.0
812.0
810.0
810.0
810.0
811.0
811.0
809.0
806.0
803.0
805.0
808.0
811.0
812.0
811.0
811.0
810.0
810.0
813.0
814.0
812.0
807.0
806.0
807.0
809.0
813.0
818.0
815.0
813.0
813.0
816.0
814.0
816.0
814.0
810.0
812.0
814.0
818.0
822.0
820.0
818.0
816.0
818.0
818.0
818.0
818.0
814.0
814.0
819.0
825.0
829.0
834.0
828.0
826.0
827.0
832.0
835.0
837.0
841.0
842.0
846.0
854.0
863.0
866.0
867.0
862.0
859.0
859.0
860.0
859.0
856.0
849.0
852.0
852.0
854.0
851.0
850.0
844.0
840.0
841.0
837.0
829.0
821.0
818.0
817.0
820.0
820.0
815.0
815.0
812.0
810.0
811.0
813.0
807.0
801.0
801.0
803.0
808.0
813.0
811.0
809.0
806.0
802.0
801.0
800.0
793.0
783.0
772.0
765.0
767.0
778.0
796.0
818.0
846.0
887.0
929.0
970.0
1006.0
1042.0
1075.0
1106.0
1134.0
1153.0
1166.0
1162.0
1156.0
1147.0
1132.0
1108.0
1071.0
1020.0
955.0
895.0
850.0
827.0
817.0
819.0
827.0
835.0
836.0
838.0
821.0
812.0
800.0
793.0
794.0
794.0
796.0
795.0
793.0
795.0
795.0
796.0
793.0
792.0
793.0
795.0
798.0
801.0
800.0
799.0
798.0
802.0
801.0
798.0
794.0
793.0
795.0
799.0
803.0
804.0
802.0
800.0
800.0
799.0
804.0
806.0
802.0
800.0
799.0
803.0
808.0
807.0
809.0
809.0
812.0
814.0
814.0
809.0
808.0
808.0
811.0
813.0
818.0
819.0
818.0
816.0
817.0
823.0
820.0
820.0
816.0
815.0
816.0
822.0
824.0
823.0
820.0
824.0
824.0
828.0
827.0
819.0
819.0
820.0
824.0
823.0
825.0
823.0
823.0
824.0
824.0
828.0
822.0
819.0
814.0
815.0
821.0
820.0
817.0
817.0
819.0
822.0
822.0
821.0
813.0
811.0
813.0
816.0
818.0
819.0
819.0
815.0
818.0
819.0
822.0
818.0
813.0
808.0
802.0
808.0
811.0
808.0
810.0
805.0
808.0
808.0
810.0
808.0
802.0
797.0
797.0
800.0
801.0
802.0
796.0
795.0
795.0
804.0
802.0
803.0
797.0
793.0
793.0
794.0
795.0
796.0
793.0
797.0
801.0
802.0
803.0
803.0
799.0
794.0
796.0
799.0
802.0
802.0
803.0
801.0
803.0
808.0
809.0
805.0
802.0
798.0
800.0
807.0
806.0
802.0
804.0
808.0
813.0
813.0
812.0
808.0
808.0
810.0
812.0
808.0
809.0
807.0
810.0
817.0
821.0
820.0
821.0
820.0
812.0
815.0
823.0
824.0
826.0
831.0
835.0
845.0
851.0
857.0
852.0
850.0
851.0
850.0
853.0
849.0
847.0
846.0
843.0
844.0
844.0
844.0
841.0
836.0
837.0
835.0
830.0
828.0
822.0
814.0
815.0
817.0
814.0
814.0
810.0
803.0
803.0
800.0
804.0
799.0
797.0
794.0
801.0
804.0
808.0
808.0
806.0
804.0
797.0
799.0
800.0
797.0
788.0
779.0
768.0
766.0
766.0
773.0
785.0
804.0
834.0
871.0
912.0
953.0
987.0
1020.0
1051.0
1081.0
1114.0
1141.0
1154.0
1156.0
1152.0
1143.0
1134.0
1119.0
1100.0
1062.0
1009.0
947.0
892.0
850.0
823.0
811.0
812.0
819.0
832.0
837.0
832.0
826.0
813.0
802.0
798.0
797.0
797.0
790.0
788.0
784.0
786.0
785.0
790.0
790.0
789.0
793.0
794.0
797.0
798.0
793.0
790.0
791.0
792.0
793.0
797.0
796.0
794.0
792.0
799.0
800.0
802.0
801.0
797.0
797.0
801.0
801.0
798.0
799.0
797.0
801.0
805.0
807.0
806.0
802.0
802.0
801.0
805.0
806.0
801.0
801.0
800.0
801.0
812.0
815.0
810.0
808.0
807.0
811.0
810.0
812.0
812.0
812.0
813.0
818.0
822.0
825.0
821.0
818.0
811.0
818.0
819.0
819.0
819.0
817.0
816.0
819.0
826.0
831.0
827.0
824.0
817.0
817.0
817.0
819.0
816.0
816.0
820.0
820.0
821.0
824.0
822.0
815.0
809.0
810.0
813.0
813.0
811.0
811.0
812.0
813.0
817.0
825.0
821.0
819.0
814.0
811.0
815.0
813.0
812.0
811.0
810.0
812.0
816.0
817.0
813.0
807.0
807.0
807.0
811.0
807.0
802.0
801.0
804.0
808.0
810.0
808.0
805.0
801.0
795.0
795.0
798.0
801.0
793.0
795.0
798.0
799.0
799.0
805.0
798.0
798.0
799.0
802.0
803.0
808.0
804.0
804.0
805.0
805.0
810.0
812.0
812.0
809.0
805.0
801.0
808.0
809.0
808.0
807.0
806.0
812.0
810.0
812.0
814.0
812.0
810.0
806.0
806.0
812.0
814.0
810.0
809.0
810.0
816.0
820.0
818.0
814.0
812.0
813.0
814.0
818.0
817.0
819.0
821.0
824.0
827.0
827.0
829.0
827.0
828.0
831.0
836.0
840.0
842.0
844.0
845.0
851.0
858.0
861.0
860.0
855.0
854.0
855.0
859.0
860.0
858.0
854.0
849.0
850.0
849.0
851.0
850.0
845.0
839.0
839.0
832.0
830.0
826.0
821.0
817.0
816.0
817.0
820.0
816.0
810.0
808.0
805.0
807.0
808.0
805.0
804.0
807.0
814.0
817.0
816.0
812.0
807.0
803.0
797.0
800.0
797.0
789.0
780.0
769.0
768.0
774.0
788.0
811.0
841.0
879.0
920.0
966.0
1008.0
1046.0
1081.0
1116.0
1144.0
1163.0
1178.0
1181.0
1174.0
1159.0
1139.0
1110.0
1064.0
1003.0
939.0
878.0
843.0
828.0
827.0
833.0
841.0
843.0
847.0
842.0
833.0
818.0
807.0
801.0
800.0
800.0
801.0
800.0
793.0
794.0
794.0
794.0
796.0
792.0
796.0
797.0
803.0
808.0
809.0
809.0
804.0
802.0
799.0
800.0
800.0
801.0
803.0
806.0
811.0
813.0
813.0
808.0
803.0
804.0
804.0
805.0
804.0
805.0
806.0
811.0
812.0
819.0
821.0
817.0
814.0
812.0
814.0
814.0
812.0
813.0
811.0
816.0
820.0
825.0
822.0
818.0
820.0
821.0
823.0
824.0
821.0
821.0
820.0
825.0
831.0
832.0
832.0
831.0
828.0
833.0
831.0
831.0
831.0
828.0
825.0
830.0
834.0
836.0
838.0
832.0
832.0
830.0
837.0
837.0
835.0
832.0
829.0
830.0
834.0
835.0
835.0
833.0
829.0
832.0
833.0
831.0
830.0
828.0
824.0
826.0
831.0
829.0
829.0
828.0
828.0
827.0
826.0
828.0
827.0
823.0
821.0
825.0
831.0
833.0
833.0
830.0
822.0
819.0
820.0
823.0
824.0
819.0
815.0
816.0
820.0
822.0
818.0
814.0
815.0
813.0
820.0
815.0
816.0
812.0
812.0
820.0
825.0
825.0
825.0
822.0
819.0
821.0
822.0
817.0
816.0
810.0
815.0
816.0
819.0
824.0
823.0
821.0
823.0
826.0
826.0
827.0
825.0
822.0
824.0
829.0
832.0
831.0
830.0
826.0
825.0
825.0
825.0
822.0
821.0
817.0
821.0
831.0
840.0
844.0
846.0
842.0
844.0
843.0
844.0
842.0
841.0
842.0
847.0
855.0
864.0
870.0
875.0
873.0
875.0
877.0
879.0
881.0
877.0
873.0
873.0
875.0
873.0
871.0
869.0
864.0
862.0
865.0
868.0
864.0
857.0
850.0
846.0
846.0
845.0
842.0
837.0
834.0
833.0
834.0
833.0
832.0
827.0
821.0
820.0
826.0
830.0
834.0
833.0
834.0
832.0
834.0
834.0
834.0
825.0
821.0
817.0
809.0
803.0
795.0
791.0
789.0
799.0
818.0
851.0
886.0
929.0
965.0
1003.0
1038.0
1077.0
1104.0
1132.0
1151.0
1164.0
1171.0
1174.0
1172.0
1162.0
1141.0
1112.0
1073.0
1020.0
957.0
903.0
862.0
842.0
839.0
847.0
858.0
871.0
869.0
862.0
852.0
850.0
843.0
835.0
831.0
821.0
817.0
817.0
820.0
821.0
818.0
817.0
819.0
824.0
828.0
833.0
831.0
826.0
823.0
824.0
826.0
828.0
830.0
826.0
823.0
825.0
827.0
833.0
833.0
832.0
829.0
827.0
830.0
830.0
830.0
830.0
827.0
827.0
828.0
834.0
835.0
834.0
831.0
826.0
828.0
831.0
837.0
836.0
836.0
836.0
837.0
839.0
843.0
845.0
843.0
843.0
838.0
840.0
842.0
847.0
848.0
848.0
846.0
847.0
849.0
850.0
846.0
846.0
844.0
844.0
844.0
846.0
852.0
850.0
850.0
853.0
856.0
852.0
853.0
849.0
850.0
849.0
851.0
854.0
852.0
849.0
850.0
853.0
852.0
851.0
851.0
848.0
845.0
845.0
848.0
850.0
850.0
846.0
846.0
850.0
852.0
853.0
852.0
850.0
845.0
843.0
844.0
845.0
849.0
847.0
846.0
847.0
849.0
850.0
851.0
848.0
844.0
845.0
844.0
846.0
845.0
846.0
843.0
843.0
845.0
844.0
845.0
840.0
839.0
834.0
835.0
835.0
840.0
843.0
838.0
835.0
834.0
836.0
840.0
838.0
841.0
835.0
833.0
834.0
836.0
841.0
841.0
840.0
836.0
835.0
835.0
840.0
841.0
840.0
837.0
836.0
843.0
847.0
846.0
846.0
844.0
844.0
842.0
846.0
845.0
841.0
840.0
842.0
844.0
849.0
850.0
849.0
846.0
846.0
849.0
851.0
856.0
855.0
851.0
849.0
854.0
858.0
863.0
870.0
871.0
870.0
874.0
879.0
883.0
884.0
883.0
884.0
887.0
890.0
896.0
894.0
894.0
887.0
885.0
883.0
883.0
883.0
878.0
876.0
872.0
877.0
877.0
876.0
872.0
865.0
858.0
853.0
852.0
853.0
848.0
839.0
839.0
842.0
844.0
847.0
845.0
842.0
838.0
837.0
839.0
840.0
840.0
838.0
839.0
842.0
839.0
836.0
830.0
820.0
809.0
798.0
800.0
810.0
829.0
865.0
913.0
961.0
1007.0
1043.0
1078.0
1107.0
1136.0
1157.0
1172.0
1176.0
1174.0
1171.0
1160.0
1152.0
1137.0
1107.0
1060.0
996.0
933.0
882.0
850.0
833.0
835.0
851.0
865.0
872.0
871.0
860.0
849.0
839.0
832.0
831.0
825.0
821.0
820.0
819.0
824.0
827.0
827.0
827.0
826.0
828.0
830.0
831.0
826.0
826.0
821.0
822.0
827.0
829.0
833.0
830.0
830.0
826.0
830.0
830.0
827.0
825.0
824.0
826.0
829.0
830.0
830.0
832.0
834.0
835.0
836.0
835.0
833.0
833.0
834.0
837.0
841.0
841.0
837.0
841.0
843.0
846.0
846.0
842.0
840.0
839.0
840.0
841.0
845.0
845.0
845.0
845.0
847.0
850.0
852.0
846.0
842.0
842.0
843.0
848.0
849.0
849.0
846.0
847.0
849.0
851.0
854.0
849.0
848.0
843.0
843.0
846.0
848.0
853.0
850.0
849.0
851.0
850.0
851.0
845.0
844.0
838.0
841.0
843.0
847.0
847.0
846.0
843.0
844.0
849.0
850.0
844.0
840.0
837.0
840.0
842.0
843.0
843.0
843.0
840.0
842.0
842.0
838.0
838.0
831.0
831.0
831.0
832.0
834.0
834.0
832.0
832.0
830.0
831.0
833.0
829.0
823.0
818.0
819.0
824.0
822.0
824.0
824.0
824.0
824.0
828.0
828.0
825.0
820.0
818.0
815.0
823.0
825.0
828.0
824.0
823.0
825.0
825.0
829.0
829.0
827.0
824.0
825.0
823.0
826.0
827.0
828.0
828.0
827.0
831.0
833.0
835.0
833.0
827.0
822.0
825.0
830.0
836.0
836.0
831.0
831.0
832.0
837.0
838.0
841.0
835.0
834.0
831.0
839.0
844.0
850.0
849.0
852.0
860.0
866.0
870.0
869.0
870.0
872.0
873.0
876.0
877.0
876.0
873.0
872.0
875.0
876.0
871.0
866.0
857.0
859.0
854.0
861.0
860.0
856.0
854.0
847.0
843.0
839.0
838.0
833.0
825.0
823.0
826.0
827.0
830.0
827.0
825.0
822.0
822.0
824.0
827.0
824.0
821.0
819.0
821.0
824.0
827.0
826.0
822.0
814.0
808.0
800.0
792.0
787.0
790.0
803.0
824.0
859.0
901.0
939.0
977.0
1012.0
1043.0
1079.0
1110.0
1137.0
1154.0
1161.0
1167.0
1167.0
1161.0
1148.0
1128.0
1094.0
1047.0
979.0
920.0
866.0
830.0
815.0
822.0
837.0
851.0
851.0
849.0
840.0
830.0
821.0
820.0
810.0
804.0
802.0
805.0
807.0
809.0
810.0
811.0
812.0
811.0
811.0
813.0
815.0
812.0
809.0
810.0
814.0
815.0
818.0
817.0
814.0
815.0
815.0
815.0
812.0
812.0
813.0
811.0
813.0
820.0
820.0
816.0
816.0
818.0
819.0
821.0
821.0
817.0
812.0
811.0
814.0
822.0
824.0
826.0
823.0
822.0
825.0
826.0
825.0
828.0
821.0
825.0
826.0
833.0
835.0
835.0
834.0
836.0
837.0
832.0
834.0
829.0
828.0
829.0
834.0
836.0
838.0
837.0
837.0
838.0
840.0
839.0
838.0
835.0
833.0
837.0
838.0
840.0
840.0
838.0
839.0
839.0
841.0
839.0
837.0
832.0
830.0
831.0
834.0
838.0
834.0
832.0
835.0
835.0
834.0
834.0
836.0
831.0
827.0
826.0
830.0
833.0
830.0
833.0
831.0
825.0
831.0
833.0
827.0
823.0
821.0
822.0
823.0
827.0
826.0
822.0
823.0
823.0
823.0
824.0
819.0
816.0
813.0
813.0
815.0
813.0
815.0
816.0
814.0
819.0
819.0
815.0
813.0
812.0
812.0
812.0
816.0
815.0
813.0
818.0
820.0
821.0
822.0
818.0
818.0
819.0
817.0
821.0
822.0
822.0
820.0
821.0
827.0
825.0
825.0
824.0
821.0
822.0
822.0
822.0
824.0
821.0
825.0
828.0
835.0
834.0
837.0
835.0
832.0
829.0
828.0
832.0
836.0
839.0
840.0
846.0
855.0
863.0
865.0
867.0
868.0
865.0
864.0
867.0
868.0
869.0
871.0
870.0
871.0
871.0
866.0
861.0
856.0
856.0
860.0
857.0
851.0
846.0
843.0
839.0
842.0
839.0
832.0
827.0
821.0
822.0
820.0
821.0
817.0
815.0
817.0
819.0
821.0
818.0
820.0
817.0
815.0
814.0
817.0
814.0
811.0
805.0
799.0
798.0
790.0
782.0
783.0
789.0
807.0
833.0
867.0
911.0
951.0
995.0
1033.0
1072.0
1106.0
1136.0
1153.0
1161.0
1168.0
1164.0
1158.0
1145.0
1130.0
1103.0
1062.0
1007.0
948.0
890.0
847.0
826.0
823.0
832.0
845.0
850.0
850.0
839.0
833.0
828.0
821.0
810.0
802.0
806.0
806.0
808.0
806.0
803.0
803.0
806.0
812.0
814.0
816.0
817.0
813.0
812.0
811.0
813.0
809.0
807.0
810.0
817.0
816.0
816.0
816.0
816.0
817.0
820.0
820.0
817.0
813.0
810.0
813.0
820.0
822.0
823.0
821.0
818.0
821.0
823.0
821.0
821.0
819.0
819.0
821.0
827.0
827.0
832.0
831.0
828.0
830.0
832.0
827.0
831.0
830.0
828.0
827.0
832.0
838.0
838.0
838.0
835.0
833.0
836.0
837.0
837.0
835.0
832.0
830.0
834.0
838.0
839.0
841.0
839.0
838.0
832.0
839.0
837.0
834.0
829.0
830.0
831.0
835.0
841.0
841.0
838.0
833.0
831.0
833.0
832.0
832.0
827.0
826.0
829.0
832.0
833.0
834.0
830.0
825.0
828.0
829.0
829.0
828.0
824.0
821.0
822.0
827.0
829.0
831.0
831.0
824.0
823.0
822.0
823.0
825.0
820.0
816.0
816.0
814.0
817.0
821.0
822.0
815.0
810.0
808.0
811.0
811.0
811.0
812.0
808.0
809.0
812.0
816.0
816.0
818.0
814.0
811.0
811.0
815.0
813.0
816.0
815.0
815.0
820.0
819.0
822.0
822.0
819.0
815.0
814.0
817.0
821.0
823.0
819.0
822.0
818.0
821.0
828.0
827.0
825.0
823.0
821.0
820.0
826.0
829.0
829.0
830.0
831.0
834.0
837.0
834.0
835.0
830.0
827.0
835.0
840.0
846.0
854.0
854.0
855.0
861.0
865.0
870.0
869.0
866.0
864.0
864.0
865.0
868.0
871.0
870.0
869.0
867.0
867.0
866.0
862.0
859.0
854.0
852.0
853.0
855.0
853.0
848.0
845.0
837.0
837.0
834.0
835.0
831.0
827.0
823.0
816.0
819.0
824.0
829.0
828.0
828.0
825.0
821.0
825.0
825.0
829.0
826.0
820.0
816.0
817.0
820.0
820.0
812.0
797.0
786.0
778.0
778.0
790.0
810.0
838.0
874.0
921.0
972.0
1016.0
1053.0
1086.0
1117.0
1143.0
1161.0
1175.0
1179.0
1179.0
1173.0
1163.0
1148.0
1127.0
1090.0
1036.0
967.0
911.0
867.0
848.0
843.0
843.0
850.0
856.0
864.0
863.0
862.0
849.0
831.0
820.0
812.0
806.0
807.0
806.0
805.0
805.0
810.0
813.0
821.0
822.0
818.0
815.0
812.0
811.0
812.0
813.0
816.0
813.0
812.0
818.0
820.0
825.0
826.0
821.0
815.0
812.0
810.0
813.0
815.0
818.0
819.0
816.0
819.0
820.0
823.0
823.0
818.0
815.0
812.0
813.0
819.0
826.0
826.0
823.0
825.0
826.0
827.0
825.0
824.0
822.0
827.0
828.0
828.0
832.0
829.0
828.0
830.0
829.0
832.0
836.0
835.0
831.0
827.0
829.0
831.0
833.0
837.0
839.0
839.0
839.0
837.0
837.0
839.0
837.0
835.0
834.0
829.0
838.0
844.0
847.0
848.0
846.0
842.0
839.0
838.0
840.0
839.0
835.0
832.0
835.0
837.0
841.0
844.0
846.0
841.0
837.0
836.0
838.0
837.0
834.0
833.0
831.0
835.0
839.0
844.0
847.0
843.0
840.0
833.0
835.0
840.0
838.0
838.0
838.0
838.0
837.0
841.0
840.0
834.0
832.0
833.0
833.0
832.0
831.0
828.0
828.0
832.0
830.0
834.0
830.0
830.0
826.0
826.0
826.0
825.0
822.0
818.0
822.0
829.0
830.0
835.0
833.0
830.0
827.0
826.0
828.0
826.0
822.0
819.0
821.0
831.0
838.0
842.0
840.0
834.0
830.0
829.0
830.0
828.0
829.0
828.0
831.0
832.0
841.0
846.0
848.0
847.0
845.0
840.0
841.0
846.0
843.0
846.0
852.0
859.0
868.0
872.0
873.0
873.0
871.0
868.0
874.0
877.0
883.0
883.0
884.0
884.0
885.0
887.0
887.0
882.0
879.0
876.0
874.0
872.0
868.0
862.0
857.0
854.0
853.0
847.0
843.0
837.0
839.0
840.0
844.0
842.0
838.0
833.0
835.0
838.0
837.0
841.0
835.0
835.0
833.0
837.0
839.0
835.0
829.0
821.0
812.0
805.0
800.0
793.0
790.0
797.0
817.0
845.0
883.0
920.0
957.0
993.0
1024.0
1063.0
1100.0
1130.0
1155.0
1167.0
1175.0
1171.0
1178.0
1172.0
1156.0
1136.0
1099.0
1056.0
1002.0
946.0
894.0
856.0
835.0
837.0
844.0
860.0
867.0
867.0
859.0
852.0
843.0
836.0
830.0
824.0
822.0
819.0
821.0
825.0
824.0
825.0
822.0
828.0
831.0
828.0
827.0
824.0
826.0
830.0
831.0
827.0
824.0
824.0
827.0
831.0
836.0
836.0
834.0
831.0
828.0
830.0
834.0
833.0
826.0
826.0
828.0
830.0
833.0
836.0
835.0
835.0
834.0
835.0
839.0
838.0
837.0
834.0
834.0
836.0
839.0
843.0
843.0
838.0
837.0
836.0
841.0
842.0
844.0
845.0
841.0
843.0
846.0
852.0
850.0
847.0
846.0
845.0
848.0
847.0
852.0
848.0
849.0
853.0
850.0
853.0
856.0
852.0
849.0
851.0
850.0
851.0
850.0
848.0
850.0
852.0
854.0
858.0
854.0
852.0
846.0
846.0
850.0
850.0
847.0
843.0
847.0
850.0
855.0
855.0
854.0
851.0
848.0
846.0
850.0
850.0
848.0
847.0
847.0
850.0
852.0
853.0
852.0
848.0
844.0
844.0
841.0
845.0
845.0
845.0
842.0
839.0
840.0
845.0
848.0
847.0
843.0
839.0
834.0
836.0
835.0
836.0
834.0
832.0
834.0
839.0
840.0
844.0
841.0
839.0
835.0
834.0
837.0
841.0
837.0
840.0
840.0
841.0
846.0
844.0
844.0
841.0
837.0
837.0
838.0
843.0
847.0
846.0
844.0
845.0
849.0
850.0
850.0
850.0
850.0
849.0
852.0
855.0
858.0
857.0
858.0
859.0
862.0
864.0
870.0
873.0
874.0
877.0
881.0
884.0
892.0
892.0
893.0
892.0
893.0
893.0
896.0
895.0
891.0
884.0
881.0
881.0
883.0
885.0
886.0
884.0
876.0
876.0
873.0
868.0
862.0
856.0
852.0
852.0
851.0
854.0
852.0
852.0
848.0
848.0
846.0
849.0
846.0
844.0
843.0
841.0
844.0
851.0
852.0
849.0
847.0
839.0
838.0
831.0
822.0
810.0
802.0
804.0
818.0
844.0
884.0
929.0
976.0
1025.0
1072.0
1110.0
1139.0
1160.0
1174.0
1180.0
1185.0
1179.0
1169.0
1157.0
1142.0
1122.0
1088.0
1036.0
969.0
911.0
866.0
848.0
846.0
856.0
865.0
872.0
876.0
873.0
863.0
851.0
842.0
833.0
827.0
829.0
834.0
835.0
840.0
833.0
835.0
834.0
838.0
838.0
837.0
835.0
833.0
835.0
838.0
840.0
840.0
839.0
838.0
836.0
838.0
841.0
843.0
839.0
837.0
834.0
834.0
842.0
844.0
846.0
844.0
843.0
843.0
842.0
845.0
846.0
842.0
841.0
844.0
846.0
851.0
851.0
850.0
849.0
852.0
853.0
851.0
848.0
847.0
848.0
848.0
853.0
855.0
855.0
857.0
852.0
853.0
857.0
862.0
855.0
855.0
850.0
853.0
857.0
859.0
856.0
854.0
859.0
862.0
862.0
861.0
857.0
855.0
854.0
855.0
862.0
865.0
865.0
861.0
858.0
857.0
860.0
859.0
857.0
851.0
848.0
853.0
856.0
854.0
856.0
854.0
853.0
851.0
855.0
855.0
850.0
842.0
843.0
849.0
855.0
855.0
854.0
855.0
853.0
852.0
854.0
855.0
851.0
845.0
846.0
844.0
846.0
845.0
846.0
845.0
844.0
846.0
846.0
841.0
837.0
834.0
835.0
837.0
839.0
835.0
833.0
833.0
835.0
835.0
834.0
831.0
828.0
823.0
829.0
831.0
834.0
835.0
834.0
835.0
833.0
837.0
837.0
834.0
831.0
830.0
832.0
833.0
838.0
838.0
833.0
833.0
832.0
835.0
835.0
831.0
831.0
831.0
