# Simple Text Format
# Sampling Rate (Hz):= 360.00
# Resolution:= 12
# Labels:= ECG
842.0
860.0
863.0
858.0
848.0
841.0
830.0
824.0
819.0
814.0
811.0
815.0
819.0
824.0
826.0
824.0
826.0
828.0
830.0
827.0
829.0
826.0
824.0
822.0
825.0
828.0
831.0
830.0
828.0
829.0
827.0
829.0
829.0
823.0
824.0
825.0
829.0
835.0
837.0
837.0
839.0
836.0
841.0
839.0
839.0
836.0
833.0
833.0
838.0
839.0
842.0
842.0
840.0
841.0
843.0
847.0
847.0
847.0
843.0
841.0
843.0
845.0
850.0
851.0
852.0
848.0
850.0
849.0
853.0
852.0
848.0
849.0
849.0
853.0
859.0
857.0
857.0
854.0
857.0
859.0
857.0
854.0
847.0
846.0
851.0
852.0
853.0
851.0
851.0
849.0
850.0
853.0
851.0
847.0
844.0
844.0
846.0
852.0
850.0
847.0
847.0
849.0
848.0
849.0
845.0
842.0
839.0
841.0
843.0
846.0
846.0
846.0
846.0
846.0
844.0
842.0
839.0
832.0
836.0
833.0
835.0
835.0
835.0
832.0
832.0
830.0
833.0
836.0
835.0
827.0
825.0
823.0
825.0
830.0
833.0
830.0
831.0
829.0
829.0
831.0
831.0
826.0
825.0
823.0
824.0
829.0
827.0
828.0
831.0
833.0
833.0
826.0
824.0
827.0
826.0
827.0
831.0
831.0
830.0
832.0
835.0
835.0
838.0
836.0
834.0
829.0
833.0
838.0
840.0
842.0
843.0
844.0
848.0
851.0
855.0
857.0
859.0
858.0
861.0
868.0
875.0
876.0
877.0
871.0
873.0
876.0
876.0
878.0
876.0
872.0
867.0
864.0
865.0
866.0
866.0
864.0
862.0
858.0
857.0
847.0
843.0
832.0
832.0
829.0
829.0
832.0
830.0
829.0
826.0
827.0
825.0
829.0
826.0
818.0
817.0
818.0
823.0
825.0
826.0
821.0
821.0
817.0
812.0
803.0
789.0
780.0
778.0
791.0
810.0
841.0
878.0
918.0
964.0
1002.0
1039.0
1066.0
1093.0
1113.0
1129.0
1139.0
1147.0
1142.0
1133.0
1120.0
1110.0
1090.0
1051.0
990.0
923.0
864.0
828.0
813.0
811.0
824.0
836.0
840.0
848.0
842.0
838.0
824.0
810.0
806.0
800.0
801.0
805.0
806.0
805.0
805.0
808.0
810.0
812.0
813.0
805.0
804.0
807.0
808.0
810.0
810.0
808.0
806.0
808.0
810.0
813.0
812.0
811.0
805.0
807.0
808.0
811.0
813.0
815.0
814.0
816.0
816.0
821.0
820.0
815.0
813.0
812.0
810.0
815.0
816.0
819.0
821.0
824.0
827.0
825.0
824.0
820.0
818.0
821.0
824.0
826.0
828.0
825.0
826.0
828.0
829.0
831.0
832.0
826.0
825.0
821.0
824.0
829.0
830.0
830.0
832.0
834.0
835.0
837.0
835.0
833.0
829.0
829.0
828.0
832.0
834.0
832.0
830.0
830.0
829.0
831.0
830.0
824.0
819.0
823.0
822.0
822.0
828.0
824.0
822.0
826.0
825.0
827.0
824.0
820.0
818.0
816.0
817.0
820.0
820.0
821.0
819.0
822.0
825.0
823.0
819.0
816.0
813.0
815.0
814.0
815.0
812.0
812.0
811.0
818.0
816.0
811.0
807.0
802.0
799.0
803.0
801.0
801.0
799.0
798.0
799.0
799.0
802.0
800.0
798.0
793.0
795.0
798.0
798.0
800.0
798.0
803.0
806.0
811.0
809.0
804.0
806.0
804.0
804.0
807.0
806.0
806.0
805.0
811.0
815.0
819.0
818.0
817.0
817.0
818.0
818.0
817.0
820.0
818.0
821.0
828.0
833.0
843.0
846.0
846.0
847.0
847.0
851.0
852.0
851.0
849.0
849.0
852.0
856.0
854.0
851.0
849.0
839.0
840.0
839.0
839.0
831.0
827.0
825.0
824.0
823.0
822.0
815.0
810.0
807.0
805.0
806.0
806.0
800.0
796.0
795.0
799.0
800.0
804.0
805.0
801.0
799.0
795.0
800.0
800.0
797.0
792.0
789.0
784.0
784.0
774.0
766.0
763.0
770.0
784.0
807.0
843.0
882.0
919.0
958.0
992.0
1026.0
1064.0
1093.0
1115.0
1129.0
1135.0
1135.0
1131.0
1124.0
1108.0
1085.0
1058.0
1009.0
948.0
887.0
837.0
808.0
797.0
801.0
812.0
818.0
822.0
820.0
814.0
806.0
801.0
795.0
787.0
785.0
784.0
782.0
784.0
782.0
782.0
787.0
791.0
791.0
795.0
792.0
788.0
792.0
792.0
794.0
788.0
787.0
784.0
788.0
795.0
796.0
800.0
798.0
794.0
789.0
795.0
791.0
793.0
789.0
788.0
793.0
794.0
799.0
802.0
800.0
799.0
800.0
801.0
801.0
801.0
801.0
798.0
798.0
804.0
808.0
809.0
807.0
806.0
805.0
808.0
813.0
812.0
809.0
809.0
810.0
817.0
817.0
819.0
816.0
811.0
806.0
810.0
814.0
816.0
815.0
810.0
811.0
816.0
818.0
824.0
821.0
816.0
813.0
814.0
817.0
814.0
813.0
809.0
810.0
812.0
814.0
816.0
815.0
808.0
806.0
810.0
809.0
805.0
805.0
803.0
802.0
807.0
813.0
811.0
811.0
807.0
804.0
803.0
806.0
804.0
803.0
800.0
801.0
803.0
805.0
810.0
805.0
803.0
799.0
795.0
801.0
799.0
796.0
791.0
793.0
794.0
797.0
798.0
796.0
796.0
792.0
790.0
790.0
792.0
791.0
789.0
787.0
788.0
791.0
795.0
795.0
796.0
795.0
790.0
792.0
794.0
795.0
794.0
793.0
792.0
794.0
797.0
802.0
799.0
793.0
793.0
794.0
791.0
795.0
798.0
798.0
801.0
805.0
810.0
809.0
811.0
810.0
806.0
809.0
815.0
815.0
822.0
823.0
830.0
839.0
844.0
846.0
847.0
845.0
843.0
843.0
847.0
840.0
843.0
839.0
840.0
839.0
843.0
841.0
838.0
833.0
830.0
829.0
829.0
827.0
822.0
813.0
810.0
805.0
810.0
810.0
811.0
805.0
801.0
801.0
800.0
799.0
794.0
794.0
791.0
795.0
798.0
798.0
799.0
798.0
791.0
788.0
789.0
788.0
788.0
785.0
777.0
765.0
762.0
760.0
768.0
783.0
803.0
832.0
869.0
911.0
955.0
995.0
1033.0
1067.0
1100.0
1123.0
1136.0
1140.0
1131.0
1123.0
1112.0
1098.0
1074.0
1039.0
982.0
920.0
865.0
827.0
804.0
800.0
802.0
813.0
822.0
825.0
824.0
818.0
806.0
795.0
787.0
784.0
787.0
785.0
783.0
783.0
783.0
785.0
790.0
788.0
790.0
789.0
788.0
791.0
791.0
792.0
788.0
784.0
783.0
786.0
788.0
790.0
788.0
788.0
788.0
788.0
792.0
792.0
792.0
790.0
789.0
792.0
795.0
798.0
799.0
797.0
793.0
795.0
797.0
798.0
798.0
793.0
789.0
793.0
793.0
798.0
801.0
801.0
804.0
807.0
811.0
814.0
810.0
806.0
801.0
801.0
802.0
811.0
814.0
811.0
809.0
807.0
814.0
813.0
814.0
809.0
806.0
805.0
807.0
809.0
817.0
814.0
814.0
814.0
816.0
817.0
817.0
819.0
814.0
812.0
808.0
812.0
815.0
817.0
818.0
818.0
816.0
813.0
814.0
817.0
814.0
811.0
810.0
813.0
816.0
816.0
816.0
815.0
812.0
811.0
814.0
814.0
810.0
807.0
806.0
806.0
808.0
812.0
814.0
811.0
809.0
806.0
812.0
813.0
814.0
810.0
805.0
804.0
804.0
807.0
812.0
808.0
807.0
808.0
806.0
808.0
804.0
802.0
796.0
797.0
799.0
803.0
806.0
805.0
801.0
797.0
795.0
797.0
799.0
796.0
795.0
797.0
800.0
804.0
807.0
810.0
811.0
808.0
809.0
812.0
811.0
809.0
811.0
809.0
810.0
814.0
819.0
821.0
819.0
815.0
813.0
812.0
814.0
818.0
823.0
824.0
825.0
832.0
836.0
845.0
848.0
850.0
851.0
853.0
854.0
856.0
858.0
860.0
861.0
857.0
859.0
859.0
860.0
858.0
853.0
846.0
843.0
844.0
844.0
846.0
843.0
837.0
833.0
828.0
827.0
825.0
822.0
817.0
816.0
818.0
819.0
815.0
812.0
811.0
812.0
813.0
812.0
813.0
809.0
807.0
805.0
806.0
807.0
810.0
800.0
792.0
788.0
779.0
772.0
767.0
774.0
789.0
812.0
845.0
888.0
927.0
967.0
998.0
1028.0
1057.0
1088.0
1115.0
1134.0
1145.0
1148.0
1151.0
1150.0
1144.0
1130.0
1106.0
1066.0
1015.0
957.0
901.0
856.0
823.0
814.0
819.0
830.0
846.0
856.0
854.0
845.0
833.0
819.0
817.0
810.0
806.0
800.0
794.0
794.0
799.0
807.0
813.0
813.0
812.0
814.0
811.0
810.0
807.0
807.0
805.0
802.0
807.0
813.0
817.0
817.0
814.0
812.0
812.0
810.0
807.0
806.0
802.0
799.0
802.0
807.0
816.0
819.0
816.0
815.0
812.0
811.0
813.0
816.0
814.0
810.0
815.0
817.0
821.0
821.0
824.0
825.0
821.0
822.0
822.0
824.0
819.0
822.0
819.0
825.0
830.0
833.0
837.0
836.0
825.0
824.0
825.0
827.0
831.0
832.0
833.0
832.0
833.0
839.0
839.0
837.0
832.0
829.0
827.0
827.0
834.0
838.0
838.0
836.0
836.0
840.0
837.0
840.0
838.0
833.0
831.0
835.0
834.0
835.0
832.0
833.0
833.0
833.0
833.0
830.0
832.0
832.0
832.0
835.0
829.0
822.0
825.0
826.0
831.0
836.0
838.0
834.0
829.0
825.0
825.0
827.0
822.0
825.0
825.0
827.0
830.0
832.0
829.0
827.0
824.0
821.0
825.0
825.0
826.0
826.0
824.0
827.0
831.0
834.0
832.0
825.0
816.0
816.0
815.0
819.0
824.0
828.0
827.0
832.0
832.0
834.0
831.0
830.0
828.0
825.0
832.0
831.0
835.0
835.0
834.0
833.0
833.0
846.0
852.0
856.0
853.0
853.0
857.0
859.0
865.0
863.0
868.0
874.0
872.0
877.0
875.0
869.0
867.0
862.0
860.0
857.0
853.0
853.0
855.0
862.0
867.0
871.0
864.0
856.0
847.0
838.0
837.0
836.0
835.0
834.0
828.0
829.0
832.0
831.0
833.0
830.0
827.0
823.0
826.0
828.0
830.0
829.0
824.0
822.0
824.0
826.0
823.0
816.0
802.0
793.0
788.0
788.0
796.0
811.0
834.0
865.0
908.0
951.0
992.0
1029.0
1057.0
1078.0
1104.0
1126.0
1139.0
1146.0
1144.0
1145.0
1135.0
1124.0
1106.0
1069.0
1011.0
941.0
884.0
843.0
822.0
821.0
831.0
848.0
858.0
864.0
859.0
846.0
837.0
826.0
822.0
815.0
814.0
816.0
814.0
820.0
826.0
828.0
827.0
828.0
827.0
827.0
829.0
827.0
826.0
823.0
823.0
825.0
831.0
830.0
830.0
829.0
824.0
827.0
827.0
830.0
829.0
825.0
825.0
827.0
834.0
838.0
835.0
831.0
828.0
829.0
830.0
831.0
835.0
831.0
832.0
830.0
835.0
839.0
845.0
843.0
840.0
836.0
836.0
835.0
840.0
842.0
840.0
841.0
847.0
850.0
852.0
852.0
847.0
846.0
847.0
848.0
849.0
847.0
844.0
847.0
849.0
850.0
851.0
850.0
851.0
851.0
852.0
850.0
845.0
843.0
843.0
845.0
847.0
850.0
850.0
847.0
845.0
845.0
847.0
845.0
845.0
842.0
842.0
839.0
844.0
846.0
844.0
845.0
846.0
848.0
848.0
846.0
842.0
838.0
839.0
844.0
846.0
848.0
846.0
843.0
842.0
842.0
844.0
844.0
841.0
839.0
838.0
841.0
844.0
843.0
841.0
837.0
838.0
837.0
839.0
838.0
836.0
830.0
831.0
835.0
836.0
843.0
842.0
840.0
837.0
837.0
836.0
838.0
834.0
835.0
834.0
838.0
841.0
841.0
839.0
842.0
841.0
842.0
843.0
839.0
836.0
834.0
839.0
844.0
844.0
846.0
844.0
840.0
841.0
845.0
848.0
850.0
847.0
846.0
842.0
849.0
857.0
858.0
859.0
856.0
859.0
869.0
874.0
875.0
877.0
873.0
877.0
881.0
884.0
885.0
883.0
880.0
877.0
878.0
877.0
877.0
870.0
865.0
865.0
868.0
871.0
871.0
867.0
858.0
851.0
846.0
845.0
843.0
839.0
834.0
832.0
835.0
838.0
837.0
838.0
834.0
830.0
827.0
829.0
828.0
829.0
824.0
824.0
827.0
829.0
826.0
822.0
813.0
803.0
795.0
792.0
794.0
802.0
823.0
858.0
900.0
941.0
982.0
1014.0
1044.0
1074.0
1105.0
1126.0
1140.0
1145.0
1140.0
1135.0
1128.0
1119.0
1103.0
1077.0
1034.0
973.0
907.0
864.0
831.0
812.0
817.0
827.0
844.0
854.0
856.0
851.0
837.0
823.0
821.0
816.0
813.0
810.0
810.0
811.0
814.0
816.0
817.0
817.0
815.0
813.0
813.0
814.0
818.0
817.0
812.0
811.0
811.0
816.0
819.0
821.0
820.0
813.0
815.0
816.0
818.0
819.0
818.0
817.0
817.0
823.0
827.0
826.0
824.0
822.0
824.0
824.0
821.0
815.0
817.0
819.0
825.0
829.0
828.0
826.0
824.0
828.0
828.0
833.0
832.0
830.0
825.0
828.0
832.0
835.0
837.0
836.0
834.0
831.0
833.0
834.0
832.0
834.0
831.0
831.0
833.0
836.0
841.0
842.0
838.0
837.0
838.0
838.0
838.0
836.0
830.0
831.0
834.0
837.0
840.0
837.0
834.0
832.0
831.0
832.0
833.0
836.0
829.0
825.0
827.0
830.0
835.0
835.0
835.0
828.0
825.0
824.0
826.0
829.0
828.0
821.0
822.0
825.0
829.0
828.0
824.0
822.0
822.0
820.0
821.0
818.0
815.0
815.0
815.0
820.0
820.0
819.0
817.0
813.0
812.0
811.0
811.0
811.0
807.0
802.0
805.0
808.0
811.0
812.0
810.0
809.0
807.0
807.0
807.0
806.0
804.0
802.0
800.0
808.0
812.0
815.0
811.0
806.0
810.0
807.0
809.0
810.0
808.0
806.0
806.0
812.0
821.0
822.0
820.0
819.0
816.0
821.0
821.0
822.0
818.0
822.0
824.0
836.0
840.0
846.0
846.0
849.0
849.0
852.0
852.0
857.0
853.0
851.0
850.0
853.0
853.0
853.0
848.0
843.0
840.0
838.0
835.0
837.0
831.0
825.0
825.0
820.0
817.0
814.0
810.0
812.0
812.0
809.0
806.0
802.0
797.0
797.0
799.0
805.0
803.0
806.0
802.0
801.0
803.0
802.0
801.0
795.0
789.0
784.0
782.0
772.0
763.0
766.0
769.0
782.0
812.0
843.0
879.0
917.0
950.0
988.0
1021.0
1057.0
1091.0
1112.0
1125.0
1129.0
1127.0
1125.0
1114.0
1099.0
1086.0
1067.0
1037.0
989.0
937.0
877.0
830.0
802.0
794.0
800.0
814.0
825.0
826.0
819.0
815.0
807.0
803.0
799.0
795.0
788.0
787.0
788.0
790.0
792.0
789.0
784.0
785.0
790.0
792.0
798.0
795.0
793.0
790.0
788.0
791.0
793.0
793.0
792.0
788.0
789.0
795.0
800.0
802.0
801.0
795.0
793.0
791.0
794.0
797.0
795.0
796.0
794.0
797.0
801.0
805.0
805.0
802.0
796.0
799.0
801.0
798.0
802.0
803.0
806.0
804.0
804.0
809.0
811.0
811.0
808.0
806.0
808.0
810.0
814.0
816.0
815.0
814.0
815.0
816.0
817.0
818.0
813.0
807.0
811.0
811.0
813.0
814.0
817.0
816.0
816.0
821.0
820.0
816.0
809.0
806.0
809.0
811.0
809.0
810.0
812.0
810.0
814.0
814.0
815.0
811.0
809.0
803.0
805.0
808.0
807.0
812.0
808.0
807.0
806.0
810.0
811.0
810.0
801.0
804.0
799.0
801.0
802.0
807.0
806.0
804.0
800.0
805.0
808.0
806.0
800.0
794.0
792.0
792.0
795.0
798.0
794.0
793.0
792.0
790.0
790.0
793.0
788.0
786.0
782.0
780.0
781.0
780.0
786.0
784.0
785.0
782.0
782.0
783.0
785.0
787.0
786.0
782.0
779.0
784.0
790.0
796.0
795.0
793.0
789.0
787.0
789.0
785.0
785.0
785.0
788.0
788.0
794.0
797.0
801.0
802.0
797.0
801.0
803.0
804.0
800.0
801.0
801.0
806.0
813.0
823.0
829.0
828.0
827.0
827.0
830.0
837.0
837.0
836.0
835.0
833.0
840.0
842.0
842.0
840.0
834.0
827.0
830.0
831.0
826.0
826.0
822.0
823.0
818.0
817.0
820.0
813.0
808.0
803.0
798.0
794.0
793.0
791.0
790.0
787.0
786.0
789.0
790.0
795.0
792.0
790.0
783.0
784.0
784.0
787.0
789.0
791.0
787.0
784.0
782.0
780.0
778.0
763.0
752.0
750.0
756.0
774.0
797.0
827.0
871.0
907.0
948.0
988.0
1024.0
1059.0
1086.0
1105.0
1120.0
1123.0
1120.0
1110.0
1100.0
1089.0
1068.0
1039.0
988.0
926.0
866.0
821.0
796.0
788.0
797.0
809.0
820.0
823.0
820.0
814.0
808.0
800.0
789.0
783.0
777.0
777.0
780.0
787.0
784.0
782.0
781.0
779.0
782.0
785.0
787.0
784.0
782.0
779.0
782.0
786.0
789.0
789.0
787.0
788.0
790.0
791.0
791.0
790.0
788.0
787.0
787.0
792.0
793.0
794.0
792.0
790.0
791.0
791.0
795.0
794.0
792.0
792.0
789.0
790.0
799.0
802.0
804.0
802.0
803.0
805.0
806.0
805.0
804.0
802.0
805.0
811.0
812.0
811.0
809.0
811.0
811.0
813.0
811.0
810.0
805.0
804.0
809.0
809.0
812.0
812.0
808.0
808.0
811.0
816.0
814.0
808.0
809.0
808.0
809.0
815.0
819.0
822.0
819.0
816.0
814.0
818.0
818.0
816.0
810.0
806.0
805.0
804.0
808.0
810.0
805.0
810.0
816.0
816.0
813.0
813.0
810.0
805.0
807.0
811.0
815.0
814.0
814.0
810.0
814.0
818.0
817.0
815.0
811.0
807.0
804.0
805.0
811.0
809.0
809.0
807.0
806.0
804.0
804.0
800.0
800.0
798.0
798.0
796.0
799.0
802.0
796.0
800.0
799.0
800.0
799.0
799.0
796.0
797.0
799.0
801.0
807.0
807.0
806.0
807.0
813.0
813.0
813.0
812.0
808.0
815.0
819.0
825.0
826.0
828.0
832.0
835.0
841.0
844.0
847.0
848.0
845.0
851.0
853.0
858.0
858.0
858.0
861.0
857.0
857.0
859.0
857.0
851.0
846.0
842.0
839.0
842.0
847.0
846.0
840.0
837.0
832.0
829.0
824.0
823.0
816.0
812.0
811.0
812.0
813.0
813.0
810.0
810.0
809.0
811.0
809.0
809.0
809.0
805.0
809.0
812.0
809.0
807.0
798.0
787.0
777.0
770.0
771.0
781.0
802.0
841.0
884.0
927.0
965.0
1002.0
1036.0
1071.0
1103.0
1124.0
1141.0
1147.0
1152.0
1151.0
1143.0
1134.0
1112.0
1080.0
1030.0
973.0
913.0
865.0
828.0
812.0
808.0
826.0
837.0
848.0
848.0
846.0
834.0
824.0
819.0
811.0
804.0
797.0
791.0
795.0
796.0
800.0
804.0
803.0
808.0
806.0
811.0
812.0
810.0
807.0
804.0
802.0
802.0
809.0
814.0
814.0
815.0
812.0
812.0
812.0
807.0
803.0
803.0
804.0
810.0
812.0
816.0
815.0
812.0
815.0
817.0
818.0
811.0
811.0
808.0
809.0
812.0
814.0
812.0
815.0
818.0
819.0
826.0
825.0
823.0
818.0
818.0
819.0
820.0
824.0
826.0
825.0
824.0
826.0
826.0
829.0
823.0
823.0
822.0
825.0
829.0
830.0
832.0
832.0
830.0
828.0
833.0
832.0
834.0
830.0
834.0
832.0
833.0
837.0
836.0
835.0
833.0
833.0
832.0
837.0
837.0
834.0
832.0
826.0
824.0
823.0
832.0
832.0
832.0
830.0
832.0
833.0
835.0
833.0
828.0
824.0
826.0
827.0
832.0
832.0
831.0
830.0
828.0
829.0
833.0
828.0
824.0
820.0
817.0
821.0
828.0
832.0
832.0
830.0
827.0
824.0
822.0
824.0
822.0
817.0
817.0
819.0
822.0
828.0
833.0
827.0
822.0
820.0
821.0
820.0
820.0
818.0
820.0
819.0
828.0
832.0
831.0
827.0
824.0
821.0
827.0
831.0
832.0
833.0
831.0
835.0
839.0
841.0
846.0
846.0
848.0
853.0
856.0
859.0
865.0
865.0
868.0
869.0
872.0
876.0
875.0
873.0
870.0
867.0
870.0
867.0
863.0
861.0
855.0
859.0
863.0
864.0
859.0
856.0
851.0
847.0
842.0
837.0
829.0
826.0
828.0
831.0
832.0
833.0
825.0
827.0
827.0
829.0
830.0
829.0
829.0
824.0
824.0
826.0
827.0
828.0
822.0
815.0
806.0
795.0
789.0
786.0
791.0
806.0
832.0
864.0
907.0
950.0
986.0
1014.0
1044.0
1076.0
1104.0
1123.0
1135.0
1139.0
1143.0
1142.0
1140.0
1132.0
1118.0
1087.0
1040.0
977.0
914.0
864.0
831.0
818.0
817.0
832.0
853.0
866.0
871.0
867.0
854.0
838.0
831.0
826.0
823.0
818.0
814.0
811.0
816.0
820.0
822.0
822.0
819.0
821.0
823.0
826.0
824.0
824.0
820.0
823.0
828.0
833.0
836.0
833.0
822.0
819.0
820.0
821.0
824.0
825.0
823.0
823.0
825.0
833.0
835.0
835.0
830.0
826.0
826.0
828.0
826.0
829.0
830.0
831.0
830.0
829.0
837.0
838.0
837.0
831.0
830.0
833.0
835.0
838.0
840.0
836.0
837.0
841.0
843.0
849.0
848.0
844.0
842.0
840.0
845.0
847.0
847.0
844.0
840.0
842.0
847.0
852.0
851.0
848.0
845.0
846.0
847.0
849.0
846.0
843.0
845.0
847.0
853.0
854.0
852.0
849.0
847.0
841.0
844.0
843.0
840.0
836.0
842.0
846.0
848.0
848.0
846.0
843.0
843.0
839.0
841.0
835.0
832.0
833.0
840.0
845.0
846.0
847.0
840.0
835.0
834.0
837.0
837.0
837.0
832.0
832.0
833.0
836.0
841.0
840.0
836.0
832.0
828.0
832.0
832.0
833.0
830.0
832.0
832.0
836.0
838.0
838.0
840.0
833.0
834.0
832.0
836.0
834.0
834.0
830.0
829.0
837.0
835.0
839.0
842.0
837.0
836.0
838.0
839.0
839.0
840.0
841.0
848.0
851.0
854.0
856.0
858.0
863.0
868.0
869.0
869.0
870.0
873.0
878.0
883.0
886.0
886.0
883.0
883.0
888.0
886.0
885.0
877.0
872.0
874.0
872.0
876.0
875.0
875.0
874.0
870.0
866.0
862.0
854.0
847.0
842.0
840.0
840.0
844.0
843.0
840.0
839.0
839.0
840.0
838.0
835.0
835.0
836.0
834.0
839.0
840.0
834.0
833.0
833.0
829.0
825.0
818.0
805.0
801.0
804.0
818.0
844.0
884.0
923.0
968.0
1009.0
1046.0
1082.0
1115.0
1141.0
1153.0
1157.0
1155.0
1145.0
1134.0
1115.0
1095.0
1059.0
1000.0
934.0
879.0
838.0
824.0
827.0
843.0
856.0
865.0
864.0
861.0
856.0
847.0
836.0
827.0
820.0
821.0
821.0
825.0
828.0
826.0
828.0
828.0
833.0
833.0
832.0
836.0
830.0
825.0
828.0
829.0
830.0
827.0
829.0
828.0
830.0
831.0
835.0
834.0
829.0
827.0
827.0
829.0
829.0
834.0
833.0
833.0
832.0
837.0
836.0
836.0
832.0
830.0
828.0
832.0
836.0
837.0
837.0
837.0
838.0
841.0
842.0
840.0
836.0
837.0
837.0
840.0
841.0
843.0
840.0
843.0
845.0
850.0
851.0
844.0
841.0
842.0
844.0
843.0
844.0
844.0
842.0
841.0
847.0
847.0
846.0
845.0
845.0
843.0
844.0
844.0
844.0
844.0
840.0
843.0
844.0
843.0
842.0
838.0
834.0
833.0
830.0
832.0
833.0
832.0
832.0
831.0
836.0
839.0
843.0
840.0
834.0
828.0
830.0
829.0
833.0
832.0
830.0
830.0
830.0
833.0
832.0
831.0
826.0
823.0
820.0
820.0
822.0
826.0
825.0
824.0
821.0
820.0
822.0
823.0
817.0
813.0
810.0
809.0
813.0
817.0
815.0
814.0
812.0
815.0
819.0
815.0
809.0
807.0
808.0
809.0
809.0
810.0
814.0
813.0
814.0
815.0
816.0
819.0
817.0
812.0
809.0
810.0
815.0
819.0
822.0
821.0
821.0
826.0
827.0
829.0
827.0
824.0
823.0
826.0
831.0
840.0
846.0
847.0
851.0
849.0
852.0
860.0
862.0
859.0
856.0
854.0
855.0
860.0
864.0
863.0
860.0
853.0
851.0
851.0
847.0
850.0
847.0
844.0
839.0
839.0
837.0
835.0
828.0
822.0
818.0
815.0
814.0
811.0
810.0
806.0
804.0
807.0
808.0
808.0
808.0
806.0
807.0
807.0
809.0
804.0
797.0
793.0
793.0
790.0
786.0
774.0
767.0
765.0
778.0
797.0
822.0
855.0
889.0
927.0
966.0
1000.0
1041.0
1074.0
1098.0
1118.0
1127.0
1135.0
1129.0
1120.0
1104.0
1091.0
1076.0
1053.0
1013.0
956.0
896.0
843.0
811.0
801.0
802.0
811.0
819.0
825.0
825.0
822.0
814.0
807.0
796.0
791.0
789.0
785.0
791.0
792.0
792.0
786.0
787.0
790.0
794.0
797.0
800.0
797.0
794.0
793.0
796.0
794.0
792.0
790.0
789.0
795.0
799.0
801.0
800.0
798.0
798.0
800.0
796.0
794.0
793.0
792.0
794.0
800.0
801.0
804.0
802.0
801.0
809.0
809.0
809.0
804.0
799.0
801.0
804.0
803.0
808.0
811.0
809.0
810.0
813.0
814.0
812.0
810.0
809.0
809.0
813.0
815.0
818.0
816.0
818.0
818.0
820.0
822.0
819.0
817.0
814.0
814.0
816.0
819.0
820.0
817.0
819.0
817.0
819.0
818.0
821.0
814.0
811.0
811.0
812.0
816.0
816.0
817.0
813.0
813.0
813.0
810.0
807.0
807.0
804.0
801.0
802.0
809.0
811.0
811.0
809.0
808.0
808.0
810.0
808.0
804.0
801.0
801.0
805.0
807.0
807.0
806.0
806.0
804.0
805.0
805.0
805.0
798.0
794.0
795.0
795.0
798.0
799.0
797.0
797.0
796.0
797.0
796.0
792.0
787.0
787.0
783.0
787.0
788.0
789.0
787.0
788.0
789.0
792.0
796.0
793.0
788.0
787.0
790.0
791.0
793.0
795.0
795.0
799.0
804.0
808.0
811.0
806.0
804.0
802.0
806.0
813.0
814.0
817.0
821.0
825.0
833.0
835.0
841.0
838.0
839.0
840.0
840.0
841.0
843.0
839.0
839.0
838.0
840.0
834.0
833.0
828.0
823.0
822.0
820.0
817.0
812.0
806.0
805.0
805.0
803.0
801.0
796.0
790.0
793.0
794.0
793.0
791.0
787.0
789.0
793.0
796.0
796.0
793.0
788.0
790.0
789.0
787.0
781.0
777.0
772.0
762.0
757.0
759.0
763.0
774.0
796.0
822.0
855.0
894.0
936.0
972.0
1006.0
1037.0
1070.0
1098.0
1120.0
1129.0
1130.0
1122.0
1110.0
1098.0
1086.0
1069.0
1041.0
994.0
931.0
877.0
832.0
805.0
793.0
795.0
801.0
814.0
820.0
821.0
810.0
800.0
788.0
785.0
786.0
784.0
783.0
777.0
778.0
780.0
780.0
781.0
779.0
784.0
786.0
789.0
791.0
788.0
786.0
783.0
782.0
782.0
784.0
786.0
786.0
783.0
788.0
791.0
795.0
793.0
793.0
789.0
790.0
790.0
791.0
789.0
790.0
792.0
796.0
798.0
803.0
799.0
797.0
791.0
790.0
792.0
795.0
794.0
796.0
798.0
801.0
805.0
810.0
807.0
805.0
802.0
801.0
803.0
806.0
805.0
805.0
805.0
804.0
808.0
812.0
814.0
814.0
809.0
809.0
809.0
812.0
810.0
810.0
809.0
808.0
813.0
813.0
815.0
813.0
808.0
809.0
806.0
804.0
803.0
803.0
805.0
809.0
811.0
807.0
807.0
805.0
801.0
803.0
805.0
806.0
800.0
801.0
801.0
803.0
807.0
809.0
807.0
803.0
799.0
800.0
798.0
798.0
796.0
794.0
795.0
800.0
803.0
803.0
801.0
800.0
793.0
795.0
794.0
793.0
794.0
788.0
788.0
790.0
792.0
795.0
792.0
789.0
785.0
784.0
783.0
785.0
781.0
779.0
780.0
780.0
785.0
793.0
791.0
789.0
786.0
785.0
787.0
789.0
787.0
789.0
789.0
794.0
798.0
801.0
802.0
802.0
801.0
804.0
806.0
806.0
806.0
810.0
819.0
827.0
834.0
834.0
838.0
837.0
842.0
844.0
842.0
842.0
837.0
834.0
836.0
838.0
844.0
839.0
837.0
832.0
829.0
828.0
827.0
822.0
819.0
815.0
815.0
811.0
809.0
804.0
799.0
799.0
800.0
798.0
800.0
794.0
794.0
791.0
797.0
797.0
795.0
796.0
791.0
792.0
793.0
795.0
792.0
788.0
783.0
776.0
772.0
767.0
765.0
761.0
761.0
770.0
795.0
828.0
863.0
904.0
938.0
976.0
1014.0
1049.0
1086.0
1110.0
1130.0
1141.0
1145.0
1142.0
1135.0
1117.0
1093.0
1051.0
1000.0
937.0
873.0
828.0
800.0
796.0
804.0
821.0
829.0
832.0
824.0
813.0
807.0
799.0
796.0
795.0
791.0
783.0
785.0
785.0
788.0
789.0
785.0
785.0
785.0
793.0
793.0
798.0
793.0
791.0
789.0
789.0
793.0
794.0
792.0
790.0
788.0
792.0
792.0
796.0
799.0
795.0
792.0
794.0
790.0
794.0
794.0
786.0
790.0
793.0
798.0
800.0
798.0
797.0
796.0
794.0
799.0
802.0
801.0
797.0
794.0
798.0
802.0
807.0
805.0
807.0
807.0
807.0
809.0
810.0
805.0
804.0
808.0
809.0
814.0
813.0
812.0
811.0
812.0
814.0
813.0
814.0
812.0
815.0
819.0
822.0
825.0
824.0
823.0
819.0
815.0
819.0
820.0
820.0
817.0
816.0
817.0
818.0
817.0
821.0
818.0
817.0
816.0
813.0
817.0
816.0
815.0
811.0
812.0
813.0
820.0
819.0
819.0
817.0
815.0
814.0
816.0
811.0
810.0
813.0
811.0
814.0
818.0
820.0
821.0
815.0
811.0
808.0
808.0
805.0
807.0
810.0
805.0
805.0
811.0
813.0
812.0
807.0
803.0
803.0
803.0
804.0
803.0
803.0
800.0
802.0
804.0
808.0
805.0
803.0
803.0
807.0
