# Simple Text Format
# Sampling Rate (Hz):= 360.00
# Resolution:= 12
# Labels:= ECG
1145.0
1165.0
1176.0
1188.0
1192.0
1195.0
1182.0
1168.0
1142.0
1105.0
1048.0
983.0
916.0
870.0
845.0
841.0
853.0
872.0
880.0
879.0
874.0
865.0
848.0
842.0
831.0
826.0
823.0
823.0
827.0
830.0
835.0
831.0
832.0
831.0
832.0
837.0
838.0
835.0
833.0
830.0
830.0
838.0
842.0
841.0
837.0
835.0
833.0
835.0
838.0
840.0
837.0
836.0
833.0
841.0
843.0
841.0
841.0
841.0
839.0
841.0
842.0
841.0
840.0
835.0
839.0
845.0
849.0
850.0
849.0
845.0
845.0
850.0
848.0
849.0
842.0
841.0
844.0
849.0
854.0
857.0
857.0
857.0
860.0
863.0
862.0
858.0
854.0
852.0
852.0
857.0
859.0
858.0
859.0
857.0
860.0
865.0
866.0
864.0
859.0
854.0
854.0
859.0
864.0
864.0
864.0
859.0
863.0
867.0
865.0
866.0
860.0
856.0
854.0
854.0
856.0
858.0
861.0
851.0
850.0
850.0
854.0
856.0
855.0
853.0
854.0
854.0
857.0
861.0
861.0
861.0
858.0
856.0
859.0
862.0
860.0
852.0
848.0
845.0
848.0
854.0
854.0
855.0
851.0
850.0
843.0
844.0
846.0
841.0
842.0
844.0
853.0
855.0
855.0
848.0
850.0
846.0
846.0
849.0
848.0
842.0
842.0
845.0
850.0
853.0
851.0
849.0
853.0
854.0
857.0
858.0
854.0
853.0
850.0
856.0
859.0
863.0
865.0
863.0
863.0
869.0
876.0
878.0
875.0
878.0
882.0
891.0
900.0
903.0
905.0
900.0
899.0
900.0
902.0
900.0
896.0
893.0
891.0
893.0
894.0
895.0
893.0
891.0
887.0
884.0
885.0
879.0
870.0
865.0
861.0
859.0
865.0
867.0
866.0
864.0
856.0
858.0
855.0
853.0
850.0
850.0
850.0
853.0
857.0
859.0
857.0
855.0
851.0
847.0
844.0
840.0
832.0
817.0
810.0
812.0
830.0
853.0
885.0
922.0
965.0
1009.0
1051.0
1087.0
1118.0
1148.0
1172.0
1185.0
1195.0
1200.0
1194.0
1183.0
1169.0
1152.0
1121.0
1078.0
1013.0
946.0
890.0
861.0
856.0
863.0
875.0
887.0
892.0
892.0
885.0
875.0
861.0
848.0
840.0
839.0
842.0
845.0
848.0
844.0
843.0
841.0
845.0
848.0
847.0
843.0
845.0
848.0
852.0
855.0
855.0
850.0
847.0
849.0
850.0
847.0
848.0
847.0
843.0
846.0
851.0
854.0
858.0
853.0
851.0
854.0
853.0
858.0
855.0
854.0
848.0
853.0
857.0
859.0
859.0
856.0
856.0
857.0
859.0
861.0
859.0
856.0
860.0
861.0
866.0
871.0
869.0
869.0
868.0
867.0
867.0
866.0
868.0
867.0
868.0
868.0
870.0
875.0
879.0
876.0
873.0
872.0
873.0
874.0
874.0
873.0
868.0
868.0
874.0
876.0
881.0
880.0
876.0
870.0
869.0
869.0
868.0
870.0
867.0
867.0
866.0
870.0
875.0
875.0
871.0
867.0
866.0
866.0
870.0
869.0
869.0
867.0
865.0
868.0
871.0
874.0
870.0
865.0
863.0
862.0
862.0
862.0
858.0
862.0
858.0
863.0
862.0
862.0
860.0
856.0
853.0
854.0
854.0
854.0
850.0
851.0
850.0
851.0
853.0
855.0
856.0
851.0
846.0
843.0
842.0
849.0
849.0
851.0
850.0
850.0
853.0
856.0
855.0
854.0
851.0
850.0
851.0
852.0
856.0
856.0
856.0
855.0
859.0
858.0
859.0
858.0
857.0
855.0
856.0
857.0
863.0
866.0
868.0
864.0
869.0
871.0
874.0
876.0
876.0
876.0
878.0
885.0
891.0
894.0
897.0
897.0
900.0
903.0
904.0
903.0
897.0
894.0
889.0
894.0
894.0
894.0
887.0
885.0
883.0
888.0
888.0
885.0
877.0
866.0
860.0
857.0
855.0
853.0
850.0
849.0
847.0
851.0
852.0
851.0
842.0
837.0
835.0
839.0
842.0
843.0
842.0
842.0
842.0
844.0
844.0
841.0
832.0
825.0
817.0
807.0
806.0
810.0
822.0
839.0
866.0
902.0
945.0
987.0
1021.0
1058.0
1091.0
1125.0
1152.0
1172.0
1183.0
1184.0
1178.0
1169.0
1159.0
1143.0
1113.0
1067.0
1008.0
942.0
889.0
859.0
844.0
838.0
850.0
864.0
873.0
873.0
866.0
852.0
840.0
835.0
831.0
828.0
824.0
824.0
828.0
829.0
830.0
830.0
829.0
828.0
825.0
827.0
829.0
830.0
832.0
831.0
832.0
832.0
837.0
837.0
834.0
831.0
825.0
829.0
832.0
834.0
836.0
834.0
832.0
836.0
838.0
836.0
837.0
835.0
829.0
826.0
829.0
833.0
836.0
837.0
832.0
838.0
839.0
841.0
843.0
844.0
838.0
839.0
835.0
843.0
848.0
849.0
849.0
849.0
846.0
848.0
850.0
852.0
852.0
850.0
848.0
851.0
853.0
856.0
856.0
856.0
851.0
852.0
853.0
857.0
855.0
852.0
851.0
849.0
854.0
860.0
857.0
857.0
854.0
852.0
851.0
851.0
854.0
850.0
847.0
850.0
852.0
858.0
856.0
853.0
850.0
849.0
847.0
851.0
850.0
845.0
844.0
841.0
842.0
848.0
852.0
849.0
844.0
843.0
842.0
840.0
838.0
841.0
838.0
838.0
840.0
843.0
846.0
843.0
839.0
834.0
834.0
836.0
835.0
833.0
830.0
826.0
828.0
831.0
834.0
832.0
830.0
822.0
824.0
821.0
824.0
821.0
817.0
819.0
822.0
824.0
826.0
826.0
825.0
824.0
822.0
824.0
826.0
825.0
826.0
820.0
823.0
824.0
831.0
834.0
831.0
829.0
829.0
833.0
836.0
836.0
835.0
837.0
838.0
843.0
847.0
851.0
850.0
851.0
853.0
856.0
863.0
867.0
869.0
868.0
869.0
870.0
874.0
882.0
882.0
879.0
872.0
869.0
869.0
867.0
870.0
866.0
862.0
862.0
861.0
864.0
865.0
859.0
853.0
845.0
838.0
833.0
834.0
832.0
831.0
826.0
824.0
825.0
827.0
825.0
824.0
820.0
819.0
818.0
819.0
824.0
822.0
820.0
819.0
818.0
821.0
822.0
819.0
812.0
803.0
793.0
783.0
783.0
783.0
795.0
813.0
844.0
884.0
929.0
972.0
1012.0
1051.0
1086.0
1122.0
1151.0
1168.0
1174.0
1170.0
1165.0
1152.0
1136.0
1108.0
1069.0
1012.0
951.0
894.0
852.0
832.0
824.0
832.0
841.0
855.0
859.0
855.0
840.0
826.0
817.0
812.0
809.0
809.0
807.0
808.0
811.0
817.0
815.0
811.0
810.0
806.0
809.0
813.0
818.0
817.0
817.0
814.0
816.0
816.0
820.0
817.0
813.0
811.0
811.0
813.0
818.0
821.0
822.0
820.0
820.0
821.0
824.0
824.0
822.0
820.0
817.0
818.0
822.0
824.0
825.0
826.0
825.0
828.0
829.0
829.0
825.0
826.0
824.0
830.0
833.0
829.0
833.0
835.0
835.0
840.0
841.0
838.0
833.0
832.0
832.0
835.0
841.0
841.0
840.0
838.0
838.0
840.0
843.0
842.0
837.0
836.0
833.0
838.0
842.0
844.0
843.0
842.0
842.0
842.0
843.0
842.0
836.0
833.0
833.0
838.0
840.0
840.0
840.0
838.0
839.0
838.0
840.0
837.0
835.0
831.0
830.0
832.0
834.0
836.0
834.0
836.0
836.0
834.0
838.0
835.0
832.0
828.0
827.0
830.0
831.0
834.0
833.0
831.0
828.0
827.0
830.0
827.0
825.0
821.0
821.0
821.0
819.0
820.0
817.0
816.0
821.0
819.0
820.0
817.0
813.0
810.0
814.0
817.0
815.0
814.0
817.0
819.0
822.0
826.0
824.0
821.0
814.0
816.0
817.0
821.0
823.0
822.0
824.0
824.0
829.0
834.0
836.0
832.0
829.0
830.0
830.0
834.0
839.0
840.0
840.0
843.0
852.0
856.0
860.0
864.0
862.0
864.0
867.0
871.0
873.0
873.0
873.0
868.0
873.0
874.0
874.0
870.0
867.0
860.0
857.0
858.0
860.0
861.0
855.0
849.0
847.0
842.0
837.0
834.0
827.0
821.0
819.0
821.0
822.0
822.0
817.0
815.0
817.0
821.0
822.0
817.0
815.0
812.0
812.0
814.0
818.0
818.0
817.0
810.0
804.0
799.0
791.0
782.0
779.0
786.0
798.0
823.0
854.0
899.0
939.0
983.0
1022.0
1054.0
1091.0
1122.0
1147.0
1160.0
1165.0
1165.0
1164.0
1158.0
1150.0
1132.0
1113.0
1072.0
1016.0
952.0
889.0
845.0
821.0
820.0
831.0
842.0
854.0
854.0
846.0
840.0
829.0
824.0
812.0
804.0
801.0
801.0
807.0
812.0
812.0
810.0
811.0
810.0
811.0
818.0
814.0
812.0
813.0
815.0
813.0
819.0
817.0
818.0
818.0
821.0
823.0
825.0
819.0
816.0
810.0
812.0
817.0
816.0
816.0
813.0
818.0
819.0
821.0
820.0
817.0
818.0
818.0
818.0
821.0
821.0
826.0
823.0
825.0
829.0
831.0
831.0
830.0
829.0
827.0
828.0
833.0
838.0
838.0
834.0
837.0
832.0
833.0
835.0
832.0
830.0
832.0
833.0
837.0
841.0
842.0
843.0
842.0
844.0
843.0
847.0
845.0
840.0
839.0
839.0
839.0
846.0
847.0
844.0
845.0
845.0
844.0
843.0
840.0
838.0
838.0
841.0
840.0
842.0
844.0
840.0
842.0
843.0
842.0
843.0
836.0
833.0
831.0
831.0
834.0
835.0
835.0
832.0
832.0
835.0
839.0
839.0
834.0
834.0
831.0
829.0
831.0
836.0
835.0
830.0
827.0
823.0
824.0
824.0
821.0
820.0
817.0
818.0
821.0
824.0
824.0
821.0
821.0
819.0
821.0
822.0
820.0
819.0
821.0
821.0
824.0
828.0
827.0
825.0
824.0
827.0
828.0
829.0
828.0
822.0
826.0
824.0
829.0
835.0
835.0
837.0
838.0
841.0
840.0
844.0
844.0
844.0
844.0
851.0
857.0
864.0
869.0
872.0
875.0
878.0
883.0
882.0
877.0
872.0
873.0
874.0
876.0
876.0
873.0
871.0
872.0
869.0
870.0
864.0
859.0
852.0
846.0
843.0
840.0
840.0
837.0
832.0
832.0
834.0
833.0
834.0
829.0
826.0
823.0
822.0
825.0
827.0
828.0
829.0
834.0
835.0
831.0
827.0
815.0
807.0
799.0
795.0
787.0
791.0
803.0
828.0
866.0
910.0
955.0
996.0
1034.0
1069.0
1108.0
1142.0
1164.0
1181.0
1187.0
1190.0
1189.0
1181.0
1161.0
1127.0
1077.0
1014.0
948.0
894.0
855.0
839.0
838.0
850.0
862.0
871.0
868.0
854.0
843.0
834.0
824.0
818.0
811.0
809.0
810.0
813.0
820.0
821.0
820.0
818.0
819.0
819.0
822.0
824.0
822.0
817.0
817.0
822.0
827.0
828.0
827.0
824.0
815.0
818.0
818.0
818.0
821.0
823.0
822.0
825.0
828.0
828.0
826.0
825.0
824.0
822.0
823.0
826.0
827.0
826.0
829.0
829.0
832.0
835.0
837.0
831.0
832.0
829.0
831.0
834.0
836.0
835.0
833.0
837.0
841.0
846.0
844.0
840.0
837.0
834.0
837.0
839.0
835.0
841.0
844.0
846.0
848.0
851.0
852.0
851.0
846.0
847.0
847.0
847.0
843.0
845.0
847.0
853.0
852.0
853.0
846.0
846.0
846.0
844.0
844.0
846.0
842.0
844.0
842.0
846.0
848.0
849.0
847.0
842.0
839.0
837.0
842.0
845.0
842.0
841.0
842.0
846.0
848.0
848.0
845.0
843.0
838.0
837.0
840.0
842.0
841.0
840.0
838.0
841.0
844.0
844.0
840.0
835.0
832.0
831.0
831.0
827.0
826.0
825.0
828.0
831.0
835.0
835.0
830.0
831.0
824.0
831.0
835.0
831.0
826.0
825.0
828.0
831.0
837.0
838.0
835.0
834.0
833.0
836.0
838.0
836.0
836.0
839.0
844.0
847.0
849.0
846.0
851.0
860.0
863.0
868.0
869.0
871.0
867.0
869.0
877.0
884.0
887.0
884.0
880.0
878.0
878.0
883.0
883.0
877.0
869.0
868.0
870.0
869.0
871.0
869.0
863.0
859.0
859.0
858.0
850.0
845.0
842.0
839.0
838.0
841.0
841.0
839.0
834.0
829.0
829.0
831.0
832.0
835.0
833.0
834.0
833.0
838.0
839.0
836.0
826.0
819.0
814.0
806.0
798.0
793.0
789.0
796.0
819.0
854.0
892.0
933.0
976.0
1011.0
1043.0
1080.0
1108.0
1136.0
1155.0
1165.0
1169.0
1173.0
1169.0
1157.0
1138.0
1103.0
1053.0
994.0
929.0
882.0
848.0
834.0
837.0
850.0
867.0
872.0
872.0
859.0
850.0
844.0
835.0
828.0
822.0
818.0
819.0
822.0
829.0
830.0
828.0
824.0
820.0
823.0
825.0
828.0
829.0
828.0
825.0
829.0
832.0
836.0
835.0
832.0
824.0
827.0
825.0
822.0
826.0
826.0
825.0
829.0
834.0
838.0
837.0
835.0
834.0
827.0
825.0
831.0
834.0
835.0
833.0
830.0
833.0
835.0
838.0
840.0
835.0
830.0
829.0
836.0
834.0
839.0
839.0
840.0
837.0
840.0
844.0
847.0
843.0
841.0
839.0
839.0
845.0
851.0
851.0
852.0
847.0
848.0
849.0
851.0
849.0
848.0
847.0
845.0
849.0
853.0
853.0
853.0
854.0
853.0
853.0
857.0
858.0
855.0
849.0
847.0
847.0
847.0
852.0
848.0
847.0
846.0
848.0
850.0
851.0
849.0
843.0
842.0
841.0
844.0
847.0
847.0
847.0
848.0
847.0
850.0
850.0
850.0
841.0
839.0
840.0
844.0
847.0
847.0
844.0
844.0
847.0
843.0
845.0
844.0
839.0
835.0
834.0
839.0
837.0
837.0
832.0
834.0
835.0
838.0
841.0
838.0
835.0
828.0
830.0
833.0
839.0
841.0
843.0
841.0
839.0
840.0
842.0
835.0
840.0
838.0
837.0
838.0
838.0
843.0
846.0
845.0
844.0
842.0
841.0
841.0
844.0
845.0
844.0
846.0
848.0
853.0
858.0
862.0
860.0
855.0
853.0
858.0
863.0
871.0
875.0
875.0
880.0
886.0
893.0
894.0
892.0
891.0
883.0
885.0
885.0
888.0
888.0
886.0
882.0
881.0
880.0
882.0
884.0
876.0
871.0
865.0
861.0
858.0
852.0
846.0
847.0
845.0
849.0
849.0
846.0
840.0
838.0
836.0
838.0
837.0
835.0
834.0
833.0
836.0
838.0
842.0
843.0
841.0
834.0
827.0
823.0
817.0
812.0
806.0
798.0
801.0
819.0
849.0
882.0
921.0
961.0
999.0
1038.0
1076.0
1108.0
1136.0
1156.0
1169.0
1175.0
1176.0
1172.0
1160.0
1147.0
1128.0
1105.0
1067.0
1014.0
952.0
896.0
854.0
837.0
838.0
849.0
862.0
865.0
865.0
857.0
852.0
846.0
841.0
836.0
830.0
826.0
827.0
830.0
830.0
830.0
824.0
820.0
822.0
824.0
822.0
827.0
829.0
831.0
834.0
835.0
832.0
828.0
823.0
824.0
823.0
825.0
824.0
829.0
829.0
830.0
837.0
836.0
835.0
831.0
829.0
829.0
830.0
833.0
833.0
834.0
832.0
838.0
840.0
842.0
838.0
837.0
836.0
838.0
841.0
844.0
843.0
842.0
840.0
843.0
847.0
851.0
848.0
844.0
842.0
845.0
846.0
849.0
846.0
847.0
845.0
847.0
853.0
853.0
854.0
848.0
847.0
846.0
847.0
850.0
852.0
848.0
846.0
850.0
852.0
853.0
854.0
850.0
846.0
844.0
847.0
847.0
846.0
847.0
845.0
847.0
847.0
849.0
846.0
837.0
839.0
839.0
837.0
843.0
842.0
841.0
840.0
842.0
843.0
847.0
845.0
842.0
838.0
836.0
838.0
841.0
842.0
838.0
836.0
834.0
837.0
839.0
836.0
833.0
826.0
823.0
823.0
822.0
828.0
826.0
821.0
822.0
823.0
826.0
827.0
823.0
821.0
817.0
817.0
817.0
821.0
820.0
820.0
816.0
821.0
825.0
826.0
824.0
823.0
819.0
821.0
822.0
828.0
828.0
830.0
829.0
829.0
832.0
828.0
830.0
830.0
832.0
832.0
837.0
838.0
842.0
844.0
847.0
852.0
860.0
865.0
867.0
865.0
868.0
874.0
874.0
874.0
876.0
873.0
870.0
873.0
878.0
877.0
869.0
864.0
858.0
858.0
860.0
860.0
860.0
850.0
843.0
844.0
838.0
837.0
833.0
827.0
823.0
825.0
826.0
827.0
825.0
823.0
820.0
824.0
825.0
825.0
823.0
815.0
814.0
814.0
820.0
820.0
818.0
813.0
810.0
805.0
796.0
789.0
784.0
790.0
809.0
837.0
874.0
917.0
957.0
991.0
1027.0
1065.0
1100.0
1131.0
1147.0
1158.0
1161.0
1161.0
1151.0
1142.0
1124.0
1100.0
1063.0
1005.0
943.0
880.0
839.0
817.0
815.0
826.0
842.0
849.0
844.0
843.0
833.0
829.0
820.0
815.0
808.0
805.0
804.0
807.0
809.0
812.0
811.0
810.0
812.0
812.0
813.0
817.0
818.0
810.0
810.0
810.0
812.0
814.0
816.0
812.0
811.0
814.0
816.0
820.0
817.0
815.0
813.0
811.0
814.0
816.0
819.0
818.0
818.0
819.0
819.0
819.0
823.0
819.0
817.0
815.0
819.0
823.0
828.0
830.0
829.0
828.0
828.0
829.0
830.0
831.0
826.0
827.0
827.0
830.0
834.0
838.0
837.0
837.0
834.0
834.0
836.0
838.0
832.0
830.0
834.0
839.0
839.0
839.0
835.0
837.0
839.0
845.0
840.0
842.0
836.0
834.0
836.0
840.0
843.0
843.0
840.0
839.0
838.0
839.0
838.0
837.0
833.0
830.0
833.0
837.0
837.0
839.0
836.0
836.0
837.0
839.0
836.0
832.0
833.0
831.0
830.0
832.0
833.0
834.0
833.0
832.0
828.0
834.0
832.0
829.0
825.0
820.0
822.0
824.0
828.0
825.0
826.0
822.0
820.0
820.0
821.0
819.0
816.0
812.0
809.0
811.0
813.0
813.0
814.0
813.0
814.0
814.0
815.0
815.0
812.0
808.0
808.0
811.0
818.0
819.0
818.0
820.0
819.0
824.0
823.0
822.0
816.0
817.0
820.0
822.0
829.0
833.0
834.0
834.0
831.0
836.0
838.0
839.0
839.0
843.0
846.0
851.0
860.0
867.0
866.0
870.0
869.0
870.0
871.0
870.0
864.0
862.0
864.0
866.0
865.0
862.0
860.0
859.0
855.0
854.0
852.0
851.0
843.0
833.0
828.0
825.0
828.0
827.0
826.0
826.0
822.0
822.0
822.0
822.0
816.0
813.0
808.0
813.0
817.0
818.0
817.0
816.0
816.0
815.0
814.0
809.0
798.0
788.0
778.0
778.0
783.0
798.0
824.0
863.0
905.0
945.0
986.0
1018.0
1049.0
1086.0
1114.0
1140.0
1152.0
1161.0
1158.0
1156.0
1145.0
1131.0
1108.0
1065.0
1013.0
950.0
888.0
845.0
823.0
816.0
825.0
841.0
850.0
850.0
847.0
829.0
817.0
811.0
806.0
802.0
803.0
803.0
802.0
805.0
806.0
808.0
807.0
803.0
803.0
803.0
801.0
806.0
808.0
809.0
807.0
810.0
812.0
813.0
812.0
808.0
806.0
807.0
808.0
812.0
809.0
814.0
811.0
815.0
815.0
817.0
817.0
816.0
814.0
814.0
816.0
817.0
816.0
820.0
821.0
828.0
827.0
823.0
823.0
819.0
822.0
824.0
826.0
827.0
824.0
828.0
832.0
835.0
836.0
833.0
830.0
831.0
830.0
831.0
830.0
830.0
832.0
834.0
838.0
839.0
839.0
832.0
834.0
833.0
838.0
834.0
836.0
834.0
834.0
837.0
840.0
841.0
839.0
835.0
831.0
831.0
829.0
830.0
825.0
826.0
826.0
832.0
831.0
830.0
829.0
829.0
828.0
830.0
831.0
825.0
820.0
822.0
827.0
827.0
828.0
826.0
823.0
823.0
825.0
822.0
818.0
813.0
814.0
818.0
815.0
812.0
811.0
812.0
811.0
816.0
815.0
811.0
807.0
806.0
806.0
804.0
810.0
809.0
807.0
807.0
807.0
812.0
812.0
808.0
805.0
807.0
805.0
807.0
812.0
811.0
810.0
812.0
816.0
815.0
815.0
815.0
813.0
811.0
813.0
817.0
824.0
823.0
824.0
825.0
832.0
832.0
837.0
835.0
840.0
843.0
847.0
854.0
857.0
861.0
864.0
866.0
867.0
866.0
868.0
867.0
862.0
856.0
859.0
857.0
857.0
855.0
854.0
852.0
854.0
852.0
846.0
835.0
829.0
827.0
823.0
821.0
817.0
817.0
818.0
820.0
821.0
818.0
813.0
812.0
813.0
812.0
815.0
814.0
813.0
812.0
816.0
819.0
817.0
809.0
800.0
788.0
776.0
775.0
775.0
789.0
814.0
850.0
892.0
937.0
977.0
1011.0
1045.0
1078.0
1111.0
1137.0
1152.0
1158.0
1162.0
1164.0
1153.0
1144.0
1126.0
1099.0
1048.0
989.0
926.0
874.0
841.0
817.0
819.0
829.0
844.0
853.0
852.0
841.0
828.0
814.0
809.0
806.0
803.0
799.0
799.0
798.0
800.0
803.0
806.0
802.0
802.0
804.0
804.0
803.0
805.0
803.0
802.0
802.0
804.0
810.0
807.0
806.0
803.0
804.0
807.0
808.0
808.0
808.0
805.0
807.0
811.0
812.0
810.0
808.0
806.0
807.0
812.0
811.0
813.0
811.0
811.0
813.0
816.0
816.0
817.0
814.0
814.0
815.0
817.0
820.0
821.0
820.0
820.0
823.0
822.0
826.0
829.0
826.0
826.0
826.0
826.0
831.0
831.0
829.0
828.0
830.0
836.0
839.0
841.0
839.0
834.0
831.0
830.0
834.0
832.0
830.0
832.0
835.0
834.0
836.0
837.0
837.0
835.0
834.0
832.0
834.0
835.0
835.0
832.0
831.0
832.0
836.0
839.0
834.0
832.0
824.0
823.0
823.0
827.0
825.0
823.0
822.0
822.0
824.0
832.0
832.0
826.0
824.0
823.0
823.0
822.0
821.0
822.0
817.0
817.0
822.0
825.0
825.0
824.0
817.0
812.0
810.0
810.0
814.0
816.0
818.0
814.0
814.0
816.0
815.0
816.0
813.0
807.0
804.0
807.0
808.0
811.0
816.0
814.0
817.0
816.0
816.0
821.0
819.0
815.0
812.0
810.0
817.0
819.0
829.0
828.0
827.0
828.0
829.0
832.0
833.0
832.0
826.0
829.0
835.0
844.0
848.0
852.0
852.0
857.0
862.0
867.0
868.0
868.0
866.0
864.0
869.0
870.0
874.0
875.0
872.0
868.0
866.0
865.0
863.0
861.0
856.0
857.0
854.0
852.0
850.0
844.0
838.0
832.0
832.0
831.0
827.0
821.0
819.0
817.0
819.0
822.0
825.0
826.0
821.0
819.0
823.0
824.0
823.0
823.0
819.0
816.0
817.0
816.0
809.0
796.0
783.0
777.0
779.0
792.0
813.0
841.0
874.0
914.0
958.0
1003.0
1039.0
1075.0
1108.0
1138.0
1164.0
1178.0
1182.0
1183.0
1173.0
1162.0
1141.0
1110.0
1054.0
983.0
921.0
867.0
837.0
830.0
832.0
842.0
850.0
854.0
850.0
847.0
836.0
824.0
814.0
811.0
811.0
811.0
808.0
808.0
805.0
807.0
810.0
815.0
819.0
817.0
819.0
820.0
821.0
822.0
819.0
813.0
808.0
805.0
807.0
810.0
813.0
815.0
816.0
818.0
821.0
821.0
822.0
817.0
815.0
813.0
816.0
823.0
825.0
823.0
823.0
822.0
824.0
826.0
822.0
816.0
813.0
818.0
820.0
823.0
827.0
827.0
828.0
831.0
834.0
835.0
834.0
831.0
829.0
825.0
831.0
831.0
834.0
835.0
833.0
836.0
837.0
838.0
835.0
834.0
831.0
832.0
834.0
838.0
842.0
839.0
842.0
846.0
847.0
846.0
842.0
835.0
836.0
841.0
843.0
843.0
843.0
841.0
841.0
846.0
848.0
847.0
842.0
838.0
838.0
838.0
840.0
842.0
840.0
837.0
842.0
843.0
848.0
844.0
840.0
839.0
834.0
833.0
839.0
842.0
840.0
838.0
839.0
841.0
841.0
839.0
832.0
825.0
823.0
822.0
827.0
831.0
835.0
833.0
833.0
832.0
831.0
832.0
829.0
824.0
822.0
825.0
828.0
830.0
829.0
827.0
827.0
829.0
830.0
832.0
829.0
826.0
826.0
831.0
830.0
833.0
833.0
835.0
839.0
842.0
845.0
842.0
845.0
847.0
851.0
855.0
862.0
865.0
866.0
870.0
877.0
881.0
884.0
882.0
880.0
874.0
876.0
878.0
877.0
877.0
874.0
874.0
873.0
872.0
876.0
877.0
869.0
861.0
862.0
858.0
853.0
849.0
850.0
844.0
844.0
843.0
844.0
843.0
836.0
832.0
832.0
833.0
835.0
836.0
833.0
833.0
836.0
839.0
838.0
838.0
831.0
828.0
819.0
811.0
799.0
791.0
787.0
794.0
811.0
845.0
882.0
924.0
968.0
1006.0
1042.0
1080.0
1113.0
1138.0
1162.0
1180.0
1188.0
1188.0
1185.0
1171.0
1151.0
1123.0
1084.0
1032.0
971.0
913.0
868.0
841.0
837.0
848.0
860.0
871.0
872.0
862.0
854.0
844.0
839.0
830.0
826.0
821.0
822.0
827.0
827.0
827.0
821.0
820.0
818.0
822.0
827.0
831.0
831.0
831.0
831.0
830.0
834.0
836.0
831.0
827.0
826.0
825.0
826.0
832.0
830.0
830.0
830.0
833.0
837.0
837.0
835.0
832.0
828.0
827.0
832.0
836.0
837.0
833.0
833.0
838.0
844.0
840.0
839.0
833.0
833.0
837.0
838.0
840.0
842.0
841.0
846.0
848.0
850.0
851.0
849.0
846.0
847.0
849.0
849.0
852.0
852.0
851.0
852.0
853.0
857.0
856.0
855.0
855.0
853.0
855.0
855.0
854.0
855.0
857.0
858.0
861.0
862.0
860.0
857.0
853.0
852.0
851.0
853.0
851.0
853.0
854.0
854.0
856.0
855.0
853.0
851.0
848.0
849.0
852.0
849.0
850.0
849.0
849.0
855.0
860.0
856.0
851.0
848.0
845.0
845.0
843.0
845.0
839.0
840.0
842.0
843.0
846.0
843.0
839.0
834.0
833.0
833.0
832.0
831.0
828.0
830.0
836.0
836.0
837.0
831.0
828.0
828.0
833.0
832.0
830.0
827.0
827.0
827.0
835.0
834.0
838.0
838.0
837.0
834.0
834.0
835.0
835.0
833.0
829.0
830.0
835.0
840.0
842.0
841.0
841.0
839.0
841.0
843.0
848.0
846.0
849.0
846.0
851.0
854.0
860.0
867.0
866.0
867.0
867.0
871.0
877.0
880.0
882.0
882.0
883.0
887.0
890.0
889.0
883.0
879.0
874.0
878.0
875.0
873.0
872.0
869.0
867.0
869.0
865.0
858.0
849.0
837.0
836.0
839.0
838.0
834.0
832.0
830.0
835.0
837.0
838.0
834.0
831.0
830.0
834.0
830.0
829.0
829.0
829.0
831.0
831.0
827.0
817.0
806.0
796.0
793.0
804.0
822.0
847.0
882.0
921.0
970.0
1014.0
1055.0
1092.0
1125.0
1151.0
1174.0
1186.0
1186.0
1178.0
1167.0
1154.0
1140.0
1114.0
1072.0
1013.0
942.0
890.0
854.0
837.0
837.0
843.0
853.0
861.0
863.0
859.0
848.0
839.0
828.0
823.0
821.0
821.0
821.0
822.0
819.0
820.0
823.0
824.0
827.0
829.0
827.0
827.0
828.0
828.0
828.0
827.0
823.0
821.0
829.0
830.0
831.0
830.0
828.0
829.0
832.0
832.0
829.0
824.0
824.0
827.0
833.0
837.0
838.0
837.0
836.0
835.0
836.0
835.0
838.0
835.0
833.0
836.0
842.0
846.0
847.0
845.0
842.0
845.0
845.0
846.0
848.0
844.0
844.0
843.0
847.0
848.0
853.0
856.0
852.0
851.0
854.0
856.0
855.0
852.0
848.0
851.0
852.0
857.0
858.0
852.0
853.0
852.0
852.0
858.0
857.0
853.0
849.0
847.0
855.0
858.0
858.0
858.0
855.0
853.0
853.0
850.0
847.0
843.0
842.0
844.0
844.0
849.0
850.0
851.0
846.0
845.0
846.0
847.0
847.0
843.0
840.0
841.0
844.0
845.0
847.0
848.0
845.0
839.0
839.0
838.0
839.0
837.0
831.0
829.0
832.0
834.0
835.0
835.0
832.0
828.0
826.0
826.0
825.0
822.0
821.0
818.0
818.0
819.0
825.0
830.0
828.0
823.0
820.0
822.0
827.0
828.0
826.0
823.0
819.0
820.0
829.0
834.0
831.0
830.0
826.0
826.0
826.0
834.0
833.0
828.0
831.0
836.0
840.0
845.0
842.0
838.0
841.0
841.0
846.0
851.0
854.0
858.0
863.0
869.0
874.0
882.0
879.0
876.0
874.0
875.0
876.0
874.0
871.0
870.0
869.0
867.0
869.0
868.0
863.0
862.0
856.0
855.0
854.0
849.0
844.0
835.0
830.0
831.0
835.0
837.0
832.0
827.0
824.0
822.0
823.0
822.0
821.0
819.0
817.0
820.0
828.0
831.0
826.0
828.0
821.0
820.0
819.0
816.0
810.0
798.0
784.0
786.0
793.0
810.0
834.0
864.0
897.0
937.0
979.0
1017.0
1054.0
1084.0
1114.0
1139.0
1162.0
1181.0
1183.0
1178.0
1165.0
1148.0
1129.0
1098.0
1051.0
982.0
919.0
869.0
838.0
829.0
833.0
841.0
848.0
849.0
853.0
843.0
834.0
823.0
816.0
812.0
810.0
817.0
817.0
813.0
813.0
810.0
810.0
811.0
811.0
809.0
814.0
813.0
816.0
818.0
819.0
818.0
815.0
812.0
813.0
813.0
815.0
814.0
816.0
814.0
816.0
824.0
826.0
824.0
819.0
815.0
817.0
819.0
822.0
824.0
821.0
824.0
826.0
828.0
833.0
833.0
828.0
825.0
825.0
823.0
830.0
833.0
832.0
834.0
832.0
837.0
841.0
839.0
838.0
835.0
834.0
836.0
836.0
840.0
838.0
839.0
841.0
842.0
844.0
846.0
845.0
842.0
839.0
840.0
842.0
844.0
845.0
842.0
842.0
846.0
846.0
848.0
844.0
839.0
837.0
839.0
839.0
837.0
837.0
838.0
838.0
839.0
842.0
844.0
840.0
838.0
834.0
832.0
835.0
840.0
839.0
838.0
834.0
832.0
832.0
835.0
837.0
835.0
830.0
830.0
828.0
829.0
830.0
830.0
830.0
830.0
829.0
830.0
830.0
824.0
822.0
817.0
810.0
816.0
818.0
824.0
822.0
817.0
813.0
815.0
818.0
815.0
813.0
811.0
809.0
808.0
809.0
812.0
813.0
811.0
