# Simple Text Format
# Sampling Rate (Hz):= 360.00
# Resolution:= 12
# Labels:= ECG
796.0
801.0
800.0
801.0
799.0
798.0
802.0
806.0
813.0
820.0
823.0
822.0
825.0
826.0
835.0
839.0
846.0
846.0
845.0
845.0
844.0
845.0
842.0
838.0
832.0
830.0
833.0
835.0
835.0
832.0
831.0
831.0
828.0
825.0
816.0
809.0
803.0
798.0
798.0
800.0
798.0
794.0
793.0
792.0
792.0
792.0
789.0
783.0
784.0
783.0
790.0
789.0
788.0
786.0
788.0
789.0
788.0
784.0
771.0
757.0
747.0
748.0
756.0
776.0
803.0
839.0
881.0
926.0
968.0
1006.0
1039.0
1064.0
1093.0
1120.0
1141.0
1154.0
1161.0
1156.0
1152.0
1137.0
1122.0
1088.0
1040.0
973.0
905.0
844.0
809.0
798.0
798.0
808.0
820.0
825.0
827.0
825.0
816.0
800.0
785.0
774.0
771.0
776.0
782.0
786.0
785.0
784.0
784.0
786.0
784.0
780.0
775.0
771.0
776.0
780.0
784.0
788.0
786.0
784.0
783.0
782.0
776.0
777.0
780.0
780.0
783.0
782.0
785.0
787.0
790.0
788.0
786.0
782.0
780.0
781.0
783.0
785.0
792.0
792.0
791.0
792.0
791.0
791.0
789.0
787.0
787.0
788.0
794.0
794.0
793.0
790.0
797.0
798.0
805.0
807.0
803.0
800.0
798.0
799.0
796.0
801.0
801.0
800.0
803.0
804.0
808.0
811.0
806.0
805.0
801.0
806.0
811.0
814.0
815.0
810.0
810.0
812.0
816.0
818.0
816.0
814.0
809.0
809.0
807.0
804.0
805.0
805.0
807.0
811.0
815.0
816.0
812.0
805.0
802.0
802.0
802.0
800.0
799.0
799.0
803.0
809.0
812.0
817.0
813.0
811.0
806.0
806.0
807.0
803.0
801.0
799.0
800.0
801.0
803.0
804.0
802.0
798.0
795.0
794.0
798.0
798.0
801.0
798.0
797.0
797.0
804.0
809.0
806.0
806.0
795.0
798.0
799.0
796.0
794.0
794.0
794.0
799.0
804.0
806.0
803.0
805.0
804.0
805.0
809.0
815.0
814.0
815.0
813.0
813.0
820.0
826.0
830.0
825.0
829.0
834.0
839.0
845.0
848.0
849.0
850.0
854.0
859.0
858.0
853.0
848.0
845.0
841.0
843.0
842.0
839.0
840.0
837.0
839.0
837.0
825.0
819.0
812.0
812.0
814.0
817.0
816.0
810.0
809.0
808.0
810.0
810.0
810.0
807.0
805.0
803.0
807.0
806.0
801.0
800.0
802.0
802.0
804.0
803.0
795.0
783.0
771.0
761.0
762.0
771.0
787.0
814.0
848.0
889.0
931.0
973.0
1006.0
1037.0
1069.0
1096.0
1122.0
1136.0
1144.0
1145.0
1141.0
1133.0
1122.0
1098.0
1058.0
998.0
930.0
869.0
828.0
809.0
806.0
814.0
829.0
839.0
845.0
842.0
831.0
814.0
802.0
793.0
795.0
797.0
799.0
800.0
804.0
805.0
812.0
814.0
809.0
803.0
801.0
802.0
802.0
810.0
807.0
809.0
806.0
805.0
803.0
805.0
806.0
802.0
801.0
802.0
804.0
809.0
814.0
812.0
811.0
809.0
812.0
815.0
814.0
815.0
810.0
804.0
807.0
812.0
817.0
814.0
813.0
814.0
818.0
824.0
827.0
822.0
820.0
816.0
815.0
817.0
819.0
822.0
823.0
826.0
828.0
831.0
834.0
834.0
828.0
823.0
821.0
823.0
824.0
822.0
822.0
821.0
821.0
828.0
833.0
837.0
833.0
829.0
829.0
827.0
829.0
826.0
825.0
828.0
830.0
836.0
834.0
833.0
831.0
829.0
828.0
828.0
828.0
825.0
827.0
827.0
827.0
827.0
832.0
833.0
826.0
822.0
820.0
824.0
827.0
826.0
825.0
825.0
827.0
833.0
831.0
829.0
825.0
821.0
819.0
822.0
826.0
827.0
825.0
822.0
822.0
827.0
826.0
826.0
822.0
820.0
815.0
817.0
820.0
821.0
821.0
821.0
820.0
823.0
824.0
828.0
827.0
821.0
819.0
819.0
822.0
824.0
825.0
823.0
825.0
826.0
831.0
831.0
833.0
828.0
826.0
828.0
829.0
836.0
834.0
837.0
841.0
846.0
849.0
849.0
846.0
842.0
841.0
849.0
858.0
860.0
864.0
868.0
866.0
874.0
873.0
878.0
876.0
871.0
869.0
872.0
871.0
872.0
873.0
868.0
865.0
873.0
873.0
874.0
871.0
865.0
862.0
856.0
853.0
852.0
847.0
842.0
839.0
847.0
843.0
840.0
840.0
835.0
831.0
830.0
832.0
833.0
836.0
834.0
834.0
839.0
837.0
839.0
838.0
835.0
826.0
822.0
815.0
806.0
797.0
797.0
808.0
828.0
865.0
907.0
955.0
1000.0
1038.0
1081.0
1112.0
1138.0
1156.0
1168.0
1168.0
1169.0
1158.0
1146.0
1132.0
1111.0
1082.0
1037.0
982.0
924.0
871.0
838.0
831.0
836.0
851.0
866.0
871.0
869.0
859.0
853.0
846.0
838.0
832.0
831.0
825.0
826.0
830.0
832.0
833.0
829.0
825.0
826.0
829.0
832.0
834.0
837.0
832.0
836.0
841.0
839.0
838.0
835.0
832.0
829.0
833.0
836.0
838.0
835.0
833.0
837.0
843.0
842.0
840.0
836.0
836.0
836.0
839.0
842.0
842.0
843.0
845.0
847.0
848.0
848.0
844.0
840.0
842.0
845.0
842.0
841.0
843.0
844.0
848.0
848.0
854.0
854.0
849.0
848.0
850.0
851.0
849.0
847.0
846.0
849.0
853.0
858.0
858.0
855.0
850.0
846.0
851.0
852.0
850.0
847.0
848.0
851.0
852.0
851.0
856.0
851.0
846.0
842.0
847.0
847.0
846.0
843.0
845.0
842.0
847.0
847.0
849.0
844.0
842.0
840.0
841.0
841.0
838.0
835.0
838.0
843.0
840.0
844.0
846.0
841.0
838.0
837.0
834.0
836.0
833.0
834.0
832.0
833.0
836.0
839.0
837.0
834.0
831.0
828.0
827.0
823.0
821.0
820.0
823.0
828.0
831.0
827.0
827.0
826.0
822.0
822.0
825.0
822.0
820.0
817.0
819.0
824.0
826.0
829.0
826.0
823.0
825.0
824.0
825.0
825.0
819.0
820.0
821.0
828.0
832.0
834.0
834.0
832.0
832.0
833.0
839.0
837.0
833.0
832.0
834.0
841.0
847.0
849.0
851.0
855.0
857.0
864.0
867.0
872.0
870.0
866.0
871.0
871.0
872.0
874.0
870.0
865.0
863.0
860.0
864.0
862.0
860.0
856.0
857.0
856.0
854.0
854.0
846.0
837.0
833.0
829.0
825.0
825.0
822.0
819.0
818.0
818.0
824.0
826.0
823.0
820.0
816.0
816.0
817.0
818.0
816.0
813.0
809.0
809.0
810.0
810.0
808.0
797.0
785.0
777.0
775.0
786.0
802.0
827.0
861.0
899.0
941.0
982.0
1023.0
1056.0
1086.0
1112.0
1135.0
1145.0
1150.0
1146.0
1144.0
1132.0
1125.0
1116.0
1098.0
1069.0
1014.0
945.0
883.0
839.0
814.0
807.0
816.0
826.0
837.0
845.0
845.0
838.0
826.0
813.0
805.0
801.0
801.0
803.0
806.0
805.0
804.0
804.0
809.0
807.0
808.0
806.0
800.0
801.0
804.0
807.0
808.0
806.0
806.0
810.0
812.0
813.0
812.0
806.0
807.0
806.0
810.0
810.0
806.0
811.0
808.0
815.0
815.0
816.0
816.0
812.0
809.0
809.0
810.0
816.0
818.0
820.0
819.0
819.0
824.0
824.0
822.0
819.0
818.0
817.0
820.0
824.0
826.0
827.0
825.0
827.0
831.0
831.0
832.0
828.0
822.0
820.0
821.0
828.0
829.0
830.0
832.0
830.0
831.0
830.0
832.0
831.0
831.0
824.0
823.0
826.0
833.0
833.0
836.0
834.0
828.0
831.0
830.0
830.0
827.0
825.0
820.0
820.0
821.0
826.0
828.0
821.0
824.0
819.0
823.0
825.0
822.0
819.0
816.0
817.0
819.0
827.0
826.0
823.0
823.0
821.0
822.0
821.0
823.0
822.0
819.0
813.0
811.0
817.0
822.0
822.0
819.0
816.0
815.0
814.0
815.0
811.0
809.0
805.0
806.0
805.0
807.0
810.0
812.0
807.0
803.0
804.0
804.0
806.0
804.0
801.0
798.0
803.0
808.0
809.0
809.0
808.0
806.0
806.0
806.0
810.0
806.0
804.0
804.0
808.0
811.0
815.0
817.0
816.0
814.0
813.0
812.0
818.0
820.0
817.0
819.0
822.0
823.0
834.0
835.0
835.0
839.0
841.0
845.0
848.0
844.0
849.0
846.0
849.0
855.0
855.0
857.0
853.0
849.0
846.0
849.0
848.0
844.0
842.0
837.0
839.0
841.0
840.0
835.0
825.0
815.0
812.0
812.0
810.0
808.0
802.0
802.0
804.0
809.0
811.0
809.0
807.0
804.0
797.0
804.0
802.0
801.0
799.0
798.0
800.0
801.0
801.0
795.0
781.0
776.0
765.0
767.0
774.0
788.0
807.0
839.0
878.0
919.0
964.0
1001.0
1034.0
1067.0
1088.0
1113.0
1130.0
1139.0
1143.0
1136.0
1125.0
1117.0
1106.0
1081.0
1027.0
956.0
887.0
835.0
802.0
794.0
794.0
809.0
823.0
833.0
830.0
816.0
804.0
797.0
791.0
790.0
790.0
791.0
789.0
787.0
794.0
798.0
801.0
800.0
796.0
797.0
798.0
800.0
798.0
797.0
795.0
797.0
802.0
804.0
803.0
803.0
802.0
804.0
804.0
803.0
806.0
801.0
800.0
802.0
803.0
809.0
809.0
810.0
808.0
807.0
808.0
811.0
809.0
808.0
807.0
808.0
812.0
815.0
816.0
816.0
815.0
814.0
816.0
819.0
819.0
817.0
813.0
813.0
818.0
822.0
822.0
825.0
819.0
821.0
820.0
820.0
822.0
818.0
817.0
821.0
824.0
827.0
825.0
823.0
826.0
825.0
823.0
824.0
821.0
820.0
820.0
822.0
825.0
828.0
826.0
822.0
824.0
824.0
824.0
826.0
823.0
815.0
814.0
816.0
819.0
824.0
821.0
818.0
815.0
818.0
819.0
817.0
815.0
812.0
813.0
816.0
820.0
823.0
821.0
821.0
821.0
820.0
820.0
819.0
816.0
812.0
804.0
806.0
812.0
815.0
813.0
812.0
810.0
809.0
810.0
809.0
806.0
803.0
798.0
798.0
802.0
804.0
806.0
803.0
801.0
804.0
807.0
807.0
803.0
798.0
799.0
800.0
803.0
801.0
803.0
807.0
809.0
810.0
812.0
808.0
807.0
809.0
810.0
816.0
818.0
819.0
819.0
817.0
819.0
823.0
827.0
826.0
826.0
832.0
835.0
844.0
850.0
854.0
855.0
858.0
859.0
860.0
860.0
856.0
852.0
849.0
847.0
846.0
844.0
842.0
842.0
840.0
839.0
838.0
836.0
828.0
817.0
811.0
809.0
811.0
816.0
815.0
815.0
813.0
814.0
813.0
815.0
814.0
810.0
803.0
800.0
800.0
806.0
811.0
812.0
813.0
810.0
808.0
809.0
803.0
791.0
778.0
766.0
767.0
776.0
793.0
811.0
838.0
879.0
919.0
960.0
996.0
1027.0
1055.0
1081.0
1108.0
1135.0
1151.0
1155.0
1159.0
1154.0
1144.0
1131.0
1105.0
1064.0
1010.0
941.0
885.0
843.0
825.0
818.0
824.0
833.0
842.0
847.0
841.0
831.0
823.0
810.0
807.0
804.0
805.0
805.0
805.0
798.0
797.0
799.0
801.0
800.0
801.0
800.0
805.0
809.0
812.0
813.0
813.0
807.0
802.0
801.0
804.0
803.0
810.0
805.0
802.0
806.0
810.0
815.0
815.0
812.0
808.0
806.0
807.0
809.0
809.0
805.0
805.0
805.0
813.0
814.0
819.0
814.0
812.0
811.0
813.0
812.0
811.0
810.0
810.0
815.0
820.0
824.0
827.0
821.0
817.0
817.0
820.0
819.0
819.0
814.0
817.0
822.0
826.0
824.0
830.0
826.0
825.0
824.0
826.0
824.0
824.0
824.0
821.0
825.0
829.0
834.0
839.0
839.0
833.0
828.0
826.0
827.0
832.0
831.0
829.0
829.0
830.0
833.0
835.0
834.0
833.0
825.0
822.0
822.0
825.0
824.0
823.0
823.0
827.0
829.0
834.0
837.0
837.0
833.0
829.0
827.0
822.0
825.0
824.0
824.0
826.0
828.0
830.0
829.0
825.0
823.0
825.0
823.0
828.0
824.0
822.0
820.0
822.0
822.0
825.0
822.0
816.0
817.0
817.0
820.0
818.0
817.0
813.0
816.0
820.0
823.0
824.0
821.0
819.0
818.0
819.0
820.0
824.0
827.0
827.0
825.0
830.0
834.0
841.0
842.0
838.0
835.0
837.0
843.0
845.0
850.0
853.0
855.0
860.0
866.0
872.0
875.0
878.0
875.0
869.0
865.0
869.0
871.0
870.0
872.0
869.0
868.0
867.0
866.0
865.0
862.0
859.0
858.0
857.0
855.0
854.0
848.0
840.0
835.0
836.0
834.0
834.0
829.0
826.0
824.0
828.0
827.0
823.0
823.0
821.0
826.0
831.0
831.0
830.0
831.0
824.0
819.0
819.0
813.0
802.0
787.0
779.0
783.0
794.0
817.0
848.0
882.0
918.0
960.0
1005.0
1037.0
1068.0
1102.0
1129.0
1148.0
1161.0
1166.0
1162.0
1155.0
1137.0
1117.0
1086.0
1037.0
976.0
911.0
860.0
832.0
824.0
831.0
842.0
852.0
856.0
858.0
850.0
841.0
829.0
818.0
812.0
812.0
812.0
814.0
812.0
813.0
810.0
813.0
817.0
816.0
816.0
818.0
821.0
826.0
823.0
822.0
821.0
819.0
815.0
817.0
812.0
809.0
809.0
811.0
821.0
820.0
819.0
818.0
816.0
819.0
822.0
822.0
820.0
818.0
819.0
820.0
822.0
819.0
816.0
819.0
819.0
822.0
821.0
816.0
815.0
818.0
820.0
824.0
826.0
824.0
824.0
824.0
825.0
828.0
825.0
825.0
822.0
820.0
822.0
823.0
825.0
825.0
826.0
829.0
829.0
830.0
830.0
825.0
821.0
822.0
823.0
827.0
828.0
827.0
826.0
827.0
829.0
828.0
829.0
827.0
822.0
819.0
823.0
826.0
826.0
825.0
826.0
826.0
825.0
822.0
821.0
818.0
816.0
817.0
818.0
824.0
820.0
822.0
825.0
825.0
826.0
821.0
818.0
814.0
809.0
810.0
814.0
813.0
813.0
813.0
819.0
820.0
821.0
817.0
809.0
807.0
807.0
808.0
810.0
812.0
811.0
811.0
813.0
817.0
818.0
814.0
812.0
810.0
812.0
813.0
815.0
815.0
814.0
815.0
817.0
819.0
819.0
815.0
811.0
816.0
818.0
818.0
819.0
822.0
825.0
829.0
832.0
834.0
835.0
835.0
838.0
846.0
849.0
853.0
853.0
856.0
862.0
863.0
861.0
859.0
861.0
862.0
858.0
857.0
852.0
847.0
847.0
847.0
848.0
851.0
855.0
850.0
837.0
835.0
828.0
826.0
824.0
819.0
818.0
818.0
821.0
823.0
821.0
816.0
812.0
811.0
812.0
813.0
813.0
811.0
809.0
809.0
816.0
820.0
822.0
814.0
807.0
799.0
792.0
781.0
778.0
775.0
785.0
803.0
838.0
881.0
925.0
967.0
1002.0
1035.0
1064.0
1091.0
1118.0
1132.0
1139.0
1143.0
1138.0
1135.0
1128.0
1117.0
1095.0
1061.0
1011.0
949.0
887.0
842.0
813.0
805.0
814.0
830.0
849.0
851.0
844.0
832.0
820.0
814.0
806.0
801.0
797.0
797.0
800.0
805.0
808.0
809.0
807.0
805.0
803.0
804.0
809.0
811.0
811.0
808.0
808.0
810.0
814.0
817.0
816.0
812.0
809.0
813.0
809.0
813.0
812.0
810.0
810.0
812.0
817.0
819.0
818.0
817.0
813.0
811.0
813.0
814.0
819.0
815.0
814.0
817.0
822.0
824.0
822.0
819.0
815.0
818.0
819.0
822.0
826.0
822.0
822.0
823.0
827.0
829.0
832.0
831.0
824.0
823.0
826.0
827.0
827.0
828.0
826.0
828.0
831.0
835.0
836.0
833.0
826.0
821.0
824.0
823.0
825.0
828.0
827.0
826.0
827.0
829.0
831.0
829.0
826.0
823.0
817.0
820.0
821.0
823.0
823.0
820.0
821.0
821.0
822.0
824.0
821.0
818.0
816.0
814.0
817.0
819.0
816.0
815.0
817.0
818.0
819.0
820.0
817.0
815.0
809.0
812.0
812.0
818.0
818.0
815.0
814.0
813.0
811.0
815.0
814.0
808.0
802.0
801.0
802.0
804.0
807.0
805.0
803.0
802.0
802.0
802.0
799.0
800.0
798.0
793.0
792.0
799.0
803.0
805.0
805.0
801.0
799.0
802.0
801.0
799.0
797.0
795.0
796.0
802.0
804.0
804.0
798.0
802.0
803.0
803.0
803.0
800.0
797.0
793.0
799.0
807.0
813.0
815.0
812.0
812.0
814.0
817.0
819.0
821.0
820.0
822.0
828.0
834.0
841.0
842.0
843.0
844.0
843.0
844.0
844.0
843.0
838.0
835.0
831.0
834.0
837.0
832.0
830.0
825.0
823.0
824.0
822.0
818.0
811.0
802.0
799.0
799.0
800.0
801.0
798.0
793.0
788.0
787.0
788.0
786.0
783.0
779.0
779.0
782.0
786.0
787.0
787.0
785.0
783.0
784.0
783.0
773.0
765.0
754.0
746.0
747.0
760.0
776.0
801.0
836.0
876.0
923.0
961.0
996.0
1025.0
1053.0
1078.0
1101.0
1119.0
1125.0
1126.0
1115.0
1104.0
1092.0
1074.0
1039.0
986.0
920.0
856.0
808.0
781.0
776.0
779.0
792.0
804.0
814.0
812.0
803.0
790.0
780.0
771.0
773.0
773.0
777.0
772.0
770.0
770.0
771.0
774.0
775.0
771.0
771.0
769.0
773.0
778.0
783.0
784.0
783.0
779.0
775.0
781.0
777.0
777.0
774.0
772.0
776.0
777.0
780.0
780.0
782.0
781.0
784.0
783.0
782.0
778.0
778.0
782.0
785.0
788.0
785.0
787.0
787.0
791.0
794.0
794.0
789.0
785.0
786.0
790.0
792.0
798.0
795.0
794.0
793.0
796.0
797.0
799.0
797.0
794.0
790.0
793.0
797.0
799.0
802.0
798.0
796.0
800.0
800.0
799.0
796.0
791.0
791.0
795.0
801.0
802.0
803.0
800.0
797.0
798.0
800.0
801.0
793.0
791.0
790.0
792.0
796.0
796.0
793.0
793.0
795.0
798.0
795.0
792.0
790.0
786.0
787.0
787.0
788.0
787.0
786.0
790.0
790.0
791.0
788.0
787.0
782.0
782.0
778.0
781.0
782.0
780.0
779.0
784.0
783.0
784.0
779.0
775.0
773.0
774.0
773.0
775.0
771.0
767.0
770.0
773.0
770.0
775.0
773.0
769.0
766.0
767.0
770.0
771.0
769.0
769.0
772.0
773.0
776.0
778.0
775.0
773.0
771.0
770.0
772.0
782.0
778.0
777.0
779.0
784.0
786.0
791.0
788.0
786.0
784.0
785.0
788.0
792.0
796.0
801.0
802.0
807.0
813.0
819.0
819.0
820.0
817.0
814.0
815.0
816.0
819.0
819.0
816.0
814.0
815.0
815.0
815.0
808.0
804.0
802.0
803.0
802.0
799.0
794.0
789.0
786.0
786.0
782.0
780.0
778.0
770.0
770.0
773.0
772.0
775.0
774.0
768.0
769.0
771.0
774.0
776.0
774.0
770.0
764.0
765.0
769.0
767.0
762.0
756.0
747.0
743.0
739.0
745.0
756.0
774.0
800.0
833.0
878.0
921.0
962.0
1003.0
1036.0
1067.0
1094.0
1107.0
1116.0
1116.0
1108.0
1097.0
1084.0
1066.0
1037.0
985.0
919.0
859.0
811.0
785.0
773.0
775.0
782.0
794.0
803.0
806.0
795.0
787.0
775.0
770.0
766.0
768.0
764.0
762.0
758.0
761.0
761.0
763.0
765.0
766.0
768.0
772.0
777.0
776.0
771.0
768.0
767.0
769.0
770.0
771.0
768.0
770.0
773.0
776.0
776.0
776.0
774.0
771.0
771.0
772.0
772.0
775.0
775.0
775.0
777.0
780.0
783.0
786.0
781.0
779.0
778.0
780.0
782.0
787.0
789.0
787.0
788.0
789.0
790.0
795.0
794.0
791.0
785.0
786.0
786.0
791.0
795.0
795.0
794.0
797.0
798.0
797.0
799.0
795.0
793.0
792.0
791.0
792.0
794.0
798.0
796.0
795.0
798.0
797.0
799.0
798.0
794.0
795.0
791.0
791.0
796.0
795.0
793.0
793.0
797.0
798.0
796.0
792.0
789.0
789.0
788.0
790.0
790.0
791.0
789.0
792.0
791.0
794.0
791.0
789.0
786.0
781.0
784.0
787.0
788.0
788.0
785.0
790.0
790.0
788.0
790.0
786.0
778.0
776.0
776.0
781.0
781.0
781.0
779.0
779.0
780.0
780.0
781.0
780.0
774.0
771.0
770.0
772.0
775.0
776.0
773.0
776.0
777.0
782.0
780.0
778.0
774.0
774.0
776.0
776.0
784.0
784.0
783.0
781.0
781.0
782.0
784.0
780.0
780.0
780.0
778.0
784.0
789.0
789.0
794.0
795.0
796.0
798.0
794.0
793.0
793.0
798.0
803.0
807.0
809.0
816.0
821.0
828.0
830.0
834.0
831.0
827.0
826.0
825.0
825.0
828.0
828.0
826.0
823.0
821.0
821.0
820.0
819.0
815.0
813.0
808.0
805.0
802.0
800.0
795.0
791.0
788.0
785.0
787.0
785.0
785.0
780.0
779.0
779.0
781.0
783.0
785.0
779.0
779.0
782.0
786.0
782.0
780.0
774.0
767.0
763.0
758.0
753.0
749.0
746.0
749.0
761.0
790.0
820.0
858.0
901.0
944.0
985.0
1027.0
1070.0
1101.0
1127.0
1143.0
1146.0
1142.0
1134.0
1114.0
1096.0
1061.0
1014.0
948.0
883.0
830.0
793.0
784.0
789.0
803.0
812.0
815.0
812.0
804.0
798.0
791.0
785.0
778.0
772.0
775.0
775.0
776.0
774.0
771.0
764.0
766.0
772.0
774.0
776.0
776.0
775.0
780.0
782.0
782.0
779.0
774.0
775.0
777.0
777.0
779.0
780.0
777.0
779.0
780.0
780.0
784.0
780.0
778.0
775.0
776.0
782.0
784.0
785.0
787.0
788.0
791.0
791.0
793.0
790.0
786.0
784.0
783.0
787.0
789.0
790.0
791.0
791.0
797.0
801.0
803.0
802.0
799.0
794.0
796.0
798.0
799.0
800.0
801.0
802.0
802.0
802.0
807.0
803.0
802.0
799.0
801.0
806.0
810.0
812.0
808.0
810.0
812.0
814.0
811.0
807.0
807.0
801.0
803.0
801.0
805.0
805.0
804.0
803.0
801.0
809.0
809.0
806.0
801.0
801.0
801.0
800.0
806.0
807.0
808.0
806.0
809.0
808.0
811.0
806.0
800.0
798.0
799.0
797.0
800.0
799.0
800.0
800.0
806.0
807.0
807.0
803.0
797.0
796.0
797.0
796.0
791.0
796.0
791.0
794.0
795.0
797.0
792.0
789.0
787.0
787.0
791.0
789.0
786.0
790.0
791.0
795.0
802.0
801.0
799.0
797.0
795.0
797.0
802.0
800.0
798.0
792.0
797.0
797.0
805.0
808.0
810.0
810.0
812.0
811.0
812.0
813.0
807.0
807.0
809.0
815.0
826.0
832.0
830.0
834.0
831.0
835.0
839.0
846.0
846.0
846.0
848.0
849.0
856.0
855.0
854.0
851.0
845.0
841.0
845.0
839.0
842.0
839.0
838.0
836.0
838.0
835.0
830.0
820.0
815.0
812.0
812.0
804.0
806.0
803.0
805.0
806.0
810.0
810.0
807.0
802.0
800.0
800.0
802.0
805.0
802.0
801.0
802.0
803.0
801.0
796.0
779.0
768.0
761.0
758.0
766.0
784.0
807.0
837.0
866.0
904.0
946.0
985.0
1019.0
1052.0
1083.0
1109.0
1132.0
1149.0
1157.0
1156.0
1153.0
1141.0
1126.0
1108.0
1080.0
1027.0
962.0
899.0
850.0
822.0
812.0
817.0
822.0
830.0
838.0
841.0
841.0
832.0
822.0
809.0
801.0
793.0
795.0
798.0
802.0
802.0
800.0
799.0
799.0
803.0
802.0
802.0
801.0
801.0
802.0
807.0
808.0
805.0
804.0
805.0
806.0
807.0
806.0
803.0
805.0
799.0
803.0
804.0
808.0
807.0
805.0
809.0
811.0
814.0
812.0
810.0
803.0
802.0
806.0
810.0
816.0
817.0
811.0
810.0
810.0
812.0
815.0
814.0
812.0
811.0
812.0
814.0
820.0
818.0
817.0
815.0
814.0
813.0
818.0
822.0
818.0
816.0
818.0
819.0
826.0
829.0
829.0
827.0
824.0
826.0
824.0
828.0
823.0
821.0
821.0
821.0
825.0
830.0
831.0
831.0
828.0
826.0
828.0
829.0
827.0
825.0
821.0
821.0
826.0
831.0
831.0
831.0
830.0
826.0
823.0
823.0
825.0
823.0
823.0
824.0
828.0
830.0
833.0
827.0
826.0
825.0
827.0
827.0
824.0
818.0
816.0
821.0
822.0
828.0
827.0
826.0
823.0
819.0
816.0
820.0
818.0
817.0
817.0
816.0
816.0
820.0
824.0
822.0
817.0
815.0
812.0
815.0
815.0
814.0
814.0
812.0
811.0
817.0
821.0
824.0
821.0
818.0
815.0
818.0
816.0
822.0
824.0
821.0
823.0
825.0
830.0
831.0
835.0
835.0
831.0
827.0
829.0
832.0
836.0
841.0
842.0
844.0
852.0
857.0
861.0
866.0
865.0
863.0
863.0
862.0
865.0
867.0
867.0
863.0
864.0
864.0
864.0
861.0
853.0
850.0
850.0
851.0
855.0
854.0
850.0
841.0
836.0
832.0
832.0
833.0
833.0
829.0
819.0
819.0
821.0
820.0
823.0
820.0
821.0
822.0
822.0
823.0
820.0
817.0
815.0
813.0
816.0
816.0
815.0
806.0
796.0
786.0
780.0
780.0
792.0
808.0
835.0
873.0
917.0
965.0
1010.0
1048.0
1078.0
1107.0
1137.0
1156.0
1163.0
1166.0
1159.0
1153.0
1146.0
1133.0
1117.0
1084.0
1031.0
971.0
908.0
859.0
829.0
820.0
823.0
831.0
847.0
856.0
850.0
841.0
831.0
824.0
817.0
812.0
806.0
806.0
806.0
812.0
814.0
814.0
815.0
815.0
818.0
818.0
824.0
821.0
819.0
812.0
811.0
813.0
817.0
820.0
821.0
819.0
821.0
820.0
822.0
824.0
823.0
819.0
818.0
820.0
823.0
827.0
828.0
829.0
824.0
824.0
827.0
830.0
831.0
830.0
825.0
822.0
825.0
827.0
832.0
832.0
833.0
833.0
832.0
836.0
835.0
834.0
829.0
830.0
832.0
836.0
838.0
837.0
840.0
839.0
841.0
840.0
841.0
838.0
834.0
835.0
834.0
837.0
840.0
840.0
839.0
843.0
844.0
843.0
840.0
838.0
837.0
836.0
842.0
840.0
839.0
837.0
839.0
842.0
843.0
840.0
837.0
831.0
830.0
833.0
833.0
832.0
834.0
834.0
838.0
841.0
844.0
842.0
837.0
833.0
834.0
833.0
833.0
835.0
831.0
830.0
831.0
836.0
837.0
835.0
829.0
823.0
823.0
823.0
824.0
826.0
826.0
824.0
826.0
823.0
827.0
826.0
822.0
818.0
811.0
812.0
817.0
821.0
822.0
817.0
820.0
819.0
826.0
827.0
822.0
817.0
813.0
815.0
818.0
819.0
823.0
822.0
825.0
828.0
825.0
827.0
823.0
823.0
821.0
823.0
827.0
826.0
827.0
828.0
832.0
839.0
840.0
837.0
832.0
833.0
832.0
836.0
842.0
847.0
849.0
853.0
860.0
867.0
872.0
876.0
871.0
868.0
868.0
865.0
870.0
872.0
870.0
868.0
863.0
864.0
863.0
866.0
863.0
861.0
855.0
855.0
855.0
854.0
849.0
840.0
836.0
833.0
831.0
833.0
827.0
823.0
818.0
818.0
818.0
822.0
824.0
823.0
820.0
819.0
821.0
826.0
822.0
820.0
816.0
810.0
813.0
811.0
804.0
796.0
787.0
785.0
790.0
805.0
825.0
858.0
897.0
940.0
985.0
1027.0
1062.0
1094.0
1123.0
1145.0
1158.0
1164.0
1159.0
1149.0
1140.0
1124.0
1108.0
1085.0
1040.0
978.0
917.0
865.0
832.0
819.0
818.0
826.0
837.0
840.0
845.0
838.0
829.0
823.0
813.0
810.0
808.0
812.0
808.0
809.0
802.0
801.0
804.0
807.0
812.0
810.0
808.0
812.0
813.0
814.0
814.0
811.0
806.0
805.0
809.0
812.0
815.0
815.0
816.0
815.0
814.0
819.0
818.0
817.0
812.0
809.0
813.0
815.0
817.0
820.0
822.0
822.0
822.0
823.0
822.0
821.0
816.0
819.0
821.0
825.0
827.0
828.0
827.0
828.0
829.0
832.0
832.0
832.0
829.0
827.0
825.0
831.0
832.0
834.0
834.0
833.0
834.0
837.0
836.0
831.0
831.0
829.0
832.0
832.0
839.0
841.0
841.0
840.0
840.0
838.0
841.0
840.0
839.0
834.0
833.0
833.0
838.0
836.0
838.0
836.0
834.0
835.0
834.0
833.0
830.0
827.0
827.0
830.0
833.0
837.0
832.0
830.0
830.0
829.0
830.0
830.0
830.0
825.0
825.0
827.0
832.0
833.0
828.0
829.0
829.0
831.0
830.0
823.0
821.0
819.0
819.0
822.0
822.0
820.0
816.0
817.0
818.0
820.0
817.0
816.0
811.0
809.0
809.0
810.0
811.0
814.0
814.0
813.0
814.0
814.0
815.0
815.0
810.0
810.0
814.0
817.0
819.0
818.0
818.0
819.0
821.0
821.0
822.0
819.0
819.0
818.0
821.0
819.0
827.0
828.0
829.0
831.0
832.0
836.0
834.0
834.0
830.0
830.0
838.0
846.0
852.0
861.0
862.0
864.0
866.0
872.0
871.0
864.0
858.0
862.0
865.0
866.0
869.0
867.0
862.0
861.0
859.0
858.0
854.0
847.0
843.0
840.0
833.0
831.0
826.0
821.0
822.0
825.0
825.0
823.0
823.0
817.0
815.0
813.0
814.0
815.0
818.0
816.0
814.0
819.0
819.0
820.0
817.0
812.0
810.0
802.0
792.0
787.0
783.0
780.0
783.0
800.0
825.0
858.0
894.0
932.0
971.0
1013.0
1050.0
1085.0
1117.0
1138.0
1155.0
1164.0
1165.0
1159.0
1145.0
1124.0
1104.0
1069.0
1015.0
951.0
890.0
847.0
821.0
816.0
827.0
842.0
849.0
852.0
842.0
834.0
822.0
815.0
810.0
808.0
807.0
809.0
812.0
810.0
805.0
805.0
804.0
807.0
810.0
810.0
810.0
809.0
812.0
814.0
816.0
810.0
808.0
808.0
807.0
809.0
809.0
813.0
809.0
812.0
813.0
816.0
817.0
814.0
814.0
811.0
816.0
815.0
818.0
818.0
819.0
817.0
820.0
827.0
822.0
823.0
817.0
814.0
818.0
820.0
823.0
822.0
827.0
827.0
830.0
832.0
834.0
833.0
