# Simple Text Format
# Sampling Rate (Hz):= 360.00
# Resolution:= 12
# Labels:= ECG
868.0
868.0
868.0
868.0
868.0
868.0
868.0
868.0
868.0
869.0
873.0
873.0
875.0
875.0
871.0
872.0
875.0
875.0
872.0
872.0
874.0
877.0
883.0
885.0
886.0
883.0
879.0
880.0
884.0
891.0
895.0
902.0
905.0
908.0
914.0
920.0
917.0
916.0
914.0
915.0
917.0
916.0
915.0
912.0
909.0
907.0
908.0
908.0
906.0
903.0
903.0
903.0
902.0
902.0
895.0
887.0
886.0
881.0
884.0
881.0
877.0
873.0
866.0
869.0
865.0
867.0
865.0
862.0
868.0
871.0
873.0
876.0
876.0
867.0
859.0
856.0
846.0
839.0
832.0
831.0
834.0
850.0
878.0
913.0
955.0
996.0
1034.0
1071.0
1106.0
1138.0
1165.0
1184.0
1193.0
1195.0
1193.0
1185.0
1170.0
1154.0
1130.0
1092.0
1037.0
972.0
913.0
875.0
860.0
861.0
873.0
884.0
890.0
890.0
885.0
876.0
870.0
856.0
851.0
852.0
855.0
860.0
862.0
858.0
853.0
853.0
856.0
855.0
858.0
856.0
854.0
856.0
861.0
864.0
862.0
860.0
854.0
852.0
856.0
858.0
857.0
856.0
855.0
857.0
863.0
864.0
864.0
863.0
860.0
858.0
859.0
862.0
856.0
851.0
851.0
853.0
860.0
864.0
870.0
867.0
868.0
865.0
866.0
866.0
864.0
860.0
860.0
864.0
871.0
881.0
878.0
876.0
873.0
871.0
870.0
873.0
871.0
871.0
872.0
872.0
876.0
880.0
881.0
879.0
879.0
880.0
880.0
881.0
877.0
876.0
873.0
877.0
879.0
880.0
880.0
873.0
870.0
870.0
876.0
876.0
877.0
873.0
872.0
872.0
871.0
875.0
878.0
874.0
876.0
876.0
875.0
880.0
872.0
867.0
868.0
867.0
873.0
874.0
873.0
870.0
868.0
870.0
871.0
869.0
865.0
863.0
858.0
860.0
864.0
867.0
867.0
864.0
863.0
862.0
859.0
859.0
854.0
850.0
848.0
852.0
854.0
856.0
857.0
853.0
853.0
854.0
856.0
855.0
853.0
851.0
851.0
856.0
859.0
860.0
862.0
860.0
862.0
869.0
866.0
867.0
864.0
861.0
866.0
873.0
880.0
882.0
887.0
886.0
890.0
893.0
899.0
902.0
898.0
898.0
897.0
898.0
902.0
903.0
901.0
899.0
899.0
896.0
898.0
893.0
891.0
886.0
887.0
887.0
889.0
888.0
883.0
876.0
873.0
871.0
866.0
864.0
858.0
854.0
853.0
855.0
856.0
856.0
853.0
853.0
851.0
853.0
853.0
854.0
849.0
848.0
844.0
842.0
839.0
829.0
817.0
810.0
810.0
820.0
841.0
863.0
889.0
926.0
968.0
1010.0
1051.0
1087.0
1120.0
1147.0
1167.0
1182.0
1183.0
1178.0
1166.0
1151.0
1134.0
1109.0
1062.0
997.0
934.0
886.0
858.0
850.0
850.0
856.0
864.0
866.0
869.0
868.0
860.0
851.0
846.0
841.0
840.0
838.0
841.0
837.0
834.0
830.0
833.0
837.0
840.0
840.0
839.0
843.0
843.0
846.0
843.0
841.0
838.0
829.0
835.0
837.0
843.0
843.0
841.0
841.0
839.0
841.0
842.0
840.0
837.0
839.0
838.0
840.0
847.0
848.0
843.0
844.0
843.0
846.0
850.0
850.0
845.0
841.0
841.0
845.0
849.0
851.0
854.0
854.0
847.0
854.0
857.0
858.0
856.0
852.0
849.0
854.0
856.0
860.0
862.0
859.0
859.0
862.0
861.0
866.0
860.0
857.0
857.0
862.0
866.0
870.0
869.0
869.0
867.0
864.0
865.0
866.0
866.0
861.0
860.0
859.0
861.0
867.0
866.0
866.0
864.0
861.0
861.0
861.0
860.0
856.0
854.0
853.0
853.0
856.0
860.0
861.0
858.0
856.0
855.0
854.0
856.0
853.0
850.0
849.0
854.0
857.0
858.0
859.0
852.0
846.0
849.0
849.0
847.0
849.0
845.0
844.0
841.0
841.0
848.0
845.0
840.0
839.0
836.0
836.0
835.0
834.0
832.0
833.0
836.0
838.0
840.0
840.0
838.0
838.0
839.0
840.0
840.0
839.0
839.0
843.0
850.0
855.0
859.0
857.0
852.0
854.0
857.0
865.0
870.0
872.0
874.0
874.0
880.0
888.0
891.0
892.0
890.0
884.0
886.0
886.0
885.0
884.0
877.0
875.0
877.0
880.0
880.0
882.0
881.0
876.0
874.0
871.0
864.0
856.0
849.0
847.0
844.0
848.0
849.0
847.0
846.0
843.0
839.0
839.0
837.0
836.0
835.0
830.0
833.0
834.0
843.0
840.0
838.0
831.0
824.0
817.0
810.0
799.0
793.0
792.0
804.0
828.0
860.0
898.0
937.0
974.0
1012.0
1041.0
1077.0
1108.0
1133.0
1149.0
1159.0
1166.0
1167.0
1160.0
1151.0
1135.0
1114.0
1073.0
1027.0
969.0
912.0
872.0
845.0
835.0
839.0
853.0
861.0
861.0
854.0
839.0
835.0
831.0
825.0
821.0
820.0
818.0
821.0
827.0
826.0
826.0
820.0
817.0
818.0
818.0
824.0
825.0
824.0
823.0
825.0
830.0
834.0
832.0
823.0
821.0
820.0
821.0
822.0
825.0
826.0
826.0
824.0
828.0
830.0
835.0
831.0
827.0
828.0
828.0
829.0
829.0
832.0
832.0
836.0
837.0
836.0
838.0
830.0
831.0
830.0
833.0
835.0
837.0
836.0
838.0
844.0
848.0
848.0
844.0
843.0
837.0
836.0
837.0
836.0
839.0
846.0
848.0
851.0
852.0
853.0
850.0
845.0
846.0
845.0
846.0
847.0
848.0
847.0
845.0
844.0
850.0
854.0
854.0
851.0
846.0
849.0
846.0
847.0
844.0
850.0
847.0
848.0
845.0
848.0
848.0
843.0
838.0
837.0
839.0
840.0
844.0
845.0
844.0
842.0
842.0
841.0
842.0
839.0
834.0
833.0
831.0
830.0
832.0
836.0
837.0
837.0
835.0
836.0
835.0
834.0
830.0
825.0
824.0
822.0
822.0
822.0
819.0
824.0
824.0
825.0
828.0
826.0
824.0
820.0
821.0
819.0
823.0
827.0
827.0
827.0
830.0
829.0
834.0
833.0
834.0
833.0
833.0
834.0
838.0
843.0
845.0
849.0
852.0
855.0
862.0
862.0
864.0
863.0
865.0
866.0
873.0
874.0
876.0
875.0
870.0
871.0
870.0
871.0
872.0
866.0
862.0
860.0
863.0
865.0
867.0
867.0
865.0
857.0
852.0
848.0
844.0
842.0
841.0
836.0
829.0
833.0
833.0
836.0
839.0
833.0
829.0
828.0
822.0
823.0
824.0
823.0
826.0
826.0
826.0
822.0
815.0
804.0
789.0
784.0
784.0
790.0
802.0
822.0
851.0
888.0
931.0
971.0
1006.0
1037.0
1066.0
1094.0
1124.0
1145.0
1157.0
1164.0
1163.0
1156.0
1150.0
1131.0
1105.0
1054.0
992.0
930.0
886.0
856.0
845.0
839.0
844.0
852.0
863.0
864.0
862.0
849.0
834.0
824.0
820.0
815.0
814.0
811.0
811.0
812.0
814.0
821.0
822.0
821.0
813.0
815.0
817.0
817.0
819.0
818.0
818.0
818.0
820.0
820.0
824.0
819.0
819.0
815.0
814.0
815.0
816.0
818.0
818.0
821.0
822.0
824.0
822.0
817.0
816.0
819.0
824.0
825.0
821.0
819.0
820.0
823.0
827.0
830.0
829.0
821.0
820.0
821.0
822.0
827.0
832.0
831.0
832.0
830.0
834.0
834.0
836.0
831.0
831.0
837.0
842.0
839.0
835.0
834.0
834.0
834.0
844.0
844.0
846.0
846.0
841.0
846.0
846.0
845.0
847.0
842.0
840.0
843.0
843.0
847.0
850.0
844.0
839.0
841.0
839.0
837.0
834.0
831.0
832.0
834.0
839.0
846.0
849.0
845.0
843.0
840.0
841.0
837.0
834.0
834.0
834.0
837.0
839.0
834.0
835.0
839.0
839.0
839.0
837.0
832.0
830.0
829.0
826.0
830.0
826.0
826.0
823.0
826.0
830.0
829.0
827.0
821.0
822.0
821.0
824.0
824.0
827.0
825.0
834.0
837.0
839.0
839.0
836.0
835.0
836.0
839.0
852.0
858.0
859.0
857.0
866.0
871.0
873.0
874.0
872.0
867.0
870.0
870.0
873.0
875.0
875.0
869.0
869.0
868.0
869.0
867.0
862.0
858.0
856.0
856.0
856.0
854.0
851.0
844.0
842.0
840.0
839.0
838.0
832.0
826.0
823.0
821.0
822.0
823.0
827.0
828.0
832.0
834.0
832.0
828.0
812.0
802.0
794.0
786.0
779.0
788.0
804.0
831.0
861.0
899.0
937.0
974.0
1009.0
1044.0
1076.0
1108.0
1133.0
1149.0
1160.0
1163.0
1163.0
1151.0
1132.0
1102.0
1062.0
1011.0
950.0
896.0
856.0
832.0
828.0
836.0
849.0
859.0
861.0
855.0
847.0
837.0
828.0
820.0
816.0
812.0
811.0
820.0
822.0
820.0
817.0
812.0
811.0
812.0
817.0
820.0
821.0
822.0
825.0
826.0
825.0
823.0
817.0
818.0
817.0
817.0
818.0
816.0
816.0
821.0
822.0
825.0
827.0
824.0
819.0
818.0
819.0
819.0
819.0
819.0
819.0
823.0
830.0
832.0
832.0
827.0
824.0
819.0
824.0
826.0
827.0
828.0
829.0
833.0
838.0
841.0
838.0
835.0
834.0
833.0
835.0
835.0
835.0
830.0
832.0
837.0
840.0
843.0
843.0
841.0
840.0
841.0
843.0
838.0
838.0
835.0
838.0
843.0
848.0
851.0
846.0
842.0
838.0
841.0
839.0
841.0
836.0
836.0
836.0
836.0
843.0
845.0
842.0
842.0
835.0
833.0
835.0
836.0
830.0
833.0
835.0
838.0
839.0
840.0
836.0
838.0
834.0
834.0
832.0
832.0
829.0
827.0
826.0
829.0
832.0
832.0
831.0
824.0
820.0
823.0
822.0
821.0
818.0
815.0
818.0
821.0
824.0
826.0
825.0
824.0
821.0
820.0
822.0
824.0
822.0
820.0
821.0
821.0
827.0
829.0
830.0
827.0
830.0
828.0
831.0
833.0
831.0
831.0
833.0
837.0
841.0
840.0
841.0
841.0
845.0
850.0
855.0
857.0
860.0
860.0
862.0
870.0
874.0
873.0
872.0
872.0
868.0
868.0
866.0
858.0
856.0
855.0
853.0
861.0
861.0
859.0
857.0
853.0
848.0
844.0
838.0
830.0
830.0
829.0
831.0
830.0
828.0
826.0
824.0
822.0
823.0
823.0
820.0
818.0
818.0
823.0
821.0
824.0
822.0
814.0
802.0
791.0
785.0
781.0
784.0
792.0
812.0
845.0
886.0
931.0
966.0
1001.0
1034.0
1069.0
1097.0
1123.0
1140.0
1145.0
1150.0
1147.0
1145.0
1139.0
1128.0
1107.0
1071.0
1013.0
950.0
893.0
851.0
827.0
817.0
819.0
838.0
848.0
852.0
847.0
843.0
832.0
824.0
816.0
811.0
804.0
802.0
805.0
805.0
811.0
815.0
813.0
812.0
809.0
810.0
813.0
812.0
809.0
806.0
808.0
811.0
815.0
815.0
816.0
815.0
813.0
816.0
817.0
813.0
808.0
807.0
808.0
814.0
816.0
815.0
816.0
815.0
816.0
819.0
820.0
820.0
819.0
819.0
820.0
820.0
828.0
828.0
828.0
826.0
824.0
826.0
828.0
825.0
825.0
822.0
824.0
826.0
830.0
831.0
834.0
833.0
831.0
832.0
838.0
835.0
834.0
830.0
832.0
836.0
842.0
842.0
842.0
840.0
840.0
843.0
842.0
840.0
837.0
831.0
833.0
837.0
838.0
839.0
837.0
837.0
837.0
837.0
832.0
827.0
828.0
830.0
829.0
836.0
835.0
836.0
835.0
835.0
834.0
833.0
833.0
831.0
825.0
822.0
825.0
831.0
833.0
834.0
830.0
828.0
826.0
830.0
826.0
821.0
820.0
816.0
818.0
819.0
821.0
821.0
819.0
820.0
820.0
819.0
818.0
815.0
808.0
807.0
807.0
811.0
814.0
817.0
818.0
817.0
819.0
821.0
819.0
815.0
813.0
811.0
815.0
816.0
822.0
820.0
825.0
828.0
831.0
834.0
831.0
833.0
830.0
833.0
839.0
848.0
849.0
853.0
856.0
864.0
867.0
871.0
869.0
864.0
863.0
866.0
865.0
866.0
863.0
863.0
861.0
863.0
863.0
860.0
857.0
850.0
848.0
848.0
847.0
845.0
838.0
834.0
829.0
832.0
833.0
830.0
825.0
822.0
820.0
817.0
818.0
821.0
821.0
820.0
817.0
819.0
819.0
824.0
822.0
817.0
810.0
807.0
806.0
799.0
793.0
783.0
782.0
788.0
810.0
840.0
875.0
914.0
953.0
990.0
1029.0
1066.0
1100.0
1126.0
1144.0
1154.0
1161.0
1158.0
1149.0
1134.0
1117.0
1095.0
1058.0
1000.0
940.0
881.0
843.0
824.0
823.0
832.0
841.0
846.0
842.0
837.0
829.0
819.0
814.0
809.0
806.0
806.0
810.0
812.0
811.0
806.0
805.0
804.0
808.0
810.0
811.0
811.0
814.0
809.0
811.0
816.0
817.0
816.0
811.0
809.0
809.0
814.0
816.0
817.0
813.0
809.0
815.0
816.0
815.0
816.0
812.0
810.0
812.0
815.0
824.0
824.0
817.0
817.0
819.0
821.0
823.0
822.0
818.0
816.0
816.0
820.0
827.0
829.0
831.0
830.0
828.0
828.0
832.0
830.0
830.0
831.0
831.0
831.0
834.0
837.0
841.0
837.0
839.0
840.0
838.0
839.0
836.0
834.0
837.0
840.0
843.0
847.0
844.0
843.0
842.0
842.0
847.0
843.0
839.0
838.0
835.0
836.0
842.0
846.0
840.0
840.0
839.0
840.0
839.0
838.0
837.0
834.0
831.0
829.0
835.0
839.0
839.0
835.0
836.0
836.0
835.0
836.0
834.0
829.0
827.0
824.0
830.0
832.0
834.0
836.0
831.0
830.0
830.0
828.0
828.0
821.0
818.0
817.0
819.0
824.0
825.0
826.0
824.0
817.0
816.0
817.0
820.0
816.0
820.0
816.0
816.0
817.0
823.0
826.0
823.0
819.0
819.0
821.0
824.0
824.0
824.0
822.0
825.0
830.0
837.0
839.0
838.0
836.0
835.0
836.0
839.0
840.0
843.0
843.0
847.0
855.0
863.0
869.0
871.0
871.0
870.0
869.0
870.0
872.0
875.0
872.0
866.0
869.0
870.0
872.0
871.0
865.0
858.0
855.0
856.0
859.0
858.0
856.0
850.0
845.0
844.0
843.0
843.0
839.0
834.0
828.0
822.0
824.0
825.0
827.0
825.0
820.0
820.0
821.0
824.0
828.0
830.0
825.0
821.0
819.0
818.0
821.0
817.0
809.0
800.0
791.0
788.0
791.0
804.0
822.0
854.0
894.0
938.0
984.0
1024.0
1064.0
1105.0
1133.0
1154.0
1165.0
1169.0
1160.0
1151.0
1138.0
1125.0
1107.0
1077.0
1029.0
969.0
914.0
874.0
851.0
839.0
836.0
840.0
847.0
852.0
849.0
849.0
837.0
828.0
822.0
818.0
818.0
817.0
815.0
813.0
810.0
811.0
812.0
815.0
814.0
816.0
818.0
817.0
819.0
819.0
819.0
817.0
814.0
813.0
817.0
822.0
819.0
821.0
820.0
819.0
821.0
823.0
823.0
821.0
820.0
816.0
820.0
821.0
826.0
828.0
828.0
827.0
828.0
830.0
830.0
826.0
826.0
827.0
832.0
835.0
835.0
836.0
839.0
839.0
840.0
840.0
838.0
835.0
836.0
837.0
839.0
841.0
842.0
843.0
844.0
847.0
847.0
844.0
844.0
840.0
844.0
846.0
851.0
852.0
853.0
848.0
854.0
859.0
858.0
857.0
849.0
847.0
847.0
850.0
851.0
851.0
853.0
850.0
854.0
852.0
853.0
854.0
849.0
847.0
843.0
842.0
845.0
850.0
850.0
849.0
847.0
847.0
846.0
849.0
850.0
844.0
840.0
837.0
841.0
843.0
848.0
848.0
842.0
841.0
840.0
841.0
839.0
833.0
835.0
832.0
831.0
832.0
837.0
833.0
831.0
826.0
827.0
828.0
826.0
823.0
824.0
822.0
823.0
825.0
826.0
828.0
826.0
827.0
831.0
831.0
829.0
824.0
827.0
828.0
831.0
834.0
835.0
838.0
842.0
843.0
848.0
847.0
845.0
842.0
843.0
847.0
855.0
862.0
864.0
865.0
872.0
874.0
880.0
882.0
884.0
882.0
881.0
883.0
882.0
881.0
880.0
877.0
874.0
874.0
875.0
873.0
870.0
865.0
865.0
864.0
861.0
863.0
856.0
854.0
849.0
845.0
847.0
844.0
841.0
837.0
837.0
836.0
838.0
835.0
836.0
837.0
839.0
839.0
836.0
833.0
831.0
827.0
821.0
809.0
802.0
792.0
794.0
810.0
832.0
859.0
895.0
935.0
974.0
1012.0
1048.0
1082.0
1118.0
1145.0
1166.0
1177.0
1178.0
1169.0
1157.0
1140.0
1121.0
1090.0
1039.0
983.0
924.0
881.0
858.0
847.0
854.0
862.0
868.0
870.0
864.0
856.0
848.0
839.0
833.0
828.0
825.0
821.0
823.0
827.0
826.0
827.0
824.0
822.0
821.0
822.0
826.0
830.0
826.0
829.0
831.0
834.0
834.0
832.0
829.0
826.0
826.0
828.0
830.0
829.0
827.0
827.0
835.0
834.0
834.0
832.0
830.0
829.0
831.0
836.0
834.0
835.0
832.0
836.0
841.0
844.0
841.0
840.0
836.0
838.0
835.0
836.0
838.0
839.0
842.0
841.0
842.0
848.0
850.0
848.0
845.0
845.0
847.0
849.0
849.0
851.0
851.0
854.0
858.0
860.0
858.0
857.0
855.0
854.0
856.0
858.0
861.0
857.0
856.0
855.0
859.0
862.0
862.0
861.0
854.0
852.0
850.0
850.0
855.0
855.0
858.0
852.0
853.0
856.0
856.0
854.0
850.0
847.0
849.0
849.0
847.0
849.0
852.0
851.0
852.0
851.0
854.0
851.0
848.0
847.0
845.0
847.0
847.0
845.0
841.0
845.0
846.0
848.0
846.0
838.0
836.0
832.0
832.0
829.0
834.0
832.0
830.0
829.0
829.0
830.0
833.0
833.0
831.0
826.0
828.0
829.0
832.0
834.0
834.0
832.0
835.0
833.0
836.0
839.0
839.0
835.0
829.0
833.0
835.0
841.0
845.0
847.0
848.0
852.0
853.0
855.0
852.0
846.0
847.0
847.0
856.0
863.0
870.0
875.0
875.0
879.0
883.0
886.0
883.0
881.0
879.0
879.0
881.0
883.0
884.0
881.0
881.0
877.0
876.0
876.0
870.0
868.0
865.0
862.0
859.0
858.0
854.0
847.0
847.0
847.0
848.0
846.0
836.0
830.0
832.0
834.0
835.0
837.0
839.0
834.0
837.0
836.0
840.0
839.0
830.0
826.0
821.0
817.0
809.0
800.0
800.0
803.0
819.0
840.0
873.0
907.0
941.0
972.0
1003.0
1032.0
1065.0
1102.0
1130.0
1153.0
1166.0
1171.0
1171.0
1165.0
1151.0
1135.0
1116.0
1089.0
1049.0
1004.0
950.0
904.0
871.0
852.0
851.0
856.0
864.0
869.0
867.0
860.0
848.0
840.0
838.0
832.0
826.0
826.0
821.0
824.0
826.0
823.0
822.0
822.0
821.0
824.0
832.0
834.0
833.0
834.0
832.0
832.0
830.0
824.0
823.0
822.0
825.0
828.0
836.0
833.0
834.0
830.0
828.0
832.0
832.0
836.0
834.0
829.0
830.0
833.0
839.0
839.0
840.0
837.0
837.0
836.0
839.0
837.0
835.0
834.0
836.0
838.0
841.0
847.0
849.0
847.0
849.0
846.0
845.0
846.0
844.0
842.0
842.0
845.0
847.0
855.0
858.0
855.0
854.0
854.0
853.0
857.0
858.0
856.0
853.0
851.0
857.0
860.0
865.0
862.0
859.0
858.0
860.0
863.0
856.0
854.0
854.0
856.0
860.0
862.0
859.0
857.0
856.0
854.0
852.0
853.0
849.0
848.0
848.0
852.0
855.0
855.0
853.0
851.0
851.0
851.0
852.0
850.0
846.0
842.0
845.0
846.0
850.0
848.0
846.0
845.0
841.0
844.0
839.0
837.0
834.0
832.0
834.0
832.0
836.0
836.0
836.0
835.0
835.0
834.0
835.0
832.0
826.0
828.0
830.0
834.0
837.0
837.0
837.0
833.0
833.0
834.0
837.0
836.0
837.0
836.0
835.0
843.0
844.0
844.0
846.0
849.0
850.0
854.0
854.0
854.0
853.0
853.0
858.0
864.0
869.0
874.0
878.0
889.0
890.0
890.0
885.0
887.0
884.0
888.0
890.0
888.0
884.0
886.0
883.0
883.0
882.0
880.0
875.0
873.0
873.0
873.0
868.0
862.0
857.0
856.0
857.0
857.0
855.0
852.0
846.0
843.0
841.0
842.0
843.0
840.0
840.0
844.0
845.0
846.0
849.0
845.0
840.0
835.0
831.0
827.0
823.0
813.0
804.0
803.0
812.0
827.0
856.0
886.0
924.0
964.0
1003.0
1045.0
1083.0
1115.0
1148.0
1165.0
1179.0
1183.0
1174.0
1161.0
1139.0
1115.0
1079.0
1025.0
962.0
908.0
869.0
851.0
855.0
861.0
866.0
870.0
868.0
864.0
855.0
847.0
837.0
829.0
829.0
830.0
835.0
832.0
831.0
830.0
827.0
828.0
827.0
829.0
831.0
832.0
832.0
836.0
838.0
840.0
840.0
835.0
833.0
831.0
834.0
834.0
833.0
835.0
834.0
840.0
843.0
845.0
844.0
840.0
836.0
835.0
837.0
840.0
840.0
838.0
837.0
839.0
844.0
846.0
846.0
845.0
841.0
844.0
845.0
846.0
844.0
843.0
846.0
850.0
854.0
855.0
852.0
850.0
847.0
854.0
853.0
852.0
854.0
852.0
854.0
854.0
861.0
859.0
858.0
857.0
856.0
859.0
861.0
857.0
859.0
856.0
861.0
864.0
869.0
866.0
862.0
858.0
852.0
856.0
861.0
860.0
852.0
853.0
854.0
856.0
862.0
865.0
859.0
855.0
851.0
852.0
856.0
854.0
855.0
852.0
851.0
854.0
858.0
861.0
859.0
853.0
849.0
847.0
847.0
848.0
848.0
850.0
847.0
847.0
849.0
851.0
850.0
847.0
842.0
839.0
837.0
835.0
836.0
832.0
833.0
834.0
837.0
837.0
838.0
836.0
829.0
825.0
828.0
829.0
832.0
835.0
833.0
835.0
836.0
838.0
843.0
841.0
836.0
837.0
836.0
839.0
840.0
842.0
841.0
837.0
840.0
844.0
849.0
848.0
851.0
847.0
847.0
848.0
849.0
852.0
855.0
858.0
861.0
868.0
873.0
882.0
880.0
877.0
878.0
878.0
885.0
888.0
886.0
884.0
886.0
891.0
890.0
884.0
879.0
870.0
870.0
872.0
873.0
871.0
874.0
869.0
864.0
859.0
855.0
852.0
848.0
842.0
842.0
841.0
843.0
843.0
842.0
836.0
836.0
839.0
841.0
839.0
839.0
836.0
836.0
834.0
835.0
835.0
828.0
821.0
816.0
808.0
805.0
808.0
820.0
840.0
871.0
912.0
954.0
989.0
1027.0
1059.0
1087.0
1119.0
1145.0
1164.0
1176.0
1174.0
1169.0
1159.0
1153.0
1137.0
1118.0
1078.0
1023.0
962.0
913.0
878.0
854.0
843.0
851.0
858.0
868.0
871.0
870.0
858.0
843.0
839.0
834.0
833.0
829.0
822.0
820.0
818.0
821.0
823.0
824.0
827.0
826.0
826.0
828.0
830.0
828.0
827.0
826.0
823.0
827.0
828.0
831.0
835.0
830.0
830.0
832.0
835.0
831.0
832.0
827.0
825.0
829.0
832.0
836.0
835.0
837.0
837.0
839.0
843.0
836.0
834.0
832.0
829.0
834.0
837.0
838.0
840.0
840.0
842.0
848.0
850.0
851.0
843.0
841.0
839.0
840.0
846.0
847.0
849.0
847.0
850.0
853.0
855.0
851.0
846.0
846.0
848.0
851.0
852.0
853.0
854.0
856.0
858.0
858.0
861.0
860.0
856.0
852.0
851.0
851.0
856.0
859.0
859.0
858.0
856.0
854.0
856.0
854.0
851.0
848.0
847.0
848.0
851.0
849.0
848.0
846.0
850.0
850.0
853.0
851.0
847.0
844.0
842.0
844.0
848.0
843.0
843.0
841.0
844.0
846.0
842.0
839.0
836.0
833.0
834.0
832.0
836.0
832.0
831.0
827.0
834.0
834.0
833.0
829.0
827.0
824.0
824.0
827.0
827.0
830.0
827.0
826.0
829.0
830.0
832.0
831.0
828.0
824.0
822.0
828.0
829.0
831.0
833.0
831.0
834.0
839.0
840.0
839.0
836.0
833.0
836.0
841.0
845.0
848.0
849.0
851.0
847.0
853.0
856.0
859.0
858.0
859.0
864.0
871.0
876.0
880.0
884.0
884.0
885.0
888.0
889.0
882.0
876.0
870.0
868.0
874.0
875.0
873.0
870.0
874.0
875.0
870.0
862.0
854.0
849.0
848.0
846.0
842.0
839.0
838.0
843.0
843.0
846.0
842.0
840.0
834.0
832.0
834.0
836.0
836.0
832.0
830.0
832.0
835.0
832.0
825.0
815.0
804.0
793.0
795.0
804.0
819.0
845.0
875.0
911.0
956.0
996.0
1035.0
1068.0
1096.0
1121.0
1147.0
1167.0
1176.0
1174.0
1166.0
1157.0
1145.0
1131.0
1102.0
1054.0
994.0
934.0
888.0
858.0
849.0
850.0
858.0
865.0
871.0
874.0
867.0
857.0
843.0
832.0
826.0
822.0
822.0
822.0
823.0
820.0
822.0
825.0
827.0
828.0
826.0
826.0
823.0
824.0
823.0
823.0
824.0
822.0
822.0
826.0
830.0
831.0
828.0
824.0
824.0
827.0
827.0
831.0
832.0
829.0
830.0
831.0
833.0
835.0
833.0
829.0
829.0
830.0
832.0
834.0
836.0
834.0
834.0
837.0
843.0
843.0
843.0
840.0
836.0
839.0
839.0
844.0
843.0
842.0
844.0
845.0
848.0
847.0
846.0
842.0
840.0
845.0
844.0
850.0
851.0
850.0
847.0
853.0
856.0
856.0
855.0
853.0
846.0
847.0
849.0
849.0
852.0
852.0
852.0
855.0
854.0
853.0
854.0
848.0
846.0
843.0
846.0
846.0
849.0
847.0
845.0
846.0
851.0
846.0
844.0
844.0
841.0
842.0
842.0
843.0
848.0
845.0
839.0
838.0
839.0
841.0
844.0
841.0
837.0
838.0
836.0
838.0
838.0
838.0
835.0
834.0
833.0
834.0
833.0
829.0
825.0
823.0
824.0
826.0
828.0
826.0
826.0
829.0
827.0
825.0
829.0
824.0
821.0
821.0
824.0
830.0
833.0
833.0
831.0
832.0
834.0
837.0
838.0
831.0
829.0
829.0
830.0
831.0
833.0
834.0
835.0
838.0
840.0
845.0
843.0
841.0
841.0
842.0
843.0
845.0
854.0
858.0
863.0
869.0
876.0
880.0
878.0
876.0
878.0
875.0
879.0
882.0
886.0
885.0
879.0
880.0
880.0
879.0
877.0
872.0
866.0
864.0
866.0
866.0
868.0
865.0
857.0
855.0
851.0
849.0
850.0
847.0
841.0
836.0
834.0
836.0
840.0
841.0
838.0
835.0
836.0
835.0
836.0
836.0
832.0
832.0
824.0
825.0
824.0
823.0
817.0
806.0
795.0
789.0
794.0
810.0
831.0
857.0
891.0
932.0
980.0
1019.0
1057.0
1086.0
1117.0
1142.0
1162.0
1170.0
1169.0
1161.0
1145.0
1130.0
1109.0
1072.0
1016.0
957.0
906.0
867.0
850.0
845.0
849.0
857.0
860.0
859.0
854.0
847.0
838.0
830.0
826.0
822.0
823.0
822.0
820.0
814.0
816.0
818.0
820.0
825.0
824.0
824.0
822.0
822.0
824.0
825.0
819.0
816.0
817.0
818.0
824.0
827.0
826.0
825.0
822.0
825.0
826.0
827.0
824.0
822.0
821.0
820.0
823.0
828.0
831.0
831.0
830.0
829.0
831.0
829.0
828.0
828.0
825.0
828.0
830.0
836.0
836.0
837.0
831.0
832.0
836.0
837.0
838.0
834.0
834.0
833.0
838.0
844.0
843.0
843.0
842.0
841.0
842.0
844.0
846.0
843.0
839.0
840.0
846.0
846.0
850.0
851.0
849.0
846.0
847.0
848.0
847.0
847.0
845.0
842.0
843.0
846.0
848.0
847.0
845.0
842.0
842.0
842.0
839.0
840.0
839.0
832.0
836.0
840.0
844.0
846.0
839.0
839.0
837.0
836.0
838.0
839.0
836.0
833.0
831.0
835.0
841.0
840.0
841.0
836.0
834.0
832.0
832.0
834.0
829.0
824.0
820.0
825.0
829.0
833.0
833.0
827.0
823.0
822.0
820.0
822.0
819.0
819.0
819.0
817.0
823.0
826.0
824.0
822.0
821.0
818.0
820.0
823.0
824.0
822.0
819.0
821.0
826.0
831.0
831.0
831.0
823.0
824.0
824.0
826.0
823.0
828.0
826.0
826.0
832.0
838.0
841.0
840.0
834.0
837.0
838.0
839.0
842.0
844.0
846.0
851.0
859.0
866.0
869.0
873.0
873.0
874.0
873.0
874.0
874.0
871.0
870.0
872.0
874.0
873.0
872.0
868.0
865.0
862.0
857.0
859.0
860.0
859.0
854.0
848.0
846.0
844.0
845.0
838.0
835.0
828.0
828.0
826.0
828.0
828.0
823.0
825.0
827.0
832.0
838.0
833.0
829.0
825.0
825.0
824.0
822.0
811.0
804.0
794.0
789.0
787.0
791.0
802.0
816.0
839.0
868.0
909.0
948.0
987.0
1023.0
1053.0
1086.0
1120.0
1143.0
1161.0
1163.0
1163.0
1155.0
1141.0
1130.0
1113.0
1082.0
1036.0
976.0
921.0
879.0
853.0
841.0
841.0
843.0
851.0
856.0
855.0
846.0
836.0
825.0
820.0
817.0
817.0
815.0
811.0
807.0
807.0
810.0
811.0
814.0
813.0
812.0
818.0
819.0
819.0
817.0
812.0
810.0
813.0
813.0
813.0
813.0
814.0
816.0
820.0
820.0
822.0
820.0
818.0
819.0
819.0
819.0
818.0
819.0
822.0
824.0
829.0
830.0
827.0
823.0
819.0
823.0
822.0
825.0
825.0
824.0
827.0
831.0
833.0
834.0
834.0
832.0
830.0
828.0
830.0
830.0
829.0
830.0
832.0
834.0
837.0
843.0
843.0
842.0
837.0
837.0
832.0
836.0
838.0
839.0
840.0
838.0
846.0
848.0
848.0
845.0
842.0
841.0
836.0
837.0
840.0
843.0
840.0
838.0
839.0
841.0
840.0
840.0
837.0
834.0
827.0
831.0
836.0
836.0
838.0
836.0
839.0
839.0
840.0
839.0
836.0
833.0
831.0
835.0
834.0
833.0
831.0
829.0
829.0
833.0
835.0
835.0
827.0
823.0
820.0
822.0
821.0
824.0
822.0
819.0
819.0
820.0
820.0
819.0
815.0
812.0
809.0
813.0
817.0
817.0
816.0
815.0
816.0
819.0
820.0
820.0
818.0
815.0
812.0
815.0
817.0
823.0
824.0
822.0
