# Simple Text Format
# Sampling Rate (Hz):= 360.00
# Resolution:= 12
# Labels:= ECG
816.0
817.0
818.0
816.0
824.0
825.0
824.0
822.0
818.0
816.0
820.0
819.0
818.0
817.0
816.0
818.0
824.0
824.0
823.0
822.0
816.0
816.0
818.0
819.0
819.0
818.0
819.0
824.0
828.0
831.0
828.0
822.0
821.0
823.0
826.0
825.0
825.0
820.0
824.0
827.0
831.0
837.0
836.0
835.0
833.0
828.0
829.0
830.0
832.0
831.0
832.0
834.0
840.0
843.0
844.0
840.0
837.0
832.0
835.0
839.0
838.0
838.0
840.0
841.0
845.0
843.0
842.0
838.0
835.0
832.0
838.0
841.0
844.0
842.0
842.0
840.0
839.0
837.0
835.0
831.0
830.0
830.0
833.0
835.0
838.0
838.0
838.0
836.0
844.0
846.0
844.0
842.0
833.0
829.0
827.0
826.0
828.0
831.0
830.0
834.0
838.0
836.0
839.0
835.0
829.0
821.0
826.0
827.0
829.0
830.0
827.0
826.0
834.0
833.0
833.0
828.0
827.0
822.0
824.0
828.0
832.0
831.0
828.0
832.0
834.0
835.0
835.0
831.0
834.0
835.0
836.0
838.0
842.0
841.0
842.0
844.0
850.0
852.0
854.0
854.0
859.0
865.0
873.0
873.0
875.0
874.0
872.0
875.0
879.0
882.0
882.0
878.0
878.0
873.0
874.0
872.0
868.0
866.0
868.0
870.0
874.0
872.0
864.0
856.0
849.0
849.0
850.0
847.0
843.0
841.0
842.0
843.0
846.0
842.0
833.0
829.0
823.0
825.0
831.0
830.0
829.0
824.0
828.0
830.0
838.0
832.0
829.0
816.0
807.0
796.0
787.0
789.0
792.0
804.0
819.0
843.0
885.0
926.0
963.0
998.0
1029.0
1060.0
1092.0
1118.0
1134.0
1142.0
1146.0
1145.0
1143.0
1134.0
1111.0
1077.0
1024.0
962.0
905.0
859.0
837.0
827.0
831.0
843.0
857.0
863.0
867.0
856.0
841.0
834.0
823.0
821.0
819.0
813.0
812.0
815.0
818.0
819.0
820.0
812.0
815.0
811.0
815.0
813.0
818.0
820.0
820.0
822.0
824.0
826.0
826.0
825.0
820.0
821.0
820.0
822.0
827.0
824.0
824.0
823.0
824.0
824.0
825.0
824.0
822.0
818.0
818.0
816.0
824.0
827.0
826.0
827.0
826.0
826.0
827.0
832.0
831.0
829.0
824.0
825.0
823.0
827.0
830.0
832.0
832.0
831.0
832.0
833.0
832.0
824.0
823.0
822.0
827.0
831.0
837.0
838.0
839.0
837.0
836.0
837.0
840.0
838.0
837.0
834.0
836.0
840.0
838.0
838.0
836.0
836.0
837.0
838.0
838.0
835.0
832.0
828.0
829.0
835.0
835.0
836.0
835.0
836.0
831.0
831.0
834.0
835.0
830.0
826.0
825.0
831.0
832.0
838.0
836.0
834.0
834.0
832.0
830.0
835.0
829.0
826.0
826.0
825.0
827.0
829.0
833.0
830.0
827.0
821.0
821.0
823.0
826.0
821.0
820.0
820.0
822.0
825.0
827.0
826.0
823.0
816.0
811.0
813.0
819.0
816.0
818.0
819.0
821.0
826.0
828.0
830.0
829.0
826.0
818.0
817.0
816.0
817.0
819.0
820.0
819.0
823.0
828.0
828.0
830.0
829.0
830.0
827.0
826.0
830.0
831.0
832.0
833.0
833.0
839.0
844.0
850.0
854.0
849.0
848.0
848.0
851.0
857.0
864.0
865.0
869.0
870.0
869.0
869.0
871.0
868.0
862.0
855.0
852.0
853.0
854.0
859.0
859.0
858.0
857.0
854.0
853.0
848.0
843.0
836.0
830.0
827.0
829.0
832.0
834.0
831.0
823.0
823.0
821.0
820.0
820.0
818.0
816.0
815.0
818.0
824.0
827.0
826.0
822.0
816.0
811.0
807.0
805.0
797.0
788.0
778.0
779.0
790.0
809.0
835.0
871.0
910.0
952.0
995.0
1032.0
1065.0
1094.0
1119.0
1135.0
1145.0
1149.0
1144.0
1135.0
1122.0
1104.0
1073.0
1034.0
978.0
914.0
865.0
832.0
818.0
821.0
834.0
848.0
854.0
854.0
851.0
844.0
834.0
822.0
813.0
804.0
805.0
813.0
814.0
817.0
812.0
809.0
808.0
811.0
813.0
814.0
816.0
819.0
820.0
823.0
824.0
825.0
816.0
813.0
810.0
809.0
812.0
811.0
813.0
810.0
811.0
814.0
818.0
819.0
817.0
812.0
809.0
811.0
815.0
816.0
819.0
816.0
812.0
816.0
815.0
816.0
816.0
819.0
816.0
819.0
820.0
822.0
823.0
820.0
822.0
826.0
831.0
835.0
831.0
830.0
828.0
830.0
832.0
833.0
835.0
834.0
834.0
835.0
839.0
843.0
844.0
840.0
834.0
833.0
835.0
839.0
842.0
838.0
840.0
840.0
844.0
845.0
848.0
843.0
837.0
834.0
835.0
834.0
837.0
836.0
834.0
833.0
834.0
838.0
836.0
834.0
829.0
826.0
828.0
830.0
833.0
834.0
831.0
832.0
829.0
828.0
832.0
830.0
828.0
823.0
823.0
826.0
827.0
833.0
831.0
831.0
830.0
831.0
834.0
833.0
827.0
826.0
824.0
825.0
822.0
820.0
817.0
820.0
823.0
823.0
822.0
822.0
816.0
817.0
820.0
820.0
819.0
819.0
821.0
823.0
827.0
830.0
829.0
827.0
822.0
824.0
823.0
822.0
822.0
821.0
823.0
830.0
833.0
832.0
834.0
836.0
839.0
838.0
841.0
838.0
836.0
836.0
841.0
849.0
853.0
858.0
858.0
859.0
858.0
865.0
868.0
863.0
861.0
861.0
864.0
867.0
873.0
872.0
867.0
860.0
861.0
859.0
855.0
856.0
856.0
854.0
852.0
854.0
852.0
849.0
841.0
833.0
828.0
824.0
822.0
819.0
819.0
818.0
821.0
824.0
822.0
823.0
820.0
819.0
819.0
817.0
818.0
817.0
812.0
806.0
805.0
798.0
789.0
779.0
774.0
782.0
796.0
828.0
862.0
902.0
942.0
981.0
1025.0
1064.0
1093.0
1120.0
1138.0
1145.0
1147.0
1140.0
1136.0
1121.0
1104.0
1081.0
1044.0
990.0
928.0
873.0
831.0
814.0
813.0
820.0
831.0
837.0
835.0
829.0
827.0
820.0
813.0
800.0
800.0
799.0
801.0
802.0
802.0
799.0
796.0
796.0
800.0
805.0
807.0
809.0
807.0
806.0
806.0
808.0
803.0
805.0
804.0
802.0
805.0
808.0
809.0
808.0
803.0
806.0
805.0
806.0
801.0
800.0
800.0
805.0
808.0
811.0
813.0
811.0
806.0
811.0
810.0
808.0
806.0
802.0
802.0
805.0
807.0
815.0
817.0
815.0
813.0
818.0
817.0
817.0
817.0
812.0
812.0
814.0
817.0
824.0
824.0
824.0
819.0
820.0
822.0
823.0
822.0
819.0
816.0
822.0
823.0
828.0
829.0
833.0
827.0
826.0
824.0
820.0
823.0
826.0
822.0
823.0
824.0
825.0
827.0
829.0
825.0
825.0
822.0
822.0
822.0
821.0
815.0
817.0
818.0
818.0
824.0
825.0
822.0
817.0
816.0
817.0
817.0
815.0
811.0
812.0
816.0
819.0
821.0
822.0
819.0
812.0
812.0
813.0
812.0
811.0
808.0
806.0
802.0
808.0
811.0
814.0
808.0
804.0
799.0
799.0
804.0
804.0
800.0
799.0
799.0
804.0
807.0
810.0
807.0
800.0
797.0
798.0
799.0
802.0
799.0
798.0
800.0
801.0
807.0
810.0
814.0
809.0
807.0
808.0
810.0
812.0
810.0
812.0
810.0
810.0
818.0
824.0
830.0
833.0
833.0
838.0
840.0
841.0
847.0
843.0
842.0
842.0
841.0
849.0
851.0
850.0
849.0
846.0
845.0
840.0
836.0
831.0
828.0
830.0
828.0
827.0
825.0
815.0
812.0
807.0
808.0
806.0
802.0
795.0
793.0
795.0
800.0
805.0
800.0
799.0
795.0
798.0
798.0
802.0
800.0
795.0
794.0
794.0
794.0
795.0
790.0
778.0
769.0
754.0
748.0
755.0
764.0
789.0
819.0
860.0
901.0
946.0
986.0
1022.0
1052.0
1079.0
1108.0
1128.0
1141.0
1145.0
1142.0
1134.0
1124.0
1111.0
1090.0
1054.0
1003.0
936.0
878.0
831.0
808.0
801.0
804.0
815.0
822.0
830.0
827.0
823.0
812.0
796.0
785.0
782.0
783.0
784.0
783.0
785.0
784.0
791.0
790.0
792.0
790.0
788.0
784.0
786.0
786.0
788.0
789.0
788.0
789.0
792.0
793.0
794.0
789.0
786.0
782.0
783.0
785.0
788.0
789.0
791.0
788.0
792.0
795.0
796.0
791.0
791.0
790.0
793.0
794.0
794.0
792.0
791.0
791.0
795.0
799.0
801.0
799.0
792.0
789.0
784.0
791.0
793.0
795.0
798.0
798.0
802.0
806.0
807.0
805.0
798.0
796.0
796.0
797.0
804.0
805.0
804.0
805.0
810.0
814.0
809.0
805.0
800.0
803.0
808.0
812.0
813.0
811.0
811.0
813.0
816.0
815.0
813.0
808.0
807.0
810.0
808.0
808.0
804.0
802.0
804.0
807.0
815.0
817.0
810.0
805.0
808.0
806.0
810.0
807.0
803.0
800.0
803.0
808.0
813.0
808.0
805.0
802.0
799.0
805.0
807.0
802.0
801.0
802.0
804.0
807.0
812.0
809.0
802.0
801.0
797.0
795.0
794.0
791.0
793.0
793.0
799.0
800.0
806.0
801.0
798.0
798.0
800.0
805.0
807.0
803.0
802.0
801.0
807.0
813.0
816.0
817.0
815.0
820.0
823.0
832.0
836.0
841.0
841.0
845.0
847.0
847.0
848.0
846.0
849.0
851.0
850.0
849.0
846.0
837.0
837.0
838.0
841.0
843.0
843.0
840.0
837.0
837.0
832.0
826.0
820.0
814.0
810.0
812.0
814.0
821.0
821.0
823.0
816.0
811.0
805.0
797.0
792.0
790.0
794.0
802.0
811.0
816.0
819.0
813.0
807.0
799.0
787.0
774.0
763.0
761.0
771.0
798.0
832.0
863.0
900.0
938.0
972.0
1014.0
1051.0
1084.0
1105.0
1115.0
1123.0
1120.0
1111.0
1091.0
1065.0
1021.0
967.0
902.0
846.0
809.0
795.0
801.0
818.0
835.0
843.0
839.0
833.0
822.0
810.0
801.0
791.0
788.0
796.0
800.0
808.0
807.0
804.0
804.0
810.0
814.0
818.0
817.0
810.0
811.0
806.0
805.0
805.0
803.0
804.0
806.0
812.0
817.0
821.0
816.0
816.0
811.0
813.0
815.0
814.0
809.0
810.0
811.0
817.0
823.0
824.0
820.0
814.0
814.0
814.0
820.0
821.0
824.0
822.0
824.0
825.0
830.0
832.0
829.0
825.0
822.0
822.0
827.0
827.0
829.0
832.0
832.0
833.0
841.0
841.0
834.0
829.0
824.0
824.0
825.0
827.0
825.0
828.0
833.0
839.0
843.0
845.0
842.0
835.0
829.0
827.0
826.0
833.0
833.0
839.0
835.0
833.0
835.0
833.0
830.0
830.0
827.0
822.0
821.0
817.0
821.0
823.0
827.0
828.0
829.0
832.0
833.0
833.0
827.0
820.0
820.0
821.0
826.0
831.0
832.0
832.0
830.0
831.0
830.0
822.0
821.0
816.0
817.0
824.0
829.0
834.0
830.0
826.0
823.0
824.0
824.0
824.0
824.0
821.0
817.0
820.0
821.0
828.0
829.0
827.0
825.0
822.0
825.0
821.0
821.0
816.0
813.0
818.0
824.0
830.0
834.0
834.0
832.0
831.0
831.0
831.0
832.0
830.0
831.0
834.0
838.0
845.0
846.0
851.0
848.0
848.0
852.0
855.0
858.0
858.0
861.0
863.0
866.0
870.0
871.0
871.0
867.0
864.0
868.0
865.0
868.0
865.0
857.0
853.0
849.0
849.0
852.0
855.0
860.0
855.0
849.0
848.0
845.0
841.0
835.0
828.0
822.0
826.0
830.0
832.0
832.0
827.0
820.0
817.0
821.0
821.0
820.0
822.0
823.0
825.0
823.0
828.0
827.0
822.0
809.0
797.0
788.0
784.0
783.0
791.0
809.0
836.0
869.0
917.0
959.0
992.0
1023.0
1052.0
1074.0
1098.0
1113.0
1120.0
1114.0
1108.0
1103.0
1099.0
1088.0
1064.0
1024.0
976.0
917.0
863.0
826.0
809.0
805.0
817.0
834.0
846.0
852.0
842.0
832.0
814.0
812.0
806.0
806.0
802.0
803.0
803.0
804.0
808.0
809.0
810.0
808.0
804.0
804.0
806.0
812.0
811.0
807.0
804.0
807.0
808.0
812.0
813.0
810.0
808.0
806.0
807.0
806.0
806.0
807.0
809.0
815.0
815.0
816.0
813.0
809.0
804.0
806.0
806.0
809.0
809.0
812.0
812.0
816.0
820.0
819.0
817.0
812.0
812.0
811.0
813.0
810.0
814.0
813.0
819.0
823.0
826.0
826.0
822.0
816.0
816.0
817.0
820.0
818.0
817.0
818.0
821.0
824.0
829.0
826.0
826.0
824.0
822.0
828.0
828.0
823.0
824.0
822.0
824.0
826.0
824.0
822.0
820.0
819.0
817.0
818.0
820.0
815.0
814.0
814.0
814.0
818.0
822.0
823.0
822.0
820.0
813.0
814.0
815.0
817.0
814.0
813.0
814.0
817.0
820.0
821.0
817.0
811.0
813.0
812.0
813.0
810.0
807.0
807.0
810.0
811.0
811.0
808.0
808.0
806.0
804.0
804.0
801.0
801.0
796.0
802.0
807.0
807.0
807.0
802.0
802.0
804.0
802.0
804.0
801.0
800.0
799.0
807.0
808.0
810.0
808.0
810.0
808.0
808.0
811.0
806.0
805.0
804.0
808.0
813.0
815.0
818.0
820.0
820.0
821.0
821.0
825.0
820.0
821.0
822.0
825.0
833.0
844.0
847.0
847.0
850.0
850.0
853.0
851.0
848.0
845.0
842.0
847.0
851.0
847.0
847.0
844.0
841.0
837.0
841.0
839.0
830.0
824.0
819.0
816.0
812.0
811.0
807.0
807.0
806.0
809.0
806.0
799.0
797.0
796.0
796.0
801.0
802.0
802.0
803.0
801.0
804.0
805.0
803.0
799.0
789.0
777.0
768.0
762.0
767.0
775.0
796.0
823.0
855.0
897.0
938.0
975.0
1008.0
1041.0
1069.0
1099.0
1115.0
1123.0
1124.0
1117.0
1114.0
1103.0
1089.0
1069.0
1030.0
976.0
915.0
858.0
818.0
799.0
793.0
798.0
815.0
825.0
828.0
820.0
809.0
799.0
794.0
792.0
792.0
794.0
792.0
791.0
793.0
791.0
795.0
791.0
789.0
786.0
789.0
793.0
796.0
796.0
796.0
796.0
801.0
799.0
799.0
796.0
793.0
794.0
793.0
794.0
795.0
797.0
798.0
798.0
802.0
801.0
803.0
800.0
796.0
796.0
798.0
800.0
805.0
805.0
802.0
802.0
809.0
809.0
806.0
804.0
802.0
804.0
804.0
810.0
813.0
809.0
809.0
809.0
811.0
814.0
818.0
816.0
813.0
811.0
807.0
811.0
816.0
815.0
813.0
813.0
817.0
819.0
822.0
821.0
819.0
815.0
815.0
818.0
817.0
819.0
816.0
816.0
819.0
818.0
822.0
818.0
811.0
808.0
807.0
808.0
810.0
811.0
810.0
813.0
814.0
817.0
818.0
812.0
810.0
809.0
809.0
811.0
813.0
813.0
812.0
814.0
814.0
815.0
815.0
810.0
805.0
805.0
807.0
809.0
809.0
808.0
803.0
802.0
804.0
805.0
805.0
802.0
802.0
800.0
803.0
801.0
800.0
797.0
793.0
792.0
792.0
794.0
801.0
796.0
797.0
796.0
795.0
795.0
802.0
806.0
808.0
808.0
811.0
813.0
814.0
811.0
810.0
808.0
813.0
816.0
820.0
821.0
825.0
825.0
822.0
829.0
835.0
842.0
841.0
842.0
844.0
849.0
855.0
858.0
857.0
853.0
850.0
852.0
854.0
852.0
842.0
838.0
837.0
840.0
847.0
844.0
841.0
837.0
836.0
832.0
826.0
829.0
823.0
818.0
816.0
813.0
817.0
819.0
816.0
814.0
814.0
810.0
810.0
813.0
812.0
809.0
808.0
807.0
808.0
811.0
807.0
807.0
799.0
793.0
787.0
779.0
774.0
772.0
777.0
790.0
818.0
856.0
898.0
937.0
979.0
1010.0
1045.0
1077.0
1105.0
1125.0
1138.0
1143.0
1142.0
1139.0
1132.0
1112.0
1085.0
1045.0
986.0
925.0
872.0
830.0
812.0
804.0
819.0
834.0
845.0
844.0
840.0
832.0
824.0
815.0
800.0
791.0
790.0
787.0
795.0
806.0
809.0
811.0
811.0
813.0
814.0
812.0
807.0
801.0
798.0
800.0
806.0
812.0
811.0
809.0
810.0
809.0
808.0
811.0
808.0
802.0
801.0
803.0
809.0
810.0
811.0
810.0
807.0
811.0
811.0
813.0
814.0
807.0
804.0
805.0
811.0
819.0
821.0
822.0
822.0
819.0
819.0
820.0
819.0
811.0
812.0
814.0
820.0
819.0
821.0
817.0
819.0
819.0
824.0
828.0
828.0
827.0
822.0
822.0
824.0
829.0
830.0
832.0
831.0
833.0
832.0
836.0
830.0
827.0
825.0
825.0
826.0
826.0
829.0
824.0
826.0
830.0
832.0
833.0
831.0
830.0
823.0
819.0
818.0
825.0
828.0
824.0
824.0
826.0
828.0
829.0
830.0
824.0
821.0
819.0
820.0
826.0
830.0
827.0
826.0
821.0
818.0
821.0
824.0
823.0
820.0
815.0
813.0
820.0
824.0
821.0
819.0
817.0
816.0
820.0
821.0
818.0
812.0
803.0
804.0
807.0
812.0
814.0
816.0
818.0
821.0
829.0
829.0
822.0
816.0
810.0
813.0
820.0
826.0
827.0
824.0
828.0
828.0
829.0
825.0
825.0
826.0
832.0
844.0
848.0
852.0
853.0
851.0
857.0
859.0
860.0
860.0
857.0
854.0
856.0
861.0
868.0
870.0
863.0
859.0
856.0
854.0
856.0
856.0
854.0
852.0
849.0
846.0
842.0
840.0
833.0
832.0
832.0
833.0
831.0
826.0
819.0
813.0
812.0
816.0
821.0
827.0
825.0
820.0
816.0
815.0
816.0
817.0
812.0
815.0
809.0
809.0
806.0
805.0
796.0
786.0
779.0
783.0
794.0
816.0
854.0
893.0
933.0
973.0
1013.0
1046.0
1074.0
1096.0
1114.0
1124.0
1126.0
1123.0
1113.0
1092.0
1070.0
1037.0
989.0
928.0
872.0
832.0
816.0
814.0
823.0
834.0
843.0
846.0
840.0
836.0
830.0
825.0
814.0
806.0
808.0
809.0
816.0
814.0
813.0
809.0
807.0
814.0
818.0
818.0
814.0
816.0
817.0
819.0
819.0
815.0
811.0
803.0
806.0
810.0
814.0
817.0
817.0
817.0
816.0
817.0
821.0
818.0
816.0
814.0
814.0
816.0
821.0
821.0
822.0
821.0
822.0
825.0
828.0
823.0
816.0
817.0
815.0
817.0
826.0
831.0
826.0
827.0
827.0
831.0
828.0
829.0
825.0
824.0
830.0
832.0
837.0
833.0
835.0
835.0
834.0
835.0
837.0
836.0
829.0
828.0
831.0
830.0
836.0
836.0
834.0
834.0
833.0
837.0
836.0
835.0
830.0
828.0
827.0
830.0
832.0
831.0
829.0
825.0
824.0
826.0
828.0
830.0
825.0
820.0
816.0
817.0
821.0
824.0
825.0
826.0
826.0
828.0
828.0
827.0
824.0
821.0
818.0
819.0
823.0
823.0
822.0
818.0
812.0
813.0
813.0
817.0
819.0
815.0
809.0
808.0
810.0
813.0
818.0
817.0
812.0
816.0
815.0
817.0
816.0
811.0
805.0
809.0
810.0
811.0
811.0
812.0
812.0
817.0
817.0
821.0
817.0
812.0
804.0
808.0
810.0
821.0
823.0
828.0
830.0
830.0
829.0
828.0
828.0
825.0
829.0
831.0
840.0
850.0
852.0
856.0
850.0
851.0
851.0
855.0
854.0
855.0
850.0
850.0
853.0
855.0
854.0
853.0
849.0
846.0
847.0
850.0
849.0
849.0
840.0
833.0
829.0
827.0
828.0
828.0
822.0
817.0
819.0
818.0
817.0
817.0
808.0
803.0
805.0
810.0
811.0
811.0
811.0
808.0
813.0
808.0
811.0
801.0
794.0
786.0
776.0
773.0
774.0
775.0
788.0
807.0
844.0
883.0
926.0
962.0
995.0
1023.0
1054.0
1082.0
1105.0
1122.0
1123.0
1115.0
1110.0
1104.0
1096.0
1078.0
1056.0
1017.0
960.0
901.0
852.0
816.0
798.0
793.0
807.0
820.0
830.0
836.0
831.0
818.0
807.0
802.0
800.0
802.0
801.0
796.0
793.0
789.0
791.0
792.0
791.0
791.0
786.0
791.0
800.0
805.0
803.0
803.0
801.0
798.0
797.0
796.0
797.0
797.0
793.0
795.0
793.0
799.0
801.0
802.0
800.0
792.0
795.0
796.0
798.0
798.0
798.0
801.0
801.0
803.0
809.0
804.0
801.0
799.0
799.0
802.0
802.0
799.0
798.0
800.0
800.0
806.0
811.0
805.0
803.0
803.0
803.0
805.0
803.0
805.0
804.0
808.0
811.0
816.0
816.0
810.0
810.0
811.0
807.0
806.0
810.0
808.0
805.0
807.0
811.0
815.0
818.0
812.0
810.0
807.0
803.0
806.0
807.0
803.0
803.0
801.0
801.0
809.0
812.0
808.0
802.0
797.0
797.0
797.0
799.0
801.0
796.0
795.0
799.0
804.0
804.0
803.0
798.0
796.0
793.0
791.0
794.0
792.0
791.0
793.0
795.0
795.0
797.0
790.0
787.0
786.0
786.0
785.0
783.0
780.0
779.0
782.0
784.0
787.0
784.0
778.0
777.0
777.0
777.0
775.0
777.0
778.0
777.0
783.0
787.0
788.0
787.0
784.0
781.0
783.0
784.0
782.0
776.0
776.0
777.0
783.0
786.0
788.0
787.0
785.0
786.0
789.0
791.0
791.0
787.0
791.0
791.0
798.0
800.0
800.0
802.0
804.0
808.0
813.0
818.0
822.0
819.0
821.0
825.0
829.0
832.0
834.0
830.0
829.0
825.0
824.0
826.0
824.0
822.0
816.0
816.0
818.0
819.0
817.0
814.0
807.0
802.0
798.0
793.0
787.0
781.0
780.0
780.0
785.0
784.0
785.0
782.0
780.0
781.0
780.0
783.0
775.0
773.0
774.0
779.0
779.0
780.0
775.0
770.0
762.0
753.0
743.0
748.0
754.0
766.0
799.0
841.0
886.0
931.0
967.0
1001.0
1028.0
1065.0
1093.0
1107.0
1110.0
1108.0
1100.0
1092.0
1079.0
1066.0
1041.0
994.0
935.0
870.0
818.0
783.0
768.0
768.0
782.0
795.0
806.0
806.0
804.0
793.0
782.0
779.0
771.0
765.0
763.0
762.0
766.0
767.0
770.0
772.0
770.0
772.0
777.0
777.0
775.0
774.0
773.0
774.0
775.0
776.0
777.0
773.0
781.0
779.0
781.0
782.0
778.0
774.0
776.0
775.0
778.0
776.0
776.0
776.0
781.0
785.0
785.0
786.0
782.0
781.0
779.0
783.0
786.0
789.0
790.0
790.0
792.0
793.0
795.0
798.0
795.0
792.0
790.0
791.0
794.0
796.0
797.0
799.0
798.0
801.0
806.0
805.0
799.0
799.0
798.0
800.0
801.0
802.0
803.0
805.0
805.0
806.0
807.0
809.0
804.0
804.0
802.0
802.0
804.0
801.0
799.0
802.0
800.0
805.0
806.0
804.0
799.0
792.0
795.0
795.0
791.0
791.0
790.0
795.0
798.0
800.0
800.0
801.0
799.0
794.0
795.0
798.0
799.0
797.0
796.0
794.0
794.0
793.0
796.0
797.0
792.0
785.0
786.0
788.0
789.0
789.0
785.0
784.0
783.0
785.0
787.0
786.0
783.0
778.0
783.0
779.0
783.0
782.0
781.0
779.0
782.0
783.0
788.0
785.0
786.0
779.0
783.0
782.0
786.0
791.0
789.0
787.0
788.0
793.0
795.0
798.0
798.0
793.0
793.0
796.0
798.0
800.0
802.0
803.0
807.0
813.0
821.0
824.0
827.0
825.0
828.0
827.0
834.0
833.0
833.0
832.0
833.0
833.0
834.0
834.0
830.0
826.0
822.0
819.0
818.0
820.0
823.0
819.0
815.0
812.0
810.0
805.0
798.0
794.0
787.0
784.0
786.0
788.0
788.0
787.0
783.0
783.0
785.0
788.0
787.0
784.0
783.0
779.0
780.0
782.0
785.0
786.0
783.0
778.0
773.0
766.0
758.0
752.0
746.0
752.0
770.0
803.0
841.0
882.0
919.0
952.0
984.0
1015.0
1044.0
1074.0
1094.0
1105.0
1109.0
1110.0
1105.0
1093.0
1077.0
1057.0
1022.0
966.0
900.0
839.0
790.0
770.0
770.0
784.0
802.0
811.0
812.0
805.0
794.0
789.0
780.0
772.0
766.0
767.0
771.0
772.0
775.0
774.0
772.0
773.0
773.0
778.0
777.0
773.0
772.0
774.0
776.0
776.0
779.0
780.0
777.0
778.0
777.0
780.0
780.0
779.0
775.0
777.0
779.0
782.0
783.0
782.0
781.0
780.0
786.0
787.0
787.0
784.0
782.0
780.0
781.0
785.0
790.0
791.0
790.0
790.0
797.0
799.0
799.0
797.0
794.0
794.0
797.0
798.0
801.0
797.0
797.0
800.0
800.0
805.0
799.0
797.0
793.0
796.0
800.0
803.0
804.0
808.0
806.0
806.0
805.0
805.0
802.0
798.0
799.0
797.0
800.0
799.0
800.0
796.0
796.0
797.0
797.0
799.0
796.0
792.0
787.0
787.0
788.0
792.0
796.0
796.0
796.0
797.0
798.0
799.0
801.0
797.0
791.0
785.0
788.0
790.0
792.0
792.0
787.0
788.0
788.0
791.0
793.0
790.0
787.0
783.0
784.0
785.0
786.0
786.0
784.0
785.0
782.0
785.0
785.0
778.0
776.0
773.0
769.0
772.0
771.0
770.0
769.0
772.0
773.0
776.0
778.0
776.0
774.0
775.0
779.0
781.0
780.0
776.0
776.0
783.0
783.0
786.0
784.0
782.0
784.0
787.0
790.0
792.0
793.0
792.0
793.0
798.0
805.0
808.0
805.0
807.0
811.0
818.0
822.0
825.0
826.0
828.0
828.0
832.0
832.0
831.0
828.0
825.0
823.0
826.0
826.0
822.0
821.0
819.0
820.0
818.0
811.0
803.0
798.0
791.0
790.0
787.0
787.0
788.0
784.0
783.0
785.0
787.0
790.0
787.0
785.0
782.0
786.0
785.0
786.0
786.0
784.0
783.0
780.0
783.0
779.0
769.0
752.0
742.0
740.0
748.0
765.0
795.0
828.0
875.0
919.0
963.0
1000.0
1035.0
1072.0
1096.0
1121.0
1136.0
1136.0
1132.0
1123.0
1112.0
1094.0
1071.0
1023.0
959.0
895.0
835.0
802.0
787.0
788.0
795.0
809.0
818.0
824.0
821.0
808.0
794.0
782.0
770.0
769.0
769.0
770.0
768.0
764.0
767.0
775.0
780.0
782.0
782.0
779.0
779.0
781.0
781.0
780.0
781.0
779.0
780.0
783.0
782.0
779.0
777.0
777.0
778.0
781.0
782.0
781.0
777.0
776.0
777.0
782.0
785.0
785.0
785.0
782.0
784.0
784.0
788.0
785.0
784.0
784.0
786.0
790.0
795.0
794.0
792.0
790.0
793.0
794.0
794.0
790.0
791.0
795.0
800.0
803.0
804.0
800.0
794.0
796.0
796.0
802.0
805.0
801.0
802.0
802.0
804.0
808.0
809.0
808.0
805.0
803.0
806.0
809.0
813.0
809.0
807.0
802.0
804.0
811.0
814.0
817.0
812.0
811.0
810.0
812.0
812.0
809.0
803.0
801.0
799.0
803.0
810.0
811.0
808.0
809.0
806.0
806.0
806.0
805.0
801.0
800.0
799.0
809.0
810.0
807.0
803.0
803.0
803.0
803.0
802.0
801.0
794.0
794.0
797.0
803.0
805.0
806.0
800.0
800.0
802.0
803.0
796.0
792.0
789.0
788.0
795.0
799.0
805.0
805.0
798.0
796.0
791.0
793.0
801.0
803.0
803.0
805.0
808.0
813.0
816.0
819.0
817.0
815.0
815.0
816.0
820.0
823.0
826.0
829.0
838.0
843.0
849.0
855.0
856.0
853.0
847.0
842.0
845.0
842.0
845.0
842.0
844.0
843.0
844.0
845.0
843.0
841.0
839.0
841.0
841.0
838.0
834.0
825.0
815.0
810.0
810.0
812.0
815.0
815.0
811.0
809.0
806.0
807.0
809.0
809.0
806.0
800.0
804.0
806.0
810.0
812.0
812.0
804.0
800.0
797.0
796.0
786.0
773.0
769.0
770.0
777.0
796.0
819.0
846.0
880.0
907.0
937.0
972.0
1008.0
1041.0
1068.0
1091.0
1107.0
1116.0
1122.0
1122.0
1120.0
1109.0
1094.0
1071.0
1038.0
992.0
929.0
873.0
830.0
804.0
800.0
814.0
825.0
837.0
840.0
838.0
832.0
831.0
824.0
819.0
807.0
801.0
799.0
800.0
802.0
801.0
799.0
799.0
802.0
802.0
809.0
815.0
814.0
810.0
806.0
808.0
806.0
808.0
804.0
801.0
804.0
809.0
812.0
822.0
817.0
813.0
810.0
811.0
813.0
816.0
813.0
812.0
810.0
815.0
819.0
820.0
822.0
819.0
817.0
816.0
820.0
823.0
824.0
823.0
820.0
821.0
825.0
831.0
832.0
828.0
824.0
821.0
822.0
822.0
826.0
827.0
825.0
830.0
832.0
838.0
836.0
838.0
834.0
828.0
826.0
829.0
833.0
834.0
834.0
833.0
833.0
839.0
840.0
840.0
837.0
833.0
832.0
831.0
836.0
835.0
832.0
832.0
833.0
836.0
836.0
839.0
834.0
831.0
827.0
825.0
827.0
831.0
827.0
829.0
828.0
830.0
834.0
836.0
833.0
827.0
824.0
826.0
828.0
827.0
828.0
827.0
828.0
830.0
829.0
830.0
825.0
824.0
824.0
826.0
826.0
826.0
827.0
823.0
824.0
826.0
828.0
829.0
826.0
819.0
819.0
819.0
822.0
820.0
818.0
819.0
822.0
828.0
831.0
830.0
826.0
820.0
825.0
826.0
828.0
828.0
828.0
828.0
827.0
834.0
836.0
841.0
835.0
832.0
830.0
831.0
833.0
833.0
833.0
832.0
837.0
841.0
844.0
844.0
845.0
843.0
840.0
842.0
845.0
847.0
847.0
848.0
858.0
867.0
873.0
876.0
875.0
878.0
877.0
877.0
881.0
880.0
878.0
878.0
882.0
885.0
877.0
873.0
867.0
868.0
870.0
871.0
872.0
867.0
861.0
856.0
850.0
847.0
850.0
843.0
843.0
833.0
835.0
838.0
835.0
834.0
829.0
829.0
831.0
836.0
835.0
836.0
835.0
830.0
832.0
832.0
829.0
822.0
817.0
808.0
803.0
801.0
805.0
809.0
824.0
849.0
882.0
921.0
966.0
1005.0
1042.0
1073.0
1100.0
1127.0
1147.0
1158.0
1153.0
1147.0
1134.0
1125.0
1118.0
1098.0
1068.0
1018.0
958.0
898.0
853.0
829.0
817.0
822.0
