# Simple Text Format
# Sampling Rate (Hz):= 360.00
# Resolution:= 12
# Labels:= ECG
811.0
814.0
812.0
814.0
815.0
817.0
821.0
826.0
828.0
828.0
827.0
830.0
838.0
843.0
846.0
847.0
847.0
853.0
857.0
861.0
859.0
857.0
852.0
850.0
847.0
848.0
849.0
849.0
850.0
846.0
845.0
847.0
846.0
842.0
833.0
825.0
821.0
819.0
819.0
819.0
816.0
816.0
817.0
818.0
813.0
815.0
812.0
807.0
807.0
803.0
809.0
812.0
808.0
807.0
806.0
810.0
808.0
807.0
803.0
789.0
780.0
773.0
769.0
774.0
785.0
809.0
846.0
895.0
940.0
979.0
1019.0
1053.0
1086.0
1117.0
1137.0
1146.0
1150.0
1154.0
1149.0
1146.0
1126.0
1098.0
1055.0
994.0
933.0
878.0
839.0
818.0
814.0
823.0
837.0
850.0
853.0
846.0
832.0
818.0
809.0
805.0
801.0
800.0
800.0
801.0
803.0
807.0
805.0
803.0
802.0
799.0
800.0
807.0
810.0
808.0
810.0
808.0
809.0
813.0
812.0
810.0
807.0
807.0
803.0
804.0
809.0
808.0
808.0
812.0
813.0
819.0
820.0
818.0
815.0
810.0
810.0
812.0
815.0
815.0
814.0
813.0
815.0
820.0
820.0
819.0
817.0
817.0
817.0
820.0
814.0
818.0
820.0
826.0
833.0
834.0
834.0
831.0
827.0
823.0
823.0
828.0
823.0
825.0
825.0
826.0
831.0
836.0
839.0
834.0
832.0
833.0
834.0
840.0
836.0
831.0
829.0
831.0
839.0
842.0
844.0
841.0
838.0
831.0
833.0
836.0
837.0
835.0
833.0
832.0
832.0
837.0
841.0
837.0
835.0
831.0
832.0
834.0
835.0
833.0
833.0
831.0
830.0
833.0
834.0
836.0
833.0
826.0
826.0
825.0
826.0
830.0
828.0
826.0
825.0
830.0
830.0
828.0
826.0
824.0
825.0
826.0
824.0
826.0
823.0
824.0
823.0
828.0
827.0
827.0
825.0
824.0
816.0
818.0
824.0
825.0
828.0
827.0
827.0
828.0
831.0
835.0
826.0
827.0
827.0
831.0
837.0
835.0
835.0
838.0
842.0
845.0
850.0
854.0
855.0
854.0
857.0
862.0
865.0
871.0
873.0
873.0
871.0
871.0
875.0
877.0
878.0
871.0
867.0
866.0
864.0
860.0
860.0
860.0
862.0
862.0
863.0
860.0
856.0
844.0
834.0
833.0
835.0
838.0
835.0
835.0
834.0
831.0
832.0
832.0
831.0
827.0
826.0
829.0
831.0
828.0
828.0
828.0
826.0
826.0
821.0
812.0
800.0
787.0
785.0
795.0
813.0
837.0
867.0
906.0
947.0
988.0
1028.0
1062.0
1089.0
1117.0
1137.0
1149.0
1158.0
1158.0
1151.0
1144.0
1132.0
1121.0
1103.0
1071.0
1019.0
956.0
896.0
852.0
833.0
828.0
835.0
846.0
861.0
866.0
865.0
859.0
847.0
836.0
825.0
817.0
816.0
817.0
821.0
824.0
823.0
822.0
821.0
825.0
826.0
825.0
824.0
818.0
819.0
817.0
825.0
831.0
830.0
828.0
826.0
822.0
821.0
825.0
824.0
821.0
822.0
822.0
828.0
830.0
830.0
830.0
833.0
833.0
833.0
832.0
829.0
828.0
828.0
836.0
839.0
839.0
838.0
838.0
840.0
839.0
841.0
841.0
837.0
834.0
835.0
841.0
847.0
850.0
847.0
846.0
846.0
848.0
852.0
851.0
847.0
844.0
844.0
846.0
851.0
857.0
857.0
856.0
854.0
855.0
856.0
856.0
850.0
850.0
850.0
851.0
853.0
856.0
857.0
858.0
855.0
851.0
850.0
849.0
848.0
843.0
840.0
841.0
843.0
848.0
849.0
847.0
846.0
843.0
846.0
846.0
845.0
842.0
841.0
836.0
838.0
840.0
844.0
843.0
843.0
842.0
847.0
845.0
841.0
837.0
832.0
834.0
838.0
841.0
842.0
841.0
834.0
830.0
832.0
832.0
833.0
826.0
826.0
822.0
825.0
830.0
831.0
831.0
828.0
827.0
827.0
826.0
827.0
827.0
824.0
825.0
821.0
828.0
829.0
828.0
827.0
829.0
827.0
827.0
828.0
826.0
825.0
825.0
825.0
828.0
831.0
835.0
835.0
831.0
831.0
832.0
836.0
834.0
833.0
834.0
838.0
840.0
844.0
847.0
847.0
850.0
855.0
857.0
862.0
861.0
863.0
865.0
869.0
873.0
872.0
870.0
872.0
873.0
870.0
867.0
860.0
856.0
853.0
855.0
854.0
855.0
849.0
842.0
841.0
837.0
835.0
830.0
823.0
817.0
819.0
821.0
822.0
818.0
815.0
817.0
818.0
821.0
820.0
821.0
817.0
814.0
814.0
815.0
816.0
818.0
811.0
805.0
799.0
791.0
784.0
780.0
787.0
803.0
828.0
863.0
906.0
945.0
980.0
1015.0
1043.0
1076.0
1102.0
1127.0
1136.0
1140.0
1140.0
1133.0
1128.0
1118.0
1106.0
1082.0
1036.0
978.0
914.0
857.0
819.0
801.0
804.0
816.0
831.0
837.0
835.0
829.0
822.0
816.0
806.0
797.0
792.0
791.0
795.0
803.0
803.0
804.0
804.0
805.0
803.0
809.0
807.0
805.0
801.0
798.0
799.0
803.0
806.0
807.0
806.0
805.0
809.0
810.0
811.0
807.0
801.0
803.0
805.0
809.0
812.0
813.0
815.0
813.0
812.0
814.0
817.0
813.0
814.0
810.0
809.0
814.0
816.0
816.0
817.0
817.0
820.0
823.0
824.0
824.0
821.0
817.0
818.0
825.0
829.0
829.0
827.0
829.0
829.0
828.0
831.0
828.0
825.0
827.0
824.0
827.0
828.0
830.0
824.0
829.0
832.0
833.0
834.0
828.0
826.0
828.0
826.0
825.0
824.0
823.0
824.0
826.0
829.0
830.0
823.0
818.0
817.0
819.0
821.0
818.0
817.0
817.0
821.0
824.0
827.0
823.0
821.0
818.0
818.0
820.0
820.0
817.0
818.0
814.0
816.0
818.0
824.0
821.0
816.0
814.0
810.0
806.0
807.0
808.0
809.0
808.0
807.0
807.0
809.0
808.0
804.0
800.0
799.0
797.0
795.0
798.0
799.0
799.0
797.0
797.0
802.0
801.0
800.0
801.0
799.0
797.0
798.0
801.0
803.0
800.0
801.0
804.0
807.0
809.0
806.0
804.0
808.0
808.0
812.0
813.0
813.0
815.0
816.0
816.0
824.0
824.0
824.0
824.0
825.0
830.0
838.0
846.0
846.0
849.0
854.0
858.0
859.0
862.0
853.0
848.0
846.0
848.0
846.0
847.0
843.0
839.0
839.0
841.0
845.0
844.0
840.0
830.0
823.0
817.0
815.0
813.0
811.0
806.0
803.0
805.0
811.0
812.0
808.0
801.0
802.0
800.0
799.0
803.0
806.0
803.0
803.0
806.0
811.0
809.0
804.0
799.0
785.0
774.0
767.0
766.0
775.0
793.0
823.0
864.0
907.0
958.0
998.0
1038.0
1068.0
1097.0
1120.0
1129.0
1133.0
1130.0
1125.0
1120.0
1114.0
1099.0
1070.0
1019.0
959.0
899.0
849.0
818.0
804.0
806.0
817.0
832.0
839.0
835.0
826.0
812.0
804.0
798.0
797.0
791.0
794.0
790.0
795.0
801.0
805.0
804.0
797.0
797.0
800.0
798.0
800.0
802.0
799.0
800.0
804.0
805.0
809.0
809.0
806.0
805.0
802.0
805.0
806.0
807.0
805.0
802.0
803.0
805.0
808.0
810.0
809.0
805.0
807.0
808.0
809.0
807.0
810.0
813.0
818.0
820.0
821.0
820.0
819.0
818.0
820.0
823.0
823.0
819.0
819.0
823.0
828.0
835.0
832.0
830.0
826.0
824.0
827.0
829.0
829.0
830.0
827.0
827.0
832.0
835.0
836.0
836.0
834.0
828.0
828.0
829.0
833.0
831.0
829.0
832.0
832.0
834.0
834.0
836.0
827.0
826.0
824.0
825.0
824.0
827.0
828.0
826.0
826.0
827.0
830.0
831.0
830.0
826.0
821.0
820.0
824.0
825.0
827.0
827.0
826.0
824.0
823.0
828.0
827.0
827.0
825.0
819.0
815.0
820.0
820.0
820.0
821.0
820.0
821.0
821.0
819.0
817.0
808.0
809.0
809.0
813.0
812.0
805.0
808.0
811.0
816.0
816.0
814.0
808.0
808.0
808.0
812.0
811.0
811.0
811.0
812.0
814.0
817.0
817.0
814.0
815.0
817.0
818.0
820.0
822.0
819.0
816.0
816.0
823.0
827.0
831.0
830.0
829.0
831.0
829.0
835.0
838.0
835.0
837.0
843.0
849.0
858.0
862.0
863.0
863.0
864.0
867.0
871.0
869.0
868.0
867.0
868.0
870.0
872.0
869.0
863.0
858.0
857.0
856.0
855.0
857.0
853.0
850.0
845.0
843.0
837.0
832.0
828.0
824.0
824.0
825.0
820.0
819.0
817.0
818.0
820.0
824.0
826.0
826.0
821.0
819.0
818.0
819.0
818.0
815.0
812.0
808.0
803.0
797.0
794.0
790.0
798.0
812.0
839.0
876.0
920.0
957.0
994.0
1029.0
1064.0
1097.0
1125.0
1140.0
1151.0
1157.0
1156.0
1151.0
1140.0
1125.0
1105.0
1066.0
1014.0
954.0
893.0
854.0
831.0
824.0
834.0
848.0
855.0
855.0
849.0
840.0
834.0
830.0
828.0
821.0
813.0
813.0
810.0
813.0
815.0
817.0
815.0
817.0
823.0
826.0
828.0
824.0
824.0
824.0
822.0
824.0
823.0
815.0
817.0
822.0
828.0
832.0
828.0
829.0
828.0
830.0
831.0
830.0
828.0
826.0
824.0
832.0
831.0
836.0
838.0
836.0
834.0
834.0
834.0
833.0
834.0
834.0
834.0
837.0
845.0
847.0
847.0
842.0
844.0
845.0
848.0
850.0
850.0
848.0
847.0
847.0
850.0
847.0
848.0
849.0
850.0
851.0
854.0
854.0
852.0
853.0
851.0
854.0
857.0
860.0
862.0
859.0
857.0
854.0
855.0
858.0
858.0
852.0
849.0
849.0
852.0
855.0
859.0
855.0
849.0
845.0
849.0
846.0
849.0
844.0
845.0
846.0
848.0
851.0
852.0
848.0
842.0
840.0
845.0
848.0
851.0
851.0
848.0
847.0
841.0
846.0
848.0
850.0
848.0
845.0
839.0
839.0
842.0
842.0
839.0
835.0
835.0
836.0
843.0
844.0
835.0
834.0
828.0
827.0
832.0
830.0
835.0
832.0
830.0
831.0
838.0
839.0
837.0
834.0
832.0
830.0
836.0
838.0
839.0
836.0
836.0
835.0
839.0
844.0
845.0
841.0
840.0
836.0
838.0
839.0
843.0
846.0
852.0
855.0
861.0
856.0
858.0
859.0
857.0
860.0
867.0
869.0
874.0
878.0
883.0
889.0
896.0
895.0
892.0
890.0
887.0
884.0
889.0
886.0
888.0
883.0
880.0
881.0
881.0
886.0
883.0
877.0
870.0
871.0
867.0
863.0
859.0
858.0
853.0
850.0
853.0
854.0
853.0
852.0
847.0
844.0
842.0
841.0
844.0
842.0
844.0
843.0
845.0
845.0
846.0
850.0
848.0
842.0
836.0
837.0
834.0
828.0
822.0
811.0
805.0
807.0
823.0
846.0
876.0
908.0
939.0
977.0
1010.0
1047.0
1077.0
1109.0
1136.0
1155.0
1169.0
1180.0
1184.0
1181.0
1173.0
1156.0
1140.0
1109.0
1065.0
1003.0
938.0
890.0
859.0
854.0
860.0
870.0
877.0
880.0
875.0
871.0
863.0
855.0
844.0
838.0
836.0
835.0
835.0
838.0
838.0
832.0
829.0
836.0
842.0
844.0
844.0
839.0
839.0
837.0
842.0
843.0
845.0
842.0
838.0
837.0
843.0
847.0
849.0
848.0
843.0
843.0
845.0
846.0
848.0
843.0
840.0
837.0
838.0
843.0
849.0
851.0
849.0
844.0
844.0
848.0
850.0
849.0
847.0
846.0
850.0
854.0
855.0
856.0
856.0
854.0
852.0
851.0
851.0
856.0
855.0
852.0
856.0
861.0
864.0
863.0
865.0
863.0
862.0
867.0
863.0
864.0
864.0
864.0
866.0
873.0
873.0
871.0
869.0
871.0
868.0
868.0
868.0
866.0
862.0
863.0
862.0
868.0
871.0
868.0
865.0
864.0
864.0
865.0
866.0
865.0
860.0
858.0
858.0
867.0
869.0
868.0
864.0
857.0
858.0
863.0
865.0
861.0
863.0
858.0
855.0
861.0
864.0
866.0
863.0
860.0
861.0
856.0
860.0
859.0
859.0
852.0
854.0
852.0
857.0
858.0
860.0
852.0
850.0
850.0
847.0
849.0
849.0
847.0
847.0
846.0
850.0
853.0
855.0
850.0
850.0
851.0
851.0
850.0
850.0
847.0
852.0
857.0
861.0
860.0
859.0
853.0
851.0
855.0
858.0
860.0
859.0
859.0
864.0
870.0
872.0
871.0
867.0
864.0
864.0
872.0
878.0
880.0
886.0
890.0
892.0
897.0
904.0
908.0
907.0
901.0
901.0
898.0
901.0
903.0
902.0
899.0
896.0
895.0
895.0
896.0
894.0
889.0
887.0
886.0
882.0
878.0
870.0
867.0
866.0
864.0
866.0
865.0
868.0
864.0
857.0
856.0
856.0
854.0
857.0
856.0
855.0
853.0
857.0
859.0
856.0
854.0
854.0
850.0
843.0
834.0
822.0
810.0
813.0
822.0
842.0
871.0
902.0
938.0
977.0
1014.0
1047.0
1077.0
1104.0
1131.0
1160.0
1180.0
1191.0
1196.0
1190.0
1180.0
1161.0
1143.0
1109.0
1059.0
998.0
941.0
898.0
874.0
872.0
875.0
880.0
885.0
886.0
886.0
880.0
868.0
856.0
847.0
846.0
849.0
849.0
851.0
848.0
844.0
841.0
838.0
841.0
842.0
843.0
846.0
849.0
854.0
855.0
856.0
854.0
852.0
847.0
846.0
845.0
847.0
843.0
846.0
848.0
851.0
852.0
854.0
851.0
845.0
847.0
849.0
848.0
846.0
843.0
849.0
853.0
857.0
857.0
854.0
852.0
850.0
851.0
855.0
853.0
852.0
850.0
851.0
861.0
865.0
866.0
866.0
861.0
861.0
862.0
864.0
865.0
864.0
861.0
862.0
863.0
868.0
872.0
874.0
870.0
865.0
865.0
867.0
866.0
870.0
867.0
864.0
868.0
869.0
873.0
875.0
873.0
873.0
866.0
863.0
867.0
869.0
869.0
869.0
866.0
865.0
866.0
869.0
870.0
866.0
860.0
856.0
856.0
863.0
863.0
862.0
860.0
859.0
864.0
866.0
867.0
866.0
859.0
858.0
859.0
860.0
860.0
857.0
856.0
857.0
864.0
866.0
863.0
858.0
853.0
848.0
851.0
851.0
852.0
852.0
849.0
848.0
852.0
851.0
852.0
849.0
845.0
845.0
844.0
846.0
846.0
847.0
847.0
847.0
850.0
850.0
854.0
854.0
848.0
844.0
846.0
845.0
852.0
856.0
856.0
857.0
857.0
862.0
865.0
865.0
862.0
860.0
858.0
862.0
868.0
874.0
879.0
881.0
883.0
890.0
892.0
897.0
897.0
894.0
889.0
888.0
887.0
889.0
895.0
896.0
896.0
889.0
889.0
886.0
883.0
879.0
878.0
875.0
874.0
875.0
871.0
867.0
861.0
858.0
858.0
854.0
851.0
847.0
840.0
839.0
842.0
841.0
843.0
843.0
842.0
840.0
840.0
843.0
844.0
841.0
835.0
833.0
837.0
833.0
829.0
816.0
808.0
800.0
804.0
815.0
836.0
862.0
892.0
929.0
971.0
1012.0
1052.0
1081.0
1112.0
1139.0
1157.0
1169.0
1174.0
1167.0
1159.0
1148.0
1134.0
1122.0
1094.0
1044.0
984.0
921.0
878.0
851.0
842.0
849.0
856.0
863.0
870.0
870.0
868.0
859.0
850.0
841.0
834.0
830.0
832.0
828.0
828.0
824.0
826.0
830.0
832.0
833.0
833.0
834.0
838.0
838.0
835.0
834.0
829.0
824.0
826.0
830.0
832.0
831.0
831.0
833.0
833.0
835.0
834.0
835.0
833.0
827.0
830.0
830.0
837.0
838.0
838.0
838.0
835.0
837.0
837.0
840.0
835.0
833.0
832.0
837.0
840.0
844.0
847.0
844.0
840.0
841.0
845.0
844.0
844.0
843.0
840.0
840.0
848.0
852.0
853.0
852.0
849.0
849.0
850.0
851.0
851.0
848.0
846.0
844.0
848.0
851.0
859.0
857.0
854.0
850.0
849.0
848.0
848.0
845.0
847.0
846.0
850.0
852.0
850.0
848.0
846.0
842.0
846.0
846.0
842.0
839.0
837.0
840.0
845.0
847.0
845.0
845.0
843.0
844.0
844.0
843.0
841.0
837.0
838.0
835.0
842.0
845.0
840.0
838.0
836.0
833.0
833.0
837.0
832.0
830.0
830.0
827.0
831.0
833.0
832.0
828.0
825.0
826.0
827.0
825.0
819.0
819.0
815.0
819.0
824.0
830.0
827.0
829.0
826.0
827.0
827.0
823.0
822.0
816.0
817.0
818.0
825.0
824.0
826.0
826.0
825.0
827.0
826.0
826.0
822.0
824.0
826.0
826.0
829.0
830.0
834.0
837.0
838.0
838.0
835.0
834.0
835.0
839.0
842.0
847.0
847.0
853.0
860.0
867.0
868.0
870.0
867.0
865.0
867.0
865.0
865.0
863.0
863.0
860.0
861.0
862.0
861.0
858.0
854.0
852.0
848.0
845.0
840.0
837.0
831.0
828.0
829.0
831.0
829.0
825.0
819.0
812.0
811.0
816.0
815.0
813.0
808.0
806.0
810.0
816.0
821.0
817.0
815.0
810.0
806.0
803.0
800.0
789.0
778.0
771.0
771.0
782.0
802.0
829.0
866.0
912.0
958.0
1000.0
1041.0
1080.0
1109.0
1132.0
1148.0
1149.0
1145.0
1130.0
1116.0
1097.0
1071.0
1026.0
966.0
901.0
849.0
822.0
813.0
815.0
821.0
830.0
834.0
833.0
826.0
814.0
802.0
795.0
795.0
797.0
799.0
799.0
797.0
799.0
798.0
802.0
801.0
799.0
795.0
797.0
804.0
806.0
807.0
806.0
802.0
801.0
803.0
805.0
803.0
799.0
798.0
800.0
806.0
808.0
807.0
805.0
801.0
803.0
804.0
802.0
799.0
801.0
801.0
800.0
804.0
809.0
809.0
810.0
809.0
809.0
811.0
809.0
811.0
806.0
807.0
812.0
816.0
816.0
820.0
818.0
813.0
816.0
816.0
818.0
816.0
815.0
812.0
815.0
818.0
824.0
827.0
825.0
822.0
823.0
821.0
825.0
822.0
824.0
819.0
821.0
822.0
825.0
827.0
827.0
824.0
819.0
820.0
823.0
820.0
817.0
814.0
812.0
815.0
816.0
820.0
820.0
818.0
815.0
812.0
814.0
812.0
816.0
812.0
811.0
809.0
814.0
816.0
816.0
810.0
811.0
807.0
808.0
806.0
809.0
807.0
804.0
804.0
806.0
810.0
811.0
807.0
802.0
797.0
797.0
795.0
798.0
794.0
792.0
789.0
794.0
799.0
798.0
795.0
792.0
787.0
789.0
789.0
792.0
788.0
788.0
785.0
784.0
795.0
800.0
799.0
793.0
792.0
788.0
792.0
792.0
794.0
792.0
791.0
794.0
796.0
798.0
799.0
798.0
796.0
796.0
797.0
802.0
805.0
811.0
808.0
805.0
805.0
813.0
814.0
817.0
816.0
814.0
819.0
821.0
829.0
834.0
836.0
841.0
843.0
845.0
846.0
849.0
846.0
843.0
837.0
834.0
837.0
839.0
842.0
836.0
834.0
829.0
828.0
830.0
830.0
825.0
816.0
807.0
805.0
805.0
805.0
802.0
798.0
796.0
795.0
797.0
795.0
790.0
787.0
787.0
785.0
791.0
794.0
794.0
794.0
792.0
790.0
793.0
792.0
788.0
783.0
775.0
767.0
757.0
756.0
752.0
762.0
778.0
805.0
841.0
880.0
918.0
949.0
980.0
1006.0
1042.0
1078.0
1102.0
1119.0
1125.0
1127.0
1124.0
1116.0
1105.0
1091.0
1068.0
1023.0
967.0
911.0
857.0
819.0
799.0
795.0
800.0
811.0
821.0
825.0
824.0
807.0
796.0
788.0
784.0
785.0
783.0
781.0
777.0
778.0
779.0
780.0
778.0
777.0
778.0
782.0
784.0
788.0
788.0
788.0
788.0
786.0
785.0
782.0
782.0
776.0
777.0
785.0
785.0
787.0
786.0
787.0
787.0
790.0
790.0
791.0
786.0
784.0
785.0
784.0
790.0
797.0
796.0
794.0
794.0
798.0
798.0
794.0
792.0
788.0
791.0
796.0
803.0
804.0
803.0
797.0
797.0
801.0
802.0
803.0
802.0
801.0
804.0
806.0
811.0
813.0
812.0
811.0
807.0
809.0
810.0
812.0
812.0
808.0
806.0
808.0
810.0
813.0
815.0
813.0
807.0
808.0
808.0
810.0
808.0
803.0
803.0
805.0
809.0
812.0
811.0
805.0
803.0
801.0
803.0
803.0
799.0
792.0
799.0
801.0
805.0
804.0
804.0
798.0
796.0
794.0
798.0
798.0
795.0
793.0
788.0
789.0
793.0
794.0
798.0
789.0
787.0
784.0
787.0
789.0
785.0
780.0
780.0
779.0
782.0
784.0
786.0
782.0
777.0
775.0
779.0
779.0
778.0
770.0
772.0
776.0
779.0
783.0
787.0
785.0
782.0
778.0
782.0
784.0
783.0
780.0
779.0
778.0
779.0
785.0
789.0
790.0
785.0
783.0
783.0
788.0
789.0
789.0
786.0
789.0
796.0
802.0
804.0
799.0
799.0
803.0
806.0
809.0
808.0
807.0
814.0
818.0
826.0
832.0
836.0
832.0
830.0
830.0
831.0
833.0
833.0
830.0
824.0
824.0
825.0
824.0
823.0
822.0
819.0
818.0
817.0
813.0
809.0
798.0
792.0
790.0
788.0
791.0
794.0
788.0
787.0
784.0
778.0
779.0
777.0
777.0
774.0
776.0
779.0
783.0
784.0
782.0
779.0
778.0
777.0
774.0
769.0
761.0
749.0
741.0
744.0
755.0
771.0
799.0
834.0
876.0
920.0
959.0
998.0
1031.0
1064.0
1095.0
1117.0
1129.0
1129.0
1120.0
1111.0
1094.0
1064.0
1021.0
959.0
890.0
834.0
800.0
783.0
783.0
791.0
803.0
813.0
813.0
810.0
796.0
785.0
773.0
768.0
764.0
769.0
769.0
771.0
770.0
771.0
773.0
773.0
771.0
769.0
767.0
769.0
774.0
777.0
780.0
780.0
776.0
776.0
775.0
778.0
778.0
776.0
771.0
774.0
774.0
776.0
780.0
781.0
778.0
775.0
775.0
778.0
783.0
783.0
780.0
777.0
776.0
777.0
786.0
790.0
791.0
790.0
787.0
785.0
783.0
788.0
786.0
785.0
786.0
790.0
793.0
796.0
797.0
795.0
790.0
796.0
798.0
797.0
792.0
796.0
798.0
801.0
805.0
804.0
804.0
801.0
803.0
802.0
804.0
803.0
799.0
800.0
801.0
805.0
809.0
811.0
807.0
805.0
804.0
801.0
803.0
796.0
797.0
798.0
796.0
802.0
803.0
805.0
802.0
796.0
794.0
796.0
796.0
797.0
791.0
787.0
789.0
794.0
793.0
794.0
792.0
790.0
791.0
789.0
792.0
790.0
785.0
784.0
785.0
788.0
789.0
789.0
785.0
780.0
781.0
783.0
782.0
777.0
775.0
772.0
773.0
777.0
777.0
775.0
773.0
770.0
771.0
771.0
770.0
768.0
769.0
769.0
771.0
778.0
780.0
778.0
777.0
777.0
782.0
782.0
779.0
776.0
773.0
777.0
779.0
783.0
784.0
783.0
781.0
780.0
783.0
784.0
785.0
782.0
783.0
786.0
791.0
792.0
797.0
798.0
797.0
798.0
799.0
803.0
808.0
810.0
808.0
812.0
817.0
826.0
832.0
830.0
830.0
830.0
827.0
831.0
830.0
824.0
826.0
820.0
819.0
821.0
822.0
823.0
821.0
818.0
817.0
811.0
807.0
803.0
796.0
790.0
790.0
792.0
791.0
790.0
786.0
783.0
783.0
782.0
781.0
777.0
774.0
773.0
776.0
780.0
786.0
781.0
779.0
779.0
776.0
774.0
765.0
754.0
741.0
736.0
738.0
750.0
774.0
802.0
832.0
868.0
911.0
947.0
984.0
1013.0
1043.0
1070.0
1097.0
1115.0
1125.0
1126.0
1116.0
1103.0
1091.0
1076.0
1046.0
997.0
930.0
869.0
823.0
797.0
792.0
798.0
804.0
813.0
820.0
816.0
805.0
792.0
780.0
775.0
770.0
771.0
774.0
776.0
774.0
770.0
772.0
774.0
775.0
774.0
768.0
767.0
775.0
777.0
780.0
780.0
778.0
778.0
779.0
781.0
777.0
774.0
772.0
770.0
772.0
776.0
780.0
780.0
780.0
779.0
782.0
784.0
780.0
775.0
774.0
777.0
782.0
782.0
783.0
784.0
781.0
785.0
787.0
790.0
789.0
788.0
784.0
785.0
788.0
792.0
795.0
796.0
796.0
793.0
795.0
793.0
796.0
794.0
788.0
789.0
795.0
799.0
805.0
804.0
803.0
800.0
802.0
801.0
803.0
802.0
796.0
795.0
797.0
805.0
807.0
808.0
805.0
804.0
801.0
801.0
802.0
798.0
796.0
795.0
796.0
803.0
803.0
804.0
797.0
795.0
799.0
799.0
798.0
796.0
788.0
789.0
791.0
796.0
795.0
798.0
793.0
791.0
793.0
796.0
793.0
786.0
783.0
782.0
787.0
793.0
795.0
793.0
788.0
786.0
787.0
791.0
787.0
782.0
777.0
776.0
777.0
780.0
784.0
781.0
782.0
779.0
781.0
781.0
783.0
784.0
780.0
778.0
778.0
783.0
787.0
786.0
786.0
783.0
783.0
784.0
786.0
786.0
780.0
782.0
781.0
787.0
789.0
790.0
789.0
786.0
785.0
785.0
786.0
786.0
789.0
789.0
791.0
797.0
802.0
806.0
805.0
802.0
800.0
798.0
803.0
802.0
807.0
809.0
815.0
826.0
835.0
838.0
842.0
839.0
837.0
836.0
834.0
835.0
826.0
825.0
825.0
827.0
825.0
828.0
826.0
820.0
820.0
815.0
816.0
813.0
805.0
799.0
794.0
795.0
797.0
795.0
794.0
787.0
787.0
785.0
785.0
786.0
779.0
777.0
778.0
783.0
786.0
790.0
788.0
785.0
778.0
782.0
783.0
772.0
766.0
755.0
740.0
739.0
747.0
764.0
784.0
813.0
853.0
897.0
935.0
974.0
1004.0
1036.0
1068.0
1101.0
1124.0
1132.0
1137.0
1131.0
1120.0
1103.0
1082.0
1039.0
974.0
908.0
852.0
814.0
797.0
797.0
805.0
815.0
823.0
824.0
817.0
801.0
786.0
778.0
774.0
775.0
779.0
778.0
775.0
773.0
771.0
771.0
776.0
775.0
775.0
771.0
773.0
775.0
783.0
784.0
781.0
778.0
776.0
776.0
780.0
780.0
776.0
773.0
774.0
774.0
779.0
785.0
786.0
784.0
778.0
775.0
779.0
777.0
778.0
779.0
777.0
781.0
784.0
788.0
788.0
786.0
782.0
782.0
785.0
787.0
788.0
786.0
783.0
783.0
786.0
795.0
799.0
796.0
792.0
793.0
793.0
796.0
793.0
793.0
794.0
794.0
796.0
802.0
800.0
797.0
799.0
798.0
801.0
803.0
799.0
794.0
795.0
799.0
802.0
807.0
809.0
806.0
801.0
798.0
800.0
805.0
800.0
799.0
797.0
796.0
799.0
799.0
802.0
801.0
796.0
794.0
792.0
794.0
795.0
793.0
792.0
790.0
792.0
797.0
800.0
801.0
799.0
792.0
788.0
788.0
790.0
791.0
792.0
792.0
791.0
792.0
797.0
797.0
796.0
791.0
788.0
780.0
782.0
783.0
789.0
785.0
784.0
782.0
783.0
784.0
784.0
783.0
779.0
774.0
773.0
774.0
775.0
775.0
777.0
777.0
781.0
783.0
780.0
779.0
774.0
776.0
777.0
779.0
783.0
785.0
781.0
781.0
785.0
785.0
787.0
788.0
786.0
781.0
780.0
779.0
785.0
788.0
788.0
787.0
788.0
787.0
793.0
788.0
788.0
786.0
786.0
787.0
793.0
799.0
798.0
795.0
795.0
799.0
805.0
808.0
811.0
811.0
813.0
815.0
821.0
826.0
828.0
832.0
834.0
830.0
832.0
831.0
828.0
826.0
823.0
824.0
823.0
827.0
827.0
824.0
820.0
818.0
816.0
815.0
813.0
803.0
800.0
791.0
790.0
788.0
789.0
788.0
786.0
782.0
781.0
778.0
781.0
778.0
775.0
776.0
776.0
777.0
781.0
782.0
779.0
777.0
778.0
777.0
772.0
768.0
756.0
745.0
735.0
736.0
744.0
755.0
775.0
800.0
836.0
875.0
922.0
958.0
993.0
1020.0
1053.0
1080.0
1106.0
1122.0
1126.0
1124.0
1119.0
1108.0
1097.0
1086.0
1065.0
1030.0
976.0
912.0
859.0
819.0
798.0
790.0
792.0
799.0
808.0
805.0
806.0
797.0
788.0
777.0
766.0
768.0
772.0
773.0
769.0
764.0
765.0
760.0
763.0
768.0
767.0
769.0
764.0
771.0
774.0
775.0
773.0
770.0
767.0
767.0
766.0
764.0
763.0
762.0
763.0
773.0
777.0
773.0
770.0
767.0
767.0
769.0
772.0
773.0
772.0
772.0
772.0
772.0
775.0
777.0
775.0
776.0
772.0
774.0
777.0
776.0
777.0
776.0
776.0
779.0
787.0
789.0
788.0
784.0
782.0
781.0
786.0
785.0
787.0
789.0
791.0
793.0
796.0
793.0
791.0
788.0
791.0
790.0
792.0
791.0
792.0
794.0
792.0
795.0
798.0
798.0
797.0
792.0
789.0
790.0
793.0
793.0
791.0
791.0
787.0
791.0
795.0
795.0
793.0
790.0
787.0
789.0
789.0
787.0
786.0
787.0
790.0
791.0
795.0
789.0
788.0
787.0
786.0
786.0
786.0
778.0
776.0
778.0
784.0
788.0
787.0
782.0
781.0
777.0
778.0
777.0
774.0
771.0
767.0
766.0
772.0
774.0
781.0
775.0
767.0
767.0
766.0
767.0
774.0
768.0
766.0
768.0
771.0
775.0
776.0
777.0
771.0
766.0
767.0
774.0
775.0
772.0
772.0
772.0
773.0
777.0
784.0
784.0
780.0
775.0
773.0
772.0
777.0
775.0
775.0
777.0
777.0
782.0
786.0
782.0
783.0
779.0
781.0
783.0
783.0
783.0
784.0
786.0
792.0
795.0
797.0
797.0
802.0
808.0
811.0
817.0
816.0
819.0
819.0
823.0
828.0
831.0
832.0
825.0
825.0
824.0
823.0
821.0
816.0
808.0
809.0
811.0
816.0
815.0
812.0
802.0
796.0
795.0
791.0
788.0
785.0
781.0
776.0
779.0
781.0
782.0
783.0
779.0
777.0
776.0
776.0
780.0
774.0
772.0
774.0
777.0
775.0
782.0
781.0
772.0
767.0
760.0
754.0
745.0
734.0
731.0
745.0
766.0
800.0
840.0
881.0
918.0
960.0
1001.0
1037.0
1071.0
1097.0
1110.0
1118.0
1124.0
1114.0
1103.0
1084.0
1055.0
1019.0
960.0
899.0
847.0
806.0
787.0
782.0
793.0
806.0
815.0
813.0
804.0
