# Simple Text Format
# Sampling Rate (Hz):= 360.00
# Resolution:= 12
# Labels:= ECG
811.0
813.0
816.0
812.0
812.0
813.0
817.0
820.0
817.0
816.0
814.0
822.0
828.0
834.0
839.0
841.0
842.0
845.0
849.0
852.0
849.0
850.0
851.0
853.0
856.0
856.0
856.0
849.0
848.0
846.0
846.0
841.0
840.0
836.0
836.0
838.0
839.0
831.0
825.0
821.0
817.0
816.0
816.0
811.0
803.0
800.0
799.0
803.0
806.0
804.0
801.0
800.0
800.0
802.0
803.0
802.0
801.0
797.0
792.0
794.0
795.0
788.0
776.0
768.0
761.0
766.0
775.0
797.0
823.0
854.0
897.0
939.0
982.0
1020.0
1051.0
1081.0
1103.0
1125.0
1137.0
1144.0
1144.0
1137.0
1126.0
1113.0
1094.0
1062.0
1010.0
945.0
885.0
844.0
821.0
818.0
816.0
823.0
830.0
834.0
833.0
825.0
817.0
805.0
798.0
794.0
796.0
794.0
790.0
787.0
789.0
790.0
793.0
799.0
797.0
799.0
797.0
799.0
799.0
794.0
792.0
789.0
792.0
793.0
797.0
797.0
797.0
797.0
796.0
795.0
796.0
797.0
796.0
794.0
795.0
799.0
802.0
802.0
802.0
804.0
804.0
807.0
806.0
805.0
799.0
799.0
802.0
805.0
808.0
811.0
809.0
807.0
809.0
810.0
808.0
808.0
807.0
808.0
812.0
813.0
816.0
814.0
813.0
811.0
815.0
817.0
817.0
816.0
813.0
811.0
814.0
816.0
822.0
822.0
821.0
821.0
823.0
824.0
824.0
822.0
817.0
814.0
814.0
819.0
824.0
822.0
820.0
821.0
817.0
823.0
821.0
820.0
814.0
813.0
815.0
816.0
820.0
820.0
817.0
816.0
817.0
817.0
820.0
815.0
811.0
811.0
813.0
816.0
815.0
813.0
811.0
812.0
813.0
816.0
808.0
807.0
803.0
801.0
800.0
804.0
806.0
807.0
804.0
801.0
802.0
799.0
799.0
798.0
793.0
791.0
793.0
798.0
801.0
798.0
798.0
801.0
803.0
805.0
804.0
801.0
795.0
793.0
796.0
800.0
801.0
804.0
802.0
802.0
804.0
808.0
805.0
803.0
803.0
802.0
806.0
809.0
808.0
810.0
808.0
810.0
809.0
813.0
815.0
813.0
811.0
813.0
817.0
823.0
821.0
824.0
824.0
833.0
839.0
844.0
845.0
845.0
849.0
854.0
856.0
858.0
857.0
855.0
857.0
858.0
859.0
856.0
847.0
845.0
836.0
837.0
837.0
843.0
840.0
836.0
834.0
828.0
828.0
825.0
820.0
813.0
807.0
804.0
806.0
809.0
810.0
806.0
805.0
804.0
807.0
808.0
808.0
803.0
802.0
798.0
801.0
805.0
804.0
803.0
800.0
795.0
789.0
781.0
772.0
765.0
759.0
763.0
784.0
812.0
852.0
891.0
927.0
963.0
999.0
1036.0
1064.0
1092.0
1116.0
1132.0
1140.0
1149.0
1147.0
1142.0
1121.0
1102.0
1065.0
1010.0
948.0
880.0
837.0
811.0
809.0
816.0
831.0
836.0
837.0
832.0
825.0
811.0
807.0
797.0
789.0
786.0
786.0
790.0
797.0
798.0
795.0
794.0
793.0
799.0
799.0
795.0
791.0
788.0
790.0
794.0
797.0
797.0
799.0
799.0
799.0
799.0
798.0
797.0
793.0
791.0
792.0
793.0
795.0
795.0
801.0
802.0
804.0
803.0
803.0
803.0
801.0
799.0
802.0
804.0
804.0
805.0
806.0
805.0
812.0
814.0
813.0
810.0
807.0
808.0
812.0
813.0
817.0
816.0
811.0
816.0
818.0
817.0
819.0
817.0
813.0
813.0
815.0
821.0
823.0
822.0
821.0
823.0
828.0
828.0
828.0
824.0
822.0
816.0
823.0
828.0
828.0
828.0
827.0
826.0
826.0
828.0
829.0
827.0
820.0
819.0
818.0
819.0
825.0
826.0
823.0
825.0
822.0
825.0
826.0
825.0
818.0
816.0
819.0
820.0
821.0
823.0
824.0
819.0
817.0
816.0
817.0
818.0
811.0
806.0
806.0
810.0
813.0
817.0
815.0
811.0
813.0
812.0
814.0
813.0
808.0
807.0
804.0
803.0
807.0
811.0
810.0
805.0
806.0
806.0
804.0
802.0
802.0
800.0
799.0
802.0
807.0
811.0
812.0
810.0
809.0
809.0
813.0
812.0
813.0
808.0
803.0
805.0
812.0
814.0
820.0
817.0
813.0
812.0
810.0
813.0
816.0
814.0
813.0
813.0
815.0
818.0
823.0
825.0
827.0
830.0
831.0
834.0
831.0
829.0
829.0
828.0
837.0
846.0
855.0
858.0
856.0
856.0
859.0
862.0
859.0
863.0
861.0
858.0
860.0
866.0
865.0
864.0
858.0
851.0
847.0
845.0
849.0
850.0
847.0
848.0
844.0
840.0
838.0
838.0
830.0
825.0
820.0
817.0
816.0
815.0
812.0
810.0
812.0
812.0
814.0
816.0
816.0
815.0
813.0
814.0
815.0
816.0
810.0
807.0
803.0
801.0
797.0
790.0
780.0
771.0
773.0
786.0
810.0
841.0
874.0
912.0
951.0
992.0
1029.0
1067.0
1099.0
1122.0
1142.0
1147.0
1159.0
1159.0
1148.0
1138.0
1120.0
1094.0
1056.0
1004.0
939.0
883.0
843.0
823.0
821.0
830.0
843.0
850.0
845.0
843.0
835.0
829.0
821.0
811.0
804.0
799.0
797.0
802.0
806.0
805.0
806.0
802.0
804.0
805.0
806.0
810.0
806.0
806.0
800.0
802.0
804.0
806.0
805.0
807.0
807.0
809.0
811.0
810.0
809.0
804.0
803.0
807.0
811.0
809.0
809.0
808.0
808.0
812.0
812.0
814.0
814.0
809.0
810.0
810.0
811.0
815.0
814.0
813.0
814.0
817.0
821.0
823.0
822.0
819.0
816.0
815.0
818.0
823.0
826.0
826.0
826.0
829.0
827.0
827.0
828.0
824.0
823.0
824.0
822.0
827.0
829.0
831.0
828.0
829.0
825.0
831.0
831.0
831.0
823.0
825.0
822.0
827.0
830.0
833.0
831.0
831.0
831.0
830.0
833.0
833.0
827.0
826.0
825.0
826.0
830.0
831.0
829.0
830.0
830.0
834.0
829.0
826.0
821.0
822.0
820.0
824.0
823.0
825.0
823.0
825.0
827.0
828.0
828.0
825.0
820.0
819.0
822.0
820.0
820.0
822.0
817.0
822.0
821.0
818.0
820.0
816.0
812.0
815.0
815.0
814.0
813.0
812.0
811.0
816.0
815.0
814.0
817.0
813.0
812.0
816.0
819.0
819.0
815.0
815.0
817.0
819.0
821.0
822.0
821.0
816.0
819.0
818.0
821.0
820.0
823.0
821.0
820.0
821.0
821.0
823.0
823.0
820.0
822.0
826.0
826.0
828.0
829.0
829.0
833.0
838.0
838.0
835.0
832.0
834.0
837.0
845.0
851.0
851.0
854.0
859.0
864.0
870.0
873.0
872.0
871.0
868.0
867.0
870.0
871.0
872.0
872.0
869.0
866.0
870.0
868.0
868.0
865.0
860.0
858.0
856.0
853.0
847.0
844.0
840.0
836.0
843.0
841.0
836.0
835.0
829.0
827.0
827.0
825.0
824.0
824.0
823.0
820.0
829.0
830.0
830.0
827.0
822.0
816.0
815.0
816.0
815.0
809.0
798.0
788.0
785.0
790.0
805.0
828.0
853.0
892.0
935.0
980.0
1022.0
1064.0
1101.0
1132.0
1160.0
1180.0
1186.0
1183.0
1175.0
1159.0
1137.0
1101.0
1046.0
980.0
918.0
875.0
852.0
841.0
841.0
849.0
854.0
856.0
858.0
854.0
846.0
833.0
825.0
821.0
822.0
820.0
818.0
809.0
808.0
809.0
807.0
814.0
816.0
817.0
817.0
817.0
819.0
819.0
820.0
819.0
818.0
815.0
820.0
821.0
820.0
822.0
818.0
822.0
821.0
824.0
823.0
820.0
817.0
815.0
819.0
824.0
825.0
827.0
824.0
826.0
827.0
829.0
828.0
825.0
818.0
818.0
820.0
824.0
826.0
830.0
832.0
832.0
835.0
840.0
834.0
830.0
828.0
831.0
834.0
833.0
832.0
832.0
830.0
835.0
840.0
841.0
842.0
840.0
840.0
840.0
843.0
844.0
843.0
839.0
839.0
839.0
845.0
848.0
850.0
848.0
843.0
845.0
847.0
845.0
847.0
842.0
841.0
843.0
850.0
848.0
846.0
843.0
839.0
841.0
845.0
848.0
846.0
842.0
842.0
845.0
852.0
849.0
845.0
844.0
841.0
841.0
844.0
840.0
841.0
841.0
839.0
844.0
844.0
841.0
841.0
839.0
841.0
842.0
843.0
840.0
834.0
835.0
837.0
833.0
837.0
837.0
832.0
830.0
828.0
827.0
828.0
823.0
824.0
825.0
831.0
836.0
838.0
836.0
835.0
835.0
839.0
840.0
840.0
839.0
837.0
836.0
842.0
841.0
842.0
841.0
838.0
835.0
834.0
839.0
841.0
837.0
835.0
837.0
836.0
844.0
846.0
848.0
851.0
852.0
853.0
854.0
855.0
849.0
851.0
851.0
858.0
864.0
872.0
873.0
875.0
876.0
876.0
881.0
884.0
888.0
886.0
883.0
882.0
883.0
890.0
889.0
889.0
883.0
881.0
880.0
878.0
877.0
874.0
871.0
872.0
871.0
867.0
864.0
856.0
846.0
846.0
842.0
840.0
837.0
838.0
836.0
835.0
840.0
842.0
840.0
840.0
840.0
840.0
843.0
843.0
842.0
838.0
829.0
836.0
833.0
825.0
811.0
801.0
792.0
793.0
804.0
827.0
856.0
894.0
940.0
987.0
1027.0
1065.0
1096.0
1119.0
1148.0
1162.0
1176.0
1180.0
1175.0
1165.0
1152.0
1132.0
1100.0
1046.0
978.0
912.0
868.0
842.0
843.0
848.0
857.0
868.0
876.0
874.0
864.0
856.0
845.0
838.0
833.0
832.0
831.0
828.0
824.0
821.0
822.0
826.0
828.0
834.0
835.0
834.0
838.0
841.0
841.0
836.0
829.0
832.0
833.0
835.0
836.0
837.0
832.0
832.0
833.0
835.0
838.0
837.0
834.0
833.0
838.0
841.0
842.0
845.0
838.0
840.0
840.0
840.0
840.0
837.0
835.0
837.0
839.0
844.0
845.0
845.0
842.0
842.0
849.0
853.0
852.0
852.0
845.0
843.0
841.0
847.0
855.0
857.0
857.0
854.0
854.0
853.0
851.0
849.0
847.0
850.0
855.0
857.0
859.0
857.0
857.0
862.0
867.0
864.0
863.0
863.0
859.0
853.0
851.0
855.0
855.0
854.0
854.0
851.0
852.0
856.0
855.0
855.0
856.0
853.0
858.0
862.0
863.0
860.0
855.0
851.0
851.0
849.0
853.0
851.0
843.0
844.0
851.0
851.0
851.0
853.0
849.0
846.0
850.0
849.0
852.0
853.0
847.0
846.0
847.0
848.0
845.0
843.0
847.0
845.0
849.0
849.0
846.0
845.0
841.0
840.0
843.0
847.0
851.0
850.0
848.0
846.0
842.0
843.0
840.0
839.0
841.0
843.0
847.0
854.0
853.0
853.0
849.0
847.0
843.0
847.0
849.0
845.0
843.0
847.0
851.0
858.0
859.0
860.0
860.0
859.0
859.0
864.0
867.0
870.0
873.0
878.0
885.0
892.0
892.0
894.0
895.0
895.0
899.0
899.0
895.0
891.0
888.0
887.0
889.0
889.0
887.0
884.0
887.0
889.0
883.0
878.0
875.0
864.0
860.0
857.0
858.0
857.0
856.0
853.0
852.0
852.0
852.0
850.0
846.0
845.0
842.0
845.0
847.0
855.0
853.0
852.0
851.0
847.0
847.0
842.0
832.0
821.0
807.0
803.0
806.0
815.0
830.0
852.0
886.0
929.0
973.0
1013.0
1041.0
1067.0
1094.0
1121.0
1144.0
1164.0
1172.0
1171.0
1169.0
1161.0
1153.0
1130.0
1093.0
1038.0
973.0
911.0
869.0
850.0
845.0
852.0
866.0
879.0
883.0
881.0
869.0
857.0
846.0
839.0
837.0
839.0
836.0
837.0
834.0
836.0
838.0
841.0
842.0
840.0
836.0
838.0
839.0
845.0
847.0
847.0
848.0
842.0
844.0
847.0
846.0
847.0
840.0
840.0
840.0
845.0
849.0
848.0
848.0
844.0
839.0
841.0
841.0
845.0
838.0
840.0
845.0
845.0
853.0
854.0
851.0
847.0
847.0
850.0
851.0
851.0
851.0
848.0
850.0
854.0
858.0
862.0
862.0
860.0
858.0
859.0
859.0
860.0
861.0
859.0
858.0
859.0
864.0
864.0
863.0
861.0
864.0
865.0
867.0
869.0
865.0
863.0
862.0
864.0
867.0
870.0
872.0
870.0
862.0
860.0
862.0
863.0
866.0
865.0
863.0
863.0
866.0
868.0
867.0
862.0
857.0
856.0
859.0
859.0
858.0
856.0
852.0
855.0
856.0
862.0
860.0
861.0
858.0
855.0
849.0
848.0
848.0
850.0
849.0
849.0
850.0
852.0
856.0
852.0
851.0
847.0
845.0
847.0
845.0
850.0
845.0
847.0
845.0
848.0
848.0
848.0
848.0
843.0
839.0
837.0
840.0
840.0
840.0
839.0
840.0
842.0
844.0
847.0
847.0
845.0
840.0
838.0
841.0
843.0
844.0
845.0
841.0
841.0
842.0
846.0
848.0
848.0
844.0
843.0
838.0
842.0
845.0
845.0
846.0
844.0
845.0
848.0
849.0
850.0
849.0
846.0
843.0
845.0
847.0
853.0
853.0
850.0
852.0
852.0
856.0
857.0
856.0
858.0
850.0
850.0
862.0
867.0
872.0
876.0
877.0
879.0
881.0
886.0
886.0
886.0
881.0
883.0
884.0
887.0
892.0
896.0
892.0
885.0
880.0
878.0
881.0
875.0
873.0
867.0
863.0
866.0
866.0
859.0
854.0
848.0
843.0
841.0
839.0
835.0
831.0
830.0
827.0
831.0
834.0
836.0
834.0
829.0
827.0
829.0
830.0
830.0
826.0
822.0
827.0
825.0
822.0
820.0
812.0
803.0
792.0
785.0
794.0
812.0
841.0
876.0
913.0
957.0
997.0
1037.0
1068.0
1096.0
1118.0
1138.0
1153.0
1161.0
1156.0
1153.0
1141.0
1131.0
1121.0
1105.0
1071.0
1019.0
956.0
892.0
851.0
827.0
822.0
830.0
839.0
846.0
850.0
851.0
851.0
839.0
830.0
815.0
808.0
807.0
810.0
810.0
811.0
808.0
808.0
809.0
813.0
818.0
816.0
813.0
811.0
815.0
815.0
814.0
812.0
813.0
814.0
819.0
820.0
820.0
814.0
816.0
813.0
817.0
817.0
813.0
816.0
814.0
818.0
818.0
821.0
818.0
816.0
818.0
816.0
818.0
816.0
812.0
814.0
819.0
825.0
829.0
831.0
828.0
825.0
826.0
826.0
826.0
824.0
822.0
820.0
825.0
828.0
831.0
830.0
833.0
830.0
832.0
831.0
830.0
830.0
827.0
825.0
828.0
832.0
838.0
838.0
834.0
833.0
831.0
832.0
831.0
829.0
831.0
830.0
829.0
833.0
835.0
838.0
833.0
830.0
829.0
829.0
828.0
825.0
821.0
824.0
828.0
832.0
829.0
827.0
826.0
827.0
824.0
823.0
825.0
823.0
819.0
819.0
824.0
826.0
830.0
828.0
824.0
821.0
825.0
820.0
818.0
817.0
812.0
811.0
814.0
819.0
819.0
818.0
814.0
810.0
810.0
812.0
812.0
809.0
806.0
801.0
800.0
810.0
809.0
808.0
806.0
803.0
805.0
807.0
808.0
808.0
803.0
801.0
804.0
811.0
814.0
815.0
814.0
811.0
810.0
809.0
810.0
811.0
808.0
807.0
811.0
813.0
818.0
818.0
817.0
814.0
815.0
815.0
816.0
817.0
817.0
814.0
824.0
825.0
828.0
831.0
829.0
831.0
837.0
838.0
841.0
841.0
844.0
849.0
855.0
857.0
858.0
857.0
856.0
856.0
854.0
856.0
853.0
849.0
845.0
843.0
844.0
847.0
845.0
844.0
840.0
836.0
832.0
830.0
822.0
817.0
813.0
809.0
813.0
815.0
815.0
813.0
811.0
811.0
810.0
809.0
808.0
806.0
804.0
803.0
806.0
810.0
811.0
809.0
805.0
797.0
793.0
785.0
773.0
763.0
761.0
771.0
793.0
825.0
860.0
898.0
937.0
978.0
1017.0
1055.0
1086.0
1116.0
1128.0
1137.0
1146.0
1137.0
1128.0
1112.0
1089.0
1055.0
1005.0
939.0
879.0
835.0
810.0
800.0
811.0
827.0
839.0
834.0
831.0
824.0
816.0
809.0
799.0
793.0
787.0
791.0
795.0
797.0
798.0
796.0
795.0
792.0
794.0
798.0
797.0
795.0
792.0
793.0
795.0
801.0
802.0
799.0
796.0
800.0
800.0
799.0
798.0
796.0
792.0
791.0
795.0
803.0
803.0
803.0
799.0
804.0
804.0
804.0
806.0
802.0
800.0
804.0
807.0
814.0
813.0
815.0
811.0
806.0
810.0
812.0
809.0
808.0
808.0
813.0
815.0
820.0
820.0
821.0
817.0
820.0
820.0
819.0
819.0
816.0
811.0
811.0
820.0
823.0
823.0
824.0
817.0
819.0
821.0
824.0
821.0
819.0
817.0
818.0
822.0
826.0
826.0
826.0
825.0
823.0
823.0
823.0
822.0
819.0
813.0
814.0
817.0
821.0
822.0
819.0
820.0
818.0
816.0
819.0
818.0
816.0
813.0
813.0
817.0
822.0
821.0
821.0
817.0
816.0
816.0
815.0
818.0
817.0
808.0
807.0
808.0
810.0
809.0
810.0
806.0
808.0
804.0
806.0
807.0
803.0
798.0
797.0
801.0
801.0
803.0
800.0
800.0
800.0
802.0
800.0
800.0
796.0
794.0
798.0
803.0
808.0
804.0
803.0
802.0
805.0
803.0
801.0
801.0
800.0
797.0
797.0
801.0
804.0
808.0
807.0
807.0
809.0
810.0
810.0
810.0
808.0
805.0
806.0
809.0
815.0
819.0
818.0
819.0
816.0
818.0
821.0
823.0
820.0
821.0
822.0
828.0
837.0
847.0
849.0
849.0
851.0
845.0
850.0
854.0
855.0
854.0
851.0
849.0
854.0
856.0
853.0
853.0
848.0
843.0
842.0
839.0
841.0
839.0
836.0
832.0
826.0
825.0
823.0
816.0
813.0
811.0
808.0
809.0
804.0
805.0
800.0
801.0
805.0
807.0
811.0
808.0
802.0
803.0
804.0
806.0
805.0
802.0
798.0
795.0
794.0
788.0
783.0
774.0
769.0
777.0
793.0
816.0
851.0
887.0
924.0
962.0
1002.0
1037.0
1070.0
1098.0
1117.0
1128.0
1139.0
1139.0
1140.0
1131.0
1117.0
1101.0
1076.0
1037.0
980.0
917.0
859.0
823.0
805.0
801.0
814.0
826.0
833.0
830.0
825.0
819.0
812.0
801.0
793.0
790.0
788.0
787.0
789.0
791.0
788.0
789.0
791.0
797.0
795.0
796.0
795.0
798.0
796.0
793.0
793.0
789.0
793.0
794.0
798.0
799.0
801.0
799.0
797.0
799.0
801.0
800.0
798.0
794.0
796.0
800.0
803.0
806.0
804.0
804.0
806.0
809.0
806.0
805.0
803.0
801.0
803.0
808.0
811.0
812.0
812.0
810.0
813.0
815.0
813.0
812.0
811.0
812.0
813.0
819.0
818.0
818.0
818.0
819.0
816.0
821.0
820.0
815.0
817.0
818.0
815.0
824.0
825.0
827.0
824.0
826.0
821.0
824.0
826.0
824.0
818.0
816.0
819.0
822.0
822.0
820.0
817.0
820.0
821.0
822.0
820.0
815.0
814.0
817.0
820.0
818.0
821.0
819.0
817.0
820.0
820.0
823.0
819.0
816.0
810.0
812.0
815.0
815.0
816.0
816.0
814.0
818.0
816.0
818.0
812.0
807.0
808.0
807.0
807.0
807.0
806.0
804.0
805.0
807.0
808.0
805.0
803.0
797.0
796.0
799.0
802.0
802.0
803.0
801.0
806.0
808.0
810.0
804.0
799.0
804.0
802.0
808.0
807.0
806.0
805.0
807.0
811.0
813.0
814.0
810.0
809.0
808.0
806.0
808.0
810.0
809.0
812.0
814.0
817.0
822.0
821.0
821.0
818.0
820.0
823.0
822.0
821.0
818.0
824.0
830.0
838.0
842.0
843.0
844.0
846.0
853.0
859.0
863.0
865.0
862.0
860.0
860.0
862.0
864.0
865.0
859.0
854.0
854.0
852.0
852.0
851.0
850.0
848.0
844.0
843.0
843.0
842.0
835.0
827.0
822.0
820.0
819.0
818.0
820.0
820.0
817.0
816.0
818.0
817.0
815.0
810.0
806.0
801.0
806.0
809.0
812.0
812.0
815.0
810.0
813.0
808.0
796.0
784.0
772.0
767.0
772.0
790.0
818.0
853.0
894.0
939.0
985.0
1023.0
1057.0
1087.0
1116.0
1140.0
1157.0
1167.0
1168.0
1166.0
1157.0
1142.0
1121.0
1083.0
1031.0
963.0
902.0
858.0
832.0
827.0
832.0
835.0
850.0
853.0
850.0
842.0
832.0
819.0
810.0
800.0
800.0
805.0
807.0
809.0
809.0
811.0
813.0
814.0
812.0
809.0
807.0
805.0
808.0
813.0
813.0
812.0
809.0
808.0
809.0
811.0
815.0
812.0
806.0
803.0
808.0
810.0
812.0
814.0
815.0
813.0
814.0
816.0
822.0
819.0
815.0
814.0
815.0
816.0
819.0
815.0
817.0
817.0
821.0
823.0
823.0
824.0
822.0
821.0
820.0
827.0
829.0
828.0
827.0
826.0
827.0
829.0
832.0
829.0
828.0
823.0
823.0
827.0
833.0
838.0
835.0
835.0
835.0
835.0
835.0
835.0
835.0
832.0
831.0
835.0
838.0
844.0
847.0
843.0
840.0
836.0
837.0
839.0
840.0
840.0
837.0
835.0
834.0
836.0
837.0
838.0
835.0
834.0
834.0
838.0
839.0
838.0
836.0
836.0
835.0
836.0
838.0
838.0
836.0
834.0
831.0
831.0
835.0
839.0
835.0
835.0
830.0
831.0
833.0
836.0
835.0
833.0
829.0
829.0
829.0
832.0
827.0
824.0
820.0
819.0
821.0
825.0
826.0
827.0
824.0
823.0
821.0
827.0
825.0
824.0
821.0
821.0
821.0
821.0
824.0
822.0
820.0
821.0
824.0
825.0
826.0
823.0
823.0
820.0
826.0
831.0
835.0
837.0
835.0
832.0
830.0
831.0
835.0
835.0
833.0
830.0
830.0
837.0
841.0
838.0
840.0
837.0
838.0
841.0
844.0
848.0
847.0
847.0
848.0
857.0
868.0
873.0
873.0
872.0
872.0
874.0
875.0
878.0
880.0
877.0
878.0
880.0
885.0
880.0
876.0
873.0
870.0
869.0
866.0
862.0
852.0
850.0
849.0
852.0
853.0
852.0
845.0
838.0
835.0
834.0
835.0
832.0
831.0
829.0
833.0
833.0
834.0
838.0
837.0
835.0
833.0
831.0
831.0
832.0
827.0
820.0
815.0
812.0
805.0
794.0
789.0
792.0
800.0
826.0
861.0
906.0
949.0
984.0
1021.0
1053.0
1088.0
1117.0
1142.0
1155.0
1162.0
1170.0
1170.0
1164.0
1149.0
1130.0
1094.0
1041.0
983.0
923.0
878.0
845.0
833.0
837.0
851.0
868.0
871.0
866.0
860.0
851.0
845.0
836.0
827.0
824.0
819.0
819.0
819.0
820.0
819.0
824.0
829.0
831.0
836.0
837.0
833.0
831.0
830.0
832.0
829.0
829.0
828.0
827.0
826.0
832.0
834.0
837.0
834.0
830.0
828.0
831.0
832.0
833.0
833.0
835.0
831.0
836.0
842.0
842.0
841.0
838.0
834.0
832.0
836.0
837.0
839.0
839.0
842.0
843.0
848.0
852.0
850.0
847.0
846.0
846.0
844.0
848.0
845.0
844.0
847.0
853.0
861.0
859.0
855.0
852.0
846.0
845.0
848.0
849.0
851.0
850.0
854.0
857.0
861.0
857.0
858.0
852.0
850.0
855.0
853.0
849.0
847.0
852.0
855.0
856.0
857.0
853.0
845.0
848.0
849.0
850.0
849.0
851.0
852.0
854.0
856.0
857.0
853.0
849.0
844.0
844.0
847.0
848.0
854.0
850.0
847.0
853.0
849.0
849.0
854.0
849.0
846.0
849.0
850.0
850.0
850.0
844.0
842.0
842.0
845.0
846.0
845.0
842.0
841.0
845.0
846.0
846.0
843.0
836.0
832.0
836.0
841.0
848.0
850.0
848.0
846.0
846.0
847.0
842.0
840.0
841.0
836.0
839.0
842.0
847.0
845.0
843.0
847.0
849.0
848.0
851.0
850.0
850.0
855.0
859.0
865.0
868.0
872.0
868.0
870.0
872.0
876.0
877.0
882.0
883.0
885.0
892.0
895.0
898.0
897.0
892.0
888.0
892.0
893.0
890.0
887.0
881.0
877.0
879.0
882.0
885.0
883.0
879.0
872.0
866.0
862.0
860.0
856.0
852.0
847.0
848.0
856.0
855.0
851.0
847.0
843.0
841.0
842.0
844.0
847.0
843.0
838.0
841.0
843.0
844.0
847.0
842.0
833.0
827.0
816.0
810.0
800.0
799.0
812.0
837.0
874.0
917.0
960.0
1000.0
1037.0
1067.0
1102.0
1129.0
1152.0
1160.0
1166.0
1166.0
1164.0
1157.0
1139.0
1107.0
1059.0
998.0
933.0
881.0
847.0
835.0
842.0
861.0
879.0
889.0
885.0
877.0
862.0
852.0
848.0
840.0
833.0
829.0
833.0
836.0
837.0
842.0
841.0
840.0
836.0
842.0
844.0
845.0
842.0
838.0
835.0
835.0
843.0
842.0
847.0
841.0
840.0
839.0
840.0
844.0
842.0
839.0
840.0
843.0
847.0
850.0
850.0
843.0
848.0
850.0
850.0
848.0
847.0
846.0
844.0
851.0
855.0
859.0
859.0
857.0
855.0
855.0
857.0
858.0
857.0
853.0
852.0
856.0
864.0
867.0
868.0
864.0
862.0
863.0
864.0
864.0
863.0
860.0
860.0
866.0
870.0
867.0
870.0
866.0
866.0
867.0
868.0
867.0
866.0
864.0
861.0
864.0
870.0
870.0
868.0
866.0
865.0
864.0
863.0
862.0
859.0
854.0
858.0
857.0
863.0
866.0
865.0
862.0
858.0
858.0
859.0
856.0
857.0
855.0
850.0
852.0
856.0
862.0
858.0
859.0
856.0
854.0
852.0
852.0
855.0
849.0
845.0
843.0
852.0
854.0
855.0
851.0
846.0
843.0
844.0
845.0
844.0
839.0
839.0
839.0
838.0
840.0
843.0
839.0
837.0
836.0
839.0
839.0
837.0
834.0
835.0
839.0
843.0
846.0
845.0
844.0
837.0
837.0
840.0
840.0
842.0
840.0
840.0
838.0
838.0
843.0
848.0
845.0
839.0
838.0
839.0
843.0
842.0
839.0
838.0
839.0
840.0
845.0
853.0
851.0
849.0
847.0
847.0
847.0
850.0
851.0
854.0
856.0
860.0
864.0
874.0
876.0
878.0
877.0
877.0
875.0
878.0
881.0
878.0
879.0
881.0
882.0
884.0
885.0
878.0
873.0
866.0
866.0
865.0
864.0
862.0
856.0
854.0
848.0
845.0
843.0
838.0
834.0
829.0
832.0
831.0
831.0
829.0
823.0
826.0
827.0
826.0
830.0
824.0
825.0
822.0
824.0
826.0
824.0
819.0
812.0
808.0
798.0
797.0
795.0
801.0
815.0
840.0
873.0
914.0
955.0
992.0
1024.0
1058.0
1091.0
1122.0
1144.0
1154.0
1158.0
1156.0
1152.0
1142.0
1128.0
1114.0
1082.0
1037.0
982.0
923.0
872.0
834.0
818.0
819.0
830.0
844.0
850.0
847.0
840.0
827.0
825.0
822.0
817.0
811.0
808.0
804.0
809.0
806.0
807.0
806.0
804.0
808.0
812.0
820.0
818.0
816.0
812.0
811.0
812.0
812.0
810.0
810.0
809.0
810.0
812.0
819.0
821.0
819.0
811.0
807.0
810.0
810.0
813.0
814.0
814.0
813.0
814.0
817.0
821.0
823.0
817.0
813.0
813.0
813.0
818.0
820.0
821.0
821.0
819.0
822.0
827.0
828.0
826.0
824.0
822.0
824.0
822.0
825.0
826.0
825.0
826.0
827.0
832.0
836.0
832.0
825.0
824.0
826.0
830.0
830.0
830.0
830.0
831.0
833.0
836.0
839.0
837.0
832.0
832.0
827.0
831.0
831.0
829.0
830.0
829.0
833.0
833.0
833.0
828.0
827.0
825.0
827.0
826.0
823.0
824.0
825.0
827.0
830.0
830.0
829.0
825.0
818.0
815.0
821.0
821.0
819.0
818.0
820.0
821.0
824.0
827.0
827.0
822.0
814.0
812.0
814.0
815.0
818.0
815.0
811.0
810.0
812.0
813.0
816.0
813.0
808.0
803.0
802.0
803.0
803.0
806.0
806.0
803.0
802.0
806.0
807.0
805.0
801.0
799.0
795.0
797.0
801.0
806.0
806.0
805.0
804.0
807.0
811.0
813.0
807.0
803.0
801.0
804.0
808.0
809.0
810.0
812.0
813.0
816.0
820.0
821.0
818.0
816.0
817.0
818.0
820.0
823.0
824.0
829.0
834.0
843.0
847.0
848.0
847.0
846.0
845.0
849.0
852.0
851.0
851.0
852.0
851.0
851.0
853.0
851.0
847.0
838.0
837.0
839.0
844.0
841.0
837.0
830.0
826.0
822.0
822.0
821.0
816.0
807.0
800.0
799.0
803.0
802.0
805.0
803.0
802.0
804.0
803.0
802.0
801.0
798.0
796.0
796.0
800.0
798.0
798.0
795.0
787.0
778.0
774.0
767.0
764.0
768.0
777.0
800.0
834.0
875.0
918.0
961.0
992.0
1023.0
1056.0
1092.0
1119.0
1134.0
1140.0
1140.0
1136.0
1131.0
1119.0
1101.0
1074.0
1028.0
969.0
906.0
848.0
812.0
795.0
792.0
806.0
819.0
831.0
833.0
828.0
815.0
804.0
797.0
791.0
787.0
783.0
782.0
780.0
784.0
788.0
791.0
789.0
786.0
786.0
789.0
791.0
793.0
791.0
790.0
787.0
787.0
791.0
792.0
797.0
796.0
795.0
794.0
793.0
787.0
789.0
789.0
787.0
789.0
789.0
796.0
800.0
799.0
795.0
795.0
795.0
797.0
798.0
797.0
798.0
798.0
799.0
802.0
806.0
803.0
803.0
799.0
800.0
804.0
805.0
806.0
803.0
806.0
811.0
813.0
814.0
811.0
810.0
811.0
813.0
815.0
816.0
815.0
814.0
808.0
810.0
815.0
819.0
820.0
819.0
815.0
813.0
815.0
816.0
818.0
817.0
815.0
815.0
815.0
819.0
818.0
817.0
813.0
808.0
808.0
812.0
810.0
810.0
809.0
809.0
807.0
814.0
815.0
814.0
813.0
809.0
804.0
806.0
802.0
803.0
804.0
804.0
807.0
807.0
812.0
810.0
813.0
806.0
801.0
801.0
802.0
801.0
805.0
801.0
799.0
800.0
802.0
803.0
803.0
800.0
796.0
793.0
793.0
794.0
792.0
791.0
788.0
790.0
792.0
795.0
792.0
790.0
786.0
782.0
783.0
786.0
789.0
790.0
788.0
788.0
788.0
790.0
794.0
790.0
787.0
786.0
783.0
789.0
794.0
793.0
792.0
797.0
799.0
799.0
800.0
799.0
799.0
797.0
