# Simple Text Format
# Sampling Rate (Hz):= 360.00
# Resolution:= 12
# Labels:= ECG
829.0
830.0
831.0
833.0
836.0
835.0
835.0
837.0
840.0
845.0
840.0
836.0
835.0
834.0
836.0
837.0
838.0
830.0
835.0
839.0
839.0
845.0
840.0
838.0
835.0
832.0
831.0
834.0
831.0
828.0
831.0
834.0
835.0
834.0
831.0
834.0
833.0
830.0
833.0
829.0
826.0
821.0
824.0
831.0
835.0
839.0
834.0
830.0
830.0
830.0
826.0
828.0
825.0
821.0
821.0
823.0
827.0
827.0
824.0
823.0
817.0
818.0
818.0
816.0
813.0
812.0
812.0
814.0
816.0
821.0
819.0
815.0
814.0
814.0
815.0
816.0
816.0
812.0
813.0
816.0
820.0
826.0
822.0
820.0
815.0
818.0
819.0
820.0
820.0
820.0
820.0
826.0
827.0
831.0
828.0
826.0
825.0
823.0
826.0
827.0
833.0
830.0
831.0
835.0
839.0
844.0
846.0
847.0
847.0
853.0
858.0
864.0
864.0
866.0
869.0
870.0
876.0
879.0
877.0
875.0
870.0
868.0
870.0
868.0
865.0
863.0
860.0
856.0
861.0
863.0
860.0
856.0
847.0
840.0
833.0
832.0
832.0
831.0
827.0
826.0
824.0
828.0
829.0
828.0
824.0
818.0
818.0
819.0
817.0
822.0
822.0
823.0
823.0
826.0
828.0
826.0
817.0
806.0
796.0
787.0
781.0
784.0
789.0
805.0
821.0
855.0
892.0
934.0
973.0
1011.0
1044.0
1075.0
1108.0
1138.0
1157.0
1167.0
1165.0
1166.0
1157.0
1144.0
1131.0
1104.0
1060.0
1007.0
947.0
892.0
857.0
836.0
830.0
836.0
846.0
857.0
862.0
854.0
851.0
836.0
823.0
814.0
810.0
814.0
815.0
813.0
811.0
812.0
813.0
814.0
811.0
809.0
806.0
806.0
814.0
818.0
819.0
821.0
814.0
814.0
812.0
815.0
817.0
814.0
810.0
810.0
814.0
819.0
822.0
823.0
820.0
815.0
816.0
818.0
818.0
821.0
819.0
818.0
818.0
823.0
828.0
833.0
832.0
826.0
823.0
822.0
824.0
826.0
825.0
825.0
826.0
830.0
832.0
836.0
838.0
834.0
832.0
835.0
835.0
833.0
833.0
831.0
831.0
830.0
837.0
842.0
844.0
844.0
840.0
836.0
836.0
838.0
837.0
838.0
838.0
840.0
843.0
848.0
847.0
843.0
845.0
840.0
844.0
845.0
843.0
842.0
840.0
843.0
839.0
840.0
844.0
843.0
839.0
840.0
838.0
840.0
840.0
840.0
841.0
838.0
838.0
839.0
842.0
840.0
838.0
835.0
834.0
835.0
834.0
839.0
838.0
839.0
836.0
838.0
835.0
839.0
841.0
840.0
837.0
828.0
827.0
826.0
832.0
833.0
834.0
830.0
830.0
832.0
832.0
830.0
824.0
823.0
823.0
823.0
827.0
827.0
825.0
822.0
821.0
821.0
826.0
827.0
825.0
822.0
821.0
825.0
829.0
834.0
836.0
835.0
830.0
828.0
828.0
828.0
827.0
829.0
827.0
829.0
835.0
840.0
843.0
845.0
839.0
836.0
842.0
842.0
847.0
843.0
843.0
844.0
851.0
859.0
865.0
870.0
869.0
872.0
875.0
883.0
885.0
883.0
877.0
877.0
878.0
882.0
885.0
884.0
881.0
876.0
874.0
872.0
871.0
872.0
867.0
865.0
859.0
857.0
853.0
850.0
844.0
839.0
838.0
840.0
835.0
829.0
827.0
825.0
831.0
836.0
838.0
836.0
836.0
836.0
833.0
835.0
831.0
822.0
818.0
820.0
819.0
812.0
803.0
796.0
797.0
805.0
826.0
853.0
890.0
925.0
965.0
1010.0
1047.0
1088.0
1119.0
1145.0
1163.0
1178.0
1185.0
1184.0
1182.0
1173.0
1160.0
1141.0
1109.0
1066.0
1005.0
942.0
891.0
859.0
846.0
847.0
859.0
867.0
867.0
862.0
855.0
849.0
845.0
839.0
832.0
826.0
822.0
821.0
822.0
824.0
820.0
821.0
820.0
824.0
828.0
826.0
824.0
824.0
825.0
823.0
824.0
822.0
818.0
820.0
828.0
832.0
830.0
831.0
825.0
826.0
831.0
834.0
833.0
832.0
828.0
830.0
833.0
835.0
836.0
833.0
833.0
826.0
829.0
833.0
836.0
835.0
830.0
831.0
830.0
835.0
838.0
839.0
839.0
844.0
844.0
847.0
841.0
834.0
833.0
835.0
840.0
846.0
852.0
850.0
848.0
845.0
844.0
848.0
849.0
844.0
844.0
846.0
850.0
855.0
857.0
858.0
856.0
853.0
855.0
852.0
852.0
850.0
846.0
846.0
847.0
847.0
851.0
852.0
851.0
848.0
852.0
851.0
849.0
846.0
843.0
841.0
851.0
853.0
851.0
849.0
847.0
848.0
852.0
849.0
847.0
844.0
842.0
841.0
845.0
847.0
847.0
843.0
846.0
846.0
847.0
845.0
840.0
838.0
839.0
838.0
844.0
843.0
844.0
840.0
840.0
841.0
840.0
838.0
835.0
831.0
828.0
833.0
836.0
837.0
839.0
838.0
840.0
839.0
841.0
841.0
838.0
836.0
834.0
835.0
837.0
844.0
847.0
843.0
842.0
845.0
845.0
849.0
850.0
845.0
848.0
847.0
850.0
855.0
857.0
858.0
860.0
863.0
870.0
876.0
874.0
877.0
878.0
885.0
891.0
891.0
891.0
890.0
891.0
893.0
893.0
893.0
888.0
882.0
879.0
875.0
878.0
881.0
879.0
875.0
873.0
866.0
865.0
860.0
856.0
848.0
846.0
843.0
845.0
846.0
846.0
845.0
840.0
839.0
840.0
840.0
840.0
836.0
833.0
833.0
834.0
838.0
842.0
837.0
832.0
829.0
824.0
817.0
809.0
797.0
790.0
792.0
806.0
832.0
863.0
904.0
941.0
974.0
1005.0
1039.0
1072.0
1103.0
1130.0
1150.0
1163.0
1174.0
1179.0
1177.0
1171.0
1151.0
1128.0
1087.0
1030.0
966.0
903.0
855.0
834.0
834.0
849.0
862.0
868.0
865.0
860.0
851.0
843.0
834.0
825.0
822.0
818.0
821.0
824.0
826.0
825.0
823.0
820.0
817.0
823.0
824.0
822.0
821.0
819.0
820.0
826.0
827.0
827.0
823.0
819.0
817.0
825.0
824.0
822.0
824.0
818.0
819.0
821.0
829.0
833.0
828.0
826.0
823.0
822.0
826.0
827.0
828.0
823.0
825.0
827.0
830.0
834.0
831.0
832.0
827.0
825.0
829.0
830.0
832.0
830.0
831.0
833.0
837.0
836.0
835.0
836.0
834.0
835.0
834.0
834.0
833.0
834.0
837.0
842.0
841.0
841.0
841.0
840.0
834.0
836.0
837.0
838.0
837.0
836.0
840.0
843.0
848.0
845.0
842.0
836.0
837.0
838.0
837.0
835.0
834.0
832.0
835.0
837.0
840.0
838.0
836.0
833.0
833.0
834.0
833.0
831.0
830.0
827.0
829.0
833.0
833.0
834.0
836.0
831.0
828.0
827.0
829.0
828.0
825.0
822.0
821.0
823.0
826.0
828.0
826.0
820.0
814.0
814.0
812.0
816.0
813.0
812.0
811.0
807.0
809.0
809.0
811.0
810.0
806.0
803.0
803.0
805.0
805.0
805.0
805.0
808.0
811.0
815.0
812.0
806.0
806.0
807.0
806.0
806.0
806.0
802.0
803.0
809.0
812.0
812.0
813.0
812.0
811.0
813.0
811.0
812.0
812.0
813.0
815.0
819.0
827.0
831.0
829.0
829.0
831.0
836.0
837.0
839.0
839.0
835.0
837.0
841.0
842.0
843.0
839.0
831.0
824.0
821.0
818.0
816.0
813.0
808.0
807.0
806.0
805.0
802.0
795.0
788.0
781.0
772.0
773.0
770.0
769.0
764.0
762.0
761.0
761.0
763.0
760.0
754.0
751.0
743.0
743.0
744.0
743.0
742.0
742.0
740.0
735.0
726.0
719.0
704.0
693.0
691.0
699.0
718.0
743.0
776.0
816.0
858.0
901.0
939.0
970.0
999.0
1022.0
1044.0
1058.0
1064.0
1059.0
1050.0
1036.0
1021.0
992.0
948.0
875.0
803.0
744.0
703.0
691.0
689.0
696.0
706.0
712.0
713.0
710.0
701.0
688.0
677.0
666.0
661.0
658.0
662.0
662.0
658.0
655.0
660.0
662.0
664.0
659.0
658.0
657.0
656.0
656.0
651.0
650.0
647.0
646.0
650.0
652.0
654.0
651.0
646.0
646.0
646.0
647.0
643.0
638.0
644.0
648.0
651.0
648.0
648.0
646.0
645.0
645.0
643.0
641.0
640.0
636.0
642.0
646.0
647.0
644.0
645.0
645.0
645.0
642.0
643.0
637.0
636.0
637.0
637.0
643.0
640.0
637.0
637.0
636.0
639.0
641.0
637.0
634.0
629.0
630.0
633.0
637.0
637.0
636.0
636.0
631.0
634.0
634.0
633.0
630.0
628.0
625.0
627.0
630.0
629.0
628.0
632.0
630.0
629.0
631.0
631.0
625.0
621.0
621.0
622.0
625.0
626.0
628.0
626.0
625.0
627.0
628.0
629.0
622.0
618.0
620.0
620.0
622.0
622.0
620.0
622.0
623.0
623.0
621.0
612.0
612.0
609.0
608.0
608.0
612.0
611.0
607.0
608.0
609.0
607.0
607.0
602.0
599.0
600.0
602.0
603.0
607.0
607.0
605.0
608.0
610.0
605.0
602.0
604.0
601.0
603.0
607.0
611.0
612.0
610.0
611.0
614.0
618.0
620.0
614.0
613.0
611.0
614.0
613.0
619.0
623.0
626.0
625.0
621.0
625.0
629.0
629.0
629.0
626.0
631.0
635.0
642.0
648.0
650.0
651.0
654.0
657.0
655.0
654.0
650.0
648.0
649.0
648.0
645.0
648.0
645.0
645.0
643.0
644.0
646.0
637.0
630.0
628.0
624.0
625.0
623.0
623.0
618.0
620.0
620.0
621.0
621.0
620.0
620.0
613.0
614.0
615.0
617.0
620.0
622.0
620.0
621.0
622.0
621.0
618.0
613.0
602.0
596.0
588.0
584.0
586.0
593.0
603.0
624.0
645.0
681.0
718.0
750.0
785.0
822.0
858.0
893.0
935.0
963.0
978.0
982.0
980.0
968.0
958.0
943.0
922.0
888.0
838.0
775.0
714.0
674.0
645.0
632.0
627.0
635.0
646.0
650.0
656.0
649.0
637.0
623.0
620.0
620.0
617.0
618.0
615.0
617.0
614.0
616.0
616.0
615.0
614.0
614.0
614.0
619.0
623.0
627.0
624.0
622.0
619.0
622.0
622.0
623.0
623.0
617.0
624.0
626.0
632.0
633.0
632.0
632.0
627.0
628.0
627.0
629.0
630.0
628.0
630.0
629.0
635.0
639.0
638.0
636.0
635.0
635.0
636.0
639.0
638.0
638.0
641.0
643.0
645.0
652.0
653.0
652.0
649.0
646.0
648.0
650.0
653.0
656.0
653.0
655.0
656.0
658.0
661.0
662.0
656.0
657.0
659.0
657.0
658.0
660.0
661.0
661.0
666.0
668.0
669.0
667.0
666.0
664.0
665.0
664.0
664.0
664.0
663.0
664.0
666.0
669.0
670.0
669.0
666.0
663.0
663.0
666.0
663.0
667.0
669.0
669.0
667.0
668.0
670.0
672.0
671.0
666.0
665.0
668.0
666.0
668.0
669.0
666.0
666.0
669.0
669.0
670.0
664.0
663.0
658.0
658.0
659.0
663.0
665.0
664.0
660.0
662.0
662.0
664.0
661.0
656.0
654.0
652.0
654.0
657.0
659.0
653.0
654.0
657.0
659.0
660.0
659.0
659.0
655.0
653.0
656.0
660.0
662.0
664.0
664.0
666.0
666.0
668.0
667.0
668.0
663.0
662.0
663.0
669.0
674.0
674.0
678.0
681.0
684.0
686.0
682.0
685.0
686.0
693.0
700.0
707.0
707.0
712.0
711.0
719.0
723.0
724.0
721.0
719.0
718.0
717.0
717.0
715.0
713.0
710.0
709.0
714.0
716.0
716.0
712.0
704.0
698.0
696.0
695.0
692.0
694.0
690.0
686.0
688.0
694.0
692.0
690.0
687.0
684.0
679.0
683.0
686.0
688.0
689.0
686.0
689.0
691.0
692.0
690.0
689.0
683.0
674.0
667.0
662.0
659.0
657.0
666.0
682.0
709.0
749.0
792.0
836.0
881.0
926.0
967.0
1006.0
1033.0
1050.0
1056.0
1056.0
1050.0
1039.0
1018.0
994.0
955.0
901.0
839.0
781.0
734.0
711.0
703.0
711.0
724.0
733.0
738.0
727.0
716.0
709.0
703.0
697.0
690.0
692.0
692.0
699.0
699.0
702.0
697.0
697.0
697.0
699.0
701.0
704.0
703.0
702.0
700.0
706.0
710.0
709.0
705.0
704.0
701.0
704.0
705.0
708.0
707.0
704.0
708.0
712.0
718.0
720.0
717.0
714.0
714.0
711.0
714.0
715.0
716.0
717.0
719.0
718.0
723.0
723.0
723.0
719.0
720.0
722.0
723.0
721.0
722.0
725.0
729.0
733.0
735.0
732.0
731.0
731.0
730.0
734.0
733.0
733.0
729.0
733.0
736.0
741.0
743.0
743.0
740.0
741.0
741.0
743.0
741.0
741.0
742.0
742.0
746.0
751.0
751.0
749.0
748.0
744.0
746.0
747.0
747.0
747.0
747.0
744.0
751.0
752.0
753.0
751.0
750.0
746.0
745.0
746.0
747.0
747.0
745.0
749.0
751.0
754.0
758.0
756.0
753.0
750.0
749.0
749.0
751.0
747.0
745.0
749.0
751.0
750.0
750.0
748.0
743.0
745.0
746.0
744.0
743.0
740.0
742.0
742.0
748.0
748.0
746.0
741.0
743.0
746.0
745.0
745.0
744.0
744.0
746.0
748.0
752.0
754.0
755.0
754.0
756.0
753.0
756.0
756.0
754.0
752.0
753.0
760.0
764.0
766.0
770.0
770.0
768.0
772.0
773.0
772.0
773.0
773.0
775.0
783.0
791.0
798.0
799.0
801.0
803.0
806.0
813.0
811.0
812.0
808.0
805.0
808.0
813.0
817.0
814.0
812.0
807.0
806.0
805.0
805.0
803.0
801.0
796.0
797.0
794.0
789.0
787.0
784.0
782.0
777.0
775.0
774.0
772.0
770.0
771.0
772.0
778.0
778.0
779.0
771.0
772.0
777.0
778.0
780.0
776.0
773.0
771.0
767.0
765.0
757.0
751.0
746.0
745.0
757.0
783.0
813.0
847.0
886.0
928.0
974.0
1014.0
1055.0
1090.0
1119.0
1135.0
1144.0
1150.0
1145.0
1135.0
1118.0
1095.0
1057.0
1008.0
947.0
884.0
833.0
803.0
795.0
801.0
809.0
819.0
821.0
813.0
808.0
803.0
795.0
787.0
781.0
779.0
778.0
780.0
780.0
777.0
775.0
772.0
780.0
783.0
788.0
783.0
784.0
781.0
782.0
783.0
782.0
783.0
782.0
787.0
790.0
791.0
791.0
791.0
791.0
791.0
793.0
792.0
790.0
788.0
789.0
794.0
796.0
798.0
798.0
799.0
798.0
797.0
799.0
799.0
797.0
797.0
798.0
806.0
808.0
804.0
804.0
805.0
809.0
811.0
813.0
813.0
811.0
809.0
808.0
813.0
816.0
820.0
822.0
822.0
817.0
821.0
819.0
822.0
818.0
818.0
816.0
820.0
825.0
827.0
828.0
830.0
828.0
829.0
828.0
828.0
827.0
825.0
824.0
823.0
826.0
832.0
828.0
834.0
829.0
827.0
824.0
828.0
827.0
823.0
823.0
821.0
828.0
827.0
831.0
829.0
826.0
824.0
826.0
829.0
828.0
828.0
824.0
822.0
831.0
832.0
832.0
826.0
822.0
826.0
824.0
826.0
825.0
819.0
817.0
820.0
822.0
823.0
822.0
821.0
818.0
817.0
816.0
816.0
813.0
813.0
814.0
814.0
821.0
824.0
821.0
821.0
818.0
823.0
822.0
823.0
816.0
818.0
819.0
822.0
829.0
831.0
832.0
827.0
832.0
837.0
838.0
838.0
833.0
833.0
837.0
836.0
843.0
843.0
850.0
851.0
851.0
862.0
866.0
869.0
869.0
872.0
877.0
878.0
880.0
880.0
882.0
883.0
883.0
882.0
878.0
875.0
869.0
867.0
868.0
871.0
871.0
867.0
864.0
860.0
856.0
854.0
850.0
845.0
840.0
839.0
841.0
841.0
842.0
840.0
840.0
842.0
845.0
846.0
841.0
839.0
837.0
838.0
839.0
842.0
841.0
837.0
832.0
830.0
822.0
817.0
805.0
804.0
809.0
826.0
850.0
889.0
938.0
978.0
1019.0
1057.0
1095.0
1132.0
1162.0
1182.0
1193.0
1198.0
1203.0
1204.0
1200.0
1188.0
1162.0
1129.0
1077.0
1010.0
947.0
893.0
862.0
847.0
853.0
869.0
882.0
887.0
881.0
872.0
861.0
854.0
842.0
836.0
831.0
834.0
837.0
843.0
843.0
841.0
843.0
841.0
844.0
846.0
846.0
843.0
841.0
841.0
841.0
845.0
845.0
844.0
843.0
841.0
847.0
845.0
846.0
842.0
838.0
839.0
843.0
848.0
849.0
851.0
850.0
850.0
850.0
850.0
851.0
851.0
845.0
842.0
846.0
849.0
852.0
856.0
855.0
857.0
859.0
855.0
859.0
855.0
853.0
852.0
855.0
862.0
867.0
866.0
865.0
868.0
867.0
870.0
871.0
871.0
866.0
864.0
865.0
867.0
874.0
873.0
874.0
871.0
874.0
876.0
876.0
875.0
873.0
871.0
873.0
876.0
878.0
877.0
876.0
878.0
881.0
881.0
880.0
875.0
873.0
867.0
870.0
869.0
876.0
876.0
875.0
876.0
877.0
879.0
878.0
875.0
871.0
871.0
872.0
877.0
878.0
880.0
876.0
875.0
876.0
877.0
877.0
876.0
868.0
868.0
869.0
872.0
874.0
876.0
873.0
870.0
870.0
870.0
870.0
867.0
863.0
859.0
858.0
864.0
868.0
867.0
869.0
864.0
865.0
867.0
868.0
865.0
862.0
861.0
861.0
864.0
869.0
871.0
872.0
870.0
870.0
873.0
871.0
870.0
866.0
872.0
874.0
881.0
884.0
885.0
884.0
885.0
887.0
889.0
892.0
893.0
893.0
894.0
896.0
904.0
911.0
916.0
916.0
919.0
919.0
920.0
922.0
921.0
917.0
915.0
914.0
915.0
917.0
915.0
912.0
911.0
908.0
907.0
909.0
909.0
900.0
896.0
889.0
885.0
886.0
885.0
885.0
888.0
879.0
878.0
878.0
876.0
876.0
870.0
871.0
867.0
872.0
878.0
881.0
880.0
873.0
875.0
873.0
872.0
870.0
864.0
852.0
841.0
835.0
836.0
844.0
855.0
876.0
908.0
947.0
992.0
1041.0
1078.0
1115.0
1151.0
1184.0
1208.0
1223.0
1232.0
1228.0
1221.0
1215.0
1202.0
1183.0
1154.0
1105.0
1045.0
983.0
935.0
902.0
890.0
886.0
892.0
901.0
903.0
903.0
898.0
887.0
876.0
870.0
865.0
867.0
866.0
863.0
863.0
858.0
860.0
862.0
863.0
862.0
863.0
861.0
865.0
868.0
874.0
875.0
872.0
867.0
865.0
866.0
866.0
866.0
867.0
865.0
864.0
870.0
875.0
874.0
875.0
872.0
867.0
864.0
867.0
865.0
865.0
870.0
870.0
870.0
873.0
872.0
873.0
871.0
866.0
869.0
873.0
873.0
873.0
871.0
874.0
878.0
884.0
884.0
880.0
879.0
877.0
877.0
878.0
880.0
882.0
881.0
881.0
882.0
884.0
888.0
887.0
887.0
885.0
883.0
885.0
885.0
888.0
887.0
889.0
890.0
892.0
893.0
892.0
893.0
890.0
889.0
888.0
888.0
890.0
892.0
892.0
891.0
887.0
891.0
893.0
890.0
887.0
887.0
881.0
882.0
884.0
890.0
892.0
888.0
889.0
886.0
888.0
891.0
888.0
885.0
887.0
882.0
886.0
891.0
890.0
891.0
889.0
887.0
886.0
888.0
885.0
883.0
878.0
879.0
881.0
883.0
879.0
879.0
879.0
878.0
879.0
877.0
874.0
870.0
871.0
869.0
872.0
873.0
876.0
877.0
874.0
876.0
878.0
882.0
879.0
875.0
876.0
876.0
876.0
881.0
881.0
879.0
880.0
881.0
885.0
883.0
884.0
883.0
879.0
878.0
884.0
889.0
895.0
898.0
895.0
893.0
893.0
894.0
895.0
897.0
896.0
898.0
905.0
911.0
918.0
923.0
925.0
924.0
923.0
929.0
929.0
931.0
927.0
924.0
922.0
921.0
926.0
928.0
927.0
920.0
916.0
911.0
912.0
914.0
912.0
904.0
901.0
897.0
897.0
894.0
890.0
887.0
886.0
886.0
885.0
880.0
879.0
875.0
876.0
882.0
887.0
884.0
882.0
882.0
883.0
877.0
880.0
878.0
872.0
862.0
858.0
850.0
845.0
849.0
856.0
876.0
911.0
950.0
989.0
1026.0
1057.0
1092.0
1126.0
1158.0
1189.0
1213.0
1226.0
1229.0
1227.0
1223.0
1206.0
1188.0
1158.0
1107.0
1047.0
984.0
934.0
900.0
888.0
887.0
900.0
911.0
916.0
909.0
900.0
889.0
882.0
880.0
876.0
873.0
870.0
871.0
875.0
875.0
877.0
873.0
872.0
871.0
873.0
874.0
876.0
875.0
880.0
878.0
879.0
879.0
873.0
872.0
873.0
874.0
877.0
877.0
877.0
878.0
878.0
879.0
880.0
879.0
874.0
877.0
876.0
878.0
878.0
880.0
880.0
881.0
883.0
889.0
890.0
887.0
885.0
880.0
882.0
883.0
889.0
888.0
891.0
887.0
891.0
891.0
899.0
895.0
892.0
890.0
890.0
893.0
897.0
897.0
898.0
897.0
897.0
898.0
897.0
902.0
900.0
896.0
895.0
890.0
895.0
894.0
901.0
899.0
904.0
901.0
900.0
902.0
904.0
900.0
898.0
897.0
897.0
899.0
901.0
898.0
902.0
902.0
904.0
897.0
895.0
891.0
895.0
893.0
894.0
896.0
895.0
896.0
898.0
900.0
899.0
894.0
890.0
887.0
887.0
887.0
889.0
888.0
885.0
885.0
887.0
891.0
888.0
884.0
880.0
879.0
881.0
883.0
883.0
879.0
879.0
879.0
883.0
885.0
884.0
878.0
876.0
876.0
878.0
878.0
877.0
880.0
881.0
881.0
886.0
886.0
888.0
883.0
882.0
882.0
882.0
886.0
887.0
888.0
887.0
889.0
891.0
895.0
895.0
894.0
889.0
892.0
894.0
896.0
894.0
898.0
900.0
907.0
913.0
920.0
921.0
923.0
925.0
930.0
934.0
936.0
931.0
931.0
933.0
937.0
939.0
940.0
938.0
927.0
922.0
921.0
924.0
922.0
920.0
919.0
920.0
916.0
916.0
912.0
905.0
895.0
891.0
893.0
891.0
889.0
890.0
886.0
887.0
885.0
890.0
890.0
887.0
885.0
879.0
883.0
883.0
885.0
885.0
884.0
882.0
876.0
878.0
871.0
866.0
852.0
843.0
844.0
861.0
882.0
910.0
943.0
980.0
1020.0
1060.0
1098.0
1131.0
1163.0
1190.0
1210.0
1224.0
1228.0
1231.0
1224.0
1209.0
1188.0
1159.0
1106.0
1037.0
972.0
920.0
894.0
888.0
897.0
908.0
915.0
917.0
916.0
909.0
904.0
893.0
880.0
875.0
871.0
872.0
873.0
876.0
875.0
876.0
877.0
881.0
883.0
882.0
885.0
882.0
878.0
880.0
882.0
885.0
881.0
881.0
882.0
885.0
888.0
889.0
888.0
883.0
881.0
882.0
886.0
890.0
888.0
885.0
888.0
888.0
891.0
891.0
887.0
883.0
881.0
878.0
886.0
888.0
893.0
895.0
895.0
893.0
894.0
899.0
899.0
898.0
893.0
892.0
894.0
897.0
903.0
901.0
902.0
900.0
905.0
905.0
903.0
901.0
898.0
901.0
905.0
905.0
903.0
904.0
906.0
905.0
910.0
908.0
905.0
904.0
906.0
906.0
910.0
907.0
909.0
907.0
908.0
910.0
914.0
914.0
909.0
906.0
903.0
904.0
905.0
906.0
905.0
903.0
901.0
907.0
909.0
908.0
904.0
903.0
898.0
899.0
898.0
903.0
901.0
901.0
897.0
898.0
903.0
904.0
899.0
896.0
893.0
891.0
889.0
893.0
892.0
892.0
887.0
889.0
889.0
887.0
887.0
884.0
882.0
882.0
880.0
882.0
880.0
880.0
881.0
884.0
887.0
886.0
883.0
881.0
879.0
887.0
886.0
886.0
885.0
888.0
892.0
895.0
897.0
893.0
891.0
888.0
890.0
890.0
892.0
891.0
890.0
892.0
895.0
901.0
901.0
900.0
901.0
899.0
900.0
904.0
900.0
907.0
910.0
915.0
925.0
933.0
937.0
938.0
937.0
937.0
937.0
937.0
941.0
940.0
937.0
937.0
937.0
938.0
940.0
937.0
931.0
928.0
926.0
926.0
925.0
922.0
916.0
914.0
908.0
906.0
908.0
906.0
898.0
889.0
890.0
887.0
887.0
885.0
885.0
887.0
888.0
891.0
893.0
889.0
887.0
888.0
885.0
885.0
881.0
877.0
868.0
863.0
856.0
850.0
851.0
865.0
882.0
908.0
944.0
983.0
1021.0
1054.0
1090.0
1123.0
1157.0
1190.0
1212.0
1224.0
1227.0
1226.0
1220.0
1208.0
1194.0
1167.0
1125.0
1070.0
1012.0
960.0
924.0
901.0
893.0
899.0
911.0
918.0
919.0
912.0
901.0
892.0
886.0
881.0
879.0
874.0
873.0
870.0
872.0
874.0
872.0
873.0
873.0
873.0
877.0
882.0
884.0
879.0
873.0
875.0
876.0
875.0
874.0
872.0
873.0
876.0
879.0
880.0
882.0
881.0
878.0
882.0
879.0
880.0
875.0
876.0
877.0
882.0
888.0
890.0
889.0
885.0
885.0
887.0
890.0
888.0
888.0
886.0
885.0
887.0
895.0
895.0
896.0
894.0
894.0
891.0
896.0
896.0
894.0
893.0
895.0
897.0
904.0
903.0
901.0
901.0
899.0
901.0
900.0
902.0
900.0
897.0
898.0
901.0
905.0
906.0
906.0
905.0
904.0
902.0
903.0
901.0
895.0
897.0
897.0
900.0
902.0
902.0
901.0
896.0
896.0
898.0
897.0
893.0
891.0
894.0
891.0
895.0
899.0
899.0
896.0
897.0
896.0
896.0
893.0
891.0
887.0
888.0
892.0
894.0
892.0
888.0
889.0
890.0
891.0
890.0
889.0
879.0
871.0
873.0
880.0
883.0
883.0
883.0
881.0
881.0
881.0
882.0
879.0
874.0
873.0
870.0
872.0
878.0
880.0
881.0
879.0
876.0
878.0
878.0
880.0
883.0
880.0
880.0
875.0
883.0
888.0
889.0
888.0
888.0
885.0
884.0
886.0
886.0
884.0
883.0
882.0
885.0
888.0
895.0
900.0
901.0
896.0
893.0
895.0
899.0
901.0
905.0
904.0
908.0
919.0
923.0
933.0
930.0
931.0
933.0
933.0
931.0
931.0
923.0
929.0
932.0
929.0
931.0
933.0
925.0
920.0
917.0
917.0
915.0
918.0
910.0
903.0
898.0
895.0
897.0
895.0
896.0
886.0
883.0
882.0
882.0
882.0
876.0
874.0
876.0
882.0
882.0
881.0
882.0
883.0
878.0
875.0
877.0
877.0
875.0
865.0
857.0
847.0
842.0
841.0
841.0
848.0
860.0
884.0
917.0
958.0
1001.0
1038.0
1079.0
1114.0
1149.0
1182.0
1208.0
1221.0
1225.0
1223.0
1219.0
1211.0
1205.0
1189.0
1165.0
1124.0
1068.0
1012.0
958.0
921.0
898.0
889.0
893.0
904.0
910.0
908.0
906.0
893.0
885.0
880.0
875.0
871.0
866.0
862.0
860.0
863.0
865.0
871.0
868.0
866.0
866.0
867.0
868.0
869.0
871.0
872.0
867.0
865.0
866.0
869.0
869.0
871.0
871.0
875.0
871.0
876.0
873.0
874.0
871.0
868.0
867.0
870.0
876.0
878.0
880.0
877.0
874.0
874.0
876.0
877.0
877.0
875.0
871.0
872.0
879.0
883.0
884.0
885.0
878.0
876.0
881.0
883.0
885.0
882.0
878.0
880.0
880.0
885.0
893.0
893.0
891.0
889.0
887.0
888.0
891.0
893.0
890.0
890.0
893.0
897.0
899.0
901.0
899.0
895.0
896.0
897.0
898.0
896.0
895.0
893.0
894.0
899.0
899.0
901.0
897.0
892.0
892.0
894.0
890.0
892.0
889.0
886.0
885.0
890.0
891.0
889.0
888.0
889.0
887.0
890.0
889.0
891.0
885.0
883.0
884.0
885.0
888.0
890.0
886.0
880.0
884.0
881.0
881.0
881.0
878.0
876.0
874.0
880.0
883.0
885.0
880.0
877.0
871.0
869.0
867.0
870.0
867.0
867.0
868.0
870.0
873.0
877.0
874.0
872.0
866.0
869.0
870.0
872.0
873.0
869.0
870.0
873.0
876.0
878.0
878.0
875.0
872.0
876.0
875.0
875.0
874.0
873.0
875.0
881.0
882.0
883.0
880.0
876.0
879.0
880.0
881.0
887.0
883.0
880.0
888.0
890.0
895.0
897.0
900.0
901.0
906.0
911.0
915.0
922.0
920.0
919.0
922.0
923.0
930.0
927.0
928.0
923.0
920.0
919.0
918.0
917.0
915.0
909.0
908.0
908.0
912.0
912.0
904.0
894.0
890.0
887.0
887.0
886.0
882.0
876.0
877.0
879.0
880.0
881.0
877.0
875.0
874.0
876.0
871.0
874.0
870.0
868.0
869.0
873.0
870.0
871.0
860.0
849.0
840.0
833.0
837.0
850.0
873.0
911.0
956.0
1006.0
1051.0
1094.0
1131.0
1166.0
1193.0
1212.0
1218.0
1221.0
1218.0
1211.0
1198.0
1180.0
1144.0
1090.0
1029.0
972.0
928.0
899.0
887.0
885.0
894.0
906.0
913.0
914.0
908.0
893.0
881.0
874.0
866.0
862.0
861.0
861.0
857.0
855.0
861.0
866.0
868.0
869.0
865.0
866.0
868.0
865.0
866.0
863.0
859.0
858.0
861.0
866.0
869.0
869.0
869.0
864.0
867.0
869.0
869.0
864.0
861.0
861.0
862.0
866.0
869.0
872.0
870.0
869.0
871.0
871.0
871.0
869.0
865.0
867.0
873.0
872.0
876.0
874.0
875.0
875.0
880.0
877.0
877.0
874.0
872.0
876.0
880.0
885.0
885.0
885.0
880.0
883.0
883.0
885.0
885.0
886.0
882.0
885.0
889.0
895.0
893.0
893.0
894.0
893.0
895.0
892.0
892.0
891.0
886.0
885.0
891.0
895.0
895.0
891.0
890.0
888.0
891.0
891.0
891.0
887.0
884.0
886.0
889.0
894.0
891.0
891.0
886.0
888.0
888.0
885.0
885.0
882.0
879.0
878.0
881.0
884.0
890.0
891.0
888.0
888.0
888.0
883.0
883.0
879.0
876.0
875.0
879.0
880.0
882.0
880.0
879.0
879.0
881.0
876.0
871.0
867.0
866.0
869.0
874.0
871.0
872.0
868.0
868.0
867.0
870.0
869.0
870.0
867.0
868.0
873.0
877.0
878.0
877.0
874.0
871.0
869.0
872.0
875.0
875.0
871.0
869.0
870.0
874.0
880.0
881.0
886.0
884.0
884.0
883.0
885.0
886.0
882.0
882.0
883.0
887.0
893.0
897.0
