# Simple Text Format
# Sampling Rate (Hz):= 360.00
# Resolution:= 12
# Labels:= ECG
796.0
786.0
779.0
773.0
766.0
762.0
765.0
768.0
770.0
771.0
766.0
770.0
767.0
770.0
774.0
773.0
769.0
764.0
767.0
770.0
774.0
776.0
774.0
773.0
771.0
773.0
773.0
773.0
771.0
768.0
770.0
774.0
778.0
779.0
774.0
774.0
776.0
780.0
780.0
781.0
778.0
773.0
775.0
779.0
782.0
782.0
787.0
784.0
786.0
787.0
787.0
782.0
779.0
784.0
788.0
786.0
788.0
788.0
793.0
792.0
795.0
791.0
788.0
789.0
786.0
787.0
790.0
794.0
793.0
795.0
791.0
792.0
797.0
799.0
797.0
797.0
796.0
794.0
798.0
800.0
801.0
798.0
795.0
797.0
797.0
799.0
797.0
792.0
792.0
790.0
790.0
791.0
793.0
796.0
795.0
793.0
792.0
795.0
793.0
792.0
786.0
783.0
785.0
789.0
791.0
794.0
790.0
790.0
788.0
792.0
792.0
789.0
786.0
780.0
777.0
783.0
784.0
785.0
781.0
779.0
782.0
780.0
778.0
773.0
771.0
769.0
771.0
774.0
771.0
775.0
771.0
772.0
771.0
772.0
776.0
772.0
769.0
769.0
772.0
774.0
779.0
774.0
778.0
780.0
779.0
780.0
781.0
775.0
773.0
772.0
778.0
781.0
783.0
783.0
781.0
781.0
782.0
784.0
779.0
782.0
777.0
779.0
778.0
785.0
787.0
784.0
788.0
790.0
789.0
796.0
797.0
792.0
790.0
789.0
797.0
804.0
811.0
814.0
821.0
824.0
827.0
830.0
829.0
826.0
824.0
820.0
823.0
827.0
828.0
826.0
824.0
824.0
823.0
820.0
819.0
811.0
808.0
804.0
803.0
798.0
793.0
792.0
793.0
794.0
791.0
788.0
778.0
776.0
774.0
777.0
779.0
778.0
776.0
779.0
777.0
780.0
784.0
781.0
778.0
776.0
770.0
772.0
769.0
759.0
747.0
740.0
742.0
749.0
768.0
789.0
822.0
860.0
902.0
944.0
987.0
1022.0
1054.0
1083.0
1109.0
1127.0
1135.0
1133.0
1122.0
1108.0
1095.0
1072.0
1032.0
978.0
914.0
858.0
821.0
800.0
798.0
802.0
807.0
814.0
814.0
809.0
796.0
788.0
779.0
775.0
775.0
775.0
775.0
771.0
767.0
765.0
767.0
766.0
768.0
766.0
769.0
774.0
781.0
781.0
776.0
774.0
772.0
776.0
771.0
774.0
771.0
769.0
775.0
776.0
780.0
782.0
779.0
776.0
772.0
772.0
778.0
781.0
781.0
779.0
777.0
779.0
785.0
786.0
783.0
781.0
777.0
777.0
783.0
784.0
781.0
782.0
784.0
787.0
793.0
797.0
795.0
795.0
791.0
791.0
794.0
794.0
792.0
791.0
794.0
795.0
800.0
800.0
802.0
799.0
792.0
795.0
797.0
798.0
800.0
799.0
796.0
800.0
801.0
806.0
806.0
800.0
800.0
800.0
799.0
801.0
798.0
793.0
800.0
801.0
801.0
803.0
797.0
796.0
790.0
795.0
796.0
798.0
795.0
794.0
796.0
798.0
802.0
802.0
801.0
796.0
795.0
796.0
794.0
794.0
790.0
789.0
789.0
789.0
794.0
793.0
788.0
783.0
783.0
785.0
787.0
784.0
782.0
778.0
780.0
783.0
786.0
784.0
781.0
778.0
776.0
780.0
777.0
778.0
775.0
780.0
782.0
785.0
786.0
786.0
783.0
784.0
787.0
789.0
786.0
784.0
779.0
783.0
788.0
791.0
792.0
791.0
790.0
790.0
792.0
791.0
788.0
788.0
790.0
793.0
795.0
796.0
795.0
799.0
803.0
807.0
806.0
801.0
801.0
800.0
807.0
811.0
816.0
821.0
824.0
827.0
832.0
841.0
845.0
844.0
841.0
835.0
832.0
833.0
835.0
840.0
838.0
833.0
832.0
836.0
831.0
828.0
827.0
821.0
819.0
820.0
823.0
822.0
819.0
812.0
803.0
802.0
801.0
805.0
800.0
792.0
790.0
789.0
795.0
796.0
796.0
792.0
793.0
793.0
795.0
800.0
800.0
794.0
788.0
786.0
787.0
789.0
783.0
777.0
764.0
751.0
750.0
756.0
773.0
796.0
828.0
868.0
915.0
960.0
1001.0
1033.0
1066.0
1094.0
1119.0
1141.0
1142.0
1141.0
1137.0
1122.0
1108.0
1087.0
1051.0
1000.0
938.0
880.0
837.0
818.0
813.0
812.0
820.0
825.0
829.0
827.0
820.0
810.0
796.0
787.0
782.0
780.0
780.0
777.0
773.0
774.0
774.0
780.0
786.0
783.0
787.0
784.0
785.0
784.0
785.0
783.0
781.0
775.0
782.0
786.0
792.0
790.0
789.0
784.0
780.0
782.0
783.0
783.0
782.0
779.0
780.0
785.0
789.0
792.0
791.0
787.0
787.0
789.0
790.0
790.0
789.0
787.0
788.0
789.0
791.0
796.0
794.0
792.0
791.0
795.0
795.0
798.0
796.0
797.0
795.0
800.0
805.0
808.0
810.0
807.0
800.0
800.0
802.0
806.0
809.0
808.0
805.0
805.0
807.0
810.0
815.0
816.0
810.0
805.0
803.0
803.0
810.0
811.0
812.0
809.0
816.0
817.0
817.0
816.0
812.0
810.0
806.0
806.0
807.0
812.0
810.0
809.0
806.0
809.0
812.0
814.0
810.0
807.0
803.0
799.0
803.0
805.0
810.0
812.0
811.0
808.0
808.0
808.0
811.0
810.0
803.0
801.0
801.0
804.0
806.0
806.0
804.0
807.0
805.0
806.0
803.0
801.0
793.0
790.0
794.0
797.0
799.0
793.0
795.0
793.0
794.0
795.0
795.0
794.0
790.0
788.0
791.0
794.0
800.0
799.0
796.0
794.0
794.0
795.0
798.0
798.0
793.0
788.0
792.0
796.0
800.0
806.0
803.0
801.0
800.0
801.0
804.0
804.0
801.0
799.0
800.0
801.0
806.0
812.0
814.0
817.0
814.0
813.0
814.0
815.0
815.0
814.0
814.0
815.0
822.0
833.0
839.0
843.0
843.0
844.0
844.0
846.0
848.0
849.0
851.0
849.0
850.0
852.0
854.0
854.0
849.0
843.0
838.0
838.0
837.0
836.0
831.0
824.0
825.0
824.0
821.0
817.0
807.0
809.0
807.0
806.0
805.0
801.0
799.0
798.0
798.0
806.0
808.0
807.0
803.0
800.0
800.0
799.0
803.0
798.0
795.0
787.0
786.0
784.0
774.0
764.0
759.0
756.0
767.0
788.0
817.0
852.0
889.0
929.0
972.0
1012.0
1047.0
1084.0
1112.0
1129.0
1139.0
1145.0
1145.0
1135.0
1120.0
1103.0
1075.0
1033.0
974.0
917.0
862.0
826.0
809.0
812.0
822.0
829.0
832.0
828.0
822.0
815.0
811.0
802.0
792.0
783.0
785.0
786.0
785.0
781.0
780.0
778.0
784.0
791.0
789.0
791.0
791.0
789.0
792.0
791.0
787.0
784.0
782.0
786.0
792.0
794.0
793.0
793.0
790.0
791.0
794.0
792.0
791.0
790.0
789.0
791.0
794.0
794.0
793.0
793.0
794.0
795.0
798.0
796.0
794.0
793.0
790.0
793.0
800.0
801.0
804.0
804.0
801.0
804.0
805.0
807.0
806.0
802.0
801.0
804.0
809.0
812.0
814.0
813.0
811.0
812.0
810.0
810.0
811.0
808.0
803.0
809.0
814.0
817.0
816.0
819.0
814.0
811.0
814.0
814.0
812.0
809.0
808.0
812.0
812.0
812.0
812.0
810.0
811.0
813.0
812.0
810.0
808.0
806.0
807.0
809.0
814.0
814.0
812.0
810.0
808.0
806.0
809.0
807.0
804.0
804.0
801.0
803.0
806.0
808.0
805.0
804.0
803.0
805.0
805.0
802.0
795.0
793.0
792.0
794.0
795.0
794.0
793.0
792.0
790.0
790.0
794.0
788.0
785.0
784.0
787.0
788.0
791.0
794.0
792.0
793.0
793.0
794.0
797.0
794.0
790.0
790.0
792.0
793.0
797.0
796.0
795.0
795.0
797.0
800.0
800.0
797.0
793.0
793.0
795.0
795.0
799.0
800.0
800.0
803.0
806.0
803.0
806.0
803.0
803.0
806.0
808.0
806.0
806.0
809.0
812.0
821.0
828.0
831.0
833.0
834.0
837.0
840.0
840.0
843.0
845.0
841.0
844.0
848.0
848.0
844.0
835.0
831.0
830.0
833.0
830.0
828.0
826.0
826.0
820.0
819.0
814.0
808.0
804.0
797.0
792.0
795.0
797.0
788.0
786.0
793.0
792.0
793.0
796.0
790.0
787.0
787.0
790.0
790.0
793.0
793.0
791.0
787.0
785.0
783.0
776.0
766.0
753.0
747.0
754.0
776.0
806.0
843.0
889.0
939.0
982.0
1027.0
1063.0
1095.0
1119.0
1134.0
1140.0
1146.0
1134.0
1124.0
1107.0
1091.0
1061.0
1024.0
961.0
901.0
848.0
814.0
796.0
799.0
805.0
810.0
820.0
821.0
814.0
813.0
803.0
790.0
784.0
776.0
773.0
777.0
779.0
782.0
778.0
779.0
778.0
781.0
786.0
788.0
783.0
779.0
780.0
778.0
784.0
783.0
783.0
783.0
781.0
786.0
785.0
789.0
789.0
783.0
776.0
781.0
781.0
786.0
788.0
789.0
787.0
785.0
787.0
789.0
790.0
786.0
785.0
785.0
784.0
786.0
789.0
791.0
792.0
796.0
797.0
801.0
798.0
795.0
796.0
796.0
800.0
799.0
798.0
798.0
802.0
804.0
806.0
807.0
806.0
801.0
797.0
799.0
799.0
800.0
803.0
803.0
807.0
808.0
812.0
811.0
807.0
806.0
804.0
806.0
805.0
808.0
810.0
806.0
810.0
813.0
813.0
809.0
809.0
806.0
801.0
803.0
802.0
805.0
803.0
805.0
801.0
806.0
809.0
808.0
805.0
801.0
793.0
798.0
801.0
804.0
804.0
803.0
801.0
803.0
805.0
805.0
803.0
798.0
792.0
788.0
789.0
792.0
794.0
791.0
788.0
791.0
792.0
793.0
791.0
785.0
780.0
781.0
781.0
782.0
782.0
782.0
781.0
783.0
786.0
782.0
784.0
779.0
774.0
775.0
778.0
780.0
781.0
781.0
780.0
782.0
785.0
787.0
790.0
788.0
782.0
785.0
786.0
787.0
791.0
790.0
785.0
790.0
792.0
795.0
795.0
790.0
785.0
783.0
783.0
787.0
793.0
798.0
795.0
795.0
794.0
801.0
802.0
803.0
800.0
801.0
800.0
806.0
814.0
822.0
820.0
826.0
830.0
833.0
839.0
840.0
837.0
832.0
828.0
832.0
836.0
837.0
836.0
833.0
835.0
828.0
829.0
823.0
820.0
816.0
816.0
811.0
806.0
799.0
799.0
798.0
801.0
798.0
796.0
793.0
787.0
787.0
788.0
786.0
788.0
787.0
787.0
788.0
793.0
795.0
792.0
785.0
783.0
782.0
778.0
772.0
759.0
750.0
742.0
749.0
769.0
788.0
813.0
846.0
881.0
928.0
967.0
1002.0
1039.0
1075.0
1104.0
1125.0
1137.0
1142.0
1135.0
1122.0
1107.0
1088.0
1063.0
1018.0
954.0
893.0
843.0
816.0
803.0
804.0
807.0
814.0
817.0
816.0
809.0
802.0
791.0
784.0
776.0
776.0
779.0
777.0
776.0
776.0
778.0
775.0
775.0
777.0
776.0
780.0
785.0
789.0
785.0
781.0
780.0
779.0
781.0
780.0
778.0
779.0
780.0
780.0
785.0
788.0
785.0
782.0
783.0
785.0
787.0
784.0
782.0
780.0
780.0
786.0
790.0
793.0
795.0
793.0
788.0
792.0
793.0
792.0
790.0
788.0
790.0
795.0
798.0
802.0
800.0
799.0
795.0
798.0
801.0
797.0
795.0
799.0
802.0
805.0
807.0
808.0
807.0
807.0
805.0
807.0
806.0
802.0
803.0
804.0
808.0
811.0
811.0
811.0
810.0
810.0
809.0
808.0
803.0
798.0
796.0
801.0
806.0
806.0
805.0
805.0
805.0
805.0
810.0
805.0
801.0
797.0
796.0
799.0
802.0
805.0
804.0
802.0
804.0
806.0
804.0
802.0
798.0
792.0
793.0
794.0
795.0
796.0
795.0
788.0
791.0
794.0
792.0
792.0
788.0
784.0
783.0
782.0
787.0
786.0
786.0
785.0
781.0
784.0
784.0
783.0
781.0
777.0
777.0
781.0
786.0
786.0
790.0
789.0
784.0
786.0
790.0
791.0
789.0
784.0
785.0
789.0
791.0
796.0
797.0
796.0
793.0
795.0
796.0
793.0
793.0
792.0
790.0
793.0
796.0
799.0
798.0
800.0
802.0
803.0
808.0
807.0
804.0
802.0
804.0
806.0
810.0
819.0
823.0
828.0
829.0
831.0
841.0
840.0
841.0
838.0
839.0
840.0
839.0
847.0
847.0
841.0
837.0
836.0
837.0
832.0
833.0
823.0
819.0
820.0
822.0
822.0
818.0
813.0
807.0
805.0
801.0
798.0
797.0
787.0
789.0
792.0
793.0
795.0
796.0
792.0
789.0
789.0
792.0
793.0
795.0
790.0
787.0
788.0
787.0
785.0
779.0
769.0
759.0
757.0
764.0
776.0
799.0
827.0
863.0
908.0
949.0
988.0
1026.0
1057.0
1085.0
1115.0
1133.0
1144.0
1142.0
1137.0
1126.0
1119.0
1109.0
1093.0
1063.0
1011.0
951.0
890.0
846.0
820.0
809.0
805.0
809.0
821.0
826.0
826.0
822.0
810.0
797.0
791.0
782.0
784.0
786.0
783.0
777.0
775.0
774.0
778.0
783.0
785.0
784.0
783.0
785.0
787.0
787.0
790.0
787.0
785.0
783.0
786.0
792.0
795.0
793.0
791.0
789.0
786.0
787.0
788.0
787.0
787.0
786.0
784.0
785.0
791.0
793.0
793.0
792.0
789.0
790.0
795.0
793.0
793.0
790.0
794.0
796.0
801.0
801.0
801.0
797.0
797.0
792.0
796.0
803.0
803.0
800.0
798.0
799.0
803.0
808.0
810.0
808.0
806.0
804.0
804.0
807.0
808.0
807.0
809.0
807.0
813.0
815.0
816.0
814.0
809.0
807.0
810.0
806.0
810.0
807.0
810.0
812.0
810.0
814.0
816.0
817.0
813.0
804.0
803.0
806.0
809.0
813.0
810.0
809.0
808.0
813.0
813.0
815.0
810.0
808.0
802.0
803.0
804.0
808.0
809.0
807.0
807.0
807.0
809.0
808.0
809.0
805.0
798.0
803.0
803.0
801.0
802.0
801.0
797.0
804.0
804.0
801.0
796.0
792.0
789.0
789.0
792.0
795.0
794.0
791.0
790.0
792.0
792.0
792.0
787.0
784.0
783.0
789.0
791.0
791.0
793.0
794.0
794.0
796.0
798.0
798.0
796.0
792.0
790.0
791.0
795.0
796.0
797.0
794.0
794.0
798.0
801.0
799.0
794.0
794.0
793.0
794.0
797.0
797.0
796.0
799.0
802.0
806.0
812.0
813.0
808.0
806.0
803.0
804.0
813.0
816.0
820.0
819.0
826.0
832.0
839.0
843.0
842.0
842.0
843.0
843.0
846.0
843.0
840.0
841.0
843.0
845.0
843.0
835.0
830.0
829.0
830.0
828.0
822.0
820.0
814.0
806.0
805.0
811.0
812.0
804.0
801.0
796.0
794.0
799.0
793.0
793.0
791.0
794.0
796.0
800.0
802.0
800.0
795.0
791.0
790.0
794.0
790.0
786.0
780.0
770.0
760.0
757.0
760.0
767.0
781.0
807.0
842.0
881.0
930.0
973.0
1010.0
1045.0
1080.0
1111.0
1134.0
1146.0
1149.0
1144.0
1139.0
1127.0
1111.0
1088.0
1042.0
985.0
923.0
870.0
833.0
813.0
807.0
813.0
825.0
829.0
829.0
815.0
805.0
796.0
794.0
790.0
784.0
787.0
782.0
783.0
788.0
788.0
785.0
787.0
787.0
792.0
795.0
795.0
793.0
792.0
792.0
789.0
790.0
790.0
788.0
789.0
788.0
793.0
795.0
798.0
794.0
791.0
792.0
794.0
794.0
794.0
791.0
790.0
794.0
801.0
803.0
804.0
802.0
799.0
798.0
800.0
801.0
799.0
799.0
798.0
800.0
803.0
809.0
807.0
805.0
805.0
806.0
808.0
809.0
807.0
805.0
804.0
808.0
812.0
815.0
815.0
813.0
811.0
811.0
814.0
817.0
813.0
809.0
811.0
815.0
819.0
818.0
819.0
817.0
817.0
817.0
816.0
815.0
813.0
810.0
811.0
815.0
820.0
820.0
817.0
815.0
814.0
814.0
817.0
817.0
814.0
809.0
808.0
810.0
812.0
816.0
817.0
814.0
812.0
813.0
814.0
815.0
811.0
807.0
807.0
808.0
813.0
810.0
813.0
809.0
805.0
804.0
805.0
802.0
801.0
793.0
795.0
799.0
800.0
800.0
798.0
795.0
793.0
793.0
794.0
793.0
790.0
787.0
787.0
793.0
796.0
796.0
797.0
793.0
792.0
794.0
798.0
796.0
796.0
794.0
797.0
802.0
802.0
805.0
806.0
804.0
804.0
803.0
801.0
801.0
797.0
796.0
800.0
806.0
809.0
805.0
808.0
808.0
812.0
816.0
815.0
813.0
810.0
809.0
812.0
818.0
827.0
831.0
833.0
839.0
846.0
849.0
851.0
851.0
847.0
846.0
848.0
857.0
859.0
856.0
857.0
854.0
851.0
850.0
848.0
842.0
838.0
838.0
835.0
839.0
837.0
831.0
825.0
819.0
818.0
816.0
813.0
808.0
805.0
799.0
799.0
802.0
807.0
808.0
811.0
803.0
804.0
806.0
807.0
807.0
805.0
805.0
805.0
805.0
800.0
794.0
781.0
771.0
763.0
764.0
774.0
794.0
820.0
857.0
904.0
953.0
996.0
1032.0
1064.0
1091.0
1119.0
1142.0
1158.0
1161.0
1163.0
1154.0
1143.0
1131.0
1104.0
1057.0
997.0
930.0
876.0
843.0
823.0
822.0
826.0
833.0
842.0
849.0
844.0
831.0
819.0
805.0
799.0
794.0
793.0
792.0
788.0
788.0
792.0
795.0
798.0
797.0
798.0
799.0
799.0
800.0
800.0
798.0
793.0
793.0
794.0
799.0
803.0
801.0
796.0
793.0
798.0
801.0
802.0
798.0
798.0
796.0
795.0
802.0
804.0
803.0
807.0
807.0
809.0
810.0
813.0
807.0
805.0
800.0
804.0
807.0
805.0
806.0
808.0
809.0
810.0
815.0
816.0
813.0
812.0
806.0
806.0
811.0
814.0
816.0
815.0
816.0
818.0
818.0
815.0
816.0
815.0
814.0
817.0
823.0
829.0
830.0
829.0
828.0
822.0
826.0
826.0
825.0
825.0
822.0
818.0
820.0
825.0
831.0
832.0
827.0
822.0
822.0
823.0
826.0
825.0
819.0
819.0
820.0
826.0
824.0
830.0
826.0
821.0
821.0
819.0
818.0
819.0
819.0
813.0
812.0
816.0
819.0
821.0
817.0
818.0
816.0
819.0
819.0
819.0
813.0
810.0
810.0
817.0
815.0
816.0
813.0
810.0
811.0
803.0
808.0
806.0
803.0
798.0
799.0
799.0
801.0
809.0
806.0
805.0
804.0
802.0
805.0
807.0
802.0
799.0
802.0
806.0
810.0
811.0
808.0
807.0
809.0
807.0
809.0
804.0
804.0
800.0
806.0
806.0
813.0
817.0
814.0
813.0
811.0
815.0
815.0
819.0
816.0
815.0
821.0
824.0
830.0
831.0
828.0
833.0
834.0
840.0
848.0
850.0
851.0
851.0
857.0
861.0
867.0
870.0
868.0
866.0
862.0
864.0
863.0
857.0
852.0
849.0
849.0
852.0
856.0
856.0
852.0
842.0
837.0
832.0
831.0
832.0
827.0
821.0
820.0
822.0
824.0
823.0
824.0
821.0
815.0
814.0
814.0
814.0
814.0
811.0
813.0
811.0
816.0
819.0
822.0
817.0
811.0
803.0
798.0
792.0
782.0
772.0
772.0
770.0
787.0
818.0
854.0
894.0
935.0
972.0
1011.0
1046.0
1085.0
1118.0
1142.0
1161.0
1169.0
1177.0
1177.0
1167.0
1154.0
1128.0
1097.0
1047.0
986.0
928.0
874.0
840.0
827.0
830.0
842.0
853.0
851.0
847.0
837.0
821.0
816.0
807.0
801.0
801.0
806.0
808.0
811.0
811.0
804.0
798.0
797.0
801.0
804.0
807.0
809.0
807.0
811.0
814.0
817.0
818.0
811.0
804.0
804.0
803.0
805.0
807.0
809.0
807.0
806.0
806.0
810.0
813.0
814.0
811.0
808.0
808.0
807.0
811.0
813.0
813.0
814.0
815.0
818.0
821.0
821.0
818.0
816.0
817.0
815.0
821.0
822.0
817.0
820.0
821.0
823.0
826.0
827.0
824.0
824.0
823.0
824.0
827.0
831.0
832.0
830.0
831.0
832.0
834.0
835.0
835.0
830.0
830.0
827.0
832.0
835.0
832.0
834.0
835.0
837.0
837.0
839.0
838.0
834.0
833.0
833.0
837.0
837.0
832.0
836.0
836.0
838.0
839.0
836.0
837.0
829.0
829.0
830.0
830.0
837.0
835.0
833.0
833.0
832.0
834.0
836.0
830.0
827.0
828.0
830.0
835.0
835.0
836.0
833.0
835.0
836.0
837.0
835.0
832.0
827.0
825.0
825.0
824.0
827.0
830.0
824.0
821.0
822.0
823.0
825.0
821.0
815.0
812.0
811.0
816.0
816.0
821.0
821.0
820.0
819.0
824.0
824.0
825.0
819.0
819.0
818.0
823.0
826.0
828.0
827.0
826.0
826.0
825.0
830.0
829.0
827.0
823.0
823.0
825.0
835.0
837.0
839.0
841.0
837.0
834.0
838.0
839.0
843.0
838.0
843.0
846.0
852.0
860.0
865.0
870.0
871.0
874.0
878.0
880.0
880.0
874.0
873.0
869.0
875.0
876.0
879.0
879.0
875.0
868.0
863.0
864.0
867.0
863.0
859.0
851.0
847.0
844.0
845.0
845.0
845.0
836.0
830.0
831.0
830.0
831.0
829.0
826.0
824.0
822.0
823.0
830.0
829.0
828.0
826.0
824.0
828.0
828.0
826.0
824.0
815.0
809.0
804.0
794.0
788.0
785.0
794.0
810.0
836.0
877.0
918.0
958.0
994.0
1024.0
1054.0
1086.0
1116.0
1140.0
1158.0
1165.0
1170.0
1167.0
1166.0
1156.0
1143.0
1115.0
1073.0
1018.0
959.0
903.0
862.0
839.0
831.0
842.0
855.0
866.0
864.0
859.0
849.0
842.0
834.0
830.0
824.0
815.0
810.0
806.0
804.0
807.0
813.0
811.0
811.0
808.0
809.0
813.0
816.0
816.0
815.0
812.0
809.0
809.0
814.0
817.0
819.0
817.0
815.0
812.0
818.0
817.0
815.0
811.0
809.0
807.0
810.0
814.0
815.0
812.0
813.0
814.0
816.0
818.0
815.0
809.0
810.0
816.0
819.0
822.0
824.0
824.0
822.0
821.0
819.0
823.0
822.0
819.0
817.0
819.0
824.0
827.0
828.0
832.0
829.0
827.0
827.0
831.0
830.0
832.0
829.0
829.0
830.0
834.0
836.0
837.0
839.0
837.0
837.0
838.0
839.0
842.0
835.0
835.0
836.0
838.0
840.0
841.0
842.0
839.0
838.0
836.0
836.0
837.0
834.0
834.0
832.0
833.0
839.0
842.0
839.0
836.0
834.0
837.0
834.0
835.0
834.0
831.0
829.0
832.0
834.0
834.0
834.0
833.0
832.0
829.0
831.0
828.0
826.0
823.0
825.0
826.0
831.0
830.0
826.0
823.0
819.0
822.0
823.0
818.0
812.0
809.0
807.0
811.0
816.0
822.0
819.0
816.0
815.0
816.0
816.0
816.0
816.0
814.0
815.0
818.0
820.0
825.0
824.0
820.0
820.0
817.0
817.0
819.0
819.0
817.0
818.0
819.0
821.0
828.0
830.0
828.0
824.0
820.0
822.0
820.0
822.0
826.0
824.0
825.0
830.0
836.0
840.0
839.0
836.0
835.0
832.0
835.0
842.0
849.0
851.0
851.0
859.0
865.0
870.0
872.0
870.0
870.0
871.0
871.0
865.0
868.0
862.0
864.0
861.0
864.0
861.0
854.0
853.0
851.0
851.0
845.0
834.0
827.0
825.0
828.0
830.0
825.0
824.0
822.0
819.0
820.0
815.0
813.0
810.0
809.0
813.0
818.0
821.0
820.0
815.0
813.0
811.0
812.0
805.0
792.0
781.0
771.0
774.0
785.0
805.0
831.0
868.0
906.0
952.0
996.0
1030.0
1067.0
1095.0
1124.0
1147.0
1160.0
1169.0
1164.0
1155.0
1142.0
1130.0
1106.0
1067.0
1008.0
944.0
886.0
843.0
826.0
823.0
829.0
837.0
843.0
842.0
837.0
823.0
811.0
799.0
798.0
797.0
798.0
799.0
800.0
803.0
806.0
806.0
806.0
802.0
799.0
798.0
799.0
803.0
807.0
806.0
804.0
803.0
802.0
804.0
803.0
800.0
800.0
799.0
798.0
803.0
806.0
807.0
805.0
802.0
800.0
803.0
805.0
806.0
806.0
799.0
797.0
805.0
810.0
813.0
811.0
813.0
812.0
811.0
815.0
815.0
814.0
813.0
811.0
815.0
819.0
825.0
824.0
825.0
822.0
822.0
821.0
824.0
822.0
818.0
819.0
818.0
824.0
826.0
828.0
825.0
827.0
829.0
830.0
830.0
828.0
823.0
823.0
825.0
827.0
830.0
830.0
830.0
831.0
835.0
835.0
830.0
829.0
821.0
819.0
823.0
823.0
826.0
825.0
827.0
827.0
829.0
830.0
827.0
824.0
820.0
821.0
824.0
826.0
825.0
826.0
825.0
824.0
823.0
827.0
823.0
819.0
816.0
814.0
817.0
817.0
818.0
817.0
815.0
811.0
813.0
812.0
809.0
806.0
806.0
801.0
805.0
810.0
809.0
807.0
806.0
801.0
803.0
802.0
804.0
798.0
796.0
798.0
800.0
803.0
805.0
805.0
804.0
804.0
804.0
807.0
802.0
802.0
803.0
804.0
808.0
810.0
809.0
807.0
811.0
807.0
811.0
811.0
810.0
805.0
805.0
805.0
810.0
819.0
818.0
818.0
817.0
821.0
824.0
828.0
826.0
828.0
829.0
833.0
842.0
847.0
850.0
853.0
854.0
857.0
859.0
863.0
857.0
857.0
854.0
851.0
851.0
853.0
856.0
854.0
848.0
845.0
845.0
845.0
845.0
839.0
830.0
822.0
819.0
819.0
821.0
820.0
819.0
813.0
811.0
810.0
811.0
809.0
810.0
805.0
803.0
807.0
810.0
812.0
811.0
808.0
807.0
809.0
807.0
803.0
792.0
786.0
781.0
774.0
766.0
767.0
775.0
792.0
819.0
859.0
895.0
930.0
964.0
994.0
1026.0
1062.0
1099.0
1126.0
1146.0
1152.0
1153.0
1150.0
1141.0
1128.0
1106.0
1074.0
1027.0
970.0
911.0
864.0
832.0
816.0
817.0
825.0
838.0
845.0
843.0
832.0
818.0
813.0
809.0
805.0
805.0
798.0
795.0
794.0
796.0
798.0
798.0
792.0
792.0
794.0
799.0
807.0
807.0
806.0
802.0
796.0
795.0
793.0
795.0
794.0
793.0
793.0
800.0
805.0
806.0
804.0
800.0
799.0
801.0
802.0
801.0
800.0
798.0
801.0
804.0
809.0
809.0
810.0
803.0
804.0
807.0
811.0
810.0
806.0
805.0
807.0
811.0
816.0
819.0
817.0
813.0
815.0
817.0
820.0
822.0
820.0
817.0
821.0
821.0
825.0
827.0
826.0
824.0
822.0
821.0
821.0
825.0
820.0
820.0
821.0
826.0
831.0
831.0
829.0
828.0
830.0
828.0
832.0
831.0
828.0
826.0
826.0
830.0
831.0
832.0
831.0
827.0
822.0
820.0
822.0
823.0
824.0
821.0
819.0
822.0
826.0
828.0
826.0
825.0
820.0
819.0
819.0
821.0
815.0
817.0
817.0
822.0
822.0
823.0
819.0
813.0
809.0
811.0
809.0
811.0
809.0
805.0
806.0
806.0
810.0
810.0
809.0
803.0
798.0
801.0
799.0
801.0
800.0
798.0
796.0
799.0
804.0
807.0
807.0
803.0
800.0
799.0
802.0
805.0
807.0
805.0
805.0
807.0
813.0
816.0
815.0
813.0
809.0
808.0
808.0
811.0
811.0
810.0
809.0
814.0
817.0
818.0
819.0
818.0
819.0
819.0
823.0
822.0
827.0
822.0
821.0
831.0
833.0
841.0
843.0
842.0
841.0
850.0
855.0
858.0
857.0
856.0
858.0
862.0
864.0
862.0
855.0
852.0
853.0
850.0
850.0
846.0
840.0
838.0
843.0
842.0
839.0
834.0
826.0
823.0
819.0
820.0
817.0
812.0
809.0
809.0
812.0
816.0
816.0
815.0
812.0
810.0
812.0
814.0
813.0
812.0
810.0
807.0
809.0
808.0
805.0
797.0
787.0
778.0
774.0
776.0
788.0
809.0
835.0
870.0
914.0
959.0
1002.0
1034.0
1066.0
1096.0
1122.0
1143.0
1155.0
1159.0
1152.0
1146.0
1135.0
1123.0
1099.0
1053.0
994.0
928.0
875.0
839.0
822.0
819.0
825.0
832.0
841.0
842.0
835.0
823.0
811.0
805.0
797.0
797.0
796.0
792.0
793.0
796.0
799.0
800.0
803.0
803.0
800.0
802.0
802.0
802.0
802.0
798.0
796.0
796.0
801.0
804.0
806.0
807.0
802.0
805.0
803.0
803.0
806.0
802.0
801.0
802.0
806.0
809.0
810.0
810.0
810.0
811.0
814.0
812.0
812.0
810.0
808.0
807.0
812.0
816.0
818.0
816.0
819.0
816.0
818.0
820.0
819.0
819.0
813.0
815.0
820.0
822.0
826.0
827.0
825.0
824.0
826.0
828.0
829.0
827.0
825.0
822.0
824.0
829.0
832.0
834.0
833.0
832.0
833.0
836.0
832.0
827.0
825.0
824.0
829.0
830.0
835.0
837.0
831.0
827.0
828.0
826.0
827.0
832.0
826.0
826.0
823.0
825.0
830.0
833.0
832.0
828.0
823.0
822.0
824.0
824.0
825.0
826.0
822.0
823.0
825.0
830.0
830.0
826.0
823.0
819.0
819.0
817.0
823.0
819.0
816.0
817.0
814.0
814.0
817.0
818.0
814.0
811.0
807.0
808.0
808.0
809.0
807.0
804.0
806.0
807.0
808.0
811.0
807.0
802.0
800.0
803.0
806.0
804.0
805.0
806.0
810.0
813.0
817.0
814.0
811.0
805.0
806.0
811.0
809.0
815.0
811.0
808.0
809.0
813.0
818.0
819.0
818.0
817.0
815.0
814.0
815.0
816.0
819.0
820.0
819.0
823.0
825.0
827.0
824.0
820.0
823.0
821.0
827.0
833.0
839.0
843.0
845.0
851.0
855.0
860.0
864.0
863.0
860.0
858.0
858.0
859.0
861.0
861.0
858.0
858.0
859.0
857.0
857.0
850.0
847.0
843.0
845.0
841.0
837.0
837.0
831.0
829.0
825.0
822.0
821.0
815.0
814.0
808.0
805.0
812.0
811.0
811.0
811.0
811.0
813.0
816.0
819.0
816.0
812.0
808.0
803.0
807.0
809.0
802.0
794.0
784.0
775.0
772.0
773.0
783.0
798.0
818.0
847.0
884.0
924.0
966.0
1000.0
1031.0
1068.0
1097.0
1127.0
1150.0
1164.0
1167.0
1163.0
1160.0
1150.0
1138.0
