# Simple Text Format
# Sampling Rate (Hz):= 360.00
# Resolution:= 12
# Labels:= ECG
835.0
847.0
852.0
850.0
840.0
832.0
826.0
822.0
821.0
816.0
815.0
817.0
823.0
824.0
817.0
816.0
817.0
826.0
827.0
830.0
828.0
824.0
823.0
825.0
826.0
826.0
825.0
819.0
818.0
827.0
830.0
832.0
830.0
826.0
826.0
826.0
828.0
828.0
828.0
822.0
825.0
829.0
838.0
840.0
839.0
836.0
835.0
833.0
836.0
840.0
836.0
837.0
837.0
840.0
841.0
846.0
846.0
844.0
840.0
843.0
844.0
846.0
843.0
841.0
839.0
844.0
847.0
851.0
853.0
852.0
848.0
846.0
847.0
850.0
846.0
847.0
844.0
849.0
850.0
854.0
852.0
851.0
846.0
844.0
848.0
847.0
846.0
844.0
837.0
835.0
841.0
847.0
850.0
847.0
841.0
838.0
837.0
839.0
842.0
841.0
836.0
837.0
841.0
844.0
844.0
847.0
841.0
839.0
838.0
839.0
839.0
840.0
835.0
837.0
837.0
841.0
839.0
841.0
837.0
834.0
829.0
829.0
828.0
833.0
831.0
829.0
826.0
830.0
832.0
833.0
829.0
823.0
817.0
820.0
822.0
824.0
823.0
823.0
824.0
825.0
829.0
829.0
825.0
825.0
822.0
821.0
826.0
828.0
830.0
829.0
832.0
835.0
835.0
835.0
833.0
829.0
831.0
834.0
834.0
838.0
837.0
834.0
840.0
843.0
850.0
852.0
853.0
850.0
852.0
854.0
862.0
867.0
872.0
870.0
875.0
879.0
881.0
881.0
874.0
872.0
867.0
869.0
869.0
865.0
862.0
862.0
859.0
864.0
867.0
867.0
860.0
850.0
846.0
836.0
834.0
834.0
834.0
829.0
827.0
826.0
828.0
828.0
827.0
826.0
820.0
815.0
819.0
822.0
822.0
824.0
822.0
823.0
823.0
823.0
818.0
811.0
800.0
790.0
779.0
781.0
787.0
803.0
829.0
863.0
908.0
952.0
993.0
1031.0
1064.0
1093.0
1118.0
1140.0
1150.0
1149.0
1144.0
1138.0
1135.0
1127.0
1113.0
1087.0
1043.0
982.0
919.0
865.0
831.0
814.0
816.0
823.0
836.0
843.0
848.0
839.0
827.0
816.0
810.0
809.0
808.0
809.0
807.0
809.0
807.0
811.0
817.0
814.0
813.0
807.0
805.0
810.0
813.0
814.0
816.0
814.0
813.0
814.0
816.0
816.0
815.0
812.0
807.0
808.0
811.0
814.0
818.0
818.0
816.0
817.0
818.0
821.0
820.0
817.0
815.0
818.0
821.0
824.0
826.0
828.0
827.0
830.0
828.0
831.0
829.0
827.0
829.0
832.0
834.0
837.0
835.0
832.0
836.0
834.0
836.0
839.0
841.0
836.0
832.0
831.0
835.0
836.0
838.0
839.0
839.0
838.0
839.0
839.0
841.0
838.0
834.0
836.0
837.0
842.0
846.0
842.0
840.0
836.0
835.0
838.0
837.0
836.0
831.0
829.0
829.0
833.0
836.0
834.0
833.0
831.0
831.0
830.0
830.0
828.0
825.0
824.0
827.0
829.0
833.0
832.0
831.0
828.0
827.0
831.0
830.0
829.0
826.0
820.0
818.0
818.0
824.0
822.0
818.0
816.0
820.0
821.0
818.0
813.0
811.0
810.0
810.0
815.0
814.0
811.0
810.0
813.0
814.0
815.0
811.0
809.0
808.0
807.0
811.0
813.0
812.0
814.0
818.0
818.0
822.0
819.0
815.0
816.0
816.0
819.0
818.0
820.0
818.0
819.0
817.0
827.0
831.0
829.0
825.0
825.0
826.0
826.0
830.0
832.0
837.0
838.0
845.0
850.0
856.0
859.0
858.0
860.0
863.0
865.0
868.0
869.0
870.0
868.0
864.0
867.0
864.0
860.0
855.0
847.0
846.0
850.0
854.0
851.0
848.0
845.0
841.0
836.0
830.0
824.0
820.0
818.0
819.0
818.0
816.0
811.0
813.0
818.0
822.0
820.0
818.0
815.0
813.0
814.0
818.0
815.0
807.0
803.0
794.0
788.0
782.0
779.0
792.0
813.0
843.0
881.0
922.0
960.0
994.0
1030.0
1069.0
1105.0
1135.0
1149.0
1155.0
1148.0
1148.0
1136.0
1125.0
1104.0
1070.0
1017.0
950.0
889.0
842.0
813.0
806.0
816.0
829.0
837.0
836.0
830.0
818.0
809.0
808.0
806.0
806.0
803.0
799.0
801.0
804.0
806.0
802.0
799.0
802.0
802.0
806.0
812.0
809.0
807.0
809.0
811.0
809.0
805.0
803.0
804.0
807.0
810.0
816.0
814.0
813.0
813.0
814.0
817.0
815.0
815.0
808.0
809.0
809.0
815.0
819.0
820.0
820.0
819.0
820.0
823.0
825.0
820.0
819.0
820.0
823.0
827.0
827.0
824.0
825.0
829.0
830.0
832.0
834.0
828.0
827.0
829.0
831.0
837.0
836.0
834.0
837.0
839.0
839.0
839.0
838.0
835.0
833.0
834.0
836.0
838.0
838.0
836.0
837.0
838.0
841.0
838.0
830.0
831.0
832.0
830.0
833.0
833.0
832.0
830.0
834.0
833.0
830.0
829.0
825.0
824.0
827.0
828.0
829.0
828.0
824.0
826.0
829.0
834.0
827.0
826.0
823.0
820.0
822.0
822.0
823.0
823.0
822.0
821.0
825.0
826.0
824.0
817.0
812.0
810.0
811.0
811.0
815.0
813.0
810.0
808.0
810.0
814.0
816.0
817.0
811.0
805.0
806.0
807.0
811.0
814.0
814.0
813.0
812.0
819.0
818.0
817.0
816.0
814.0
813.0
815.0
818.0
820.0
820.0
820.0
821.0
821.0
822.0
825.0
825.0
822.0
823.0
825.0
828.0
832.0
835.0
835.0
835.0
837.0
842.0
844.0
846.0
846.0
847.0
850.0
856.0
865.0
870.0
872.0
868.0
867.0
865.0
867.0
867.0
860.0
858.0
856.0
854.0
858.0
857.0
854.0
853.0
850.0
849.0
848.0
848.0
839.0
831.0
823.0
822.0
824.0
827.0
828.0
828.0
824.0
822.0
821.0
822.0
821.0
821.0
815.0
812.0
812.0
814.0
821.0
823.0
819.0
816.0
816.0
811.0
802.0
792.0
778.0
771.0
772.0
790.0
812.0
838.0
867.0
898.0
932.0
965.0
1001.0
1034.0
1069.0
1098.0
1132.0
1151.0
1167.0
1170.0
1166.0
1157.0
1140.0
1118.0
1081.0
1024.0
954.0
895.0
848.0
827.0
824.0
835.0
842.0
850.0
844.0
848.0
843.0
838.0
825.0
817.0
808.0
809.0
812.0
815.0
813.0
810.0
809.0
804.0
806.0
808.0
808.0
809.0
811.0
812.0
815.0
819.0
816.0
815.0
813.0
808.0
810.0
815.0
819.0
819.0
818.0
815.0
817.0
820.0
821.0
821.0
820.0
815.0
814.0
818.0
818.0
819.0
817.0
818.0
818.0
822.0
827.0
827.0
828.0
824.0
819.0
824.0
825.0
829.0
827.0
833.0
834.0
832.0
836.0
840.0
835.0
831.0
829.0
828.0
833.0
834.0
836.0
838.0
831.0
835.0
837.0
838.0
842.0
839.0
834.0
834.0
839.0
844.0
847.0
847.0
845.0
844.0
844.0
845.0
846.0
848.0
841.0
837.0
837.0
841.0
844.0
844.0
843.0
843.0
841.0
840.0
840.0
838.0
835.0
833.0
832.0
833.0
841.0
844.0
842.0
842.0
839.0
842.0
840.0
837.0
834.0
831.0
831.0
832.0
835.0
834.0
831.0
832.0
834.0
839.0
840.0
839.0
833.0
829.0
830.0
826.0
827.0
825.0
824.0
822.0
824.0
823.0
822.0
820.0
819.0
818.0
821.0
821.0
820.0
818.0
817.0
819.0
824.0
825.0
824.0
822.0
819.0
820.0
822.0
822.0
827.0
825.0
829.0
832.0
837.0
837.0
837.0
832.0
829.0
830.0
832.0
836.0
839.0
837.0
839.0
840.0
841.0
848.0
848.0
851.0
847.0
853.0
858.0
862.0
866.0
870.0
873.0
877.0
879.0
880.0
879.0
877.0
872.0
871.0
871.0
873.0
874.0
871.0
870.0
872.0
873.0
874.0
871.0
862.0
855.0
849.0
844.0
844.0
843.0
841.0
840.0
842.0
844.0
840.0
836.0
829.0
825.0
830.0
831.0
834.0
836.0
833.0
831.0
833.0
834.0
829.0
821.0
811.0
799.0
793.0
788.0
792.0
804.0
832.0
862.0
903.0
946.0
983.0
1014.0
1044.0
1075.0
1109.0
1138.0
1157.0
1167.0
1170.0
1172.0
1169.0
1160.0
1140.0
1111.0
1062.0
1005.0
945.0
896.0
863.0
844.0
842.0
848.0
858.0
869.0
873.0
862.0
851.0
838.0
829.0
824.0
824.0
820.0
822.0
824.0
828.0
833.0
833.0
830.0
825.0
820.0
818.0
819.0
823.0
826.0
830.0
829.0
835.0
837.0
839.0
833.0
828.0
829.0
827.0
827.0
831.0
827.0
826.0
828.0
833.0
834.0
836.0
835.0
829.0
827.0
829.0
832.0
834.0
837.0
836.0
836.0
840.0
841.0
844.0
839.0
834.0
832.0
834.0
838.0
839.0
846.0
845.0
843.0
844.0
851.0
852.0
852.0
848.0
846.0
843.0
846.0
850.0
851.0
851.0
851.0
855.0
856.0
858.0
860.0
853.0
852.0
850.0
853.0
854.0
854.0
854.0
856.0
858.0
863.0
864.0
861.0
856.0
850.0
849.0
852.0
857.0
857.0
859.0
853.0
850.0
855.0
854.0
855.0
852.0
851.0
850.0
852.0
857.0
857.0
854.0
857.0
855.0
856.0
857.0
854.0
854.0
851.0
845.0
847.0
852.0
854.0
851.0
848.0
852.0
852.0
852.0
853.0
853.0
845.0
839.0
844.0
845.0
846.0
846.0
843.0
840.0
839.0
843.0
842.0
838.0
834.0
833.0
837.0
842.0
841.0
845.0
842.0
843.0
845.0
847.0
848.0
844.0
840.0
841.0
842.0
843.0
845.0
849.0
848.0
851.0
850.0
854.0
858.0
857.0
857.0
855.0
857.0
861.0
862.0
866.0
865.0
865.0
866.0
870.0
874.0
876.0
875.0
876.0
884.0
891.0
895.0
896.0
895.0
894.0
896.0
896.0
899.0
895.0
889.0
886.0
882.0
884.0
888.0
887.0
885.0
885.0
884.0
885.0
882.0
874.0
870.0
863.0
859.0
860.0
862.0
863.0
858.0
854.0
857.0
855.0
857.0
854.0
851.0
847.0
844.0
845.0
848.0
851.0
853.0
849.0
849.0
846.0
848.0
844.0
833.0
821.0
810.0
812.0
819.0
837.0
862.0
896.0
935.0
976.0
1021.0
1057.0
1087.0
1113.0
1133.0
1155.0
1170.0
1179.0
1174.0
1170.0
1159.0
1147.0
1134.0
1101.0
1055.0
989.0
928.0
880.0
856.0
850.0
854.0
867.0
880.0
884.0
883.0
874.0
861.0
847.0
842.0
836.0
840.0
839.0
842.0
842.0
843.0
844.0
846.0
845.0
845.0
841.0
842.0
844.0
846.0
850.0
850.0
850.0
849.0
848.0
850.0
850.0
844.0
841.0
842.0
842.0
847.0
849.0
852.0
852.0
850.0
851.0
850.0
851.0
851.0
849.0
848.0
845.0
851.0
854.0
856.0
856.0
858.0
857.0
858.0
859.0
859.0
858.0
854.0
857.0
862.0
866.0
868.0
867.0
866.0
863.0
866.0
867.0
867.0
865.0
860.0
864.0
868.0
874.0
871.0
872.0
870.0
873.0
875.0
872.0
872.0
868.0
869.0
871.0
872.0
871.0
871.0
868.0
871.0
872.0
871.0
865.0
863.0
861.0
864.0
864.0
866.0
865.0
864.0
866.0
870.0
871.0
869.0
864.0
856.0
859.0
862.0
861.0
860.0
857.0
860.0
864.0
865.0
865.0
864.0
860.0
856.0
855.0
858.0
857.0
856.0
854.0
852.0
851.0
853.0
856.0
853.0
847.0
842.0
840.0
843.0
844.0
845.0
844.0
842.0
843.0
844.0
845.0
849.0
845.0
841.0
840.0
838.0
839.0
841.0
847.0
844.0
845.0
851.0
850.0
853.0
848.0
845.0
840.0
842.0
845.0
848.0
851.0
847.0
852.0
852.0
852.0
856.0
852.0
850.0
852.0
855.0
857.0
860.0
863.0
862.0
863.0
867.0
870.0
877.0
878.0
879.0
877.0
881.0
887.0
893.0
893.0
891.0
891.0
893.0
895.0
896.0
892.0
885.0
887.0
880.0
881.0
878.0
878.0
879.0
878.0
881.0
877.0
869.0
863.0
853.0
849.0
850.0
850.0
849.0
850.0
847.0
849.0
849.0
851.0
850.0
843.0
840.0
840.0
845.0
845.0
845.0
843.0
842.0
841.0
844.0
840.0
830.0
819.0
805.0
806.0
815.0
832.0
860.0
891.0
930.0
973.0
1015.0
1052.0
1083.0
1112.0
1136.0
1153.0
1162.0
1166.0
1164.0
1159.0
1150.0
1140.0
1128.0
1101.0
1049.0
983.0
919.0
870.0
847.0
839.0
844.0
855.0
865.0
871.0
873.0
865.0
856.0
839.0
836.0
825.0
826.0
829.0
829.0
829.0
828.0
829.0
831.0
837.0
837.0
833.0
829.0
830.0
833.0
834.0
834.0
838.0
834.0
835.0
838.0
840.0
839.0
834.0
832.0
831.0
833.0
836.0
838.0
838.0
841.0
842.0
841.0
843.0
846.0
843.0
838.0
834.0
837.0
842.0
844.0
847.0
846.0
847.0
850.0
854.0
853.0
852.0
846.0
846.0
847.0
852.0
853.0
856.0
852.0
852.0
854.0
859.0
863.0
862.0
857.0
855.0
853.0
852.0
854.0
859.0
859.0
860.0
864.0
864.0
861.0
861.0
861.0
857.0
856.0
859.0
863.0
866.0
864.0
860.0
862.0
864.0
862.0
863.0
858.0
853.0
854.0
851.0
855.0
859.0
858.0
858.0
856.0
853.0
852.0
854.0
853.0
851.0
850.0
849.0
851.0
854.0
856.0
851.0
850.0
853.0
855.0
855.0
853.0
847.0
845.0
846.0
849.0
851.0
848.0
844.0
848.0
849.0
847.0
846.0
841.0
834.0
833.0
830.0
830.0
837.0
838.0
835.0
835.0
833.0
838.0
836.0
837.0
835.0
833.0
831.0
833.0
834.0
838.0
837.0
836.0
836.0
839.0
842.0
838.0
836.0
834.0
832.0
833.0
840.0
843.0
843.0
842.0
838.0
840.0
845.0
845.0
843.0
842.0
839.0
841.0
847.0
856.0
855.0
858.0
854.0
857.0
860.0
864.0
867.0
868.0
868.0
869.0
873.0
882.0
889.0
891.0
891.0
888.0
890.0
889.0
893.0
889.0
886.0
878.0
882.0
881.0
878.0
875.0
876.0
876.0
875.0
867.0
863.0
858.0
848.0
850.0
849.0
853.0
852.0
849.0
843.0
839.0
836.0
840.0
840.0
839.0
833.0
834.0
837.0
840.0
845.0
848.0
842.0
840.0
837.0
833.0
832.0
828.0
816.0
807.0
801.0
798.0
806.0
822.0
841.0
868.0
899.0
942.0
982.0
1020.0
1053.0
1084.0
1114.0
1143.0
1164.0
1174.0
1176.0
1169.0
1158.0
1146.0
1137.0
1121.0
1089.0
1043.0
980.0
921.0
877.0
857.0
847.0
851.0
849.0
860.0
866.0
867.0
861.0
852.0
841.0
829.0
825.0
825.0
828.0
828.0
825.0
819.0
820.0
825.0
827.0
827.0
827.0
825.0
824.0
827.0
834.0
837.0
831.0
826.0
823.0
822.0
824.0
828.0
832.0
832.0
829.0
831.0
835.0
836.0
837.0
832.0
831.0
826.0
832.0
834.0
838.0
837.0
838.0
840.0
841.0
846.0
845.0
842.0
838.0
838.0
835.0
840.0
844.0
846.0
841.0
843.0
842.0
846.0
846.0
847.0
844.0
843.0
841.0
845.0
850.0
855.0
852.0
857.0
850.0
853.0
856.0
855.0
854.0
851.0
849.0
852.0
859.0
859.0
858.0
857.0
860.0
859.0
861.0
856.0
855.0
853.0
853.0
855.0
853.0
852.0
853.0
853.0
852.0
857.0
857.0
853.0
848.0
845.0
841.0
844.0
849.0
854.0
852.0
852.0
850.0
851.0
851.0
852.0
847.0
846.0
845.0
843.0
850.0
854.0
850.0
849.0
845.0
848.0
851.0
849.0
844.0
841.0
837.0
839.0
842.0
844.0
844.0
839.0
837.0
835.0
833.0
832.0
830.0
826.0
825.0
830.0
830.0
836.0
835.0
833.0
831.0
833.0
831.0
831.0
829.0
830.0
828.0
832.0
832.0
841.0
839.0
839.0
836.0
839.0
836.0
835.0
835.0
833.0
837.0
839.0
839.0
839.0
840.0
845.0
847.0
852.0
854.0
851.0
849.0
847.0
850.0
857.0
861.0
864.0
865.0
871.0
875.0
879.0
881.0
883.0
883.0
881.0
884.0
883.0
882.0
879.0
875.0
878.0
880.0
880.0
878.0
874.0
867.0
866.0
866.0
867.0
867.0
862.0
857.0
852.0
846.0
847.0
846.0
844.0
840.0
833.0
831.0
832.0
837.0
841.0
836.0
835.0
832.0
833.0
832.0
835.0
831.0
829.0
827.0
830.0
827.0
823.0
815.0
803.0
797.0
794.0
805.0
822.0
850.0
888.0
931.0
979.0
1019.0
1055.0
1091.0
1122.0
1147.0
1161.0
1167.0
1164.0
1156.0
1146.0
1134.0
1122.0
1099.0
1054.0
992.0
931.0
881.0
849.0
835.0
835.0
842.0
850.0
860.0
858.0
852.0
845.0
835.0
825.0
823.0
823.0
823.0
820.0
815.0
815.0
818.0
821.0
822.0
823.0
823.0
822.0
827.0
829.0
828.0
823.0
821.0
818.0
820.0
822.0
822.0
827.0
828.0
827.0
832.0
832.0
831.0
826.0
821.0
820.0
827.0
830.0
832.0
831.0
832.0
832.0
835.0
836.0
832.0
830.0
832.0
832.0
833.0
835.0
833.0
831.0
839.0
841.0
847.0
844.0
840.0
838.0
839.0
839.0
843.0
843.0
842.0
840.0
843.0
847.0
852.0
847.0
849.0
845.0
846.0
845.0
845.0
847.0
847.0
847.0
848.0
849.0
853.0
855.0
852.0
847.0
843.0
841.0
845.0
847.0
848.0
845.0
846.0
844.0
848.0
847.0
847.0
843.0
837.0
838.0
839.0
842.0
842.0
843.0
840.0
841.0
840.0
844.0
844.0
840.0
835.0
833.0
834.0
838.0
840.0
840.0
839.0
837.0
839.0
838.0
837.0
839.0
832.0
827.0
825.0
827.0
825.0
822.0
826.0
826.0
830.0
830.0
828.0
822.0
818.0
816.0
818.0
819.0
826.0
825.0
821.0
821.0
820.0
823.0
824.0
824.0
824.0
821.0
821.0
822.0
827.0
827.0
825.0
826.0
826.0
830.0
831.0
834.0
829.0
824.0
824.0
826.0
829.0
831.0
830.0
831.0
834.0
836.0
840.0
839.0
838.0
835.0
839.0
838.0
842.0
849.0
852.0
857.0
864.0
871.0
874.0
873.0
871.0
869.0
871.0
873.0
873.0
873.0
872.0
872.0
872.0
870.0
868.0
863.0
862.0
857.0
857.0
856.0
849.0
845.0
844.0
841.0
840.0
838.0
835.0
828.0
824.0
826.0
825.0
824.0
826.0
821.0
822.0
824.0
827.0
829.0
826.0
823.0
822.0
823.0
823.0
821.0
814.0
806.0
798.0
792.0
786.0
791.0
798.0
811.0
829.0
863.0
902.0
943.0
984.0
1018.0
1049.0
1083.0
1116.0
1140.0
1159.0
1164.0
1162.0
1151.0
1141.0
1130.0
1110.0
1070.0
1019.0
958.0
900.0
864.0
839.0
830.0
830.0
837.0
849.0
856.0
850.0
842.0
831.0
820.0
816.0
816.0
815.0
811.0
807.0
809.0
814.0
810.0
813.0
811.0
817.0
819.0
823.0
821.0
820.0
815.0
816.0
815.0
817.0
821.0
818.0
816.0
820.0
822.0
826.0
826.0
822.0
818.0
815.0
815.0
817.0
820.0
817.0
819.0
819.0
822.0
831.0
831.0
828.0
825.0
823.0
824.0
827.0
828.0
827.0
825.0
825.0
831.0
834.0
833.0
836.0
832.0
833.0
832.0
837.0
837.0
837.0
836.0
836.0
841.0
844.0
838.0
838.0
832.0
833.0
833.0
834.0
837.0
842.0
841.0
841.0
843.0
852.0
849.0
845.0
839.0
838.0
841.0
844.0
843.0
841.0
835.0
838.0
845.0
850.0
845.0
842.0
834.0
834.0
837.0
834.0
838.0
838.0
839.0
838.0
844.0
844.0
845.0
837.0
836.0
838.0
835.0
835.0
838.0
835.0
837.0
836.0
841.0
842.0
838.0
837.0
832.0
832.0
832.0
835.0
833.0
830.0
827.0
825.0
827.0
830.0
829.0
826.0
824.0
823.0
823.0
817.0
821.0
818.0
817.0
821.0
826.0
828.0
828.0
825.0
823.0
822.0
825.0
825.0
823.0
824.0
823.0
830.0
833.0
834.0
833.0
827.0
826.0
827.0
827.0
825.0
823.0
825.0
834.0
840.0
842.0
846.0
842.0
842.0
843.0
843.0
842.0
845.0
850.0
854.0
862.0
870.0
873.0
877.0
877.0
876.0
874.0
878.0
876.0
876.0
876.0
875.0
877.0
879.0
874.0
873.0
870.0
867.0
869.0
870.0
866.0
862.0
853.0
847.0
843.0
843.0
845.0
846.0
840.0
838.0
837.0
834.0
835.0
831.0
829.0
827.0
831.0
836.0
835.0
836.0
831.0
830.0
829.0
826.0
826.0
821.0
813.0
803.0
794.0
792.0
794.0
803.0
819.0
845.0
882.0
925.0
968.0
1010.0
1047.0
1086.0
1125.0
1155.0
1174.0
1184.0
1187.0
1180.0
1173.0
1158.0
1133.0
1094.0
1040.0
978.0
921.0
883.0
856.0
847.0
846.0
858.0
867.0
876.0
871.0
863.0
851.0
833.0
829.0
828.0
829.0
829.0
828.0
822.0
820.0
825.0
826.0
825.0
825.0
824.0
822.0
827.0
832.0
834.0
835.0
829.0
827.0
823.0
826.0
829.0
827.0
828.0
828.0
832.0
837.0
837.0
833.0
831.0
826.0
828.0
828.0
830.0
832.0
831.0
828.0
834.0
835.0
840.0
838.0
837.0
834.0
835.0
834.0
837.0
836.0
833.0
836.0
841.0
845.0
847.0
848.0
843.0
840.0
842.0
845.0
843.0
844.0
841.0
848.0
848.0
853.0
857.0
856.0
848.0
847.0
848.0
850.0
853.0
852.0
850.0
850.0
853.0
858.0
863.0
860.0
858.0
854.0
853.0
854.0
855.0
855.0
853.0
854.0
853.0
859.0
861.0
862.0
857.0
853.0
852.0
850.0
854.0
852.0
851.0
849.0
851.0
854.0
857.0
855.0
853.0
849.0
849.0
847.0
850.0
851.0
851.0
851.0
849.0
848.0
854.0
856.0
852.0
844.0
840.0
840.0
844.0
843.0
844.0
841.0
839.0
843.0
844.0
845.0
840.0
842.0
834.0
833.0
838.0
838.0
836.0
834.0
834.0
835.0
842.0
842.0
843.0
841.0
838.0
833.0
836.0
837.0
844.0
843.0
840.0
842.0
845.0
846.0
848.0
849.0
841.0
838.0
837.0
840.0
846.0
850.0
851.0
848.0
850.0
851.0
850.0
855.0
857.0
854.0
852.0
852.0
855.0
865.0
872.0
877.0
880.0
883.0
886.0
889.0
892.0
892.0
888.0
884.0
885.0
890.0
894.0
895.0
893.0
885.0
882.0
882.0
880.0
882.0
878.0
874.0
871.0
874.0
871.0
869.0
864.0
856.0
849.0
846.0
847.0
848.0
845.0
841.0
838.0
842.0
842.0
844.0
848.0
845.0
839.0
834.0
832.0
837.0
842.0
840.0
836.0
833.0
832.0
828.0
827.0
820.0
807.0
795.0
793.0
805.0
827.0
853.0
889.0
928.0
971.0
1013.0
1049.0
1083.0
1111.0
1137.0
1158.0
1173.0
1179.0
1183.0
1180.0
1172.0
1158.0
1144.0
1117.0
1074.0
1011.0
944.0
890.0
861.0
847.0
848.0
857.0
868.0
876.0
875.0
871.0
862.0
852.0
841.0
830.0
826.0
823.0
826.0
826.0
824.0
827.0
828.0
831.0
832.0
832.0
830.0
825.0
827.0
829.0
831.0
827.0
827.0
827.0
830.0
836.0
836.0
831.0
828.0
825.0
830.0
829.0
834.0
836.0
834.0
836.0
838.0
837.0
843.0
839.0
837.0
833.0
833.0
834.0
840.0
839.0
838.0
839.0
840.0
843.0
850.0
851.0
848.0
840.0
842.0
841.0
842.0
847.0
850.0
851.0
848.0
851.0
851.0
854.0
853.0
850.0
844.0
840.0
842.0
851.0
852.0
855.0
853.0
853.0
851.0
855.0
859.0
857.0
854.0
849.0
849.0
852.0
857.0
857.0
861.0
856.0
857.0
859.0
857.0
853.0
850.0
852.0
852.0
853.0
856.0
857.0
855.0
853.0
854.0
857.0
856.0
853.0
849.0
844.0
845.0
849.0
854.0
852.0
854.0
853.0
852.0
852.0
854.0
850.0
844.0
843.0
842.0
842.0
843.0
841.0
843.0
842.0
846.0
846.0
843.0
838.0
834.0
833.0
833.0
835.0
834.0
833.0
832.0
831.0
833.0
835.0
835.0
831.0
828.0
825.0
829.0
831.0
835.0
835.0
833.0
834.0
835.0
838.0
837.0
835.0
833.0
830.0
832.0
834.0
841.0
839.0
840.0
838.0
841.0
843.0
844.0
841.0
842.0
848.0
849.0
853.0
851.0
854.0
859.0
865.0
871.0
875.0
877.0
876.0
878.0
880.0
883.0
883.0
884.0
881.0
886.0
886.0
890.0
890.0
885.0
878.0
874.0
874.0
875.0
872.0
873.0
873.0
868.0
869.0
868.0
861.0
857.0
850.0
844.0
841.0
839.0
841.0
840.0
839.0
833.0
837.0
843.0
839.0
838.0
831.0
830.0
831.0
835.0
836.0
836.0
834.0
829.0
828.0
825.0
818.0
810.0
797.0
788.0
794.0
810.0
836.0
871.0
909.0
950.0
992.0
1030.0
1071.0
1112.0
1141.0
1163.0
1178.0
1184.0
1181.0
1170.0
1151.0
1127.0
1085.0
1025.0
956.0
897.0
855.0
840.0
838.0
849.0
861.0
868.0
864.0
859.0
852.0
843.0
831.0
828.0
822.0
821.0
825.0
823.0
824.0
823.0
822.0
826.0
831.0
832.0
832.0
828.0
826.0
825.0
827.0
825.0
826.0
824.0
823.0
825.0
830.0
833.0
830.0
828.0
822.0
822.0
823.0
828.0
831.0
830.0
832.0
831.0
836.0
838.0
839.0
836.0
832.0
827.0
825.0
829.0
833.0
835.0
835.0
834.0
836.0
840.0
841.0
839.0
833.0
832.0
838.0
837.0
841.0
840.0
837.0
843.0
846.0
848.0
847.0
845.0
845.0
843.0
844.0
844.0
844.0
845.0
848.0
852.0
855.0
859.0
857.0
853.0
848.0
849.0
851.0
848.0
851.0
851.0
850.0
848.0
851.0
855.0
856.0
848.0
846.0
844.0
844.0
847.0
845.0
843.0
846.0
846.0
849.0
850.0
847.0
843.0
838.0
838.0
838.0
839.0
843.0
843.0
843.0
842.0
844.0
847.0
845.0
845.0
841.0
837.0
835.0
836.0
835.0
838.0
836.0
834.0
836.0
837.0
835.0
832.0
826.0
824.0
825.0
826.0
827.0
824.0
826.0
826.0
827.0
831.0
827.0
823.0
823.0
825.0
825.0
825.0
825.0
825.0
828.0
830.0
830.0
833.0
828.0
829.0
829.0
827.0
830.0
832.0
832.0
830.0
834.0
837.0
844.0
847.0
846.0
844.0
842.0
841.0
846.0
847.0
847.0
847.0
851.0
856.0
864.0
871.0
872.0
871.0
874.0
879.0
882.0
883.0
878.0
876.0
876.0
879.0
884.0
883.0
883.0
875.0
872.0
865.0
869.0
871.0
871.0
865.0
862.0
860.0
857.0
852.0
847.0
843.0
832.0
833.0
832.0
833.0
831.0
830.0
830.0
829.0
833.0
835.0
834.0
828.0
829.0
829.0
830.0
830.0
829.0
822.0
820.0
813.0
807.0
803.0
796.0
795.0
802.0
826.0
855.0
892.0
932.0
969.0
1009.0
1047.0
1086.0
1120.0
1147.0
1165.0
1174.0
1176.0
1175.0
1167.0
1156.0
1137.0
1113.0
1077.0
1028.0
970.0
916.0
874.0
847.0
841.0
845.0
858.0
865.0
864.0
859.0
851.0
845.0
836.0
831.0
826.0
817.0
814.0
813.0
814.0
819.0
820.0
821.0
820.0
821.0
825.0
828.0
827.0
823.0
820.0
819.0
820.0
820.0
825.0
823.0
826.0
828.0
833.0
830.0
829.0
826.0
824.0
824.0
828.0
830.0
829.0
828.0
826.0
828.0
833.0
834.0
831.0
830.0
828.0
828.0
833.0
833.0
833.0
834.0
833.0
838.0
843.0
841.0
842.0
843.0
842.0
844.0
840.0
844.0
843.0
843.0
844.0
847.0
852.0
854.0
852.0
849.0
849.0
849.0
851.0
849.0
850.0
851.0
853.0
853.0
860.0
858.0
850.0
851.0
845.0
847.0
852.0
851.0
853.0
851.0
849.0
853.0
854.0
853.0
848.0
849.0
850.0
846.0
851.0
846.0
843.0
845.0
846.0
850.0
849.0
847.0
845.0
845.0
845.0
845.0
843.0
838.0
838.0
842.0
847.0
848.0
846.0
841.0
837.0
840.0
840.0
837.0
832.0
829.0
831.0
834.0
836.0
838.0
835.0
833.0
830.0
829.0
831.0
827.0
824.0
822.0
822.0
828.0
832.0
831.0
830.0
829.0
828.0
828.0
828.0
830.0
830.0
827.0
828.0
829.0
837.0
839.0
840.0
835.0
832.0
830.0
833.0
835.0
835.0
833.0
834.0
840.0
845.0
848.0
848.0
848.0
845.0
847.0
850.0
853.0
854.0
853.0
861.0
865.0
876.0
879.0
882.0
883.0
887.0
888.0
885.0
882.0
879.0
878.0
877.0
881.0
879.0
878.0
873.0
875.0
875.0
873.0
867.0
860.0
853.0
846.0
845.0
847.0
845.0
843.0
840.0
840.0
841.0
839.0
835.0
833.0
831.0
831.0
833.0
838.0
840.0
835.0
834.0
837.0
838.0
834.0
826.0
816.0
807.0
793.0
797.0
803.0
815.0
836.0
866.0
909.0
950.0
991.0
1029.0
1059.0
1093.0
1127.0
1155.0
1172.0
1181.0
1180.0
1179.0
1169.0
1152.0
1127.0
1085.0
1029.0
965.0
908.0
871.0
846.0
840.0
849.0
861.0
865.0
864.0
854.0
841.0
833.0
824.0
821.0
817.0
819.0
815.0
818.0
821.0
826.0
825.0
822.0
820.0
820.0
823.0
825.0
827.0
827.0
828.0
826.0
830.0
832.0
832.0
829.0
827.0
827.0
829.0
828.0
830.0
831.0
830.0
832.0
834.0
836.0
838.0
833.0
831.0
827.0
832.0
834.0
836.0
838.0
836.0
836.0
841.0
842.0
842.0
839.0
838.0
836.0
837.0
843.0
844.0
843.0
845.0
843.0
846.0
853.0
853.0
850.0
848.0
843.0
844.0
846.0
852.0
850.0
850.0
851.0
855.0
857.0
855.0
858.0
852.0
852.0
852.0
854.0
855.0
854.0
853.0
856.0
859.0
