# Simple Text Format
# Sampling Rate (Hz):= 360.00
# Resolution:= 12
# Labels:= ECG
906.0
905.0
907.0
913.0
917.0
921.0
921.0
922.0
921.0
925.0
924.0
929.0
931.0
929.0
924.0
919.0
917.0
915.0
914.0
911.0
909.0
909.0
916.0
910.0
906.0
900.0
891.0
888.0
886.0
881.0
880.0
877.0
874.0
877.0
876.0
880.0
881.0
876.0
871.0
871.0
870.0
876.0
874.0
873.0
869.0
869.0
871.0
872.0
869.0
859.0
849.0
836.0
827.0
827.0
832.0
849.0
866.0
896.0
934.0
981.0
1025.0
1066.0
1098.0
1126.0
1159.0
1184.0
1203.0
1211.0
1213.0
1209.0
1205.0
1198.0
1187.0
1161.0
1118.0
1061.0
997.0
944.0
910.0
891.0
888.0
891.0
899.0
905.0
913.0
914.0
906.0
890.0
876.0
864.0
861.0
858.0
855.0
856.0
856.0
858.0
860.0
864.0
862.0
860.0
857.0
856.0
860.0
865.0
863.0
864.0
864.0
865.0
867.0
873.0
871.0
868.0
866.0
864.0
865.0
866.0
864.0
863.0
862.0
866.0
871.0
873.0
872.0
866.0
863.0
860.0
863.0
866.0
867.0
867.0
869.0
867.0
870.0
872.0
876.0
872.0
867.0
866.0
866.0
871.0
871.0
873.0
874.0
874.0
875.0
880.0
880.0
877.0
873.0
873.0
874.0
873.0
878.0
877.0
876.0
876.0
879.0
884.0
881.0
883.0
875.0
875.0
871.0
877.0
878.0
883.0
883.0
884.0
886.0
886.0
885.0
880.0
879.0
878.0
878.0
879.0
881.0
880.0
875.0
876.0
877.0
882.0
881.0
882.0
875.0
872.0
872.0
871.0
876.0
873.0
872.0
873.0
872.0
875.0
876.0
877.0
870.0
868.0
866.0
865.0
864.0
866.0
868.0
870.0
866.0
865.0
869.0
865.0
861.0
862.0
858.0
855.0
857.0
863.0
862.0
861.0
860.0
857.0
855.0
860.0
859.0
854.0
850.0
852.0
854.0
858.0
859.0
862.0
857.0
856.0
859.0
861.0
860.0
861.0
858.0
857.0
859.0
861.0
865.0
866.0
866.0
866.0
868.0
867.0
865.0
860.0
857.0
859.0
863.0
867.0
864.0
865.0
867.0
871.0
873.0
875.0
874.0
872.0
877.0
882.0
891.0
894.0
896.0
897.0
898.0
906.0
908.0
909.0
904.0
903.0
900.0
901.0
902.0
902.0
904.0
896.0
894.0
895.0
898.0
895.0
889.0
882.0
878.0
877.0
869.0
866.0
866.0
861.0
863.0
864.0
863.0
859.0
856.0
849.0
848.0
850.0
854.0
855.0
854.0
856.0
856.0
856.0
858.0
853.0
847.0
836.0
830.0
820.0
812.0
810.0
820.0
841.0
873.0
917.0
962.0
1005.0
1043.0
1082.0
1117.0
1149.0
1170.0
1184.0
1192.0
1194.0
1190.0
1182.0
1163.0
1138.0
1098.0
1043.0
982.0
926.0
883.0
857.0
855.0
864.0
873.0
880.0
879.0
871.0
860.0
851.0
843.0
838.0
835.0
834.0
832.0
836.0
840.0
841.0
838.0
834.0
834.0
834.0
837.0
838.0
834.0
834.0
836.0
838.0
841.0
842.0
838.0
834.0
833.0
835.0
838.0
841.0
839.0
839.0
837.0
841.0
842.0
847.0
845.0
845.0
840.0
839.0
842.0
842.0
843.0
841.0
845.0
849.0
851.0
850.0
850.0
847.0
846.0
849.0
852.0
848.0
849.0
848.0
853.0
855.0
858.0
855.0
855.0
854.0
854.0
855.0
854.0
853.0
847.0
848.0
854.0
858.0
858.0
860.0
857.0
855.0
857.0
855.0
855.0
855.0
852.0
855.0
858.0
861.0
861.0
858.0
857.0
853.0
854.0
855.0
850.0
849.0
852.0
850.0
854.0
854.0
855.0
852.0
851.0
851.0
851.0
853.0
851.0
848.0
844.0
846.0
845.0
850.0
852.0
850.0
845.0
845.0
842.0
845.0
843.0
840.0
840.0
839.0
841.0
843.0
841.0
842.0
839.0
836.0
838.0
836.0
831.0
830.0
826.0
824.0
831.0
836.0
835.0
830.0
828.0
824.0
827.0
827.0
824.0
825.0
824.0
825.0
828.0
835.0
832.0
834.0
835.0
834.0
831.0
836.0
832.0
832.0
831.0
831.0
835.0
841.0
839.0
839.0
840.0
835.0
835.0
837.0
836.0
837.0
837.0
838.0
839.0
844.0
851.0
852.0
850.0
849.0
850.0
854.0
860.0
861.0
863.0
866.0
872.0
880.0
883.0
889.0
884.0
881.0
880.0
882.0
882.0
879.0
876.0
873.0
874.0
874.0
877.0
875.0
872.0
869.0
866.0
861.0
852.0
843.0
837.0
835.0
837.0
840.0
841.0
838.0
835.0
832.0
829.0
829.0
829.0
827.0
824.0
825.0
828.0
830.0
837.0
833.0
832.0
827.0
822.0
818.0
816.0
805.0
796.0
787.0
784.0
791.0
800.0
822.0
851.0
881.0
912.0
951.0
987.0
1026.0
1057.0
1088.0
1119.0
1144.0
1163.0
1176.0
1178.0
1174.0
1163.0
1145.0
1126.0
1110.0
1076.0
1033.0
975.0
915.0
873.0
851.0
843.0
845.0
856.0
860.0
858.0
855.0
849.0
841.0
831.0
823.0
818.0
815.0
817.0
818.0
814.0
812.0
811.0
811.0
815.0
816.0
814.0
817.0
817.0
820.0
820.0
822.0
819.0
816.0
812.0
814.0
815.0
817.0
819.0
815.0
817.0
816.0
820.0
819.0
820.0
819.0
813.0
816.0
821.0
818.0
820.0
818.0
818.0
821.0
824.0
823.0
826.0
823.0
824.0
822.0
824.0
825.0
828.0
829.0
825.0
826.0
831.0
834.0
835.0
832.0
828.0
828.0
828.0
831.0
837.0
837.0
835.0
833.0
833.0
837.0
837.0
833.0
829.0
828.0
833.0
837.0
838.0
836.0
838.0
839.0
842.0
841.0
837.0
836.0
834.0
833.0
833.0
836.0
837.0
835.0
833.0
836.0
839.0
840.0
834.0
829.0
826.0
827.0
828.0
830.0
836.0
835.0
835.0
832.0
833.0
834.0
833.0
830.0
827.0
826.0
826.0
833.0
832.0
830.0
828.0
828.0
828.0
832.0
828.0
824.0
819.0
818.0
818.0
817.0
818.0
819.0
817.0
818.0
818.0
815.0
817.0
814.0
811.0
809.0
811.0
815.0
816.0
818.0
818.0
816.0
818.0
820.0
818.0
816.0
814.0
815.0
815.0
819.0
822.0
821.0
820.0
818.0
824.0
823.0
821.0
819.0
816.0
820.0
824.0
824.0
823.0
824.0
829.0
831.0
836.0
837.0
836.0
832.0
829.0
831.0
833.0
836.0
842.0
843.0
846.0
856.0
859.0
862.0
862.0
863.0
863.0
865.0
864.0
865.0
864.0
863.0
864.0
869.0
867.0
863.0
858.0
854.0
850.0
851.0
850.0
852.0
849.0
843.0
837.0
833.0
830.0
830.0
827.0
826.0
820.0
818.0
820.0
822.0
822.0
819.0
819.0
819.0
821.0
821.0
825.0
819.0
815.0
814.0
816.0
815.0
813.0
810.0
799.0
792.0
783.0
780.0
791.0
806.0
832.0
870.0
916.0
966.0
1008.0
1048.0
1084.0
1118.0
1142.0
1157.0
1160.0
1159.0
1151.0
1143.0
1130.0
1113.0
1079.0
1025.0
967.0
911.0
867.0
843.0
831.0
831.0
838.0
846.0
847.0
847.0
834.0
828.0
819.0
815.0
813.0
810.0
811.0
807.0
804.0
807.0
808.0
809.0
809.0
812.0
811.0
813.0
815.0
815.0
807.0
801.0
802.0
804.0
811.0
812.0
811.0
807.0
806.0
813.0
814.0
815.0
814.0
812.0
809.0
807.0
811.0
813.0
812.0
816.0
812.0
815.0
819.0
820.0
818.0
815.0
816.0
815.0
818.0
820.0
818.0
819.0
822.0
827.0
829.0
830.0
828.0
826.0
821.0
826.0
828.0
830.0
831.0
829.0
832.0
834.0
834.0
834.0
832.0
828.0
827.0
829.0
829.0
832.0
834.0
832.0
832.0
837.0
834.0
838.0
838.0
836.0
832.0
832.0
832.0
836.0
838.0
837.0
834.0
835.0
838.0
836.0
837.0
835.0
830.0
826.0
827.0
828.0
835.0
832.0
829.0
830.0
827.0
829.0
830.0
827.0
829.0
824.0
827.0
829.0
831.0
833.0
831.0
828.0
829.0
829.0
828.0
826.0
824.0
820.0
820.0
823.0
823.0
821.0
819.0
820.0
821.0
819.0
817.0
814.0
811.0
808.0
808.0
811.0
815.0
815.0
813.0
815.0
819.0
816.0
817.0
814.0
809.0
810.0
812.0
814.0
815.0
815.0
818.0
821.0
824.0
822.0
819.0
817.0
814.0
818.0
819.0
820.0
824.0
822.0
818.0
824.0
827.0
830.0
830.0
829.0
828.0
829.0
830.0
830.0
837.0
836.0
833.0
836.0
843.0
849.0
854.0
857.0
854.0
856.0
860.0
863.0
871.0
870.0
871.0
870.0
868.0
873.0
868.0
865.0
860.0
856.0
855.0
856.0
856.0
854.0
850.0
851.0
845.0
842.0
837.0
833.0
825.0
821.0
819.0
823.0
823.0
822.0
821.0
820.0
822.0
822.0
822.0
819.0
814.0
811.0
813.0
815.0
817.0
817.0
814.0
810.0
806.0
804.0
792.0
781.0
771.0
775.0
786.0
811.0
848.0
885.0
922.0
959.0
995.0
1034.0
1066.0
1097.0
1124.0
1141.0
1156.0
1164.0
1167.0
1160.0
1142.0
1122.0
1098.0
1056.0
1004.0
942.0
888.0
848.0
832.0
832.0
842.0
850.0
854.0
854.0
847.0
836.0
828.0
816.0
810.0
805.0
807.0
808.0
808.0
811.0
811.0
811.0
815.0
815.0
811.0
807.0
810.0
808.0
810.0
815.0
811.0
811.0
808.0
811.0
813.0
814.0
816.0
807.0
813.0
810.0
813.0
814.0
817.0
818.0
817.0
820.0
822.0
819.0
821.0
818.0
814.0
814.0
815.0
817.0
820.0
821.0
823.0
821.0
822.0
825.0
827.0
825.0
821.0
817.0
820.0
822.0
828.0
833.0
830.0
827.0
832.0
832.0
837.0
836.0
833.0
830.0
829.0
834.0
832.0
836.0
838.0
835.0
837.0
837.0
840.0
840.0
834.0
831.0
828.0
835.0
839.0
839.0
839.0
837.0
841.0
839.0
842.0
838.0
830.0
833.0
833.0
833.0
833.0
834.0
830.0
830.0
835.0
833.0
835.0
832.0
825.0
822.0
823.0
826.0
829.0
829.0
829.0
829.0
832.0
830.0
830.0
825.0
820.0
821.0
821.0
822.0
821.0
822.0
819.0
825.0
826.0
826.0
826.0
819.0
812.0
814.0
816.0
814.0
816.0
814.0
814.0
817.0
817.0
819.0
818.0
814.0
810.0
808.0
812.0
814.0
816.0
816.0
818.0
819.0
823.0
822.0
822.0
821.0
818.0
817.0
821.0
821.0
824.0
822.0
823.0
828.0
830.0
832.0
828.0
823.0
823.0
825.0
828.0
830.0
829.0
832.0
833.0
833.0
836.0
837.0
841.0
839.0
840.0
845.0
852.0
857.0
864.0
867.0
867.0
870.0
874.0
869.0
870.0
863.0
864.0
858.0
863.0
864.0
867.0
863.0
860.0
858.0
858.0
860.0
859.0
856.0
846.0
838.0
832.0
831.0
832.0
828.0
824.0
827.0
825.0
826.0
827.0
823.0
818.0
813.0
816.0
820.0
822.0
826.0
826.0
823.0
823.0
824.0
823.0
820.0
814.0
800.0
788.0
781.0
778.0
783.0
795.0
816.0
846.0
885.0
926.0
965.0
1002.0
1034.0
1070.0
1103.0
1132.0
1154.0
1164.0
1167.0
1166.0
1163.0
1155.0
1137.0
1107.0
1065.0
1008.0
949.0
897.0
861.0
843.0
837.0
843.0
855.0
861.0
861.0
852.0
837.0
823.0
816.0
814.0
811.0
811.0
810.0
806.0
807.0
807.0
811.0
807.0
805.0
802.0
806.0
809.0
812.0
812.0
810.0
812.0
812.0
814.0
812.0
813.0
809.0
809.0
807.0
813.0
818.0
821.0
820.0
818.0
818.0
819.0
817.0
817.0
815.0
812.0
811.0
813.0
816.0
819.0
819.0
822.0
824.0
825.0
822.0
819.0
816.0
816.0
820.0
825.0
830.0
826.0
826.0
825.0
832.0
833.0
830.0
831.0
829.0
826.0
830.0
832.0
834.0
834.0
835.0
836.0
840.0
839.0
840.0
839.0
837.0
834.0
836.0
840.0
843.0
843.0
842.0
838.0
837.0
842.0
841.0
844.0
841.0
837.0
837.0
840.0
844.0
844.0
841.0
840.0
838.0
843.0
840.0
839.0
839.0
837.0
839.0
842.0
846.0
848.0
845.0
842.0
840.0
839.0
836.0
838.0
837.0
833.0
832.0
832.0
838.0
839.0
838.0
836.0
834.0
835.0
834.0
831.0
825.0
823.0
823.0
825.0
828.0
828.0
829.0
823.0
823.0
824.0
824.0
824.0
824.0
818.0
819.0
816.0
821.0
824.0
830.0
825.0
824.0
825.0
827.0
829.0
825.0
824.0
821.0
823.0
829.0
833.0
836.0
834.0
832.0
829.0
831.0
831.0
831.0
829.0
829.0
828.0
832.0
837.0
842.0
838.0
837.0
837.0
835.0
841.0
844.0
841.0
842.0
843.0
846.0
853.0
862.0
866.0
869.0
868.0
872.0
874.0
876.0
881.0
879.0
877.0
878.0
879.0
882.0
884.0
880.0
877.0
871.0
870.0
868.0
867.0
868.0
865.0
860.0
856.0
859.0
860.0
846.0
844.0
837.0
834.0
837.0
833.0
833.0
830.0
829.0
832.0
839.0
837.0
836.0
829.0
830.0
830.0
834.0
835.0
829.0
826.0
825.0
823.0
817.0
806.0
794.0
786.0
791.0
807.0
834.0
867.0
906.0
945.0
983.0
1015.0
1052.0
1088.0
1117.0
1143.0
1163.0
1174.0
1182.0
1183.0
1178.0
1166.0
1146.0
1126.0
1093.0
1047.0
988.0
932.0
883.0
854.0
845.0
850.0
861.0
873.0
876.0
875.0
867.0
861.0
849.0
840.0
830.0
819.0
815.0
819.0
819.0
819.0
820.0
821.0
827.0
828.0
830.0
829.0
830.0
823.0
822.0
826.0
828.0
831.0
830.0
825.0
823.0
824.0
822.0
826.0
825.0
827.0
821.0
823.0
825.0
831.0
829.0
828.0
827.0
831.0
833.0
835.0
833.0
830.0
826.0
825.0
826.0
828.0
832.0
833.0
830.0
836.0
834.0
836.0
836.0
835.0
834.0
832.0
837.0
837.0
842.0
843.0
843.0
839.0
839.0
842.0
845.0
846.0
843.0
840.0
839.0
842.0
847.0
852.0
849.0
849.0
843.0
847.0
848.0
852.0
851.0
847.0
847.0
849.0
856.0
856.0
854.0
855.0
854.0
855.0
853.0
851.0
848.0
847.0
851.0
855.0
857.0
856.0
855.0
854.0
851.0
851.0
854.0
852.0
849.0
845.0
844.0
844.0
852.0
852.0
852.0
850.0
848.0
848.0
849.0
847.0
843.0
842.0
840.0
843.0
846.0
849.0
850.0
847.0
844.0
845.0
843.0
839.0
840.0
837.0
834.0
836.0
837.0
839.0
839.0
842.0
835.0
836.0
833.0
838.0
840.0
840.0
836.0
836.0
836.0
838.0
845.0
842.0
840.0
838.0
837.0
838.0
840.0
836.0
838.0
837.0
843.0
848.0
850.0
851.0
848.0
846.0
851.0
850.0
851.0
852.0
851.0
856.0
857.0
857.0
858.0
857.0
858.0
862.0
869.0
871.0
870.0
873.0
876.0
882.0
888.0
894.0
895.0
895.0
892.0
892.0
892.0
890.0
889.0
882.0
879.0
878.0
881.0
884.0
884.0
880.0
873.0
871.0
868.0
863.0
857.0
852.0
848.0
844.0
845.0
847.0
849.0
846.0
843.0
841.0
842.0
844.0
845.0
842.0
839.0
838.0
841.0
843.0
842.0
842.0
834.0
830.0
827.0
821.0
809.0
798.0
790.0
793.0
814.0
845.0
882.0
927.0
970.0
1012.0
1050.0
1090.0
1122.0
1143.0
1165.0
1176.0
1186.0
1187.0
1181.0
1167.0
1145.0
1112.0
1062.0
1001.0
942.0
888.0
852.0
842.0
850.0
861.0
870.0
876.0
873.0
865.0
860.0
849.0
838.0
831.0
822.0
823.0
826.0
830.0
837.0
835.0
829.0
828.0
828.0
832.0
834.0
832.0
829.0
823.0
824.0
835.0
840.0
838.0
840.0
834.0
837.0
839.0
841.0
842.0
836.0
832.0
832.0
837.0
841.0
844.0
845.0
834.0
831.0
829.0
827.0
830.0
831.0
833.0
834.0
841.0
843.0
839.0
836.0
832.0
837.0
842.0
843.0
842.0
840.0
842.0
846.0
848.0
852.0
852.0
848.0
849.0
851.0
854.0
853.0
851.0
846.0
847.0
850.0
852.0
852.0
853.0
848.0
848.0
850.0
854.0
852.0
852.0
852.0
852.0
856.0
861.0
862.0
860.0
854.0
852.0
852.0
855.0
855.0
850.0
848.0
850.0
852.0
858.0
858.0
859.0
854.0
850.0
852.0
853.0
852.0
855.0
850.0
849.0
852.0
856.0
857.0
860.0
855.0
853.0
848.0
847.0
850.0
851.0
846.0
849.0
846.0
851.0
853.0
851.0
846.0
844.0
845.0
844.0
843.0
840.0
836.0
839.0
841.0
845.0
846.0
844.0
840.0
837.0
840.0
836.0
837.0
839.0
836.0
834.0
839.0
844.0
845.0
846.0
844.0
843.0
842.0
843.0
844.0
839.0
841.0
842.0
851.0
858.0
860.0
862.0
854.0
857.0
856.0
857.0
863.0
868.0
867.0
869.0
875.0
882.0
891.0
890.0
886.0
885.0
884.0
886.0
889.0
890.0
887.0
887.0
887.0
889.0
886.0
884.0
883.0
876.0
868.0
870.0
872.0
871.0
866.0
858.0
855.0
853.0
854.0
851.0
846.0
843.0
841.0
840.0
837.0
836.0
833.0
835.0
838.0
842.0
843.0
838.0
836.0
833.0
833.0
831.0
823.0
815.0
800.0
791.0
792.0
797.0
809.0
832.0
862.0
906.0
952.0
993.0
1029.0
1060.0
1088.0
1118.0
1146.0
1164.0
1171.0
1171.0
1167.0
1158.0
1150.0
1134.0
1103.0
1053.0
991.0
934.0
884.0
858.0
845.0
847.0
853.0
864.0
867.0
870.0
864.0
850.0
838.0
829.0
826.0
825.0
829.0
830.0
826.0
824.0
824.0
825.0
825.0
822.0
820.0
821.0
824.0
828.0
833.0
833.0
828.0
829.0
829.0
830.0
830.0
823.0
820.0
822.0
827.0
829.0
828.0
826.0
826.0
825.0
833.0
833.0
830.0
828.0
826.0
831.0
834.0
835.0
839.0
836.0
838.0
838.0
841.0
842.0
839.0
836.0
836.0
840.0
845.0
847.0
848.0
845.0
846.0
849.0
851.0
847.0
847.0
842.0
843.0
844.0
850.0
851.0
853.0
849.0
850.0
852.0
853.0
854.0
849.0
847.0
845.0
846.0
853.0
855.0
856.0
855.0
855.0
852.0
853.0
852.0
849.0
847.0
844.0
848.0
850.0
849.0
850.0
848.0
849.0
851.0
851.0
846.0
845.0
842.0
839.0
846.0
842.0
846.0
845.0
845.0
845.0
849.0
847.0
843.0
838.0
836.0
837.0
839.0
842.0
842.0
840.0
839.0
840.0
838.0
839.0
835.0
830.0
829.0
831.0
830.0
831.0
831.0
830.0
831.0
832.0
833.0
835.0
831.0
827.0
827.0
826.0
829.0
830.0
833.0
832.0
832.0
833.0
838.0
838.0
834.0
830.0
828.0
827.0
830.0
831.0
837.0
835.0
836.0
834.0
839.0
840.0
837.0
835.0
839.0
840.0
843.0
845.0
847.0
846.0
850.0
854.0
857.0
859.0
860.0
861.0
866.0
873.0
875.0
877.0
876.0
880.0
884.0
885.0
884.0
880.0
876.0
874.0
876.0
872.0
870.0
867.0
865.0
864.0
865.0
863.0
859.0
848.0
843.0
836.0
839.0
835.0
829.0
828.0
826.0
830.0
832.0
835.0
831.0
825.0
821.0
821.0
819.0
821.0
821.0
819.0
820.0
821.0
820.0
814.0
809.0
795.0
783.0
781.0
787.0
803.0
827.0
861.0
899.0
940.0
980.0
1017.0
1048.0
1080.0
1109.0
1133.0
1151.0
1160.0
1157.0
1149.0
1143.0
1133.0
1113.0
1073.0
1016.0
948.0
888.0
847.0
827.0
821.0
828.0
840.0
851.0
851.0
849.0
838.0
826.0
818.0
809.0
808.0
810.0
806.0
805.0
806.0
808.0
810.0
817.0
817.0
815.0
812.0
814.0
811.0
813.0
815.0
812.0
809.0
812.0
818.0
821.0
822.0
817.0
816.0
813.0
815.0
817.0
819.0
816.0
813.0
815.0
817.0
819.0
823.0
818.0
816.0
817.0
820.0
820.0
820.0
819.0
821.0
824.0
827.0
828.0
829.0
828.0
824.0
824.0
826.0
827.0
825.0
825.0
825.0
827.0
835.0
837.0
837.0
835.0
833.0
834.0
834.0
834.0
832.0
830.0
832.0
833.0
839.0
841.0
841.0
836.0
834.0
831.0
838.0
837.0
835.0
832.0
831.0
834.0
837.0
839.0
843.0
840.0
834.0
830.0
833.0
831.0
832.0
829.0
828.0
827.0
828.0
836.0
834.0
831.0
827.0
824.0
822.0
826.0
828.0
827.0
827.0
824.0
825.0
829.0
830.0
832.0
828.0
818.0
818.0
819.0
821.0
820.0
819.0
818.0
817.0
818.0
821.0
823.0
819.0
815.0
811.0
808.0
808.0
810.0
810.0
811.0
807.0
805.0
807.0
812.0
811.0
808.0
806.0
806.0
808.0
807.0
806.0
805.0
809.0
813.0
813.0
816.0
816.0
811.0
810.0
810.0
812.0
815.0
818.0
817.0
817.0
815.0
816.0
821.0
827.0
822.0
820.0
819.0
819.0
824.0
825.0
829.0
831.0
836.0
843.0
851.0
850.0
849.0
852.0
850.0
854.0
855.0
859.0
862.0
859.0
857.0
858.0
859.0
856.0
855.0
851.0
845.0
843.0
842.0
845.0
848.0
845.0
839.0
835.0
827.0
825.0
823.0
820.0
812.0
808.0
807.0
810.0
814.0
817.0
814.0
813.0
810.0
807.0
807.0
807.0
803.0
800.0
801.0
806.0
809.0
805.0
800.0
787.0
780.0
773.0
773.0
770.0
779.0
791.0
822.0
853.0
896.0
933.0
969.0
998.0
1027.0
1057.0
1087.0
1112.0
1127.0
1136.0
1138.0
1136.0
1129.0
1122.0
1109.0
1084.0
1043.0
989.0
928.0
876.0
838.0
815.0
806.0
811.0
823.0
836.0
845.0
841.0
832.0
817.0
805.0
799.0
797.0
793.0
793.0
790.0
790.0
792.0
797.0
797.0
796.0
793.0
790.0
790.0
789.0
796.0
796.0
794.0
795.0
792.0
795.0
802.0
805.0
802.0
795.0
795.0
795.0
795.0
793.0
797.0
796.0
795.0
795.0
804.0
803.0
800.0
800.0
799.0
798.0
801.0
801.0
802.0
803.0
805.0
811.0
811.0
810.0
809.0
804.0
806.0
807.0
812.0
809.0
806.0
809.0
810.0
812.0
818.0
815.0
812.0
812.0
811.0
815.0
818.0
813.0
815.0
814.0
815.0
820.0
824.0
824.0
820.0
819.0
819.0
820.0
819.0
816.0
816.0
817.0
817.0
823.0
826.0
821.0
817.0
814.0
817.0
815.0
817.0
814.0
812.0
811.0
816.0
818.0
821.0
818.0
814.0
814.0
808.0
811.0
814.0
813.0
811.0
810.0
811.0
813.0
814.0
815.0
810.0
808.0
808.0
807.0
805.0
804.0
800.0
804.0
809.0
810.0
809.0
807.0
802.0
800.0
802.0
799.0
800.0
794.0
792.0
795.0
798.0
801.0
801.0
799.0
797.0
796.0
796.0
799.0
795.0
792.0
791.0
793.0
795.0
799.0
801.0
798.0
798.0
797.0
798.0
802.0
801.0
798.0
796.0
798.0
802.0
805.0
809.0
807.0
803.0
805.0
804.0
810.0
814.0
811.0
810.0
812.0
813.0
823.0
829.0
831.0
830.0
827.0
831.0
834.0
838.0
845.0
844.0
842.0
847.0
849.0
850.0
849.0
844.0
840.0
840.0
839.0
832.0
826.0
824.0
827.0
833.0
828.0
822.0
817.0
811.0
807.0
807.0
805.0
802.0
798.0
796.0
800.0
801.0
803.0
803.0
798.0
792.0
794.0
795.0
799.0
797.0
794.0
791.0
789.0
794.0
787.0
783.0
767.0
755.0
750.0
756.0
772.0
792.0
822.0
855.0
897.0
940.0
980.0
1014.0
1045.0
1077.0
1102.0
1120.0
1130.0
1134.0
1133.0
1123.0
1114.0
1101.0
1082.0
1047.0
995.0
927.0
869.0
829.0
808.0
803.0
805.0
814.0
822.0
826.0
826.0
819.0
806.0
793.0
784.0
780.0
780.0
781.0
778.0
779.0
783.0
786.0
790.0
789.0
787.0
789.0
789.0
791.0
788.0
786.0
783.0
782.0
787.0
790.0
789.0
790.0
785.0
786.0
789.0
792.0
791.0
789.0
786.0
787.0
790.0
797.0
796.0
799.0
793.0
791.0
794.0
794.0
795.0
797.0
794.0
793.0
795.0
799.0
803.0
805.0
803.0
800.0
801.0
802.0
803.0
805.0
800.0
798.0
800.0
802.0
806.0
814.0
811.0
807.0
805.0
807.0
807.0
807.0
807.0
806.0
806.0
811.0
814.0
819.0
815.0
814.0
811.0
809.0
810.0
811.0
806.0
806.0
809.0
812.0
814.0
818.0
813.0
809.0
809.0
809.0
811.0
812.0
808.0
806.0
805.0
809.0
813.0
809.0
812.0
809.0
807.0
806.0
808.0
806.0
799.0
799.0
797.0
800.0
802.0
808.0
807.0
803.0
800.0
800.0
799.0
802.0
798.0
796.0
793.0
794.0
799.0
804.0
801.0
796.0
794.0
789.0
790.0
789.0
793.0
788.0
785.0
785.0
787.0
790.0
791.0
790.0
790.0
787.0
786.0
789.0
787.0
789.0
790.0
790.0
790.0
796.0
800.0
800.0
799.0
797.0
795.0
801.0
797.0
798.0
799.0
797.0
802.0
807.0
810.0
809.0
804.0
805.0
804.0
806.0
806.0
808.0
811.0
818.0
828.0
838.0
842.0
844.0
843.0
844.0
849.0
850.0
848.0
843.0
843.0
846.0
847.0
850.0
848.0
845.0
839.0
833.0
834.0
838.0
838.0
836.0
833.0
827.0
825.0
822.0
820.0
815.0
809.0
806.0
803.0
802.0
803.0
802.0
801.0
800.0
796.0
804.0
803.0
803.0
797.0
796.0
794.0
793.0
794.0
795.0
794.0
790.0
787.0
782.0
775.0
764.0
759.0
759.0
780.0
804.0
844.0
886.0
931.0
973.0
1017.0
1055.0
1091.0
1118.0
1134.0
1146.0
1149.0
1150.0
1142.0
1130.0
1106.0
1080.0
1039.0
986.0
927.0
873.0
832.0
809.0
806.0
815.0
831.0
839.0
840.0
835.0
825.0
821.0
811.0
801.0
794.0
789.0
787.0
792.0
793.0
791.0
791.0
790.0
791.0
794.0
796.0
795.0
792.0
788.0
789.0
793.0
796.0
796.0
795.0
792.0
796.0
800.0
803.0
802.0
797.0
798.0
795.0
796.0
796.0
797.0
795.0
795.0
799.0
803.0
805.0
804.0
802.0
794.0
794.0
792.0
795.0
795.0
799.0
799.0
801.0
806.0
812.0
807.0
807.0
807.0
808.0
809.0
808.0
809.0
810.0
811.0
816.0
818.0
819.0
818.0
816.0
819.0
818.0
821.0
818.0
815.0
811.0
817.0
822.0
825.0
828.0
822.0
819.0
819.0
821.0
820.0
824.0
820.0
819.0
819.0
823.0
828.0
828.0
826.0
820.0
819.0
818.0
818.0
818.0
818.0
817.0
819.0
821.0
827.0
828.0
823.0
816.0
816.0
815.0
817.0
815.0
815.0
812.0
812.0
813.0
819.0
825.0
825.0
821.0
818.0
818.0
816.0
811.0
809.0
808.0
811.0
814.0
810.0
808.0
804.0
806.0
807.0
810.0
804.0
801.0
804.0
806.0
809.0
809.0
807.0
806.0
806.0
811.0
812.0
811.0
809.0
808.0
810.0
811.0
813.0
816.0
816.0
819.0
826.0
826.0
824.0
824.0
823.0
828.0
833.0
839.0
846.0
849.0
852.0
856.0
863.0
861.0
856.0
852.0
848.0
851.0
853.0
856.0
857.0
856.0
857.0
859.0
856.0
855.0
848.0
844.0
837.0
836.0
833.0
831.0
827.0
825.0
823.0
823.0
820.0
818.0
813.0
812.0
807.0
810.0
814.0
817.0
818.0
820.0
821.0
819.0
814.0
805.0
800.0
797.0
795.0
789.0
781.0
768.0
767.0
772.0
784.0
811.0
841.0
876.0
914.0
956.0
997.0
1029.0
1062.0
1091.0
1114.0
1129.0
1141.0
1145.0
1142.0
1136.0
1118.0
1101.0
1073.0
1030.0
972.0
910.0
856.0
824.0
814.0
821.0
831.0
841.0
844.0
842.0
835.0
827.0
818.0
808.0
801.0
799.0
804.0
808.0
810.0
806.0
805.0
802.0
805.0
805.0
806.0
806.0
809.0
812.0
816.0
821.0
817.0
811.0
803.0
802.0
802.0
804.0
805.0
810.0
811.0
814.0
818.0
816.0
814.0
812.0
812.0
813.0
817.0
813.0
812.0
812.0
815.0
820.0
822.0
821.0
814.0
812.0
809.0
813.0
816.0
820.0
819.0
819.0
824.0
826.0
833.0
834.0
833.0
831.0
828.0
828.0
824.0
829.0
824.0
828.0
829.0
830.0
835.0
839.0
834.0
832.0
827.0
832.0
832.0
833.0
831.0
831.0
829.0
832.0
834.0
834.0
829.0
829.0
831.0
832.0
835.0
837.0
833.0
832.0
830.0
834.0
830.0
830.0
830.0
828.0
831.0
831.0
829.0
829.0
827.0
826.0
826.0
829.0
829.0
828.0
828.0
823.0
822.0
825.0
826.0
822.0
822.0
821.0
821.0
825.0
830.0
831.0
827.0
824.0
818.0
820.0
817.0
820.0
819.0
821.0
817.0
820.0
823.0
825.0
819.0
813.0
810.0
810.0
814.0
815.0
815.0
815.0
814.0
814.0
820.0
824.0
825.0
823.0
820.0
819.0
819.0
821.0
821.0
824.0
826.0
824.0
830.0
830.0
835.0
835.0
831.0
831.0
826.0
828.0
834.0
837.0
839.0
841.0
845.0
854.0
859.0
863.0
865.0
863.0
861.0
860.0
866.0
862.0
867.0
866.0
867.0
869.0
869.0
867.0
863.0
854.0
853.0
857.0
858.0
855.0
852.0
846.0
846.0
845.0
842.0
843.0
837.0
829.0
824.0
827.0
828.0
826.0
825.0
824.0
825.0
824.0
827.0
829.0
827.0
823.0
822.0
821.0
823.0
824.0
824.0
817.0
810.0
803.0
796.0
791.0
786.0
791.0
807.0
832.0
865.0
907.0
949.0
984.0
1016.0
1044.0
1071.0
1101.0
1124.0
1139.0
1139.0
1140.0
1134.0
1134.0
1132.0
1123.0
1103.0
1069.0
1018.0
957.0
900.0
855.0
827.0
816.0
828.0
