# Simple Text Format
# Sampling Rate (Hz):= 360.00
# Resolution:= 12
# Labels:= ECG
825.0
827.0
827.0
826.0
824.0
820.0
817.0
818.0
822.0
831.0
832.0
830.0
834.0
838.0
842.0
844.0
841.0
841.0
841.0
846.0
853.0
860.0
864.0
868.0
868.0
869.0
877.0
878.0
874.0
871.0
867.0
866.0
866.0
866.0
862.0
861.0
860.0
862.0
865.0
864.0
859.0
851.0
846.0
843.0
840.0
839.0
835.0
833.0
833.0
829.0
832.0
829.0
824.0
822.0
819.0
817.0
818.0
822.0
826.0
826.0
823.0
823.0
826.0
826.0
823.0
816.0
809.0
799.0
793.0
790.0
787.0
787.0
794.0
807.0
835.0
869.0
906.0
945.0
978.0
1009.0
1041.0
1068.0
1105.0
1131.0
1147.0
1157.0
1159.0
1158.0
1146.0
1132.0
1117.0
1087.0
1045.0
989.0
935.0
888.0
854.0
836.0
836.0
846.0
852.0
858.0
854.0
844.0
834.0
825.0
823.0
821.0
817.0
811.0
811.0
810.0
809.0
811.0
809.0
808.0
807.0
804.0
814.0
815.0
820.0
819.0
817.0
813.0
809.0
808.0
813.0
812.0
810.0
809.0
812.0
816.0
820.0
817.0
818.0
814.0
812.0
811.0
816.0
818.0
816.0
815.0
818.0
815.0
822.0
826.0
827.0
823.0
819.0
817.0
817.0
818.0
821.0
822.0
821.0
822.0
829.0
829.0
833.0
830.0
828.0
827.0
828.0
832.0
831.0
833.0
828.0
831.0
835.0
838.0
840.0
836.0
833.0
833.0
834.0
836.0
838.0
839.0
839.0
840.0
845.0
847.0
842.0
842.0
840.0
834.0
839.0
838.0
842.0
838.0
835.0
838.0
842.0
844.0
843.0
837.0
837.0
833.0
829.0
833.0
833.0
832.0
831.0
831.0
836.0
841.0
839.0
836.0
832.0
829.0
828.0
832.0
833.0
830.0
829.0
828.0
832.0
835.0
834.0
834.0
828.0
826.0
824.0
822.0
821.0
821.0
819.0
818.0
819.0
821.0
821.0
822.0
816.0
812.0
812.0
813.0
817.0
813.0
813.0
812.0
815.0
819.0
819.0
817.0
813.0
813.0
815.0
815.0
815.0
817.0
816.0
823.0
824.0
824.0
825.0
820.0
822.0
824.0
827.0
827.0
826.0
825.0
824.0
830.0
836.0
839.0
835.0
835.0
836.0
837.0
845.0
850.0
851.0
855.0
858.0
866.0
870.0
874.0
874.0
870.0
868.0
867.0
868.0
867.0
864.0
861.0
859.0
861.0
864.0
866.0
862.0
859.0
848.0
846.0
845.0
842.0
834.0
831.0
829.0
831.0
831.0
833.0
831.0
827.0
823.0
822.0
820.0
821.0
820.0
821.0
818.0
822.0
825.0
826.0
826.0
821.0
814.0
805.0
799.0
792.0
782.0
782.0
794.0
815.0
851.0
891.0
931.0
968.0
1008.0
1044.0
1078.0
1106.0
1128.0
1144.0
1155.0
1163.0
1162.0
1152.0
1138.0
1115.0
1081.0
1032.0
975.0
918.0
870.0
839.0
831.0
833.0
846.0
855.0
855.0
852.0
836.0
829.0
821.0
815.0
804.0
803.0
803.0
807.0
813.0
811.0
810.0
805.0
806.0
808.0
809.0
808.0
806.0
804.0
808.0
813.0
812.0
813.0
809.0
807.0
807.0
809.0
811.0
808.0
806.0
805.0
809.0
812.0
817.0
818.0
815.0
815.0
815.0
817.0
818.0
820.0
810.0
814.0
817.0
821.0
822.0
820.0
818.0
821.0
820.0
824.0
825.0
823.0
818.0
820.0
823.0
832.0
830.0
833.0
830.0
828.0
827.0
827.0
830.0
831.0
825.0
826.0
829.0
834.0
835.0
836.0
834.0
833.0
831.0
834.0
835.0
836.0
837.0
831.0
831.0
836.0
841.0
842.0
840.0
831.0
832.0
830.0
833.0
835.0
832.0
831.0
827.0
829.0
834.0
838.0
836.0
833.0
831.0
830.0
833.0
835.0
832.0
830.0
828.0
829.0
834.0
836.0
833.0
828.0
826.0
825.0
824.0
826.0
825.0
821.0
820.0
823.0
825.0
826.0
819.0
817.0
821.0
818.0
815.0
813.0
809.0
807.0
808.0
812.0
816.0
816.0
812.0
813.0
809.0
812.0
812.0
813.0
811.0
808.0
812.0
815.0
823.0
824.0
819.0
820.0
818.0
816.0
816.0
818.0
815.0
817.0
821.0
826.0
829.0
829.0
828.0
825.0
824.0
824.0
828.0
828.0
827.0
826.0
832.0
835.0
839.0
846.0
847.0
848.0
855.0
858.0
863.0
861.0
862.0
863.0
866.0
871.0
873.0
874.0
871.0
864.0
861.0
858.0
856.0
855.0
850.0
850.0
854.0
855.0
854.0
849.0
841.0
836.0
833.0
831.0
828.0
826.0
821.0
821.0
821.0
822.0
823.0
821.0
817.0
815.0
814.0
815.0
817.0
815.0
811.0
809.0
811.0
812.0
808.0
801.0
790.0
778.0
776.0
780.0
792.0
817.0
843.0
881.0
923.0
961.0
997.0
1035.0
1062.0
1092.0
1119.0
1141.0
1152.0
1156.0
1147.0
1135.0
1124.0
1103.0
1067.0
1017.0
956.0
898.0
859.0
839.0
833.0
834.0
838.0
843.0
850.0
848.0
838.0
827.0
813.0
807.0
804.0
804.0
802.0
801.0
797.0
800.0
806.0
807.0
808.0
811.0
808.0
808.0
809.0
810.0
804.0
803.0
801.0
803.0
807.0
813.0
811.0
811.0
809.0
807.0
810.0
813.0
813.0
810.0
807.0
810.0
811.0
813.0
814.0
814.0
812.0
810.0
814.0
815.0
812.0
812.0
810.0
809.0
817.0
821.0
827.0
825.0
820.0
820.0
819.0
821.0
826.0
826.0
824.0
823.0
826.0
830.0
833.0
834.0
832.0
832.0
829.0
829.0
831.0
830.0
828.0
828.0
833.0
836.0
842.0
844.0
842.0
838.0
837.0
838.0
837.0
837.0
833.0
832.0
836.0
839.0
840.0
843.0
838.0
837.0
835.0
837.0
837.0
837.0
833.0
832.0
834.0
836.0
839.0
838.0
838.0
831.0
834.0
832.0
836.0
835.0
830.0
833.0
830.0
833.0
835.0
834.0
833.0
830.0
829.0
828.0
830.0
825.0
820.0
819.0
822.0
826.0
827.0
831.0
825.0
819.0
818.0
817.0
817.0
817.0
810.0
809.0
810.0
815.0
818.0
818.0
817.0
817.0
819.0
816.0
818.0
817.0
815.0
817.0
819.0
823.0
827.0
826.0
825.0
823.0
824.0
828.0
827.0
822.0
823.0
829.0
835.0
839.0
839.0
840.0
842.0
841.0
843.0
845.0
847.0
848.0
852.0
856.0
864.0
869.0
872.0
871.0
877.0
876.0
879.0
879.0
869.0
868.0
867.0
869.0
868.0
867.0
865.0
868.0
867.0
868.0
865.0
858.0
849.0
843.0
835.0
839.0
837.0
836.0
832.0
831.0
834.0
836.0
835.0
832.0
825.0
823.0
821.0
825.0
824.0
828.0
827.0
826.0
828.0
827.0
822.0
814.0
803.0
791.0
782.0
784.0
792.0
807.0
825.0
857.0
899.0
941.0
981.0
1015.0
1051.0
1086.0
1118.0
1145.0
1166.0
1175.0
1176.0
1171.0
1161.0
1139.0
1102.0
1047.0
983.0
925.0
881.0
852.0
841.0
846.0
857.0
869.0
869.0
867.0
856.0
838.0
827.0
818.0
816.0
815.0
814.0
814.0
813.0
816.0
819.0
819.0
817.0
816.0
818.0
817.0
819.0
822.0
818.0
820.0
819.0
818.0
824.0
824.0
823.0
820.0
813.0
816.0
818.0
823.0
823.0
824.0
820.0
824.0
827.0
831.0
826.0
821.0
820.0
822.0
825.0
828.0
828.0
826.0
825.0
826.0
831.0
835.0
835.0
832.0
827.0
829.0
829.0
835.0
833.0
835.0
835.0
839.0
840.0
844.0
842.0
837.0
836.0
833.0
838.0
841.0
843.0
843.0
839.0
842.0
845.0
851.0
853.0
848.0
844.0
840.0
839.0
845.0
847.0
851.0
850.0
849.0
852.0
850.0
853.0
850.0
847.0
846.0
842.0
843.0
845.0
846.0
846.0
845.0
847.0
847.0
850.0
849.0
846.0
840.0
841.0
845.0
845.0
848.0
848.0
846.0
848.0
848.0
844.0
842.0
837.0
834.0
835.0
836.0
836.0
837.0
836.0
833.0
832.0
831.0
835.0
836.0
831.0
823.0
822.0
824.0
825.0
825.0
829.0
825.0
822.0
820.0
821.0
822.0
817.0
819.0
819.0
819.0
823.0
826.0
828.0
827.0
827.0
827.0
827.0
830.0
830.0
828.0
823.0
824.0
825.0
832.0
832.0
836.0
835.0
831.0
833.0
834.0
834.0
835.0
835.0
834.0
834.0
842.0
848.0
845.0
846.0
846.0
848.0
852.0
857.0
862.0
864.0
863.0
865.0
871.0
875.0
881.0
883.0
882.0
877.0
877.0
875.0
874.0
873.0
870.0
866.0
868.0
868.0
867.0
867.0
866.0
864.0
856.0
854.0
849.0
845.0
844.0
838.0
837.0
834.0
837.0
838.0
836.0
834.0
829.0
827.0
829.0
827.0
826.0
824.0
825.0
823.0
829.0
830.0
829.0
823.0
819.0
811.0
803.0
801.0
795.0
787.0
782.0
790.0
809.0
834.0
866.0
906.0
944.0
976.0
1012.0
1049.0
1084.0
1117.0
1141.0
1158.0
1167.0
1170.0
1166.0
1152.0
1130.0
1110.0
1077.0
1033.0
978.0
926.0
881.0
853.0
841.0
844.0
853.0
860.0
863.0
855.0
844.0
834.0
827.0
827.0
823.0
817.0
814.0
817.0
819.0
820.0
818.0
813.0
810.0
811.0
813.0
817.0
821.0
821.0
821.0
816.0
819.0
818.0
821.0
821.0
815.0
815.0
814.0
815.0
817.0
820.0
819.0
819.0
825.0
823.0
822.0
818.0
816.0
813.0
814.0
820.0
823.0
823.0
820.0
823.0
822.0
826.0
826.0
827.0
825.0
821.0
824.0
826.0
828.0
831.0
827.0
828.0
828.0
836.0
837.0
831.0
831.0
829.0
832.0
836.0
838.0
843.0
841.0
841.0
835.0
838.0
840.0
843.0
840.0
840.0
839.0
840.0
844.0
847.0
850.0
849.0
842.0
840.0
843.0
846.0
845.0
842.0
839.0
838.0
842.0
844.0
847.0
845.0
841.0
838.0
839.0
839.0
838.0
834.0
835.0
834.0
839.0
840.0
838.0
840.0
839.0
838.0
837.0
832.0
830.0
826.0
827.0
830.0
833.0
834.0
833.0
830.0
823.0
827.0
827.0
829.0
824.0
819.0
817.0
819.0
820.0
819.0
817.0
817.0
817.0
815.0
817.0
817.0
813.0
810.0
809.0
813.0
813.0
818.0
818.0
818.0
813.0
817.0
817.0
816.0
816.0
813.0
811.0
813.0
819.0
826.0
823.0
824.0
822.0
821.0
822.0
819.0
821.0
820.0
818.0
820.0
825.0
832.0
836.0
837.0
833.0
830.0
831.0
836.0
838.0
843.0
844.0
847.0
857.0
862.0
868.0
868.0
868.0
868.0
870.0
869.0
869.0
864.0
861.0
861.0
865.0
867.0
863.0
862.0
855.0
854.0
857.0
852.0
845.0
839.0
834.0
830.0
835.0
832.0
828.0
829.0
823.0
826.0
823.0
821.0
820.0
816.0
816.0
819.0
822.0
825.0
821.0
823.0
820.0
819.0
818.0
813.0
805.0
788.0
779.0
778.0
781.0
795.0
816.0
844.0
882.0
922.0
959.0
995.0
1027.0
1059.0
1087.0
1119.0
1145.0
1159.0
1165.0
1162.0
1151.0
1139.0
1115.0
1075.0
1019.0
949.0
892.0
851.0
830.0
825.0
832.0
839.0
847.0
844.0
833.0
825.0
813.0
807.0
805.0
804.0
801.0
803.0
804.0
805.0
807.0
811.0
809.0
804.0
804.0
803.0
806.0
808.0
810.0
806.0
807.0
810.0
811.0
810.0
807.0
805.0
804.0
805.0
809.0
814.0
809.0
807.0
810.0
811.0
815.0
815.0
817.0
814.0
810.0
809.0
807.0
811.0
816.0
816.0
813.0
815.0
815.0
818.0
819.0
820.0
814.0
813.0
814.0
818.0
824.0
828.0
828.0
826.0
826.0
827.0
829.0
831.0
829.0
825.0
821.0
827.0
831.0
835.0
835.0
835.0
836.0
837.0
838.0
834.0
832.0
833.0
830.0
836.0
838.0
838.0
836.0
838.0
835.0
835.0
836.0
837.0
831.0
827.0
827.0
830.0
834.0
837.0
836.0
832.0
832.0
834.0
833.0
828.0
824.0
823.0
826.0
828.0
831.0
832.0
832.0
829.0
832.0
832.0
833.0
831.0
827.0
824.0
822.0
820.0
823.0
826.0
824.0
821.0
821.0
822.0
823.0
819.0
813.0
809.0
807.0
810.0
816.0
816.0
817.0
814.0
812.0
810.0
811.0
813.0
812.0
807.0
807.0
807.0
813.0
815.0
816.0
814.0
814.0
812.0
813.0
812.0
813.0
810.0
812.0
813.0
821.0
821.0
819.0
822.0
819.0
821.0
826.0
822.0
821.0
820.0
822.0
827.0
832.0
832.0
833.0
836.0
840.0
841.0
843.0
846.0
849.0
853.0
860.0
864.0
870.0
867.0
866.0
868.0
867.0
871.0
871.0
869.0
863.0
858.0
854.0
855.0
858.0
858.0
855.0
856.0
854.0
849.0
845.0
841.0
834.0
826.0
822.0
821.0
826.0
832.0
830.0
827.0
822.0
821.0
820.0
821.0
818.0
814.0
813.0
816.0
820.0
822.0
822.0
818.0
818.0
811.0
804.0
792.0
780.0
774.0
778.0
796.0
828.0
861.0
900.0
942.0
978.0
1015.0
1049.0
1079.0
1106.0
1126.0
1139.0
1153.0
1161.0
1161.0
1155.0
1138.0
1119.0
1090.0
1044.0
983.0
920.0
870.0
837.0
826.0
831.0
842.0
851.0
853.0
847.0
841.0
834.0
824.0
818.0
808.0
802.0
800.0
805.0
811.0
809.0
809.0
804.0
804.0
802.0
803.0
804.0
805.0
800.0
805.0
804.0
812.0
814.0
816.0
809.0
808.0
808.0
809.0
810.0
806.0
802.0
803.0
806.0
812.0
813.0
816.0
812.0
813.0
811.0
811.0
810.0
809.0
810.0
810.0
817.0
818.0
818.0
819.0
819.0
822.0
823.0
825.0
820.0
820.0
817.0
820.0
827.0
830.0
830.0
828.0
827.0
830.0
832.0
830.0
828.0
829.0
829.0
831.0
835.0
834.0
834.0
834.0
836.0
839.0
841.0
837.0
832.0
830.0
833.0
834.0
836.0
838.0
836.0
837.0
837.0
838.0
836.0
833.0
831.0
830.0
831.0
832.0
836.0
834.0
835.0
832.0
835.0
837.0
838.0
833.0
829.0
828.0
829.0
831.0
833.0
831.0
830.0
832.0
832.0
830.0
827.0
824.0
824.0
825.0
823.0
821.0
819.0
818.0
822.0
822.0
821.0
819.0
815.0
812.0
811.0
812.0
813.0
811.0
808.0
809.0
810.0
814.0
814.0
813.0
810.0
809.0
812.0
814.0
812.0
811.0
812.0
817.0
820.0
823.0
824.0
823.0
818.0
816.0
820.0
820.0
821.0
821.0
821.0
824.0
829.0
835.0
833.0
830.0
827.0
833.0
833.0
835.0
836.0
834.0
839.0
844.0
859.0
863.0
865.0
867.0
867.0
868.0
868.0
871.0
865.0
863.0
867.0
870.0
870.0
866.0
866.0
860.0
858.0
856.0
856.0
849.0
841.0
840.0
837.0
834.0
831.0
830.0
829.0
826.0
824.0
824.0
821.0
819.0
817.0
817.0
823.0
822.0
825.0
826.0
827.0
826.0
825.0
821.0
813.0
802.0
794.0
784.0
785.0
788.0
797.0
823.0
854.0
894.0
932.0
971.0
1008.0
1041.0
1075.0
1110.0
1136.0
1156.0
1164.0
1171.0
1168.0
1157.0
1141.0
1109.0
1068.0
1009.0
951.0
899.0
861.0
839.0
833.0
843.0
854.0
862.0
858.0
850.0
837.0
827.0
819.0
814.0
810.0
806.0
808.0
813.0
812.0
810.0
810.0
805.0
807.0
811.0
815.0
812.0
814.0
812.0
812.0
815.0
814.0
815.0
814.0
811.0
812.0
814.0
815.0
813.0
811.0
812.0
814.0
816.0
820.0
820.0
815.0
812.0
812.0
816.0
815.0
817.0
818.0
816.0
818.0
822.0
824.0
827.0
823.0
818.0
822.0
821.0
825.0
827.0
824.0
827.0
830.0
832.0
834.0
835.0
835.0
831.0
829.0
831.0
835.0
833.0
834.0
833.0
836.0
839.0
841.0
843.0
840.0
835.0
836.0
837.0
837.0
842.0
840.0
838.0
839.0
847.0
849.0
848.0
839.0
839.0
837.0
840.0
839.0
837.0
835.0
834.0
837.0
841.0
844.0
844.0
838.0
833.0
832.0
837.0
835.0
834.0
833.0
832.0
835.0
839.0
841.0
841.0
838.0
833.0
830.0
830.0
835.0
832.0
832.0
827.0
830.0
835.0
835.0
838.0
835.0
827.0
825.0
824.0
822.0
825.0
824.0
824.0
821.0
820.0
821.0
821.0
822.0
820.0
817.0
813.0
814.0
816.0
821.0
824.0
823.0
822.0
823.0
823.0
824.0
823.0
823.0
822.0
822.0
822.0
826.0
829.0
830.0
828.0
826.0
828.0
827.0
828.0
828.0
822.0
822.0
829.0
832.0
839.0
840.0
841.0
841.0
844.0
847.0
847.0
848.0
849.0
852.0
856.0
863.0
868.0
870.0
870.0
870.0
875.0
876.0
877.0
874.0
870.0
868.0
864.0
869.0
867.0
868.0
863.0
863.0
860.0
865.0
863.0
858.0
850.0
842.0
840.0
840.0
840.0
838.0
837.0
833.0
833.0
833.0
834.0
831.0
826.0
818.0
819.0
819.0
825.0
827.0
826.0
824.0
824.0
822.0
823.0
825.0
815.0
801.0
794.0
782.0
787.0
789.0
800.0
818.0
843.0
881.0
923.0
960.0
999.0
1034.0
1071.0
1106.0
1140.0
1159.0
1172.0
1175.0
1171.0
1159.0
1137.0
1112.0
1073.0
1015.0
956.0
906.0
870.0
852.0
846.0
845.0
852.0
860.0
864.0
862.0
849.0
830.0
821.0
816.0
816.0
820.0
818.0
817.0
813.0
811.0
815.0
815.0
813.0
809.0
808.0
808.0
812.0
820.0
822.0
819.0
815.0
813.0
811.0
813.0
814.0
815.0
812.0
811.0
816.0
820.0
824.0
826.0
823.0
816.0
813.0
818.0
820.0
822.0
818.0
818.0
820.0
822.0
829.0
828.0
824.0
823.0
823.0
823.0
825.0
826.0
823.0
821.0
822.0
831.0
835.0
836.0
834.0
835.0
837.0
835.0
833.0
832.0
829.0
830.0
835.0
842.0
846.0
843.0
842.0
839.0
842.0
842.0
846.0
843.0
841.0
843.0
843.0
850.0
854.0
853.0
847.0
841.0
842.0
844.0
844.0
841.0
841.0
844.0
846.0
849.0
851.0
849.0
845.0
842.0
841.0
842.0
841.0
838.0
835.0
833.0
839.0
842.0
846.0
845.0
842.0
839.0
835.0
838.0
835.0
836.0
832.0
832.0
833.0
839.0
840.0
839.0
836.0
834.0
835.0
834.0
830.0
823.0
823.0
823.0
824.0
827.0
827.0
823.0
820.0
824.0
818.0
819.0
814.0
813.0
815.0
819.0
821.0
821.0
819.0
822.0
823.0
826.0
825.0
827.0
823.0
822.0
820.0
826.0
826.0
829.0
828.0
830.0
828.0
827.0
831.0
830.0
827.0
827.0
828.0
835.0
842.0
844.0
838.0
841.0
843.0
846.0
852.0
853.0
852.0
856.0
859.0
868.0
875.0
879.0
880.0
881.0
874.0
877.0
876.0
873.0
869.0
871.0
872.0
872.0
873.0
872.0
869.0
867.0
867.0
864.0
865.0
858.0
848.0
845.0
842.0
841.0
838.0
835.0
835.0
837.0
835.0
836.0
832.0
829.0
828.0
826.0
830.0
832.0
832.0
829.0
830.0
831.0
832.0
830.0
822.0
809.0
794.0
783.0
785.0
797.0
814.0
839.0
867.0
905.0
943.0
989.0
1021.0
1056.0
1086.0
1111.0
1139.0
1157.0
1171.0
1179.0
1182.0
1175.0
1163.0
1145.0
1112.0
1061.0
1000.0
937.0
890.0
862.0
851.0
853.0
860.0
865.0
869.0
868.0
857.0
846.0
830.0
824.0
816.0
821.0
822.0
822.0
825.0
824.0
820.0
820.0
823.0
821.0
818.0
814.0
815.0
822.0
825.0
824.0
824.0
823.0
821.0
823.0
825.0
825.0
822.0
822.0
826.0
827.0
826.0
829.0
826.0
825.0
829.0
831.0
832.0
828.0
827.0
825.0
822.0
826.0
827.0
832.0
829.0
830.0
832.0
836.0
838.0
837.0
836.0
832.0
835.0
837.0
840.0
840.0
838.0
838.0
838.0
843.0
842.0
842.0
840.0
838.0
837.0
839.0
842.0
843.0
843.0
847.0
851.0
855.0
856.0
856.0
851.0
850.0
846.0
849.0
853.0
854.0
852.0
851.0
852.0
855.0
855.0
852.0
847.0
846.0
844.0
847.0
849.0
849.0
849.0
851.0
851.0
853.0
849.0
847.0
842.0
843.0
844.0
847.0
843.0
844.0
843.0
845.0
850.0
847.0
845.0
843.0
841.0
838.0
843.0
841.0
846.0
842.0
838.0
841.0
839.0
842.0
842.0
836.0
836.0
835.0
831.0
834.0
836.0
836.0
833.0
836.0
836.0
837.0
835.0
833.0
825.0
822.0
824.0
827.0
834.0
835.0
831.0
832.0
832.0
832.0
837.0
835.0
832.0
831.0
832.0
838.0
844.0
847.0
846.0
844.0
842.0
845.0
846.0
843.0
841.0
839.0
845.0
851.0
855.0
855.0
856.0
860.0
866.0
864.0
866.0
867.0
867.0
874.0
879.0
882.0
884.0
884.0
887.0
892.0
890.0
891.0
886.0
879.0
876.0
876.0
878.0
876.0
875.0
870.0
869.0
865.0
863.0
858.0
851.0
847.0
846.0
844.0
846.0
844.0
842.0
839.0
836.0
840.0
840.0
840.0
840.0
839.0
839.0
836.0
839.0
836.0
839.0
834.0
832.0
827.0
821.0
813.0
807.0
795.0
791.0
795.0
813.0
840.0
878.0
917.0
959.0
1001.0
1032.0
1064.0
1091.0
1117.0
1138.0
1154.0
1166.0
1175.0
1177.0
1168.0
1149.0
1116.0
1075.0
1009.0
943.0
887.0
854.0
841.0
844.0
857.0
865.0
872.0
866.0
863.0
853.0
842.0
831.0
824.0
825.0
827.0
830.0
830.0
827.0
823.0
823.0
825.0
832.0
833.0
831.0
829.0
827.0
831.0
832.0
832.0
831.0
827.0
830.0
829.0
832.0
831.0
828.0
825.0
823.0
829.0
833.0
830.0
834.0
833.0
835.0
836.0
841.0
840.0
836.0
832.0
834.0
832.0
833.0
830.0
832.0
835.0
839.0
845.0
848.0
845.0
842.0
838.0
838.0
838.0
846.0
850.0
849.0
848.0
849.0
851.0
850.0
848.0
847.0
844.0
842.0
847.0
849.0
850.0
851.0
851.0
853.0
856.0
860.0
861.0
856.0
851.0
851.0
851.0
853.0
854.0
851.0
850.0
850.0
854.0
856.0
855.0
854.0
852.0
846.0
845.0
847.0
850.0
850.0
852.0
853.0
851.0
856.0
856.0
855.0
853.0
847.0
845.0
843.0
850.0
848.0
850.0
847.0
847.0
846.0
845.0
846.0
845.0
845.0
845.0
845.0
851.0
849.0
848.0
847.0
847.0
846.0
850.0
851.0
844.0
839.0
842.0
838.0
842.0
845.0
847.0
843.0
842.0
842.0
845.0
843.0
843.0
841.0
843.0
841.0
847.0
846.0
845.0
845.0
845.0
847.0
852.0
851.0
847.0
848.0
848.0
851.0
855.0
863.0
862.0
862.0
864.0
868.0
874.0
876.0
876.0
877.0
879.0
883.0
887.0
889.0
888.0
891.0
892.0
894.0
897.0
896.0
888.0
880.0
877.0
877.0
878.0
879.0
880.0
881.0
878.0
879.0
873.0
865.0
860.0
857.0
856.0
850.0
851.0
850.0
848.0
843.0
845.0
848.0
848.0
847.0
845.0
841.0
842.0
844.0
847.0
846.0
846.0
841.0
839.0
831.0
823.0
810.0
803.0
805.0
818.0
842.0
875.0
915.0
956.0
999.0
1042.0
1077.0
1109.0
1132.0
1148.0
1157.0
1162.0
1165.0
1161.0
1150.0
1139.0
1121.0
1093.0
1048.0
990.0
929.0
879.0
851.0
844.0
851.0
863.0
874.0
880.0
876.0
871.0
861.0
854.0
845.0
835.0
828.0
824.0
824.0
830.0
835.0
835.0
835.0
831.0
833.0
833.0
835.0
834.0
834.0
833.0
829.0
832.0
832.0
834.0
831.0
833.0
836.0
837.0
839.0
838.0
830.0
826.0
826.0
830.0
837.0
838.0
839.0
837.0
838.0
841.0
843.0
843.0
837.0
837.0
836.0
839.0
840.0
839.0
839.0
841.0
840.0
841.0
844.0
843.0
839.0
836.0
841.0
847.0
848.0
850.0
844.0
844.0
845.0
850.0
852.0
853.0
849.0
847.0
847.0
847.0
855.0
853.0
853.0
853.0
858.0
859.0
859.0
858.0
854.0
848.0
847.0
849.0
855.0
859.0
862.0
857.0
857.0
852.0
853.0
854.0
853.0
848.0
848.0
849.0
855.0
857.0
856.0
856.0
852.0
856.0
855.0
853.0
853.0
849.0
845.0
845.0
846.0
854.0
852.0
856.0
851.0
850.0
847.0
846.0
847.0
846.0
846.0
840.0
843.0
846.0
847.0
846.0
843.0
838.0
841.0
839.0
839.0
838.0
831.0
832.0
835.0
837.0
841.0
840.0
839.0
835.0
836.0
835.0
837.0
839.0
834.0
835.0
834.0
835.0
840.0
843.0
842.0
839.0
838.0
838.0
839.0
840.0
837.0
834.0
833.0
834.0
837.0
846.0
849.0
841.0
840.0
838.0
835.0
839.0
841.0
838.0
838.0
837.0
842.0
851.0
857.0
853.0
853.0
849.0
848.0
850.0
856.0
860.0
862.0
865.0
865.0
869.0
880.0
883.0
885.0
880.0
879.0
875.0
876.0
881.0
878.0
879.0
877.0
877.0
877.0
874.0
872.0
866.0
861.0
863.0
861.0
858.0
850.0
844.0
845.0
842.0
845.0
845.0
849.0
841.0
838.0
833.0
833.0
831.0
832.0
831.0
834.0
834.0
834.0
837.0
836.0
835.0
830.0
826.0
825.0
825.0
822.0
815.0
807.0
798.0
791.0
792.0
804.0
824.0
844.0
874.0
907.0
945.0
988.0
1028.0
1062.0
1091.0
1118.0
1140.0
1157.0
1165.0
1166.0
1154.0
1143.0
1131.0
1127.0
1111.0
1083.0
1037.0
973.0
915.0
871.0
843.0
836.0
836.0
839.0
849.0
852.0
852.0
846.0
839.0
827.0
821.0
819.0
820.0
818.0
816.0
813.0
819.0
820.0
825.0
825.0
823.0
822.0
823.0
823.0
822.0
824.0
821.0
815.0
815.0
818.0
821.0
826.0
827.0
821.0
821.0
823.0
823.0
822.0
822.0
821.0
817.0
821.0
827.0
827.0
827.0
826.0
824.0
824.0
827.0
831.0
830.0
827.0
824.0
826.0
831.0
836.0
837.0
834.0
832.0
831.0
832.0
832.0
833.0
833.0
831.0
834.0
837.0
842.0
841.0
839.0
841.0
836.0
837.0
835.0
838.0
838.0
840.0
838.0
839.0
846.0
847.0
848.0
847.0
845.0
845.0
846.0
843.0
839.0
838.0
839.0
843.0
847.0
842.0
843.0
843.0
842.0
845.0
844.0
842.0
838.0
835.0
838.0
838.0
840.0
837.0
839.0
839.0
839.0
839.0
840.0
833.0
832.0
834.0
839.0
839.0
838.0
840.0
837.0
833.0
834.0
835.0
834.0
831.0
826.0
825.0
826.0
829.0
830.0
830.0
825.0
822.0
822.0
821.0
816.0
815.0
810.0
810.0
810.0
819.0
823.0
824.0
822.0
818.0
815.0
821.0
822.0
821.0
819.0
820.0
822.0
825.0
826.0
826.0
826.0
827.0
827.0
827.0
825.0
825.0
820.0
829.0
834.0
837.0
838.0
837.0
841.0
843.0
845.0
843.0
845.0
841.0
846.0
853.0
862.0
867.0
871.0
871.0
873.0
867.0
870.0
865.0
861.0
862.0
859.0
863.0
866.0
867.0
861.0
859.0
859.0
859.0
863.0
857.0
853.0
842.0
835.0
833.0
830.0
833.0
830.0
826.0
827.0
826.0
828.0
826.0
821.0
816.0
816.0
819.0
823.0
823.0
820.0
815.0
817.0
819.0
822.0
817.0
812.0
799.0
785.0
779.0
777.0
781.0
794.0
814.0
845.0
888.0
935.0
973.0
1012.0
1048.0
1083.0
1116.0
1141.0
1152.0
1158.0
1154.0
1149.0
1139.0
1118.0
1081.0
1029.0
965.0
906.0
862.0
835.0
824.0
823.0
836.0
847.0
853.0
846.0
835.0
825.0
818.0
812.0
808.0
803.0
802.0
802.0
806.0
810.0
814.0
813.0
809.0
806.0
804.0
808.0
807.0
809.0
810.0
809.0
816.0
820.0
819.0
816.0
809.0
806.0
805.0
809.0
809.0
810.0
807.0
807.0
811.0
815.0
817.0
817.0
811.0
809.0
810.0
812.0
813.0
814.0
815.0
818.0
820.0
822.0
821.0
819.0
817.0
815.0
816.0
821.0
819.0
817.0
817.0
817.0
823.0
826.0
825.0
822.0
819.0
823.0
824.0
828.0
829.0
827.0
824.0
827.0
828.0
834.0
830.0
831.0
829.0
828.0
832.0
832.0
836.0
834.0
833.0
832.0
833.0
837.0
836.0
837.0
834.0
828.0
824.0
827.0
829.0
832.0
829.0
827.0
829.0
834.0
837.0
836.0
834.0
828.0
829.0
830.0
830.0
829.0
831.0
831.0
832.0
834.0
838.0
836.0
832.0
829.0
826.0
823.0
826.0
827.0
829.0
826.0
825.0
826.0
828.0
827.0
822.0
818.0
818.0
817.0
818.0
819.0
817.0
817.0
818.0
824.0
823.0
822.0
818.0
815.0
816.0
818.0
814.0
815.0
817.0
816.0
821.0
825.0
832.0
829.0
826.0
824.0
824.0
827.0
832.0
830.0
831.0
831.0
835.0
840.0
843.0
847.0
851.0
850.0
856.0
862.0
865.0
868.0
867.0
866.0
865.0
868.0
869.0
868.0
864.0
862.0
862.0
860.0
860.0
859.0
855.0
856.0
859.0
864.0
860.0
850.0
844.0
837.0
833.0
834.0
834.0
833.0
829.0
826.0
829.0
830.0
828.0
826.0
825.0
823.0
823.0
824.0
823.0
822.0
823.0
826.0
827.0
824.0
815.0
802.0
790.0
777.0
777.0
785.0
798.0
823.0
856.0
896.0
938.0
977.0
1007.0
1034.0
1061.0
1091.0
1115.0
1135.0
1147.0
1154.0
1154.0
1153.0
1146.0
1135.0
1104.0
1057.0
996.0
929.0
877.0
845.0
832.0
830.0
837.0
847.0
859.0
861.0
855.0
846.0
831.0
821.0
812.0
813.0
810.0
810.0
812.0
810.0
812.0
817.0
820.0
816.0
811.0
810.0
810.0
814.0
814.0
