# Simple Text Format
# Sampling Rate (Hz):= 360.00
# Resolution:= 12
# Labels:= ECG
845.0
845.0
846.0
850.0
850.0
852.0
851.0
849.0
848.0
847.0
847.0
846.0
845.0
844.0
844.0
848.0
848.0
848.0
849.0
848.0
846.0
847.0
845.0
845.0
842.0
839.0
840.0
846.0
848.0
847.0
849.0
849.0
848.0
845.0
844.0
844.0
846.0
847.0
847.0
850.0
851.0
852.0
852.0
854.0
849.0
847.0
848.0
847.0
846.0
849.0
851.0
853.0
854.0
853.0
853.0
852.0
846.0
847.0
848.0
846.0
845.0
846.0
849.0
850.0
852.0
851.0
848.0
851.0
846.0
847.0
846.0
843.0
840.0
844.0
848.0
850.0
848.0
849.0
851.0
848.0
847.0
845.0
840.0
842.0
843.0
841.0
847.0
848.0
847.0
850.0
851.0
851.0
849.0
847.0
846.0
844.0
843.0
843.0
845.0
844.0
844.0
850.0
851.0
852.0
849.0
847.0
847.0
846.0
847.0
851.0
855.0
860.0
864.0
869.0
869.0
871.0
871.0
873.0
870.0
871.0
875.0
876.0
881.0
881.0
881.0
880.0
877.0
872.0
869.0
866.0
863.0
861.0
862.0
863.0
863.0
865.0
865.0
863.0
861.0
854.0
851.0
845.0
841.0
838.0
832.0
834.0
834.0
838.0
838.0
837.0
840.0
836.0
837.0
834.0
833.0
833.0
832.0
831.0
833.0
835.0
838.0
838.0
837.0
838.0
837.0
835.0
834.0
833.0
832.0
834.0
835.0
839.0
841.0
840.0
839.0
842.0
841.0
840.0
840.0
842.0
842.0
844.0
847.0
849.0
854.0
861.0
875.0
896.0
931.0
971.0
1012.0
1060.0
1110.0
1165.0
1209.0
1236.0
1225.0
1181.0
1104.0
1005.0
895.0
800.0
738.0
714.0
723.0
754.0
790.0
816.0
833.0
833.0
831.0
830.0
827.0
829.0
834.0
837.0
839.0
841.0
843.0
843.0
844.0
844.0
841.0
843.0
842.0
841.0
841.0
841.0
839.0
841.0
837.0
840.0
844.0
846.0
845.0
846.0
844.0
841.0
842.0
839.0
837.0
840.0
838.0
843.0
845.0
847.0
847.0
848.0
845.0
842.0
839.0
838.0
841.0
840.0
841.0
843.0
846.0
847.0
848.0
850.0
846.0
844.0
842.0
845.0
845.0
846.0
847.0
848.0
849.0
854.0
855.0
854.0
854.0
851.0
851.0
852.0
852.0
856.0
858.0
859.0
863.0
868.0
869.0
870.0
871.0
874.0
874.0
875.0
876.0
880.0
883.0
888.0
893.0
893.0
898.0
901.0
901.0
905.0
905.0
907.0
908.0
911.0
917.0
921.0
926.0
931.0
929.0
934.0
935.0
933.0
934.0
933.0
928.0
928.0
930.0
930.0
927.0
929.0
923.0
916.0
912.0
904.0
898.0
895.0
891.0
889.0
883.0
879.0
876.0
877.0
873.0
868.0
863.0
862.0
858.0
853.0
850.0
852.0
851.0
853.0
850.0
854.0
853.0
850.0
847.0
841.0
841.0
843.0
843.0
843.0
843.0
846.0
850.0
848.0
845.0
845.0
843.0
842.0
840.0
838.0
838.0
839.0
838.0
840.0
845.0
846.0
844.0
845.0
843.0
841.0
842.0
840.0
840.0
841.0
840.0
840.0
842.0
849.0
847.0
846.0
843.0
844.0
846.0
843.0
841.0
839.0
841.0
842.0
846.0
846.0
848.0
846.0
843.0
842.0
838.0
836.0
837.0
840.0
838.0
843.0
844.0
846.0
844.0
843.0
838.0
837.0
835.0
836.0
837.0
836.0
839.0
839.0
839.0
839.0
839.0
837.0
835.0
832.0
833.0
831.0
831.0
829.0
831.0
832.0
833.0
837.0
836.0
835.0
834.0
833.0
831.0
827.0
828.0
825.0
827.0
830.0
831.0
833.0
834.0
834.0
832.0
829.0
828.0
827.0
826.0
827.0
828.0
831.0
831.0
834.0
830.0
830.0
829.0
825.0
825.0
820.0
819.0
824.0
828.0
829.0
830.0
833.0
832.0
831.0
828.0
825.0
821.0
822.0
824.0
823.0
826.0
827.0
828.0
829.0
826.0
829.0
826.0
821.0
824.0
819.0
821.0
824.0
823.0
827.0
828.0
827.0
829.0
826.0
826.0
824.0
823.0
823.0
824.0
822.0
825.0
826.0
826.0
827.0
826.0
825.0
823.0
824.0
822.0
824.0
823.0
821.0
825.0
826.0
827.0
827.0
827.0
829.0
827.0
826.0
826.0
819.0
823.0
823.0
826.0
827.0
829.0
830.0
830.0
832.0
829.0
830.0
828.0
826.0
824.0
827.0
827.0
831.0
833.0
834.0
833.0
834.0
833.0
835.0
833.0
835.0
840.0
844.0
847.0
851.0
856.0
855.0
856.0
858.0
861.0
860.0
862.0
860.0
858.0
856.0
854.0
856.0
858.0
857.0
858.0
856.0
855.0
848.0
845.0
839.0
836.0
829.0
829.0
830.0
828.0
827.0
829.0
826.0
824.0
820.0
818.0
816.0
815.0
816.0
817.0
821.0
821.0
824.0
822.0
821.0
820.0
819.0
817.0
816.0
817.0
818.0
819.0
823.0
825.0
824.0
825.0
824.0
826.0
820.0
822.0
820.0
822.0
823.0
824.0
827.0
828.0
831.0
832.0
831.0
831.0
835.0
834.0
836.0
849.0
871.0
902.0
948.0
995.0
1044.0
1098.0
1152.0
1196.0
1218.0
1208.0
1158.0
1080.0
977.0
869.0
780.0
715.0
687.0
691.0
714.0
739.0
761.0
776.0
786.0
791.0
797.0
801.0
814.0
822.0
828.0
831.0
831.0
828.0
826.0
823.0
822.0
822.0
825.0
826.0
827.0
828.0
830.0
828.0
828.0
824.0
826.0
824.0
824.0
824.0
826.0
825.0
826.0
828.0
832.0
831.0
830.0
828.0
825.0
824.0
824.0
823.0
824.0
826.0
830.0
832.0
831.0
831.0
828.0
828.0
823.0
826.0
826.0
824.0
824.0
825.0
830.0
832.0
833.0
834.0
834.0
832.0
831.0
830.0
828.0
830.0
832.0
832.0
835.0
836.0
841.0
846.0
846.0
846.0
845.0
843.0
841.0
846.0
849.0
853.0
857.0
862.0
868.0
869.0
871.0
872.0
873.0
872.0
873.0
875.0
878.0
882.0
886.0
889.0
895.0
900.0
904.0
904.0
903.0
903.0
907.0
907.0
906.0
908.0
909.0
915.0
915.0
913.0
916.0
907.0
905.0
901.0
896.0
891.0
889.0
883.0
879.0
877.0
876.0
871.0
867.0
862.0
855.0
851.0
846.0
842.0
841.0
842.0
842.0
840.0
838.0
837.0
836.0
835.0
834.0
833.0
833.0
831.0
832.0
832.0
835.0
837.0
837.0
837.0
836.0
836.0
831.0
830.0
828.0
829.0
829.0
831.0
833.0
835.0
834.0
836.0
837.0
834.0
830.0
830.0
832.0
833.0
831.0
832.0
833.0
835.0
838.0
838.0
840.0
839.0
837.0
837.0
834.0
837.0
835.0
835.0
839.0
843.0
841.0
842.0
840.0
842.0
838.0
836.0
832.0
831.0
832.0
833.0
836.0
840.0
841.0
841.0
842.0
841.0
839.0
835.0
835.0
835.0
833.0
833.0
834.0
837.0
840.0
841.0
840.0
837.0
834.0
833.0
830.0
832.0
833.0
832.0
831.0
834.0
839.0
838.0
837.0
836.0
834.0
833.0
830.0
830.0
831.0
832.0
833.0
834.0
834.0
837.0
835.0
835.0
832.0
829.0
827.0
828.0
827.0
828.0
831.0
833.0
833.0
834.0
835.0
834.0
831.0
828.0
826.0
829.0
827.0
829.0
830.0
833.0
836.0
836.0
836.0
834.0
831.0
833.0
829.0
832.0
832.0
833.0
834.0
834.0
835.0
837.0
835.0
835.0
833.0
831.0
830.0
829.0
831.0
831.0
835.0
835.0
835.0
836.0
834.0
835.0
830.0
832.0
831.0
832.0
829.0
828.0
831.0
833.0
836.0
838.0
835.0
835.0
832.0
830.0
831.0
831.0
829.0
833.0
835.0
836.0
839.0
838.0
837.0
835.0
834.0
835.0
833.0
831.0
833.0
835.0
838.0
843.0
846.0
849.0
850.0
855.0
854.0
853.0
855.0
852.0
855.0
857.0
864.0
870.0
872.0
872.0
869.0
863.0
860.0
857.0
852.0
850.0
851.0
851.0
853.0
856.0
855.0
854.0
850.0
847.0
842.0
837.0
829.0
827.0
824.0
824.0
828.0
827.0
827.0
829.0
824.0
823.0
819.0
818.0
819.0
819.0
819.0
822.0
822.0
825.0
827.0
826.0
826.0
823.0
823.0
818.0
819.0
817.0
816.0
818.0
822.0
825.0
827.0
824.0
828.0
826.0
828.0
824.0
824.0
827.0
824.0
826.0
832.0
838.0
839.0
839.0
842.0
843.0
851.0
863.0
886.0
924.0
970.0
1019.0
1076.0
1132.0
1184.0
1226.0
1236.0
1213.0
1153.0
1064.0
957.0
846.0
756.0
705.0
700.0
720.0
757.0
791.0
810.0
820.0
823.0
819.0
821.0
823.0
824.0
830.0
833.0
833.0
836.0
836.0
835.0
832.0
830.0
832.0
828.0
830.0
832.0
831.0
832.0
832.0
836.0
836.0
837.0
836.0
834.0
832.0
831.0
830.0
829.0
831.0
834.0
836.0
836.0
836.0
836.0
834.0
835.0
833.0
832.0
834.0
832.0
833.0
835.0
835.0
837.0
836.0
839.0
836.0
836.0
836.0
835.0
835.0
833.0
836.0
841.0
841.0
844.0
842.0
843.0
842.0
839.0
838.0
841.0
839.0
839.0
843.0
847.0
849.0
853.0
854.0
856.0
858.0
858.0
860.0
860.0
861.0
864.0
867.0
872.0
876.0
883.0
884.0
888.0
888.0
886.0
889.0
893.0
895.0
898.0
903.0
907.0
910.0
913.0
915.0
918.0
921.0
921.0
918.0
919.0
917.0
917.0
921.0
923.0
923.0
924.0
922.0
920.0
914.0
908.0
903.0
899.0
893.0
888.0
887.0
884.0
882.0
880.0
879.0
871.0
867.0
860.0
856.0
854.0
851.0
845.0
847.0
848.0
848.0
848.0
848.0
842.0
841.0
841.0
841.0
839.0
838.0
838.0
839.0
839.0
841.0
844.0
843.0
844.0
842.0
840.0
838.0
836.0
836.0
834.0
835.0
839.0
839.0
843.0
843.0
842.0
840.0
838.0
839.0
838.0
834.0
837.0
841.0
837.0
842.0
845.0
846.0
846.0
843.0
841.0
837.0
837.0
841.0
839.0
841.0
843.0
844.0
847.0
847.0
846.0
843.0
842.0
837.0
837.0
839.0
839.0
841.0
844.0
844.0
847.0
847.0
846.0
845.0
842.0
839.0
837.0
836.0
834.0
835.0
840.0
840.0
842.0
841.0
838.0
839.0
837.0
835.0
831.0
830.0
828.0
830.0
832.0
833.0
839.0
838.0
836.0
837.0
836.0
834.0
832.0
829.0
828.0
832.0
833.0
834.0
835.0
835.0
836.0
835.0
830.0
826.0
828.0
829.0
825.0
827.0
829.0
832.0
831.0
831.0
833.0
832.0
828.0
828.0
826.0
825.0
825.0
824.0
828.0
828.0
834.0
834.0
830.0
832.0
828.0
827.0
827.0
824.0
825.0
827.0
827.0
830.0
831.0
829.0
830.0
828.0
826.0
825.0
825.0
825.0
825.0
826.0
825.0
829.0
830.0
830.0
831.0
830.0
828.0
830.0
826.0
825.0
826.0
827.0
827.0
832.0
833.0
833.0
832.0
833.0
832.0
829.0
827.0
827.0
825.0
825.0
827.0
829.0
829.0
833.0
835.0
832.0
831.0
828.0
826.0
826.0
827.0
825.0
830.0
831.0
833.0
834.0
834.0
834.0
834.0
831.0
830.0
827.0
826.0
830.0
829.0
830.0
836.0
837.0
837.0
835.0
834.0
827.0
829.0
831.0
831.0
831.0
832.0
836.0
838.0
836.0
837.0
833.0
835.0
831.0
830.0
831.0
828.0
829.0
828.0
831.0
836.0
838.0
837.0
838.0
837.0
836.0
833.0
833.0
832.0
833.0
834.0
839.0
840.0
838.0
839.0
837.0
836.0
838.0
839.0
836.0
838.0
841.0
845.0
850.0
855.0
860.0
860.0
864.0
857.0
857.0
859.0
861.0
863.0
864.0
867.0
872.0
873.0
873.0
870.0
865.0
863.0
859.0
855.0
856.0
852.0
853.0
853.0
859.0
860.0
856.0
851.0
847.0
841.0
835.0
831.0
829.0
828.0
828.0
830.0
829.0
832.0
831.0
832.0
826.0
830.0
828.0
826.0
827.0
828.0
826.0
825.0
831.0
831.0
835.0
834.0
834.0
831.0
831.0
830.0
825.0
827.0
827.0
830.0
832.0
832.0
832.0
835.0
835.0
836.0
836.0
836.0
836.0
836.0
836.0
841.0
845.0
845.0
850.0
856.0
864.0
872.0
898.0
937.0
985.0
1035.0
1090.0
1149.0
1202.0
1231.0
1228.0
1174.0
1086.0
972.0
855.0
761.0
711.0
704.0
732.0
768.0
801.0
826.0
832.0
834.0
830.0
828.0
829.0
828.0
833.0
833.0
837.0
839.0
838.0
841.0
840.0
840.0
839.0
838.0
838.0
838.0
837.0
833.0
833.0
841.0
840.0
843.0
846.0
843.0
843.0
838.0
835.0
832.0
831.0
835.0
835.0
839.0
839.0
840.0
843.0
842.0
842.0
839.0
837.0
838.0
836.0
838.0
836.0
840.0
840.0
844.0
845.0
843.0
842.0
839.0
840.0
839.0
840.0
838.0
841.0
844.0
846.0
849.0
850.0
848.0
851.0
851.0
848.0
849.0
850.0
851.0
852.0
853.0
856.0
860.0
864.0
865.0
867.0
869.0
867.0
870.0
870.0
871.0
874.0
879.0
884.0
889.0
892.0
896.0
896.0
894.0
898.0
901.0
902.0
904.0
907.0
913.0
917.0
922.0
923.0
923.0
928.0
930.0
925.0
924.0
925.0
925.0
927.0
926.0
925.0
921.0
920.0
917.0
911.0
907.0
904.0
898.0
893.0
889.0
881.0
880.0
876.0
876.0
875.0
870.0
867.0
864.0
861.0
857.0
852.0
852.0
850.0
851.0
852.0
851.0
854.0
851.0
852.0
848.0
847.0
843.0
842.0
841.0
841.0
841.0
845.0
845.0
847.0
847.0
844.0
838.0
834.0
834.0
835.0
835.0
839.0
839.0
843.0
847.0
846.0
848.0
846.0
844.0
843.0
842.0
842.0
841.0
840.0
840.0
845.0
847.0
850.0
849.0
848.0
848.0
842.0
843.0
841.0
840.0
844.0
843.0
845.0
849.0
850.0
849.0
848.0
847.0
843.0
842.0
844.0
843.0
842.0
844.0
845.0
849.0
849.0
850.0
847.0
844.0
846.0
840.0
840.0
839.0
838.0
840.0
841.0
839.0
840.0
843.0
844.0
840.0
837.0
833.0
834.0
833.0
836.0
837.0
841.0
841.0
843.0
843.0
843.0
839.0
835.0
828.0
827.0
834.0
833.0
834.0
838.0
838.0
839.0
840.0
839.0
833.0
833.0
831.0
832.0
833.0
830.0
834.0
836.0
838.0
841.0
840.0
839.0
838.0
837.0
832.0
832.0
833.0
833.0
833.0
836.0
835.0
838.0
838.0
835.0
834.0
833.0
832.0
827.0
828.0
831.0
833.0
830.0
832.0
835.0
835.0
835.0
837.0
834.0
832.0
829.0
828.0
829.0
831.0
834.0
837.0
835.0
835.0
836.0
835.0
833.0
831.0
828.0
830.0
828.0
830.0
833.0
836.0
836.0
839.0
838.0
832.0
830.0
827.0
825.0
826.0
831.0
834.0
834.0
840.0
838.0
840.0
836.0
836.0
834.0
830.0
827.0
829.0
828.0
829.0
831.0
833.0
833.0
832.0
832.0
831.0
833.0
830.0
827.0
828.0
829.0
829.0
835.0
840.0
840.0
841.0
845.0
847.0
848.0
846.0
847.0
850.0
850.0
852.0
854.0
857.0
861.0
866.0
868.0
869.0
865.0
863.0
857.0
855.0
855.0
848.0
851.0
855.0
860.0
859.0
857.0
854.0
847.0
840.0
834.0
827.0
823.0
828.0
826.0
830.0
830.0
829.0
827.0
823.0
822.0
820.0
816.0
816.0
816.0
820.0
821.0
821.0
823.0
823.0
824.0
821.0
819.0
819.0
816.0
816.0
818.0
816.0
821.0
820.0
824.0
824.0
827.0
828.0
825.0
825.0
823.0
822.0
824.0
828.0
829.0
833.0
834.0
831.0
835.0
835.0
838.0
848.0
867.0
899.0
944.0
990.0
1042.0
1095.0
1148.0
1201.0
1228.0
1225.0
1185.0
1107.0
1003.0
884.0
779.0
706.0
673.0
674.0
701.0
733.0
762.0
781.0
796.0
805.0
809.0
813.0
816.0
820.0
819.0
822.0
825.0
825.0
826.0
824.0
824.0
822.0
821.0
820.0
821.0
823.0
826.0
825.0
828.0
829.0
828.0
826.0
824.0
824.0
820.0
820.0
820.0
822.0
824.0
825.0
827.0
828.0
827.0
828.0
825.0
822.0
820.0
821.0
823.0
824.0
826.0
827.0
827.0
829.0
828.0
829.0
828.0
824.0
824.0
823.0
824.0
828.0
829.0
831.0
836.0
835.0
836.0
836.0
836.0
835.0
836.0
832.0
836.0
842.0
846.0
848.0
851.0
849.0
852.0
854.0
857.0
859.0
858.0
861.0
862.0
864.0
868.0
873.0
878.0
879.0
882.0
885.0
884.0
883.0
884.0
885.0
891.0
893.0
897.0
902.0
908.0
908.0
908.0
908.0
905.0
905.0
902.0
900.0
899.0
898.0
898.0
896.0
895.0
891.0
888.0
883.0
876.0
867.0
862.0
860.0
858.0
858.0
858.0
859.0
856.0
855.0
852.0
847.0
841.0
839.0
838.0
835.0
836.0
835.0
835.0
837.0
838.0
835.0
837.0
837.0
834.0
828.0
827.0
830.0
828.0
830.0
829.0
830.0
831.0
833.0
834.0
832.0
831.0
828.0
827.0
829.0
826.0
825.0
831.0
834.0
836.0
839.0
838.0
837.0
834.0
833.0
829.0
830.0
831.0
833.0
838.0
837.0
843.0
841.0
844.0
843.0
840.0
838.0
837.0
838.0
838.0
839.0
838.0
840.0
842.0
840.0
840.0
843.0
839.0
839.0
837.0
838.0
837.0
838.0
839.0
841.0
843.0
842.0
843.0
839.0
835.0
834.0
832.0
834.0
832.0
836.0
835.0
835.0
835.0
835.0
836.0
836.0
832.0
832.0
827.0
830.0
830.0
830.0
828.0
835.0
839.0
838.0
837.0
833.0
831.0
833.0
830.0
828.0
829.0
830.0
832.0
833.0
836.0
835.0
835.0
833.0
831.0
830.0
828.0
826.0
828.0
827.0
832.0
834.0
834.0
836.0
833.0
833.0
832.0
832.0
826.0
828.0
827.0
828.0
827.0
833.0
834.0
833.0
833.0
832.0
832.0
830.0
826.0
827.0
825.0
825.0
829.0
831.0
833.0
835.0
832.0
832.0
830.0
827.0
829.0
830.0
830.0
828.0
831.0
828.0
834.0
833.0
832.0
832.0
830.0
832.0
829.0
828.0
827.0
826.0
828.0
831.0
836.0
834.0
834.0
833.0
831.0
831.0
829.0
832.0
829.0
830.0
833.0
835.0
839.0
838.0
837.0
838.0
839.0
840.0
840.0
845.0
847.0
848.0
853.0
856.0
861.0
863.0
860.0
861.0
862.0
862.0
862.0
863.0
862.0
862.0
862.0
861.0
859.0
858.0
855.0
855.0
854.0
852.0
850.0
852.0
849.0
846.0
844.0
843.0
841.0
837.0
832.0
827.0
826.0
824.0
821.0
820.0
818.0
819.0
820.0
821.0
826.0
824.0
824.0
821.0
819.0
819.0
819.0
819.0
815.0
816.0
823.0
824.0
826.0
827.0
827.0
826.0
824.0
823.0
822.0
820.0
820.0
823.0
825.0
829.0
832.0
831.0
834.0
834.0
833.0
831.0
834.0
833.0
836.0
839.0
845.0
852.0
869.0
897.0
935.0
984.0
1034.0
1085.0
1142.0
1195.0
1235.0
1247.0
1223.0
1159.0
1064.0
950.0
840.0
748.0
700.0
692.0
716.0
750.0
783.0
804.0
815.0
818.0
820.0
819.0
820.0
827.0
830.0
834.0
833.0
831.0
829.0
829.0
830.0
830.0
834.0
831.0
835.0
838.0
837.0
833.0
828.0
831.0
830.0
831.0
834.0
835.0
839.0
838.0
838.0
837.0
835.0
833.0
831.0
832.0
832.0
835.0
835.0
838.0
837.0
836.0
838.0
838.0
836.0
835.0
836.0
836.0
835.0
834.0
836.0
838.0
841.0
839.0
840.0
840.0
836.0
836.0
834.0
837.0
839.0
841.0
843.0
844.0
847.0
851.0
853.0
855.0
851.0
852.0
856.0
854.0
855.0
858.0
861.0
865.0
870.0
870.0
874.0
875.0
877.0
876.0
878.0
882.0
885.0
890.0
892.0
897.0
899.0
901.0
908.0
907.0
909.0
908.0
912.0
911.0
915.0
917.0
921.0
925.0
929.0
930.0
930.0
931.0
929.0
927.0
922.0
922.0
916.0
914.0
913.0
912.0
910.0
902.0
899.0
893.0
889.0
880.0
876.0
875.0
868.0
866.0
863.0
860.0
861.0
858.0
856.0
852.0
854.0
851.0
848.0
844.0
844.0
843.0
843.0
843.0
847.0
845.0
846.0
846.0
844.0
841.0
842.0
840.0
839.0
837.0
839.0
842.0
845.0
843.0
843.0
845.0
843.0
841.0
840.0
839.0
838.0
841.0
842.0
843.0
845.0
845.0
848.0
847.0
844.0
842.0
843.0
841.0
843.0
845.0
846.0
846.0
848.0
850.0
848.0
849.0
849.0
845.0
847.0
845.0
844.0
842.0
845.0
846.0
849.0
851.0
849.0
850.0
845.0
845.0
844.0
843.0
842.0
842.0
845.0
845.0
846.0
847.0
849.0
845.0
843.0
842.0
837.0
837.0
835.0
835.0
838.0
842.0
841.0
841.0
840.0
842.0
838.0
837.0
834.0
835.0
832.0
833.0
834.0
835.0
838.0
838.0
840.0
837.0
837.0
834.0
833.0
832.0
827.0
827.0
832.0
831.0
835.0
838.0
837.0
835.0
833.0
831.0
829.0
827.0
827.0
830.0
830.0
831.0
833.0
833.0
832.0
831.0
832.0
828.0
828.0
827.0
826.0
826.0
826.0
830.0
830.0
831.0
833.0
831.0
829.0
829.0
826.0
827.0
825.0
825.0
825.0
828.0
827.0
833.0
834.0
832.0
829.0
829.0
827.0
823.0
823.0
826.0
826.0
829.0
829.0
828.0
831.0
830.0
829.0
826.0
828.0
828.0
826.0
827.0
829.0
830.0
832.0
832.0
831.0
830.0
830.0
828.0
826.0
826.0
824.0
827.0
829.0
829.0
830.0
830.0
831.0
830.0
829.0
828.0
824.0
826.0
827.0
825.0
827.0
831.0
831.0
832.0
833.0
832.0
829.0
827.0
827.0
823.0
827.0
824.0
827.0
831.0
832.0
831.0
832.0
833.0
830.0
828.0
826.0
828.0
830.0
831.0
834.0
836.0
840.0
846.0
847.0
853.0
852.0
852.0
850.0
850.0
849.0
852.0
851.0
857.0
862.0
865.0
865.0
862.0
856.0
852.0
847.0
845.0
845.0
846.0
849.0
849.0
851.0
853.0
851.0
846.0
838.0
833.0
828.0
824.0
821.0
817.0
819.0
821.0
823.0
821.0
819.0
821.0
819.0
817.0
819.0
817.0
818.0
817.0
818.0
819.0
819.0
822.0
821.0
819.0
820.0
818.0
815.0
816.0
817.0
819.0
818.0
821.0
823.0
825.0
825.0
827.0
824.0
825.0
824.0
825.0
826.0
828.0
832.0
836.0
838.0
844.0
847.0
854.0
869.0
895.0
935.0
978.0
1026.0
1082.0
1134.0
1187.0
1229.0
1240.0
1216.0
1153.0
1064.0
958.0
849.0
761.0
708.0
696.0
711.0
746.0
779.0
806.0
812.0
815.0
811.0
806.0
809.0
813.0
818.0
823.0
826.0
830.0
829.0
829.0
829.0
827.0
824.0
823.0
822.0
821.0
821.0
823.0
821.0
826.0
827.0
829.0
830.0
831.0
828.0
827.0
824.0
820.0
820.0
822.0
827.0
828.0
828.0
830.0
831.0
831.0
829.0
825.0
826.0
826.0
828.0
826.0
827.0
830.0
829.0
832.0
832.0
834.0
829.0
828.0
828.0
824.0
825.0
828.0
832.0
835.0
836.0
836.0
839.0
838.0
836.0
837.0
837.0
837.0
837.0
837.0
840.0
843.0
849.0
853.0
852.0
856.0
856.0
858.0
856.0
857.0
859.0
862.0
867.0
872.0
877.0
880.0
886.0
887.0
887.0
887.0
887.0
889.0
894.0
897.0
903.0
907.0
909.0
913.0
917.0
917.0
919.0
920.0
920.0
921.0
921.0
923.0
917.0
926.0
925.0
924.0
920.0
919.0
912.0
908.0
903.0
897.0
893.0
888.0
885.0
884.0
881.0
878.0
874.0
870.0
866.0
862.0
855.0
853.0
850.0
846.0
847.0
845.0
848.0
847.0
846.0
842.0
838.0
837.0
839.0
835.0
834.0
835.0
834.0
839.0
837.0
840.0
841.0
838.0
837.0
835.0
838.0
834.0
835.0
832.0
834.0
834.0
837.0
838.0
838.0
839.0
839.0
834.0
833.0
835.0
831.0
834.0
834.0
832.0
835.0
841.0
839.0
839.0
838.0
840.0
836.0
835.0
835.0
832.0
832.0
835.0
834.0
836.0
840.0
839.0
839.0
835.0
833.0
830.0
826.0
827.0
830.0
834.0
836.0
837.0
835.0
836.0
833.0
830.0
829.0
828.0
825.0
824.0
827.0
828.0
829.0
831.0
829.0
828.0
824.0
824.0
821.0
821.0
822.0
819.0
821.0
823.0
825.0
825.0
823.0
825.0
826.0
823.0
819.0
815.0
815.0
813.0
818.0
819.0
821.0
823.0
823.0
821.0
820.0
818.0
817.0
817.0
817.0
815.0
818.0
815.0
818.0
821.0
820.0
823.0
821.0
817.0
817.0
811.0
813.0
813.0
815.0
819.0
820.0
820.0
824.0
823.0
820.0
817.0
814.0
815.0
816.0
818.0
817.0
818.0
821.0
823.0
821.0
822.0
823.0
821.0
820.0
817.0
816.0
815.0
816.0
820.0
822.0
821.0
821.0
821.0
823.0
820.0
818.0
814.0
817.0
817.0
815.0
821.0
821.0
821.0
824.0
822.0
820.0
820.0
817.0
816.0
819.0
818.0
820.0
822.0
823.0
825.0
824.0
825.0
824.0
823.0
824.0
821.0
820.0
823.0
829.0
831.0
839.0
843.0
844.0
844.0
845.0
846.0
844.0
846.0
848.0
851.0
857.0
863.0
863.0
862.0
859.0
857.0
855.0
849.0
845.0
843.0
844.0
844.0
844.0
840.0
840.0
838.0
838.0
836.0
829.0
824.0
818.0
815.0
812.0
813.0
814.0
817.0
818.0
817.0
815.0
812.0
813.0
810.0
808.0
807.0
805.0
804.0
807.0
809.0
809.0
814.0
813.0
813.0
811.0
808.0
807.0
809.0
808.0
806.0
810.0
812.0
815.0
816.0
818.0
814.0
809.0
809.0
808.0
807.0
809.0
811.0
814.0
822.0
822.0
825.0
827.0
828.0
826.0
828.0
830.0
845.0
873.0
913.0
964.0
1015.0
1067.0
1120.0
1175.0
1219.0
1235.0
1214.0
1161.0
1075.0
976.0
866.0
772.0
708.0
678.0
680.0
698.0
729.0
753.0
766.0
774.0
778.0
780.0
791.0
799.0
807.0
817.0
821.0
824.0
821.0
816.0
809.0
808.0
810.0
810.0
810.0
812.0
816.0
822.0
823.0
821.0
823.0
820.0
816.0
816.0
815.0
813.0
813.0
812.0
812.0
817.0
822.0
823.0
822.0
823.0
820.0
819.0
817.0
814.0
813.0
818.0
816.0
817.0
823.0
823.0
820.0
817.0
817.0
817.0
817.0
818.0
819.0
822.0
822.0
825.0
828.0
830.0
829.0
827.0
827.0
828.0
828.0
826.0
829.0
829.0
832.0
836.0
836.0
837.0
840.0
842.0
838.0
840.0
839.0
842.0
846.0
849.0
850.0
856.0
859.0
861.0
861.0
864.0
867.0
870.0
869.0
871.0
875.0
881.0
888.0
889.0
891.0
892.0
895.0
899.0
898.0
901.0
900.0
898.0
903.0
905.0
907.0
913.0
917.0
916.0
917.0
913.0
910.0
903.0
898.0
894.0
889.0
887.0
886.0
881.0
880.0
874.0
873.0
867.0
862.0
859.0
849.0
847.0
842.0
841.0
842.0
843.0
841.0
843.0
841.0
836.0
834.0
832.0
829.0
826.0
828.0
827.0
832.0
834.0
836.0
833.0
832.0
831.0
829.0
829.0
826.0
824.0
825.0
826.0
830.0
832.0
834.0
832.0
831.0
831.0
826.0
825.0
825.0
826.0
829.0
832.0
834.0
836.0
836.0
841.0
840.0
839.0
837.0
837.0
834.0
833.0
834.0
837.0
839.0
841.0
845.0
847.0
846.0
844.0
842.0
841.0
839.0
838.0
837.0
843.0
844.0
846.0
846.0
845.0
843.0
844.0
841.0
841.0
840.0
838.0
836.0
839.0
837.0
841.0
841.0
840.0
841.0
840.0
839.0
836.0
835.0
833.0
831.0
833.0
832.0
835.0
838.0
840.0
840.0
837.0
836.0
834.0
835.0
834.0
832.0
833.0
833.0
835.0
833.0
835.0
834.0
836.0
834.0
833.0
831.0
831.0
830.0
832.0
835.0
837.0
837.0
836.0
834.0
834.0
831.0
830.0
830.0
828.0
829.0
830.0
831.0
834.0
833.0
834.0
832.0
836.0
834.0
834.0
831.0
831.0
831.0
832.0
834.0
834.0
838.0
836.0
839.0
838.0
831.0
831.0
833.0
831.0
830.0
832.0
832.0
836.0
840.0
837.0
836.0
835.0
833.0
831.0
833.0
832.0
833.0
835.0
839.0
839.0
842.0
843.0
843.0
842.0
842.0
845.0
848.0
849.0
853.0
854.0
859.0
861.0
865.0
866.0
870.0
872.0
870.0
872.0
870.0
868.0
866.0
863.0
865.0
864.0
865.0
865.0
864.0
863.0
860.0
861.0
857.0
852.0
848.0
844.0
842.0
837.0
839.0
837.0
836.0
832.0
830.0
826.0
823.0
820.0
819.0
822.0
824.0
827.0
828.0
829.0
828.0
831.0
829.0
827.0
826.0
826.0
826.0
826.0
827.0
830.0
832.0
832.0
833.0
833.0
829.0
830.0
827.0
827.0
827.0
829.0
831.0
836.0
837.0
837.0
840.0
837.0
839.0
839.0
841.0
842.0
842.0
846.0
856.0
866.0
899.0
938.0
987.0
1040.0
1096.0
1155.0
1214.0
1261.0
1279.0
1258.0
1201.0
1111.0
993.0
872.0
770.0
707.0
686.0
698.0
727.0
761.0
784.0
801.0
809.0
811.0
819.0
824.0
831.0
835.0
836.0
838.0
835.0
835.0
832.0
831.0
835.0
837.0
838.0
840.0
840.0
838.0
834.0
834.0
834.0
834.0
833.0
835.0
836.0
834.0
842.0
843.0
842.0
843.0
840.0
