# Simple Text Format
# Sampling Rate (Hz):= 360.00
# Resolution:= 12
# Labels:= ECG
981.0
972.0
964.0
959.0
951.0
945.0
944.0
940.0
938.0
941.0
938.0
933.0
926.0
925.0
923.0
917.0
919.0
915.0
917.0
917.0
917.0
919.0
918.0
917.0
918.0
914.0
912.0
913.0
911.0
912.0
914.0
911.0
913.0
913.0
911.0
911.0
911.0
907.0
908.0
908.0
907.0
908.0
911.0
910.0
912.0
913.0
913.0
914.0
912.0
911.0
910.0
911.0
909.0
908.0
913.0
915.0
917.0
919.0
918.0
916.0
917.0
914.0
912.0
913.0
917.0
916.0
918.0
917.0
918.0
922.0
926.0
924.0
927.0
923.0
918.0
918.0
917.0
913.0
916.0
920.0
920.0
923.0
925.0
927.0
923.0
923.0
920.0
919.0
916.0
917.0
919.0
919.0
920.0
921.0
919.0
918.0
919.0
918.0
918.0
916.0
912.0
913.0
911.0
913.0
915.0
919.0
919.0
919.0
919.0
915.0
913.0
909.0
906.0
906.0
908.0
911.0
915.0
916.0
915.0
912.0
914.0
912.0
907.0
909.0
907.0
906.0
905.0
907.0
910.0
911.0
913.0
911.0
912.0
909.0
909.0
910.0
908.0
907.0
907.0
908.0
910.0
911.0
912.0
912.0
912.0
911.0
909.0
908.0
905.0
907.0
910.0
912.0
910.0
916.0
917.0
923.0
924.0
928.0
929.0
928.0
929.0
928.0
931.0
932.0
936.0
939.0
944.0
947.0
946.0
948.0
939.0
937.0
931.0
928.0
930.0
931.0
933.0
937.0
939.0
939.0
937.0
928.0
925.0
920.0
914.0
911.0
907.0
906.0
908.0
907.0
906.0
904.0
901.0
900.0
897.0
894.0
893.0
893.0
893.0
893.0
897.0
898.0
902.0
897.0
897.0
899.0
894.0
893.0
891.0
891.0
892.0
897.0
895.0
895.0
898.0
898.0
900.0
899.0
897.0
897.0
897.0
894.0
894.0
900.0
900.0
904.0
903.0
905.0
906.0
904.0
904.0
907.0
907.0
907.0
910.0
917.0
929.0
956.0
997.0
1048.0
1108.0
1167.0
1228.0
1285.0
1324.0
1324.0
1288.0
1204.0
1086.0
958.0
830.0
739.0
702.0
708.0
747.0
791.0
825.0
848.0
860.0
870.0
876.0
881.0
888.0
892.0
900.0
902.0
901.0
901.0
894.0
891.0
892.0
891.0
899.0
900.0
903.0
903.0
904.0
902.0
900.0
898.0
897.0
895.0
893.0
896.0
896.0
902.0
903.0
904.0
902.0
901.0
895.0
895.0
897.0
894.0
895.0
896.0
896.0
899.0
901.0
902.0
899.0
897.0
896.0
895.0
896.0
894.0
894.0
896.0
902.0
904.0
904.0
907.0
907.0
904.0
904.0
905.0
904.0
902.0
907.0
911.0
909.0
915.0
918.0
921.0
921.0
922.0
923.0
918.0
920.0
922.0
929.0
931.0
938.0
942.0
947.0
949.0
951.0
952.0
953.0
955.0
959.0
960.0
965.0
969.0
973.0
978.0
981.0
984.0
987.0
988.0
988.0
988.0
986.0
986.0
988.0
987.0
990.0
989.0
986.0
985.0
981.0
973.0
965.0
960.0
953.0
949.0
943.0
943.0
941.0
941.0
937.0
933.0
925.0
919.0
913.0
909.0
906.0
905.0
904.0
903.0
906.0
906.0
902.0
905.0
905.0
898.0
896.0
892.0
890.0
889.0
888.0
892.0
894.0
894.0
897.0
897.0
894.0
895.0
890.0
888.0
887.0
887.0
887.0
889.0
889.0
892.0
894.0
894.0
893.0
893.0
889.0
890.0
890.0
889.0
891.0
891.0
895.0
895.0
896.0
897.0
900.0
900.0
897.0
894.0
893.0
893.0
893.0
896.0
899.0
900.0
905.0
902.0
901.0
899.0
896.0
898.0
894.0
893.0
897.0
895.0
897.0
898.0
904.0
903.0
902.0
903.0
899.0
898.0
896.0
891.0
892.0
888.0
892.0
896.0
900.0
897.0
897.0
896.0
895.0
890.0
887.0
884.0
882.0
882.0
884.0
891.0
890.0
889.0
890.0
887.0
883.0
878.0
879.0
881.0
882.0
883.0
887.0
887.0
890.0
885.0
887.0
882.0
883.0
882.0
879.0
878.0
880.0
880.0
881.0
884.0
887.0
886.0
886.0
883.0
880.0
876.0
874.0
873.0
875.0
877.0
877.0
882.0
881.0
881.0
882.0
880.0
878.0
878.0
875.0
875.0
875.0
877.0
878.0
882.0
883.0
882.0
881.0
879.0
876.0
875.0
877.0
876.0
875.0
877.0
875.0
878.0
880.0
883.0
884.0
882.0
880.0
876.0
876.0
878.0
879.0
880.0
884.0
885.0
890.0
894.0
896.0
896.0
901.0
899.0
900.0
898.0
901.0
902.0
906.0
910.0
914.0
917.0
915.0
912.0
908.0
903.0
902.0
900.0
902.0
898.0
902.0
902.0
902.0
903.0
901.0
898.0
893.0
886.0
880.0
877.0
873.0
871.0
872.0
872.0
875.0
872.0
868.0
868.0
864.0
862.0
860.0
859.0
863.0
865.0
864.0
865.0
867.0
868.0
869.0
863.0
865.0
864.0
861.0
859.0
860.0
860.0
862.0
869.0
869.0
867.0
869.0
870.0
865.0
866.0
866.0
863.0
865.0
866.0
867.0
872.0
875.0
875.0
880.0
881.0
880.0
881.0
882.0
885.0
902.0
930.0
975.0
1025.0
1079.0
1130.0
1184.0
1237.0
1279.0
1303.0
1296.0
1252.0
1182.0
1083.0
968.0
858.0
771.0
727.0
724.0
750.0
787.0
820.0
842.0
852.0
848.0
848.0
851.0
855.0
865.0
872.0
876.0
877.0
872.0
869.0
866.0
866.0
865.0
867.0
872.0
872.0
875.0
876.0
876.0
876.0
870.0
870.0
866.0
867.0
866.0
867.0
870.0
872.0
875.0
874.0
873.0
873.0
869.0
868.0
867.0
866.0
868.0
868.0
870.0
870.0
871.0
876.0
875.0
875.0
874.0
870.0
868.0
869.0
867.0
869.0
871.0
876.0
877.0
875.0
879.0
875.0
875.0
875.0
875.0
876.0
878.0
879.0
882.0
887.0
889.0
890.0
892.0
893.0
893.0
891.0
896.0
896.0
898.0
905.0
910.0
914.0
918.0
924.0
926.0
926.0
928.0
929.0
929.0
931.0
938.0
940.0
946.0
948.0
954.0
956.0
957.0
960.0
960.0
963.0
958.0
960.0
960.0
965.0
964.0
967.0
967.0
967.0
960.0
956.0
949.0
944.0
938.0
929.0
928.0
922.0
920.0
918.0
913.0
908.0
904.0
901.0
896.0
889.0
882.0
881.0
879.0
880.0
883.0
880.0
884.0
883.0
878.0
877.0
873.0
872.0
871.0
874.0
874.0
873.0
878.0
879.0
879.0
877.0
878.0
876.0
874.0
874.0
870.0
870.0
867.0
868.0
868.0
873.0
879.0
880.0
876.0
876.0
874.0
872.0
874.0
872.0
875.0
873.0
872.0
875.0
876.0
880.0
880.0
880.0
875.0
876.0
874.0
875.0
871.0
875.0
878.0
880.0
883.0
885.0
886.0
883.0
882.0
880.0
877.0
877.0
876.0
877.0
877.0
878.0
880.0
879.0
880.0
879.0
873.0
873.0
869.0
871.0
870.0
869.0
873.0
875.0
876.0
878.0
876.0
874.0
871.0
869.0
864.0
865.0
864.0
866.0
872.0
869.0
873.0
873.0
871.0
869.0
868.0
867.0
861.0
859.0
861.0
862.0
863.0
864.0
866.0
865.0
862.0
864.0
862.0
861.0
855.0
856.0
858.0
857.0
861.0
859.0
861.0
861.0
862.0
862.0
860.0
858.0
858.0
856.0
855.0
857.0
859.0
861.0
861.0
863.0
866.0
859.0
859.0
853.0
853.0
852.0
855.0
855.0
856.0
858.0
860.0
860.0
859.0
858.0
853.0
854.0
851.0
850.0
853.0
850.0
857.0
859.0
860.0
860.0
857.0
856.0
854.0
852.0
853.0
848.0
848.0
848.0
855.0
855.0
854.0
855.0
853.0
853.0
853.0
852.0
848.0
850.0
849.0
848.0
850.0
853.0
859.0
862.0
861.0
864.0
864.0
867.0
866.0
869.0
871.0
872.0
877.0
880.0
880.0
883.0
883.0
888.0
890.0
886.0
886.0
883.0
880.0
876.0
877.0
879.0
882.0
879.0
882.0
878.0
875.0
872.0
867.0
862.0
859.0
858.0
854.0
855.0
852.0
852.0
851.0
849.0
844.0
841.0
835.0
838.0
838.0
840.0
842.0
844.0
846.0
846.0
848.0
846.0
839.0
837.0
838.0
836.0
837.0
840.0
843.0
844.0
847.0
844.0
844.0
844.0
842.0
841.0
842.0
844.0
843.0
845.0
846.0
851.0
851.0
851.0
854.0
854.0
856.0
855.0
853.0
854.0
859.0
863.0
872.0
890.0
918.0
957.0
1005.0
1053.0
1102.0
1159.0
1212.0
1255.0
1274.0
1255.0
1202.0
1117.0
1013.0
896.0
793.0
723.0
690.0
690.0
718.0
753.0
780.0
800.0
809.0
816.0
821.0
828.0
836.0
844.0
848.0
850.0
851.0
851.0
847.0
848.0
849.0
849.0
850.0
854.0
856.0
856.0
851.0
851.0
850.0
847.0
847.0
849.0
853.0
852.0
856.0
852.0
851.0
852.0
849.0
849.0
848.0
849.0
847.0
848.0
849.0
851.0
855.0
856.0
860.0
857.0
854.0
852.0
852.0
850.0
852.0
854.0
854.0
858.0
858.0
858.0
857.0
859.0
857.0
859.0
857.0
857.0
857.0
859.0
859.0
860.0
860.0
863.0
870.0
867.0
867.0
867.0
867.0
867.0
869.0
872.0
873.0
875.0
881.0
881.0
888.0
888.0
891.0
891.0
896.0
898.0
899.0
901.0
905.0
913.0
917.0
919.0
922.0
924.0
925.0
926.0
927.0
926.0
929.0
933.0
939.0
942.0
947.0
949.0
949.0
947.0
945.0
943.0
940.0
936.0
934.0
935.0
931.0
930.0
930.0
921.0
920.0
911.0
906.0
901.0
898.0
893.0
887.0
886.0
884.0
880.0
879.0
875.0
875.0
870.0
865.0
865.0
864.0
860.0
862.0
861.0
863.0
861.0
865.0
864.0
859.0
859.0
859.0
856.0
857.0
854.0
853.0
857.0
859.0
860.0
863.0
860.0
860.0
860.0
856.0
853.0
854.0
854.0
856.0
856.0
859.0
863.0
864.0
864.0
864.0
866.0
861.0
860.0
861.0
861.0
859.0
862.0
866.0
864.0
869.0
871.0
867.0
865.0
865.0
865.0
866.0
867.0
867.0
868.0
870.0
873.0
874.0
875.0
874.0
872.0
870.0
868.0
866.0
863.0
864.0
864.0
866.0
865.0
867.0
870.0
868.0
868.0
869.0
867.0
867.0
861.0
864.0
865.0
863.0
862.0
869.0
870.0
869.0
867.0
864.0
862.0
860.0
859.0
860.0
858.0
861.0
862.0
866.0
866.0
863.0
862.0
860.0
860.0
857.0
855.0
857.0
859.0
858.0
859.0
862.0
863.0
863.0
861.0
861.0
859.0
858.0
855.0
855.0
857.0
859.0
858.0
860.0
860.0
859.0
859.0
855.0
853.0
854.0
853.0
853.0
855.0
856.0
857.0
859.0
860.0
860.0
858.0
860.0
858.0
858.0
852.0
852.0
854.0
856.0
856.0
859.0
860.0
859.0
857.0
858.0
857.0
854.0
855.0
853.0
854.0
857.0
860.0
860.0
861.0
861.0
862.0
863.0
862.0
859.0
855.0
854.0
858.0
858.0
860.0
863.0
862.0
867.0
868.0
866.0
869.0
867.0
873.0
874.0
877.0
879.0
881.0
885.0
891.0
894.0
897.0
897.0
896.0
892.0
888.0
883.0
883.0
883.0
884.0
884.0
886.0
885.0
885.0
880.0
878.0
873.0
866.0
861.0
856.0
853.0
855.0
853.0
854.0
852.0
852.0
849.0
847.0
842.0
842.0
841.0
844.0
846.0
845.0
851.0
850.0
848.0
846.0
846.0
844.0
843.0
845.0
841.0
840.0
844.0
847.0
851.0
855.0
852.0
853.0
851.0
848.0
847.0
846.0
846.0
846.0
849.0
852.0
857.0
859.0
863.0
861.0
860.0
862.0
864.0
869.0
886.0
917.0
963.0
1016.0
1076.0
1141.0
1203.0
1258.0
1291.0
1289.0
1240.0
1156.0
1042.0
914.0
798.0
718.0
683.0
687.0
720.0
759.0
793.0
810.0
820.0
818.0
822.0
826.0
834.0
843.0
854.0
859.0
861.0
860.0
856.0
852.0
848.0
848.0
847.0
848.0
852.0
855.0
856.0
857.0
859.0
856.0
854.0
850.0
852.0
849.0
850.0
849.0
852.0
852.0
855.0
857.0
856.0
856.0
856.0
855.0
853.0
851.0
851.0
850.0
853.0
856.0
856.0
856.0
855.0
854.0
854.0
853.0
854.0
852.0
853.0
856.0
855.0
860.0
861.0
860.0
863.0
861.0
861.0
860.0
860.0
860.0
861.0
862.0
864.0
867.0
871.0
871.0
875.0
875.0
874.0
876.0
878.0
877.0
880.0
881.0
887.0
890.0
892.0
898.0
898.0
902.0
903.0
905.0
906.0
906.0
909.0
912.0
916.0
924.0
928.0
931.0
934.0
935.0
939.0
939.0
941.0
941.0
944.0
945.0
947.0
951.0
954.0
952.0
951.0
949.0
944.0
941.0
936.0
930.0
927.0
922.0
917.0
915.0
912.0
908.0
901.0
896.0
890.0
888.0
880.0
878.0
873.0
871.0
872.0
871.0
870.0
873.0
870.0
871.0
864.0
862.0
862.0
862.0
860.0
858.0
860.0
863.0
863.0
865.0
862.0
860.0
854.0
856.0
853.0
855.0
854.0
852.0
856.0
857.0
861.0
860.0
863.0
862.0
857.0
859.0
855.0
856.0
853.0
859.0
863.0
861.0
868.0
869.0
867.0
867.0
862.0
864.0
860.0
863.0
862.0
864.0
866.0
867.0
868.0
870.0
867.0
867.0
866.0
866.0
864.0
865.0
863.0
864.0
863.0
868.0
867.0
868.0
868.0
868.0
864.0
862.0
859.0
859.0
859.0
863.0
860.0
863.0
863.0
863.0
861.0
863.0
859.0
856.0
854.0
854.0
854.0
854.0
855.0
856.0
859.0
859.0
858.0
857.0
855.0
853.0
852.0
851.0
848.0
849.0
849.0
852.0
853.0
853.0
853.0
853.0
851.0
848.0
846.0
847.0
847.0
847.0
847.0
849.0
850.0
851.0
852.0
852.0
849.0
846.0
845.0
845.0
842.0
845.0
846.0
848.0
848.0
850.0
849.0
849.0
845.0
842.0
841.0
842.0
843.0
841.0
845.0
845.0
849.0
848.0
849.0
849.0
845.0
842.0
842.0
842.0
842.0
843.0
846.0
844.0
846.0
851.0
850.0
849.0
846.0
846.0
843.0
844.0
841.0
842.0
845.0
844.0
847.0
848.0
846.0
847.0
845.0
842.0
841.0
842.0
843.0
843.0
846.0
846.0
848.0
849.0
850.0
848.0
848.0
844.0
842.0
841.0
842.0
841.0
843.0
845.0
844.0
848.0
851.0
847.0
846.0
845.0
841.0
842.0
839.0
839.0
840.0
845.0
846.0
846.0
845.0
846.0
844.0
843.0
841.0
840.0
839.0
841.0
842.0
840.0
842.0
843.0
845.0
848.0
847.0
846.0
844.0
840.0
844.0
846.0
845.0
846.0
849.0
848.0
848.0
849.0
847.0
843.0
843.0
842.0
843.0
842.0
843.0
846.0
847.0
851.0
848.0
848.0
844.0
846.0
845.0
843.0
841.0
847.0
848.0
847.0
849.0
851.0
853.0
852.0
848.0
847.0
849.0
847.0
846.0
844.0
847.0
848.0
849.0
854.0
853.0
851.0
849.0
848.0
848.0
847.0
848.0
850.0
852.0
854.0
855.0
858.0
859.0
857.0
861.0
864.0
864.0
869.0
869.0
873.0
873.0
878.0
879.0
882.0
882.0
885.0
886.0
884.0
881.0
879.0
873.0
874.0
875.0
876.0
875.0
877.0
874.0
875.0
873.0
870.0
864.0
864.0
858.0
853.0
849.0
846.0
845.0
846.0
847.0
845.0
842.0
838.0
833.0
834.0
833.0
833.0
835.0
839.0
839.0
839.0
841.0
839.0
838.0
835.0
836.0
835.0
836.0
837.0
838.0
839.0
841.0
843.0
844.0
844.0
841.0
839.0
839.0
839.0
838.0
838.0
843.0
845.0
847.0
850.0
851.0
852.0
852.0
852.0
851.0
855.0
859.0
872.0
896.0
934.0
979.0
1028.0
1078.0
1128.0
1179.0
1227.0
1259.0
1265.0
1239.0
1174.0
1084.0
975.0
866.0
778.0
719.0
703.0
723.0
759.0
795.0
819.0
830.0
830.0
825.0
826.0
828.0
835.0
843.0
847.0
844.0
843.0
842.0
839.0
838.0
837.0
838.0
842.0
843.0
847.0
846.0
845.0
846.0
843.0
842.0
843.0
842.0
844.0
843.0
846.0
846.0
845.0
846.0
846.0
847.0
844.0
841.0
838.0
839.0
844.0
844.0
845.0
845.0
847.0
844.0
848.0
847.0
844.0
845.0
845.0
842.0
846.0
842.0
844.0
845.0
844.0
848.0
847.0
850.0
847.0
847.0
847.0
847.0
849.0
848.0
852.0
857.0
857.0
858.0
858.0
857.0
859.0
860.0
859.0
860.0
865.0
867.0
872.0
874.0
878.0
880.0
879.0
885.0
879.0
884.0
886.0
889.0
892.0
894.0
899.0
905.0
906.0
910.0
912.0
912.0
914.0
914.0
913.0
916.0
916.0
922.0
928.0
933.0
935.0
937.0
938.0
937.0
936.0
932.0
933.0
932.0
931.0
929.0
928.0
930.0
927.0
923.0
920.0
912.0
908.0
903.0
895.0
892.0
889.0
887.0
886.0
882.0
880.0
879.0
876.0
872.0
869.0
864.0
859.0
860.0
857.0
858.0
859.0
857.0
862.0
860.0
859.0
854.0
854.0
851.0
851.0
848.0
853.0
855.0
853.0
853.0
857.0
856.0
857.0
853.0
852.0
853.0
852.0
851.0
851.0
853.0
856.0
858.0
862.0
858.0
861.0
860.0
858.0
854.0
853.0
853.0
853.0
855.0
855.0
857.0
858.0
856.0
858.0
857.0
856.0
854.0
853.0
849.0
851.0
852.0
857.0
857.0
860.0
860.0
858.0
857.0
856.0
855.0
850.0
850.0
849.0
848.0
851.0
849.0
850.0
852.0
852.0
853.0
847.0
848.0
845.0
845.0
844.0
845.0
846.0
846.0
847.0
847.0
846.0
844.0
842.0
837.0
834.0
838.0
835.0
839.0
839.0
840.0
843.0
840.0
840.0
842.0
839.0
837.0
834.0
832.0
832.0
834.0
838.0
840.0
842.0
840.0
838.0
838.0
835.0
834.0
832.0
831.0
831.0
833.0
833.0
838.0
839.0
839.0
838.0
839.0
834.0
832.0
830.0
829.0
832.0
833.0
835.0
836.0
838.0
837.0
837.0
834.0
831.0
833.0
831.0
829.0
830.0
828.0
830.0
832.0
832.0
830.0
833.0
837.0
835.0
833.0
830.0
831.0
826.0
831.0
833.0
835.0
836.0
837.0
838.0
837.0
831.0
832.0
831.0
831.0
828.0
832.0
834.0
833.0
837.0
836.0
835.0
835.0
831.0
831.0
830.0
831.0
831.0
833.0
835.0
836.0
838.0
839.0
837.0
833.0
834.0
835.0
835.0
833.0
834.0
836.0
835.0
839.0
841.0
842.0
842.0
841.0
835.0
836.0
832.0
834.0
832.0
834.0
835.0
836.0
837.0
840.0
842.0
841.0
840.0
839.0
838.0
839.0
838.0
837.0
837.0
841.0
840.0
841.0
841.0
840.0
841.0
838.0
836.0
836.0
836.0
836.0
839.0
840.0
843.0
842.0
843.0
840.0
838.0
836.0
834.0
834.0
835.0
839.0
839.0
843.0
842.0
845.0
845.0
842.0
839.0
836.0
838.0
838.0
839.0
838.0
840.0
842.0
846.0
846.0
838.0
839.0
835.0
835.0
836.0
835.0
838.0
838.0
839.0
840.0
845.0
845.0
846.0
846.0
843.0
842.0
841.0
839.0
840.0
841.0
848.0
856.0
859.0
862.0
866.0
866.0
865.0
864.0
864.0
866.0
868.0
874.0
878.0
880.0
883.0
875.0
874.0
872.0
867.0
862.0
860.0
860.0
858.0
861.0
863.0
861.0
861.0
855.0
848.0
847.0
841.0
835.0
837.0
835.0
832.0
831.0
834.0
830.0
833.0
833.0
834.0
831.0
829.0
831.0
829.0
825.0
825.0
825.0
828.0
831.0
832.0
832.0
833.0
834.0
830.0
829.0
829.0
827.0
830.0
830.0
834.0
839.0
838.0
837.0
836.0
836.0
835.0
835.0
834.0
837.0
838.0
841.0
843.0
846.0
852.0
854.0
861.0
880.0
914.0
956.0
1008.0
1056.0
1111.0
1167.0
1220.0
1256.0
1264.0
1231.0
1163.0
1065.0
955.0
843.0
749.0
691.0
667.0
678.0
713.0
743.0
770.0
786.0
789.0
795.0
797.0
803.0
809.0
817.0
827.0
833.0
837.0
835.0
839.0
839.0
837.0
835.0
834.0
832.0
835.0
833.0
832.0
833.0
838.0
839.0
842.0
843.0
842.0
835.0
837.0
835.0
834.0
833.0
835.0
833.0
835.0
837.0
835.0
836.0
836.0
835.0
831.0
833.0
835.0
836.0
833.0
837.0
837.0
840.0
841.0
841.0
841.0
839.0
837.0
836.0
837.0
833.0
837.0
838.0
840.0
839.0
844.0
844.0
844.0
847.0
843.0
844.0
846.0
845.0
849.0
849.0
851.0
857.0
857.0
858.0
859.0
859.0
861.0
859.0
860.0
862.0
865.0
869.0
873.0
878.0
884.0
886.0
889.0
890.0
890.0
889.0
892.0
892.0
893.0
895.0
899.0
905.0
907.0
911.0
911.0
916.0
914.0
913.0
916.0
913.0
914.0
916.0
917.0
920.0
920.0
920.0
919.0
916.0
912.0
903.0
901.0
895.0
892.0
892.0
889.0
886.0
887.0
884.0
883.0
879.0
874.0
867.0
864.0
859.0
860.0
858.0
859.0
861.0
861.0
860.0
858.0
858.0
854.0
848.0
850.0
850.0
851.0
851.0
853.0
849.0
851.0
854.0
852.0
852.0
849.0
846.0
847.0
850.0
846.0
847.0
850.0
851.0
853.0
854.0
855.0
855.0
851.0
852.0
852.0
850.0
851.0
854.0
856.0
858.0
862.0
862.0
863.0
861.0
861.0
860.0
858.0
858.0
858.0
858.0
860.0
863.0
865.0
865.0
865.0
864.0
862.0
861.0
860.0
859.0
856.0
860.0
858.0
859.0
862.0
866.0
863.0
863.0
861.0
856.0
857.0
855.0
855.0
854.0
856.0
857.0
858.0
858.0
856.0
854.0
852.0
853.0
850.0
850.0
844.0
850.0
848.0
848.0
855.0
854.0
854.0
850.0
850.0
846.0
845.0
845.0
843.0
848.0
851.0
852.0
853.0
852.0
852.0
850.0
848.0
848.0
847.0
846.0
846.0
845.0
846.0
849.0
850.0
850.0
850.0
849.0
847.0
846.0
843.0
842.0
843.0
843.0
845.0
848.0
852.0
853.0
852.0
851.0
847.0
844.0
843.0
841.0
840.0
844.0
846.0
844.0
850.0
850.0
850.0
851.0
847.0
843.0
843.0
841.0
840.0
842.0
846.0
846.0
846.0
846.0
846.0
845.0
844.0
843.0
842.0
841.0
838.0
841.0
846.0
847.0
850.0
846.0
850.0
849.0
844.0
843.0
844.0
845.0
843.0
841.0
842.0
847.0
849.0
847.0
847.0
846.0
842.0
842.0
841.0
840.0
841.0
845.0
844.0
845.0
844.0
851.0
850.0
850.0
850.0
847.0
845.0
841.0
845.0
845.0
848.0
846.0
848.0
852.0
851.0
852.0
848.0
846.0
846.0
843.0
842.0
847.0
847.0
851.0
853.0
852.0
850.0
849.0
845.0
842.0
841.0
843.0
843.0
844.0
847.0
848.0
850.0
850.0
849.0
851.0
849.0
847.0
846.0
845.0
843.0
846.0
847.0
850.0
850.0
851.0
850.0
852.0
852.0
847.0
847.0
842.0
844.0
845.0
849.0
851.0
852.0
856.0
854.0
854.0
853.0
847.0
848.0
846.0
848.0
852.0
855.0
857.0
861.0
865.0
869.0
872.0
871.0
872.0
871.0
871.0
872.0
876.0
881.0
885.0
892.0
887.0
887.0
889.0
882.0
879.0
875.0
870.0
872.0
870.0
870.0
871.0
870.0
872.0
870.0
865.0
861.0
853.0
847.0
842.0
840.0
838.0
838.0
839.0
842.0
840.0
838.0
835.0
837.0
834.0
832.0
833.0
831.0
834.0
837.0
836.0
838.0
840.0
839.0
841.0
838.0
834.0
835.0
834.0
833.0
830.0
835.0
837.0
842.0
842.0
844.0
841.0
843.0
841.0
841.0
840.0
844.0
843.0
849.0
847.0
852.0
857.0
860.0
866.0
876.0
899.0
934.0
980.0
1028.0
1080.0
1133.0
1188.0
1238.0
1270.0
1279.0
1252.0
1190.0
1102.0
994.0
884.0
788.0
727.0
702.0
709.0
740.0
779.0
805.0
822.0
823.0
819.0
817.0
816.0
821.0
827.0
836.0
842.0
848.0
846.0
844.0
842.0
841.0
839.0
837.0
836.0
837.0
837.0
838.0
841.0
844.0
842.0
845.0
844.0
840.0
838.0
837.0
836.0
837.0
838.0
840.0
842.0
844.0
844.0
844.0
841.0
839.0
836.0
836.0
835.0
836.0
840.0
841.0
841.0
845.0
845.0
845.0
846.0
844.0
842.0
843.0
841.0
841.0
842.0
844.0
846.0
850.0
846.0
847.0
850.0
848.0
847.0
847.0
847.0
848.0
851.0
852.0
856.0
858.0
862.0
862.0
862.0
863.0
862.0
864.0
864.0
865.0
865.0
871.0
876.0
880.0
881.0
883.0
886.0
886.0
888.0
891.0
892.0
894.0
897.0
900.0
906.0
909.0
913.0
914.0
918.0
917.0
917.0
919.0
921.0
920.0
919.0
926.0
928.0
933.0
934.0
934.0
932.0
927.0
924.0
920.0
915.0
914.0
910.0
910.0
908.0
906.0
904.0
896.0
892.0
885.0
882.0
879.0
873.0
872.0
866.0
866.0
863.0
865.0
864.0
862.0
859.0
859.0
856.0
855.0
850.0
851.0
848.0
848.0
852.0
853.0
854.0
853.0
854.0
852.0
848.0
847.0
846.0
847.0
847.0
846.0
849.0
852.0
851.0
853.0
854.0
851.0
851.0
847.0
848.0
849.0
850.0
852.0
853.0
855.0
858.0
858.0
857.0
853.0
850.0
848.0
849.0
849.0
849.0
853.0
859.0
859.0
859.0
861.0
859.0
858.0
858.0
857.0
855.0
854.0
854.0
855.0
856.0
858.0
858.0
856.0
854.0
854.0
852.0
852.0
850.0
847.0
850.0
849.0
853.0
852.0
853.0
853.0
853.0
851.0
848.0
846.0
843.0
843.0
843.0
843.0
845.0
846.0
848.0
846.0
848.0
845.0
843.0
840.0
838.0
841.0
839.0
840.0
842.0
844.0
846.0
845.0
844.0
843.0
836.0
836.0
835.0
838.0
836.0
839.0
844.0
844.0
842.0
845.0
844.0
844.0
842.0
837.0
837.0
836.0
837.0
837.0
839.0
841.0
843.0
844.0
841.0
841.0
836.0
834.0
831.0
834.0
837.0
837.0
840.0
841.0
843.0
841.0
840.0
839.0
838.0
837.0
835.0
836.0
835.0
834.0
838.0
837.0
840.0
839.0
843.0
840.0
837.0
835.0
834.0
833.0
832.0
834.0
837.0
838.0
840.0
841.0
840.0
840.0
839.0
833.0
833.0
834.0
833.0
833.0
839.0
839.0
838.0
840.0
841.0
840.0
837.0
834.0
833.0
835.0
833.0
833.0
834.0
840.0
841.0
840.0
838.0
839.0
838.0
836.0
835.0
836.0
831.0
832.0
837.0
839.0
843.0
842.0
840.0
838.0
837.0
835.0
834.0
831.0
833.0
833.0
836.0
838.0
841.0
839.0
839.0
838.0
837.0
837.0
837.0
835.0
835.0
837.0
839.0
836.0
843.0
841.0
840.0
839.0
839.0
834.0
832.0
833.0
835.0
836.0
837.0
841.0
842.0
840.0
842.0
839.0
837.0
836.0
835.0
835.0
832.0
835.0
838.0
838.0
842.0
839.0
840.0
840.0
837.0
838.0
836.0
838.0
838.0
839.0
840.0
842.0
844.0
841.0
840.0
839.0
837.0
835.0
837.0
838.0
844.0
844.0
847.0
852.0
856.0
859.0
861.0
860.0
859.0
859.0
857.0
860.0
864.0
872.0
878.0
883.0
884.0
884.0
880.0
877.0
870.0
867.0
861.0
862.0
864.0
865.0
864.0
865.0
862.0
863.0
861.0
853.0
843.0
839.0
831.0
827.0
828.0
828.0
828.0
827.0
831.0
827.0
825.0
825.0
823.0
820.0
820.0
819.0
819.0
822.0
823.0
826.0
825.0
826.0
826.0
822.0
823.0
821.0
818.0
817.0
821.0
823.0
824.0
824.0
829.0
827.0
830.0
828.0
828.0
826.0
828.0
829.0
828.0
831.0
833.0
835.0
839.0
842.0
845.0
846.0
850.0
866.0
893.0
934.0
983.0
1034.0
1085.0
1142.0
1197.0
1236.0
1247.0
1221.0
1155.0
1057.0
944.0
831.0
741.0
695.0
685.0
708.0
740.0
773.0
793.0
804.0
806.0
807.0
809.0
815.0
820.0
827.0
830.0
832.0
833.0
832.0
832.0
828.0
827.0
828.0
826.0
827.0
827.0
829.0
829.0
832.0
833.0
834.0
837.0
834.0
834.0
829.0
826.0
826.0
828.0
829.0
832.0
833.0
836.0
836.0
832.0
833.0
831.0
830.0
829.0
831.0
830.0
833.0
829.0
837.0
838.0
837.0
837.0
837.0
835.0
837.0
832.0
835.0
834.0
833.0
842.0
840.0
842.0
841.0
843.0
839.0
841.0
840.0
842.0
843.0
842.0
845.0
845.0
850.0
854.0
855.0
858.0
858.0
858.0
855.0
856.0
859.0
859.0
860.0
865.0
873.0
877.0
877.0
880.0
881.0
882.0
884.0
886.0
889.0
892.0
894.0
899.0
902.0
906.0
907.0
912.0
911.0
911.0
911.0
911.0
912.0
913.0
915.0
916.0
917.0
920.0
917.0
917.0
913.0
903.0
906.0
900.0
891.0
888.0
886.0
885.0
881.0
879.0
880.0
874.0
872.0
868.0
863.0
859.0
855.0
852.0
851.0
850.0
850.0
849.0
849.0
844.0
845.0
842.0
839.0
837.0
836.0
837.0
838.0
837.0
841.0
844.0
844.0
844.0
842.0
838.0
837.0
836.0
835.0
837.0
837.0
839.0
840.0
845.0
846.0
844.0
844.0
843.0
843.0
844.0
842.0
843.0
845.0
847.0
849.0
850.0
849.0
850.0
845.0
847.0
844.0
843.0
843.0
844.0
846.0
847.0
848.0
849.0
850.0
851.0
852.0
850.0
848.0
847.0
847.0
844.0
848.0
847.0
850.0
849.0
850.0
849.0
846.0
843.0
841.0
841.0
840.0
840.0
840.0
840.0
842.0
