# Simple Text Format
# Sampling Rate (Hz):= 360.00
# Resolution:= 12
# Labels:= ECG
842.0
842.0
841.0
840.0
838.0
836.0
834.0
833.0
834.0
837.0
835.0
832.0
836.0
833.0
836.0
831.0
834.0
829.0
829.0
834.0
831.0
834.0
835.0
835.0
836.0
833.0
832.0
833.0
830.0
829.0
829.0
830.0
829.0
830.0
832.0
832.0
834.0
834.0
833.0
834.0
832.0
831.0
827.0
826.0
827.0
826.0
829.0
831.0
831.0
831.0
830.0
830.0
827.0
829.0
827.0
829.0
828.0
829.0
831.0
830.0
831.0
833.0
832.0
834.0
828.0
830.0
825.0
824.0
824.0
827.0
832.0
831.0
834.0
835.0
832.0
830.0
830.0
829.0
828.0
827.0
827.0
828.0
830.0
831.0
832.0
833.0
834.0
835.0
833.0
829.0
827.0
825.0
825.0
827.0
829.0
834.0
838.0
837.0
837.0
834.0
828.0
827.0
825.0
824.0
826.0
826.0
831.0
831.0
834.0
835.0
834.0
832.0
831.0
828.0
829.0
828.0
825.0
829.0
831.0
834.0
836.0
836.0
837.0
836.0
835.0
831.0
830.0
827.0
831.0
830.0
833.0
836.0
841.0
840.0
840.0
845.0
844.0
845.0
848.0
850.0
850.0
855.0
857.0
856.0
861.0
869.0
875.0
875.0
873.0
871.0
866.0
865.0
863.0
863.0
864.0
865.0
869.0
870.0
870.0
871.0
866.0
861.0
854.0
846.0
840.0
833.0
835.0
835.0
834.0
838.0
835.0
831.0
831.0
826.0
824.0
822.0
823.0
826.0
827.0
830.0
824.0
827.0
827.0
827.0
825.0
824.0
823.0
823.0
823.0
822.0
826.0
828.0
833.0
834.0
833.0
833.0
829.0
830.0
828.0
831.0
829.0
832.0
835.0
834.0
839.0
838.0
841.0
840.0
839.0
841.0
844.0
849.0
868.0
898.0
944.0
996.0
1052.0
1108.0
1170.0
1221.0
1260.0
1270.0
1242.0
1176.0
1077.0
956.0
835.0
741.0
684.0
663.0
678.0
710.0
743.0
763.0
778.0
787.0
795.0
804.0
813.0
825.0
835.0
837.0
836.0
835.0
829.0
828.0
829.0
825.0
827.0
827.0
830.0
833.0
836.0
833.0
835.0
833.0
833.0
831.0
831.0
828.0
830.0
829.0
833.0
834.0
838.0
835.0
837.0
836.0
835.0
834.0
833.0
832.0
828.0
830.0
832.0
834.0
836.0
839.0
839.0
839.0
834.0
834.0
835.0
835.0
835.0
834.0
838.0
840.0
843.0
841.0
841.0
843.0
838.0
840.0
838.0
838.0
838.0
841.0
845.0
847.0
851.0
847.0
849.0
854.0
849.0
849.0
849.0
852.0
848.0
855.0
860.0
863.0
865.0
868.0
869.0
870.0
870.0
870.0
872.0
870.0
873.0
877.0
882.0
886.0
890.0
888.0
892.0
892.0
892.0
897.0
894.0
896.0
898.0
904.0
907.0
912.0
916.0
919.0
919.0
920.0
916.0
915.0
911.0
911.0
910.0
909.0
907.0
908.0
909.0
906.0
904.0
898.0
894.0
886.0
883.0
879.0
875.0
872.0
870.0
871.0
870.0
870.0
867.0
866.0
860.0
857.0
856.0
851.0
849.0
850.0
850.0
853.0
852.0
852.0
854.0
852.0
852.0
848.0
849.0
847.0
847.0
847.0
849.0
851.0
854.0
854.0
852.0
850.0
850.0
850.0
846.0
848.0
849.0
848.0
850.0
852.0
855.0
854.0
855.0
857.0
854.0
850.0
849.0
849.0
849.0
852.0
854.0
853.0
860.0
860.0
857.0
859.0
857.0
854.0
853.0
849.0
853.0
854.0
855.0
857.0
859.0
857.0
856.0
856.0
857.0
855.0
855.0
853.0
849.0
851.0
853.0
859.0
857.0
856.0
856.0
858.0
853.0
854.0
850.0
848.0
847.0
849.0
849.0
849.0
853.0
850.0
846.0
849.0
849.0
847.0
843.0
844.0
844.0
843.0
846.0
846.0
848.0
850.0
848.0
846.0
844.0
842.0
839.0
837.0
838.0
838.0
842.0
843.0
845.0
843.0
844.0
843.0
842.0
841.0
839.0
837.0
834.0
837.0
837.0
838.0
843.0
843.0
840.0
840.0
839.0
835.0
834.0
834.0
833.0
835.0
838.0
841.0
841.0
840.0
842.0
840.0
839.0
837.0
836.0
834.0
834.0
837.0
838.0
839.0
839.0
841.0
841.0
839.0
836.0
834.0
833.0
832.0
833.0
834.0
837.0
837.0
840.0
840.0
841.0
839.0
839.0
837.0
837.0
834.0
831.0
833.0
836.0
837.0
837.0
839.0
840.0
841.0
839.0
836.0
834.0
835.0
834.0
834.0
838.0
840.0
842.0
840.0
841.0
839.0
836.0
834.0
830.0
834.0
834.0
835.0
838.0
837.0
838.0
840.0
841.0
841.0
839.0
837.0
835.0
833.0
832.0
833.0
835.0
837.0
841.0
838.0
842.0
842.0
839.0
836.0
838.0
836.0
836.0
837.0
840.0
844.0
844.0
845.0
846.0
845.0
844.0
846.0
848.0
850.0
855.0
860.0
862.0
867.0
864.0
867.0
869.0
871.0
875.0
871.0
873.0
870.0
868.0
865.0
864.0
863.0
867.0
865.0
864.0
861.0
858.0
854.0
851.0
846.0
842.0
841.0
838.0
837.0
837.0
837.0
833.0
833.0
828.0
826.0
826.0
822.0
823.0
824.0
827.0
828.0
830.0
830.0
829.0
828.0
827.0
824.0
821.0
821.0
822.0
825.0
826.0
830.0
829.0
831.0
831.0
829.0
830.0
825.0
827.0
827.0
829.0
831.0
831.0
833.0
838.0
839.0
840.0
840.0
841.0
845.0
842.0
850.0
862.0
891.0
937.0
984.0
1044.0
1101.0
1156.0
1212.0
1256.0
1278.0
1267.0
1213.0
1126.0
1013.0
894.0
792.0
722.0
693.0
704.0
736.0
773.0
800.0
813.0
813.0
810.0
808.0
816.0
822.0
831.0
837.0
840.0
842.0
838.0
833.0
827.0
829.0
828.0
828.0
832.0
833.0
835.0
838.0
841.0
838.0
836.0
834.0
833.0
834.0
829.0
831.0
834.0
835.0
838.0
834.0
836.0
838.0
837.0
833.0
833.0
833.0
833.0
833.0
835.0
838.0
840.0
840.0
839.0
839.0
840.0
837.0
835.0
834.0
832.0
834.0
836.0
839.0
843.0
844.0
845.0
844.0
844.0
841.0
841.0
842.0
839.0
844.0
848.0
849.0
850.0
853.0
856.0
858.0
858.0
861.0
860.0
858.0
860.0
865.0
866.0
872.0
875.0
880.0
882.0
882.0
884.0
884.0
884.0
886.0
891.0
893.0
897.0
900.0
904.0
911.0
910.0
915.0
914.0
914.0
914.0
914.0
916.0
918.0
922.0
927.0
929.0
931.0
929.0
925.0
924.0
919.0
917.0
910.0
908.0
904.0
902.0
900.0
897.0
896.0
890.0
886.0
878.0
872.0
867.0
861.0
860.0
860.0
858.0
860.0
859.0
859.0
858.0
853.0
851.0
849.0
847.0
846.0
843.0
847.0
844.0
848.0
851.0
850.0
851.0
851.0
847.0
847.0
842.0
842.0
842.0
842.0
845.0
847.0
849.0
849.0
852.0
850.0
846.0
845.0
844.0
843.0
839.0
846.0
845.0
849.0
849.0
851.0
852.0
849.0
850.0
849.0
846.0
845.0
841.0
844.0
846.0
847.0
849.0
853.0
851.0
851.0
850.0
846.0
844.0
843.0
842.0
846.0
848.0
849.0
851.0
851.0
850.0
850.0
846.0
842.0
844.0
842.0
841.0
841.0
839.0
844.0
844.0
846.0
845.0
843.0
840.0
838.0
836.0
834.0
835.0
834.0
834.0
838.0
839.0
839.0
838.0
839.0
837.0
833.0
832.0
831.0
829.0
829.0
831.0
833.0
835.0
835.0
834.0
833.0
829.0
830.0
828.0
828.0
825.0
828.0
828.0
829.0
831.0
830.0
831.0
827.0
826.0
824.0
827.0
825.0
826.0
825.0
827.0
829.0
831.0
834.0
832.0
830.0
829.0
826.0
827.0
827.0
827.0
827.0
827.0
828.0
827.0
833.0
832.0
830.0
830.0
829.0
825.0
824.0
822.0
824.0
828.0
828.0
835.0
835.0
834.0
834.0
834.0
828.0
829.0
830.0
826.0
830.0
832.0
833.0
834.0
837.0
838.0
835.0
832.0
828.0
827.0
825.0
823.0
824.0
826.0
831.0
833.0
833.0
831.0
832.0
827.0
827.0
824.0
826.0
826.0
828.0
829.0
831.0
833.0
832.0
832.0
831.0
831.0
833.0
828.0
827.0
827.0
828.0
827.0
831.0
833.0
834.0
832.0
834.0
830.0
828.0
828.0
829.0
827.0
828.0
831.0
835.0
834.0
835.0
837.0
835.0
834.0
833.0
830.0
828.0
830.0
828.0
832.0
834.0
834.0
835.0
836.0
836.0
834.0
833.0
831.0
833.0
831.0
830.0
832.0
833.0
834.0
837.0
837.0
836.0
835.0
831.0
831.0
829.0
830.0
827.0
832.0
833.0
842.0
845.0
849.0
850.0
852.0
849.0
853.0
852.0
854.0
856.0
855.0
859.0
863.0
870.0
874.0
877.0
875.0
874.0
870.0
866.0
864.0
860.0
860.0
859.0
860.0
859.0
860.0
859.0
858.0
853.0
847.0
839.0
835.0
833.0
828.0
826.0
828.0
828.0
823.0
825.0
821.0
823.0
821.0
819.0
813.0
818.0
816.0
818.0
823.0
824.0
822.0
823.0
820.0
817.0
815.0
815.0
815.0
818.0
820.0
821.0
822.0
823.0
822.0
824.0
823.0
822.0
822.0
821.0
820.0
820.0
824.0
826.0
832.0
835.0
835.0
839.0
839.0
839.0
844.0
857.0
888.0
932.0
977.0
1028.0
1084.0
1143.0
1197.0
1241.0
1263.0
1248.0
1191.0
1103.0
992.0
875.0
778.0
712.0
685.0
698.0
728.0
764.0
787.0
800.0
801.0
801.0
798.0
799.0
804.0
812.0
821.0
826.0
831.0
831.0
827.0
824.0
818.0
816.0
816.0
818.0
817.0
821.0
825.0
827.0
826.0
825.0
820.0
818.0
816.0
819.0
817.0
821.0
822.0
824.0
823.0
822.0
821.0
823.0
821.0
817.0
821.0
819.0
816.0
817.0
819.0
820.0
822.0
824.0
825.0
824.0
821.0
820.0
819.0
815.0
817.0
818.0
820.0
821.0
822.0
826.0
823.0
824.0
824.0
826.0
821.0
820.0
822.0
825.0
826.0
830.0
832.0
836.0
836.0
836.0
837.0
836.0
835.0
834.0
837.0
840.0
841.0
844.0
847.0
853.0
854.0
858.0
859.0
859.0
860.0
862.0
861.0
865.0
868.0
875.0
877.0
882.0
886.0
888.0
889.0
889.0
887.0
888.0
893.0
895.0
898.0
902.0
908.0
907.0
908.0
911.0
915.0
910.0
908.0
906.0
902.0
900.0
897.0
897.0
897.0
895.0
893.0
889.0
886.0
879.0
870.0
865.0
858.0
860.0
858.0
854.0
854.0
852.0
850.0
847.0
843.0
837.0
834.0
827.0
833.0
829.0
829.0
833.0
830.0
834.0
834.0
834.0
832.0
827.0
826.0
825.0
825.0
821.0
824.0
824.0
828.0
828.0
829.0
828.0
826.0
826.0
824.0
820.0
822.0
821.0
822.0
824.0
829.0
830.0
826.0
829.0
830.0
828.0
829.0
827.0
827.0
826.0
828.0
830.0
831.0
830.0
830.0
832.0
830.0
828.0
827.0
826.0
824.0
825.0
826.0
827.0
828.0
830.0
830.0
832.0
831.0
830.0
825.0
825.0
823.0
822.0
825.0
827.0
828.0
828.0
827.0
827.0
826.0
826.0
819.0
819.0
816.0
818.0
817.0
818.0
819.0
823.0
821.0
819.0
819.0
817.0
815.0
814.0
815.0
810.0
812.0
817.0
817.0
820.0
818.0
819.0
816.0
814.0
813.0
812.0
810.0
811.0
810.0
812.0
812.0
812.0
815.0
816.0
814.0
813.0
811.0
808.0
808.0
806.0
808.0
811.0
815.0
816.0
816.0
815.0
813.0
810.0
811.0
811.0
811.0
810.0
808.0
813.0
814.0
817.0
817.0
815.0
815.0
811.0
808.0
808.0
808.0
806.0
811.0
814.0
816.0
817.0
817.0
814.0
812.0
810.0
811.0
809.0
806.0
807.0
807.0
815.0
815.0
817.0
818.0
818.0
814.0
811.0
809.0
809.0
805.0
809.0
811.0
812.0
813.0
814.0
817.0
815.0
814.0
813.0
813.0
810.0
808.0
805.0
805.0
810.0
811.0
815.0
814.0
812.0
811.0
813.0
809.0
811.0
811.0
812.0
813.0
816.0
815.0
819.0
818.0
820.0
816.0
818.0
819.0
823.0
829.0
830.0
834.0
838.0
840.0
842.0
844.0
850.0
851.0
850.0
853.0
854.0
852.0
847.0
843.0
845.0
842.0
844.0
844.0
843.0
843.0
838.0
833.0
827.0
820.0
815.0
810.0
812.0
812.0
816.0
814.0
812.0
810.0
808.0
805.0
802.0
802.0
803.0
804.0
807.0
806.0
809.0
807.0
808.0
805.0
802.0
801.0
799.0
797.0
800.0
804.0
805.0
805.0
808.0
810.0
811.0
809.0
808.0
811.0
807.0
805.0
806.0
807.0
809.0
812.0
820.0
821.0
823.0
823.0
819.0
823.0
829.0
846.0
880.0
928.0
985.0
1044.0
1106.0
1172.0
1229.0
1262.0
1254.0
1202.0
1110.0
994.0
867.0
760.0
686.0
654.0
657.0
682.0
716.0
741.0
758.0
769.0
771.0
779.0
787.0
797.0
804.0
812.0
817.0
816.0
815.0
813.0
807.0
807.0
807.0
808.0
808.0
810.0
813.0
817.0
816.0
817.0
814.0
816.0
815.0
815.0
814.0
813.0
812.0
812.0
812.0
814.0
817.0
818.0
816.0
818.0
816.0
813.0
812.0
810.0
811.0
814.0
816.0
816.0
818.0
818.0
817.0
815.0
814.0
812.0
814.0
814.0
810.0
810.0
814.0
816.0
820.0
820.0
821.0
820.0
819.0
817.0
818.0
819.0
821.0
820.0
823.0
828.0
830.0
830.0
830.0
833.0
829.0
829.0
828.0
834.0
835.0
838.0
842.0
847.0
847.0
848.0
853.0
857.0
857.0
856.0
856.0
861.0
861.0
863.0
868.0
875.0
878.0
880.0
881.0
882.0
880.0
881.0
883.0
885.0
888.0
891.0
888.0
893.0
894.0
893.0
893.0
892.0
886.0
883.0
880.0
878.0
872.0
870.0
867.0
870.0
868.0
864.0
859.0
856.0
851.0
845.0
841.0
837.0
834.0
833.0
834.0
834.0
837.0
835.0
834.0
831.0
825.0
822.0
823.0
818.0
820.0
823.0
822.0
824.0
828.0
827.0
828.0
826.0
825.0
822.0
820.0
817.0
816.0
822.0
822.0
824.0
824.0
824.0
827.0
828.0
826.0
821.0
822.0
822.0
823.0
825.0
827.0
828.0
832.0
831.0
832.0
832.0
828.0
829.0
826.0
829.0
829.0
827.0
831.0
833.0
836.0
836.0
838.0
839.0
837.0
838.0
835.0
834.0
831.0
830.0
833.0
832.0
838.0
835.0
838.0
836.0
836.0
834.0
831.0
829.0
826.0
828.0
829.0
829.0
830.0
827.0
829.0
829.0
825.0
824.0
823.0
823.0
822.0
824.0
824.0
825.0
824.0
826.0
826.0
823.0
825.0
823.0
824.0
819.0
818.0
820.0
821.0
820.0
822.0
825.0
822.0
822.0
820.0
818.0
818.0
819.0
815.0
818.0
818.0
821.0
825.0
826.0
822.0
823.0
821.0
819.0
817.0
814.0
813.0
813.0
817.0
820.0
822.0
823.0
821.0
821.0
818.0
818.0
816.0
815.0
812.0
812.0
817.0
818.0
822.0
823.0
823.0
820.0
818.0
815.0
814.0
816.0
813.0
815.0
817.0
816.0
818.0
821.0
821.0
819.0
819.0
817.0
816.0
814.0
814.0
817.0
816.0
819.0
819.0
820.0
822.0
820.0
818.0
816.0
816.0
817.0
821.0
819.0
821.0
825.0
826.0
830.0
836.0
838.0
843.0
843.0
839.0
840.0
842.0
842.0
845.0
851.0
859.0
862.0
863.0
860.0
855.0
847.0
842.0
841.0
840.0
842.0
841.0
843.0
846.0
845.0
844.0
839.0
833.0
824.0
817.0
812.0
809.0
810.0
809.0
809.0
810.0
810.0
810.0
805.0
803.0
804.0
803.0
801.0
802.0
802.0
804.0
806.0
805.0
808.0
808.0
812.0
809.0
807.0
804.0
804.0
804.0
803.0
807.0
814.0
813.0
815.0
817.0
819.0
818.0
814.0
816.0
815.0
817.0
820.0
824.0
830.0
838.0
857.0
887.0
930.0
979.0
1031.0
1091.0
1154.0
1213.0
1259.0
1273.0
1250.0
1178.0
1074.0
947.0
820.0
718.0
658.0
649.0
667.0
703.0
739.0
764.0
778.0
787.0
793.0
796.0
803.0
811.0
813.0
811.0
811.0
811.0
810.0
812.0
812.0
814.0
815.0
818.0
816.0
817.0
816.0
816.0
812.0
813.0
813.0
816.0
818.0
818.0
821.0
820.0
819.0
816.0
816.0
814.0
813.0
814.0
810.0
812.0
818.0
820.0
819.0
821.0
818.0
816.0
816.0
815.0
813.0
814.0
813.0
817.0
820.0
823.0
823.0
825.0
825.0
824.0
823.0
821.0
822.0
820.0
824.0
821.0
828.0
832.0
836.0
835.0
836.0
835.0
834.0
836.0
838.0
839.0
841.0
845.0
849.0
856.0
860.0
861.0
859.0
865.0
865.0
870.0
872.0
875.0
878.0
881.0
884.0
889.0
897.0
897.0
899.0
901.0
900.0
902.0
899.0
904.0
907.0
910.0
912.0
915.0
916.0
916.0
915.0
910.0
904.0
899.0
894.0
891.0
887.0
882.0
881.0
879.0
876.0
869.0
864.0
858.0
853.0
847.0
844.0
840.0
840.0
839.0
837.0
837.0
836.0
834.0
831.0
829.0
826.0
825.0
824.0
822.0
820.0
824.0
826.0
825.0
827.0
824.0
824.0
823.0
822.0
819.0
820.0
821.0
819.0
821.0
823.0
823.0
825.0
825.0
824.0
824.0
824.0
822.0
821.0
825.0
827.0
830.0
830.0
829.0
832.0
831.0
833.0
831.0
829.0
826.0
827.0
822.0
826.0
829.0
833.0
834.0
835.0
834.0
834.0
835.0
831.0
833.0
830.0
829.0
830.0
832.0
832.0
833.0
834.0
833.0
833.0
833.0
831.0
829.0
830.0
828.0
829.0
829.0
830.0
833.0
832.0
832.0
832.0
832.0
829.0
828.0
825.0
826.0
825.0
826.0
827.0
829.0
829.0
830.0
830.0
829.0
827.0
822.0
820.0
821.0
822.0
821.0
821.0
820.0
825.0
826.0
826.0
824.0
823.0
820.0
819.0
821.0
821.0
820.0
822.0
824.0
827.0
823.0
825.0
823.0
822.0
818.0
817.0
815.0
818.0
817.0
822.0
821.0
824.0
823.0
822.0
823.0
819.0
817.0
816.0
817.0
819.0
817.0
821.0
820.0
827.0
823.0
823.0
821.0
820.0
818.0
817.0
818.0
817.0
818.0
820.0
820.0
821.0
818.0
817.0
816.0
816.0
815.0
813.0
817.0
813.0
813.0
817.0
821.0
822.0
823.0
823.0
823.0
820.0
820.0
818.0
818.0
819.0
819.0
820.0
823.0
824.0
822.0
822.0
823.0
818.0
813.0
814.0
815.0
817.0
818.0
820.0
822.0
823.0
823.0
825.0
823.0
821.0
818.0
818.0
816.0
818.0
817.0
823.0
824.0
829.0
826.0
827.0
828.0
825.0
824.0
832.0
835.0
838.0
844.0
845.0
847.0
852.0
852.0
853.0
854.0
854.0
853.0
854.0
855.0
855.0
851.0
850.0
852.0
851.0
847.0
846.0
845.0
843.0
843.0
845.0
841.0
839.0
834.0
834.0
832.0
828.0
826.0
824.0
821.0
816.0
816.0
814.0
809.0
804.0
809.0
808.0
812.0
814.0
813.0
815.0
812.0
809.0
808.0
806.0
807.0
808.0
808.0
809.0
812.0
814.0
812.0
814.0
814.0
812.0
811.0
810.0
812.0
813.0
815.0
818.0
822.0
821.0
823.0
823.0
823.0
824.0
822.0
820.0
824.0
830.0
836.0
846.0
868.0
906.0
953.0
1008.0
1062.0
1123.0
1180.0
1240.0
1266.0
1257.0
1206.0
1122.0
1010.0
887.0
780.0
707.0
678.0
686.0
720.0
756.0
785.0
801.0
803.0
804.0
806.0
811.0
816.0
821.0
825.0
826.0
823.0
820.0
819.0
819.0
820.0
824.0
824.0
827.0
827.0
826.0
828.0
826.0
825.0
820.0
819.0
818.0
821.0
827.0
828.0
829.0
830.0
827.0
828.0
825.0
825.0
824.0
822.0
820.0
822.0
828.0
830.0
833.0
834.0
834.0
831.0
828.0
828.0
829.0
828.0
827.0
829.0
832.0
835.0
838.0
838.0
839.0
837.0
835.0
834.0
833.0
832.0
836.0
839.0
837.0
842.0
847.0
846.0
847.0
848.0
847.0
847.0
850.0
848.0
852.0
856.0
861.0
865.0
867.0
872.0
876.0
875.0
878.0
877.0
879.0
883.0
883.0
893.0
899.0
902.0
905.0
909.0
912.0
912.0
914.0
915.0
917.0
919.0
922.0
926.0
931.0
931.0
932.0
931.0
931.0
929.0
925.0
920.0
916.0
911.0
904.0
901.0
897.0
896.0
891.0
887.0
878.0
875.0
867.0
863.0
859.0
853.0
853.0
848.0
847.0
846.0
849.0
845.0
842.0
841.0
838.0
839.0
836.0
836.0
834.0
835.0
839.0
836.0
841.0
838.0
835.0
837.0
835.0
835.0
834.0
834.0
833.0
836.0
836.0
837.0
839.0
838.0
840.0
840.0
836.0
834.0
834.0
832.0
834.0
837.0
840.0
844.0
845.0
845.0
844.0
844.0
839.0
839.0
836.0
835.0
840.0
837.0
841.0
841.0
842.0
842.0
843.0
842.0
838.0
837.0
837.0
838.0
836.0
838.0
838.0
839.0
844.0
843.0
845.0
840.0
840.0
833.0
833.0
835.0
834.0
835.0
838.0
838.0
841.0
841.0
838.0
837.0
834.0
833.0
832.0
829.0
829.0
830.0
832.0
832.0
835.0
834.0
834.0
832.0
830.0
828.0
825.0
822.0
823.0
825.0
828.0
829.0
833.0
832.0
830.0
828.0
827.0
827.0
824.0
824.0
822.0
825.0
825.0
824.0
827.0
827.0
826.0
825.0
822.0
820.0
822.0
821.0
822.0
823.0
823.0
822.0
826.0
824.0
825.0
824.0
821.0
820.0
817.0
820.0
820.0
822.0
822.0
825.0
825.0
827.0
826.0
824.0
820.0
819.0
818.0
819.0
815.0
819.0
821.0
821.0
819.0
820.0
823.0
819.0
816.0
816.0
814.0
815.0
811.0
814.0
819.0
822.0
823.0
822.0
825.0
825.0
824.0
823.0
822.0
821.0
821.0
824.0
823.0
828.0
826.0
827.0
826.0
821.0
825.0
821.0
822.0
819.0
821.0
821.0
824.0
822.0
825.0
827.0
828.0
826.0
824.0
820.0
818.0
818.0
819.0
823.0
825.0
825.0
829.0
829.0
828.0
828.0
826.0
823.0
823.0
820.0
820.0
821.0
821.0
825.0
827.0
829.0
831.0
825.0
825.0
824.0
824.0
825.0
824.0
823.0
825.0
829.0
828.0
830.0
828.0
827.0
827.0
828.0
828.0
826.0
828.0
830.0
829.0
835.0
839.0
843.0
849.0
850.0
847.0
847.0
846.0
849.0
852.0
853.0
860.0
867.0
871.0
871.0
869.0
867.0
863.0
859.0
857.0
855.0
850.0
848.0
849.0
853.0
856.0
852.0
851.0
844.0
835.0
829.0
825.0
821.0
820.0
818.0
822.0
818.0
819.0
822.0
824.0
822.0
821.0
818.0
819.0
814.0
815.0
818.0
818.0
821.0
821.0
822.0
824.0
824.0
824.0
819.0
820.0
819.0
819.0
818.0
823.0
824.0
826.0
824.0
825.0
826.0
827.0
827.0
826.0
826.0
828.0
832.0
838.0
839.0
844.0
855.0
867.0
897.0
939.0
988.0
1042.0
1097.0
1159.0
1219.0
1262.0
1273.0
1245.0
1177.0
1074.0
953.0
834.0
739.0
685.0
664.0
681.0
713.0
745.0
774.0
789.0
794.0
798.0
803.0
809.0
814.0
821.0
825.0
828.0
827.0
829.0
828.0
828.0
825.0
831.0
830.0
828.0
821.0
824.0
822.0
824.0
825.0
826.0
828.0
831.0
831.0
832.0
830.0
827.0
826.0
825.0
826.0
826.0
828.0
829.0
831.0
831.0
833.0
834.0
833.0
832.0
831.0
829.0
828.0
826.0
829.0
828.0
829.0
832.0
833.0
833.0
833.0
832.0
828.0
829.0
831.0
833.0
833.0
837.0
838.0
842.0
843.0
840.0
840.0
839.0
841.0
842.0
843.0
844.0
847.0
848.0
853.0
856.0
858.0
860.0
862.0
862.0
861.0
862.0
860.0
863.0
868.0
875.0
878.0
883.0
887.0
889.0
892.0
891.0
894.0
898.0
898.0
897.0
903.0
909.0
914.0
916.0
922.0
923.0
923.0
923.0
926.0
923.0
922.0
923.0
924.0
920.0
921.0
922.0
919.0
916.0
909.0
905.0
900.0
896.0
888.0
878.0
876.0
874.0
869.0
865.0
867.0
865.0
862.0
858.0
853.0
853.0
850.0
848.0
849.0
848.0
851.0
852.0
852.0
850.0
848.0
845.0
839.0
841.0
840.0
842.0
843.0
842.0
844.0
845.0
846.0
844.0
842.0
841.0
840.0
839.0
840.0
840.0
837.0
841.0
845.0
849.0
850.0
851.0
847.0
846.0
846.0
845.0
845.0
844.0
847.0
849.0
850.0
852.0
853.0
855.0
854.0
856.0
851.0
852.0
851.0
854.0
853.0
855.0
856.0
857.0
857.0
856.0
855.0
855.0
855.0
852.0
853.0
853.0
853.0
855.0
850.0
855.0
853.0
851.0
854.0
849.0
847.0
844.0
847.0
848.0
848.0
851.0
850.0
853.0
849.0
850.0
849.0
845.0
844.0
844.0
839.0
843.0
840.0
843.0
843.0
845.0
846.0
847.0
844.0
844.0
842.0
840.0
839.0
836.0
839.0
841.0
844.0
847.0
844.0
843.0
840.0
841.0
838.0
838.0
836.0
836.0
840.0
840.0
841.0
842.0
843.0
842.0
840.0
839.0
835.0
835.0
835.0
835.0
836.0
838.0
842.0
843.0
843.0
844.0
841.0
840.0
840.0
838.0
838.0
837.0
836.0
837.0
840.0
841.0
842.0
843.0
842.0
838.0
839.0
837.0
834.0
836.0
837.0
841.0
841.0
843.0
846.0
846.0
842.0
844.0
840.0
839.0
838.0
838.0
837.0
837.0
839.0
846.0
843.0
845.0
845.0
842.0
837.0
835.0
837.0
837.0
837.0
842.0
842.0
845.0
844.0
844.0
845.0
840.0
841.0
841.0
841.0
840.0
839.0
843.0
844.0
847.0
847.0
847.0
848.0
846.0
845.0
848.0
850.0
851.0
861.0
861.0
866.0
868.0
869.0
866.0
867.0
870.0
874.0
877.0
878.0
877.0
876.0
877.0
874.0
872.0
873.0
872.0
870.0
870.0
867.0
869.0
865.0
866.0
861.0
860.0
860.0
857.0
851.0
848.0
842.0
838.0
835.0
835.0
833.0
829.0
829.0
831.0
828.0
832.0
833.0
834.0
834.0
831.0
832.0
827.0
827.0
827.0
830.0
832.0
833.0
835.0
835.0
835.0
837.0
834.0
833.0
832.0
833.0
828.0
829.0
833.0
836.0
838.0
838.0
838.0
841.0
840.0
839.0
839.0
839.0
843.0
845.0
848.0
853.0
856.0
861.0
861.0
870.0
888.0
927.0
976.0
1030.0
1088.0
1150.0
1215.0
1266.0
1293.0
1276.0
1213.0
1113.0
985.0
857.0
748.0
683.0
662.0
683.0
722.0
762.0
792.0
808.0
816.0
818.0
821.0
824.0
827.0
833.0
837.0
840.0
845.0
844.0
845.0
845.0
845.0
841.0
840.0
839.0
841.0
842.0
840.0
840.0
839.0
844.0
846.0
849.0
847.0
846.0
843.0
841.0
842.0
840.0
840.0
841.0
841.0
844.0
843.0
845.0
847.0
845.0
845.0
842.0
839.0
840.0
835.0
839.0
842.0
845.0
847.0
848.0
849.0
845.0
846.0
847.0
846.0
845.0
845.0
845.0
849.0
852.0
853.0
856.0
856.0
857.0
856.0
854.0
853.0
853.0
853.0
856.0
860.0
865.0
868.0
873.0
871.0
874.0
870.0
872.0
875.0
877.0
882.0
887.0
890.0
893.0
898.0
903.0
904.0
907.0
909.0
912.0
911.0
913.0
918.0
919.0
923.0
930.0
933.0
938.0
939.0
938.0
942.0
939.0
936.0
935.0
934.0
935.0
929.0
928.0
930.0
927.0
923.0
915.0
911.0
906.0
899.0
894.0
890.0
885.0
886.0
881.0
879.0
881.0
876.0
871.0
868.0
862.0
857.0
857.0
854.0
854.0
853.0
855.0
852.0
855.0
857.0
852.0
851.0
849.0
847.0
848.0
847.0
848.0
851.0
852.0
853.0
854.0
854.0
850.0
849.0
851.0
849.0
851.0
848.0
850.0
851.0
853.0
855.0
856.0
854.0
856.0
855.0
852.0
852.0
851.0
853.0
850.0
853.0
854.0
858.0
860.0
861.0
860.0
857.0
857.0
856.0
857.0
857.0
855.0
860.0
859.0
860.0
862.0
862.0
861.0
861.0
855.0
857.0
854.0
853.0
855.0
854.0
856.0
858.0
857.0
859.0
855.0
853.0
853.0
849.0
848.0
850.0
850.0
853.0
855.0
857.0
856.0
855.0
850.0
854.0
852.0
850.0
847.0
847.0
848.0
849.0
852.0
850.0
855.0
856.0
852.0
849.0
844.0
842.0
845.0
846.0
845.0
847.0
848.0
849.0
850.0
849.0
849.0
848.0
845.0
844.0
844.0
843.0
843.0
845.0
848.0
848.0
851.0
852.0
851.0
847.0
845.0
843.0
845.0
843.0
840.0
843.0
843.0
844.0
844.0
848.0
848.0
847.0
846.0
840.0
838.0
839.0
841.0
842.0
843.0
846.0
847.0
848.0
846.0
844.0
842.0
843.0
840.0
842.0
841.0
842.0
847.0
844.0
848.0
849.0
849.0
846.0
846.0
843.0
838.0
837.0
841.0
844.0
848.0
848.0
847.0
848.0
845.0
845.0
844.0
843.0
841.0
841.0
842.0
844.0
846.0
847.0
847.0
848.0
848.0
844.0
847.0
845.0
845.0
843.0
842.0
848.0
848.0
851.0
853.0
852.0
850.0
851.0
848.0
845.0
842.0
846.0
847.0
849.0
850.0
852.0
853.0
854.0
851.0
852.0
849.0
847.0
844.0
846.0
845.0
848.0
850.0
854.0
855.0
854.0
852.0
853.0
851.0
849.0
850.0
851.0
854.0
857.0
866.0
865.0
870.0
873.0
876.0
873.0
877.0
878.0
874.0
878.0
880.0
