# Simple Text Format
# Sampling Rate (Hz):= 360.00
# Resolution:= 12
# Labels:= ECG
869.0
865.0
859.0
855.0
849.0
846.0
842.0
847.0
850.0
850.0
853.0
853.0
851.0
847.0
841.0
842.0
843.0
842.0
841.0
845.0
844.0
847.0
849.0
849.0
847.0
845.0
846.0
846.0
844.0
841.0
841.0
845.0
847.0
850.0
851.0
853.0
851.0
851.0
850.0
847.0
848.0
846.0
847.0
849.0
850.0
848.0
852.0
856.0
856.0
856.0
855.0
854.0
851.0
851.0
850.0
851.0
858.0
858.0
860.0
858.0
860.0
859.0
857.0
852.0
856.0
854.0
853.0
854.0
854.0
856.0
858.0
857.0
858.0
857.0
851.0
848.0
845.0
844.0
845.0
847.0
852.0
851.0
852.0
853.0
855.0
850.0
849.0
846.0
843.0
842.0
842.0
845.0
846.0
847.0
848.0
847.0
851.0
844.0
844.0
845.0
844.0
839.0
838.0
843.0
841.0
842.0
843.0
845.0
846.0
846.0
845.0
838.0
840.0
838.0
840.0
838.0
839.0
841.0
842.0
842.0
842.0
841.0
842.0
840.0
840.0
837.0
837.0
839.0
842.0
843.0
847.0
845.0
847.0
843.0
840.0
838.0
837.0
838.0
832.0
837.0
842.0
841.0
840.0
844.0
846.0
845.0
843.0
841.0
838.0
837.0
834.0
839.0
840.0
843.0
842.0
843.0
846.0
844.0
843.0
837.0
838.0
838.0
839.0
839.0
837.0
840.0
842.0
843.0
843.0
846.0
843.0
841.0
839.0
840.0
840.0
843.0
845.0
844.0
847.0
852.0
859.0
861.0
861.0
863.0
864.0
864.0
864.0
867.0
871.0
876.0
884.0
885.0
888.0
884.0
880.0
875.0
868.0
867.0
865.0
865.0
865.0
868.0
873.0
873.0
872.0
867.0
858.0
852.0
844.0
840.0
834.0
834.0
836.0
836.0
838.0
838.0
838.0
832.0
830.0
828.0
828.0
827.0
827.0
828.0
831.0
835.0
836.0
836.0
837.0
836.0
834.0
835.0
831.0
831.0
829.0
832.0
835.0
835.0
838.0
841.0
845.0
846.0
843.0
840.0
840.0
840.0
841.0
844.0
844.0
849.0
853.0
855.0
857.0
859.0
858.0
854.0
864.0
876.0
903.0
944.0
997.0
1056.0
1118.0
1181.0
1245.0
1299.0
1329.0
1320.0
1266.0
1172.0
1050.0
922.0
797.0
719.0
687.0
691.0
725.0
761.0
793.0
812.0
818.0
822.0
825.0
829.0
839.0
846.0
852.0
858.0
859.0
856.0
853.0
849.0
848.0
848.0
849.0
848.0
851.0
854.0
856.0
859.0
856.0
855.0
856.0
851.0
845.0
843.0
847.0
850.0
849.0
850.0
850.0
853.0
856.0
858.0
857.0
854.0
854.0
851.0
851.0
854.0
852.0
855.0
858.0
858.0
860.0
857.0
860.0
856.0
856.0
855.0
855.0
856.0
861.0
864.0
865.0
869.0
871.0
871.0
871.0
868.0
869.0
869.0
867.0
871.0
874.0
881.0
883.0
888.0
892.0
894.0
894.0
895.0
894.0
899.0
904.0
910.0
913.0
917.0
919.0
923.0
928.0
931.0
932.0
938.0
936.0
937.0
941.0
946.0
950.0
952.0
960.0
964.0
964.0
966.0
964.0
963.0
963.0
960.0
957.0
955.0
954.0
950.0
946.0
942.0
937.0
933.0
927.0
917.0
913.0
907.0
901.0
896.0
893.0
889.0
890.0
887.0
885.0
881.0
877.0
874.0
871.0
870.0
867.0
869.0
868.0
867.0
869.0
868.0
869.0
870.0
865.0
862.0
861.0
859.0
858.0
860.0
859.0
861.0
863.0
867.0
868.0
865.0
863.0
863.0
863.0
859.0
859.0
861.0
861.0
865.0
867.0
869.0
868.0
868.0
866.0
867.0
866.0
865.0
863.0
862.0
862.0
866.0
868.0
870.0
871.0
869.0
867.0
869.0
869.0
867.0
867.0
866.0
869.0
869.0
869.0
874.0
870.0
869.0
872.0
869.0
865.0
864.0
863.0
867.0
867.0
867.0
866.0
870.0
872.0
870.0
864.0
867.0
863.0
858.0
855.0
856.0
862.0
863.0
859.0
863.0
865.0
866.0
865.0
862.0
860.0
859.0
857.0
856.0
857.0
858.0
858.0
861.0
859.0
861.0
860.0
858.0
856.0
856.0
855.0
854.0
855.0
857.0
860.0
858.0
857.0
858.0
856.0
854.0
854.0
851.0
851.0
850.0
852.0
855.0
856.0
860.0
858.0
857.0
858.0
853.0
853.0
851.0
849.0
852.0
854.0
853.0
852.0
856.0
856.0
854.0
852.0
850.0
846.0
847.0
843.0
849.0
848.0
856.0
851.0
855.0
855.0
856.0
852.0
850.0
847.0
845.0
844.0
844.0
842.0
851.0
853.0
855.0
853.0
853.0
849.0
851.0
849.0
846.0
849.0
849.0
851.0
852.0
854.0
852.0
850.0
850.0
849.0
850.0
849.0
847.0
850.0
850.0
849.0
851.0
852.0
854.0
856.0
852.0
853.0
851.0
849.0
849.0
846.0
847.0
845.0
848.0
852.0
855.0
850.0
851.0
850.0
849.0
846.0
842.0
842.0
845.0
847.0
850.0
852.0
853.0
851.0
851.0
850.0
847.0
846.0
846.0
846.0
846.0
849.0
850.0
854.0
855.0
856.0
855.0
855.0
852.0
847.0
845.0
845.0
847.0
852.0
853.0
854.0
857.0
855.0
857.0
855.0
856.0
852.0
855.0
859.0
862.0
868.0
872.0
879.0
881.0
884.0
887.0
882.0
883.0
881.0
882.0
884.0
887.0
889.0
889.0
887.0
888.0
885.0
882.0
881.0
878.0
874.0
873.0
873.0
872.0
873.0
873.0
871.0
868.0
863.0
860.0
852.0
845.0
844.0
843.0
838.0
838.0
841.0
841.0
843.0
845.0
841.0
839.0
840.0
839.0
836.0
833.0
836.0
834.0
837.0
840.0
843.0
846.0
844.0
845.0
844.0
843.0
842.0
842.0
841.0
838.0
845.0
846.0
851.0
853.0
853.0
854.0
853.0
853.0
852.0
853.0
853.0
860.0
866.0
879.0
895.0
930.0
978.0
1032.0
1088.0
1142.0
1198.0
1253.0
1293.0
1302.0
1275.0
1206.0
1097.0
969.0
841.0
747.0
702.0
705.0
735.0
774.0
811.0
835.0
838.0
842.0
839.0
841.0
842.0
845.0
848.0
850.0
848.0
846.0
844.0
844.0
846.0
847.0
851.0
852.0
856.0
854.0
855.0
851.0
850.0
847.0
847.0
846.0
850.0
850.0
851.0
853.0
852.0
852.0
849.0
847.0
849.0
848.0
847.0
850.0
848.0
851.0
853.0
854.0
857.0
856.0
855.0
851.0
852.0
850.0
851.0
849.0
852.0
857.0
859.0
862.0
861.0
861.0
861.0
856.0
857.0
857.0
856.0
856.0
860.0
865.0
867.0
872.0
871.0
873.0
874.0
877.0
875.0
877.0
878.0
881.0
884.0
886.0
895.0
899.0
902.0
906.0
909.0
910.0
910.0
914.0
916.0
921.0
924.0
927.0
932.0
941.0
943.0
947.0
947.0
949.0
950.0
953.0
952.0
954.0
959.0
963.0
965.0
968.0
966.0
965.0
959.0
958.0
952.0
946.0
941.0
935.0
934.0
931.0
930.0
928.0
919.0
917.0
909.0
902.0
896.0
892.0
885.0
886.0
883.0
882.0
883.0
881.0
878.0
876.0
873.0
870.0
868.0
865.0
865.0
863.0
864.0
868.0
867.0
868.0
869.0
869.0
867.0
864.0
863.0
860.0
861.0
856.0
861.0
863.0
865.0
865.0
865.0
866.0
864.0
863.0
863.0
860.0
859.0
859.0
859.0
862.0
866.0
865.0
867.0
866.0
865.0
864.0
860.0
862.0
859.0
862.0
861.0
862.0
865.0
866.0
865.0
867.0
863.0
862.0
859.0
858.0
856.0
858.0
858.0
860.0
863.0
863.0
858.0
859.0
860.0
859.0
856.0
855.0
855.0
854.0
855.0
859.0
859.0
859.0
858.0
857.0
858.0
853.0
852.0
847.0
847.0
846.0
847.0
850.0
852.0
853.0
854.0
853.0
851.0
851.0
848.0
848.0
847.0
844.0
846.0
850.0
847.0
849.0
851.0
847.0
848.0
848.0
847.0
844.0
841.0
841.0
840.0
844.0
846.0
845.0
847.0
846.0
844.0
842.0
836.0
835.0
838.0
838.0
842.0
841.0
840.0
841.0
842.0
844.0
844.0
844.0
839.0
838.0
836.0
837.0
838.0
840.0
844.0
842.0
845.0
843.0
840.0
838.0
838.0
837.0
838.0
837.0
839.0
839.0
842.0
842.0
843.0
842.0
843.0
840.0
841.0
840.0
839.0
836.0
838.0
841.0
843.0
844.0
844.0
844.0
843.0
837.0
839.0
838.0
837.0
834.0
836.0
840.0
841.0
842.0
841.0
842.0
840.0
840.0
838.0
838.0
834.0
834.0
836.0
838.0
840.0
846.0
847.0
845.0
842.0
837.0
835.0
837.0
837.0
834.0
840.0
840.0
840.0
843.0
842.0
841.0
840.0
839.0
839.0
836.0
838.0
837.0
838.0
840.0
842.0
845.0
844.0
845.0
846.0
843.0
843.0
841.0
841.0
845.0
848.0
850.0
856.0
856.0
862.0
865.0
864.0
865.0
865.0
865.0
865.0
867.0
872.0
875.0
883.0
886.0
885.0
882.0
876.0
873.0
870.0
866.0
866.0
865.0
867.0
869.0
874.0
871.0
866.0
865.0
858.0
850.0
843.0
838.0
836.0
836.0
836.0
841.0
839.0
837.0
835.0
835.0
832.0
831.0
831.0
830.0
829.0
830.0
833.0
834.0
835.0
835.0
834.0
835.0
835.0
832.0
831.0
832.0
831.0
832.0
837.0
837.0
842.0
844.0
842.0
844.0
843.0
840.0
839.0
842.0
844.0
845.0
847.0
849.0
854.0
857.0
862.0
865.0
876.0
898.0
935.0
983.0
1037.0
1095.0
1155.0
1219.0
1271.0
1297.0
1278.0
1217.0
1116.0
994.0
868.0
762.0
695.0
672.0
687.0
720.0
758.0
782.0
801.0
810.0
813.0
818.0
820.0
829.0
836.0
841.0
843.0
845.0
847.0
848.0
848.0
849.0
845.0
845.0
844.0
845.0
844.0
843.0
843.0
843.0
842.0
848.0
849.0
850.0
849.0
848.0
847.0
845.0
845.0
843.0
847.0
846.0
848.0
853.0
854.0
852.0
854.0
849.0
846.0
849.0
844.0
845.0
846.0
849.0
850.0
857.0
855.0
853.0
853.0
851.0
848.0
842.0
845.0
845.0
851.0
854.0
855.0
859.0
861.0
858.0
861.0
860.0
860.0
857.0
856.0
858.0
859.0
864.0
867.0
872.0
873.0
877.0
878.0
880.0
879.0
881.0
883.0
888.0
893.0
899.0
903.0
907.0
912.0
914.0
917.0
917.0
922.0
924.0
924.0
926.0
932.0
939.0
942.0
945.0
947.0
950.0
950.0
947.0
949.0
947.0
949.0
948.0
947.0
948.0
949.0
947.0
945.0
939.0
930.0
924.0
917.0
914.0
909.0
904.0
899.0
897.0
894.0
892.0
889.0
885.0
884.0
879.0
878.0
874.0
871.0
866.0
867.0
867.0
871.0
872.0
870.0
866.0
864.0
866.0
860.0
860.0
859.0
856.0
860.0
864.0
864.0
867.0
866.0
864.0
866.0
862.0
861.0
862.0
861.0
860.0
861.0
862.0
863.0
866.0
867.0
867.0
867.0
863.0
862.0
860.0
864.0
865.0
869.0
869.0
873.0
872.0
874.0
872.0
870.0
873.0
871.0
870.0
868.0
869.0
868.0
872.0
875.0
880.0
878.0
882.0
878.0
876.0
872.0
874.0
868.0
868.0
870.0
872.0
873.0
879.0
877.0
877.0
877.0
873.0
872.0
871.0
871.0
872.0
871.0
868.0
871.0
871.0
873.0
875.0
874.0
873.0
867.0
869.0
869.0
867.0
866.0
866.0
871.0
874.0
875.0
872.0
872.0
871.0
868.0
870.0
868.0
871.0
868.0
868.0
870.0
871.0
873.0
873.0
872.0
869.0
869.0
867.0
864.0
867.0
865.0
868.0
871.0
870.0
874.0
874.0
872.0
870.0
867.0
863.0
867.0
867.0
865.0
866.0
869.0
869.0
875.0
876.0
876.0
870.0
867.0
866.0
865.0
865.0
862.0
865.0
864.0
870.0
872.0
873.0
871.0
869.0
868.0
867.0
865.0
866.0
868.0
869.0
869.0
872.0
870.0
874.0
872.0
872.0
871.0
868.0
865.0
863.0
866.0
869.0
871.0
875.0
874.0
874.0
875.0
875.0
875.0
878.0
880.0
881.0
888.0
894.0
898.0
899.0
900.0
901.0
904.0
902.0
903.0
903.0
906.0
905.0
905.0
906.0
909.0
906.0
907.0
906.0
901.0
899.0
897.0
895.0
898.0
893.0
896.0
894.0
888.0
885.0
884.0
878.0
874.0
872.0
870.0
867.0
865.0
864.0
864.0
863.0
867.0
868.0
869.0
870.0
869.0
867.0
861.0
861.0
861.0
863.0
864.0
865.0
866.0
868.0
865.0
864.0
866.0
869.0
865.0
863.0
866.0
865.0
868.0
869.0
873.0
873.0
876.0
874.0
873.0
872.0
871.0
871.0
873.0
877.0
881.0
884.0
889.0
893.0
899.0
906.0
927.0
958.0
1000.0
1050.0
1101.0
1162.0
1223.0
1282.0
1326.0
1348.0
1331.0
1274.0
1180.0
1062.0
939.0
826.0
746.0
709.0
708.0
736.0
771.0
802.0
825.0
837.0
843.0
844.0
851.0
857.0
866.0
871.0
875.0
877.0
879.0
883.0
879.0
876.0
877.0
876.0
876.0
875.0
873.0
874.0
877.0
880.0
884.0
882.0
882.0
883.0
881.0
879.0
875.0
875.0
872.0
871.0
872.0
876.0
882.0
879.0
882.0
882.0
881.0
879.0
876.0
877.0
874.0
874.0
876.0
878.0
880.0
883.0
883.0
884.0
882.0
878.0
876.0
874.0
873.0
871.0
880.0
879.0
881.0
886.0
887.0
887.0
887.0
887.0
886.0
888.0
888.0
888.0
894.0
897.0
901.0
905.0
907.0
910.0
910.0
909.0
908.0
911.0
913.0
914.0
920.0
926.0
931.0
933.0
938.0
942.0
944.0
946.0
949.0
949.0
953.0
956.0
961.0
965.0
970.0
975.0
980.0
981.0
984.0
984.0
984.0
981.0
980.0
975.0
976.0
976.0
976.0
972.0
970.0
964.0
960.0
950.0
945.0
934.0
930.0
928.0
922.0
920.0
919.0
914.0
914.0
909.0
906.0
899.0
892.0
890.0
886.0
883.0
882.0
885.0
884.0
883.0
885.0
885.0
887.0
884.0
878.0
877.0
877.0
876.0
874.0
875.0
874.0
876.0
880.0
881.0
879.0
879.0
872.0
871.0
871.0
870.0
871.0
871.0
876.0
879.0
878.0
880.0
879.0
879.0
876.0
875.0
877.0
870.0
874.0
876.0
878.0
880.0
882.0
883.0
881.0
880.0
880.0
877.0
875.0
874.0
875.0
877.0
881.0
881.0
882.0
882.0
882.0
882.0
879.0
879.0
879.0
881.0
879.0
882.0
881.0
880.0
881.0
881.0
880.0
879.0
876.0
875.0
872.0
872.0
873.0
873.0
875.0
877.0
877.0
876.0
876.0
873.0
866.0
864.0
864.0
863.0
864.0
865.0
867.0
869.0
869.0
870.0
872.0
868.0
866.0
863.0
861.0
863.0
864.0
866.0
866.0
866.0
868.0
867.0
868.0
866.0
863.0
861.0
861.0
861.0
864.0
862.0
865.0
865.0
868.0
867.0
867.0
864.0
862.0
861.0
862.0
858.0
862.0
865.0
865.0
865.0
866.0
866.0
865.0
864.0
861.0
861.0
863.0
860.0
860.0
861.0
860.0
862.0
863.0
866.0
865.0
864.0
859.0
860.0
860.0
861.0
862.0
862.0
867.0
870.0
873.0
874.0
878.0
881.0
879.0
880.0
880.0
883.0
886.0
887.0
888.0
897.0
902.0
903.0
904.0
901.0
896.0
895.0
889.0
887.0
886.0
886.0
886.0
885.0
890.0
889.0
887.0
883.0
877.0
871.0
865.0
858.0
853.0
853.0
854.0
855.0
855.0
854.0
850.0
845.0
843.0
845.0
845.0
847.0
853.0
857.0
854.0
853.0
849.0
845.0
843.0
844.0
841.0
843.0
845.0
844.0
847.0
848.0
850.0
852.0
856.0
857.0
856.0
856.0
852.0
853.0
857.0
860.0
864.0
863.0
862.0
862.0
866.0
871.0
875.0
884.0
896.0
926.0
963.0
1013.0
1070.0
1125.0
1183.0
1242.0
1290.0
1315.0
1305.0
1256.0
1174.0
1068.0
950.0
843.0
757.0
710.0
699.0
720.0
752.0
784.0
810.0
821.0
823.0
826.0
831.0
837.0
847.0
863.0
870.0
868.0
861.0
862.0
856.0
854.0
848.0
846.0
847.0
847.0
849.0
847.0
854.0
856.0
857.0
859.0
859.0
858.0
857.0
857.0
852.0
856.0
857.0
859.0
860.0
859.0
858.0
857.0
857.0
859.0
859.0
860.0
857.0
861.0
861.0
863.0
861.0
861.0
854.0
851.0
853.0
857.0
855.0
856.0
854.0
856.0
859.0
862.0
861.0
866.0
869.0
872.0
874.0
875.0
874.0
875.0
874.0
872.0
870.0
869.0
870.0
871.0
880.0
885.0
892.0
894.0
896.0
896.0
893.0
896.0
897.0
897.0
907.0
913.0
922.0
925.0
928.0
928.0
931.0
931.0
932.0
934.0
940.0
948.0
956.0
962.0
966.0
969.0
970.0
970.0
972.0
967.0
964.0
965.0
964.0
964.0
964.0
963.0
959.0
955.0
949.0
943.0
933.0
927.0
922.0
916.0
910.0
911.0
906.0
901.0
899.0
893.0
890.0
883.0
880.0
874.0
872.0
871.0
869.0
870.0
871.0
871.0
867.0
867.0
863.0
859.0
858.0
858.0
858.0
858.0
859.0
859.0
862.0
862.0
861.0
860.0
858.0
859.0
856.0
854.0
850.0
848.0
847.0
846.0
849.0
848.0
847.0
848.0
852.0
851.0
848.0
845.0
843.0
845.0
841.0
847.0
845.0
852.0
852.0
856.0
860.0
858.0
857.0
857.0
854.0
853.0
855.0
856.0
857.0
856.0
858.0
859.0
858.0
858.0
856.0
850.0
853.0
852.0
852.0
850.0
853.0
856.0
856.0
857.0
857.0
856.0
852.0
851.0
848.0
849.0
848.0
847.0
848.0
850.0
854.0
853.0
853.0
846.0
847.0
845.0
843.0
843.0
842.0
844.0
846.0
847.0
848.0
847.0
846.0
843.0
837.0
838.0
839.0
842.0
842.0
845.0
848.0
847.0
849.0
847.0
846.0
844.0
842.0
846.0
844.0
844.0
841.0
841.0
839.0
840.0
840.0
841.0
840.0
838.0
834.0
832.0
832.0
834.0
839.0
847.0
850.0
853.0
851.0
846.0
846.0
849.0
848.0
853.0
853.0
852.0
850.0
856.0
854.0
855.0
859.0
866.0
863.0
865.0
868.0
871.0
877.0
885.0
889.0
896.0
894.0
891.0
883.0
877.0
874.0
872.0
867.0
864.0
863.0
864.0
866.0
866.0
865.0
860.0
857.0
851.0
845.0
841.0
833.0
831.0
827.0
833.0
833.0
835.0
834.0
833.0
833.0
830.0
832.0
832.0
831.0
826.0
827.0
825.0
824.0
827.0
831.0
837.0
841.0
839.0
838.0
833.0
829.0
827.0
826.0
826.0
828.0
831.0
838.0
841.0
845.0
849.0
849.0
847.0
846.0
842.0
842.0
842.0
842.0
846.0
854.0
863.0
882.0
919.0
964.0
1014.0
1064.0
1121.0
1179.0
1242.0
1290.0
1308.0
1280.0
1209.0
1102.0
974.0
846.0
736.0
675.0
657.0
674.0
712.0
754.0
784.0
800.0
799.0
800.0
803.0
813.0
827.0
843.0
851.0
857.0
854.0
850.0
847.0
850.0
848.0
844.0
841.0
839.0
839.0
843.0
844.0
845.0
845.0
844.0
848.0
849.0
851.0
852.0
854.0
850.0
848.0
844.0
839.0
837.0
840.0
847.0
854.0
861.0
866.0
862.0
858.0
852.0
847.0
843.0
845.0
842.0
844.0
845.0
849.0
852.0
850.0
853.0
852.0
852.0
850.0
849.0
845.0
846.0
844.0
847.0
849.0
850.0
857.0
856.0
857.0
858.0
858.0
857.0
855.0
854.0
854.0
854.0
860.0
863.0
866.0
870.0
873.0
875.0
872.0
873.0
875.0
877.0
878.0
878.0
886.0
893.0
901.0
905.0
903.0
906.0
907.0
907.0
906.0
908.0
907.0
915.0
921.0
923.0
929.0
931.0
931.0
931.0
935.0
941.0
942.0
941.0
938.0
933.0
933.0
930.0
929.0
927.0
921.0
917.0
909.0
906.0
899.0
893.0
890.0
885.0
878.0
879.0
874.0
873.0
869.0
867.0
867.0
861.0
855.0
848.0
843.0
840.0
845.0
845.0
849.0
849.0
848.0
846.0
844.0
842.0
844.0
842.0
839.0
837.0
831.0
833.0
836.0
834.0
839.0
841.0
841.0
842.0
839.0
836.0
834.0
833.0
832.0
836.0
840.0
842.0
844.0
842.0
844.0
842.0
837.0
834.0
833.0
836.0
838.0
841.0
842.0
843.0
845.0
846.0
841.0
842.0
843.0
841.0
839.0
838.0
839.0
842.0
847.0
847.0
849.0
850.0
851.0
846.0
843.0
843.0
842.0
841.0
839.0
835.0
841.0
844.0
846.0
847.0
848.0
842.0
840.0
839.0
837.0
835.0
836.0
835.0
836.0
841.0
839.0
839.0
834.0
833.0
831.0
828.0
830.0
833.0
833.0
834.0
833.0
836.0
835.0
835.0
836.0
829.0
829.0
826.0
826.0
824.0
825.0
826.0
828.0
831.0
832.0
828.0
829.0
826.0
824.0
823.0
818.0
817.0
817.0
822.0
822.0
824.0
823.0
822.0
822.0
820.0
819.0
817.0
817.0
815.0
820.0
818.0
821.0
823.0
822.0
821.0
823.0
820.0
819.0
816.0
818.0
818.0
821.0
821.0
825.0
825.0
829.0
833.0
836.0
837.0
837.0
837.0
839.0
842.0
841.0
847.0
853.0
856.0
857.0
855.0
858.0
857.0
850.0
845.0
842.0
841.0
840.0
841.0
838.0
839.0
843.0
842.0
840.0
836.0
830.0
825.0
816.0
813.0
809.0
810.0
811.0
812.0
811.0
808.0
806.0
804.0
800.0
800.0
798.0
797.0
798.0
801.0
803.0
803.0
806.0
806.0
807.0
804.0
801.0
800.0
799.0
800.0
803.0
805.0
807.0
810.0
812.0
810.0
813.0
810.0
808.0
809.0
807.0
809.0
815.0
817.0
820.0
824.0
828.0
828.0
834.0
842.0
858.0
890.0
940.0
999.0
1060.0
1127.0
1198.0
1252.0
1277.0
1254.0
1179.0
1067.0
939.0
811.0
697.0
645.0
644.0
677.0
724.0
762.0
785.0
794.0
795.0
794.0
792.0
797.0
800.0
806.0
811.0
814.0
815.0
813.0
814.0
812.0
809.0
808.0
808.0
810.0
807.0
806.0
811.0
809.0
811.0
816.0
817.0
817.0
818.0
813.0
812.0
810.0
808.0
807.0
809.0
811.0
811.0
812.0
811.0
814.0
812.0
810.0
808.0
806.0
804.0
807.0
807.0
810.0
814.0
816.0
816.0
819.0
818.0
814.0
813.0
810.0
813.0
811.0
814.0
816.0
819.0
824.0
823.0
826.0
827.0
827.0
828.0
828.0
830.0
833.0
835.0
841.0
841.0
845.0
849.0
854.0
854.0
855.0
855.0
861.0
867.0
869.0
875.0
882.0
889.0
892.0
895.0
900.0
904.0
904.0
907.0
913.0
914.0
918.0
920.0
925.0
928.0
930.0
932.0
931.0
932.0
930.0
928.0
925.0
922.0
919.0
914.0
912.0
911.0
904.0
900.0
892.0
889.0
883.0
877.0
874.0
869.0
862.0
861.0
856.0
855.0
852.0
846.0
848.0
846.0
847.0
844.0
840.0
837.0
834.0
832.0
829.0
830.0
833.0
834.0
835.0
836.0
831.0
831.0
830.0
826.0
827.0
830.0
833.0
831.0
830.0
832.0
831.0
829.0
826.0
824.0
824.0
824.0
824.0
825.0
825.0
827.0
832.0
831.0
829.0
833.0
830.0
830.0
827.0
827.0
826.0
825.0
824.0
829.0
829.0
834.0
833.0
834.0
832.0
830.0
826.0
823.0
826.0
828.0
826.0
826.0
828.0
830.0
830.0
827.0
825.0
827.0
827.0
828.0
826.0
829.0
829.0
831.0
833.0
832.0
835.0
834.0
831.0
827.0
825.0
828.0
824.0
826.0
827.0
828.0
830.0
830.0
832.0
826.0
824.0
822.0
822.0
816.0
817.0
821.0
822.0
821.0
822.0
824.0
824.0
826.0
826.0
821.0
821.0
817.0
816.0
817.0
820.0
822.0
826.0
825.0
824.0
822.0
819.0
818.0
818.0
816.0
817.0
817.0
818.0
817.0
820.0
823.0
821.0
823.0
819.0
819.0
817.0
816.0
816.0
816.0
815.0
818.0
821.0
822.0
821.0
827.0
826.0
821.0
819.0
815.0
817.0
822.0
825.0
830.0
836.0
841.0
844.0
844.0
845.0
846.0
844.0
844.0
847.0
847.0
859.0
861.0
866.0
864.0
860.0
856.0
850.0
850.0
843.0
838.0
839.0
835.0
838.0
840.0
840.0
841.0
838.0
835.0
829.0
823.0
818.0
814.0
815.0
816.0
813.0
812.0
811.0
815.0
811.0
813.0
811.0
808.0
809.0
808.0
807.0
808.0
810.0
813.0
813.0
816.0
816.0
817.0
818.0
814.0
813.0
810.0
815.0
817.0
821.0
823.0
822.0
825.0
825.0
821.0
821.0
822.0
820.0
823.0
826.0
829.0
830.0
834.0
835.0
838.0
836.0
847.0
859.0
883.0
922.0
969.0
1020.0
1074.0
1130.0
1198.0
1257.0
1288.0
1282.0
1232.0
1146.0
1030.0
902.0
786.0
699.0
657.0
655.0
685.0
721.0
755.0
771.0
785.0
794.0
799.0
802.0
812.0
818.0
826.0
828.0
829.0
830.0
831.0
828.0
829.0
830.0
828.0
829.0
827.0
829.0
829.0
829.0
832.0
834.0
834.0
830.0
833.0
834.0
832.0
833.0
832.0
831.0
834.0
837.0
841.0
840.0
838.0
838.0
838.0
836.0
834.0
832.0
832.0
832.0
836.0
840.0
841.0
840.0
843.0
842.0
841.0
840.0
836.0
835.0
838.0
840.0
843.0
847.0
849.0
851.0
854.0
855.0
856.0
857.0
856.0
856.0
856.0
855.0
858.0
861.0
864.0
873.0
877.0
880.0
884.0
887.0
890.0
891.0
894.0
898.0
901.0
908.0
913.0
918.0
923.0
923.0
923.0
927.0
928.0
931.0
934.0
937.0
938.0
945.0
947.0
950.0
953.0
952.0
951.0
946.0
942.0
940.0
937.0
933.0
929.0
928.0
919.0
915.0
913.0
908.0
903.0
897.0
885.0
883.0
876.0
871.0
863.0
866.0
866.0
865.0
864.0
865.0
864.0
860.0
859.0
855.0
855.0
849.0
846.0
849.0
851.0
852.0
854.0
856.0
857.0
858.0
856.0
852.0
849.0
847.0
846.0
850.0
852.0
855.0
856.0
854.0
856.0
854.0
853.0
851.0
850.0
847.0
848.0
847.0
852.0
852.0
854.0
857.0
857.0
858.0
860.0
858.0
858.0
860.0
858.0
858.0
861.0
861.0
866.0
868.0
868.0
869.0
867.0
867.0
862.0
860.0
861.0
858.0
861.0
869.0
870.0
871.0
872.0
870.0
866.0
862.0
858.0
862.0
861.0
865.0
865.0
871.0
867.0
867.0
867.0
867.0
865.0
863.0
863.0
863.0
859.0
858.0
861.0
864.0
865.0
866.0
865.0
862.0
863.0
856.0
855.0
853.0
852.0
853.0
857.0
859.0
858.0
859.0
860.0
859.0
855.0
856.0
852.0
853.0
850.0
853.0
854.0
857.0
858.0
859.0
859.0
860.0
855.0
855.0
854.0
852.0
855.0
856.0
858.0
860.0
863.0
866.0
871.0
873.0
873.0
876.0
876.0
874.0
876.0
875.0
885.0
889.0
892.0
892.0
890.0
890.0
888.0
880.0
876.0
874.0
875.0
873.0
876.0
874.0
877.0
877.0
874.0
869.0
865.0
860.0
852.0
848.0
844.0
841.0
837.0
840.0
842.0
844.0
843.0
840.0
835.0
834.0
831.0
829.0
833.0
833.0
835.0
832.0
834.0
831.0
832.0
836.0
833.0
832.0
834.0
831.0
831.0
834.0
832.0
835.0
837.0
838.0
838.0
837.0
834.0
835.0
835.0
835.0
833.0
840.0
842.0
845.0
847.0
848.0
851.0
850.0
848.0
849.0
855.0
868.0
894.0
940.0
991.0
1041.0
1101.0
1159.0
1216.0
1272.0
1308.0
1309.0
1279.0
1211.0
1116.0
994.0
868.0
763.0
695.0
671.0
677.0
708.0
744.0
770.0
789.0
796.0
802.0
804.0
815.0
820.0
831.0
836.0
840.0
840.0
838.0
836.0
831.0
828.0
829.0
833.0
836.0
835.0
836.0
838.0
833.0
836.0
835.0
833.0
833.0
832.0
833.0
831.0
833.0
838.0
840.0
841.0
839.0
837.0
834.0
832.0
833.0
831.0
832.0
834.0
833.0
835.0
837.0
841.0
836.0
835.0
835.0
833.0
838.0
834.0
833.0
836.0
836.0
839.0
840.0
844.0
844.0
843.0
842.0
842.0
842.0
841.0
844.0
847.0
850.0
851.0
856.0
856.0
856.0
856.0
857.0
857.0
859.0
860.0
861.0
866.0
871.0
874.0
879.0
881.0
885.0
889.0
890.0
893.0
893.0
897.0
900.0
904.0
911.0
919.0
921.0
927.0
932.0
931.0
932.0
933.0
935.0
939.0
938.0
939.0
939.0
947.0
947.0
945.0
939.0
935.0
931.0
926.0
920.0
913.0
908.0
903.0
901.0
897.0
893.0
890.0
883.0
878.0
874.0
867.0
859.0
859.0
855.0
854.0
855.0
854.0
855.0
854.0
851.0
849.0
845.0
843.0
841.0
838.0
838.0
840.0
842.0
844.0
846.0
847.0
844.0
844.0
842.0
838.0
837.0
837.0
835.0
836.0
837.0
839.0
843.0
844.0
842.0
841.0
839.0
837.0
835.0
833.0
836.0
840.0
837.0
843.0
846.0
847.0
847.0
846.0
842.0
843.0
843.0
844.0
845.0
845.0
848.0
848.0
852.0
850.0
849.0
847.0
850.0
845.0
843.0
841.0
842.0
845.0
847.0
849.0
852.0
851.0
851.0
847.0
846.0
846.0
841.0
843.0
843.0
843.0
844.0
844.0
847.0
846.0
848.0
847.0
842.0
838.0
840.0
838.0
839.0
835.0
840.0
844.0
846.0
842.0
840.0
840.0
838.0
837.0
836.0
837.0
839.0
837.0
839.0
837.0
841.0
840.0
841.0
841.0
840.0
837.0
834.0
834.0
830.0
830.0
836.0
839.0
841.0
843.0
843.0
840.0
838.0
837.0
836.0
834.0
835.0
837.0
837.0
