# Simple Text Format
# Sampling Rate (Hz):= 360.00
# Resolution:= 12
# Labels:= ECG
928.0
926.0
926.0
923.0
920.0
917.0
919.0
914.0
909.0
906.0
902.0
892.0
886.0
880.0
875.0
871.0
871.0
870.0
872.0
871.0
868.0
867.0
861.0
856.0
856.0
853.0
848.0
847.0
850.0
853.0
854.0
854.0
853.0
849.0
849.0
846.0
846.0
845.0
842.0
845.0
846.0
846.0
848.0
848.0
849.0
846.0
846.0
842.0
844.0
841.0
841.0
840.0
843.0
847.0
848.0
847.0
848.0
852.0
848.0
845.0
842.0
842.0
844.0
843.0
847.0
847.0
849.0
851.0
853.0
853.0
853.0
848.0
848.0
847.0
846.0
848.0
849.0
852.0
850.0
848.0
848.0
852.0
848.0
846.0
845.0
843.0
842.0
844.0
843.0
846.0
847.0
849.0
849.0
847.0
847.0
845.0
841.0
841.0
840.0
841.0
839.0
838.0
841.0
842.0
841.0
842.0
840.0
839.0
836.0
836.0
835.0
832.0
837.0
837.0
839.0
840.0
839.0
841.0
833.0
834.0
834.0
831.0
831.0
831.0
833.0
836.0
836.0
837.0
834.0
835.0
838.0
833.0
832.0
827.0
830.0
830.0
830.0
833.0
835.0
838.0
838.0
838.0
838.0
835.0
831.0
829.0
830.0
833.0
831.0
835.0
834.0
835.0
837.0
836.0
834.0
831.0
830.0
831.0
828.0
832.0
835.0
834.0
834.0
838.0
838.0
838.0
834.0
830.0
830.0
828.0
827.0
829.0
829.0
832.0
833.0
834.0
831.0
833.0
832.0
829.0
828.0
828.0
827.0
826.0
828.0
831.0
832.0
835.0
837.0
837.0
837.0
833.0
833.0
828.0
828.0
825.0
827.0
827.0
833.0
835.0
835.0
835.0
833.0
831.0
828.0
827.0
831.0
829.0
833.0
833.0
834.0
835.0
836.0
836.0
839.0
837.0
838.0
835.0
836.0
839.0
841.0
848.0
851.0
855.0
854.0
854.0
854.0
850.0
855.0
860.0
864.0
870.0
875.0
876.0
876.0
877.0
875.0
870.0
865.0
861.0
861.0
862.0
858.0
857.0
853.0
851.0
849.0
843.0
840.0
836.0
831.0
829.0
828.0
824.0
822.0
818.0
819.0
823.0
821.0
823.0
823.0
825.0
823.0
821.0
819.0
816.0
821.0
821.0
822.0
826.0
827.0
827.0
826.0
827.0
825.0
824.0
825.0
824.0
825.0
824.0
826.0
828.0
828.0
832.0
831.0
834.0
833.0
831.0
827.0
829.0
833.0
834.0
835.0
835.0
838.0
848.0
858.0
883.0
917.0
962.0
1011.0
1064.0
1121.0
1180.0
1229.0
1258.0
1253.0
1208.0
1131.0
1035.0
925.0
823.0
740.0
692.0
677.0
689.0
714.0
739.0
764.0
783.0
789.0
797.0
802.0
808.0
814.0
823.0
829.0
831.0
831.0
833.0
835.0
832.0
832.0
832.0
834.0
832.0
830.0
830.0
829.0
830.0
831.0
834.0
839.0
841.0
837.0
837.0
834.0
833.0
830.0
828.0
830.0
832.0
833.0
831.0
834.0
835.0
835.0
833.0
833.0
829.0
829.0
827.0
827.0
827.0
829.0
831.0
831.0
836.0
834.0
833.0
834.0
834.0
832.0
833.0
831.0
835.0
835.0
836.0
835.0
838.0
841.0
840.0
840.0
840.0
841.0
840.0
843.0
843.0
847.0
849.0
854.0
856.0
856.0
861.0
860.0
857.0
860.0
860.0
864.0
868.0
872.0
876.0
880.0
884.0
888.0
890.0
889.0
891.0
895.0
893.0
894.0
896.0
899.0
906.0
911.0
914.0
916.0
915.0
917.0
913.0
914.0
913.0
910.0
909.0
908.0
904.0
906.0
905.0
900.0
897.0
890.0
885.0
878.0
869.0
863.0
863.0
860.0
862.0
859.0
858.0
853.0
851.0
845.0
844.0
842.0
839.0
839.0
841.0
842.0
841.0
838.0
841.0
842.0
840.0
841.0
838.0
835.0
834.0
829.0
831.0
829.0
834.0
835.0
837.0
841.0
840.0
840.0
838.0
835.0
831.0
833.0
833.0
833.0
836.0
838.0
843.0
841.0
843.0
844.0
838.0
836.0
834.0
836.0
836.0
841.0
838.0
843.0
844.0
847.0
848.0
846.0
841.0
845.0
846.0
842.0
844.0
846.0
847.0
849.0
851.0
851.0
852.0
846.0
848.0
846.0
842.0
842.0
840.0
842.0
842.0
844.0
845.0
847.0
845.0
845.0
841.0
839.0
840.0
839.0
839.0
839.0
840.0
842.0
841.0
841.0
841.0
839.0
834.0
838.0
837.0
832.0
832.0
836.0
834.0
835.0
837.0
838.0
837.0
837.0
835.0
833.0
835.0
832.0
832.0
834.0
836.0
838.0
836.0
838.0
837.0
834.0
835.0
832.0
832.0
831.0
829.0
830.0
832.0
833.0
838.0
839.0
835.0
833.0
834.0
833.0
829.0
827.0
828.0
832.0
833.0
832.0
836.0
833.0
834.0
837.0
834.0
836.0
833.0
829.0
827.0
829.0
835.0
836.0
837.0
838.0
837.0
836.0
835.0
833.0
832.0
830.0
831.0
834.0
835.0
838.0
838.0
837.0
837.0
833.0
833.0
835.0
833.0
831.0
833.0
834.0
835.0
838.0
841.0
841.0
840.0
840.0
838.0
838.0
836.0
837.0
833.0
836.0
842.0
841.0
843.0
844.0
845.0
843.0
841.0
839.0
841.0
841.0
841.0
845.0
850.0
853.0
856.0
862.0
861.0
862.0
862.0
860.0
863.0
866.0
870.0
873.0
875.0
878.0
877.0
879.0
874.0
871.0
867.0
861.0
862.0
857.0
858.0
860.0
862.0
862.0
862.0
852.0
849.0
842.0
837.0
833.0
831.0
828.0
826.0
826.0
828.0
829.0
829.0
829.0
830.0
830.0
828.0
824.0
824.0
824.0
822.0
824.0
825.0
828.0
829.0
825.0
828.0
822.0
824.0
823.0
822.0
822.0
823.0
824.0
823.0
826.0
828.0
828.0
829.0
830.0
833.0
832.0
834.0
834.0
832.0
837.0
838.0
846.0
851.0
864.0
890.0
931.0
975.0
1025.0
1080.0
1138.0
1194.0
1249.0
1270.0
1255.0
1200.0
1108.0
988.0
865.0
760.0
696.0
676.0
693.0
730.0
770.0
798.0
813.0
818.0
819.0
818.0
822.0
823.0
828.0
829.0
828.0
830.0
832.0
833.0
830.0
835.0
835.0
837.0
837.0
837.0
834.0
834.0
830.0
828.0
831.0
834.0
835.0
837.0
840.0
840.0
838.0
838.0
835.0
835.0
834.0
831.0
836.0
837.0
838.0
840.0
841.0
840.0
838.0
838.0
837.0
837.0
838.0
836.0
835.0
837.0
838.0
842.0
846.0
844.0
842.0
840.0
840.0
838.0
838.0
838.0
841.0
845.0
846.0
850.0
852.0
850.0
852.0
851.0
853.0
852.0
853.0
854.0
853.0
858.0
861.0
864.0
869.0
871.0
875.0
877.0
878.0
882.0
884.0
884.0
890.0
896.0
898.0
904.0
908.0
911.0
913.0
911.0
915.0
916.0
919.0
920.0
924.0
929.0
932.0
935.0
937.0
937.0
935.0
930.0
931.0
928.0
924.0
923.0
924.0
919.0
919.0
914.0
910.0
902.0
899.0
890.0
887.0
882.0
876.0
869.0
864.0
864.0
860.0
859.0
860.0
856.0
856.0
849.0
847.0
846.0
844.0
842.0
842.0
842.0
842.0
842.0
843.0
843.0
843.0
842.0
837.0
834.0
834.0
834.0
836.0
835.0
836.0
839.0
839.0
840.0
838.0
838.0
836.0
835.0
832.0
836.0
836.0
836.0
839.0
842.0
842.0
840.0
841.0
835.0
834.0
838.0
840.0
839.0
836.0
840.0
840.0
841.0
844.0
845.0
846.0
843.0
841.0
838.0
839.0
838.0
840.0
842.0
843.0
847.0
850.0
849.0
847.0
845.0
843.0
842.0
841.0
844.0
841.0
843.0
844.0
845.0
848.0
848.0
847.0
844.0
841.0
837.0
838.0
835.0
840.0
843.0
841.0
843.0
847.0
845.0
845.0
843.0
841.0
839.0
840.0
839.0
839.0
839.0
839.0
842.0
845.0
843.0
842.0
840.0
837.0
835.0
830.0
834.0
835.0
836.0
834.0
839.0
838.0
840.0
839.0
837.0
835.0
834.0
831.0
833.0
834.0
836.0
838.0
841.0
838.0
839.0
837.0
836.0
834.0
832.0
828.0
827.0
831.0
833.0
836.0
837.0
837.0
837.0
837.0
833.0
835.0
832.0
832.0
827.0
825.0
828.0
832.0
835.0
836.0
833.0
839.0
836.0
835.0
833.0
831.0
831.0
834.0
836.0
836.0
840.0
841.0
837.0
838.0
835.0
837.0
834.0
831.0
830.0
831.0
833.0
835.0
836.0
839.0
838.0
838.0
837.0
833.0
834.0
831.0
829.0
828.0
831.0
837.0
839.0
841.0
837.0
840.0
837.0
836.0
834.0
831.0
836.0
836.0
835.0
837.0
838.0
839.0
839.0
838.0
837.0
837.0
831.0
833.0
831.0
835.0
835.0
840.0
842.0
842.0
841.0
843.0
841.0
842.0
839.0
837.0
837.0
838.0
840.0
844.0
845.0
843.0
844.0
839.0
841.0
838.0
835.0
833.0
833.0
834.0
836.0
840.0
843.0
844.0
840.0
842.0
839.0
835.0
838.0
838.0
837.0
838.0
838.0
841.0
844.0
845.0
846.0
844.0
843.0
840.0
838.0
835.0
835.0
835.0
839.0
843.0
842.0
844.0
845.0
843.0
843.0
841.0
838.0
839.0
839.0
839.0
841.0
841.0
843.0
846.0
846.0
845.0
844.0
843.0
841.0
840.0
839.0
842.0
845.0
845.0
844.0
844.0
848.0
846.0
845.0
844.0
839.0
842.0
845.0
846.0
847.0
852.0
862.0
868.0
868.0
868.0
865.0
864.0
866.0
865.0
871.0
875.0
880.0
889.0
888.0
889.0
886.0
884.0
879.0
874.0
873.0
871.0
867.0
869.0
869.0
869.0
868.0
866.0
862.0
854.0
850.0
844.0
839.0
836.0
833.0
833.0
833.0
834.0
835.0
836.0
835.0
835.0
834.0
834.0
832.0
830.0
828.0
831.0
830.0
833.0
835.0
836.0
837.0
836.0
833.0
835.0
832.0
831.0
833.0
831.0
836.0
838.0
840.0
839.0
841.0
842.0
839.0
838.0
838.0
838.0
839.0
840.0
846.0
848.0
854.0
860.0
874.0
897.0
933.0
975.0
1023.0
1070.0
1124.0
1180.0
1231.0
1263.0
1268.0
1234.0
1163.0
1069.0
960.0
848.0
760.0
708.0
701.0
727.0
763.0
799.0
821.0
830.0
832.0
827.0
825.0
823.0
824.0
828.0
834.0
834.0
841.0
842.0
841.0
842.0
840.0
841.0
838.0
836.0
839.0
835.0
837.0
836.0
838.0
840.0
841.0
841.0
840.0
840.0
840.0
839.0
837.0
835.0
834.0
836.0
838.0
840.0
840.0
843.0
846.0
844.0
841.0
841.0
839.0
838.0
838.0
838.0
839.0
840.0
843.0
845.0
846.0
845.0
846.0
844.0
839.0
841.0
838.0
839.0
847.0
844.0
847.0
851.0
848.0
853.0
853.0
852.0
850.0
853.0
851.0
855.0
860.0
863.0
863.0
868.0
870.0
873.0
877.0
876.0
877.0
878.0
881.0
885.0
888.0
892.0
898.0
903.0
907.0
910.0
911.0
911.0
912.0
913.0
918.0
921.0
924.0
932.0
933.0
935.0
937.0
940.0
936.0
937.0
937.0
931.0
930.0
933.0
932.0
930.0
927.0
924.0
921.0
919.0
908.0
901.0
895.0
890.0
885.0
882.0
878.0
878.0
877.0
874.0
871.0
866.0
863.0
857.0
857.0
853.0
852.0
852.0
850.0
851.0
851.0
854.0
849.0
853.0
852.0
847.0
846.0
842.0
840.0
844.0
846.0
844.0
847.0
847.0
848.0
849.0
847.0
846.0
842.0
842.0
841.0
841.0
844.0
849.0
852.0
850.0
850.0
852.0
850.0
849.0
840.0
840.0
840.0
844.0
843.0
846.0
847.0
849.0
849.0
850.0
850.0
847.0
847.0
842.0
842.0
839.0
845.0
847.0
849.0
848.0
848.0
847.0
846.0
844.0
845.0
843.0
840.0
839.0
843.0
842.0
842.0
844.0
846.0
844.0
845.0
842.0
839.0
838.0
837.0
835.0
835.0
842.0
841.0
843.0
842.0
838.0
835.0
831.0
829.0
831.0
831.0
832.0
833.0
836.0
836.0
836.0
835.0
835.0
831.0
832.0
830.0
828.0
828.0
827.0
832.0
833.0
833.0
838.0
837.0
835.0
834.0
831.0
829.0
825.0
825.0
826.0
830.0
831.0
834.0
833.0
834.0
834.0
829.0
827.0
829.0
828.0
826.0
827.0
828.0
828.0
827.0
828.0
826.0
825.0
823.0
821.0
822.0
822.0
823.0
826.0
829.0
832.0
831.0
833.0
829.0
823.0
821.0
818.0
819.0
820.0
819.0
816.0
818.0
818.0
819.0
816.0
821.0
823.0
833.0
837.0
835.0
829.0
819.0
814.0
811.0
810.0
814.0
816.0
820.0
821.0
819.0
817.0
816.0
814.0
813.0
816.0
818.0
823.0
822.0
823.0
824.0
823.0
819.0
820.0
816.0
817.0
815.0
815.0
819.0
821.0
824.0
823.0
824.0
822.0
819.0
818.0
817.0
818.0
821.0
822.0
824.0
822.0
826.0
829.0
832.0
832.0
837.0
836.0
834.0
828.0
826.0
825.0
832.0
838.0
849.0
859.0
863.0
866.0
866.0
865.0
862.0
859.0
857.0
853.0
850.0
851.0
851.0
849.0
846.0
844.0
839.0
838.0
836.0
835.0
832.0
829.0
820.0
812.0
812.0
810.0
812.0
818.0
821.0
823.0
822.0
822.0
815.0
813.0
811.0
810.0
813.0
817.0
821.0
823.0
823.0
820.0
819.0
816.0
812.0
805.0
799.0
801.0
803.0
812.0
826.0
841.0
839.0
834.0
826.0
814.0
808.0
802.0
801.0
806.0
814.0
826.0
837.0
840.0
842.0
838.0
826.0
818.0
821.0
842.0
879.0
933.0
996.0
1063.0
1129.0
1191.0
1231.0
1244.0
1217.0
1162.0
1079.0
971.0
853.0
749.0
679.0
648.0
649.0
668.0
697.0
717.0
735.0
742.0
750.0
759.0
765.0
775.0
783.0
788.0
789.0
788.0
783.0
778.0
770.0
765.0
763.0
767.0
772.0
786.0
797.0
801.0
805.0
800.0
797.0
792.0
784.0
780.0
776.0
773.0
768.0
764.0
766.0
766.0
769.0
769.0
768.0
767.0
766.0
763.0
765.0
764.0
770.0
774.0
770.0
766.0
755.0
740.0
725.0
713.0
714.0
718.0
729.0
738.0
744.0
738.0
728.0
716.0
709.0
709.0
724.0
736.0
744.0
740.0
733.0
723.0
715.0
711.0
711.0
709.0
709.0
705.0
705.0
697.0
690.0
683.0
680.0
679.0
677.0
680.0
679.0
680.0
681.0
679.0
685.0
681.0
673.0
660.0
642.0
625.0
610.0
603.0
600.0
604.0
606.0
614.0
619.0
626.0
629.0
635.0
638.0
640.0
638.0
636.0
629.0
634.0
639.0
644.0
647.0
648.0
643.0
641.0
633.0
625.0
617.0
609.0
604.0
598.0
590.0
583.0
571.0
564.0
562.0
562.0
561.0
558.0
558.0
557.0
561.0
556.0
547.0
533.0
521.0
513.0
511.0
511.0
511.0
519.0
527.0
529.0
530.0
531.0
530.0
531.0
525.0
516.0
511.0
507.0
509.0
514.0
525.0
533.0
541.0
540.0
533.0
524.0
519.0
514.0
512.0
511.0
514.0
514.0
512.0
505.0
498.0
489.0
494.0
502.0
514.0
520.0
526.0
526.0
523.0
520.0
517.0
513.0
512.0
514.0
508.0
507.0
504.0
504.0
505.0
508.0
508.0
510.0
511.0
512.0
514.0
515.0
513.0
512.0
506.0
499.0
495.0
505.0
511.0
518.0
522.0
520.0
515.0
513.0
510.0
510.0
514.0
513.0
511.0
507.0
508.0
510.0
515.0
523.0
525.0
524.0
519.0
516.0
515.0
512.0
518.0
522.0
526.0
523.0
518.0
513.0
509.0
510.0
512.0
513.0
514.0
512.0
509.0
508.0
511.0
509.0
511.0
513.0
513.0
512.0
512.0
509.0
508.0
508.0
507.0
511.0
512.0
515.0
517.0
521.0
530.0
538.0
537.0
529.0
510.0
507.0
509.0
517.0
526.0
531.0
531.0
532.0
534.0
534.0
537.0
538.0
540.0
538.0
534.0
529.0
526.0
519.0
519.0
526.0
533.0
545.0
561.0
568.0
571.0
570.0
565.0
559.0
554.0
549.0
550.0
554.0
557.0
560.0
563.0
566.0
569.0
572.0
571.0
575.0
572.0
579.0
579.0
584.0
589.0
592.0
592.0
595.0
597.0
598.0
602.0
604.0
607.0
610.0
611.0
614.0
617.0
619.0
619.0
612.0
609.0
606.0
610.0
611.0
613.0
605.0
603.0
599.0
596.0
601.0
603.0
609.0
610.0
607.0
609.0
604.0
597.0
594.0
594.0
595.0
596.0
597.0
598.0
600.0
602.0
603.0
601.0
598.0
596.0
597.0
599.0
602.0
604.0
609.0
613.0
619.0
624.0
621.0
615.0
613.0
608.0
610.0
617.0
621.0
626.0
631.0
623.0
626.0
622.0
619.0
618.0
622.0
628.0
635.0
645.0
654.0
670.0
693.0
731.0
773.0
823.0
871.0
927.0
988.0
1048.0
1085.0
1084.0
1054.0
985.0
885.0
763.0
643.0
547.0
492.0
488.0
518.0
554.0
597.0
623.0
635.0
636.0
638.0
637.0
636.0
641.0
647.0
651.0
658.0
658.0
656.0
656.0
652.0
654.0
656.0
657.0
658.0
653.0
650.0
648.0
647.0
650.0
657.0
661.0
667.0
673.0
685.0
696.0
698.0
697.0
694.0
688.0
683.0
673.0
666.0
659.0
657.0
659.0
663.0
669.0
672.0
673.0
674.0
669.0
667.0
667.0
665.0
668.0
673.0
679.0
684.0
690.0
690.0
689.0
683.0
686.0
683.0
684.0
690.0
696.0
696.0
694.0
697.0
694.0
692.0
694.0
697.0
704.0
708.0
719.0
720.0
726.0
728.0
730.0
731.0
727.0
728.0
729.0
727.0
726.0
728.0
732.0
739.0
751.0
760.0
763.0
773.0
779.0
782.0
782.0
769.0
758.0
752.0
751.0
760.0
779.0
795.0
800.0
806.0
805.0
803.0
799.0
795.0
789.0
785.0
781.0
774.0
773.0
775.0
778.0
773.0
770.0
772.0
778.0
783.0
773.0
753.0
734.0
722.0
715.0
719.0
722.0
725.0
731.0
734.0
733.0
727.0
726.0
723.0
723.0
724.0
725.0
726.0
728.0
733.0
732.0
733.0
733.0
730.0
726.0
727.0
728.0
725.0
724.0
727.0
733.0
735.0
737.0
735.0
735.0
734.0
736.0
734.0
734.0
734.0
741.0
744.0
748.0
749.0
752.0
752.0
752.0
748.0
748.0
747.0
748.0
748.0
751.0
752.0
754.0
758.0
760.0
763.0
761.0
760.0
760.0
759.0
757.0
756.0
758.0
756.0
754.0
756.0
754.0
761.0
774.0
779.0
784.0
788.0
784.0
776.0
765.0
761.0
758.0
762.0
764.0
767.0
769.0
763.0
765.0
764.0
767.0
770.0
774.0
772.0
775.0
774.0
774.0
774.0
773.0
773.0
771.0
770.0
767.0
767.0
765.0
768.0
769.0
773.0
776.0
776.0
771.0
763.0
752.0
747.0
748.0
752.0
761.0
769.0
779.0
786.0
796.0
796.0
794.0
785.0
781.0
787.0
789.0
784.0
772.0
760.0
755.0
756.0
761.0
771.0
781.0
788.0
784.0
783.0
777.0
774.0
772.0
774.0
778.0
779.0
786.0
788.0
790.0
788.0
792.0
793.0
795.0
795.0
795.0
800.0
803.0
807.0
807.0
806.0
803.0
801.0
799.0
803.0
810.0
818.0
826.0
824.0
822.0
820.0
818.0
827.0
834.0
838.0
842.0
841.0
835.0
826.0
816.0
809.0
806.0
807.0
807.0
811.0
807.0
807.0
800.0
797.0
795.0
794.0
791.0
790.0
789.0
788.0
790.0
789.0
787.0
785.0
789.0
792.0
794.0
794.0
794.0
794.0
794.0
788.0
784.0
777.0
777.0
783.0
789.0
796.0
799.0
803.0
809.0
806.0
807.0
801.0
799.0
797.0
802.0
803.0
802.0
799.0
796.0
794.0
795.0
804.0
809.0
821.0
827.0
841.0
861.0
893.0
937.0
989.0
1044.0
1107.0
1173.0
1227.0
1251.0
1234.0
1181.0
1090.0
979.0
863.0
763.0
692.0
656.0
653.0
678.0
713.0
744.0
767.0
779.0
784.0
788.0
793.0
797.0
798.0
802.0
810.0
815.0
816.0
816.0
813.0
811.0
812.0
811.0
812.0
814.0
811.0
814.0
815.0
819.0
821.0
824.0
826.0
830.0
832.0
831.0
828.0
826.0
824.0
824.0
826.0
827.0
827.0
834.0
836.0
838.0
837.0
837.0
838.0
836.0
834.0
833.0
831.0
834.0
837.0
838.0
843.0
840.0
838.0
840.0
841.0
837.0
838.0
838.0
838.0
842.0
845.0
847.0
849.0
854.0
855.0
856.0
857.0
859.0
858.0
861.0
863.0
865.0
867.0
871.0
875.0
879.0
884.0
889.0
892.0
893.0
896.0
897.0
898.0
906.0
911.0
915.0
925.0
927.0
932.0
938.0
940.0
944.0
945.0
951.0
952.0
952.0
954.0
962.0
968.0
981.0
989.0
993.0
991.0
984.0
975.0
970.0
973.0
971.0
974.0
973.0
970.0
966.0
962.0
958.0
958.0
955.0
952.0
948.0
942.0
938.0
933.0
929.0
927.0
926.0
928.0
930.0
930.0
930.0
924.0
921.0
917.0
914.0
912.0
908.0
910.0
913.0
912.0
915.0
912.0
909.0
902.0
899.0
901.0
904.0
910.0
917.0
920.0
921.0
927.0
925.0
919.0
915.0
910.0
914.0
915.0
919.0
924.0
927.0
929.0
934.0
937.0
939.0
942.0
944.0
944.0
943.0
942.0
938.0
942.0
944.0
948.0
954.0
953.0
950.0
949.0
946.0
947.0
947.0
949.0
949.0
953.0
962.0
968.0
969.0
968.0
964.0
966.0
964.0
967.0
971.0
976.0
984.0
987.0
987.0
991.0
991.0
988.0
984.0
984.0
982.0
981.0
986.0
991.0
995.0
999.0
1003.0
1001.0
1003.0
1003.0
1001.0
1001.0
1000.0
1003.0
999.0
999.0
1001.0
998.0
998.0
1000.0
1001.0
1001.0
1000.0
1000.0
1002.0
1002.0
1000.0
999.0
999.0
998.0
999.0
997.0
1000.0
999.0
999.0
996.0
993.0
985.0
985.0
979.0
985.0
984.0
987.0
986.0
992.0
992.0
992.0
990.0
987.0
987.0
984.0
988.0
991.0
997.0
1000.0
1002.0
1004.0
1008.0
1002.0
1004.0
1002.0
1008.0
1009.0
1011.0
1010.0
1015.0
1013.0
1013.0
1010.0
1008.0
1006.0
1002.0
1000.0
1002.0
1000.0
1005.0
1004.0
1000.0
991.0
989.0
982.0
976.0
974.0
974.0
976.0
978.0
975.0
973.0
969.0
965.0
957.0
955.0
953.0
952.0
952.0
952.0
952.0
952.0
951.0
955.0
958.0
963.0
971.0
969.0
966.0
963.0
960.0
957.0
956.0
963.0
967.0
972.0
970.0
970.0
967.0
970.0
976.0
978.0
975.0
974.0
972.0
974.0
976.0
976.0
977.0
975.0
978.0
982.0
982.0
986.0
995.0
1018.0
1055.0
1108.0
1165.0
1226.0
1291.0
1356.0
1407.0
1436.0
1428.0
1387.0
1312.0
1207.0
1079.0
956.0
859.0
808.0
798.0
822.0
864.0
899.0
925.0
935.0
939.0
942.0
946.0
953.0
962.0
970.0
978.0
983.0
985.0
986.0
986.0
983.0
981.0
979.0
978.0
978.0
979.0
983.0
981.0
986.0
987.0
992.0
992.0
991.0
986.0
983.0
984.0
984.0
986.0
982.0
985.0
982.0
985.0
988.0
991.0
990.0
994.0
994.0
988.0
989.0
990.0
988.0
990.0
992.0
996.0
997.0
1000.0
997.0
996.0
995.0
995.0
992.0
989.0
992.0
994.0
998.0
998.0
1005.0
1006.0
1004.0
1005.0
1002.0
1002.0
1003.0
1003.0
1004.0
1008.0
1008.0
1012.0
1019.0
1025.0
1028.0
1027.0
1026.0
1021.0
1018.0
1023.0
1027.0
1031.0
1036.0
1041.0
1044.0
1052.0
1052.0
1055.0
1058.0
1060.0
1061.0
1066.0
1069.0
1071.0
1075.0
1078.0
1079.0
1084.0
1087.0
1086.0
1087.0
1087.0
1083.0
1089.0
1090.0
1089.0
1087.0
1087.0
1084.0
1086.0
1080.0
1070.0
1062.0
1053.0
1042.0
1037.0
1033.0
1030.0
1023.0
1023.0
1021.0
1017.0
1016.0
1012.0
1015.0
1012.0
1016.0
1023.0
1026.0
1026.0
1018.0
1001.0
985.0
976.0
970.0
971.0
972.0
971.0
975.0
980.0
980.0
986.0
988.0
986.0
987.0
987.0
984.0
976.0
970.0
967.0
965.0
964.0
969.0
973.0
979.0
979.0
974.0
965.0
965.0
962.0
963.0
960.0
956.0
956.0
961.0
961.0
957.0
954.0
949.0
953.0
958.0
962.0
965.0
962.0
962.0
961.0
957.0
958.0
965.0
969.0
970.0
962.0
954.0
948.0
953.0
969.0
989.0
998.0
997.0
989.0
970.0
956.0
946.0
946.0
952.0
964.0
974.0
979.0
975.0
967.0
958.0
953.0
954.0
957.0
962.0
966.0
965.0
966.0
962.0
956.0
952.0
952.0
956.0
967.0
978.0
991.0
993.0
990.0
982.0
974.0
972.0
971.0
973.0
972.0
973.0
972.0
974.0
976.0
977.0
979.0
979.0
982.0
980.0
977.0
974.0
970.0
969.0
969.0
970.0
971.0
974.0
977.0
977.0
979.0
974.0
972.0
970.0
968.0
965.0
964.0
963.0
962.0
960.0
961.0
961.0
957.0
954.0
955.0
952.0
953.0
952.0
948.0
952.0
954.0
955.0
960.0
960.0
966.0
969.0
966.0
964.0
958.0
954.0
952.0
953.0
959.0
959.0
960.0
956.0
956.0
950.0
951.0
948.0
945.0
944.0
947.0
944.0
943.0
944.0
942.0
935.0
928.0
924.0
920.0
918.0
919.0
915.0
917.0
917.0
918.0
920.0
921.0
922.0
922.0
922.0
924.0
922.0
922.0
921.0
922.0
922.0
926.0
926.0
929.0
932.0
931.0
929.0
930.0
931.0
929.0
930.0
930.0
932.0
935.0
939.0
942.0
943.0
945.0
944.0
942.0
945.0
944.0
946.0
946.0
950.0
956.0
957.0
963.0
968.0
980.0
1002.0
1038.0
1081.0
1127.0
1176.0
1229.0
1286.0
1343.0
1375.0
1377.0
1333.0
1252.0
1134.0
1006.0
885.0
805.0
782.0
795.0
835.0
882.0
915.0
934.0
944.0
947.0
948.0
949.0
949.0
949.0
950.0
951.0
949.0
951.0
952.0
955.0
955.0
956.0
956.0
954.0
954.0
953.0
950.0
951.0
949.0
953.0
955.0
957.0
958.0
957.0
954.0
952.0
946.0
945.0
945.0
947.0
949.0
951.0
950.0
953.0
950.0
951.0
953.0
950.0
948.0
945.0
942.0
947.0
946.0
949.0
954.0
953.0
950.0
954.0
951.0
946.0
947.0
941.0
944.0
944.0
950.0
954.0
958.0
963.0
961.0
961.0
958.0
960.0
960.0
960.0
962.0
962.0
962.0
968.0
970.0
976.0
976.0
980.0
981.0
982.0
984.0
985.0
991.0
989.0
992.0
996.0
1006.0
1008.0
1011.0
1012.0
1015.0
1015.0
1019.0
1020.0
1023.0
1024.0
1031.0
1030.0
1037.0
1038.0
1040.0
1040.0
1038.0
1037.0
1034.0
1031.0
1027.0
1022.0
1019.0
1018.0
1012.0
1010.0
1006.0
1001.0
993.0
983.0
973.0
963.0
956.0
953.0
955.0
959.0
967.0
974.0
972.0
967.0
959.0
945.0
936.0
935.0
935.0
938.0
941.0
951.0
956.0
960.0
962.0
958.0
945.0
936.0
927.0
918.0
920.0
931.0
946.0
957.0
963.0
961.0
954.0
946.0
941.0
936.0
934.0
933.0
936.0
942.0
947.0
951.0
952.0
949.0
950.0
946.0
943.0
937.0
935.0
932.0
931.0
930.0
934.0
934.0
934.0
936.0
936.0
937.0
943.0
952.0
961.0
966.0
964.0
952.0
942.0
935.0
928.0
927.0
929.0
937.0
947.0
956.0
961.0
959.0
955.0
947.0
940.0
937.0
938.0
940.0
943.0
943.0
944.0
941.0
939.0
934.0
933.0
933.0
932.0
931.0
936.0
938.0
936.0
936.0
932.0
931.0
930.0
927.0
924.0
923.0
921.0
926.0
927.0
930.0
928.0
927.0
925.0
925.0
922.0
925.0
922.0
920.0
923.0
923.0
924.0
925.0
929.0
926.0
925.0
926.0
923.0
922.0
918.0
917.0
920.0
920.0
921.0
924.0
923.0
920.0
920.0
917.0
913.0
911.0
911.0
913.0
911.0
915.0
915.0
919.0
917.0
918.0
917.0
917.0
911.0
911.0
911.0
910.0
912.0
912.0
915.0
917.0
918.0
918.0
916.0
912.0
912.0
913.0
913.0
912.0
913.0
914.0
916.0
918.0
918.0
916.0
917.0
918.0
926.0
927.0
929.0
930.0
934.0
938.0
940.0
944.0
946.0
951.0
949.0
948.0
941.0
939.0
934.0
932.0
931.0
930.0
930.0
935.0
937.0
932.0
930.0
926.0
921.0
918.0
912.0
908.0
897.0
900.0
898.0
903.0
901.0
897.0
894.0
892.0
892.0
892.0
891.0
891.0
891.0
895.0
898.0
900.0
898.0
897.0
895.0
895.0
895.0
893.0
892.0
895.0
896.0
900.0
898.0
904.0
904.0
904.0
901.0
901.0
899.0
901.0
898.0
899.0
902.0
906.0
911.0
910.0
913.0
915.0
916.0
917.0
916.0
923.0
933.0
959.0
998.0
1044.0
1092.0
1143.0
1198.0
1250.0
1299.0
1326.0
1318.0
1266.0
1183.0
1072.0
953.0
848.0
773.0
740.0
747.0
780.0
819.0
849.0
867.0
873.0
876.0
880.0
887.0
896.0
903.0
911.0
914.0
913.0
911.0
905.0
902.0
905.0
905.0
905.0
906.0
906.0
909.0
912.0
913.0
912.0
911.0
911.0
907.0
910.0
907.0
907.0
908.0
907.0
911.0
912.0
912.0
911.0
910.0
910.0
909.0
911.0
905.0
906.0
908.0
907.0
912.0
912.0
911.0
914.0
914.0
912.0
908.0
907.0
906.0
907.0
911.0
910.0
917.0
919.0
913.0
917.0
919.0
916.0
916.0
920.0
922.0
923.0
925.0
930.0
934.0
938.0
938.0
940.0
941.0
939.0
940.0
944.0
947.0
949.0
952.0
956.0
963.0
967.0
972.0
975.0
979.0
980.0
980.0
985.0
983.0
988.0
991.0
994.0
999.0
1003.0
1008.0
1006.0
1008.0
1007.0
1006.0
1002.0
1002.0
996.0
994.0
993.0
991.0
991.0
989.0
982.0
