# Simple Text Format
# Sampling Rate (Hz):= 360.00
# Resolution:= 12
# Labels:= ECG
863.0
863.0
863.0
863.0
863.0
863.0
863.0
860.0
857.0
856.0
857.0
855.0
856.0
856.0
853.0
848.0
843.0
836.0
834.0
827.0
828.0
820.0
821.0
820.0
821.0
822.0
826.0
825.0
825.0
822.0
820.0
818.0
816.0
817.0
817.0
816.0
819.0
819.0
823.0
822.0
823.0
822.0
822.0
819.0
818.0
815.0
817.0
817.0
820.0
822.0
825.0
825.0
828.0
831.0
828.0
827.0
828.0
830.0
832.0
837.0
842.0
852.0
875.0
908.0
952.0
1005.0
1057.0
1111.0
1166.0
1219.0
1256.0
1264.0
1238.0
1171.0
1075.0
962.0
842.0
745.0
692.0
684.0
706.0
745.0
778.0
803.0
811.0
818.0
814.0
814.0
817.0
820.0
820.0
825.0
825.0
824.0
822.0
820.0
823.0
822.0
824.0
826.0
827.0
824.0
824.0
825.0
822.0
822.0
820.0
820.0
826.0
826.0
828.0
830.0
830.0
829.0
826.0
826.0
826.0
822.0
821.0
820.0
823.0
824.0
829.0
828.0
828.0
829.0
826.0
826.0
823.0
824.0
823.0
825.0
824.0
829.0
831.0
832.0
831.0
832.0
832.0
832.0
828.0
829.0
830.0
832.0
835.0
838.0
842.0
842.0
839.0
843.0
842.0
844.0
841.0
842.0
845.0
847.0
851.0
855.0
858.0
862.0
866.0
867.0
870.0
870.0
870.0
872.0
878.0
881.0
886.0
889.0
896.0
899.0
902.0
905.0
907.0
908.0
909.0
911.0
910.0
914.0
916.0
920.0
924.0
925.0
924.0
922.0
915.0
909.0
905.0
900.0
895.0
893.0
890.0
890.0
880.0
879.0
874.0
871.0
867.0
861.0
858.0
850.0
847.0
843.0
842.0
843.0
839.0
842.0
842.0
840.0
836.0
835.0
829.0
828.0
827.0
827.0
831.0
833.0
835.0
836.0
836.0
834.0
832.0
830.0
829.0
830.0
827.0
826.0
826.0
829.0
830.0
835.0
834.0
831.0
831.0
829.0
827.0
827.0
828.0
832.0
832.0
835.0
834.0
837.0
836.0
834.0
833.0
835.0
832.0
831.0
830.0
828.0
831.0
832.0
833.0
838.0
834.0
836.0
834.0
832.0
827.0
826.0
827.0
830.0
832.0
832.0
836.0
836.0
835.0
833.0
831.0
829.0
827.0
826.0
826.0
824.0
825.0
831.0
830.0
833.0
832.0
830.0
827.0
826.0
825.0
822.0
819.0
824.0
826.0
828.0
830.0
828.0
828.0
827.0
821.0
819.0
816.0
817.0
819.0
821.0
820.0
822.0
827.0
828.0
826.0
825.0
821.0
818.0
815.0
815.0
814.0
813.0
816.0
823.0
825.0
822.0
821.0
819.0
817.0
818.0
817.0
819.0
817.0
819.0
818.0
817.0
819.0
823.0
821.0
824.0
821.0
819.0
821.0
820.0
816.0
817.0
819.0
821.0
822.0
824.0
820.0
824.0
820.0
820.0
822.0
818.0
820.0
815.0
815.0
817.0
821.0
821.0
821.0
822.0
824.0
820.0
817.0
816.0
817.0
820.0
822.0
822.0
822.0
823.0
822.0
823.0
821.0
818.0
819.0
816.0
817.0
819.0
819.0
820.0
825.0
827.0
826.0
827.0
823.0
820.0
819.0
818.0
818.0
816.0
821.0
823.0
824.0
828.0
825.0
822.0
818.0
820.0
817.0
814.0
812.0
818.0
819.0
821.0
821.0
821.0
821.0
820.0
820.0
818.0
818.0
817.0
816.0
819.0
819.0
820.0
826.0
823.0
826.0
825.0
822.0
820.0
819.0
819.0
818.0
818.0
818.0
821.0
824.0
825.0
824.0
826.0
825.0
822.0
823.0
823.0
822.0
822.0
822.0
824.0
828.0
831.0
826.0
826.0
826.0
825.0
821.0
822.0
822.0
820.0
823.0
828.0
826.0
830.0
830.0
827.0
823.0
825.0
820.0
818.0
819.0
821.0
822.0
827.0
827.0
830.0
832.0
835.0
832.0
832.0
832.0
835.0
835.0
841.0
844.0
847.0
845.0
847.0
845.0
850.0
855.0
859.0
862.0
867.0
867.0
870.0
868.0
868.0
868.0
863.0
860.0
860.0
858.0
857.0
856.0
852.0
852.0
848.0
842.0
839.0
834.0
833.0
827.0
827.0
825.0
820.0
818.0
813.0
812.0
812.0
815.0
817.0
816.0
819.0
819.0
820.0
817.0
816.0
810.0
811.0
810.0
810.0
812.0
815.0
817.0
816.0
814.0
820.0
820.0
815.0
820.0
814.0
817.0
815.0
820.0
823.0
823.0
829.0
827.0
828.0
828.0
826.0
826.0
825.0
825.0
826.0
829.0
840.0
860.0
891.0
938.0
992.0
1044.0
1098.0
1154.0
1203.0
1244.0
1250.0
1218.0
1150.0
1055.0
941.0
823.0
733.0
678.0
663.0
676.0
707.0
738.0
761.0
777.0
786.0
795.0
804.0
810.0
817.0
827.0
827.0
822.0
819.0
819.0
817.0
817.0
820.0
822.0
827.0
827.0
827.0
826.0
825.0
823.0
818.0
820.0
820.0
821.0
823.0
823.0
823.0
825.0
825.0
823.0
820.0
819.0
818.0
818.0
821.0
824.0
828.0
826.0
827.0
825.0
827.0
827.0
823.0
823.0
820.0
819.0
821.0
821.0
824.0
824.0
824.0
827.0
831.0
827.0
825.0
825.0
827.0
827.0
827.0
829.0
832.0
834.0
836.0
836.0
837.0
836.0
838.0
837.0
838.0
840.0
841.0
847.0
845.0
848.0
851.0
850.0
857.0
860.0
860.0
858.0
861.0
856.0
863.0
865.0
873.0
879.0
882.0
885.0
889.0
889.0
888.0
889.0
888.0
893.0
896.0
898.0
902.0
906.0
909.0
910.0
910.0
907.0
905.0
903.0
897.0
895.0
894.0
894.0
894.0
890.0
888.0
882.0
883.0
877.0
871.0
865.0
860.0
859.0
855.0
854.0
852.0
850.0
848.0
849.0
848.0
841.0
839.0
835.0
835.0
829.0
830.0
828.0
831.0
837.0
838.0
837.0
836.0
835.0
835.0
831.0
827.0
826.0
828.0
829.0
832.0
832.0
835.0
835.0
835.0
835.0
832.0
830.0
830.0
828.0
830.0
831.0
835.0
836.0
839.0
839.0
839.0
837.0
834.0
833.0
831.0
833.0
833.0
833.0
834.0
839.0
840.0
844.0
840.0
839.0
839.0
838.0
838.0
836.0
840.0
843.0
844.0
841.0
844.0
846.0
847.0
844.0
843.0
844.0
843.0
840.0
839.0
839.0
841.0
843.0
845.0
844.0
845.0
845.0
844.0
841.0
840.0
837.0
836.0
835.0
837.0
840.0
840.0
839.0
840.0
838.0
837.0
832.0
832.0
831.0
835.0
832.0
834.0
834.0
833.0
834.0
836.0
834.0
830.0
830.0
828.0
828.0
828.0
830.0
831.0
829.0
831.0
829.0
831.0
829.0
828.0
826.0
824.0
821.0
822.0
825.0
829.0
829.0
831.0
832.0
830.0
829.0
830.0
823.0
825.0
823.0
824.0
825.0
830.0
828.0
831.0
831.0
831.0
829.0
826.0
823.0
822.0
821.0
821.0
821.0
827.0
830.0
828.0
828.0
831.0
826.0
827.0
824.0
823.0
824.0
824.0
822.0
823.0
825.0
826.0
831.0
830.0
827.0
828.0
823.0
823.0
821.0
822.0
823.0
824.0
828.0
827.0
827.0
829.0
828.0
826.0
826.0
825.0
823.0
822.0
822.0
825.0
824.0
828.0
830.0
831.0
829.0
825.0
823.0
824.0
824.0
823.0
826.0
827.0
826.0
830.0
828.0
828.0
830.0
825.0
823.0
825.0
822.0
824.0
823.0
825.0
827.0
831.0
830.0
832.0
828.0
827.0
825.0
823.0
824.0
824.0
826.0
829.0
834.0
834.0
833.0
831.0
828.0
828.0
828.0
827.0
825.0
826.0
827.0
832.0
833.0
834.0
833.0
831.0
831.0
831.0
828.0
830.0
827.0
827.0
830.0
832.0
833.0
836.0
836.0
835.0
836.0
834.0
834.0
832.0
830.0
833.0
832.0
838.0
848.0
853.0
854.0
854.0
852.0
849.0
853.0
856.0
856.0
862.0
868.0
875.0
876.0
880.0
876.0
874.0
870.0
865.0
863.0
858.0
860.0
861.0
854.0
860.0
857.0
857.0
854.0
845.0
837.0
831.0
828.0
824.0
823.0
821.0
820.0
819.0
822.0
824.0
823.0
824.0
822.0
823.0
817.0
818.0
817.0
816.0
816.0
817.0
819.0
824.0
821.0
825.0
823.0
819.0
821.0
820.0
819.0
820.0
822.0
824.0
827.0
831.0
830.0
830.0
831.0
829.0
828.0
830.0
830.0
833.0
838.0
841.0
844.0
850.0
865.0
886.0
924.0
966.0
1017.0
1072.0
1128.0
1186.0
1244.0
1283.0
1288.0
1258.0
1189.0
1088.0
965.0
850.0
756.0
697.0
686.0
707.0
748.0
789.0
813.0
825.0
826.0
821.0
818.0
818.0
818.0
822.0
825.0
828.0
832.0
832.0
831.0
829.0
832.0
832.0
829.0
830.0
831.0
828.0
829.0
833.0
832.0
833.0
836.0
837.0
837.0
835.0
832.0
831.0
829.0
828.0
829.0
829.0
831.0
835.0
832.0
839.0
837.0
837.0
837.0
833.0
832.0
835.0
829.0
832.0
833.0
834.0
839.0
839.0
837.0
839.0
835.0
836.0
838.0
838.0
838.0
840.0
843.0
844.0
847.0
849.0
850.0
850.0
847.0
849.0
850.0
850.0
851.0
853.0
857.0
861.0
866.0
868.0
870.0
870.0
871.0
871.0
874.0
877.0
877.0
880.0
887.0
893.0
897.0
901.0
905.0
906.0
907.0
909.0
911.0
911.0
914.0
917.0
922.0
929.0
931.0
938.0
934.0
937.0
933.0
934.0
933.0
929.0
927.0
925.0
927.0
927.0
926.0
921.0
915.0
908.0
902.0
898.0
891.0
887.0
882.0
879.0
879.0
876.0
876.0
872.0
869.0
867.0
864.0
858.0
853.0
852.0
851.0
852.0
852.0
852.0
855.0
855.0
852.0
850.0
850.0
850.0
848.0
847.0
846.0
846.0
847.0
849.0
851.0
848.0
849.0
848.0
849.0
846.0
846.0
846.0
845.0
846.0
851.0
849.0
852.0
851.0
850.0
852.0
852.0
851.0
851.0
849.0
846.0
847.0
850.0
853.0
855.0
855.0
856.0
853.0
851.0
849.0
849.0
851.0
853.0
852.0
855.0
855.0
857.0
857.0
856.0
857.0
855.0
853.0
852.0
850.0
849.0
851.0
853.0
851.0
852.0
853.0
853.0
853.0
849.0
847.0
845.0
846.0
845.0
845.0
850.0
849.0
851.0
850.0
851.0
849.0
847.0
847.0
841.0
842.0
841.0
841.0
845.0
844.0
847.0
848.0
850.0
846.0
844.0
842.0
842.0
841.0
839.0
840.0
842.0
844.0
845.0
845.0
845.0
846.0
846.0
843.0
840.0
836.0
837.0
834.0
835.0
843.0
844.0
842.0
845.0
843.0
837.0
837.0
838.0
835.0
835.0
838.0
839.0
839.0
843.0
843.0
844.0
843.0
841.0
841.0
839.0
837.0
838.0
836.0
839.0
840.0
841.0
841.0
843.0
842.0
842.0
839.0
839.0
836.0
834.0
839.0
838.0
843.0
843.0
843.0
843.0
844.0
840.0
840.0
838.0
837.0
836.0
838.0
839.0
839.0
840.0
842.0
843.0
843.0
841.0
837.0
838.0
836.0
835.0
836.0
834.0
836.0
836.0
838.0
835.0
840.0
835.0
833.0
833.0
833.0
833.0
833.0
836.0
836.0
837.0
836.0
838.0
840.0
839.0
837.0
837.0
837.0
837.0
835.0
835.0
837.0
838.0
843.0
841.0
841.0
837.0
837.0
835.0
835.0
834.0
833.0
834.0
838.0
843.0
841.0
839.0
839.0
838.0
837.0
834.0
836.0
835.0
833.0
839.0
838.0
841.0
841.0
838.0
841.0
838.0
838.0
837.0
836.0
836.0
838.0
839.0
842.0
842.0
845.0
844.0
842.0
841.0
839.0
836.0
836.0
836.0
838.0
836.0
843.0
845.0
848.0
849.0
846.0
845.0
844.0
845.0
847.0
853.0
857.0
860.0
862.0
865.0
866.0
866.0
867.0
870.0
873.0
878.0
882.0
883.0
885.0
887.0
886.0
885.0
885.0
880.0
877.0
874.0
874.0
871.0
873.0
871.0
870.0
867.0
862.0
856.0
851.0
850.0
845.0
840.0
838.0
836.0
833.0
830.0
830.0
830.0
830.0
834.0
837.0
834.0
834.0
832.0
829.0
828.0
826.0
825.0
829.0
827.0
831.0
834.0
836.0
835.0
833.0
834.0
830.0
829.0
830.0
831.0
827.0
833.0
834.0
835.0
837.0
839.0
840.0
838.0
840.0
842.0
841.0
841.0
843.0
849.0
856.0
863.0
883.0
915.0
960.0
1019.0
1077.0
1140.0
1203.0
1260.0
1287.0
1276.0
1222.0
1130.0
1009.0
882.0
780.0
713.0
693.0
710.0
744.0
782.0
805.0
817.0
822.0
822.0
822.0
827.0
831.0
838.0
839.0
836.0
835.0
832.0
831.0
833.0
837.0
839.0
837.0
840.0
838.0
837.0
838.0
837.0
834.0
835.0
837.0
835.0
837.0
838.0
840.0
839.0
842.0
839.0
836.0
838.0
835.0
835.0
835.0
837.0
840.0
840.0
842.0
842.0
842.0
839.0
836.0
834.0
832.0
834.0
840.0
840.0
842.0
847.0
849.0
848.0
847.0
847.0
845.0
846.0
844.0
845.0
848.0
847.0
851.0
853.0
855.0
857.0
857.0
856.0
860.0
862.0
860.0
862.0
864.0
867.0
870.0
873.0
878.0
880.0
884.0
886.0
887.0
887.0
889.0
890.0
895.0
896.0
900.0
905.0
909.0
913.0
918.0
915.0
918.0
920.0
918.0
920.0
925.0
928.0
932.0
933.0
933.0
939.0
940.0
939.0
934.0
931.0
930.0
926.0
925.0
917.0
915.0
913.0
915.0
910.0
906.0
896.0
890.0
884.0
880.0
877.0
874.0
870.0
864.0
863.0
864.0
862.0
859.0
856.0
855.0
851.0
848.0
846.0
844.0
845.0
844.0
848.0
849.0
847.0
845.0
845.0
842.0
841.0
839.0
839.0
840.0
841.0
843.0
844.0
848.0
848.0
847.0
848.0
844.0
842.0
841.0
839.0
841.0
841.0
845.0
845.0
849.0
850.0
849.0
848.0
844.0
842.0
844.0
844.0
844.0
846.0
847.0
845.0
851.0
852.0
850.0
851.0
848.0
846.0
844.0
844.0
844.0
846.0
848.0
851.0
849.0
849.0
851.0
849.0
846.0
843.0
846.0
844.0
843.0
844.0
843.0
845.0
844.0
844.0
844.0
842.0
840.0
841.0
836.0
835.0
833.0
834.0
837.0
838.0
842.0
842.0
839.0
835.0
832.0
833.0
833.0
832.0
831.0
834.0
833.0
837.0
835.0
839.0
840.0
839.0
837.0
834.0
833.0
832.0
831.0
833.0
835.0
838.0
841.0
840.0
837.0
835.0
833.0
830.0
829.0
831.0
833.0
836.0
834.0
835.0
837.0
837.0
837.0
832.0
832.0
833.0
830.0
831.0
832.0
832.0
834.0
835.0
839.0
838.0
842.0
839.0
836.0
836.0
832.0
832.0
833.0
834.0
834.0
836.0
837.0
837.0
838.0
837.0
838.0
835.0
836.0
834.0
834.0
834.0
835.0
839.0
839.0
839.0
838.0
835.0
834.0
833.0
833.0
832.0
833.0
833.0
837.0
838.0
840.0
843.0
843.0
841.0
838.0
834.0
829.0
832.0
833.0
832.0
836.0
840.0
843.0
842.0
845.0
840.0
837.0
834.0
836.0
836.0
833.0
836.0
839.0
842.0
841.0
840.0
840.0
838.0
839.0
838.0
838.0
838.0
841.0
840.0
840.0
848.0
851.0
855.0
859.0
862.0
859.0
858.0
859.0
859.0
860.0
864.0
868.0
878.0
885.0
888.0
889.0
890.0
886.0
882.0
876.0
872.0
866.0
870.0
872.0
876.0
877.0
875.0
870.0
864.0
853.0
845.0
839.0
836.0
836.0
835.0
837.0
835.0
835.0
834.0
832.0
830.0
830.0
827.0
825.0
822.0
825.0
823.0
826.0
827.0
833.0
833.0
833.0
830.0
828.0
825.0
826.0
825.0
823.0
827.0
829.0
833.0
834.0
837.0
833.0
835.0
834.0
833.0
835.0
831.0
834.0
838.0
840.0
845.0
846.0
850.0
852.0
852.0
850.0
849.0
860.0
887.0
928.0
986.0
1046.0
1109.0
1174.0
1236.0
1281.0
1286.0
1250.0
1173.0
1060.0
932.0
810.0
720.0
674.0
668.0
691.0
726.0
759.0
780.0
791.0
799.0
804.0
812.0
818.0
826.0
833.0
838.0
838.0
836.0
837.0
836.0
835.0
836.0
834.0
833.0
833.0
830.0
831.0
836.0
837.0
837.0
843.0
842.0
837.0
837.0
835.0
834.0
834.0
835.0
838.0
840.0
840.0
841.0
843.0
843.0
837.0
836.0
833.0
832.0
833.0
835.0
838.0
837.0
842.0
844.0
844.0
841.0
839.0
838.0
832.0
833.0
836.0
836.0
841.0
842.0
844.0
849.0
850.0
849.0
850.0
847.0
847.0
847.0
849.0
851.0
854.0
857.0
867.0
870.0
871.0
869.0
869.0
869.0
870.0
872.0
873.0
875.0
883.0
887.0
894.0
895.0
898.0
897.0
899.0
898.0
902.0
903.0
906.0
910.0
914.0
918.0
925.0
928.0
928.0
930.0
930.0
926.0
925.0
923.0
924.0
921.0
923.0
926.0
924.0
920.0
912.0
910.0
902.0
896.0
894.0
889.0
882.0
883.0
880.0
874.0
874.0
872.0
869.0
866.0
862.0
857.0
852.0
851.0
850.0
847.0
852.0
852.0
854.0
855.0
854.0
850.0
848.0
847.0
845.0
843.0
845.0
847.0
849.0
850.0
851.0
850.0
851.0
850.0
847.0
847.0
844.0
844.0
847.0
848.0
847.0
848.0
849.0
850.0
848.0
851.0
853.0
854.0
848.0
848.0
851.0
851.0
857.0
855.0
858.0
861.0
859.0
860.0
856.0
857.0
856.0
856.0
854.0
854.0
855.0
861.0
860.0
862.0
860.0
858.0
857.0
854.0
853.0
853.0
852.0
855.0
856.0
860.0
860.0
860.0
861.0
859.0
854.0
855.0
850.0
849.0
847.0
850.0
854.0
852.0
855.0
858.0
858.0
856.0
852.0
850.0
848.0
848.0
849.0
848.0
850.0
851.0
852.0
848.0
851.0
851.0
849.0
846.0
846.0
842.0
845.0
844.0
849.0
848.0
850.0
848.0
851.0
851.0
847.0
846.0
846.0
844.0
844.0
847.0
844.0
845.0
846.0
849.0
845.0
845.0
844.0
843.0
843.0
843.0
843.0
842.0
845.0
847.0
848.0
845.0
848.0
847.0
848.0
847.0
846.0
844.0
847.0
841.0
843.0
843.0
849.0
848.0
846.0
848.0
844.0
845.0
842.0
839.0
839.0
842.0
846.0
845.0
850.0
848.0
850.0
848.0
847.0
847.0
843.0
843.0
841.0
845.0
846.0
848.0
846.0
849.0
848.0
848.0
849.0
845.0
844.0
843.0
844.0
842.0
844.0
845.0
849.0
850.0
849.0
847.0
845.0
845.0
845.0
843.0
844.0
844.0
847.0
849.0
852.0
857.0
860.0
861.0
859.0
861.0
861.0
861.0
864.0
863.0
865.0
867.0
874.0
881.0
883.0
890.0
889.0
886.0
887.0
885.0
876.0
880.0
879.0
882.0
881.0
882.0
877.0
877.0
872.0
871.0
864.0
858.0
848.0
843.0
842.0
838.0
842.0
841.0
840.0
838.0
835.0
833.0
829.0
829.0
829.0
830.0
831.0
829.0
830.0
834.0
831.0
829.0
826.0
823.0
824.0
822.0
823.0
827.0
826.0
831.0
833.0
834.0
835.0
833.0
833.0
832.0
830.0
831.0
832.0
836.0
832.0
839.0
839.0
840.0
837.0
840.0
839.0
840.0
836.0
839.0
843.0
848.0
856.0
862.0
877.0
902.0
943.0
991.0
1040.0
1092.0
1145.0
1203.0
1254.0
1297.0
1304.0
1275.0
1213.0
1118.0
1000.0
873.0
764.0
693.0
672.0
684.0
720.0
758.0
790.0
807.0
812.0
810.0
809.0
812.0
814.0
823.0
827.0
834.0
833.0
835.0
835.0
834.0
837.0
836.0
837.0
836.0
834.0
832.0
833.0
830.0
831.0
835.0
836.0
839.0
839.0
839.0
837.0
836.0
836.0
835.0
834.0
832.0
834.0
833.0
835.0
835.0
837.0
842.0
839.0
841.0
839.0
837.0
836.0
834.0
831.0
834.0
838.0
839.0
841.0
843.0
843.0
843.0
843.0
841.0
841.0
840.0
840.0
843.0
844.0
847.0
847.0
849.0
853.0
853.0
853.0
849.0
852.0
853.0
854.0
856.0
860.0
865.0
870.0
869.0
873.0
874.0
878.0
875.0
879.0
881.0
884.0
889.0
895.0
900.0
904.0
909.0
912.0
915.0
918.0
919.0
919.0
923.0
926.0
928.0
933.0
938.0
942.0
944.0
946.0
946.0
944.0
941.0
941.0
936.0
935.0
932.0
932.0
931.0
926.0
920.0
915.0
909.0
904.0
895.0
891.0
885.0
879.0
874.0
873.0
870.0
869.0
867.0
864.0
860.0
857.0
853.0
848.0
850.0
848.0
847.0
849.0
849.0
849.0
850.0
850.0
846.0
847.0
842.0
844.0
842.0
839.0
840.0
840.0
844.0
845.0
845.0
846.0
845.0
841.0
839.0
838.0
839.0
838.0
839.0
842.0
842.0
846.0
846.0
847.0
846.0
846.0
846.0
842.0
842.0
843.0
842.0
842.0
847.0
848.0
850.0
851.0
853.0
849.0
847.0
846.0
841.0
841.0
845.0
847.0
847.0
849.0
854.0
851.0
852.0
849.0
847.0
846.0
844.0
843.0
846.0
846.0
848.0
849.0
849.0
849.0
845.0
845.0
841.0
838.0
840.0
839.0
839.0
840.0
840.0
842.0
842.0
841.0
842.0
839.0
833.0
831.0
830.0
833.0
834.0
834.0
836.0
839.0
839.0
837.0
837.0
834.0
833.0
830.0
832.0
831.0
830.0
833.0
833.0
836.0
839.0
839.0
839.0
834.0
832.0
832.0
829.0
829.0
827.0
829.0
832.0
835.0
836.0
834.0
835.0
832.0
832.0
829.0
828.0
828.0
830.0
830.0
832.0
833.0
836.0
833.0
830.0
828.0
828.0
828.0
826.0
824.0
828.0
826.0
828.0
832.0
834.0
834.0
831.0
833.0
831.0
829.0
829.0
827.0
829.0
827.0
828.0
830.0
832.0
831.0
830.0
827.0
828.0
825.0
822.0
820.0
820.0
826.0
825.0
828.0
828.0
831.0
830.0
830.0
827.0
826.0
826.0
827.0
824.0
822.0
824.0
829.0
833.0
833.0
833.0
829.0
825.0
825.0
822.0
824.0
826.0
826.0
829.0
829.0
831.0
832.0
830.0
829.0
830.0
826.0
825.0
827.0
826.0
826.0
829.0
834.0
834.0
834.0
834.0
833.0
831.0
828.0
827.0
830.0
829.0
831.0
833.0
836.0
835.0
837.0
829.0
825.0
826.0
826.0
827.0
826.0
832.0
830.0
830.0
834.0
835.0
836.0
835.0
835.0
833.0
829.0
827.0
827.0
828.0
832.0
832.0
831.0
835.0
836.0
834.0
834.0
832.0
828.0
826.0
830.0
828.0
832.0
835.0
835.0
838.0
835.0
836.0
835.0
834.0
834.0
834.0
834.0
837.0
843.0
848.0
852.0
856.0
857.0
861.0
860.0
856.0
856.0
858.0
861.0
867.0
872.0
878.0
883.0
882.0
880.0
877.0
876.0
871.0
866.0
863.0
859.0
861.0
861.0
865.0
860.0
862.0
859.0
853.0
848.0
841.0
832.0
825.0
822.0
821.0
822.0
822.0
823.0
824.0
825.0
823.0
820.0
820.0
820.0
816.0
816.0
818.0
815.0
818.0
821.0
822.0
821.0
821.0
819.0
819.0
818.0
818.0
818.0
815.0
818.0
820.0
823.0
824.0
822.0
825.0
824.0
825.0
824.0
823.0
826.0
825.0
829.0
835.0
839.0
843.0
850.0
870.0
897.0
945.0
1002.0
1064.0
1130.0
1198.0
1261.0
1296.0
1296.0
1247.0
1153.0
1028.0
900.0
780.0
702.0
674.0
690.0
725.0
765.0
792.0
811.0
815.0
810.0
809.0
808.0
814.0
817.0
821.0
826.0
824.0
824.0
826.0
825.0
825.0
827.0
826.0
825.0
822.0
821.0
821.0
818.0
822.0
823.0
823.0
827.0
826.0
828.0
828.0
825.0
822.0
820.0
821.0
819.0
819.0
819.0
820.0
823.0
827.0
830.0
830.0
827.0
826.0
824.0
824.0
823.0
823.0
825.0
828.0
827.0
828.0
829.0
828.0
829.0
825.0
823.0
825.0
824.0
829.0
832.0
836.0
837.0
839.0
843.0
838.0
840.0
842.0
840.0
839.0
838.0
844.0
848.0
850.0
855.0
860.0
862.0
864.0
865.0
866.0
868.0
868.0
873.0
875.0
882.0
888.0
892.0
897.0
898.0
898.0
902.0
905.0
908.0
910.0
912.0
915.0
920.0
924.0
927.0
932.0
932.0
937.0
937.0
934.0
930.0
930.0
929.0
926.0
923.0
919.0
920.0
918.0
911.0
908.0
901.0
895.0
887.0
882.0
876.0
871.0
865.0
864.0
857.0
858.0
854.0
852.0
849.0
846.0
843.0
841.0
841.0
841.0
840.0
844.0
842.0
846.0
844.0
841.0
841.0
839.0
839.0
838.0
835.0
835.0
839.0
840.0
839.0
842.0
844.0
844.0
842.0
841.0
839.0
837.0
837.0
840.0
841.0
843.0
845.0
848.0
847.0
848.0
846.0
845.0
846.0
842.0
842.0
840.0
844.0
845.0
847.0
849.0
850.0
852.0
846.0
849.0
845.0
843.0
842.0
842.0
847.0
849.0
846.0
852.0
848.0
852.0
846.0
846.0
845.0
845.0
844.0
842.0
844.0
846.0
847.0
848.0
847.0
848.0
848.0
845.0
843.0
839.0
838.0
837.0
840.0
842.0
843.0
844.0
844.0
845.0
843.0
839.0
839.0
837.0
835.0
837.0
837.0
839.0
841.0
843.0
843.0
844.0
840.0
838.0
835.0
835.0
835.0
834.0
837.0
841.0
843.0
843.0
845.0
839.0
840.0
836.0
837.0
837.0
835.0
832.0
836.0
838.0
838.0
841.0
842.0
843.0
839.0
838.0
839.0
835.0
835.0
834.0
836.0
837.0
838.0
839.0
840.0
835.0
838.0
831.0
833.0
835.0
832.0
832.0
835.0
834.0
836.0
839.0
841.0
837.0
836.0
834.0
832.0
830.0
831.0
831.0
833.0
835.0
837.0
834.0
836.0
836.0
837.0
835.0
834.0
832.0
831.0
834.0
835.0
834.0
836.0
839.0
839.0
839.0
839.0
837.0
834.0
833.0
830.0
830.0
832.0
837.0
837.0
839.0
841.0
841.0
840.0
836.0
836.0
833.0
830.0
832.0
831.0
830.0
834.0
837.0
838.0
841.0
840.0
837.0
836.0
832.0
834.0
833.0
834.0
835.0
836.0
840.0
840.0
839.0
836.0
832.0
832.0
831.0
835.0
835.0
840.0
844.0
848.0
852.0
855.0
858.0
862.0
859.0
856.0
854.0
849.0
852.0
859.0
866.0
878.0
887.0
888.0
890.0
883.0
880.0
877.0
870.0
868.0
865.0
865.0
868.0
869.0
868.0
868.0
864.0
858.0
851.0
841.0
836.0
829.0
826.0
826.0
829.0
831.0
830.0
832.0
830.0
826.0
826.0
822.0
822.0
820.0
819.0
820.0
822.0
823.0
827.0
829.0
826.0
828.0
826.0
823.0
824.0
822.0
821.0
826.0
828.0
828.0
831.0
828.0
830.0
826.0
829.0
827.0
830.0
829.0
832.0
830.0
834.0
836.0
840.0
840.0
845.0
844.0
847.0
848.0
855.0
877.0
912.0
962.0
1018.0
1072.0
1131.0
1191.0
1243.0
1281.0
1287.0
1253.0
1189.0
1098.0
990.0
881.0
785.0
716.0
687.0
684.0
704.0
734.0
759.0
775.0
780.0
781.0
784.0
794.0
806.0
817.0
826.0
836.0
837.0
832.0
826.0
824.0
822.0
823.0
823.0
826.0
826.0
827.0
829.0
829.0
831.0
828.0
832.0
829.0
829.0
827.0
828.0
832.0
832.0
833.0
833.0
833.0
836.0
836.0
831.0
830.0
830.0
831.0
830.0
834.0
836.0
834.0
834.0
836.0
836.0
834.0
829.0
830.0
830.0
832.0
830.0
832.0
833.0
835.0
839.0
842.0
842.0
843.0
843.0
840.0
840.0
842.0
843.0
845.0
848.0
850.0
854.0
855.0
857.0
858.0
860.0
855.0
856.0
856.0
858.0
862.0
868.0
873.0
878.0
882.0
884.0
886.0
886.0
887.0
892.0
891.0
892.0
900.0
905.0
912.0
915.0
921.0
926.0
924.0
929.0
927.0
929.0
930.0
929.0
934.0
935.0
940.0
944.0
942.0
941.0
940.0
936.0
929.0
927.0
922.0
917.0
912.0
911.0
907.0
903.0
899.0
894.0
887.0
882.0
874.0
869.0
864.0
860.0
860.0
859.0
861.0
861.0
862.0
859.0
856.0
854.0
853.0
849.0
849.0
850.0
850.0
853.0
854.0
853.0
854.0
853.0
853.0
848.0
846.0
844.0
843.0
842.0
846.0
849.0
852.0
852.0
855.0
857.0
853.0
851.0
847.0
846.0
845.0
843.0
849.0
852.0
855.0
858.0
860.0
859.0
860.0
856.0
855.0
856.0
855.0
854.0
853.0
856.0
861.0
863.0
864.0
866.0
862.0
861.0
859.0
857.0
857.0
856.0
856.0
862.0
862.0
863.0
864.0
865.0
864.0
864.0
859.0
862.0
859.0
859.0
859.0
862.0
863.0
866.0
863.0
866.0
863.0
860.0
857.0
853.0
851.0
854.0
852.0
856.0
858.0
861.0
861.0
857.0
859.0
858.0
858.0
857.0
854.0
850.0
854.0
851.0
854.0
855.0
858.0
855.0
855.0
854.0
855.0
851.0
850.0
850.0
851.0
855.0
855.0
856.0
854.0
857.0
854.0
857.0
854.0
851.0
848.0
849.0
850.0
854.0
853.0
855.0
854.0
855.0
859.0
854.0
854.0
852.0
853.0
854.0
855.0
855.0
856.0
855.0
855.0
855.0
853.0
855.0
856.0
851.0
848.0
851.0
854.0
853.0
857.0
860.0
857.0
860.0
856.0
857.0
857.0
852.0
851.0
850.0
852.0
853.0
857.0
857.0
860.0
861.0
861.0
860.0
857.0
857.0
855.0
856.0
855.0
856.0
855.0
862.0
863.0
865.0
863.0
860.0
861.0
860.0
860.0
862.0
866.0
868.0
871.0
876.0
878.0
881.0
882.0
881.0
883.0
883.0
882.0
887.0
896.0
899.0
905.0
912.0
911.0
908.0
904.0
901.0
899.0
895.0
891.0
