# Simple Text Format
# Sampling Rate (Hz):= 360.00
# Resolution:= 12
# Labels:= ECG
838.0
838.0
841.0
838.0
838.0
837.0
834.0
834.0
833.0
832.0
837.0
839.0
841.0
841.0
844.0
841.0
841.0
842.0
839.0
839.0
839.0
843.0
842.0
846.0
849.0
858.0
856.0
862.0
864.0
862.0
865.0
862.0
863.0
865.0
868.0
872.0
875.0
878.0
874.0
871.0
868.0
865.0
862.0
861.0
859.0
859.0
860.0
859.0
859.0
859.0
854.0
853.0
848.0
843.0
837.0
829.0
824.0
828.0
826.0
828.0
827.0
828.0
826.0
827.0
824.0
823.0
822.0
821.0
819.0
820.0
822.0
824.0
824.0
826.0
826.0
827.0
826.0
827.0
826.0
821.0
823.0
822.0
822.0
823.0
828.0
831.0
833.0
833.0
831.0
830.0
832.0
830.0
830.0
832.0
834.0
840.0
841.0
843.0
850.0
855.0
857.0
874.0
900.0
943.0
993.0
1047.0
1107.0
1165.0
1224.0
1272.0
1289.0
1264.0
1205.0
1106.0
989.0
865.0
763.0
700.0
678.0
700.0
741.0
780.0
809.0
821.0
823.0
819.0
816.0
816.0
822.0
829.0
835.0
838.0
839.0
840.0
837.0
836.0
833.0
832.0
830.0
835.0
834.0
835.0
835.0
838.0
840.0
840.0
840.0
840.0
839.0
839.0
838.0
834.0
833.0
833.0
835.0
837.0
838.0
841.0
842.0
839.0
839.0
838.0
837.0
835.0
833.0
833.0
836.0
838.0
839.0
841.0
845.0
843.0
844.0
843.0
840.0
841.0
838.0
839.0
842.0
846.0
847.0
847.0
848.0
851.0
849.0
849.0
850.0
850.0
851.0
852.0
855.0
859.0
861.0
866.0
867.0
871.0
873.0
871.0
870.0
873.0
872.0
870.0
875.0
880.0
890.0
899.0
907.0
911.0
916.0
916.0
912.0
913.0
913.0
919.0
923.0
927.0
930.0
934.0
934.0
939.0
936.0
938.0
943.0
944.0
946.0
945.0
942.0
938.0
936.0
932.0
931.0
925.0
924.0
921.0
913.0
908.0
898.0
892.0
888.0
887.0
885.0
884.0
880.0
876.0
877.0
866.0
862.0
860.0
858.0
855.0
855.0
855.0
856.0
858.0
859.0
856.0
856.0
853.0
850.0
849.0
848.0
848.0
850.0
850.0
851.0
856.0
855.0
854.0
855.0
852.0
849.0
848.0
847.0
845.0
850.0
851.0
851.0
856.0
855.0
857.0
855.0
855.0
854.0
852.0
852.0
850.0
854.0
857.0
858.0
857.0
858.0
858.0
861.0
860.0
857.0
858.0
857.0
855.0
854.0
858.0
862.0
861.0
862.0
862.0
860.0
859.0
856.0
854.0
853.0
853.0
854.0
856.0
856.0
857.0
859.0
855.0
856.0
854.0
853.0
851.0
849.0
851.0
852.0
852.0
852.0
854.0
853.0
856.0
855.0
850.0
849.0
849.0
845.0
846.0
847.0
850.0
850.0
852.0
852.0
848.0
844.0
847.0
843.0
845.0
841.0
841.0
842.0
843.0
843.0
847.0
846.0
849.0
848.0
842.0
841.0
839.0
839.0
836.0
838.0
842.0
844.0
846.0
843.0
846.0
841.0
842.0
840.0
841.0
839.0
842.0
839.0
842.0
842.0
841.0
842.0
844.0
843.0
838.0
837.0
839.0
836.0
836.0
836.0
837.0
840.0
844.0
843.0
844.0
841.0
843.0
840.0
841.0
842.0
841.0
844.0
844.0
845.0
844.0
849.0
853.0
852.0
848.0
849.0
852.0
855.0
858.0
861.0
865.0
869.0
874.0
874.0
870.0
876.0
876.0
879.0
878.0
878.0
877.0
875.0
874.0
872.0
871.0
873.0
869.0
865.0
862.0
865.0
863.0
860.0
859.0
856.0
851.0
852.0
849.0
845.0
842.0
840.0
839.0
837.0
834.0
827.0
828.0
830.0
830.0
832.0
834.0
835.0
833.0
834.0
832.0
833.0
831.0
829.0
829.0
831.0
833.0
832.0
835.0
835.0
837.0
838.0
837.0
835.0
833.0
832.0
832.0
831.0
834.0
836.0
842.0
846.0
844.0
847.0
845.0
845.0
843.0
847.0
847.0
852.0
860.0
867.0
883.0
912.0
953.0
1001.0
1052.0
1104.0
1159.0
1213.0
1261.0
1280.0
1263.0
1207.0
1122.0
1014.0
900.0
799.0
727.0
694.0
695.0
717.0
748.0
779.0
796.0
803.0
812.0
815.0
824.0
833.0
837.0
843.0
844.0
846.0
842.0
841.0
840.0
843.0
846.0
850.0
848.0
846.0
843.0
841.0
841.0
839.0
839.0
843.0
846.0
846.0
849.0
850.0
852.0
849.0
848.0
848.0
847.0
846.0
844.0
844.0
846.0
847.0
849.0
854.0
853.0
853.0
850.0
849.0
846.0
844.0
845.0
847.0
847.0
852.0
852.0
855.0
856.0
858.0
854.0
857.0
854.0
852.0
854.0
856.0
857.0
860.0
860.0
864.0
865.0
869.0
868.0
866.0
863.0
871.0
871.0
874.0
879.0
882.0
885.0
890.0
891.0
894.0
894.0
897.0
897.0
901.0
906.0
911.0
913.0
916.0
920.0
925.0
930.0
934.0
932.0
935.0
934.0
935.0
935.0
940.0
944.0
949.0
951.0
952.0
951.0
950.0
947.0
943.0
942.0
941.0
938.0
935.0
934.0
929.0
927.0
922.0
917.0
917.0
908.0
902.0
893.0
890.0
885.0
884.0
883.0
882.0
879.0
879.0
878.0
875.0
873.0
867.0
865.0
861.0
861.0
863.0
863.0
864.0
864.0
865.0
862.0
862.0
862.0
857.0
855.0
858.0
858.0
858.0
860.0
863.0
864.0
863.0
864.0
863.0
861.0
861.0
859.0
858.0
858.0
856.0
859.0
862.0
864.0
868.0
868.0
867.0
867.0
867.0
864.0
862.0
861.0
866.0
866.0
867.0
870.0
873.0
872.0
872.0
871.0
868.0
868.0
870.0
871.0
869.0
870.0
873.0
871.0
876.0
873.0
873.0
871.0
873.0
873.0
871.0
866.0
867.0
868.0
873.0
872.0
873.0
873.0
873.0
872.0
871.0
870.0
867.0
867.0
867.0
866.0
867.0
868.0
871.0
868.0
873.0
871.0
869.0
867.0
865.0
862.0
865.0
869.0
869.0
871.0
870.0
871.0
868.0
868.0
866.0
863.0
862.0
861.0
859.0
860.0
860.0
867.0
870.0
871.0
869.0
867.0
871.0
869.0
864.0
863.0
865.0
865.0
867.0
867.0
869.0
868.0
868.0
868.0
865.0
862.0
862.0
858.0
861.0
862.0
864.0
864.0
868.0
868.0
868.0
866.0
868.0
866.0
864.0
863.0
866.0
864.0
863.0
862.0
865.0
867.0
873.0
874.0
878.0
880.0
882.0
881.0
883.0
884.0
887.0
889.0
890.0
891.0
895.0
897.0
900.0
902.0
901.0
901.0
898.0
894.0
894.0
892.0
895.0
895.0
894.0
893.0
890.0
886.0
882.0
877.0
871.0
864.0
865.0
863.0
864.0
862.0
862.0
861.0
857.0
851.0
850.0
849.0
851.0
850.0
855.0
856.0
859.0
859.0
858.0
855.0
853.0
852.0
852.0
848.0
850.0
855.0
856.0
856.0
860.0
860.0
861.0
861.0
860.0
861.0
859.0
859.0
860.0
860.0
862.0
866.0
868.0
872.0
872.0
873.0
870.0
869.0
871.0
871.0
879.0
895.0
925.0
967.0
1018.0
1068.0
1123.0
1178.0
1231.0
1280.0
1304.0
1297.0
1250.0
1171.0
1062.0
939.0
828.0
740.0
696.0
691.0
715.0
754.0
782.0
808.0
819.0
828.0
835.0
843.0
849.0
855.0
860.0
863.0
864.0
864.0
860.0
858.0
856.0
857.0
861.0
865.0
867.0
871.0
869.0
869.0
863.0
863.0
859.0
859.0
862.0
864.0
868.0
866.0
869.0
868.0
870.0
866.0
865.0
864.0
863.0
862.0
862.0
861.0
863.0
868.0
869.0
869.0
866.0
864.0
863.0
863.0
861.0
859.0
860.0
863.0
865.0
864.0
870.0
869.0
870.0
870.0
866.0
869.0
869.0
867.0
869.0
874.0
876.0
879.0
883.0
886.0
886.0
887.0
884.0
886.0
888.0
889.0
890.0
894.0
901.0
905.0
908.0
913.0
914.0
917.0
917.0
918.0
920.0
921.0
924.0
926.0
933.0
939.0
945.0
943.0
946.0
944.0
943.0
944.0
948.0
949.0
952.0
955.0
958.0
957.0
957.0
956.0
953.0
946.0
942.0
935.0
931.0
924.0
923.0
919.0
914.0
913.0
910.0
906.0
902.0
896.0
885.0
882.0
876.0
876.0
872.0
873.0
870.0
873.0
871.0
871.0
870.0
866.0
864.0
863.0
862.0
860.0
859.0
860.0
863.0
865.0
863.0
866.0
863.0
859.0
857.0
858.0
857.0
857.0
860.0
859.0
860.0
861.0
863.0
864.0
863.0
863.0
864.0
863.0
862.0
863.0
861.0
864.0
865.0
868.0
869.0
868.0
870.0
867.0
864.0
866.0
864.0
863.0
864.0
865.0
868.0
870.0
873.0
871.0
871.0
869.0
866.0
867.0
865.0
866.0
865.0
866.0
867.0
871.0
871.0
871.0
870.0
870.0
869.0
864.0
861.0
858.0
861.0
862.0
863.0
865.0
865.0
865.0
865.0
862.0
862.0
858.0
857.0
857.0
853.0
854.0
857.0
858.0
859.0
862.0
862.0
858.0
856.0
856.0
855.0
855.0
855.0
855.0
856.0
857.0
860.0
860.0
859.0
856.0
856.0
854.0
854.0
852.0
854.0
855.0
856.0
858.0
860.0
861.0
861.0
856.0
856.0
856.0
854.0
853.0
856.0
856.0
857.0
859.0
860.0
856.0
856.0
855.0
853.0
852.0
851.0
851.0
850.0
854.0
857.0
855.0
857.0
859.0
857.0
858.0
856.0
855.0
852.0
852.0
853.0
855.0
859.0
861.0
860.0
861.0
862.0
859.0
856.0
856.0
853.0
851.0
853.0
854.0
854.0
857.0
858.0
857.0
860.0
856.0
855.0
852.0
850.0
853.0
853.0
853.0
856.0
857.0
859.0
859.0
859.0
860.0
856.0
857.0
856.0
856.0
852.0
855.0
860.0
863.0
869.0
873.0
876.0
878.0
878.0
879.0
878.0
876.0
878.0
884.0
890.0
892.0
894.0
895.0
896.0
892.0
884.0
882.0
882.0
881.0
880.0
880.0
878.0
881.0
885.0
884.0
883.0
879.0
874.0
867.0
862.0
857.0
852.0
851.0
851.0
851.0
851.0
850.0
849.0
847.0
845.0
840.0
840.0
840.0
839.0
839.0
840.0
843.0
848.0
849.0
847.0
844.0
843.0
843.0
843.0
844.0
842.0
842.0
842.0
848.0
850.0
850.0
851.0
850.0
846.0
847.0
845.0
846.0
845.0
848.0
851.0
855.0
858.0
860.0
861.0
861.0
862.0
862.0
865.0
873.0
888.0
918.0
959.0
1009.0
1062.0
1112.0
1169.0
1225.0
1270.0
1292.0
1275.0
1225.0
1134.0
1019.0
901.0
797.0
732.0
711.0
732.0
766.0
803.0
825.0
837.0
840.0
838.0
843.0
845.0
851.0
859.0
859.0
859.0
859.0
855.0
854.0
852.0
853.0
849.0
853.0
855.0
857.0
859.0
860.0
861.0
858.0
857.0
855.0
851.0
854.0
854.0
856.0
859.0
858.0
862.0
863.0
862.0
862.0
861.0
857.0
856.0
855.0
855.0
856.0
860.0
861.0
865.0
863.0
862.0
862.0
860.0
863.0
862.0
860.0
862.0
864.0
867.0
869.0
869.0
871.0
871.0
871.0
868.0
870.0
871.0
871.0
870.0
873.0
875.0
880.0
883.0
884.0
887.0
888.0
888.0
884.0
888.0
888.0
890.0
895.0
901.0
906.0
908.0
913.0
916.0
918.0
919.0
920.0
922.0
924.0
926.0
930.0
935.0
940.0
944.0
952.0
956.0
956.0
952.0
954.0
953.0
953.0
956.0
959.0
959.0
959.0
958.0
957.0
954.0
950.0
940.0
932.0
928.0
924.0
923.0
917.0
912.0
910.0
910.0
906.0
904.0
898.0
893.0
885.0
885.0
882.0
880.0
876.0
880.0
877.0
879.0
879.0
881.0
878.0
874.0
874.0
871.0
869.0
870.0
871.0
873.0
875.0
876.0
876.0
878.0
875.0
873.0
872.0
867.0
868.0
869.0
871.0
874.0
875.0
877.0
876.0
875.0
875.0
873.0
873.0
870.0
870.0
867.0
867.0
868.0
874.0
877.0
878.0
878.0
878.0
871.0
872.0
871.0
872.0
874.0
874.0
876.0
877.0
880.0
879.0
878.0
878.0
876.0
877.0
872.0
874.0
873.0
872.0
872.0
875.0
877.0
876.0
878.0
875.0
874.0
871.0
869.0
866.0
866.0
867.0
868.0
871.0
872.0
871.0
870.0
870.0
865.0
865.0
865.0
864.0
861.0
864.0
866.0
866.0
869.0
867.0
867.0
869.0
865.0
862.0
862.0
858.0
859.0
859.0
862.0
864.0
867.0
864.0
866.0
864.0
863.0
862.0
860.0
859.0
856.0
860.0
860.0
859.0
863.0
865.0
867.0
863.0
861.0
860.0
860.0
855.0
856.0
859.0
858.0
862.0
861.0
862.0
860.0
862.0
859.0
857.0
856.0
855.0
855.0
854.0
855.0
858.0
860.0
858.0
857.0
860.0
860.0
856.0
856.0
854.0
853.0
855.0
855.0
858.0
862.0
860.0
860.0
858.0
858.0
857.0
855.0
849.0
850.0
853.0
855.0
856.0
859.0
859.0
860.0
858.0
856.0
854.0
852.0
849.0
852.0
851.0
855.0
857.0
859.0
862.0
862.0
859.0
857.0
854.0
854.0
852.0
852.0
854.0
855.0
855.0
859.0
861.0
860.0
859.0
861.0
858.0
856.0
857.0
856.0
855.0
857.0
858.0
861.0
862.0
862.0
860.0
861.0
855.0
858.0
857.0
856.0
857.0
858.0
860.0
857.0
862.0
861.0
861.0
861.0
858.0
857.0
856.0
857.0
855.0
855.0
861.0
864.0
865.0
864.0
862.0
859.0
857.0
856.0
856.0
855.0
856.0
859.0
862.0
863.0
862.0
859.0
864.0
862.0
858.0
857.0
856.0
854.0
858.0
858.0
858.0
862.0
862.0
861.0
860.0
859.0
856.0
855.0
853.0
858.0
858.0
861.0
864.0
867.0
869.0
873.0
875.0
876.0
879.0
882.0
881.0
880.0
883.0
885.0
888.0
892.0
894.0
896.0
896.0
895.0
890.0
887.0
882.0
881.0
880.0
880.0
880.0
882.0
883.0
882.0
880.0
874.0
869.0
866.0
859.0
854.0
853.0
852.0
852.0
851.0
853.0
852.0
848.0
845.0
843.0
842.0
842.0
840.0
844.0
841.0
842.0
840.0
842.0
843.0
846.0
843.0
842.0
843.0
841.0
838.0
842.0
844.0
847.0
848.0
848.0
851.0
850.0
848.0
848.0
848.0
849.0
847.0
850.0
852.0
852.0
858.0
858.0
860.0
862.0
865.0
868.0
876.0
898.0
928.0
974.0
1026.0
1075.0
1127.0
1183.0
1233.0
1267.0
1262.0
1226.0
1151.0
1052.0
939.0
835.0
757.0
717.0
712.0
735.0
768.0
798.0
816.0
821.0
823.0
825.0
825.0
833.0
838.0
847.0
852.0
854.0
855.0
853.0
850.0
848.0
845.0
847.0
848.0
848.0
851.0
853.0
856.0
856.0
856.0
853.0
852.0
851.0
846.0
849.0
850.0
851.0
853.0
851.0
855.0
856.0
856.0
856.0
855.0
852.0
851.0
849.0
850.0
850.0
851.0
853.0
852.0
854.0
854.0
854.0
853.0
849.0
851.0
850.0
848.0
851.0
852.0
854.0
856.0
858.0
860.0
856.0
858.0
859.0
856.0
852.0
855.0
857.0
860.0
865.0
870.0
868.0
872.0
876.0
878.0
877.0
878.0
879.0
878.0
883.0
883.0
888.0
895.0
895.0
899.0
903.0
901.0
903.0
903.0
907.0
908.0
912.0
916.0
919.0
925.0
927.0
930.0
933.0
936.0
932.0
931.0
932.0
934.0
937.0
939.0
942.0
942.0
944.0
942.0
936.0
929.0
923.0
919.0
914.0
910.0
906.0
906.0
903.0
896.0
896.0
894.0
889.0
885.0
881.0
878.0
871.0
870.0
871.0
868.0
868.0
870.0
870.0
869.0
866.0
865.0
863.0
862.0
860.0
859.0
858.0
860.0
861.0
863.0
866.0
863.0
863.0
866.0
864.0
856.0
855.0
858.0
860.0
863.0
866.0
870.0
870.0
867.0
866.0
866.0
862.0
861.0
860.0
859.0
860.0
865.0
866.0
870.0
868.0
870.0
870.0
869.0
868.0
869.0
868.0
866.0
868.0
864.0
867.0
870.0
872.0
872.0
869.0
868.0
867.0
864.0
860.0
861.0
860.0
863.0
867.0
865.0
867.0
867.0
865.0
866.0
864.0
861.0
859.0
858.0
857.0
858.0
863.0
864.0
865.0
863.0
858.0
860.0
858.0
854.0
852.0
851.0
852.0
855.0
855.0
856.0
860.0
859.0
859.0
856.0
854.0
851.0
855.0
850.0
849.0
850.0
850.0
856.0
857.0
858.0
858.0
857.0
856.0
856.0
852.0
851.0
851.0
854.0
855.0
859.0
860.0
856.0
855.0
856.0
854.0
851.0
852.0
851.0
851.0
852.0
855.0
854.0
857.0
857.0
858.0
855.0
853.0
850.0
849.0
849.0
848.0
850.0
854.0
856.0
857.0
862.0
857.0
857.0
853.0
849.0
848.0
850.0
851.0
849.0
855.0
857.0
859.0
862.0
860.0
859.0
853.0
853.0
851.0
850.0
851.0
853.0
854.0
857.0
855.0
858.0
860.0
860.0
859.0
858.0
856.0
851.0
854.0
858.0
860.0
860.0
862.0
861.0
861.0
859.0
856.0
854.0
855.0
855.0
856.0
856.0
858.0
862.0
861.0
861.0
864.0
861.0
860.0
858.0
858.0
857.0
858.0
859.0
861.0
863.0
864.0
866.0
864.0
861.0
859.0
861.0
855.0
858.0
858.0
858.0
860.0
863.0
866.0
866.0
867.0
861.0
859.0
856.0
860.0
860.0
859.0
863.0
864.0
863.0
867.0
867.0
869.0
866.0
863.0
860.0
863.0
858.0
859.0
863.0
866.0
868.0
874.0
874.0
878.0
881.0
880.0
881.0
881.0
883.0
885.0
890.0
892.0
899.0
903.0
908.0
908.0
902.0
897.0
889.0
885.0
883.0
884.0
887.0
889.0
890.0
892.0
889.0
890.0
882.0
876.0
868.0
865.0
858.0
858.0
861.0
860.0
861.0
864.0
859.0
860.0
856.0
855.0
854.0
850.0
850.0
850.0
851.0
854.0
854.0
850.0
854.0
853.0
854.0
853.0
851.0
853.0
851.0
853.0
853.0
853.0
857.0
858.0
859.0
861.0
860.0
857.0
854.0
854.0
852.0
854.0
858.0
861.0
866.0
869.0
871.0
869.0
873.0
871.0
873.0
888.0
921.0
967.0
1019.0
1075.0
1139.0
1201.0
1254.0
1292.0
1295.0
1259.0
1188.0
1088.0
971.0
857.0
769.0
718.0
706.0
724.0
756.0
790.0
813.0
825.0
831.0
835.0
840.0
846.0
856.0
862.0
868.0
871.0
871.0
871.0
866.0
866.0
863.0
863.0
864.0
868.0
867.0
871.0
872.0
870.0
871.0
871.0
871.0
869.0
865.0
865.0
866.0
864.0
865.0
866.0
867.0
870.0
871.0
872.0
871.0
869.0
867.0
864.0
866.0
866.0
869.0
869.0
870.0
873.0
873.0
873.0
874.0
871.0
868.0
866.0
865.0
868.0
870.0
872.0
873.0
876.0
876.0
876.0
878.0
877.0
874.0
876.0
873.0
877.0
878.0
881.0
886.0
889.0
891.0
892.0
891.0
890.0
891.0
894.0
893.0
900.0
899.0
906.0
910.0
913.0
915.0
916.0
917.0
918.0
918.0
921.0
921.0
926.0
925.0
928.0
935.0
941.0
942.0
943.0
940.0
941.0
938.0
939.0
937.0
938.0
940.0
937.0
936.0
939.0
934.0
932.0
926.0
921.0
914.0
909.0
905.0
901.0
901.0
898.0
898.0
897.0
895.0
894.0
889.0
886.0
882.0
879.0
879.0
875.0
878.0
879.0
880.0
883.0
886.0
882.0
877.0
878.0
875.0
871.0
872.0
872.0
871.0
872.0
875.0
875.0
879.0
877.0
878.0
874.0
874.0
872.0
871.0
873.0
875.0
875.0
878.0
880.0
882.0
880.0
878.0
875.0
878.0
873.0
873.0
876.0
878.0
881.0
884.0
884.0
886.0
887.0
884.0
882.0
879.0
880.0
882.0
880.0
880.0
882.0
884.0
884.0
885.0
884.0
883.0
881.0
877.0
876.0
874.0
875.0
874.0
875.0
878.0
880.0
880.0
877.0
877.0
873.0
872.0
870.0
870.0
867.0
869.0
868.0
870.0
869.0
872.0
873.0
871.0
871.0
866.0
864.0
863.0
867.0
866.0
868.0
870.0
869.0
870.0
870.0
868.0
867.0
867.0
865.0
864.0
861.0
863.0
866.0
867.0
866.0
867.0
867.0
866.0
862.0
862.0
862.0
860.0
859.0
861.0
861.0
864.0
866.0
865.0
863.0
863.0
859.0
857.0
858.0
853.0
854.0
861.0
857.0
859.0
860.0
864.0
863.0
863.0
861.0
859.0
853.0
855.0
857.0
857.0
858.0
861.0
865.0
864.0
864.0
864.0
860.0
859.0
856.0
855.0
857.0
856.0
859.0
860.0
861.0
864.0
863.0
862.0
863.0
860.0
858.0
856.0
857.0
860.0
861.0
865.0
865.0
865.0
864.0
864.0
861.0
862.0
860.0
861.0
859.0
858.0
860.0
861.0
867.0
865.0
864.0
865.0
863.0
859.0
861.0
858.0
858.0
856.0
859.0
861.0
866.0
864.0
866.0
862.0
863.0
861.0
860.0
856.0
857.0
860.0
862.0
865.0
866.0
865.0
866.0
864.0
862.0
859.0
858.0
858.0
859.0
860.0
862.0
864.0
865.0
864.0
865.0
865.0
862.0
859.0
860.0
856.0
857.0
857.0
860.0
864.0
863.0
863.0
863.0
863.0
862.0
859.0
858.0
856.0
857.0
857.0
859.0
861.0
865.0
865.0
864.0
863.0
860.0
861.0
861.0
862.0
859.0
863.0
862.0
866.0
869.0
868.0
875.0
871.0
873.0
876.0
878.0
879.0
879.0
883.0
885.0
889.0
890.0
894.0
893.0
894.0
897.0
891.0
894.0
889.0
884.0
883.0
884.0
884.0
889.0
888.0
887.0
885.0
883.0
878.0
872.0
868.0
864.0
861.0
858.0
859.0
857.0
857.0
857.0
853.0
851.0
846.0
847.0
849.0
847.0
848.0
849.0
851.0
851.0
849.0
851.0
849.0
850.0
850.0
849.0
847.0
848.0
849.0
850.0
853.0
853.0
853.0
855.0
856.0
854.0
851.0
851.0
849.0
849.0
852.0
852.0
858.0
860.0
863.0
863.0
862.0
867.0
868.0
871.0
877.0
894.0
920.0
965.0
1018.0
1071.0
1127.0
1182.0
1237.0
1274.0
1289.0
1272.0
1214.0
1125.0
1017.0
907.0
808.0
746.0
723.0
736.0
771.0
809.0
834.0
845.0
845.0
842.0
842.0
846.0
853.0
859.0
861.0
863.0
862.0
858.0
856.0
854.0
853.0
854.0
856.0
859.0
859.0
858.0
859.0
860.0
860.0
857.0
856.0
855.0
853.0
853.0
853.0
856.0
857.0
859.0
859.0
860.0
857.0
854.0
853.0
852.0
852.0
852.0
856.0
858.0
860.0
862.0
863.0
861.0
863.0
861.0
858.0
858.0
852.0
853.0
855.0
861.0
862.0
865.0
865.0
865.0
865.0
865.0
867.0
864.0
864.0
865.0
863.0
868.0
869.0
873.0
875.0
878.0
880.0
875.0
878.0
878.0
878.0
879.0
883.0
888.0
891.0
895.0
898.0
904.0
903.0
906.0
905.0
907.0
907.0
913.0
914.0
919.0
922.0
927.0
928.0
934.0
929.0
929.0
933.0
933.0
933.0
934.0
939.0
941.0
943.0
947.0
942.0
941.0
939.0
934.0
929.0
924.0
923.0
919.0
914.0
912.0
912.0
906.0
905.0
902.0
896.0
892.0
887.0
880.0
878.0
875.0
872.0
872.0
874.0
876.0
873.0
873.0
871.0
868.0
865.0
864.0
863.0
863.0
863.0
867.0
868.0
868.0
869.0
869.0
868.0
867.0
863.0
863.0
863.0
861.0
865.0
861.0
867.0
872.0
870.0
871.0
874.0
867.0
868.0
862.0
865.0
866.0
867.0
871.0
871.0
874.0
874.0
873.0
872.0
871.0
871.0
870.0
866.0
870.0
869.0
870.0
871.0
873.0
871.0
873.0
872.0
870.0
865.0
865.0
863.0
864.0
864.0
866.0
866.0
865.0
865.0
866.0
865.0
865.0
862.0
860.0
858.0
859.0
858.0
860.0
862.0
863.0
864.0
865.0
861.0
861.0
858.0
858.0
855.0
854.0
856.0
856.0
859.0
862.0
862.0
860.0
858.0
854.0
851.0
853.0
853.0
853.0
853.0
856.0
856.0
856.0
856.0
859.0
856.0
856.0
853.0
851.0
852.0
852.0
850.0
852.0
857.0
856.0
856.0
857.0
853.0
855.0
855.0
852.0
852.0
851.0
852.0
854.0
856.0
857.0
857.0
857.0
854.0
855.0
853.0
851.0
847.0
847.0
848.0
848.0
855.0
856.0
858.0
858.0
856.0
853.0
852.0
850.0
851.0
850.0
850.0
851.0
852.0
856.0
856.0
856.0
856.0
853.0
851.0
848.0
851.0
846.0
851.0
853.0
854.0
855.0
856.0
856.0
857.0
855.0
851.0
850.0
851.0
849.0
850.0
851.0
854.0
856.0
856.0
855.0
857.0
852.0
851.0
852.0
851.0
849.0
849.0
852.0
850.0
850.0
854.0
852.0
853.0
851.0
847.0
849.0
847.0
846.0
848.0
849.0
851.0
853.0
852.0
852.0
853.0
848.0
847.0
847.0
846.0
847.0
848.0
851.0
851.0
852.0
853.0
854.0
853.0
850.0
846.0
848.0
844.0
846.0
843.0
845.0
848.0
851.0
850.0
849.0
851.0
848.0
847.0
847.0
845.0
845.0
846.0
848.0
848.0
853.0
852.0
852.0
851.0
849.0
849.0
847.0
846.0
847.0
850.0
852.0
860.0
862.0
867.0
871.0
873.0
873.0
869.0
870.0
868.0
871.0
871.0
878.0
885.0
889.0
889.0
888.0
884.0
881.0
878.0
872.0
870.0
868.0
867.0
870.0
874.0
874.0
875.0
871.0
866.0
860.0
852.0
845.0
842.0
837.0
836.0
838.0
839.0
835.0
839.0
839.0
837.0
837.0
835.0
835.0
834.0
834.0
836.0
836.0
837.0
838.0
842.0
844.0
837.0
836.0
834.0
835.0
832.0
833.0
834.0
834.0
840.0
842.0
845.0
846.0
846.0
843.0
841.0
841.0
841.0
843.0
848.0
846.0
850.0
857.0
861.0
870.0
889.0
919.0
961.0
1005.0
1052.0
1105.0
1162.0
1213.0
1245.0
1248.0
1202.0
1128.0
1029.0
921.0
820.0
748.0
712.0
709.0
732.0
763.0
791.0
809.0
816.0
821.0
826.0
831.0
835.0
840.0
843.0
839.0
846.0
845.0
844.0
845.0
848.0
851.0
852.0
851.0
846.0
846.0
844.0
842.0
842.0
844.0
844.0
847.0
847.0
847.0
848.0
848.0
847.0
845.0
845.0
845.0
845.0
843.0
847.0
848.0
848.0
849.0
849.0
848.0
847.0
846.0
846.0
846.0
846.0
846.0
846.0
849.0
850.0
850.0
852.0
850.0
847.0
845.0
847.0
846.0
848.0
850.0
853.0
854.0
859.0
859.0
857.0
857.0
858.0
855.0
857.0
856.0
860.0
865.0
863.0
866.0
869.0
871.0
872.0
875.0
872.0
873.0
877.0
874.0
878.0
884.0
889.0
890.0
894.0
894.0
899.0
898.0
898.0
896.0
897.0
901.0
903.0
908.0
911.0
916.0
919.0
920.0
922.0
923.0
923.0
921.0
922.0
919.0
919.0
921.0
926.0
927.0
927.0
923.0
921.0
915.0
909.0
904.0
902.0
896.0
894.0
891.0
887.0
887.0
885.0
885.0
880.0
876.0
874.0
870.0
868.0
861.0
861.0
864.0
863.0
860.0
864.0
861.0
861.0
857.0
858.0
856.0
854.0
855.0
852.0
856.0
856.0
857.0
857.0
856.0
856.0
856.0
856.0
855.0
853.0
853.0
852.0
856.0
858.0
860.0
862.0
862.0
861.0
860.0
858.0
857.0
859.0
854.0
856.0
857.0
858.0
858.0
865.0
861.0
861.0
860.0
861.0
859.0
858.0
856.0
857.0
860.0
863.0
864.0
864.0
864.0
864.0
861.0
859.0
858.0
858.0
858.0
857.0
858.0
857.0
860.0
861.0
862.0
858.0
857.0
854.0
851.0
852.0
851.0
851.0
849.0
854.0
856.0
857.0
856.0
855.0
854.0
853.0
851.0
850.0
847.0
846.0
850.0
850.0
853.0
854.0
854.0
852.0
851.0
848.0
848.0
848.0
848.0
845.0
850.0
851.0
853.0
852.0
854.0
851.0
851.0
847.0
849.0
849.0
849.0
850.0
852.0
852.0
851.0
853.0
852.0
853.0
851.0
850.0
850.0
846.0
845.0
848.0
847.0
847.0
850.0
852.0
849.0
848.0
848.0
848.0
850.0
846.0
849.0
849.0
849.0
849.0
849.0
851.0
851.0
852.0
850.0
851.0
850.0
848.0
847.0
848.0
847.0
851.0
850.0
855.0
852.0
851.0
851.0
850.0
848.0
845.0
845.0
848.0
847.0
849.0
851.0
853.0
852.0
853.0
851.0
850.0
846.0
846.0
847.0
848.0
851.0
851.0
854.0
855.0
853.0
854.0
854.0
852.0
849.0
851.0
850.0
847.0
851.0
850.0
850.0
852.0
854.0
850.0
850.0
849.0
850.0
846.0
848.0
846.0
850.0
854.0
855.0
860.0
858.0
859.0
856.0
857.0
853.0
857.0
855.0
860.0
866.0
871.0
876.0
879.0
879.0
878.0
879.0
881.0
882.0
882.0
888.0
888.0
888.0
887.0
884.0
882.0
880.0
879.0
876.0
876.0
875.0
874.0
876.0
875.0
872.0
865.0
863.0
860.0
852.0
853.0
847.0
848.0
847.0
843.0
839.0
838.0
839.0
842.0
843.0
843.0
843.0
841.0
841.0
839.0
839.0
837.0
838.0
837.0
838.0
841.0
838.0
844.0
845.0
842.0
843.0
844.0
842.0
842.0
841.0
840.0
843.0
844.0
850.0
850.0
851.0
852.0
853.0
851.0
852.0
850.0
853.0
849.0
855.0
858.0
861.0
872.0
890.0
920.0
962.0
1008.0
1057.0
1106.0
1165.0
1220.0
1264.0
1278.0
1249.0
1180.0
1080.0
956.0
834.0
740.0
690.0
682.0
706.0
739.0
773.0
800.0
815.0
827.0
831.0
837.0
842.0
843.0
843.0
845.0
844.0
843.0
844.0
847.0
849.0
850.0
850.0
849.0
847.0
846.0
845.0
843.0
842.0
