# Simple Text Format
# Sampling Rate (Hz):= 360.00
# Resolution:= 12
# Labels:= ECG
894.0
893.0
895.0
896.0
897.0
892.0
884.0
878.0
869.0
864.0
859.0
856.0
853.0
853.0
854.0
854.0
855.0
855.0
854.0
852.0
851.0
846.0
846.0
846.0
847.0
847.0
845.0
847.0
850.0
853.0
849.0
847.0
850.0
846.0
847.0
847.0
847.0
846.0
847.0
849.0
850.0
852.0
850.0
852.0
852.0
851.0
849.0
848.0
848.0
849.0
852.0
857.0
860.0
864.0
865.0
869.0
870.0
872.0
873.0
889.0
919.0
964.0
1019.0
1074.0
1132.0
1191.0
1255.0
1301.0
1319.0
1296.0
1230.0
1127.0
999.0
871.0
752.0
686.0
675.0
697.0
735.0
776.0
802.0
820.0
830.0
834.0
839.0
843.0
848.0
853.0
853.0
858.0
857.0
854.0
852.0
854.0
852.0
853.0
853.0
854.0
854.0
857.0
861.0
861.0
861.0
860.0
861.0
858.0
856.0
854.0
857.0
857.0
859.0
862.0
865.0
866.0
866.0
864.0
862.0
861.0
860.0
856.0
855.0
855.0
859.0
861.0
864.0
866.0
865.0
866.0
864.0
864.0
863.0
862.0
864.0
865.0
866.0
870.0
871.0
871.0
875.0
876.0
874.0
871.0
869.0
867.0
869.0
870.0
874.0
877.0
884.0
884.0
885.0
887.0
890.0
889.0
891.0
893.0
896.0
897.0
898.0
906.0
912.0
916.0
920.0
924.0
928.0
930.0
931.0
934.0
937.0
941.0
945.0
949.0
953.0
959.0
958.0
959.0
958.0
961.0
964.0
963.0
963.0
961.0
961.0
960.0
959.0
957.0
953.0
947.0
941.0
934.0
930.0
922.0
919.0
911.0
911.0
907.0
902.0
899.0
895.0
891.0
887.0
885.0
882.0
878.0
874.0
872.0
873.0
872.0
872.0
875.0
874.0
875.0
873.0
868.0
867.0
864.0
864.0
864.0
865.0
869.0
866.0
869.0
869.0
868.0
866.0
863.0
861.0
862.0
860.0
862.0
863.0
864.0
867.0
867.0
867.0
865.0
866.0
864.0
860.0
859.0
859.0
861.0
864.0
866.0
870.0
872.0
869.0
872.0
872.0
867.0
870.0
865.0
866.0
869.0
870.0
868.0
871.0
876.0
877.0
875.0
875.0
874.0
874.0
871.0
870.0
871.0
870.0
873.0
874.0
875.0
873.0
875.0
871.0
868.0
866.0
866.0
865.0
865.0
866.0
866.0
871.0
872.0
870.0
869.0
867.0
865.0
860.0
858.0
858.0
859.0
861.0
862.0
867.0
865.0
868.0
864.0
860.0
860.0
858.0
858.0
858.0
860.0
860.0
864.0
863.0
863.0
863.0
862.0
859.0
857.0
856.0
857.0
853.0
856.0
856.0
858.0
857.0
859.0
856.0
858.0
859.0
853.0
853.0
854.0
854.0
854.0
853.0
856.0
858.0
860.0
859.0
860.0
855.0
853.0
853.0
850.0
851.0
852.0
853.0
852.0
852.0
854.0
852.0
849.0
853.0
849.0
849.0
851.0
850.0
854.0
853.0
855.0
857.0
857.0
857.0
857.0
854.0
850.0
852.0
852.0
853.0
852.0
851.0
854.0
855.0
857.0
857.0
855.0
855.0
853.0
851.0
850.0
852.0
852.0
852.0
857.0
859.0
858.0
857.0
860.0
856.0
856.0
853.0
852.0
851.0
854.0
853.0
851.0
854.0
858.0
858.0
855.0
855.0
853.0
851.0
846.0
849.0
850.0
854.0
854.0
855.0
858.0
859.0
859.0
856.0
853.0
852.0
853.0
852.0
851.0
854.0
853.0
859.0
860.0
856.0
859.0
857.0
854.0
855.0
855.0
854.0
854.0
855.0
856.0
855.0
860.0
863.0
859.0
860.0
856.0
855.0
855.0
854.0
854.0
857.0
859.0
861.0
861.0
863.0
859.0
860.0
856.0
854.0
856.0
855.0
854.0
852.0
856.0
861.0
863.0
861.0
860.0
859.0
860.0
858.0
857.0
856.0
854.0
859.0
860.0
861.0
864.0
866.0
865.0
865.0
865.0
865.0
868.0
870.0
877.0
880.0
882.0
882.0
885.0
886.0
887.0
890.0
890.0
892.0
896.0
896.0
896.0
898.0
896.0
896.0
894.0
892.0
894.0
888.0
885.0
882.0
880.0
880.0
880.0
879.0
878.0
875.0
874.0
868.0
864.0
856.0
851.0
848.0
847.0
844.0
845.0
841.0
841.0
843.0
841.0
847.0
845.0
843.0
844.0
840.0
839.0
835.0
836.0
842.0
845.0
846.0
847.0
849.0
848.0
847.0
846.0
845.0
843.0
842.0
841.0
845.0
846.0
850.0
852.0
851.0
850.0
852.0
852.0
851.0
851.0
854.0
856.0
862.0
864.0
874.0
886.0
907.0
944.0
990.0
1040.0
1092.0
1146.0
1203.0
1261.0
1305.0
1331.0
1319.0
1265.0
1169.0
1049.0
921.0
800.0
719.0
690.0
701.0
738.0
780.0
816.0
835.0
839.0
835.0
828.0
831.0
830.0
836.0
839.0
841.0
846.0
847.0
847.0
846.0
846.0
844.0
843.0
841.0
841.0
842.0
841.0
841.0
842.0
844.0
847.0
848.0
848.0
847.0
848.0
848.0
845.0
843.0
844.0
843.0
843.0
844.0
845.0
845.0
849.0
849.0
848.0
848.0
847.0
845.0
842.0
843.0
841.0
844.0
848.0
849.0
848.0
852.0
850.0
851.0
850.0
848.0
850.0
848.0
850.0
847.0
852.0
856.0
859.0
859.0
859.0
857.0
856.0
854.0
855.0
856.0
858.0
861.0
866.0
871.0
870.0
873.0
876.0
877.0
878.0
878.0
881.0
881.0
883.0
888.0
894.0
899.0
902.0
905.0
911.0
913.0
915.0
916.0
921.0
921.0
925.0
929.0
935.0
941.0
944.0
947.0
950.0
952.0
953.0
954.0
952.0
952.0
951.0
956.0
955.0
953.0
953.0
949.0
945.0
939.0
932.0
928.0
921.0
917.0
916.0
909.0
906.0
902.0
897.0
894.0
889.0
887.0
881.0
875.0
871.0
869.0
867.0
864.0
867.0
868.0
868.0
869.0
866.0
864.0
860.0
858.0
857.0
858.0
858.0
859.0
858.0
862.0
861.0
864.0
862.0
862.0
859.0
856.0
853.0
855.0
855.0
856.0
857.0
860.0
861.0
860.0
863.0
859.0
860.0
855.0
854.0
851.0
853.0
857.0
858.0
860.0
865.0
863.0
865.0
864.0
860.0
859.0
858.0
858.0
858.0
858.0
859.0
861.0
862.0
864.0
865.0
863.0
858.0
855.0
855.0
854.0
858.0
858.0
861.0
862.0
860.0
860.0
861.0
863.0
857.0
859.0
858.0
856.0
855.0
858.0
859.0
859.0
861.0
860.0
859.0
857.0
856.0
853.0
852.0
852.0
851.0
854.0
854.0
854.0
857.0
856.0
855.0
855.0
854.0
849.0
850.0
849.0
849.0
847.0
852.0
852.0
856.0
856.0
854.0
854.0
849.0
849.0
848.0
848.0
846.0
848.0
847.0
850.0
850.0
851.0
852.0
848.0
846.0
845.0
846.0
845.0
842.0
844.0
845.0
850.0
852.0
851.0
850.0
850.0
847.0
845.0
844.0
841.0
844.0
841.0
844.0
849.0
848.0
850.0
851.0
846.0
844.0
842.0
842.0
843.0
839.0
842.0
844.0
850.0
850.0
849.0
849.0
847.0
843.0
842.0
843.0
842.0
842.0
845.0
846.0
846.0
847.0
850.0
850.0
849.0
847.0
843.0
841.0
845.0
842.0
844.0
846.0
848.0
850.0
847.0
848.0
848.0
845.0
846.0
840.0
841.0
844.0
845.0
848.0
848.0
853.0
852.0
851.0
851.0
847.0
847.0
845.0
841.0
842.0
843.0
848.0
848.0
850.0
851.0
852.0
846.0
847.0
846.0
846.0
846.0
847.0
848.0
849.0
852.0
852.0
850.0
853.0
850.0
848.0
847.0
845.0
847.0
848.0
850.0
849.0
850.0
851.0
854.0
853.0
853.0
849.0
849.0
850.0
847.0
849.0
846.0
850.0
850.0
850.0
850.0
850.0
854.0
852.0
848.0
849.0
846.0
845.0
846.0
849.0
853.0
858.0
860.0
863.0
864.0
865.0
866.0
866.0
870.0
871.0
873.0
876.0
876.0
879.0
881.0
889.0
894.0
898.0
899.0
899.0
896.0
892.0
890.0
887.0
886.0
888.0
886.0
884.0
882.0
880.0
877.0
873.0
867.0
859.0
854.0
853.0
849.0
850.0
845.0
848.0
845.0
843.0
841.0
839.0
836.0
836.0
839.0
841.0
844.0
847.0
844.0
840.0
841.0
840.0
838.0
836.0
838.0
838.0
841.0
843.0
843.0
846.0
847.0
843.0
844.0
844.0
843.0
844.0
841.0
845.0
843.0
846.0
849.0
853.0
856.0
857.0
857.0
858.0
858.0
856.0
860.0
869.0
888.0
922.0
967.0
1021.0
1075.0
1131.0
1193.0
1248.0
1283.0
1285.0
1250.0
1175.0
1074.0
959.0
849.0
760.0
707.0
701.0
714.0
749.0
777.0
798.0
812.0
814.0
820.0
827.0
833.0
845.0
852.0
854.0
854.0
851.0
846.0
843.0
844.0
845.0
845.0
848.0
848.0
853.0
855.0
856.0
854.0
852.0
849.0
847.0
846.0
848.0
848.0
849.0
853.0
854.0
854.0
853.0
850.0
847.0
844.0
848.0
847.0
848.0
846.0
849.0
852.0
858.0
859.0
860.0
858.0
857.0
853.0
854.0
849.0
852.0
855.0
857.0
856.0
859.0
860.0
860.0
861.0
859.0
857.0
852.0
861.0
860.0
862.0
864.0
870.0
874.0
875.0
877.0
878.0
876.0
879.0
878.0
880.0
883.0
885.0
889.0
896.0
904.0
905.0
909.0
908.0
907.0
910.0
913.0
916.0
919.0
923.0
927.0
935.0
938.0
942.0
945.0
944.0
948.0
948.0
948.0
952.0
955.0
956.0
959.0
957.0
958.0
961.0
955.0
954.0
947.0
946.0
941.0
938.0
931.0
929.0
925.0
922.0
923.0
917.0
909.0
905.0
902.0
892.0
888.0
881.0
880.0
880.0
876.0
874.0
873.0
873.0
877.0
877.0
874.0
870.0
865.0
865.0
864.0
868.0
866.0
867.0
867.0
866.0
869.0
868.0
869.0
866.0
862.0
861.0
860.0
863.0
865.0
867.0
869.0
866.0
869.0
867.0
865.0
861.0
865.0
862.0
861.0
864.0
866.0
867.0
873.0
873.0
871.0
873.0
869.0
868.0
867.0
866.0
866.0
866.0
869.0
876.0
879.0
880.0
881.0
879.0
878.0
873.0
871.0
872.0
872.0
877.0
874.0
879.0
879.0
878.0
879.0
882.0
877.0
877.0
875.0
876.0
870.0
874.0
873.0
875.0
875.0
873.0
874.0
873.0
871.0
872.0
871.0
870.0
868.0
870.0
870.0
871.0
872.0
873.0
871.0
868.0
868.0
866.0
867.0
867.0
865.0
865.0
867.0
867.0
869.0
869.0
868.0
867.0
866.0
864.0
862.0
862.0
861.0
864.0
865.0
864.0
865.0
867.0
870.0
868.0
867.0
863.0
862.0
861.0
860.0
858.0
864.0
864.0
866.0
866.0
865.0
864.0
860.0
860.0
855.0
857.0
858.0
862.0
864.0
864.0
867.0
868.0
867.0
865.0
864.0
862.0
860.0
863.0
864.0
863.0
863.0
864.0
867.0
866.0
868.0
866.0
863.0
863.0
863.0
861.0
859.0
859.0
861.0
865.0
864.0
865.0
866.0
867.0
865.0
862.0
862.0
859.0
862.0
863.0
863.0
866.0
868.0
870.0
867.0
868.0
866.0
867.0
866.0
865.0
864.0
864.0
865.0
866.0
868.0
867.0
868.0
869.0
868.0
867.0
866.0
861.0
861.0
866.0
865.0
869.0
871.0
871.0
872.0
868.0
866.0
864.0
866.0
865.0
864.0
864.0
863.0
868.0
872.0
873.0
877.0
877.0
871.0
869.0
874.0
873.0
876.0
878.0
884.0
887.0
892.0
894.0
891.0
893.0
892.0
896.0
900.0
903.0
910.0
915.0
915.0
917.0
915.0
914.0
914.0
908.0
906.0
902.0
902.0
901.0
899.0
896.0
898.0
899.0
891.0
886.0
881.0
873.0
867.0
866.0
863.0
861.0
861.0
856.0
857.0
859.0
857.0
860.0
858.0
857.0
857.0
858.0
857.0
855.0
855.0
856.0
857.0
856.0
861.0
862.0
860.0
861.0
858.0
857.0
856.0
855.0
854.0
852.0
857.0
857.0
862.0
863.0
862.0
862.0
862.0
863.0
862.0
861.0
859.0
861.0
865.0
871.0
871.0
877.0
879.0
880.0
883.0
891.0
908.0
939.0
984.0
1033.0
1088.0
1139.0
1195.0
1252.0
1297.0
1319.0
1306.0
1259.0
1178.0
1072.0
952.0
836.0
749.0
699.0
693.0
713.0
752.0
784.0
807.0
816.0
821.0
821.0
826.0
834.0
840.0
853.0
862.0
864.0
868.0
863.0
858.0
858.0
850.0
852.0
855.0
856.0
858.0
862.0
865.0
866.0
868.0
868.0
867.0
865.0
860.0
860.0
861.0
860.0
860.0
864.0
864.0
868.0
868.0
865.0
863.0
862.0
860.0
862.0
860.0
862.0
861.0
864.0
866.0
868.0
863.0
864.0
863.0
862.0
860.0
863.0
863.0
860.0
861.0
866.0
865.0
868.0
869.0
871.0
869.0
865.0
864.0
865.0
863.0
866.0
869.0
873.0
876.0
875.0
879.0
883.0
883.0
881.0
883.0
883.0
887.0
887.0
891.0
896.0
896.0
898.0
902.0
905.0
907.0
909.0
910.0
911.0
913.0
918.0
921.0
927.0
933.0
936.0
938.0
942.0
942.0
945.0
946.0
947.0
949.0
952.0
956.0
959.0
963.0
966.0
967.0
966.0
962.0
962.0
956.0
955.0
951.0
950.0
946.0
945.0
941.0
937.0
935.0
928.0
920.0
912.0
906.0
903.0
897.0
894.0
888.0
889.0
887.0
887.0
883.0
883.0
877.0
876.0
876.0
873.0
870.0
870.0
868.0
871.0
874.0
872.0
873.0
875.0
869.0
865.0
864.0
863.0
860.0
861.0
860.0
863.0
864.0
868.0
867.0
869.0
867.0
860.0
861.0
862.0
860.0
861.0
866.0
866.0
868.0
870.0
870.0
871.0
870.0
867.0
865.0
864.0
865.0
865.0
864.0
867.0
871.0
875.0
874.0
872.0
871.0
872.0
872.0
871.0
870.0
872.0
875.0
877.0
877.0
878.0
878.0
878.0
876.0
874.0
872.0
874.0
873.0
873.0
872.0
877.0
874.0
876.0
875.0
877.0
874.0
871.0
871.0
866.0
864.0
866.0
868.0
870.0
870.0
872.0
873.0
870.0
867.0
864.0
862.0
861.0
859.0
859.0
863.0
866.0
863.0
864.0
864.0
866.0
866.0
862.0
861.0
858.0
860.0
858.0
859.0
860.0
865.0
866.0
865.0
865.0
865.0
859.0
858.0
857.0
856.0
856.0
856.0
861.0
860.0
861.0
861.0
859.0
860.0
857.0
857.0
856.0
853.0
855.0
856.0
857.0
860.0
860.0
860.0
858.0
857.0
856.0
853.0
853.0
852.0
851.0
855.0
858.0
858.0
857.0
859.0
859.0
856.0
854.0
856.0
851.0
851.0
853.0
853.0
853.0
854.0
859.0
858.0
859.0
854.0
852.0
851.0
851.0
850.0
849.0
854.0
854.0
852.0
856.0
858.0
856.0
855.0
852.0
851.0
850.0
851.0
849.0
852.0
854.0
856.0
858.0
857.0
856.0
851.0
851.0
847.0
851.0
849.0
853.0
853.0
853.0
852.0
857.0
857.0
857.0
856.0
854.0
850.0
850.0
851.0
850.0
853.0
856.0
854.0
859.0
858.0
860.0
857.0
856.0
853.0
852.0
853.0
854.0
852.0
854.0
857.0
860.0
859.0
857.0
851.0
853.0
848.0
847.0
848.0
848.0
851.0
852.0
853.0
857.0
857.0
858.0
854.0
854.0
852.0
850.0
850.0
850.0
850.0
855.0
856.0
856.0
859.0
855.0
855.0
850.0
848.0
850.0
850.0
850.0
853.0
853.0
854.0
858.0
856.0
856.0
852.0
853.0
852.0
853.0
851.0
851.0
853.0
852.0
853.0
857.0
856.0
856.0
857.0
856.0
853.0
852.0
851.0
854.0
850.0
853.0
857.0
856.0
858.0
858.0
855.0
854.0
854.0
851.0
849.0
850.0
853.0
854.0
857.0
858.0
860.0
861.0
862.0
861.0
861.0
860.0
864.0
865.0
872.0
878.0
880.0
884.0
885.0
884.0
883.0
884.0
885.0
888.0
892.0
899.0
900.0
899.0
897.0
896.0
891.0
890.0
887.0
883.0
883.0
883.0
878.0
879.0
877.0
878.0
874.0
874.0
867.0
861.0
855.0
847.0
846.0
838.0
842.0
837.0
838.0
842.0
842.0
843.0
843.0
844.0
842.0
841.0
842.0
836.0
835.0
836.0
838.0
842.0
845.0
846.0
845.0
847.0
846.0
843.0
841.0
838.0
841.0
840.0
841.0
843.0
846.0
849.0
847.0
848.0
848.0
848.0
846.0
848.0
847.0
850.0
851.0
862.0
870.0
883.0
911.0
952.0
1003.0
1060.0
1122.0
1183.0
1248.0
1298.0
1320.0
1296.0
1236.0
1136.0
1008.0
880.0
770.0
703.0
689.0
711.0
754.0
798.0
824.0
835.0
835.0
833.0
829.0
828.0
834.0
836.0
841.0
844.0
846.0
841.0
843.0
844.0
845.0
845.0
845.0
846.0
845.0
843.0
844.0
840.0
840.0
841.0
843.0
843.0
845.0
847.0
848.0
849.0
847.0
842.0
840.0
839.0
839.0
839.0
843.0
843.0
849.0
852.0
850.0
849.0
848.0
846.0
844.0
843.0
839.0
840.0
843.0
843.0
846.0
850.0
851.0
849.0
844.0
844.0
842.0
844.0
845.0
845.0
847.0
851.0
855.0
856.0
858.0
858.0
855.0
857.0
858.0
858.0
860.0
860.0
863.0
866.0
871.0
874.0
876.0
879.0
881.0
880.0
882.0
882.0
888.0
887.0
893.0
899.0
903.0
909.0
913.0
915.0
917.0
918.0
920.0
923.0
925.0
929.0
932.0
936.0
940.0
947.0
948.0
953.0
953.0
951.0
950.0
948.0
947.0
945.0
943.0
945.0
940.0
938.0
935.0
932.0
928.0
919.0
912.0
907.0
903.0
899.0
892.0
888.0
885.0
885.0
881.0
877.0
875.0
870.0
864.0
861.0
858.0
853.0
855.0
857.0
856.0
859.0
861.0
858.0
853.0
853.0
850.0
848.0
847.0
847.0
850.0
852.0
850.0
854.0
855.0
856.0
854.0
854.0
849.0
850.0
851.0
849.0
851.0
851.0
853.0
854.0
855.0
854.0
856.0
847.0
850.0
849.0
849.0
847.0
850.0
852.0
852.0
856.0
854.0
855.0
855.0
853.0
851.0
851.0
851.0
849.0
851.0
853.0
851.0
856.0
858.0
856.0
854.0
850.0
850.0
847.0
848.0
847.0
848.0
852.0
850.0
851.0
851.0
850.0
851.0
848.0
847.0
846.0
841.0
841.0
841.0
841.0
843.0
845.0
848.0
845.0
843.0
839.0
836.0
839.0
837.0
836.0
836.0
838.0
841.0
842.0
841.0
840.0
841.0
837.0
836.0
835.0
836.0
836.0
834.0
835.0
839.0
842.0
842.0
842.0
842.0
836.0
835.0
833.0
830.0
830.0
831.0
831.0
834.0
837.0
841.0
841.0
840.0
838.0
832.0
831.0
832.0
831.0
831.0
836.0
837.0
839.0
841.0
839.0
838.0
834.0
835.0
833.0
835.0
829.0
834.0
834.0
838.0
838.0
835.0
839.0
836.0
835.0
835.0
831.0
830.0
831.0
832.0
832.0
833.0
836.0
838.0
839.0
837.0
835.0
833.0
834.0
832.0
831.0
834.0
837.0
839.0
840.0
841.0
839.0
838.0
837.0
834.0
836.0
833.0
834.0
832.0
835.0
838.0
841.0
841.0
839.0
838.0
834.0
829.0
832.0
827.0
832.0
832.0
833.0
838.0
839.0
840.0
842.0
838.0
837.0
834.0
836.0
833.0
831.0
834.0
837.0
833.0
836.0
837.0
835.0
837.0
835.0
835.0
833.0
830.0
834.0
834.0
838.0
839.0
839.0
839.0
840.0
842.0
835.0
830.0
836.0
832.0
834.0
836.0
836.0
838.0
838.0
838.0
836.0
836.0
835.0
834.0
833.0
833.0
832.0
833.0
834.0
838.0
840.0
837.0
840.0
842.0
839.0
838.0
835.0
835.0
834.0
832.0
838.0
843.0
847.0
849.0
853.0
854.0
857.0
857.0
856.0
857.0
857.0
860.0
863.0
866.0
871.0
874.0
882.0
884.0
883.0
883.0
880.0
872.0
873.0
876.0
872.0
871.0
871.0
869.0
871.0
868.0
865.0
860.0
855.0
849.0
849.0
840.0
835.0
838.0
834.0
831.0
831.0
829.0
827.0
823.0
823.0
823.0
822.0
821.0
821.0
825.0
822.0
824.0
824.0
822.0
822.0
821.0
821.0
819.0
821.0
821.0
823.0
824.0
825.0
824.0
825.0
826.0
824.0
822.0
825.0
823.0
823.0
821.0
825.0
825.0
828.0
830.0
835.0
835.0
835.0
836.0
837.0
836.0
840.0
841.0
854.0
874.0
906.0
955.0
1006.0
1056.0
1109.0
1163.0
1218.0
1252.0
1264.0
1234.0
1170.0
1078.0
966.0
857.0
763.0
699.0
680.0
691.0
721.0
749.0
775.0
787.0
794.0
794.0
802.0
809.0
814.0
824.0
830.0
831.0
832.0
830.0
824.0
823.0
822.0
823.0
827.0
830.0
830.0
834.0
832.0
831.0
828.0
828.0
830.0
829.0
828.0
832.0
835.0
834.0
834.0
834.0
832.0
829.0
830.0
827.0
828.0
829.0
830.0
831.0
834.0
837.0
836.0
835.0
835.0
831.0
833.0
832.0
830.0
834.0
834.0
836.0
838.0
841.0
842.0
841.0
842.0
840.0
836.0
838.0
838.0
838.0
841.0
843.0
843.0
847.0
851.0
852.0
852.0
849.0
849.0
849.0
849.0
851.0
855.0
858.0
864.0
865.0
870.0
875.0
877.0
879.0
877.0
880.0
882.0
885.0
890.0
896.0
904.0
909.0
911.0
912.0
916.0
916.0
915.0
921.0
920.0
926.0
926.0
930.0
935.0
936.0
936.0
937.0
936.0
931.0
928.0
924.0
921.0
919.0
916.0
913.0
911.0
907.0
902.0
900.0
892.0
886.0
880.0
877.0
869.0
865.0
863.0
857.0
859.0
860.0
854.0
855.0
851.0
849.0
845.0
841.0
842.0
843.0
845.0
845.0
850.0
850.0
847.0
845.0
843.0
839.0
838.0
839.0
839.0
838.0
839.0
841.0
843.0
842.0
844.0
843.0
843.0
839.0
840.0
837.0
834.0
835.0
837.0
842.0
844.0
846.0
847.0
849.0
845.0
844.0
840.0
840.0
841.0
841.0
845.0
849.0
851.0
851.0
853.0
853.0
851.0
847.0
847.0
847.0
844.0
845.0
848.0
848.0
851.0
851.0
851.0
848.0
847.0
848.0
846.0
845.0
845.0
845.0
848.0
849.0
847.0
848.0
850.0
852.0
849.0
846.0
845.0
842.0
842.0
843.0
842.0
844.0
846.0
847.0
847.0
845.0
843.0
840.0
840.0
841.0
839.0
838.0
838.0
839.0
842.0
841.0
841.0
842.0
839.0
838.0
836.0
835.0
838.0
840.0
839.0
838.0
842.0
840.0
843.0
840.0
837.0
834.0
834.0
834.0
834.0
835.0
836.0
839.0
839.0
841.0
837.0
840.0
839.0
836.0
836.0
835.0
832.0
835.0
833.0
836.0
839.0
840.0
840.0
839.0
837.0
834.0
832.0
832.0
833.0
835.0
835.0
839.0
840.0
841.0
840.0
842.0
839.0
836.0
835.0
834.0
835.0
834.0
834.0
836.0
837.0
840.0
838.0
839.0
834.0
833.0
831.0
832.0
835.0
835.0
838.0
838.0
840.0
843.0
840.0
840.0
838.0
838.0
835.0
834.0
833.0
833.0
835.0
837.0
839.0
841.0
842.0
843.0
840.0
838.0
837.0
838.0
837.0
837.0
837.0
837.0
842.0
843.0
844.0
840.0
841.0
840.0
839.0
839.0
837.0
837.0
836.0
841.0
839.0
843.0
844.0
842.0
843.0
841.0
842.0
837.0
838.0
846.0
848.0
852.0
854.0
858.0
864.0
863.0
863.0
863.0
861.0
863.0
867.0
873.0
879.0
885.0
886.0
885.0
887.0
884.0
879.0
876.0
873.0
870.0
872.0
873.0
873.0
874.0
870.0
866.0
858.0
851.0
842.0
838.0
836.0
834.0
833.0
833.0
832.0
832.0
830.0
831.0
832.0
832.0
831.0
827.0
827.0
826.0
823.0
825.0
825.0
827.0
826.0
830.0
826.0
828.0
827.0
827.0
826.0
824.0
825.0
829.0
831.0
832.0
834.0
834.0
837.0
833.0
837.0
833.0
830.0
832.0
834.0
834.0
840.0
840.0
844.0
849.0
850.0
853.0
861.0
873.0
906.0
950.0
1005.0
1062.0
1122.0
1188.0
1245.0
1285.0
1289.0
1249.0
1165.0
1055.0
927.0
799.0
708.0
659.0
655.0
679.0
718.0
757.0
780.0
796.0
802.0
803.0
809.0
811.0
820.0
823.0
830.0
834.0
835.0
835.0
834.0
836.0
834.0
831.0
829.0
829.0
829.0
830.0
830.0
835.0
836.0
838.0
838.0
838.0
835.0
833.0
833.0
832.0
829.0
829.0
834.0
832.0
834.0
839.0
840.0
837.0
837.0
835.0
833.0
829.0
830.0
833.0
834.0
836.0
836.0
839.0
837.0
839.0
839.0
836.0
835.0
833.0
834.0
837.0
838.0
841.0
844.0
847.0
846.0
847.0
848.0
846.0
845.0
847.0
848.0
848.0
852.0
854.0
856.0
862.0
862.0
866.0
866.0
866.0
867.0
870.0
870.0
877.0
881.0
882.0
886.0
891.0
893.0
896.0
902.0
901.0
900.0
897.0
905.0
908.0
912.0
919.0
921.0
925.0
927.0
929.0
931.0
930.0
930.0
923.0
929.0
928.0
930.0
929.0
926.0
928.0
925.0
922.0
917.0
913.0
904.0
899.0
894.0
892.0
888.0
884.0
882.0
879.0
874.0
870.0
868.0
865.0
860.0
858.0
855.0
853.0
851.0
853.0
852.0
852.0
851.0
852.0
852.0
842.0
842.0
839.0
841.0
841.0
844.0
845.0
848.0
851.0
849.0
849.0
846.0
844.0
841.0
841.0
840.0
840.0
844.0
845.0
846.0
850.0
848.0
850.0
848.0
845.0
843.0
839.0
840.0
844.0
845.0
846.0
849.0
853.0
851.0
852.0
851.0
848.0
847.0
846.0
850.0
848.0
849.0
852.0
854.0
855.0
854.0
856.0
854.0
854.0
851.0
849.0
847.0
847.0
851.0
854.0
854.0
853.0
852.0
851.0
848.0
847.0
846.0
845.0
841.0
844.0
846.0
847.0
848.0
849.0
850.0
851.0
847.0
846.0
846.0
843.0
841.0
841.0
842.0
842.0
846.0
846.0
846.0
845.0
845.0
842.0
839.0
837.0
836.0
835.0
838.0
839.0
838.0
838.0
838.0
839.0
840.0
837.0
834.0
835.0
835.0
832.0
835.0
836.0
833.0
836.0
836.0
834.0
833.0
831.0
831.0
829.0
829.0
830.0
826.0
829.0
830.0
834.0
835.0
836.0
836.0
833.0
831.0
829.0
828.0
828.0
829.0
831.0
831.0
833.0
834.0
833.0
830.0
832.0
829.0
827.0
829.0
826.0
829.0
831.0
833.0
834.0
831.0
834.0
835.0
831.0
829.0
828.0
825.0
827.0
824.0
828.0
832.0
835.0
837.0
834.0
834.0
831.0
831.0
830.0
829.0
831.0
831.0
833.0
835.0
837.0
837.0
836.0
836.0
832.0
830.0
832.0
832.0
831.0
833.0
833.0
835.0
836.0
838.0
838.0
833.0
832.0
830.0
829.0
828.0
825.0
830.0
835.0
837.0
836.0
836.0
837.0
836.0
835.0
832.0
833.0
830.0
830.0
834.0
835.0
838.0
837.0
838.0
834.0
832.0
832.0
832.0
833.0
831.0
832.0
833.0
835.0
836.0
838.0
836.0
839.0
838.0
838.0
834.0
830.0
831.0
830.0
831.0
832.0
835.0
837.0
839.0
839.0
836.0
834.0
833.0
833.0
833.0
832.0
834.0
836.0
838.0
841.0
838.0
839.0
844.0
842.0
841.0
843.0
843.0
845.0
850.0
856.0
860.0
864.0
866.0
862.0
866.0
867.0
868.0
872.0
873.0
875.0
880.0
882.0
881.0
880.0
879.0
877.0
874.0
867.0
869.0
865.0
861.0
862.0
857.0
854.0
856.0
860.0
854.0
847.0
841.0
836.0
830.0
828.0
826.0
826.0
822.0
821.0
823.0
825.0
826.0
826.0
825.0
820.0
821.0
818.0
819.0
819.0
819.0
821.0
824.0
825.0
825.0
824.0
824.0
823.0
822.0
819.0
819.0
821.0
824.0
826.0
826.0
825.0
826.0
825.0
829.0
830.0
828.0
829.0
827.0
828.0
832.0
836.0
839.0
844.0
848.0
852.0
861.0
875.0
899.0
942.0
992.0
1040.0
1099.0
1154.0
1213.0
1262.0
1289.0
1284.0
1240.0
1162.0
1053.0
931.0
810.0
723.0
678.0
683.0
714.0
763.0
800.0
821.0
828.0
822.0
813.0
809.0
812.0
815.0
820.0
826.0
830.0
833.0
831.0
830.0
830.0
826.0
826.0
823.0
822.0
824.0
826.0
830.0
829.0
831.0
833.0
831.0
830.0
829.0
826.0
826.0
825.0
821.0
824.0
825.0
828.0
828.0
830.0
831.0
830.0
829.0
826.0
827.0
824.0
826.0
828.0
830.0
831.0
832.0
833.0
836.0
836.0
835.0
831.0
831.0
831.0
832.0
835.0
836.0
835.0
836.0
840.0
840.0
840.0
840.0
837.0
841.0
840.0
840.0
841.0
844.0
851.0
854.0
855.0
856.0
855.0
856.0
855.0
859.0
858.0
860.0
867.0
867.0
874.0
879.0
880.0
883.0
886.0
889.0
889.0
892.0
892.0
896.0
900.0
908.0
911.0
914.0
915.0
920.0
923.0
923.0
924.0
928.0
926.0
927.0
932.0
932.0
935.0
936.0
934.0
934.0
929.0
927.0
920.0
915.0
909.0
903.0
899.0
898.0
897.0
892.0
888.0
884.0
876.0
866.0
862.0
860.0
854.0
854.0
851.0
853.0
851.0
853.0
850.0
850.0
845.0
843.0
843.0
839.0
837.0
836.0
842.0
841.0
841.0
843.0
843.0
845.0
841.0
838.0
838.0
835.0
834.0
834.0
834.0
837.0
839.0
840.0
841.0
841.0
839.0
841.0
839.0
837.0
837.0
836.0
835.0
839.0
841.0
842.0
845.0
843.0
842.0
841.0
840.0
840.0
840.0
837.0
841.0
838.0
846.0
845.0
844.0
842.0
842.0
842.0
839.0
838.0
837.0
836.0
836.0
838.0
839.0
843.0
844.0
844.0
842.0
837.0
