# Simple Text Format
# Sampling Rate (Hz):= 360.00
# Resolution:= 12
# Labels:= ECG
880.0
880.0
878.0
878.0
880.0
880.0
884.0
885.0
890.0
894.0
900.0
901.0
905.0
907.0
904.0
904.0
907.0
911.0
913.0
916.0
919.0
924.0
929.0
930.0
932.0
933.0
934.0
932.0
934.0
934.0
934.0
940.0
943.0
943.0
947.0
948.0
947.0
942.0
941.0
937.0
933.0
930.0
926.0
923.0
922.0
920.0
917.0
917.0
911.0
907.0
899.0
897.0
893.0
887.0
886.0
882.0
880.0
878.0
878.0
877.0
877.0
875.0
873.0
869.0
867.0
867.0
866.0
866.0
869.0
868.0
871.0
871.0
867.0
868.0
865.0
864.0
863.0
861.0
863.0
862.0
865.0
867.0
869.0
868.0
868.0
870.0
867.0
867.0
865.0
864.0
862.0
863.0
867.0
869.0
870.0
871.0
873.0
873.0
870.0
868.0
869.0
866.0
867.0
869.0
871.0
873.0
869.0
871.0
875.0
872.0
871.0
871.0
867.0
870.0
869.0
869.0
869.0
875.0
875.0
876.0
877.0
874.0
872.0
868.0
868.0
868.0
869.0
866.0
865.0
872.0
870.0
873.0
872.0
872.0
869.0
866.0
864.0
862.0
862.0
862.0
863.0
866.0
867.0
868.0
869.0
866.0
866.0
863.0
861.0
854.0
856.0
861.0
861.0
862.0
864.0
864.0
862.0
859.0
857.0
856.0
854.0
857.0
853.0
855.0
853.0
859.0
858.0
862.0
862.0
860.0
859.0
855.0
855.0
852.0
852.0
853.0
857.0
858.0
859.0
858.0
859.0
860.0
859.0
857.0
856.0
854.0
851.0
856.0
855.0
859.0
859.0
859.0
859.0
859.0
856.0
855.0
850.0
853.0
853.0
850.0
854.0
855.0
861.0
859.0
856.0
858.0
857.0
856.0
854.0
854.0
849.0
851.0
853.0
856.0
859.0
858.0
860.0
858.0
858.0
855.0
851.0
852.0
852.0
854.0
855.0
858.0
860.0
859.0
859.0
860.0
857.0
852.0
853.0
853.0
854.0
853.0
854.0
855.0
854.0
854.0
860.0
857.0
856.0
855.0
851.0
850.0
852.0
852.0
856.0
857.0
858.0
859.0
859.0
854.0
853.0
854.0
854.0
851.0
852.0
852.0
853.0
855.0
860.0
860.0
859.0
861.0
856.0
853.0
853.0
851.0
853.0
853.0
854.0
856.0
859.0
863.0
861.0
859.0
857.0
858.0
856.0
856.0
855.0
855.0
856.0
856.0
860.0
862.0
860.0
861.0
859.0
859.0
855.0
853.0
854.0
852.0
856.0
858.0
861.0
858.0
862.0
861.0
858.0
858.0
856.0
854.0
854.0
856.0
858.0
864.0
865.0
870.0
875.0
877.0
880.0
879.0
879.0
876.0
875.0
877.0
884.0
889.0
896.0
898.0
901.0
898.0
896.0
894.0
888.0
888.0
886.0
885.0
885.0
888.0
887.0
888.0
883.0
880.0
874.0
867.0
865.0
857.0
853.0
853.0
851.0
852.0
850.0
852.0
848.0
852.0
847.0
847.0
844.0
844.0
844.0
844.0
845.0
846.0
848.0
850.0
851.0
851.0
848.0
846.0
843.0
844.0
843.0
846.0
846.0
850.0
850.0
851.0
850.0
851.0
850.0
849.0
850.0
849.0
849.0
849.0
855.0
857.0
860.0
863.0
867.0
870.0
868.0
869.0
871.0
882.0
901.0
934.0
976.0
1028.0
1079.0
1136.0
1188.0
1243.0
1277.0
1289.0
1259.0
1194.0
1098.0
991.0
876.0
789.0
737.0
725.0
746.0
780.0
813.0
833.0
844.0
842.0
838.0
835.0
836.0
842.0
849.0
857.0
860.0
860.0
859.0
855.0
853.0
849.0
849.0
847.0
852.0
855.0
857.0
861.0
859.0
859.0
857.0
856.0
855.0
852.0
854.0
853.0
855.0
856.0
858.0
860.0
859.0
856.0
857.0
857.0
854.0
853.0
852.0
853.0
856.0
857.0
858.0
860.0
859.0
860.0
858.0
855.0
855.0
852.0
855.0
854.0
858.0
860.0
861.0
863.0
863.0
861.0
861.0
864.0
861.0
862.0
862.0
864.0
866.0
870.0
872.0
869.0
876.0
876.0
876.0
875.0
875.0
875.0
877.0
881.0
883.0
887.0
890.0
894.0
899.0
901.0
899.0
903.0
904.0
905.0
909.0
911.0
916.0
921.0
924.0
930.0
936.0
937.0
941.0
941.0
939.0
943.0
942.0
944.0
948.0
953.0
955.0
956.0
954.0
955.0
953.0
946.0
944.0
941.0
937.0
933.0
929.0
927.0
925.0
921.0
916.0
910.0
904.0
898.0
894.0
888.0
886.0
883.0
878.0
880.0
878.0
880.0
879.0
876.0
874.0
871.0
867.0
867.0
863.0
863.0
864.0
868.0
869.0
869.0
871.0
867.0
864.0
865.0
861.0
860.0
861.0
861.0
861.0
863.0
866.0
865.0
866.0
867.0
864.0
862.0
860.0
862.0
859.0
861.0
863.0
867.0
867.0
868.0
871.0
870.0
868.0
865.0
864.0
863.0
861.0
862.0
867.0
868.0
868.0
869.0
869.0
871.0
870.0
868.0
864.0
863.0
864.0
859.0
863.0
866.0
869.0
873.0
872.0
873.0
871.0
866.0
865.0
858.0
858.0
859.0
859.0
864.0
865.0
866.0
864.0
866.0
862.0
858.0
859.0
856.0
859.0
858.0
857.0
859.0
861.0
863.0
865.0
863.0
862.0
860.0
856.0
856.0
855.0
853.0
855.0
854.0
857.0
859.0
857.0
858.0
859.0
856.0
851.0
851.0
850.0
848.0
849.0
849.0
850.0
853.0
855.0
856.0
856.0
851.0
849.0
848.0
848.0
847.0
850.0
850.0
849.0
850.0
850.0
853.0
851.0
850.0
847.0
845.0
847.0
845.0
850.0
848.0
852.0
853.0
854.0
852.0
851.0
848.0
843.0
847.0
844.0
845.0
846.0
849.0
851.0
852.0
852.0
849.0
850.0
849.0
846.0
845.0
844.0
845.0
847.0
850.0
849.0
851.0
854.0
852.0
851.0
849.0
849.0
847.0
846.0
847.0
846.0
849.0
851.0
853.0
855.0
854.0
848.0
847.0
845.0
846.0
845.0
844.0
849.0
847.0
852.0
853.0
855.0
851.0
852.0
851.0
848.0
845.0
848.0
847.0
849.0
848.0
852.0
855.0
854.0
854.0
852.0
848.0
847.0
847.0
845.0
845.0
850.0
851.0
851.0
852.0
855.0
853.0
852.0
849.0
849.0
848.0
846.0
848.0
847.0
851.0
852.0
854.0
854.0
855.0
853.0
847.0
848.0
847.0
847.0
850.0
851.0
849.0
853.0
854.0
853.0
852.0
852.0
851.0
847.0
846.0
845.0
847.0
849.0
854.0
851.0
855.0
857.0
855.0
854.0
850.0
849.0
849.0
848.0
849.0
851.0
853.0
856.0
862.0
860.0
864.0
865.0
869.0
868.0
869.0
871.0
869.0
871.0
877.0
881.0
885.0
889.0
891.0
895.0
891.0
889.0
890.0
887.0
885.0
882.0
878.0
881.0
885.0
883.0
885.0
881.0
875.0
875.0
868.0
862.0
858.0
854.0
853.0
851.0
851.0
851.0
849.0
848.0
842.0
841.0
838.0
834.0
835.0
838.0
841.0
841.0
842.0
843.0
842.0
839.0
838.0
836.0
837.0
836.0
838.0
836.0
842.0
840.0
841.0
846.0
847.0
845.0
845.0
842.0
843.0
841.0
844.0
844.0
847.0
851.0
852.0
852.0
855.0
855.0
856.0
856.0
854.0
856.0
865.0
870.0
891.0
921.0
963.0
1010.0
1052.0
1099.0
1145.0
1191.0
1233.0
1248.0
1228.0
1176.0
1098.0
997.0
899.0
808.0
750.0
718.0
716.0
737.0
765.0
791.0
801.0
811.0
814.0
816.0
822.0
828.0
838.0
842.0
845.0
849.0
846.0
843.0
844.0
842.0
842.0
843.0
849.0
852.0
851.0
848.0
850.0
849.0
845.0
844.0
842.0
841.0
848.0
852.0
854.0
853.0
853.0
853.0
846.0
847.0
844.0
845.0
845.0
849.0
852.0
852.0
851.0
852.0
854.0
854.0
853.0
853.0
851.0
848.0
846.0
849.0
854.0
852.0
855.0
858.0
856.0
857.0
851.0
850.0
847.0
849.0
850.0
851.0
858.0
862.0
864.0
866.0
864.0
865.0
864.0
863.0
865.0
863.0
867.0
865.0
869.0
874.0
878.0
880.0
884.0
885.0
882.0
884.0
883.0
889.0
891.0
893.0
898.0
902.0
907.0
911.0
914.0
916.0
917.0
918.0
916.0
917.0
920.0
923.0
927.0
933.0
938.0
939.0
939.0
940.0
941.0
940.0
941.0
933.0
935.0
935.0
936.0
938.0
938.0
935.0
928.0
923.0
917.0
914.0
909.0
905.0
902.0
897.0
898.0
897.0
896.0
893.0
886.0
882.0
877.0
874.0
872.0
869.0
868.0
864.0
867.0
867.0
867.0
867.0
864.0
863.0
862.0
857.0
858.0
857.0
854.0
855.0
858.0
859.0
862.0
860.0
864.0
861.0
859.0
858.0
854.0
856.0
854.0
856.0
859.0
861.0
862.0
862.0
861.0
858.0
862.0
858.0
859.0
860.0
856.0
858.0
860.0
862.0
864.0
867.0
867.0
868.0
863.0
864.0
861.0
859.0
858.0
866.0
867.0
868.0
871.0
870.0
867.0
867.0
863.0
863.0
863.0
859.0
860.0
858.0
862.0
862.0
867.0
864.0
865.0
866.0
862.0
859.0
856.0
857.0
856.0
855.0
860.0
859.0
863.0
861.0
860.0
860.0
856.0
854.0
856.0
855.0
852.0
853.0
856.0
854.0
857.0
857.0
858.0
857.0
856.0
855.0
849.0
848.0
851.0
851.0
853.0
853.0
858.0
854.0
857.0
853.0
852.0
850.0
850.0
849.0
850.0
848.0
850.0
849.0
852.0
852.0
852.0
851.0
849.0
848.0
844.0
848.0
846.0
849.0
848.0
850.0
852.0
852.0
851.0
852.0
851.0
849.0
847.0
845.0
843.0
844.0
848.0
850.0
856.0
854.0
849.0
850.0
848.0
845.0
840.0
844.0
845.0
846.0
851.0
853.0
852.0
850.0
854.0
853.0
852.0
850.0
851.0
846.0
849.0
851.0
852.0
852.0
855.0
853.0
855.0
855.0
848.0
852.0
849.0
847.0
847.0
850.0
853.0
853.0
853.0
854.0
852.0
852.0
850.0
849.0
852.0
850.0
848.0
851.0
852.0
852.0
854.0
857.0
855.0
854.0
850.0
848.0
848.0
847.0
847.0
850.0
849.0
853.0
853.0
855.0
856.0
854.0
851.0
848.0
852.0
851.0
848.0
851.0
851.0
854.0
856.0
858.0
854.0
856.0
851.0
848.0
850.0
848.0
848.0
852.0
851.0
857.0
858.0
861.0
857.0
857.0
855.0
852.0
853.0
854.0
855.0
859.0
862.0
867.0
871.0
874.0
876.0
876.0
876.0
873.0
870.0
869.0
874.0
880.0
888.0
894.0
902.0
903.0
901.0
896.0
894.0
890.0
885.0
883.0
882.0
885.0
886.0
885.0
886.0
883.0
878.0
870.0
861.0
858.0
854.0
848.0
847.0
847.0
846.0
850.0
851.0
851.0
851.0
849.0
848.0
845.0
840.0
842.0
841.0
845.0
842.0
843.0
850.0
849.0
849.0
849.0
846.0
843.0
842.0
842.0
843.0
845.0
846.0
849.0
851.0
852.0
853.0
852.0
851.0
851.0
849.0
850.0
850.0
851.0
856.0
858.0
863.0
864.0
863.0
867.0
868.0
868.0
880.0
905.0
943.0
988.0
1040.0
1093.0
1154.0
1210.0
1256.0
1272.0
1255.0
1200.0
1117.0
1008.0
895.0
802.0
736.0
710.0
715.0
743.0
773.0
797.0
813.0
822.0
824.0
826.0
836.0
843.0
849.0
856.0
859.0
860.0
856.0
851.0
852.0
850.0
849.0
849.0
849.0
851.0
853.0
856.0
855.0
854.0
854.0
855.0
855.0
854.0
854.0
851.0
851.0
853.0
855.0
861.0
863.0
860.0
859.0
860.0
859.0
858.0
857.0
855.0
856.0
858.0
860.0
860.0
861.0
862.0
864.0
866.0
864.0
862.0
863.0
858.0
859.0
857.0
861.0
865.0
868.0
872.0
873.0
871.0
871.0
870.0
870.0
867.0
870.0
872.0
875.0
877.0
880.0
885.0
884.0
885.0
886.0
883.0
884.0
887.0
888.0
892.0
897.0
901.0
902.0
905.0
906.0
911.0
913.0
914.0
913.0
919.0
918.0
922.0
923.0
930.0
934.0
934.0
937.0
938.0
938.0
939.0
938.0
940.0
941.0
945.0
948.0
949.0
948.0
950.0
945.0
946.0
940.0
941.0
933.0
930.0
926.0
923.0
920.0
916.0
917.0
915.0
910.0
907.0
901.0
896.0
890.0
885.0
885.0
883.0
883.0
883.0
881.0
882.0
880.0
879.0
876.0
871.0
870.0
872.0
869.0
866.0
868.0
874.0
875.0
874.0
872.0
873.0
873.0
871.0
868.0
865.0
866.0
865.0
868.0
872.0
872.0
871.0
871.0
873.0
871.0
871.0
871.0
872.0
870.0
872.0
870.0
872.0
874.0
877.0
875.0
874.0
877.0
875.0
873.0
871.0
868.0
869.0
872.0
877.0
878.0
876.0
879.0
879.0
874.0
873.0
873.0
871.0
871.0
872.0
871.0
873.0
875.0
876.0
876.0
875.0
874.0
872.0
874.0
872.0
870.0
871.0
873.0
874.0
874.0
874.0
874.0
873.0
872.0
868.0
867.0
869.0
864.0
866.0
866.0
869.0
870.0
871.0
869.0
869.0
867.0
864.0
861.0
861.0
863.0
862.0
863.0
866.0
868.0
868.0
867.0
864.0
865.0
862.0
859.0
858.0
855.0
856.0
855.0
859.0
863.0
864.0
860.0
860.0
861.0
859.0
859.0
856.0
857.0
858.0
861.0
861.0
864.0
866.0
863.0
865.0
859.0
860.0
854.0
857.0
857.0
857.0
859.0
860.0
860.0
859.0
859.0
858.0
855.0
853.0
855.0
855.0
853.0
856.0
857.0
861.0
861.0
862.0
862.0
858.0
859.0
858.0
858.0
857.0
857.0
852.0
857.0
858.0
862.0
862.0
864.0
862.0
861.0
856.0
855.0
857.0
855.0
857.0
860.0
860.0
862.0
861.0
859.0
858.0
857.0
855.0
855.0
858.0
856.0
856.0
859.0
858.0
858.0
860.0
862.0
861.0
859.0
857.0
854.0
856.0
856.0
858.0
860.0
862.0
863.0
864.0
865.0
862.0
864.0
860.0
861.0
860.0
859.0
860.0
862.0
862.0
863.0
865.0
864.0
864.0
861.0
861.0
862.0
859.0
856.0
858.0
859.0
862.0
867.0
865.0
865.0
866.0
865.0
862.0
857.0
858.0
857.0
858.0
860.0
862.0
868.0
867.0
870.0
865.0
867.0
863.0
862.0
861.0
860.0
861.0
863.0
865.0
867.0
867.0
869.0
870.0
865.0
865.0
865.0
862.0
861.0
863.0
862.0
864.0
869.0
870.0
872.0
867.0
868.0
868.0
867.0
869.0
871.0
874.0
881.0
885.0
888.0
893.0
892.0
892.0
890.0
889.0
892.0
895.0
901.0
904.0
906.0
909.0
906.0
908.0
905.0
901.0
898.0
896.0
895.0
889.0
889.0
887.0
890.0
888.0
885.0
883.0
878.0
872.0
868.0
864.0
860.0
858.0
853.0
855.0
858.0
855.0
853.0
858.0
859.0
857.0
856.0
855.0
856.0
854.0
853.0
855.0
856.0
855.0
859.0
859.0
859.0
856.0
856.0
854.0
852.0
853.0
853.0
852.0
854.0
858.0
856.0
863.0
861.0
864.0
865.0
862.0
863.0
861.0
861.0
865.0
869.0
871.0
874.0
881.0
886.0
900.0
923.0
959.0
1004.0
1047.0
1095.0
1145.0
1197.0
1245.0
1277.0
1282.0
1255.0
1192.0
1110.0
1007.0
902.0
812.0
752.0
728.0
742.0
774.0
811.0
836.0
849.0
851.0
845.0
839.0
840.0
843.0
847.0
853.0
858.0
862.0
864.0
864.0
863.0
861.0
860.0
858.0
859.0
854.0
859.0
855.0
857.0
863.0
864.0
865.0
865.0
865.0
864.0
862.0
859.0
857.0
856.0
857.0
860.0
861.0
862.0
862.0
862.0
861.0
862.0
860.0
858.0
859.0
858.0
858.0
861.0
862.0
866.0
867.0
864.0
866.0
865.0
862.0
863.0
862.0
863.0
864.0
868.0
868.0
869.0
871.0
870.0
871.0
870.0
867.0
866.0
869.0
868.0
868.0
871.0
876.0
878.0
882.0
882.0
886.0
886.0
883.0
883.0
884.0
885.0
888.0
889.0
895.0
902.0
902.0
906.0
909.0
912.0
911.0
911.0
912.0
913.0
916.0
923.0
927.0
931.0
935.0
933.0
937.0
938.0
939.0
940.0
942.0
942.0
946.0
949.0
954.0
956.0
958.0
958.0
957.0
956.0
954.0
952.0
946.0
943.0
939.0
938.0
936.0
932.0
928.0
923.0
917.0
914.0
908.0
904.0
897.0
891.0
890.0
887.0
886.0
887.0
889.0
885.0
883.0
880.0
880.0
878.0
876.0
874.0
873.0
874.0
876.0
877.0
875.0
874.0
876.0
874.0
870.0
868.0
868.0
868.0
866.0
869.0
871.0
872.0
873.0
873.0
875.0
874.0
869.0
868.0
868.0
869.0
865.0
870.0
872.0
874.0
877.0
876.0
879.0
875.0
875.0
874.0
872.0
869.0
870.0
874.0
874.0
874.0
879.0
879.0
878.0
873.0
876.0
874.0
872.0
872.0
871.0
873.0
875.0
876.0
879.0
879.0
877.0
877.0
876.0
872.0
869.0
869.0
870.0
870.0
873.0
875.0
875.0
875.0
874.0
871.0
871.0
869.0
868.0
865.0
864.0
865.0
867.0
869.0
871.0
869.0
871.0
870.0
867.0
864.0
863.0
862.0
861.0
864.0
863.0
862.0
867.0
869.0
863.0
864.0
864.0
862.0
859.0
860.0
860.0
861.0
864.0
865.0
865.0
869.0
867.0
864.0
861.0
857.0
860.0
858.0
859.0
863.0
862.0
860.0
866.0
865.0
867.0
865.0
862.0
860.0
861.0
860.0
860.0
861.0
859.0
863.0
866.0
863.0
862.0
862.0
861.0
859.0
858.0
857.0
857.0
858.0
857.0
857.0
864.0
864.0
863.0
859.0
859.0
856.0
856.0
855.0
855.0
859.0
858.0
862.0
864.0
864.0
865.0
862.0
861.0
858.0
855.0
860.0
858.0
857.0
862.0
862.0
861.0
862.0
861.0
859.0
858.0
856.0
855.0
857.0
856.0
856.0
858.0
860.0
860.0
861.0
862.0
859.0
859.0
856.0
854.0
853.0
856.0
855.0
859.0
860.0
863.0
866.0
864.0
862.0
858.0
856.0
856.0
854.0
857.0
855.0
860.0
862.0
863.0
862.0
862.0
861.0
858.0
855.0
854.0
858.0
857.0
859.0
862.0
862.0
863.0
862.0
863.0
864.0
862.0
858.0
861.0
858.0
856.0
857.0
860.0
860.0
865.0
864.0
869.0
866.0
863.0
863.0
861.0
859.0
860.0
863.0
864.0
867.0
869.0
869.0
867.0
868.0
869.0
870.0
871.0
871.0
874.0
878.0
884.0
887.0
890.0
887.0
888.0
888.0
887.0
888.0
893.0
899.0
903.0
905.0
907.0
905.0
904.0
901.0
896.0
892.0
892.0
893.0
892.0
891.0
889.0
888.0
886.0
879.0
874.0
869.0
865.0
860.0
858.0
856.0
855.0
852.0
850.0
849.0
857.0
858.0
859.0
858.0
858.0
856.0
850.0
852.0
853.0
855.0
856.0
856.0
858.0
855.0
860.0
861.0
860.0
858.0
860.0
855.0
856.0
856.0
857.0
858.0
861.0
860.0
865.0
862.0
865.0
866.0
862.0
864.0
862.0
863.0
864.0
869.0
872.0
874.0
882.0
891.0
912.0
939.0
976.0
1019.0
1065.0
1108.0
1166.0
1216.0
1245.0
1251.0
1218.0
1151.0
1064.0
962.0
867.0
788.0
742.0
729.0
736.0
768.0
794.0
815.0
827.0
833.0
837.0
841.0
846.0
854.0
858.0
861.0
863.0
865.0
863.0
859.0
863.0
864.0
865.0
863.0
861.0
859.0
860.0
859.0
858.0
860.0
862.0
864.0
867.0
868.0
866.0
866.0
865.0
863.0
863.0
862.0
862.0
862.0
864.0
867.0
867.0
867.0
866.0
862.0
864.0
863.0
862.0
864.0
863.0
863.0
866.0
867.0
868.0
869.0
870.0
869.0
866.0
864.0
864.0
865.0
865.0
866.0
868.0
871.0
872.0
875.0
874.0
875.0
876.0
877.0
876.0
877.0
876.0
876.0
881.0
886.0
892.0
892.0
896.0
895.0
897.0
896.0
898.0
900.0
905.0
906.0
912.0
914.0
919.0
922.0
922.0
922.0
923.0
925.0
925.0
927.0
929.0
932.0
937.0
940.0
945.0
946.0
946.0
948.0
947.0
946.0
948.0
944.0
943.0
945.0
946.0
943.0
944.0
941.0
936.0
931.0
928.0
923.0
920.0
915.0
911.0
910.0
906.0
906.0
903.0
897.0
891.0
888.0
883.0
880.0
879.0
877.0
875.0
876.0
875.0
876.0
880.0
874.0
878.0
874.0
869.0
867.0
867.0
868.0
865.0
869.0
869.0
871.0
875.0
874.0
874.0
872.0
870.0
868.0
866.0
865.0
863.0
867.0
868.0
870.0
871.0
873.0
875.0
873.0
874.0
868.0
869.0
868.0
868.0
875.0
874.0
875.0
880.0
877.0
880.0
878.0
878.0
875.0
875.0
874.0
875.0
876.0
878.0
878.0
881.0
882.0
881.0
880.0
879.0
878.0
876.0
876.0
876.0
878.0
878.0
880.0
879.0
881.0
881.0
881.0
878.0
875.0
874.0
872.0
871.0
874.0
875.0
876.0
879.0
875.0
877.0
875.0
872.0
868.0
867.0
867.0
869.0
868.0
869.0
869.0
869.0
871.0
871.0
870.0
870.0
868.0
867.0
864.0
861.0
860.0
861.0
868.0
871.0
868.0
870.0
869.0
866.0
864.0
863.0
863.0
863.0
863.0
866.0
866.0
868.0
873.0
872.0
873.0
871.0
868.0
863.0
859.0
859.0
861.0
865.0
867.0
871.0
873.0
872.0
869.0
866.0
863.0
866.0
863.0
863.0
862.0
865.0
865.0
869.0
869.0
870.0
871.0
868.0
869.0
867.0
863.0
865.0
866.0
866.0
868.0
869.0
871.0
870.0
868.0
867.0
868.0
866.0
864.0
866.0
866.0
869.0
868.0
871.0
870.0
872.0
871.0
868.0
865.0
864.0
865.0
868.0
866.0
869.0
872.0
873.0
873.0
874.0
872.0
871.0
870.0
869.0
869.0
866.0
870.0
870.0
876.0
875.0
876.0
880.0
879.0
880.0
884.0
883.0
887.0
887.0
888.0
893.0
894.0
898.0
898.0
901.0
906.0
905.0
907.0
908.0
905.0
901.0
901.0
899.0
900.0
904.0
898.0
898.0
903.0
901.0
897.0
894.0
888.0
881.0
875.0
871.0
871.0
872.0
870.0
874.0
870.0
866.0
863.0
861.0
859.0
859.0
860.0
863.0
863.0
864.0
867.0
865.0
865.0
862.0
862.0
862.0
858.0
858.0
858.0
862.0
866.0
868.0
868.0
868.0
865.0
864.0
865.0
864.0
866.0
866.0
867.0
868.0
871.0
875.0
875.0
880.0
876.0
875.0
876.0
877.0
876.0
883.0
889.0
914.0
945.0
985.0
1032.0
1079.0
1129.0
1180.0
1228.0
1263.0
1270.0
1242.0
1180.0
1093.0
992.0
891.0
804.0
749.0
725.0
736.0
757.0
786.0
809.0
823.0
829.0
831.0
838.0
845.0
855.0
862.0
869.0
873.0
873.0
871.0
865.0
864.0
864.0
864.0
865.0
869.0
871.0
871.0
873.0
872.0
868.0
869.0
867.0
867.0
868.0
866.0
869.0
871.0
874.0
874.0
875.0
873.0
870.0
865.0
867.0
869.0
871.0
869.0
872.0
875.0
874.0
873.0
876.0
874.0
870.0
870.0
870.0
869.0
873.0
873.0
875.0
877.0
879.0
877.0
878.0
874.0
872.0
870.0
872.0
873.0
876.0
879.0
882.0
882.0
887.0
883.0
884.0
887.0
884.0
882.0
887.0
888.0
889.0
892.0
895.0
901.0
903.0
904.0
903.0
903.0
903.0
905.0
907.0
909.0
913.0
915.0
920.0
925.0
927.0
930.0
934.0
937.0
938.0
939.0
940.0
940.0
942.0
946.0
947.0
953.0
957.0
958.0
959.0
960.0
955.0
956.0
955.0
956.0
955.0
956.0
955.0
959.0
954.0
951.0
950.0
944.0
938.0
933.0
927.0
925.0
922.0
921.0
920.0
914.0
912.0
911.0
904.0
901.0
896.0
889.0
890.0
887.0
886.0
890.0
883.0
885.0
889.0
890.0
886.0
885.0
879.0
879.0
878.0
876.0
878.0
875.0
880.0
884.0
879.0
880.0
876.0
875.0
877.0
877.0
876.0
876.0
876.0
880.0
881.0
880.0
883.0
883.0
884.0
881.0
880.0
877.0
875.0
874.0
876.0
877.0
882.0
883.0
884.0
886.0
887.0
884.0
883.0
881.0
880.0
883.0
883.0
886.0
887.0
889.0
890.0
889.0
890.0
888.0
886.0
885.0
883.0
881.0
883.0
887.0
889.0
890.0
891.0
890.0
889.0
886.0
885.0
883.0
883.0
879.0
879.0
882.0
884.0
885.0
886.0
884.0
886.0
882.0
879.0
879.0
877.0
877.0
875.0
878.0
880.0
880.0
883.0
881.0
883.0
880.0
878.0
878.0
877.0
874.0
874.0
877.0
879.0
876.0
877.0
876.0
878.0
875.0
874.0
873.0
872.0
871.0
870.0
874.0
874.0
873.0
876.0
875.0
874.0
872.0
869.0
870.0
869.0
869.0
868.0
870.0
872.0
874.0
874.0
875.0
874.0
873.0
869.0
868.0
866.0
863.0
865.0
868.0
869.0
871.0
872.0
873.0
871.0
867.0
867.0
861.0
862.0
861.0
866.0
867.0
870.0
872.0
872.0
871.0
871.0
868.0
870.0
868.0
864.0
867.0
866.0
867.0
870.0
869.0
870.0
870.0
873.0
871.0
868.0
867.0
865.0
866.0
866.0
869.0
869.0
872.0
873.0
873.0
874.0
871.0
868.0
867.0
863.0
865.0
867.0
869.0
872.0
872.0
874.0
872.0
873.0
873.0
869.0
867.0
864.0
864.0
864.0
867.0
869.0
872.0
872.0
873.0
870.0
872.0
867.0
869.0
866.0
863.0
864.0
865.0
867.0
872.0
873.0
871.0
872.0
870.0
867.0
866.0
866.0
866.0
866.0
870.0
872.0
872.0
874.0
875.0
872.0
870.0
872.0
872.0
873.0
871.0
872.0
877.0
884.0
885.0
892.0
894.0
892.0
891.0
889.0
889.0
887.0
893.0
897.0
905.0
910.0
912.0
912.0
910.0
904.0
901.0
897.0
896.0
892.0
892.0
890.0
892.0
891.0
885.0
886.0
888.0
881.0
875.0
871.0
863.0
859.0
858.0
858.0
859.0
860.0
862.0
863.0
861.0
862.0
860.0
860.0
858.0
856.0
854.0
855.0
856.0
859.0
860.0
861.0
860.0
859.0
860.0
856.0
856.0
856.0
856.0
856.0
858.0
862.0
861.0
863.0
866.0
866.0
864.0
864.0
861.0
862.0
861.0
863.0
865.0
868.0
870.0
877.0
880.0
893.0
907.0
936.0
977.0
1021.0
1068.0
1119.0
1174.0
1222.0
1260.0
1272.0
1246.0
1184.0
1094.0
989.0
881.0
793.0
744.0
734.0
753.0
791.0
827.0
849.0
855.0
857.0
852.0
848.0
852.0
852.0
856.0
860.0
863.0
866.0
865.0
866.0
863.0
861.0
862.0
862.0
861.0
860.0
859.0
859.0
858.0
863.0
866.0
868.0
869.0
864.0
863.0
865.0
861.0
862.0
858.0
861.0
860.0
862.0
862.0
862.0
864.0
866.0
867.0
866.0
863.0
861.0
861.0
862.0
862.0
865.0
868.0
866.0
868.0
872.0
870.0
868.0
861.0
863.0
865.0
867.0
869.0
869.0
870.0
875.0
873.0
875.0
875.0
875.0
872.0
871.0
876.0
877.0
880.0
884.0
887.0
891.0
893.0
894.0
894.0
896.0
896.0
896.0
899.0
899.0
907.0
912.0
918.0
922.0
924.0
927.0
927.0
928.0
925.0
930.0
931.0
935.0
937.0
941.0
946.0
951.0
954.0
955.0
957.0
955.0
954.0
953.0
952.0
953.0
952.0
953.0
951.0
953.0
945.0
943.0
937.0
932.0
925.0
925.0
918.0
913.0
909.0
908.0
906.0
903.0
902.0
899.0
892.0
892.0
885.0
881.0
880.0
878.0
878.0
879.0
879.0
879.0
880.0
878.0
878.0
872.0
870.0
866.0
867.0
866.0
867.0
870.0
872.0
875.0
872.0
874.0
873.0
868.0
869.0
865.0
864.0
869.0
869.0
872.0
874.0
877.0
877.0
877.0
875.0
872.0
872.0
868.0
869.0
868.0
870.0
872.0
875.0
878.0
875.0
876.0
874.0
874.0
871.0
869.0
869.0
870.0
873.0
877.0
875.0
879.0
879.0
878.0
876.0
875.0
871.0
871.0
871.0
871.0
871.0
871.0
874.0
878.0
877.0
877.0
875.0
872.0
869.0
867.0
867.0
867.0
866.0
869.0
871.0
871.0
873.0
872.0
867.0
868.0
866.0
862.0
862.0
862.0
862.0
864.0
865.0
867.0
866.0
868.0
868.0
862.0
861.0
861.0
859.0
859.0
859.0
861.0
864.0
864.0
866.0
866.0
861.0
862.0
857.0
858.0
856.0
859.0
861.0
859.0
859.0
862.0
863.0
861.0
861.0
856.0
853.0
853.0
853.0
853.0
851.0
856.0
857.0
858.0
863.0
863.0
859.0
859.0
858.0
855.0
856.0
856.0
854.0
855.0
860.0
859.0
862.0
860.0
860.0
857.0
854.0
854.0
852.0
853.0
856.0
859.0
860.0
858.0
860.0
859.0
857.0
855.0
854.0
851.0
852.0
851.0
854.0
853.0
857.0
859.0
858.0
860.0
857.0
853.0
855.0
853.0
851.0
854.0
856.0
859.0
855.0
860.0
859.0
859.0
856.0
854.0
852.0
852.0
852.0
853.0
851.0
855.0
858.0
859.0
856.0
854.0
856.0
855.0
855.0
853.0
849.0
852.0
855.0
856.0
855.0
859.0
860.0
859.0
858.0
854.0
853.0
852.0
852.0
853.0
856.0
856.0
859.0
860.0
861.0
860.0
861.0
856.0
854.0
853.0
851.0
849.0
855.0
857.0
862.0
862.0
861.0
862.0
866.0
867.0
870.0
871.0
872.0
873.0
873.0
876.0
878.0
881.0
883.0
888.0
894.0
887.0
886.0
883.0
881.0
876.0
875.0
875.0
877.0
879.0
877.0
880.0
875.0
870.0
866.0
861.0
856.0
853.0
851.0
851.0
850.0
852.0
850.0
850.0
850.0
846.0
845.0
844.0
841.0
841.0
841.0
844.0
