# Simple Text Format
# Sampling Rate (Hz):= 360.00
# Resolution:= 12
# Labels:= ECG
836.0
834.0
833.0
835.0
834.0
835.0
838.0
838.0
841.0
840.0
841.0
837.0
837.0
835.0
834.0
831.0
833.0
833.0
837.0
838.0
836.0
837.0
835.0
835.0
830.0
827.0
829.0
829.0
828.0
828.0
831.0
832.0
830.0
828.0
829.0
829.0
831.0
827.0
827.0
826.0
826.0
827.0
829.0
829.0
832.0
831.0
834.0
828.0
828.0
826.0
825.0
825.0
824.0
827.0
828.0
830.0
831.0
830.0
829.0
823.0
822.0
823.0
822.0
823.0
825.0
826.0
825.0
829.0
834.0
832.0
832.0
831.0
831.0
828.0
827.0
828.0
828.0
828.0
831.0
829.0
828.0
832.0
829.0
827.0
830.0
828.0
826.0
825.0
825.0
829.0
831.0
832.0
831.0
832.0
830.0
829.0
830.0
827.0
824.0
825.0
827.0
830.0
831.0
829.0
828.0
830.0
830.0
829.0
826.0
825.0
827.0
825.0
827.0
830.0
830.0
832.0
835.0
831.0
832.0
833.0
830.0
828.0
828.0
827.0
828.0
831.0
833.0
832.0
834.0
834.0
830.0
834.0
831.0
828.0
829.0
827.0
825.0
827.0
830.0
834.0
835.0
835.0
835.0
831.0
831.0
831.0
828.0
827.0
830.0
833.0
833.0
836.0
836.0
836.0
835.0
835.0
832.0
831.0
832.0
828.0
829.0
830.0
833.0
835.0
837.0
837.0
836.0
834.0
833.0
831.0
830.0
828.0
829.0
835.0
835.0
836.0
836.0
836.0
838.0
838.0
834.0
832.0
834.0
833.0
838.0
840.0
844.0
851.0
854.0
856.0
858.0
856.0
857.0
855.0
850.0
855.0
860.0
868.0
873.0
879.0
880.0
881.0
879.0
872.0
866.0
865.0
862.0
854.0
858.0
861.0
861.0
861.0
861.0
858.0
856.0
851.0
842.0
835.0
829.0
826.0
825.0
822.0
824.0
825.0
824.0
821.0
821.0
820.0
819.0
818.0
815.0
815.0
817.0
817.0
818.0
819.0
823.0
825.0
823.0
818.0
816.0
814.0
814.0
812.0
812.0
814.0
819.0
819.0
822.0
823.0
822.0
822.0
823.0
821.0
821.0
823.0
824.0
825.0
829.0
831.0
835.0
839.0
839.0
842.0
849.0
857.0
881.0
916.0
958.0
1008.0
1058.0
1106.0
1155.0
1205.0
1242.0
1253.0
1229.0
1171.0
1089.0
984.0
873.0
777.0
715.0
688.0
700.0
726.0
756.0
782.0
794.0
798.0
801.0
802.0
806.0
812.0
818.0
824.0
829.0
827.0
825.0
823.0
820.0
821.0
821.0
820.0
821.0
825.0
824.0
827.0
829.0
827.0
827.0
824.0
823.0
820.0
820.0
821.0
824.0
823.0
825.0
827.0
829.0
831.0
829.0
827.0
826.0
826.0
823.0
822.0
822.0
823.0
824.0
825.0
829.0
830.0
835.0
830.0
829.0
827.0
824.0
826.0
827.0
831.0
834.0
833.0
837.0
839.0
837.0
838.0
837.0
836.0
838.0
837.0
838.0
840.0
842.0
843.0
851.0
851.0
853.0
855.0
853.0
854.0
855.0
857.0
862.0
867.0
871.0
876.0
880.0
878.0
884.0
888.0
889.0
892.0
892.0
896.0
898.0
904.0
909.0
908.0
918.0
920.0
921.0
924.0
925.0
924.0
927.0
928.0
928.0
933.0
933.0
934.0
934.0
932.0
930.0
927.0
921.0
916.0
912.0
907.0
901.0
899.0
892.0
891.0
890.0
884.0
879.0
875.0
870.0
863.0
860.0
857.0
854.0
855.0
854.0
854.0
853.0
852.0
849.0
847.0
844.0
840.0
838.0
841.0
836.0
840.0
841.0
842.0
846.0
843.0
843.0
838.0
838.0
834.0
834.0
833.0
833.0
835.0
835.0
838.0
839.0
839.0
839.0
832.0
834.0
833.0
833.0
834.0
835.0
840.0
842.0
843.0
844.0
842.0
845.0
844.0
845.0
841.0
840.0
841.0
840.0
840.0
842.0
843.0
846.0
848.0
845.0
845.0
845.0
841.0
840.0
840.0
841.0
840.0
845.0
847.0
849.0
847.0
848.0
847.0
843.0
838.0
840.0
840.0
839.0
837.0
844.0
844.0
844.0
843.0
842.0
841.0
836.0
837.0
836.0
833.0
834.0
836.0
840.0
839.0
842.0
841.0
841.0
837.0
834.0
832.0
828.0
828.0
827.0
834.0
837.0
839.0
838.0
839.0
838.0
834.0
835.0
833.0
832.0
830.0
830.0
835.0
835.0
839.0
840.0
837.0
835.0
833.0
831.0
827.0
829.0
830.0
827.0
831.0
832.0
833.0
836.0
834.0
836.0
835.0
831.0
829.0
828.0
823.0
830.0
829.0
831.0
832.0
835.0
834.0
837.0
833.0
833.0
831.0
828.0
830.0
829.0
830.0
832.0
835.0
836.0
838.0
837.0
834.0
833.0
829.0
827.0
830.0
828.0
830.0
830.0
834.0
835.0
835.0
835.0
838.0
834.0
832.0
829.0
829.0
830.0
831.0
835.0
836.0
838.0
836.0
836.0
836.0
835.0
833.0
830.0
830.0
828.0
831.0
834.0
831.0
837.0
833.0
835.0
838.0
838.0
837.0
834.0
833.0
832.0
832.0
836.0
835.0
838.0
839.0
841.0
840.0
835.0
834.0
832.0
832.0
835.0
837.0
840.0
839.0
841.0
841.0
841.0
840.0
840.0
840.0
841.0
839.0
843.0
844.0
852.0
858.0
863.0
863.0
862.0
865.0
860.0
861.0
868.0
874.0
880.0
885.0
888.0
889.0
890.0
887.0
886.0
881.0
877.0
876.0
875.0
871.0
873.0
872.0
873.0
871.0
868.0
857.0
850.0
843.0
836.0
835.0
835.0
833.0
832.0
832.0
831.0
834.0
833.0
832.0
834.0
834.0
831.0
831.0
830.0
826.0
828.0
828.0
830.0
835.0
836.0
835.0
833.0
830.0
827.0
829.0
827.0
830.0
829.0
829.0
835.0
834.0
837.0
838.0
837.0
837.0
833.0
835.0
831.0
833.0
833.0
835.0
839.0
845.0
849.0
850.0
852.0
850.0
849.0
848.0
850.0
856.0
873.0
901.0
942.0
991.0
1040.0
1090.0
1143.0
1194.0
1245.0
1275.0
1284.0
1247.0
1178.0
1078.0
960.0
841.0
747.0
686.0
672.0
684.0
714.0
744.0
768.0
787.0
795.0
805.0
814.0
818.0
829.0
834.0
839.0
842.0
838.0
836.0
834.0
830.0
829.0
832.0
836.0
840.0
843.0
840.0
842.0
839.0
838.0
837.0
836.0
836.0
837.0
839.0
839.0
844.0
843.0
843.0
843.0
840.0
841.0
837.0
837.0
836.0
833.0
837.0
841.0
842.0
845.0
844.0
844.0
842.0
841.0
838.0
839.0
838.0
838.0
838.0
840.0
845.0
842.0
841.0
845.0
844.0
844.0
844.0
842.0
845.0
845.0
847.0
850.0
855.0
858.0
860.0
859.0
860.0
859.0
858.0
859.0
861.0
862.0
866.0
870.0
872.0
877.0
880.0
882.0
882.0
881.0
885.0
884.0
887.0
890.0
892.0
897.0
903.0
907.0
914.0
913.0
913.0
915.0
914.0
916.0
918.0
923.0
924.0
929.0
932.0
937.0
938.0
938.0
938.0
936.0
934.0
934.0
931.0
926.0
927.0
926.0
926.0
923.0
922.0
915.0
909.0
905.0
900.0
896.0
891.0
888.0
882.0
881.0
880.0
875.0
876.0
875.0
874.0
870.0
866.0
864.0
859.0
861.0
861.0
862.0
863.0
862.0
861.0
861.0
859.0
859.0
854.0
856.0
852.0
851.0
854.0
853.0
857.0
857.0
856.0
857.0
857.0
856.0
854.0
853.0
853.0
852.0
853.0
856.0
858.0
857.0
857.0
858.0
860.0
858.0
856.0
855.0
854.0
856.0
854.0
859.0
859.0
865.0
864.0
865.0
864.0
864.0
862.0
859.0
859.0
860.0
862.0
860.0
865.0
866.0
867.0
866.0
866.0
864.0
864.0
862.0
864.0
861.0
864.0
863.0
865.0
867.0
865.0
866.0
865.0
862.0
860.0
853.0
858.0
855.0
854.0
857.0
860.0
861.0
860.0
861.0
861.0
858.0
856.0
855.0
854.0
853.0
854.0
856.0
857.0
859.0
857.0
858.0
857.0
851.0
855.0
851.0
850.0
848.0
849.0
849.0
852.0
854.0
854.0
854.0
854.0
850.0
848.0
848.0
847.0
844.0
848.0
849.0
852.0
854.0
854.0
855.0
853.0
849.0
847.0
847.0
844.0
846.0
844.0
844.0
852.0
851.0
853.0
852.0
848.0
847.0
846.0
844.0
842.0
843.0
845.0
847.0
850.0
854.0
853.0
853.0
852.0
851.0
847.0
846.0
843.0
842.0
844.0
845.0
849.0
850.0
850.0
850.0
847.0
847.0
846.0
845.0
843.0
844.0
842.0
846.0
849.0
850.0
850.0
848.0
854.0
848.0
848.0
845.0
845.0
840.0
842.0
847.0
847.0
847.0
850.0
851.0
852.0
851.0
848.0
846.0
846.0
846.0
848.0
849.0
850.0
851.0
855.0
852.0
849.0
850.0
848.0
844.0
843.0
843.0
846.0
850.0
850.0
852.0
851.0
853.0
850.0
846.0
844.0
844.0
846.0
845.0
846.0
850.0
853.0
851.0
853.0
853.0
852.0
849.0
847.0
846.0
845.0
841.0
844.0
845.0
849.0
852.0
855.0
855.0
855.0
851.0
853.0
848.0
845.0
847.0
845.0
848.0
851.0
851.0
853.0
855.0
852.0
852.0
849.0
850.0
846.0
845.0
848.0
851.0
853.0
853.0
855.0
856.0
858.0
856.0
856.0
856.0
858.0
860.0
867.0
871.0
877.0
877.0
880.0
879.0
877.0
875.0
876.0
878.0
884.0
888.0
892.0
894.0
895.0
895.0
893.0
891.0
889.0
885.0
880.0
879.0
879.0
875.0
875.0
880.0
877.0
875.0
874.0
868.0
864.0
856.0
851.0
845.0
841.0
840.0
839.0
839.0
840.0
844.0
844.0
846.0
845.0
842.0
842.0
838.0
835.0
837.0
837.0
840.0
843.0
844.0
846.0
844.0
844.0
844.0
841.0
839.0
839.0
837.0
838.0
839.0
841.0
845.0
847.0
847.0
851.0
848.0
845.0
843.0
848.0
847.0
851.0
853.0
859.0
861.0
864.0
868.0
873.0
886.0
907.0
942.0
988.0
1035.0
1089.0
1141.0
1195.0
1247.0
1287.0
1296.0
1270.0
1206.0
1112.0
996.0
881.0
785.0
723.0
709.0
726.0
761.0
802.0
827.0
838.0
840.0
833.0
826.0
825.0
829.0
835.0
844.0
847.0
850.0
849.0
851.0
849.0
844.0
840.0
841.0
842.0
842.0
844.0
846.0
848.0
851.0
849.0
850.0
849.0
845.0
847.0
845.0
845.0
844.0
845.0
846.0
843.0
850.0
851.0
847.0
849.0
849.0
847.0
844.0
842.0
841.0
843.0
846.0
847.0
852.0
852.0
851.0
850.0
848.0
846.0
845.0
841.0
845.0
845.0
847.0
850.0
852.0
855.0
857.0
857.0
856.0
854.0
854.0
854.0
852.0
855.0
856.0
861.0
864.0
866.0
871.0
870.0
871.0
869.0
869.0
871.0
872.0
877.0
882.0
886.0
887.0
893.0
895.0
897.0
899.0
900.0
903.0
904.0
905.0
911.0
915.0
922.0
927.0
930.0
933.0
936.0
934.0
937.0
936.0
937.0
939.0
941.0
944.0
947.0
947.0
946.0
948.0
945.0
939.0
934.0
928.0
922.0
920.0
917.0
914.0
911.0
908.0
905.0
901.0
896.0
889.0
881.0
876.0
874.0
871.0
868.0
869.0
868.0
868.0
870.0
868.0
865.0
861.0
860.0
857.0
854.0
855.0
853.0
855.0
858.0
861.0
861.0
862.0
861.0
859.0
854.0
856.0
854.0
853.0
852.0
852.0
855.0
858.0
859.0
859.0
861.0
856.0
855.0
853.0
852.0
855.0
854.0
856.0
860.0
861.0
861.0
860.0
861.0
861.0
859.0
853.0
851.0
850.0
854.0
857.0
860.0
862.0
861.0
861.0
862.0
860.0
855.0
853.0
851.0
850.0
852.0
854.0
858.0
862.0
863.0
861.0
860.0
856.0
853.0
856.0
854.0
851.0
851.0
851.0
855.0
851.0
855.0
856.0
855.0
854.0
852.0
852.0
848.0
847.0
848.0
848.0
852.0
855.0
855.0
856.0
853.0
853.0
848.0
847.0
846.0
847.0
846.0
846.0
850.0
851.0
847.0
850.0
849.0
847.0
843.0
844.0
842.0
843.0
842.0
844.0
845.0
850.0
851.0
850.0
849.0
849.0
848.0
844.0
844.0
844.0
844.0
843.0
845.0
848.0
850.0
849.0
849.0
849.0
845.0
844.0
841.0
836.0
837.0
841.0
844.0
846.0
846.0
846.0
846.0
844.0
843.0
840.0
841.0
842.0
842.0
842.0
844.0
843.0
847.0
845.0
845.0
844.0
843.0
840.0
839.0
841.0
840.0
841.0
844.0
846.0
848.0
848.0
846.0
843.0
844.0
842.0
841.0
841.0
840.0
843.0
848.0
845.0
847.0
848.0
845.0
845.0
846.0
843.0
841.0
840.0
841.0
844.0
845.0
846.0
848.0
849.0
848.0
849.0
847.0
844.0
843.0
841.0
840.0
844.0
847.0
848.0
848.0
849.0
848.0
848.0
847.0
845.0
844.0
843.0
841.0
844.0
846.0
847.0
851.0
850.0
848.0
848.0
847.0
843.0
843.0
843.0
842.0
845.0
844.0
850.0
849.0
848.0
850.0
847.0
846.0
842.0
842.0
841.0
844.0
845.0
847.0
851.0
851.0
850.0
852.0
847.0
846.0
844.0
843.0
843.0
842.0
845.0
847.0
849.0
851.0
852.0
850.0
848.0
847.0
846.0
843.0
847.0
848.0
850.0
852.0
859.0
865.0
868.0
873.0
873.0
870.0
868.0
869.0
868.0
870.0
874.0
881.0
888.0
891.0
894.0
893.0
893.0
889.0
886.0
880.0
878.0
876.0
880.0
877.0
879.0
880.0
880.0
876.0
875.0
865.0
858.0
852.0
852.0
846.0
844.0
843.0
845.0
843.0
842.0
841.0
837.0
832.0
830.0
828.0
828.0
831.0
829.0
833.0
837.0
837.0
833.0
830.0
832.0
833.0
833.0
830.0
828.0
834.0
836.0
836.0
836.0
839.0
839.0
838.0
837.0
837.0
833.0
831.0
832.0
833.0
839.0
837.0
844.0
843.0
845.0
846.0
849.0
854.0
856.0
862.0
878.0
905.0
946.0
993.0
1038.0
1090.0
1145.0
1192.0
1235.0
1244.0
1221.0
1161.0
1072.0
972.0
867.0
783.0
727.0
709.0
720.0
746.0
775.0
795.0
805.0
805.0
803.0
803.0
808.0
813.0
823.0
833.0
834.0
841.0
839.0
835.0
829.0
825.0
827.0
830.0
833.0
833.0
833.0
838.0
839.0
842.0
838.0
834.0
833.0
831.0
833.0
832.0
834.0
835.0
837.0
840.0
839.0
836.0
838.0
836.0
833.0
834.0
835.0
831.0
837.0
835.0
836.0
841.0
842.0
842.0
843.0
843.0
839.0
840.0
839.0
837.0
838.0
839.0
844.0
844.0
845.0
846.0
844.0
845.0
845.0
843.0
842.0
844.0
847.0
851.0
853.0
857.0
854.0
858.0
856.0
855.0
858.0
857.0
858.0
862.0
863.0
868.0
871.0
877.0
878.0
882.0
885.0
886.0
884.0
886.0
886.0
888.0
891.0
900.0
902.0
908.0
909.0
915.0
919.0
920.0
919.0
922.0
922.0
925.0
926.0
928.0
935.0
935.0
937.0
936.0
934.0
930.0
929.0
924.0
922.0
920.0
914.0
914.0
914.0
913.0
909.0
906.0
901.0
893.0
886.0
880.0
874.0
873.0
870.0
867.0
867.0
866.0
865.0
862.0
858.0
856.0
854.0
850.0
850.0
849.0
848.0
852.0
851.0
853.0
851.0
849.0
849.0
845.0
847.0
845.0
842.0
842.0
845.0
848.0
849.0
852.0
850.0
847.0
846.0
842.0
844.0
844.0
844.0
843.0
847.0
849.0
849.0
850.0
853.0
854.0
853.0
851.0
850.0
850.0
849.0
849.0
849.0
852.0
853.0
854.0
856.0
855.0
852.0
853.0
854.0
851.0
851.0
850.0
847.0
853.0
849.0
855.0
857.0
857.0
856.0
853.0
850.0
849.0
848.0
847.0
847.0
851.0
850.0
852.0
852.0
850.0
847.0
848.0
844.0
846.0
844.0
844.0
843.0
844.0
843.0
847.0
847.0
846.0
847.0
847.0
842.0
838.0
841.0
839.0
841.0
842.0
845.0
845.0
848.0
848.0
845.0
843.0
840.0
841.0
840.0
837.0
837.0
838.0
841.0
842.0
842.0
846.0
845.0
844.0
845.0
843.0
841.0
838.0
839.0
842.0
841.0
842.0
842.0
841.0
841.0
842.0
841.0
839.0
839.0
838.0
840.0
836.0
839.0
838.0
842.0
845.0
842.0
842.0
841.0
839.0
837.0
836.0
840.0
840.0
840.0
845.0
845.0
844.0
844.0
844.0
839.0
837.0
838.0
837.0
838.0
840.0
842.0
844.0
846.0
843.0
840.0
840.0
839.0
835.0
838.0
842.0
841.0
844.0
845.0
847.0
845.0
844.0
845.0
843.0
841.0
842.0
841.0
839.0
842.0
842.0
844.0
845.0
847.0
847.0
845.0
843.0
839.0
838.0
837.0
839.0
842.0
841.0
843.0
844.0
845.0
846.0
846.0
843.0
842.0
842.0
839.0
842.0
840.0
843.0
847.0
848.0
852.0
857.0
855.0
857.0
855.0
858.0
857.0
858.0
860.0
864.0
866.0
873.0
878.0
887.0
886.0
886.0
887.0
887.0
882.0
878.0
877.0
874.0
877.0
881.0
882.0
883.0
879.0
874.0
866.0
859.0
850.0
846.0
841.0
841.0
845.0
847.0
847.0
843.0
840.0
837.0
835.0
832.0
831.0
832.0
832.0
833.0
836.0
840.0
839.0
838.0
838.0
836.0
833.0
832.0
832.0
831.0
831.0
833.0
837.0
839.0
839.0
839.0
840.0
840.0
839.0
839.0
840.0
840.0
843.0
842.0
847.0
851.0
852.0
853.0
854.0
851.0
851.0
852.0
854.0
867.0
889.0
926.0
977.0
1024.0
1079.0
1129.0
1185.0
1235.0
1265.0
1269.0
1236.0
1169.0
1076.0
969.0
857.0
765.0
706.0
684.0
691.0
715.0
742.0
764.0
782.0
787.0
793.0
800.0
811.0
825.0
832.0
839.0
843.0
844.0
841.0
839.0
836.0
835.0
836.0
837.0
842.0
843.0
846.0
847.0
846.0
843.0
844.0
841.0
841.0
841.0
841.0
841.0
843.0
846.0
848.0
847.0
846.0
843.0
843.0
843.0
844.0
844.0
844.0
843.0
848.0
849.0
849.0
848.0
850.0
847.0
846.0
842.0
842.0
842.0
843.0
846.0
848.0
850.0
854.0
852.0
848.0
850.0
849.0
847.0
847.0
846.0
849.0
851.0
854.0
859.0
860.0
859.0
862.0
863.0
861.0
860.0
860.0
863.0
863.0
867.0
871.0
875.0
878.0
880.0
883.0
884.0
884.0
888.0
888.0
891.0
896.0
899.0
903.0
907.0
913.0
914.0
913.0
914.0
913.0
914.0
918.0
920.0
921.0
927.0
932.0
932.0
934.0
937.0
936.0
932.0
932.0
928.0
926.0
922.0
922.0
921.0
915.0
913.0
913.0
908.0
904.0
897.0
892.0
887.0
883.0
877.0
874.0
874.0
875.0
876.0
873.0
871.0
869.0
861.0
859.0
858.0
856.0
858.0
857.0
860.0
860.0
863.0
862.0
862.0
858.0
854.0
854.0
855.0
854.0
853.0
856.0
858.0
858.0
859.0
862.0
862.0
860.0
860.0
856.0
856.0
854.0
855.0
855.0
858.0
859.0
862.0
864.0
864.0
863.0
863.0
864.0
860.0
857.0
860.0
859.0
862.0
863.0
867.0
868.0
868.0
865.0
865.0
861.0
861.0
859.0
861.0
863.0
864.0
865.0
869.0
870.0
870.0
869.0
868.0
866.0
863.0
861.0
862.0
860.0
865.0
867.0
864.0
867.0
862.0
864.0
861.0
861.0
858.0
858.0
858.0
857.0
858.0
861.0
862.0
862.0
863.0
862.0
859.0
860.0
856.0
854.0
854.0
853.0
856.0
859.0
859.0
861.0
858.0
858.0
853.0
853.0
854.0
850.0
849.0
853.0
853.0
856.0
853.0
857.0
854.0
856.0
850.0
852.0
849.0
851.0
850.0
849.0
849.0
851.0
855.0
854.0
853.0
853.0
850.0
848.0
848.0
844.0
847.0
848.0
847.0
849.0
852.0
855.0
855.0
854.0
852.0
849.0
846.0
846.0
846.0
846.0
849.0
850.0
853.0
854.0
854.0
853.0
851.0
849.0
848.0
847.0
845.0
848.0
851.0
851.0
852.0
854.0
850.0
851.0
853.0
849.0
847.0
848.0
845.0
849.0
849.0
851.0
852.0
854.0
851.0
853.0
852.0
852.0
849.0
849.0
849.0
849.0
848.0
849.0
852.0
853.0
853.0
854.0
851.0
851.0
849.0
847.0
846.0
848.0
851.0
855.0
855.0
855.0
855.0
855.0
854.0
849.0
849.0
850.0
850.0
850.0
854.0
854.0
855.0
857.0
855.0
853.0
850.0
851.0
851.0
849.0
850.0
847.0
848.0
856.0
858.0
855.0
857.0
856.0
854.0
853.0
852.0
850.0
852.0
852.0
853.0
852.0
856.0
857.0
855.0
853.0
855.0
851.0
853.0
853.0
853.0
853.0
860.0
861.0
865.0
869.0
872.0
872.0
872.0
873.0
870.0
870.0
871.0
877.0
880.0
887.0
892.0
894.0
896.0
899.0
897.0
894.0
891.0
886.0
883.0
881.0
877.0
882.0
880.0
881.0
879.0
880.0
874.0
867.0
864.0
853.0
849.0
847.0
847.0
849.0
846.0
845.0
844.0
841.0
836.0
837.0
839.0
838.0
836.0
836.0
839.0
839.0
841.0
842.0
841.0
839.0
840.0
838.0
834.0
834.0
833.0
836.0
837.0
838.0
843.0
844.0
842.0
843.0
842.0
839.0
838.0
838.0
840.0
842.0
845.0
845.0
846.0
850.0
848.0
852.0
855.0
854.0
858.0
863.0
877.0
903.0
941.0
987.0
1040.0
1095.0
1148.0
1208.0
1253.0
1280.0
1269.0
1222.0
1140.0
1031.0
916.0
813.0
743.0
712.0
719.0
752.0
787.0
814.0
829.0
830.0
827.0
825.0
826.0
830.0
834.0
841.0
845.0
846.0
844.0
838.0
835.0
836.0
831.0
834.0
838.0
840.0
842.0
846.0
846.0
846.0
840.0
836.0
832.0
834.0
833.0
833.0
839.0
841.0
844.0
842.0
842.0
843.0
843.0
843.0
839.0
838.0
839.0
836.0
837.0
840.0
846.0
846.0
847.0
847.0
846.0
845.0
843.0
844.0
842.0
842.0
847.0
849.0
848.0
849.0
850.0
848.0
845.0
848.0
850.0
851.0
850.0
849.0
853.0
854.0
856.0
862.0
862.0
864.0
864.0
863.0
862.0
865.0
867.0
870.0
872.0
876.0
879.0
886.0
887.0
890.0
889.0
894.0
896.0
897.0
900.0
901.0
904.0
911.0
918.0
917.0
922.0
923.0
925.0
925.0
926.0
928.0
929.0
934.0
936.0
941.0
943.0
947.0
949.0
948.0
946.0
944.0
938.0
935.0
934.0
931.0
930.0
927.0
925.0
920.0
914.0
914.0
909.0
901.0
894.0
892.0
887.0
886.0
882.0
880.0
877.0
877.0
875.0
874.0
870.0
867.0
862.0
856.0
859.0
860.0
859.0
861.0
860.0
862.0
859.0
860.0
854.0
855.0
852.0
851.0
853.0
853.0
854.0
856.0
860.0
859.0
857.0
858.0
857.0
853.0
853.0
850.0
848.0
850.0
850.0
854.0
857.0
859.0
862.0
858.0
858.0
855.0
854.0
852.0
852.0
854.0
855.0
858.0
860.0
861.0
861.0
860.0
858.0
857.0
857.0
855.0
854.0
855.0
856.0
859.0
861.0
862.0
861.0
862.0
861.0
858.0
856.0
853.0
852.0
854.0
853.0
856.0
858.0
858.0
856.0
857.0
856.0
853.0
851.0
850.0
849.0
846.0
849.0
849.0
847.0
852.0
851.0
853.0
852.0
848.0
845.0
841.0
841.0
841.0
844.0
848.0
848.0
850.0
848.0
846.0
848.0
845.0
844.0
842.0
844.0
843.0
844.0
847.0
849.0
849.0
850.0
849.0
847.0
842.0
838.0
841.0
844.0
841.0
842.0
842.0
846.0
846.0
847.0
846.0
846.0
842.0
841.0
839.0
838.0
842.0
841.0
843.0
845.0
849.0
844.0
850.0
847.0
844.0
840.0
840.0
840.0
841.0
841.0
844.0
845.0
848.0
848.0
846.0
847.0
844.0
842.0
843.0
840.0
838.0
841.0
843.0
845.0
849.0
848.0
847.0
847.0
843.0
842.0
842.0
840.0
841.0
843.0
848.0
843.0
845.0
843.0
846.0
847.0
845.0
845.0
843.0
841.0
841.0
841.0
845.0
846.0
850.0
849.0
850.0
851.0
845.0
846.0
840.0
843.0
844.0
845.0
848.0
850.0
850.0
850.0
853.0
850.0
847.0
840.0
839.0
839.0
842.0
843.0
845.0
848.0
851.0
850.0
850.0
847.0
846.0
843.0
842.0
844.0
845.0
848.0
849.0
852.0
854.0
852.0
850.0
851.0
850.0
848.0
846.0
842.0
844.0
845.0
847.0
849.0
850.0
852.0
849.0
850.0
848.0
846.0
843.0
844.0
845.0
843.0
848.0
849.0
853.0
854.0
852.0
853.0
850.0
849.0
848.0
847.0
845.0
849.0
852.0
855.0
859.0
860.0
865.0
866.0
865.0
867.0
869.0
871.0
870.0
871.0
876.0
878.0
881.0
885.0
888.0
890.0
891.0
890.0
888.0
885.0
884.0
880.0
878.0
878.0
880.0
879.0
879.0
876.0
870.0
864.0
860.0
856.0
850.0
845.0
845.0
846.0
844.0
842.0
841.0
838.0
834.0
835.0
831.0
833.0
835.0
834.0
837.0
837.0
837.0
835.0
838.0
833.0
831.0
828.0
830.0
830.0
832.0
837.0
836.0
839.0
842.0
841.0
839.0
840.0
838.0
836.0
837.0
835.0
837.0
838.0
841.0
845.0
848.0
847.0
849.0
851.0
851.0
849.0
852.0
859.0
876.0
905.0
946.0
998.0
1053.0
1109.0
1172.0
1219.0
1241.0
1230.0
1171.0
1074.0
961.0
846.0
760.0
710.0
703.0
725.0
759.0
790.0
806.0
811.0
809.0
809.0
810.0
818.0
826.0
835.0
844.0
840.0
845.0
841.0
837.0
835.0
834.0
831.0
834.0
833.0
839.0
840.0
843.0
844.0
842.0
842.0
840.0
840.0
836.0
836.0
835.0
838.0
839.0
840.0
842.0
841.0
841.0
843.0
842.0
833.0
833.0
836.0
836.0
838.0
838.0
843.0
846.0
848.0
845.0
842.0
840.0
842.0
840.0
841.0
839.0
840.0
845.0
846.0
849.0
850.0
848.0
846.0
844.0
846.0
846.0
843.0
847.0
848.0
850.0
853.0
858.0
858.0
860.0
858.0
861.0
862.0
862.0
864.0
870.0
873.0
877.0
879.0
883.0
886.0
885.0
887.0
892.0
892.0
894.0
893.0
895.0
900.0
908.0
913.0
917.0
920.0
921.0
924.0
924.0
924.0
926.0
926.0
928.0
932.0
936.0
940.0
941.0
938.0
936.0
933.0
931.0
928.0
921.0
917.0
915.0
916.0
913.0
911.0
908.0
903.0
900.0
893.0
887.0
881.0
874.0
871.0
869.0
866.0
868.0
867.0
868.0
864.0
865.0
861.0
858.0
857.0
853.0
848.0
846.0
851.0
852.0
851.0
854.0
851.0
850.0
848.0
846.0
850.0
848.0
847.0
846.0
850.0
850.0
854.0
856.0
855.0
858.0
855.0
855.0
852.0
851.0
850.0
851.0
850.0
852.0
855.0
855.0
856.0
859.0
854.0
855.0
854.0
853.0
852.0
852.0
853.0
857.0
861.0
863.0
862.0
863.0
862.0
856.0
856.0
856.0
857.0
858.0
858.0
861.0
859.0
861.0
862.0
863.0
858.0
855.0
852.0
855.0
854.0
849.0
854.0
854.0
856.0
857.0
857.0
854.0
850.0
850.0
852.0
855.0
850.0
849.0
849.0
852.0
853.0
856.0
855.0
855.0
852.0
850.0
849.0
845.0
844.0
844.0
845.0
850.0
850.0
852.0
849.0
853.0
851.0
847.0
848.0
849.0
847.0
845.0
846.0
848.0
848.0
849.0
851.0
850.0
849.0
846.0
845.0
844.0
841.0
844.0
844.0
848.0
848.0
850.0
849.0
852.0
845.0
845.0
847.0
844.0
843.0
843.0
844.0
846.0
846.0
850.0
852.0
852.0
852.0
849.0
846.0
845.0
842.0
843.0
845.0
846.0
846.0
846.0
847.0
851.0
849.0
847.0
844.0
841.0
841.0
841.0
841.0
842.0
847.0
852.0
851.0
852.0
852.0
846.0
847.0
846.0
844.0
845.0
844.0
849.0
849.0
852.0
853.0
852.0
851.0
848.0
846.0
845.0
844.0
844.0
847.0
852.0
850.0
852.0
851.0
852.0
850.0
845.0
847.0
844.0
846.0
846.0
847.0
846.0
849.0
852.0
854.0
853.0
852.0
848.0
848.0
847.0
845.0
845.0
846.0
850.0
848.0
854.0
856.0
856.0
857.0
858.0
857.0
858.0
859.0
860.0
864.0
868.0
872.0
877.0
875.0
876.0
876.0
879.0
882.0
888.0
890.0
892.0
894.0
898.0
896.0
894.0
894.0
891.0
888.0
888.0
886.0
882.0
881.0
877.0
871.0
868.0
863.0
860.0
856.0
855.0
853.0
850.0
848.0
844.0
843.0
841.0
839.0
842.0
847.0
847.0
845.0
846.0
844.0
843.0
840.0
837.0
836.0
837.0
838.0
839.0
846.0
849.0
846.0
845.0
847.0
847.0
843.0
843.0
843.0
845.0
845.0
847.0
851.0
853.0
851.0
850.0
853.0
852.0
853.0
850.0
853.0
853.0
853.0
858.0
861.0
867.0
870.0
876.0
892.0
919.0
960.0
1009.0
1057.0
1117.0
1174.0
1232.0
1268.0
1276.0
1248.0
1182.0
1088.0
976.0
862.0
767.0
710.0
689.0
700.0
729.0
765.0
790.0
806.0
814.0
816.0
819.0
819.0
830.0
838.0
843.0
846.0
851.0
850.0
850.0
850.0
847.0
849.0
844.0
846.0
845.0
845.0
846.0
846.0
850.0
855.0
855.0
856.0
853.0
856.0
853.0
853.0
851.0
851.0
850.0
852.0
854.0
854.0
853.0
853.0
855.0
856.0
854.0
852.0
852.0
850.0
848.0
851.0
851.0
854.0
856.0
858.0
857.0
858.0
856.0
852.0
852.0
849.0
850.0
855.0
857.0
860.0
860.0
863.0
865.0
862.0
860.0
861.0
861.0
858.0
859.0
866.0
868.0
872.0
875.0
876.0
