# Simple Text Format
# Sampling Rate (Hz):= 360.00
# Resolution:= 12
# Labels:= ECG
846.0
844.0
848.0
848.0
852.0
852.0
852.0
849.0
848.0
848.0
846.0
847.0
847.0
845.0
849.0
851.0
853.0
850.0
852.0
851.0
845.0
846.0
845.0
845.0
844.0
846.0
848.0
851.0
852.0
849.0
851.0
851.0
849.0
849.0
847.0
848.0
849.0
848.0
853.0
856.0
859.0
860.0
862.0
860.0
858.0
858.0
857.0
858.0
861.0
861.0
866.0
869.0
871.0
872.0
873.0
875.0
875.0
876.0
877.0
879.0
881.0
883.0
888.0
894.0
894.0
898.0
900.0
900.0
902.0
902.0
901.0
903.0
904.0
909.0
913.0
915.0
915.0
912.0
917.0
918.0
920.0
920.0
918.0
916.0
915.0
919.0
918.0
921.0
921.0
918.0
914.0
909.0
904.0
898.0
895.0
888.0
888.0
884.0
885.0
884.0
882.0
880.0
875.0
873.0
871.0
867.0
863.0
863.0
860.0
860.0
859.0
859.0
863.0
863.0
866.0
864.0
857.0
855.0
854.0
855.0
855.0
857.0
858.0
863.0
864.0
862.0
863.0
860.0
859.0
852.0
855.0
857.0
855.0
856.0
858.0
861.0
861.0
865.0
865.0
862.0
859.0
861.0
859.0
861.0
860.0
860.0
859.0
864.0
862.0
864.0
866.0
866.0
861.0
857.0
860.0
856.0
859.0
859.0
862.0
866.0
865.0
865.0
869.0
864.0
861.0
859.0
857.0
855.0
855.0
852.0
859.0
858.0
863.0
858.0
858.0
856.0
853.0
850.0
850.0
852.0
852.0
850.0
853.0
858.0
859.0
858.0
858.0
856.0
854.0
852.0
852.0
847.0
849.0
851.0
853.0
855.0
857.0
854.0
854.0
851.0
850.0
849.0
849.0
846.0
848.0
848.0
850.0
851.0
853.0
855.0
853.0
851.0
851.0
849.0
848.0
846.0
845.0
848.0
848.0
851.0
850.0
850.0
851.0
846.0
847.0
844.0
845.0
846.0
842.0
845.0
847.0
849.0
848.0
849.0
850.0
849.0
846.0
843.0
841.0
840.0
841.0
841.0
845.0
847.0
848.0
850.0
848.0
848.0
846.0
843.0
842.0
841.0
843.0
843.0
844.0
844.0
849.0
847.0
848.0
847.0
843.0
844.0
842.0
841.0
840.0
843.0
845.0
842.0
846.0
845.0
848.0
842.0
842.0
843.0
842.0
839.0
839.0
843.0
845.0
845.0
849.0
846.0
848.0
845.0
841.0
843.0
841.0
842.0
843.0
842.0
846.0
846.0
849.0
848.0
848.0
845.0
848.0
844.0
842.0
841.0
841.0
842.0
842.0
845.0
850.0
847.0
846.0
848.0
843.0
845.0
845.0
844.0
845.0
847.0
852.0
855.0
861.0
865.0
867.0
868.0
865.0
865.0
868.0
867.0
867.0
871.0
878.0
880.0
879.0
879.0
876.0
873.0
868.0
866.0
864.0
861.0
862.0
863.0
864.0
869.0
866.0
863.0
857.0
850.0
846.0
843.0
839.0
835.0
832.0
833.0
834.0
834.0
837.0
837.0
837.0
838.0
835.0
833.0
827.0
829.0
828.0
829.0
830.0
835.0
833.0
836.0
836.0
835.0
834.0
833.0
833.0
834.0
832.0
832.0
835.0
837.0
840.0
840.0
841.0
842.0
839.0
835.0
837.0
838.0
836.0
843.0
845.0
848.0
853.0
857.0
860.0
873.0
894.0
930.0
978.0
1025.0
1080.0
1137.0
1196.0
1245.0
1270.0
1258.0
1198.0
1100.0
975.0
849.0
755.0
703.0
697.0
726.0
771.0
803.0
826.0
836.0
835.0
831.0
828.0
828.0
835.0
836.0
840.0
841.0
844.0
843.0
845.0
845.0
842.0
842.0
842.0
840.0
839.0
838.0
837.0
836.0
840.0
843.0
843.0
844.0
843.0
845.0
841.0
839.0
838.0
836.0
836.0
836.0
843.0
840.0
843.0
841.0
841.0
842.0
842.0
840.0
837.0
839.0
839.0
842.0
842.0
842.0
845.0
847.0
847.0
845.0
844.0
842.0
841.0
839.0
843.0
847.0
847.0
849.0
854.0
853.0
853.0
853.0
853.0
854.0
854.0
853.0
855.0
856.0
860.0
864.0
870.0
870.0
872.0
872.0
870.0
874.0
877.0
877.0
881.0
883.0
887.0
891.0
894.0
898.0
899.0
903.0
902.0
903.0
902.0
904.0
908.0
912.0
917.0
921.0
924.0
928.0
926.0
928.0
928.0
924.0
922.0
922.0
920.0
919.0
921.0
919.0
918.0
913.0
911.0
908.0
903.0
896.0
890.0
885.0
883.0
878.0
877.0
873.0
875.0
871.0
865.0
864.0
858.0
858.0
852.0
847.0
850.0
849.0
850.0
853.0
852.0
851.0
852.0
849.0
847.0
847.0
845.0
844.0
844.0
846.0
848.0
849.0
851.0
849.0
852.0
852.0
850.0
847.0
847.0
847.0
847.0
848.0
847.0
849.0
853.0
856.0
854.0
856.0
855.0
850.0
851.0
849.0
849.0
850.0
851.0
854.0
857.0
858.0
857.0
856.0
854.0
851.0
851.0
849.0
849.0
849.0
855.0
856.0
858.0
857.0
858.0
856.0
856.0
852.0
850.0
849.0
847.0
849.0
853.0
854.0
855.0
856.0
854.0
851.0
846.0
846.0
843.0
843.0
843.0
843.0
845.0
846.0
847.0
847.0
848.0
845.0
843.0
841.0
841.0
841.0
837.0
839.0
841.0
841.0
844.0
844.0
844.0
844.0
840.0
840.0
837.0
838.0
836.0
839.0
839.0
842.0
839.0
841.0
842.0
839.0
836.0
837.0
837.0
837.0
836.0
836.0
836.0
837.0
840.0
841.0
842.0
840.0
838.0
838.0
836.0
835.0
835.0
836.0
838.0
840.0
838.0
843.0
842.0
843.0
842.0
840.0
838.0
834.0
834.0
836.0
837.0
840.0
839.0
841.0
841.0
841.0
837.0
836.0
833.0
836.0
836.0
837.0
839.0
841.0
841.0
840.0
842.0
843.0
839.0
838.0
836.0
834.0
834.0
835.0
836.0
838.0
840.0
842.0
841.0
842.0
835.0
836.0
832.0
833.0
832.0
836.0
839.0
840.0
840.0
841.0
841.0
840.0
836.0
839.0
836.0
837.0
833.0
834.0
836.0
839.0
838.0
838.0
841.0
841.0
841.0
839.0
836.0
837.0
836.0
837.0
838.0
839.0
841.0
843.0
842.0
843.0
838.0
838.0
837.0
835.0
838.0
836.0
839.0
839.0
845.0
846.0
848.0
845.0
842.0
839.0
837.0
835.0
836.0
838.0
840.0
843.0
841.0
843.0
845.0
842.0
844.0
843.0
843.0
843.0
842.0
841.0
845.0
850.0
859.0
860.0
863.0
867.0
865.0
868.0
866.0
866.0
865.0
867.0
869.0
874.0
880.0
880.0
880.0
875.0
873.0
868.0
864.0
862.0
862.0
860.0
860.0
862.0
864.0
865.0
862.0
856.0
851.0
845.0
842.0
837.0
834.0
830.0
830.0
832.0
832.0
831.0
831.0
830.0
829.0
827.0
824.0
825.0
824.0
824.0
825.0
829.0
832.0
831.0
831.0
831.0
826.0
824.0
824.0
825.0
824.0
826.0
829.0
830.0
831.0
831.0
830.0
833.0
833.0
831.0
832.0
828.0
832.0
832.0
835.0
837.0
839.0
842.0
846.0
847.0
854.0
860.0
881.0
913.0
955.0
1005.0
1055.0
1109.0
1161.0
1213.0
1244.0
1241.0
1199.0
1116.0
1016.0
908.0
807.0
736.0
704.0
707.0
736.0
768.0
793.0
809.0
809.0
808.0
804.0
803.0
811.0
819.0
828.0
838.0
839.0
837.0
836.0
833.0
834.0
829.0
830.0
827.0
831.0
831.0
833.0
836.0
837.0
840.0
838.0
841.0
838.0
838.0
835.0
834.0
834.0
834.0
834.0
837.0
837.0
836.0
837.0
840.0
837.0
834.0
833.0
832.0
832.0
831.0
834.0
833.0
835.0
838.0
841.0
838.0
841.0
837.0
833.0
832.0
833.0
836.0
839.0
839.0
840.0
842.0
843.0
845.0
844.0
842.0
844.0
844.0
843.0
845.0
850.0
849.0
853.0
851.0
854.0
855.0
857.0
857.0
856.0
856.0
863.0
864.0
865.0
869.0
876.0
881.0
881.0
884.0
885.0
885.0
885.0
888.0
884.0
887.0
891.0
896.0
901.0
905.0
907.0
909.0
911.0
913.0
907.0
913.0
917.0
915.0
918.0
921.0
922.0
925.0
922.0
923.0
919.0
917.0
914.0
908.0
908.0
900.0
897.0
896.0
895.0
892.0
887.0
881.0
878.0
871.0
868.0
864.0
856.0
860.0
856.0
857.0
856.0
854.0
854.0
852.0
850.0
850.0
849.0
846.0
844.0
843.0
844.0
845.0
847.0
849.0
849.0
848.0
847.0
845.0
845.0
843.0
845.0
843.0
844.0
846.0
845.0
851.0
849.0
846.0
848.0
847.0
848.0
846.0
846.0
849.0
846.0
849.0
850.0
849.0
853.0
853.0
851.0
850.0
849.0
848.0
849.0
851.0
850.0
852.0
852.0
857.0
857.0
853.0
853.0
851.0
853.0
847.0
848.0
851.0
850.0
853.0
855.0
856.0
855.0
854.0
852.0
850.0
846.0
844.0
842.0
845.0
847.0
850.0
847.0
847.0
847.0
846.0
847.0
843.0
843.0
842.0
841.0
842.0
842.0
843.0
845.0
845.0
847.0
844.0
846.0
839.0
841.0
835.0
840.0
841.0
841.0
839.0
843.0
842.0
840.0
840.0
840.0
838.0
838.0
838.0
834.0
840.0
840.0
841.0
844.0
843.0
845.0
846.0
841.0
837.0
835.0
834.0
833.0
838.0
839.0
842.0
839.0
844.0
844.0
840.0
842.0
839.0
836.0
836.0
838.0
837.0
841.0
844.0
845.0
848.0
847.0
846.0
847.0
843.0
841.0
837.0
838.0
840.0
843.0
844.0
847.0
847.0
849.0
846.0
843.0
842.0
841.0
839.0
839.0
840.0
845.0
846.0
846.0
847.0
849.0
847.0
847.0
844.0
843.0
842.0
842.0
841.0
842.0
845.0
845.0
847.0
848.0
848.0
845.0
842.0
839.0
840.0
838.0
839.0
840.0
844.0
848.0
848.0
848.0
851.0
850.0
849.0
850.0
846.0
849.0
855.0
860.0
863.0
867.0
869.0
872.0
873.0
872.0
874.0
876.0
877.0
881.0
881.0
882.0
884.0
880.0
880.0
880.0
873.0
871.0
870.0
870.0
867.0
867.0
868.0
866.0
864.0
861.0
859.0
854.0
846.0
844.0
843.0
843.0
842.0
839.0
838.0
836.0
838.0
836.0
837.0
838.0
840.0
837.0
835.0
835.0
832.0
831.0
831.0
835.0
837.0
839.0
838.0
841.0
837.0
834.0
835.0
836.0
836.0
838.0
839.0
841.0
841.0
845.0
842.0
844.0
846.0
848.0
847.0
846.0
844.0
843.0
842.0
845.0
849.0
854.0
860.0
874.0
899.0
938.0
981.0
1033.0
1085.0
1144.0
1203.0
1249.0
1269.0
1253.0
1200.0
1117.0
1012.0
903.0
799.0
727.0
692.0
690.0
712.0
739.0
769.0
790.0
807.0
814.0
820.0
828.0
834.0
839.0
843.0
843.0
843.0
843.0
842.0
846.0
847.0
848.0
849.0
850.0
846.0
843.0
844.0
841.0
845.0
845.0
845.0
846.0
849.0
850.0
850.0
849.0
849.0
847.0
846.0
845.0
845.0
845.0
847.0
847.0
850.0
851.0
851.0
847.0
846.0
843.0
843.0
843.0
843.0
845.0
849.0
849.0
850.0
852.0
853.0
852.0
849.0
850.0
849.0
850.0
850.0
850.0
853.0
854.0
856.0
855.0
857.0
858.0
859.0
858.0
857.0
853.0
856.0
859.0
862.0
867.0
871.0
872.0
874.0
872.0
872.0
875.0
878.0
877.0
879.0
883.0
888.0
891.0
894.0
894.0
897.0
899.0
898.0
901.0
903.0
903.0
901.0
906.0
910.0
916.0
917.0
921.0
920.0
921.0
921.0
919.0
921.0
918.0
919.0
922.0
922.0
920.0
920.0
919.0
915.0
911.0
905.0
905.0
898.0
890.0
888.0
887.0
882.0
883.0
884.0
881.0
878.0
876.0
872.0
868.0
866.0
863.0
863.0
860.0
862.0
862.0
865.0
864.0
862.0
864.0
861.0
860.0
859.0
854.0
853.0
858.0
861.0
860.0
860.0
858.0
857.0
862.0
858.0
856.0
857.0
855.0
855.0
856.0
862.0
860.0
864.0
861.0
866.0
864.0
863.0
863.0
864.0
860.0
860.0
864.0
867.0
867.0
869.0
870.0
871.0
867.0
867.0
862.0
863.0
860.0
861.0
862.0
863.0
865.0
869.0
865.0
867.0
866.0
865.0
864.0
862.0
860.0
861.0
861.0
863.0
864.0
865.0
866.0
865.0
864.0
862.0
860.0
858.0
860.0
856.0
858.0
857.0
858.0
857.0
859.0
859.0
860.0
858.0
855.0
853.0
851.0
850.0
852.0
853.0
854.0
855.0
858.0
854.0
856.0
853.0
851.0
850.0
848.0
848.0
849.0
848.0
851.0
852.0
851.0
854.0
852.0
850.0
849.0
847.0
845.0
847.0
850.0
847.0
851.0
853.0
853.0
851.0
852.0
849.0
848.0
846.0
847.0
845.0
846.0
847.0
851.0
853.0
854.0
853.0
850.0
849.0
846.0
846.0
843.0
845.0
845.0
846.0
848.0
850.0
851.0
851.0
850.0
848.0
845.0
845.0
843.0
843.0
843.0
848.0
850.0
849.0
850.0
849.0
847.0
848.0
845.0
844.0
845.0
842.0
845.0
846.0
851.0
850.0
850.0
852.0
851.0
847.0
849.0
848.0
845.0
842.0
846.0
850.0
848.0
850.0
850.0
849.0
851.0
848.0
846.0
845.0
845.0
843.0
839.0
844.0
847.0
853.0
852.0
851.0
849.0
850.0
846.0
849.0
847.0
848.0
850.0
852.0
855.0
856.0
860.0
860.0
863.0
866.0
867.0
865.0
865.0
865.0
872.0
871.0
879.0
880.0
883.0
884.0
885.0
882.0
877.0
873.0
869.0
868.0
870.0
868.0
871.0
869.0
870.0
872.0
871.0
866.0
859.0
860.0
855.0
847.0
844.0
842.0
843.0
839.0
841.0
843.0
839.0
837.0
835.0
832.0
831.0
831.0
832.0
837.0
840.0
840.0
839.0
840.0
840.0
838.0
837.0
835.0
834.0
835.0
832.0
837.0
839.0
837.0
837.0
843.0
845.0
842.0
839.0
838.0
834.0
836.0
839.0
843.0
847.0
850.0
851.0
853.0
855.0
854.0
855.0
859.0
866.0
886.0
919.0
961.0
1011.0
1063.0
1117.0
1171.0
1226.0
1265.0
1281.0
1267.0
1219.0
1139.0
1038.0
932.0
832.0
758.0
718.0
715.0
740.0
772.0
805.0
824.0
830.0
828.0
826.0
827.0
832.0
838.0
846.0
849.0
850.0
847.0
845.0
842.0
840.0
840.0
840.0
843.0
845.0
846.0
847.0
847.0
844.0
844.0
845.0
839.0
841.0
840.0
841.0
844.0
845.0
845.0
846.0
847.0
844.0
839.0
839.0
838.0
840.0
843.0
839.0
842.0
845.0
848.0
847.0
848.0
848.0
846.0
846.0
844.0
843.0
844.0
843.0
845.0
846.0
851.0
851.0
852.0
851.0
851.0
849.0
845.0
843.0
845.0
849.0
849.0
854.0
857.0
859.0
861.0
862.0
860.0
859.0
862.0
862.0
865.0
867.0
870.0
872.0
877.0
879.0
884.0
882.0
883.0
884.0
885.0
886.0
888.0
891.0
899.0
902.0
905.0
908.0
911.0
913.0
913.0
915.0
916.0
917.0
920.0
923.0
926.0
930.0
931.0
935.0
935.0
931.0
930.0
930.0
926.0
923.0
920.0
918.0
917.0
916.0
912.0
907.0
902.0
900.0
895.0
885.0
883.0
879.0
873.0
871.0
867.0
867.0
867.0
869.0
865.0
861.0
859.0
856.0
854.0
854.0
851.0
852.0
850.0
853.0
855.0
854.0
853.0
852.0
853.0
849.0
851.0
848.0
848.0
845.0
845.0
850.0
853.0
853.0
856.0
849.0
848.0
849.0
848.0
846.0
848.0
849.0
853.0
854.0
856.0
854.0
855.0
856.0
852.0
851.0
850.0
850.0
849.0
850.0
855.0
851.0
855.0
857.0
855.0
856.0
854.0
851.0
849.0
849.0
849.0
849.0
853.0
853.0
855.0
851.0
851.0
854.0
851.0
849.0
848.0
849.0
850.0
849.0
849.0
851.0
851.0
853.0
850.0
854.0
849.0
846.0
845.0
845.0
842.0
841.0
842.0
843.0
844.0
843.0
844.0
847.0
846.0
846.0
840.0
840.0
837.0
841.0
841.0
842.0
845.0
846.0
845.0
844.0
842.0
837.0
837.0
835.0
835.0
837.0
838.0
838.0
838.0
841.0
841.0
842.0
839.0
839.0
836.0
836.0
837.0
836.0
838.0
841.0
839.0
841.0
843.0
842.0
842.0
840.0
839.0
837.0
837.0
837.0
840.0
841.0
842.0
844.0
842.0
842.0
841.0
836.0
838.0
836.0
831.0
837.0
839.0
842.0
840.0
843.0
842.0
842.0
839.0
841.0
839.0
841.0
841.0
840.0
842.0
842.0
846.0
844.0
842.0
841.0
841.0
839.0
839.0
837.0
838.0
838.0
839.0
842.0
844.0
844.0
845.0
842.0
842.0
843.0
837.0
837.0
838.0
839.0
842.0
841.0
846.0
846.0
847.0
845.0
844.0
843.0
840.0
841.0
838.0
841.0
840.0
843.0
841.0
846.0
846.0
844.0
841.0
842.0
838.0
837.0
837.0
838.0
841.0
845.0
845.0
847.0
846.0
843.0
844.0
843.0
840.0
841.0
840.0
840.0
843.0
846.0
848.0
850.0
850.0
852.0
849.0
849.0
848.0
847.0
851.0
854.0
860.0
866.0
870.0
870.0
872.0
872.0
870.0
870.0
873.0
876.0
876.0
874.0
875.0
877.0
875.0
874.0
872.0
870.0
863.0
861.0
862.0
859.0
863.0
860.0
857.0
856.0
856.0
851.0
849.0
839.0
838.0
833.0
835.0
833.0
831.0
827.0
828.0
832.0
836.0
835.0
835.0
832.0
832.0
832.0
831.0
830.0
830.0
833.0
832.0
833.0
836.0
838.0
835.0
838.0
835.0
834.0
835.0
833.0
834.0
836.0
838.0
840.0
845.0
846.0
846.0
847.0
848.0
847.0
848.0
848.0
853.0
866.0
890.0
925.0
972.0
1021.0
1070.0
1125.0
1180.0
1222.0
1247.0
1240.0
1193.0
1110.0
1004.0
890.0
791.0
733.0
715.0
728.0
759.0
790.0
817.0
823.0
826.0
821.0
823.0
827.0
835.0
841.0
844.0
844.0
843.0
838.0
836.0
835.0
834.0
836.0
839.0
841.0
841.0
843.0
844.0
843.0
839.0
838.0
834.0
836.0
838.0
838.0
840.0
842.0
843.0
843.0
843.0
841.0
840.0
837.0
836.0
836.0
836.0
838.0
839.0
838.0
841.0
844.0
844.0
846.0
842.0
839.0
839.0
837.0
837.0
838.0
840.0
843.0
844.0
844.0
844.0
842.0
843.0
843.0
840.0
842.0
843.0
843.0
847.0
851.0
849.0
854.0
856.0
859.0
858.0
858.0
859.0
858.0
859.0
862.0
865.0
871.0
872.0
879.0
880.0
879.0
883.0
878.0
882.0
887.0
889.0
893.0
898.0
902.0
903.0
908.0
914.0
913.0
915.0
914.0
914.0
915.0
919.0
916.0
920.0
927.0
928.0
931.0
930.0
927.0
924.0
920.0
914.0
912.0
904.0
902.0
901.0
901.0
896.0
893.0
889.0
882.0
880.0
873.0
868.0
861.0
858.0
856.0
855.0
856.0
856.0
858.0
857.0
855.0
847.0
844.0
842.0
843.0
843.0
845.0
845.0
847.0
848.0
849.0
850.0
849.0
845.0
843.0
842.0
842.0
841.0
839.0
842.0
845.0
849.0
849.0
848.0
848.0
846.0
844.0
845.0
843.0
844.0
846.0
847.0
848.0
850.0
851.0
851.0
851.0
851.0
849.0
847.0
849.0
845.0
847.0
847.0
848.0
851.0
852.0
854.0
854.0
852.0
850.0
849.0
846.0
847.0
848.0
846.0
848.0
847.0
850.0
847.0
849.0
848.0
845.0
843.0
842.0
836.0
838.0
841.0
841.0
845.0
846.0
844.0
842.0
840.0
838.0
837.0
833.0
837.0
838.0
839.0
840.0
840.0
839.0
844.0
844.0
842.0
838.0
835.0
836.0
835.0
835.0
835.0
838.0
836.0
839.0
840.0
841.0
841.0
836.0
836.0
834.0
834.0
836.0
838.0
839.0
839.0
841.0
841.0
840.0
839.0
838.0
836.0
834.0
830.0
833.0
832.0
836.0
838.0
840.0
840.0
841.0
838.0
838.0
835.0
832.0
832.0
831.0
834.0
838.0
840.0
842.0
839.0
840.0
839.0
836.0
838.0
836.0
836.0
836.0
836.0
839.0
839.0
843.0
842.0
841.0
838.0
837.0
837.0
832.0
836.0
837.0
838.0
841.0
842.0
841.0
841.0
841.0
838.0
841.0
838.0
834.0
836.0
835.0
837.0
842.0
838.0
846.0
845.0
846.0
847.0
843.0
843.0
841.0
842.0
841.0
843.0
843.0
848.0
851.0
852.0
858.0
860.0
861.0
861.0
863.0
861.0
863.0
862.0
865.0
870.0
876.0
879.0
882.0
883.0
880.0
878.0
871.0
870.0
867.0
865.0
866.0
867.0
871.0
874.0
872.0
869.0
864.0
859.0
853.0
843.0
838.0
838.0
835.0
840.0
841.0
839.0
839.0
838.0
834.0
832.0
828.0
827.0
830.0
831.0
832.0
832.0
835.0
835.0
835.0
835.0
829.0
829.0
828.0
827.0
829.0
831.0
831.0
836.0
837.0
836.0
839.0
839.0
835.0
834.0
837.0
836.0
838.0
841.0
844.0
845.0
849.0
846.0
850.0
848.0
847.0
845.0
853.0
867.0
904.0
945.0
1000.0
1055.0
1114.0
1174.0
1231.0
1266.0
1272.0
1235.0
1162.0
1065.0
951.0
839.0
752.0
703.0
690.0
704.0
730.0
759.0
777.0
790.0
796.0
802.0
810.0
819.0
831.0
840.0
846.0
849.0
847.0
845.0
840.0
839.0
836.0
834.0
838.0
840.0
843.0
847.0
849.0
849.0
849.0
848.0
846.0
844.0
843.0
843.0
842.0
843.0
844.0
846.0
847.0
845.0
848.0
845.0
844.0
842.0
842.0
842.0
840.0
843.0
845.0
846.0
845.0
847.0
845.0
840.0
842.0
839.0
840.0
838.0
844.0
847.0
846.0
848.0
851.0
851.0
852.0
850.0
849.0
847.0
847.0
842.0
845.0
848.0
850.0
855.0
859.0
862.0
859.0
857.0
856.0
858.0
855.0
858.0
860.0
861.0
864.0
870.0
875.0
880.0
881.0
879.0
882.0
880.0
882.0
882.0
883.0
890.0
891.0
893.0
898.0
903.0
905.0
906.0
909.0
907.0
910.0
908.0
910.0
915.0
917.0
918.0
921.0
922.0
922.0
919.0
918.0
915.0
911.0
908.0
908.0
910.0
906.0
903.0
902.0
899.0
896.0
891.0
886.0
880.0
876.0
873.0
871.0
870.0
865.0
867.0
867.0
863.0
862.0
859.0
853.0
849.0
847.0
846.0
844.0
844.0
850.0
852.0
852.0
855.0
854.0
853.0
849.0
848.0
848.0
847.0
847.0
846.0
848.0
852.0
854.0
855.0
855.0
854.0
851.0
849.0
849.0
849.0
850.0
850.0
853.0
854.0
854.0
853.0
858.0
856.0
854.0
853.0
853.0
853.0
855.0
857.0
857.0
859.0
862.0
864.0
865.0
862.0
861.0
859.0
859.0
858.0
858.0
859.0
860.0
862.0
865.0
864.0
861.0
859.0
860.0
857.0
856.0
855.0
851.0
855.0
857.0
856.0
863.0
862.0
861.0
860.0
859.0
855.0
853.0
850.0
846.0
847.0
852.0
852.0
855.0
854.0
855.0
852.0
851.0
849.0
846.0
845.0
846.0
847.0
847.0
849.0
852.0
851.0
854.0
852.0
848.0
847.0
846.0
839.0
840.0
841.0
846.0
845.0
851.0
851.0
854.0
851.0
852.0
848.0
846.0
847.0
846.0
848.0
847.0
847.0
849.0
847.0
850.0
850.0
846.0
845.0
842.0
839.0
840.0
840.0
843.0
846.0
848.0
848.0
850.0
851.0
848.0
845.0
842.0
842.0
842.0
842.0
846.0
845.0
851.0
850.0
851.0
849.0
845.0
845.0
845.0
842.0
841.0
842.0
844.0
847.0
847.0
846.0
848.0
847.0
844.0
840.0
840.0
840.0
838.0
840.0
844.0
844.0
844.0
847.0
847.0
846.0
844.0
841.0
839.0
840.0
842.0
844.0
845.0
846.0
847.0
848.0
846.0
848.0
847.0
840.0
843.0
843.0
843.0
842.0
847.0
850.0
850.0
853.0
855.0
854.0
855.0
856.0
855.0
859.0
865.0
866.0
870.0
873.0
875.0
878.0
878.0
880.0
880.0
877.0
875.0
870.0
868.0
868.0
866.0
865.0
869.0
867.0
869.0
868.0
866.0
858.0
853.0
846.0
843.0
841.0
838.0
841.0
843.0
838.0
837.0
836.0
832.0
829.0
828.0
829.0
827.0
831.0
830.0
832.0
833.0
832.0
832.0
833.0
832.0
829.0
827.0
828.0
827.0
828.0
833.0
834.0
838.0
839.0
838.0
838.0
833.0
833.0
833.0
831.0
832.0
835.0
837.0
841.0
845.0
847.0
847.0
849.0
850.0
851.0
854.0
862.0
886.0
920.0
972.0
1022.0
1074.0
1131.0
1185.0
1238.0
1271.0
1270.0
1234.0
1158.0
1050.0
928.0
819.0
736.0
697.0
701.0
728.0
771.0
800.0
815.0
823.0
822.0
820.0
825.0
828.0
835.0
841.0
845.0
844.0
842.0
839.0
836.0
835.0
834.0
834.0
837.0
838.0
841.0
845.0
845.0
844.0
842.0
841.0
838.0
838.0
838.0
836.0
837.0
839.0
840.0
845.0
843.0
844.0
843.0
841.0
841.0
840.0
838.0
840.0
839.0
839.0
841.0
842.0
843.0
843.0
845.0
843.0
842.0
839.0
838.0
841.0
840.0
846.0
847.0
850.0
849.0
850.0
848.0
847.0
850.0
849.0
848.0
849.0
851.0
853.0
855.0
858.0
861.0
860.0
864.0
866.0
866.0
866.0
867.0
869.0
873.0
875.0
879.0
890.0
891.0
893.0
894.0
894.0
896.0
898.0
900.0
905.0
907.0
912.0
917.0
920.0
926.0
928.0
930.0
929.0
930.0
932.0
930.0
934.0
935.0
933.0
935.0
935.0
936.0
933.0
928.0
923.0
915.0
908.0
902.0
897.0
890.0
889.0
885.0
882.0
881.0
878.0
870.0
866.0
861.0
859.0
858.0
852.0
855.0
852.0
855.0
857.0
855.0
854.0
852.0
853.0
848.0
848.0
845.0
847.0
844.0
847.0
849.0
850.0
852.0
852.0
850.0
848.0
847.0
845.0
843.0
843.0
844.0
847.0
847.0
852.0
852.0
852.0
852.0
852.0
847.0
847.0
847.0
846.0
848.0
851.0
853.0
853.0
854.0
855.0
855.0
855.0
856.0
851.0
851.0
850.0
847.0
847.0
852.0
856.0
857.0
854.0
857.0
855.0
851.0
850.0
849.0
846.0
847.0
849.0
851.0
853.0
852.0
850.0
850.0
849.0
847.0
847.0
845.0
844.0
842.0
843.0
851.0
853.0
853.0
851.0
850.0
846.0
843.0
841.0
838.0
840.0
842.0
841.0
847.0
846.0
847.0
847.0
845.0
843.0
842.0
842.0
840.0
837.0
838.0
838.0
841.0
843.0
843.0
842.0
839.0
840.0
841.0
836.0
839.0
837.0
835.0
839.0
840.0
843.0
841.0
841.0
840.0
838.0
836.0
834.0
831.0
832.0
832.0
835.0
838.0
840.0
840.0
841.0
841.0
839.0
839.0
834.0
834.0
835.0
834.0
834.0
837.0
838.0
839.0
839.0
838.0
837.0
834.0
834.0
832.0
832.0
831.0
833.0
834.0
835.0
842.0
839.0
838.0
838.0
833.0
833.0
831.0
832.0
833.0
832.0
835.0
838.0
837.0
835.0
838.0
834.0
833.0
834.0
833.0
832.0
831.0
836.0
837.0
839.0
840.0
841.0
839.0
839.0
839.0
837.0
836.0
835.0
835.0
837.0
839.0
842.0
843.0
843.0
845.0
842.0
839.0
836.0
835.0
836.0
836.0
840.0
841.0
841.0
842.0
843.0
845.0
840.0
841.0
838.0
836.0
837.0
836.0
840.0
841.0
841.0
843.0
841.0
840.0
842.0
840.0
840.0
839.0
837.0
839.0
841.0
843.0
843.0
844.0
846.0
845.0
842.0
839.0
841.0
841.0
839.0
841.0
842.0
842.0
842.0
843.0
841.0
846.0
843.0
842.0
841.0
839.0
840.0
841.0
841.0
845.0
844.0
847.0
847.0
847.0
845.0
843.0
840.0
840.0
838.0
840.0
840.0
842.0
844.0
843.0
846.0
844.0
844.0
846.0
840.0
839.0
840.0
844.0
844.0
847.0
849.0
847.0
848.0
848.0
849.0
846.0
842.0
844.0
845.0
843.0
845.0
848.0
852.0
854.0
854.0
858.0
862.0
860.0
860.0
863.0
863.0
865.0
865.0
870.0
876.0
877.0
883.0
886.0
889.0
885.0
886.0
881.0
879.0
877.0
875.0
874.0
871.0
872.0
872.0
869.0
869.0
866.0
862.0
856.0
849.0
846.0
845.0
842.0
840.0
839.0
843.0
838.0
837.0
836.0
835.0
834.0
835.0
834.0
834.0
836.0
838.0
838.0
837.0
839.0
836.0
834.0
832.0
834.0
830.0
831.0
833.0
837.0
835.0
839.0
838.0
838.0
836.0
837.0
839.0
839.0
838.0
838.0
839.0
846.0
847.0
850.0
852.0
852.0
852.0
852.0
860.0
867.0
894.0
932.0
979.0
1029.0
1080.0
1135.0
1192.0
1240.0
1266.0
1259.0
1214.0
1138.0
1036.0
921.0
816.0
743.0
708.0
714.0
745.0
784.0
810.0
828.0
832.0
828.0
823.0
818.0
824.0
832.0
841.0
846.0
846.0
848.0
846.0
840.0
836.0
835.0
837.0
836.0
840.0
838.0
842.0
844.0
845.0
844.0
843.0
843.0
841.0
838.0
838.0
838.0
839.0
843.0
844.0
844.0
846.0
843.0
844.0
840.0
838.0
839.0
834.0
835.0
839.0
843.0
842.0
847.0
844.0
843.0
843.0
839.0
840.0
839.0
840.0
842.0
844.0
846.0
847.0
848.0
847.0
848.0
844.0
845.0
843.0
842.0
842.0
847.0
849.0
850.0
856.0
858.0
858.0
859.0
861.0
858.0
858.0
857.0
857.0
862.0
863.0
869.0
872.0
878.0
883.0
884.0
886.0
886.0
886.0
889.0
891.0
893.0
899.0
902.0
906.0
909.0
914.0
917.0
917.0
917.0
919.0
917.0
918.0
924.0
926.0
929.0
934.0
938.0
938.0
937.0
934.0
932.0
