# Simple Text Format
# Sampling Rate (Hz):= 360.00
# Resolution:= 12
# Labels:= ECG
848.0
849.0
850.0
852.0
851.0
846.0
844.0
845.0
844.0
843.0
847.0
849.0
851.0
852.0
850.0
850.0
851.0
849.0
852.0
845.0
849.0
849.0
852.0
854.0
859.0
856.0
861.0
862.0
867.0
865.0
875.0
892.0
917.0
959.0
1003.0
1052.0
1103.0
1158.0
1204.0
1230.0
1220.0
1175.0
1095.0
1001.0
894.0
805.0
744.0
719.0
723.0
750.0
779.0
803.0
812.0
818.0
818.0
822.0
823.0
829.0
838.0
847.0
849.0
854.0
856.0
855.0
852.0
847.0
847.0
849.0
845.0
849.0
849.0
853.0
853.0
856.0
855.0
858.0
856.0
852.0
851.0
852.0
851.0
849.0
850.0
851.0
854.0
853.0
856.0
858.0
859.0
857.0
852.0
852.0
851.0
848.0
853.0
856.0
857.0
857.0
857.0
855.0
855.0
853.0
856.0
853.0
851.0
848.0
856.0
854.0
855.0
860.0
861.0
862.0
861.0
861.0
859.0
857.0
857.0
861.0
859.0
863.0
866.0
869.0
872.0
875.0
874.0
874.0
873.0
874.0
874.0
874.0
879.0
882.0
882.0
891.0
893.0
894.0
897.0
900.0
898.0
897.0
899.0
901.0
902.0
909.0
915.0
919.0
924.0
924.0
925.0
927.0
928.0
924.0
927.0
927.0
930.0
935.0
937.0
939.0
940.0
939.0
938.0
935.0
932.0
928.0
923.0
921.0
918.0
917.0
916.0
914.0
910.0
906.0
900.0
898.0
889.0
885.0
881.0
876.0
875.0
872.0
872.0
874.0
872.0
870.0
867.0
867.0
865.0
861.0
858.0
856.0
857.0
859.0
860.0
863.0
865.0
863.0
861.0
859.0
856.0
853.0
852.0
852.0
852.0
854.0
855.0
858.0
857.0
855.0
856.0
860.0
858.0
857.0
853.0
853.0
855.0
856.0
860.0
860.0
862.0
862.0
859.0
863.0
860.0
859.0
859.0
858.0
861.0
861.0
863.0
863.0
865.0
867.0
867.0
868.0
862.0
862.0
863.0
862.0
863.0
865.0
863.0
865.0
868.0
868.0
869.0
867.0
864.0
861.0
857.0
857.0
857.0
856.0
862.0
865.0
859.0
859.0
860.0
857.0
854.0
850.0
854.0
854.0
856.0
852.0
858.0
860.0
860.0
861.0
860.0
856.0
854.0
856.0
853.0
853.0
854.0
855.0
857.0
856.0
855.0
855.0
855.0
852.0
851.0
847.0
850.0
848.0
850.0
853.0
856.0
858.0
858.0
857.0
858.0
855.0
850.0
854.0
852.0
849.0
849.0
851.0
854.0
856.0
857.0
858.0
857.0
858.0
850.0
852.0
849.0
849.0
852.0
851.0
856.0
857.0
858.0
857.0
855.0
857.0
853.0
852.0
850.0
850.0
849.0
848.0
851.0
851.0
856.0
857.0
857.0
854.0
855.0
852.0
852.0
851.0
853.0
853.0
854.0
857.0
857.0
857.0
859.0
854.0
854.0
854.0
853.0
855.0
855.0
856.0
858.0
859.0
859.0
860.0
857.0
858.0
855.0
854.0
855.0
853.0
855.0
856.0
859.0
862.0
864.0
863.0
866.0
868.0
867.0
870.0
872.0
872.0
874.0
874.0
879.0
882.0
887.0
891.0
895.0
895.0
895.0
894.0
890.0
882.0
880.0
882.0
880.0
882.0
884.0
885.0
887.0
884.0
881.0
876.0
869.0
864.0
860.0
858.0
854.0
855.0
860.0
858.0
856.0
851.0
849.0
846.0
845.0
845.0
846.0
846.0
843.0
849.0
851.0
851.0
850.0
848.0
845.0
843.0
846.0
844.0
847.0
849.0
851.0
853.0
857.0
857.0
857.0
853.0
851.0
851.0
850.0
849.0
854.0
856.0
858.0
862.0
866.0
866.0
866.0
866.0
864.0
867.0
883.0
906.0
944.0
992.0
1042.0
1096.0
1152.0
1207.0
1247.0
1260.0
1233.0
1170.0
1075.0
960.0
847.0
759.0
712.0
701.0
720.0
752.0
784.0
804.0
818.0
821.0
825.0
831.0
838.0
847.0
855.0
857.0
859.0
859.0
858.0
856.0
854.0
851.0
851.0
851.0
852.0
857.0
857.0
858.0
861.0
862.0
862.0
862.0
856.0
854.0
852.0
853.0
855.0
856.0
859.0
859.0
861.0
859.0
860.0
862.0
857.0
853.0
855.0
854.0
852.0
856.0
860.0
861.0
859.0
859.0
856.0
857.0
854.0
855.0
851.0
853.0
858.0
860.0
862.0
862.0
865.0
866.0
865.0
865.0
865.0
864.0
862.0
866.0
865.0
869.0
872.0
875.0
875.0
876.0
880.0
881.0
881.0
879.0
879.0
881.0
885.0
887.0
892.0
895.0
900.0
901.0
906.0
906.0
908.0
908.0
911.0
913.0
917.0
919.0
923.0
925.0
930.0
927.0
930.0
932.0
931.0
931.0
932.0
931.0
931.0
933.0
934.0
939.0
938.0
934.0
933.0
931.0
924.0
919.0
915.0
910.0
908.0
905.0
903.0
902.0
899.0
896.0
892.0
890.0
884.0
879.0
875.0
875.0
874.0
872.0
872.0
875.0
875.0
874.0
873.0
868.0
865.0
863.0
863.0
865.0
862.0
865.0
866.0
866.0
872.0
868.0
870.0
868.0
868.0
866.0
864.0
863.0
864.0
865.0
867.0
869.0
868.0
870.0
869.0
867.0
864.0
865.0
864.0
863.0
868.0
868.0
869.0
871.0
876.0
876.0
875.0
872.0
872.0
867.0
865.0
869.0
872.0
872.0
871.0
875.0
876.0
878.0
875.0
875.0
872.0
871.0
870.0
869.0
869.0
871.0
871.0
873.0
874.0
874.0
870.0
873.0
866.0
867.0
866.0
863.0
862.0
865.0
866.0
867.0
869.0
869.0
869.0
867.0
866.0
864.0
862.0
858.0
860.0
864.0
863.0
865.0
867.0
868.0
867.0
864.0
861.0
859.0
856.0
857.0
859.0
859.0
860.0
862.0
861.0
859.0
861.0
858.0
858.0
857.0
856.0
852.0
854.0
852.0
857.0
857.0
859.0
857.0
859.0
860.0
856.0
855.0
853.0
853.0
852.0
853.0
857.0
859.0
858.0
859.0
857.0
859.0
855.0
854.0
853.0
851.0
852.0
853.0
854.0
857.0
859.0
858.0
858.0
855.0
851.0
851.0
851.0
853.0
852.0
852.0
854.0
857.0
859.0
858.0
858.0
858.0
854.0
852.0
853.0
852.0
853.0
850.0
852.0
854.0
858.0
856.0
859.0
856.0
856.0
853.0
851.0
851.0
851.0
851.0
854.0
855.0
856.0
856.0
857.0
857.0
853.0
853.0
852.0
849.0
853.0
853.0
854.0
854.0
860.0
859.0
860.0
855.0
854.0
855.0
852.0
853.0
853.0
855.0
856.0
860.0
860.0
859.0
861.0
861.0
861.0
859.0
859.0
864.0
866.0
870.0
875.0
877.0
883.0
884.0
885.0
883.0
883.0
880.0
882.0
886.0
885.0
887.0
885.0
883.0
880.0
879.0
881.0
879.0
874.0
875.0
875.0
873.0
874.0
870.0
873.0
870.0
872.0
868.0
865.0
857.0
855.0
849.0
849.0
847.0
846.0
848.0
847.0
848.0
848.0
849.0
849.0
849.0
846.0
845.0
844.0
843.0
844.0
845.0
846.0
848.0
849.0
849.0
850.0
851.0
847.0
846.0
846.0
846.0
848.0
847.0
852.0
853.0
854.0
857.0
858.0
856.0
857.0
850.0
852.0
855.0
856.0
861.0
865.0
866.0
876.0
886.0
904.0
930.0
967.0
1010.0
1053.0
1100.0
1150.0
1196.0
1243.0
1261.0
1250.0
1206.0
1128.0
1030.0
922.0
825.0
756.0
729.0
738.0
766.0
807.0
830.0
849.0
851.0
849.0
845.0
844.0
845.0
849.0
851.0
856.0
858.0
858.0
857.0
858.0
858.0
859.0
858.0
858.0
858.0
857.0
854.0
853.0
854.0
859.0
860.0
864.0
864.0
861.0
859.0
855.0
855.0
855.0
854.0
854.0
855.0
859.0
856.0
859.0
860.0
860.0
859.0
856.0
856.0
856.0
856.0
854.0
860.0
859.0
862.0
866.0
865.0
863.0
864.0
865.0
862.0
861.0
856.0
857.0
862.0
866.0
864.0
870.0
874.0
873.0
872.0
873.0
872.0
875.0
872.0
875.0
877.0
881.0
883.0
888.0
892.0
892.0
894.0
891.0
891.0
892.0
895.0
896.0
903.0
906.0
910.0
914.0
917.0
917.0
917.0
920.0
924.0
925.0
928.0
931.0
936.0
937.0
940.0
945.0
948.0
951.0
949.0
952.0
948.0
949.0
945.0
948.0
945.0
946.0
945.0
944.0
941.0
938.0
933.0
927.0
921.0
913.0
909.0
906.0
903.0
898.0
897.0
893.0
894.0
890.0
888.0
885.0
880.0
879.0
872.0
873.0
874.0
874.0
875.0
874.0
876.0
874.0
869.0
870.0
868.0
865.0
864.0
866.0
866.0
864.0
866.0
867.0
869.0
865.0
864.0
863.0
864.0
861.0
862.0
864.0
862.0
863.0
866.0
868.0
871.0
867.0
868.0
866.0
864.0
863.0
864.0
863.0
863.0
867.0
867.0
870.0
870.0
872.0
869.0
867.0
866.0
864.0
864.0
863.0
864.0
868.0
870.0
873.0
872.0
871.0
870.0
868.0
868.0
864.0
861.0
861.0
862.0
864.0
865.0
869.0
867.0
868.0
866.0
863.0
861.0
860.0
858.0
860.0
860.0
862.0
863.0
863.0
865.0
863.0
863.0
861.0
861.0
856.0
856.0
855.0
859.0
862.0
859.0
862.0
861.0
862.0
861.0
858.0
858.0
856.0
856.0
853.0
857.0
857.0
859.0
859.0
856.0
858.0
856.0
855.0
852.0
854.0
854.0
852.0
856.0
856.0
856.0
860.0
861.0
860.0
860.0
859.0
854.0
853.0
854.0
848.0
851.0
851.0
857.0
858.0
859.0
858.0
855.0
852.0
852.0
854.0
851.0
851.0
852.0
855.0
857.0
860.0
857.0
857.0
860.0
857.0
855.0
854.0
852.0
849.0
851.0
853.0
853.0
858.0
855.0
855.0
852.0
851.0
851.0
851.0
852.0
854.0
852.0
853.0
854.0
857.0
856.0
857.0
858.0
854.0
855.0
851.0
850.0
849.0
851.0
855.0
858.0
858.0
859.0
858.0
859.0
857.0
853.0
855.0
854.0
853.0
854.0
856.0
856.0
861.0
860.0
860.0
858.0
858.0
853.0
853.0
853.0
854.0
852.0
856.0
859.0
857.0
858.0
860.0
858.0
856.0
855.0
856.0
854.0
854.0
857.0
859.0
858.0
860.0
860.0
857.0
859.0
857.0
857.0
858.0
855.0
857.0
861.0
858.0
862.0
871.0
876.0
877.0
877.0
878.0
877.0
877.0
874.0
874.0
876.0
880.0
885.0
891.0
893.0
889.0
886.0
881.0
875.0
875.0
874.0
872.0
871.0
872.0
876.0
876.0
874.0
873.0
867.0
863.0
860.0
857.0
853.0
848.0
845.0
844.0
848.0
845.0
845.0
846.0
844.0
841.0
840.0
836.0
834.0
836.0
834.0
838.0
840.0
845.0
844.0
842.0
844.0
844.0
837.0
839.0
841.0
840.0
840.0
846.0
845.0
848.0
851.0
848.0
848.0
848.0
844.0
844.0
841.0
846.0
849.0
855.0
855.0
862.0
865.0
868.0
875.0
894.0
924.0
961.0
1006.0
1051.0
1099.0
1152.0
1198.0
1223.0
1219.0
1172.0
1097.0
997.0
894.0
805.0
746.0
719.0
729.0
760.0
791.0
814.0
825.0
829.0
834.0
835.0
835.0
839.0
839.0
844.0
846.0
848.0
847.0
847.0
847.0
847.0
848.0
846.0
842.0
846.0
844.0
843.0
845.0
847.0
850.0
850.0
854.0
851.0
847.0
848.0
845.0
846.0
844.0
846.0
848.0
848.0
852.0
852.0
850.0
850.0
850.0
849.0
848.0
850.0
845.0
843.0
848.0
850.0
852.0
857.0
854.0
856.0
853.0
852.0
850.0
847.0
850.0
854.0
854.0
857.0
857.0
863.0
861.0
863.0
865.0
864.0
864.0
865.0
867.0
866.0
865.0
870.0
876.0
876.0
880.0
884.0
884.0
879.0
882.0
886.0
888.0
890.0
893.0
897.0
899.0
903.0
907.0
910.0
913.0
913.0
913.0
915.0
918.0
919.0
923.0
928.0
930.0
933.0
939.0
940.0
937.0
933.0
934.0
931.0
933.0
929.0
927.0
930.0
929.0
927.0
925.0
920.0
917.0
909.0
904.0
897.0
895.0
891.0
886.0
885.0
883.0
882.0
878.0
872.0
871.0
869.0
866.0
867.0
865.0
862.0
860.0
860.0
860.0
861.0
863.0
860.0
862.0
860.0
857.0
857.0
856.0
852.0
853.0
857.0
855.0
859.0
860.0
860.0
856.0
856.0
855.0
853.0
854.0
852.0
856.0
857.0
860.0
862.0
863.0
865.0
864.0
862.0
859.0
859.0
857.0
856.0
860.0
861.0
862.0
864.0
869.0
867.0
868.0
865.0
862.0
862.0
860.0
859.0
859.0
862.0
866.0
868.0
868.0
868.0
868.0
864.0
861.0
861.0
859.0
859.0
859.0
859.0
863.0
864.0
864.0
863.0
861.0
860.0
858.0
855.0
851.0
849.0
854.0
854.0
855.0
858.0
857.0
857.0
856.0
856.0
855.0
854.0
851.0
849.0
849.0
848.0
851.0
852.0
855.0
856.0
852.0
852.0
850.0
851.0
846.0
848.0
848.0
851.0
855.0
856.0
853.0
853.0
854.0
854.0
849.0
850.0
850.0
846.0
846.0
848.0
852.0
854.0
856.0
853.0
855.0
853.0
849.0
849.0
849.0
850.0
851.0
851.0
853.0
854.0
852.0
850.0
853.0
850.0
849.0
847.0
844.0
845.0
846.0
849.0
849.0
850.0
854.0
853.0
851.0
852.0
849.0
845.0
844.0
844.0
845.0
848.0
848.0
849.0
848.0
853.0
851.0
853.0
852.0
846.0
846.0
850.0
850.0
850.0
851.0
853.0
855.0
857.0
859.0
859.0
860.0
861.0
865.0
865.0
867.0
870.0
875.0
877.0
878.0
884.0
886.0
886.0
886.0
882.0
879.0
879.0
875.0
872.0
872.0
876.0
873.0
876.0
876.0
878.0
873.0
869.0
861.0
853.0
853.0
851.0
851.0
851.0
852.0
846.0
846.0
843.0
840.0
839.0
837.0
837.0
837.0
836.0
840.0
842.0
844.0
843.0
843.0
842.0
841.0
839.0
838.0
841.0
839.0
839.0
846.0
846.0
849.0
847.0
847.0
847.0
845.0
843.0
842.0
842.0
845.0
846.0
851.0
852.0
857.0
859.0
858.0
858.0
857.0
853.0
855.0
857.0
867.0
886.0
916.0
960.0
1008.0
1058.0
1111.0
1162.0
1213.0
1242.0
1239.0
1198.0
1122.0
1024.0
913.0
817.0
748.0
714.0
711.0
727.0
754.0
776.0
795.0
804.0
814.0
824.0
833.0
840.0
848.0
854.0
853.0
853.0
849.0
848.0
844.0
844.0
846.0
844.0
846.0
854.0
855.0
854.0
856.0
854.0
851.0
851.0
848.0
848.0
850.0
850.0
854.0
857.0
858.0
855.0
858.0
855.0
851.0
851.0
851.0
851.0
849.0
851.0
852.0
855.0
859.0
858.0
856.0
852.0
851.0
846.0
848.0
848.0
853.0
852.0
856.0
857.0
857.0
858.0
858.0
855.0
859.0
856.0
857.0
859.0
860.0
861.0
864.0
868.0
870.0
870.0
869.0
869.0
869.0
872.0
870.0
874.0
878.0
879.0
880.0
886.0
888.0
891.0
893.0
892.0
895.0
894.0
896.0
898.0
901.0
902.0
906.0
910.0
915.0
917.0
915.0
918.0
918.0
919.0
922.0
925.0
926.0
928.0
930.0
934.0
935.0
935.0
935.0
930.0
928.0
926.0
923.0
917.0
916.0
915.0
913.0
912.0
911.0
907.0
905.0
898.0
892.0
887.0
883.0
878.0
878.0
878.0
878.0
878.0
877.0
872.0
872.0
871.0
868.0
864.0
862.0
860.0
859.0
862.0
863.0
864.0
864.0
865.0
866.0
861.0
862.0
860.0
858.0
859.0
858.0
860.0
864.0
865.0
867.0
865.0
865.0
865.0
863.0
862.0
860.0
863.0
861.0
862.0
866.0
865.0
867.0
869.0
867.0
865.0
862.0
863.0
861.0
866.0
866.0
865.0
871.0
871.0
875.0
874.0
871.0
870.0
868.0
868.0
864.0
865.0
866.0
870.0
870.0
870.0
871.0
874.0
871.0
872.0
868.0
867.0
863.0
864.0
864.0
867.0
866.0
869.0
868.0
868.0
865.0
868.0
864.0
862.0
859.0
862.0
860.0
864.0
865.0
866.0
867.0
865.0
864.0
863.0
864.0
861.0
860.0
859.0
861.0
860.0
862.0
865.0
865.0
865.0
863.0
860.0
859.0
857.0
856.0
857.0
856.0
856.0
857.0
861.0
862.0
862.0
862.0
859.0
856.0
855.0
854.0
852.0
854.0
855.0
858.0
857.0
856.0
857.0
859.0
856.0
857.0
855.0
856.0
854.0
853.0
855.0
857.0
858.0
859.0
861.0
859.0
857.0
854.0
852.0
849.0
849.0
850.0
853.0
856.0
858.0
862.0
858.0
859.0
857.0
854.0
853.0
851.0
850.0
851.0
857.0
857.0
855.0
857.0
859.0
860.0
856.0
857.0
854.0
853.0
854.0
852.0
855.0
859.0
860.0
863.0
863.0
861.0
865.0
863.0
868.0
867.0
870.0
874.0
874.0
879.0
880.0
881.0
882.0
882.0
883.0
885.0
882.0
882.0
880.0
878.0
877.0
880.0
879.0
880.0
880.0
878.0
878.0
875.0
872.0
868.0
866.0
865.0
864.0
863.0
861.0
859.0
854.0
852.0
849.0
850.0
845.0
842.0
835.0
837.0
839.0
845.0
846.0
846.0
845.0
845.0
844.0
842.0
842.0
839.0
840.0
839.0
840.0
839.0
844.0
845.0
848.0
848.0
850.0
843.0
843.0
844.0
843.0
844.0
844.0
847.0
849.0
852.0
853.0
854.0
852.0
852.0
850.0
853.0
854.0
854.0
859.0
863.0
867.0
878.0
892.0
921.0
957.0
999.0
1041.0
1088.0
1136.0
1186.0
1232.0
1261.0
1259.0
1228.0
1161.0
1072.0
966.0
866.0
782.0
734.0
722.0
739.0
771.0
804.0
828.0
839.0
840.0
839.0
833.0
836.0
838.0
842.0
846.0
854.0
854.0
856.0
856.0
855.0
855.0
853.0
854.0
849.0
851.0
852.0
852.0
853.0
853.0
854.0
856.0
857.0
857.0
858.0
856.0
854.0
852.0
848.0
852.0
853.0
850.0
855.0
856.0
854.0
853.0
854.0
856.0
853.0
852.0
852.0
852.0
854.0
853.0
853.0
854.0
858.0
857.0
859.0
856.0
855.0
853.0
850.0
849.0
849.0
854.0
856.0
860.0
863.0
863.0
865.0
864.0
862.0
861.0
861.0
864.0
865.0
869.0
872.0
873.0
878.0
881.0
881.0
883.0
882.0
884.0
885.0
888.0
889.0
896.0
900.0
905.0
908.0
913.0
912.0
914.0
914.0
914.0
916.0
919.0
925.0
929.0
933.0
936.0
941.0
944.0
946.0
942.0
944.0
946.0
945.0
945.0
943.0
945.0
944.0
946.0
940.0
940.0
936.0
929.0
923.0
918.0
911.0
906.0
899.0
896.0
894.0
897.0
892.0
892.0
890.0
886.0
878.0
875.0
872.0
870.0
868.0
868.0
871.0
875.0
876.0
876.0
877.0
873.0
871.0
869.0
866.0
864.0
864.0
866.0
862.0
864.0
866.0
868.0
868.0
864.0
865.0
864.0
862.0
863.0
863.0
862.0
867.0
867.0
868.0
871.0
872.0
870.0
868.0
866.0
865.0
866.0
864.0
864.0
864.0
871.0
871.0
873.0
871.0
871.0
869.0
868.0
864.0
866.0
863.0
867.0
870.0
871.0
873.0
875.0
874.0
875.0
871.0
867.0
866.0
867.0
866.0
867.0
864.0
867.0
866.0
871.0
869.0
868.0
865.0
861.0
859.0
860.0
860.0
860.0
860.0
865.0
862.0
865.0
862.0
858.0
858.0
856.0
856.0
856.0
853.0
858.0
857.0
859.0
860.0
860.0
860.0
858.0
854.0
854.0
853.0
851.0
851.0
852.0
854.0
859.0
861.0
861.0
858.0
859.0
853.0
850.0
849.0
846.0
850.0
851.0
853.0
853.0
855.0
856.0
856.0
856.0
852.0
851.0
847.0
846.0
848.0
849.0
851.0
853.0
857.0
854.0
858.0
854.0
854.0
851.0
850.0
850.0
849.0
851.0
854.0
853.0
853.0
856.0
854.0
849.0
851.0
848.0
849.0
848.0
849.0
847.0
851.0
852.0
857.0
857.0
856.0
856.0
852.0
853.0
851.0
851.0
850.0
850.0
853.0
853.0
856.0
857.0
853.0
857.0
854.0
852.0
852.0
851.0
850.0
850.0
850.0
854.0
856.0
856.0
856.0
856.0
852.0
850.0
850.0
849.0
847.0
852.0
854.0
855.0
858.0
857.0
857.0
855.0
856.0
855.0
852.0
852.0
852.0
854.0
856.0
858.0
860.0
859.0
861.0
859.0
856.0
857.0
855.0
855.0
856.0
862.0
866.0
873.0
878.0
878.0
883.0
881.0
882.0
878.0
880.0
881.0
883.0
884.0
890.0
889.0
889.0
886.0
884.0
880.0
876.0
876.0
873.0
874.0
870.0
874.0
874.0
875.0
874.0
871.0
869.0
864.0
859.0
855.0
851.0
848.0
848.0
846.0
848.0
846.0
849.0
850.0
850.0
848.0
848.0
844.0
844.0
844.0
844.0
843.0
845.0
848.0
852.0
851.0
849.0
848.0
845.0
844.0
841.0
840.0
838.0
842.0
844.0
847.0
850.0
853.0
852.0
851.0
850.0
850.0
848.0
850.0
851.0
852.0
855.0
860.0
863.0
864.0
866.0
872.0
881.0
896.0
927.0
966.0
1007.0
1052.0
1098.0
1148.0
1197.0
1229.0
1238.0
1213.0
1155.0
1073.0
972.0
872.0
791.0
744.0
730.0
745.0
778.0
804.0
826.0
835.0
833.0
830.0
826.0
828.0
832.0
838.0
849.0
856.0
859.0
861.0
857.0
854.0
852.0
850.0
850.0
851.0
849.0
851.0
852.0
854.0
854.0
856.0
858.0
857.0
855.0
854.0
855.0
851.0
851.0
851.0
852.0
852.0
857.0
859.0
857.0
857.0
856.0
853.0
852.0
851.0
851.0
851.0
855.0
856.0
858.0
858.0
859.0
857.0
852.0
852.0
854.0
852.0
852.0
855.0
857.0
863.0
864.0
865.0
865.0
865.0
865.0
863.0
862.0
860.0
866.0
867.0
870.0
874.0
875.0
875.0
877.0
878.0
881.0
882.0
882.0
884.0
887.0
890.0
894.0
897.0
903.0
904.0
907.0
910.0
911.0
910.0
910.0
911.0
915.0
921.0
924.0
931.0
934.0
935.0
939.0
939.0
941.0
942.0
942.0
942.0
942.0
941.0
942.0
944.0
947.0
950.0
945.0
942.0
938.0
931.0
924.0
917.0
915.0
911.0
910.0
907.0
907.0
905.0
900.0
895.0
890.0
885.0
883.0
879.0
878.0
876.0
875.0
874.0
872.0
874.0
875.0
872.0
871.0
870.0
865.0
864.0
862.0
865.0
864.0
867.0
867.0
869.0
866.0
865.0
864.0
863.0
856.0
856.0
860.0
861.0
863.0
864.0
866.0
868.0
867.0
870.0
868.0
866.0
863.0
863.0
864.0
862.0
867.0
867.0
869.0
871.0
870.0
869.0
867.0
863.0
863.0
861.0
860.0
864.0
865.0
867.0
868.0
867.0
867.0
867.0
864.0
865.0
863.0
861.0
860.0
862.0
865.0
869.0
869.0
869.0
869.0
865.0
864.0
861.0
858.0
858.0
858.0
860.0
859.0
863.0
865.0
864.0
865.0
865.0
860.0
861.0
856.0
854.0
856.0
858.0
859.0
859.0
862.0
860.0
862.0
858.0
857.0
856.0
853.0
853.0
853.0
850.0
855.0
856.0
854.0
859.0
858.0
859.0
856.0
851.0
853.0
848.0
849.0
851.0
852.0
855.0
859.0
860.0
859.0
857.0
855.0
854.0
849.0
852.0
852.0
854.0
854.0
854.0
855.0
859.0
857.0
855.0
851.0
852.0
851.0
848.0
845.0
848.0
853.0
854.0
857.0
858.0
858.0
858.0
856.0
854.0
853.0
852.0
854.0
851.0
853.0
856.0
857.0
857.0
860.0
858.0
858.0
854.0
853.0
853.0
851.0
853.0
858.0
859.0
859.0
856.0
858.0
854.0
855.0
854.0
853.0
852.0
853.0
852.0
854.0
857.0
855.0
859.0
861.0
863.0
861.0
861.0
861.0
863.0
864.0
868.0
872.0
876.0
875.0
881.0
880.0
879.0
879.0
880.0
884.0
886.0
888.0
891.0
890.0
888.0
888.0
887.0
883.0
884.0
881.0
879.0
878.0
877.0
876.0
874.0
874.0
873.0
865.0
865.0
860.0
856.0
853.0
854.0
848.0
848.0
846.0
846.0
846.0
848.0
844.0
850.0
849.0
850.0
849.0
849.0
845.0
843.0
845.0
846.0
846.0
848.0
849.0
851.0
853.0
851.0
849.0
846.0
846.0
847.0
848.0
849.0
851.0
850.0
851.0
856.0
856.0
855.0
854.0
851.0
851.0
855.0
858.0
859.0
861.0
865.0
871.0
885.0
910.0
946.0
989.0
1033.0
1081.0
1133.0
1184.0
1226.0
1244.0
1226.0
1168.0
1086.0
983.0
881.0
794.0
736.0
715.0
719.0
740.0
766.0
795.0
809.0
815.0
823.0
826.0
832.0
837.0
846.0
851.0
855.0
854.0
854.0
853.0
851.0
852.0
852.0
855.0
856.0
856.0
856.0
853.0
852.0
851.0
850.0
854.0
856.0
856.0
857.0
857.0
859.0
855.0
854.0
854.0
854.0
855.0
854.0
856.0
857.0
857.0
859.0
858.0
859.0
857.0
859.0
855.0
854.0
855.0
855.0
854.0
857.0
860.0
861.0
860.0
862.0
861.0
861.0
857.0
856.0
857.0
857.0
857.0
861.0
864.0
865.0
868.0
872.0
870.0
867.0
861.0
864.0
867.0
865.0
871.0
875.0
873.0
876.0
879.0
881.0
884.0
882.0
882.0
884.0
887.0
889.0
894.0
899.0
902.0
907.0
909.0
915.0
910.0
911.0
911.0
912.0
913.0
915.0
920.0
925.0
930.0
933.0
935.0
936.0
938.0
933.0
933.0
934.0
934.0
933.0
935.0
936.0
936.0
936.0
933.0
930.0
922.0
917.0
909.0
910.0
906.0
900.0
899.0
900.0
896.0
893.0
888.0
888.0
883.0
879.0
873.0
874.0
872.0
870.0
869.0
871.0
869.0
874.0
872.0
871.0
870.0
869.0
869.0
866.0
864.0
865.0
865.0
868.0
867.0
869.0
868.0
869.0
867.0
864.0
862.0
862.0
863.0
864.0
867.0
868.0
869.0
865.0
866.0
873.0
872.0
871.0
870.0
869.0
868.0
867.0
872.0
872.0
874.0
877.0
878.0
878.0
876.0
870.0
870.0
869.0
869.0
869.0
868.0
872.0
870.0
875.0
876.0
879.0
875.0
873.0
873.0
872.0
870.0
869.0
871.0
872.0
874.0
879.0
876.0
872.0
873.0
871.0
865.0
867.0
865.0
869.0
870.0
868.0
870.0
871.0
871.0
873.0
871.0
867.0
867.0
864.0
862.0
863.0
864.0
865.0
865.0
865.0
868.0
868.0
869.0
866.0
863.0
864.0
864.0
862.0
864.0
866.0
866.0
868.0
865.0
863.0
864.0
859.0
859.0
856.0
862.0
861.0
862.0
865.0
864.0
869.0
868.0
867.0
866.0
866.0
865.0
861.0
862.0
864.0
864.0
865.0
866.0
866.0
869.0
865.0
866.0
865.0
860.0
862.0
857.0
861.0
863.0
866.0
868.0
869.0
869.0
864.0
866.0
864.0
865.0
864.0
859.0
860.0
863.0
866.0
867.0
870.0
869.0
870.0
868.0
867.0
866.0
867.0
866.0
868.0
872.0
877.0
878.0
885.0
886.0
890.0
888.0
888.0
884.0
884.0
885.0
890.0
892.0
897.0
898.0
900.0
896.0
896.0
893.0
889.0
886.0
883.0
883.0
882.0
884.0
884.0
887.0
886.0
882.0
876.0
871.0
866.0
860.0
858.0
855.0
853.0
853.0
853.0
852.0
857.0
852.0
856.0
852.0
852.0
850.0
850.0
849.0
851.0
849.0
850.0
853.0
854.0
856.0
854.0
852.0
849.0
847.0
848.0
847.0
848.0
851.0
853.0
854.0
856.0
857.0
858.0
862.0
859.0
858.0
859.0
857.0
861.0
861.0
866.0
868.0
873.0
875.0
880.0
889.0
905.0
937.0
979.0
1025.0
1077.0
1137.0
1194.0
1242.0
1264.0
1255.0
1211.0
1135.0
1038.0
928.0
832.0
755.0
726.0
731.0
760.0
796.0
823.0
840.0
847.0
845.0
844.0
842.0
846.0
851.0
855.0
861.0
866.0
865.0
864.0
864.0
862.0
859.0
859.0
858.0
858.0
858.0
858.0
858.0
860.0
863.0
865.0
867.0
865.0
863.0
861.0
862.0
860.0
861.0
860.0
859.0
864.0
866.0
861.0
864.0
863.0
865.0
862.0
862.0
858.0
859.0
859.0
861.0
861.0
865.0
867.0
864.0
865.0
867.0
864.0
862.0
860.0
860.0
861.0
864.0
866.0
867.0
871.0
871.0
871.0
869.0
872.0
868.0
869.0
872.0
871.0
874.0
879.0
880.0
882.0
886.0
888.0
888.0
887.0
890.0
891.0
892.0
893.0
900.0
904.0
907.0
915.0
917.0
919.0
921.0
920.0
924.0
927.0
927.0
926.0
933.0
937.0
942.0
946.0
947.0
949.0
946.0
948.0
947.0
946.0
946.0
947.0
947.0
944.0
946.0
945.0
938.0
939.0
932.0
925.0
919.0
914.0
909.0
903.0
899.0
896.0
896.0
893.0
889.0
886.0
880.0
877.0
874.0
870.0
867.0
866.0
866.0
866.0
868.0
868.0
870.0
866.0
868.0
865.0
865.0
860.0
860.0
859.0
859.0
860.0
861.0
863.0
863.0
863.0
859.0
858.0
857.0
855.0
853.0
856.0
857.0
862.0
862.0
863.0
864.0
862.0
862.0
860.0
856.0
855.0
855.0
857.0
858.0
860.0
862.0
861.0
864.0
866.0
864.0
864.0
862.0
858.0
858.0
858.0
861.0
863.0
864.0
867.0
863.0
865.0
862.0
860.0
860.0
859.0
858.0
858.0
855.0
860.0
862.0
862.0
865.0
863.0
860.0
854.0
856.0
854.0
856.0
854.0
857.0
857.0
856.0
859.0
857.0
857.0
858.0
853.0
855.0
853.0
851.0
849.0
849.0
852.0
853.0
853.0
854.0
855.0
854.0
851.0
849.0
848.0
849.0
848.0
849.0
850.0
851.0
853.0
852.0
854.0
854.0
853.0
851.0
849.0
848.0
846.0
849.0
847.0
850.0
852.0
852.0
851.0
850.0
848.0
847.0
849.0
846.0
