# Simple Text Format
# Sampling Rate (Hz):= 360.00
# Resolution:= 12
# Labels:= ECG
838.0
836.0
836.0
836.0
838.0
839.0
844.0
845.0
844.0
847.0
841.0
839.0
840.0
841.0
839.0
839.0
841.0
843.0
847.0
850.0
850.0
847.0
846.0
846.0
845.0
846.0
844.0
847.0
847.0
853.0
856.0
858.0
860.0
861.0
861.0
863.0
863.0
863.0
862.0
866.0
869.0
873.0
878.0
882.0
883.0
887.0
890.0
892.0
893.0
895.0
897.0
901.0
907.0
911.0
918.0
922.0
923.0
929.0
931.0
932.0
934.0
936.0
937.0
937.0
940.0
944.0
945.0
946.0
948.0
947.0
944.0
940.0
933.0
927.0
923.0
919.0
913.0
914.0
907.0
906.0
902.0
898.0
889.0
887.0
882.0
876.0
870.0
868.0
866.0
864.0
861.0
863.0
863.0
861.0
859.0
858.0
854.0
849.0
848.0
844.0
848.0
850.0
850.0
856.0
855.0
852.0
852.0
848.0
848.0
848.0
846.0
847.0
847.0
848.0
851.0
854.0
850.0
851.0
850.0
850.0
849.0
847.0
847.0
846.0
847.0
851.0
853.0
854.0
857.0
857.0
855.0
854.0
853.0
849.0
854.0
853.0
855.0
857.0
859.0
859.0
860.0
861.0
860.0
859.0
860.0
857.0
854.0
854.0
858.0
858.0
862.0
862.0
863.0
862.0
862.0
857.0
854.0
850.0
853.0
853.0
853.0
852.0
856.0
857.0
859.0
859.0
857.0
854.0
852.0
851.0
850.0
845.0
847.0
848.0
850.0
853.0
857.0
854.0
853.0
851.0
850.0
846.0
844.0
846.0
848.0
847.0
847.0
850.0
849.0
850.0
850.0
847.0
845.0
844.0
841.0
840.0
844.0
847.0
847.0
850.0
849.0
851.0
851.0
848.0
843.0
843.0
844.0
842.0
842.0
847.0
845.0
848.0
849.0
848.0
847.0
846.0
841.0
841.0
840.0
838.0
840.0
844.0
847.0
846.0
850.0
849.0
847.0
844.0
844.0
842.0
840.0
839.0
839.0
842.0
844.0
845.0
845.0
843.0
844.0
846.0
842.0
841.0
841.0
839.0
839.0
843.0
843.0
846.0
848.0
847.0
845.0
842.0
844.0
842.0
842.0
840.0
842.0
842.0
844.0
846.0
848.0
846.0
847.0
845.0
844.0
842.0
840.0
839.0
840.0
845.0
848.0
847.0
849.0
846.0
848.0
845.0
842.0
842.0
842.0
842.0
843.0
845.0
847.0
848.0
851.0
848.0
848.0
846.0
844.0
844.0
842.0
841.0
839.0
841.0
843.0
848.0
850.0
849.0
845.0
842.0
843.0
842.0
840.0
842.0
846.0
845.0
847.0
850.0
851.0
851.0
850.0
851.0
852.0
852.0
853.0
856.0
859.0
863.0
867.0
872.0
876.0
875.0
873.0
872.0
873.0
875.0
875.0
876.0
874.0
874.0
874.0
871.0
873.0
871.0
871.0
868.0
865.0
862.0
863.0
862.0
859.0
856.0
858.0
858.0
855.0
849.0
845.0
841.0
838.0
836.0
833.0
831.0
831.0
834.0
835.0
836.0
838.0
837.0
833.0
833.0
830.0
832.0
830.0
830.0
832.0
834.0
835.0
836.0
835.0
839.0
839.0
834.0
832.0
834.0
832.0
833.0
833.0
837.0
838.0
840.0
840.0
842.0
841.0
844.0
841.0
841.0
839.0
841.0
843.0
850.0
855.0
864.0
874.0
898.0
933.0
974.0
1020.0
1073.0
1125.0
1181.0
1231.0
1267.0
1275.0
1255.0
1198.0
1111.0
1005.0
893.0
793.0
726.0
694.0
704.0
738.0
776.0
805.0
826.0
830.0
828.0
827.0
824.0
825.0
827.0
831.0
839.0
838.0
841.0
839.0
836.0
837.0
838.0
840.0
838.0
838.0
838.0
838.0
837.0
837.0
840.0
842.0
843.0
844.0
843.0
843.0
840.0
839.0
836.0
838.0
838.0
840.0
842.0
842.0
845.0
847.0
848.0
847.0
845.0
842.0
840.0
840.0
841.0
837.0
840.0
845.0
848.0
849.0
850.0
850.0
847.0
843.0
845.0
845.0
845.0
845.0
848.0
851.0
851.0
850.0
853.0
856.0
855.0
853.0
850.0
850.0
849.0
850.0
856.0
861.0
864.0
867.0
871.0
871.0
871.0
873.0
873.0
876.0
879.0
882.0
885.0
889.0
895.0
899.0
901.0
905.0
907.0
908.0
907.0
910.0
910.0
920.0
923.0
927.0
931.0
934.0
937.0
938.0
938.0
939.0
941.0
940.0
943.0
944.0
947.0
949.0
949.0
949.0
947.0
942.0
937.0
930.0
926.0
916.0
910.0
906.0
900.0
897.0
898.0
896.0
890.0
885.0
879.0
874.0
866.0
863.0
860.0
860.0
859.0
860.0
861.0
863.0
859.0
858.0
855.0
852.0
849.0
849.0
848.0
848.0
850.0
850.0
854.0
855.0
855.0
855.0
851.0
850.0
848.0
847.0
847.0
848.0
849.0
851.0
852.0
851.0
853.0
850.0
852.0
848.0
847.0
845.0
847.0
846.0
848.0
849.0
855.0
854.0
855.0
855.0
856.0
850.0
848.0
849.0
847.0
846.0
849.0
852.0
853.0
853.0
856.0
856.0
853.0
851.0
848.0
848.0
846.0
847.0
848.0
852.0
850.0
853.0
851.0
855.0
850.0
849.0
847.0
844.0
843.0
842.0
844.0
841.0
846.0
846.0
846.0
845.0
844.0
843.0
840.0
837.0
836.0
836.0
838.0
839.0
839.0
841.0
839.0
840.0
840.0
838.0
836.0
836.0
835.0
835.0
840.0
838.0
840.0
842.0
843.0
841.0
840.0
837.0
837.0
835.0
835.0
832.0
832.0
834.0
838.0
842.0
839.0
841.0
838.0
837.0
835.0
832.0
834.0
834.0
835.0
837.0
836.0
840.0
839.0
837.0
835.0
831.0
833.0
829.0
831.0
831.0
831.0
834.0
835.0
837.0
838.0
835.0
832.0
835.0
833.0
832.0
830.0
833.0
831.0
834.0
837.0
839.0
834.0
837.0
833.0
835.0
832.0
833.0
832.0
831.0
830.0
835.0
838.0
836.0
839.0
839.0
838.0
836.0
833.0
833.0
828.0
830.0
832.0
835.0
834.0
837.0
836.0
838.0
837.0
835.0
831.0
830.0
830.0
829.0
831.0
836.0
839.0
839.0
841.0
838.0
836.0
836.0
833.0
835.0
833.0
832.0
837.0
836.0
840.0
838.0
839.0
836.0
839.0
837.0
834.0
831.0
832.0
834.0
836.0
839.0
842.0
843.0
842.0
842.0
841.0
838.0
837.0
837.0
837.0
836.0
834.0
838.0
841.0
844.0
845.0
845.0
842.0
845.0
844.0
843.0
846.0
846.0
852.0
854.0
862.0
866.0
866.0
868.0
866.0
867.0
865.0
871.0
872.0
875.0
878.0
879.0
877.0
871.0
872.0
870.0
869.0
865.0
863.0
862.0
864.0
859.0
858.0
855.0
854.0
852.0
848.0
844.0
841.0
838.0
830.0
829.0
829.0
827.0
831.0
830.0
833.0
833.0
832.0
831.0
831.0
832.0
829.0
827.0
827.0
829.0
826.0
828.0
830.0
832.0
837.0
836.0
836.0
835.0
831.0
830.0
829.0
830.0
836.0
837.0
839.0
839.0
840.0
841.0
842.0
841.0
838.0
843.0
844.0
848.0
852.0
853.0
862.0
879.0
907.0
948.0
992.0
1035.0
1079.0
1123.0
1178.0
1229.0
1262.0
1264.0
1227.0
1153.0
1052.0
937.0
825.0
741.0
696.0
684.0
699.0
731.0
760.0
783.0
796.0
803.0
806.0
814.0
824.0
832.0
832.0
837.0
839.0
835.0
834.0
835.0
835.0
837.0
839.0
839.0
837.0
834.0
835.0
837.0
834.0
837.0
835.0
838.0
841.0
842.0
842.0
842.0
839.0
841.0
840.0
838.0
839.0
837.0
838.0
841.0
839.0
843.0
843.0
841.0
841.0
839.0
838.0
838.0
838.0
835.0
837.0
843.0
844.0
846.0
848.0
847.0
844.0
844.0
841.0
840.0
840.0
842.0
846.0
850.0
849.0
856.0
857.0
856.0
856.0
854.0
854.0
855.0
856.0
856.0
857.0
861.0
866.0
869.0
874.0
876.0
878.0
876.0
874.0
874.0
877.0
884.0
887.0
889.0
895.0
896.0
903.0
905.0
907.0
907.0
909.0
909.0
914.0
919.0
922.0
925.0
926.0
935.0
934.0
938.0
938.0
934.0
931.0
928.0
928.0
926.0
927.0
923.0
921.0
918.0
914.0
908.0
902.0
901.0
891.0
885.0
883.0
880.0
876.0
873.0
871.0
870.0
867.0
865.0
861.0
862.0
857.0
855.0
851.0
850.0
853.0
855.0
854.0
854.0
857.0
855.0
851.0
848.0
849.0
848.0
847.0
848.0
843.0
846.0
846.0
852.0
854.0
851.0
852.0
852.0
850.0
847.0
843.0
848.0
848.0
850.0
851.0
857.0
856.0
857.0
856.0
855.0
855.0
855.0
852.0
854.0
854.0
858.0
861.0
866.0
867.0
863.0
866.0
859.0
859.0
856.0
853.0
856.0
858.0
858.0
863.0
865.0
865.0
867.0
866.0
864.0
861.0
860.0
858.0
856.0
858.0
860.0
862.0
861.0
862.0
861.0
861.0
858.0
856.0
858.0
855.0
856.0
857.0
858.0
859.0
858.0
854.0
856.0
855.0
857.0
851.0
853.0
852.0
851.0
850.0
848.0
852.0
854.0
855.0
854.0
852.0
849.0
847.0
848.0
850.0
848.0
850.0
850.0
851.0
853.0
852.0
852.0
852.0
850.0
849.0
849.0
848.0
847.0
847.0
847.0
850.0
852.0
851.0
850.0
847.0
850.0
848.0
848.0
844.0
843.0
846.0
846.0
850.0
851.0
851.0
853.0
850.0
850.0
849.0
847.0
846.0
842.0
847.0
849.0
851.0
853.0
854.0
849.0
850.0
848.0
846.0
846.0
846.0
844.0
844.0
847.0
851.0
848.0
853.0
852.0
850.0
847.0
845.0
845.0
844.0
843.0
845.0
847.0
849.0
851.0
850.0
850.0
851.0
850.0
848.0
847.0
844.0
847.0
848.0
847.0
850.0
851.0
854.0
855.0
852.0
852.0
850.0
847.0
847.0
847.0
852.0
854.0
857.0
856.0
856.0
857.0
857.0
856.0
858.0
856.0
860.0
864.0
868.0
871.0
872.0
880.0
880.0
885.0
886.0
888.0
887.0
889.0
884.0
878.0
877.0
877.0
878.0
882.0
882.0
881.0
880.0
881.0
874.0
871.0
869.0
862.0
858.0
852.0
852.0
854.0
851.0
850.0
846.0
846.0
843.0
844.0
844.0
841.0
840.0
842.0
845.0
846.0
848.0
846.0
844.0
844.0
840.0
840.0
839.0
839.0
837.0
841.0
844.0
846.0
848.0
847.0
847.0
843.0
844.0
841.0
843.0
843.0
845.0
847.0
851.0
853.0
853.0
858.0
859.0
858.0
858.0
862.0
861.0
866.0
875.0
904.0
943.0
991.0
1043.0
1100.0
1151.0
1210.0
1262.0
1293.0
1292.0
1257.0
1180.0
1078.0
957.0
840.0
752.0
706.0
694.0
716.0
751.0
783.0
804.0
815.0
819.0
824.0
830.0
835.0
844.0
850.0
855.0
854.0
853.0
846.0
844.0
844.0
845.0
847.0
849.0
853.0
853.0
854.0
854.0
851.0
847.0
850.0
848.0
848.0
845.0
849.0
849.0
855.0
851.0
853.0
855.0
852.0
851.0
846.0
849.0
848.0
850.0
852.0
853.0
852.0
855.0
855.0
855.0
851.0
850.0
849.0
844.0
843.0
847.0
849.0
854.0
855.0
859.0
856.0
857.0
857.0
855.0
856.0
857.0
851.0
856.0
860.0
864.0
867.0
866.0
868.0
869.0
868.0
870.0
868.0
868.0
868.0
870.0
872.0
880.0
887.0
887.0
890.0
892.0
893.0
893.0
893.0
897.0
898.0
899.0
906.0
911.0
918.0
922.0
925.0
927.0
930.0
928.0
931.0
934.0
934.0
937.0
942.0
945.0
949.0
950.0
952.0
951.0
952.0
947.0
945.0
943.0
943.0
937.0
935.0
933.0
932.0
928.0
925.0
921.0
915.0
908.0
902.0
896.0
891.0
886.0
885.0
879.0
880.0
880.0
876.0
876.0
868.0
865.0
860.0
859.0
858.0
858.0
859.0
862.0
860.0
860.0
859.0
857.0
859.0
857.0
854.0
854.0
856.0
854.0
852.0
851.0
856.0
852.0
856.0
856.0
855.0
851.0
848.0
850.0
852.0
853.0
853.0
858.0
859.0
861.0
860.0
857.0
856.0
856.0
856.0
858.0
855.0
857.0
859.0
859.0
862.0
863.0
863.0
862.0
859.0
860.0
858.0
856.0
857.0
858.0
863.0
865.0
865.0
867.0
864.0
863.0
862.0
861.0
859.0
857.0
855.0
856.0
859.0
860.0
863.0
860.0
859.0
859.0
859.0
857.0
855.0
852.0
853.0
852.0
854.0
855.0
858.0
858.0
853.0
854.0
854.0
852.0
848.0
848.0
847.0
847.0
845.0
846.0
850.0
852.0
850.0
849.0
847.0
844.0
843.0
844.0
843.0
843.0
844.0
846.0
847.0
848.0
849.0
847.0
846.0
843.0
842.0
841.0
844.0
842.0
842.0
842.0
845.0
847.0
847.0
846.0
843.0
844.0
841.0
840.0
839.0
839.0
840.0
844.0
847.0
846.0
844.0
845.0
846.0
843.0
841.0
839.0
840.0
842.0
840.0
842.0
843.0
844.0
845.0
843.0
843.0
839.0
839.0
840.0
836.0
836.0
841.0
843.0
844.0
845.0
847.0
845.0
843.0
843.0
841.0
839.0
839.0
840.0
839.0
841.0
844.0
846.0
847.0
843.0
838.0
838.0
834.0
836.0
836.0
836.0
840.0
841.0
842.0
844.0
842.0
842.0
841.0
840.0
837.0
838.0
837.0
841.0
839.0
839.0
841.0
844.0
844.0
843.0
842.0
839.0
840.0
839.0
839.0
837.0
840.0
844.0
845.0
846.0
844.0
844.0
845.0
841.0
841.0
840.0
836.0
841.0
841.0
840.0
843.0
847.0
846.0
847.0
848.0
845.0
844.0
844.0
845.0
851.0
857.0
863.0
867.0
869.0
872.0
873.0
872.0
872.0
870.0
872.0
874.0
876.0
877.0
879.0
878.0
878.0
875.0
873.0
873.0
868.0
865.0
865.0
864.0
863.0
865.0
864.0
864.0
862.0
857.0
853.0
847.0
842.0
834.0
833.0
830.0
833.0
833.0
834.0
834.0
835.0
832.0
837.0
832.0
830.0
831.0
830.0
829.0
828.0
831.0
834.0
836.0
837.0
838.0
836.0
834.0
834.0
833.0
835.0
834.0
831.0
836.0
837.0
842.0
840.0
839.0
840.0
841.0
842.0
840.0
842.0
845.0
846.0
851.0
857.0
863.0
874.0
895.0
930.0
973.0
1021.0
1069.0
1117.0
1174.0
1229.0
1275.0
1295.0
1281.0
1228.0
1140.0
1025.0
900.0
790.0
719.0
690.0
705.0
742.0
781.0
811.0
828.0
833.0
831.0
829.0
828.0
830.0
831.0
834.0
837.0
839.0
838.0
839.0
839.0
842.0
841.0
839.0
841.0
839.0
835.0
835.0
836.0
838.0
840.0
838.0
845.0
843.0
843.0
841.0
840.0
840.0
838.0
837.0
837.0
836.0
840.0
840.0
843.0
843.0
842.0
846.0
846.0
844.0
841.0
841.0
839.0
838.0
838.0
844.0
847.0
847.0
847.0
847.0
847.0
844.0
843.0
847.0
846.0
845.0
848.0
850.0
850.0
857.0
855.0
858.0
856.0
854.0
857.0
856.0
858.0
862.0
864.0
864.0
871.0
876.0
877.0
878.0
878.0
878.0
879.0
884.0
887.0
889.0
894.0
899.0
904.0
906.0
910.0
913.0
918.0
918.0
919.0
921.0
924.0
928.0
933.0
939.0
944.0
946.0
948.0
949.0
949.0
947.0
942.0
940.0
941.0
942.0
939.0
936.0
931.0
929.0
925.0
923.0
915.0
909.0
901.0
895.0
891.0
886.0
883.0
881.0
879.0
876.0
875.0
872.0
868.0
863.0
861.0
857.0
856.0
855.0
856.0
858.0
858.0
860.0
859.0
859.0
856.0
855.0
852.0
853.0
850.0
849.0
850.0
852.0
852.0
857.0
857.0
856.0
857.0
854.0
853.0
851.0
849.0
852.0
853.0
854.0
856.0
860.0
859.0
857.0
856.0
858.0
855.0
855.0
854.0
852.0
854.0
854.0
858.0
858.0
859.0
860.0
860.0
859.0
855.0
857.0
855.0
858.0
857.0
856.0
856.0
862.0
859.0
860.0
859.0
857.0
853.0
851.0
850.0
847.0
850.0
853.0
853.0
856.0
855.0
854.0
850.0
849.0
848.0
847.0
847.0
846.0
844.0
847.0
848.0
850.0
849.0
848.0
848.0
845.0
839.0
840.0
840.0
838.0
839.0
841.0
845.0
847.0
846.0
844.0
845.0
841.0
840.0
839.0
837.0
837.0
838.0
838.0
840.0
844.0
844.0
842.0
844.0
841.0
838.0
836.0
836.0
838.0
835.0
839.0
839.0
840.0
841.0
841.0
841.0
836.0
836.0
837.0
834.0
834.0
835.0
836.0
838.0
835.0
839.0
840.0
838.0
838.0
836.0
833.0
835.0
831.0
835.0
837.0
837.0
837.0
839.0
840.0
838.0
836.0
832.0
829.0
830.0
830.0
834.0
835.0
836.0
837.0
838.0
840.0
838.0
833.0
830.0
831.0
830.0
834.0
834.0
837.0
842.0
843.0
844.0
841.0
839.0
836.0
834.0
834.0
832.0
834.0
837.0
839.0
840.0
842.0
844.0
841.0
838.0
838.0
836.0
833.0
830.0
829.0
835.0
837.0
838.0
841.0
844.0
841.0
841.0
836.0
834.0
836.0
837.0
836.0
837.0
841.0
843.0
843.0
843.0
845.0
843.0
842.0
839.0
835.0
834.0
835.0
839.0
844.0
848.0
851.0
854.0
859.0
858.0
854.0
858.0
857.0
862.0
863.0
863.0
868.0
870.0
875.0
878.0
883.0
881.0
878.0
875.0
870.0
865.0
864.0
863.0
865.0
867.0
870.0
871.0
867.0
863.0
858.0
854.0
848.0
845.0
840.0
839.0
839.0
838.0
839.0
839.0
837.0
836.0
831.0
829.0
828.0
826.0
825.0
831.0
833.0
833.0
835.0
836.0
836.0
835.0
834.0
832.0
831.0
832.0
829.0
832.0
836.0
838.0
841.0
842.0
843.0
841.0
838.0
836.0
835.0
834.0
834.0
837.0
842.0
844.0
847.0
851.0
849.0
853.0
853.0
860.0
871.0
895.0
934.0
982.0
1035.0
1091.0
1153.0
1211.0
1260.0
1282.0
1274.0
1224.0
1145.0
1042.0
933.0
829.0
753.0
708.0
699.0
708.0
734.0
761.0
781.0
792.0
799.0
803.0
808.0
817.0
825.0
833.0
841.0
844.0
848.0
844.0
841.0
839.0
838.0
836.0
835.0
839.0
842.0
844.0
848.0
850.0
850.0
849.0
845.0
841.0
839.0
839.0
841.0
844.0
843.0
844.0
844.0
847.0
847.0
844.0
845.0
842.0
841.0
840.0
839.0
839.0
840.0
840.0
844.0
847.0
849.0
844.0
844.0
844.0
841.0
841.0
842.0
842.0
844.0
848.0
848.0
849.0
850.0
850.0
848.0
848.0
849.0
847.0
849.0
850.0
852.0
857.0
859.0
860.0
861.0
861.0
862.0
863.0
862.0
865.0
865.0
869.0
877.0
879.0
885.0
889.0
889.0
891.0
891.0
891.0
892.0
895.0
897.0
902.0
904.0
908.0
917.0
918.0
920.0
928.0
926.0
927.0
928.0
929.0
930.0
934.0
936.0
940.0
942.0
941.0
941.0
939.0
934.0
930.0
929.0
926.0
923.0
915.0
912.0
907.0
907.0
902.0
899.0
894.0
887.0
887.0
882.0
877.0
874.0
871.0
869.0
868.0
866.0
865.0
864.0
859.0
858.0
854.0
851.0
853.0
850.0
851.0
850.0
857.0
857.0
857.0
855.0
854.0
852.0
848.0
849.0
847.0
844.0
847.0
849.0
851.0
851.0
854.0
856.0
853.0
850.0
851.0
850.0
849.0
847.0
849.0
847.0
849.0
853.0
858.0
857.0
857.0
854.0
854.0
853.0
854.0
856.0
855.0
859.0
858.0
861.0
864.0
862.0
862.0
863.0
862.0
860.0
859.0
855.0
857.0
863.0
866.0
867.0
866.0
866.0
866.0
862.0
859.0
857.0
857.0
858.0
861.0
863.0
864.0
866.0
865.0
861.0
861.0
858.0
856.0
855.0
851.0
854.0
855.0
851.0
854.0
857.0
858.0
857.0
856.0
852.0
852.0
849.0
849.0
852.0
851.0
852.0
857.0
857.0
855.0
854.0
853.0
850.0
851.0
849.0
847.0
846.0
848.0
850.0
851.0
853.0
855.0
850.0
851.0
850.0
849.0
846.0
846.0
843.0
848.0
850.0
852.0
851.0
853.0
854.0
850.0
850.0
849.0
850.0
847.0
844.0
847.0
850.0
850.0
852.0
852.0
852.0
846.0
849.0
848.0
845.0
846.0
846.0
846.0
850.0
851.0
852.0
853.0
852.0
853.0
850.0
849.0
848.0
848.0
848.0
848.0
851.0
851.0
853.0
852.0
854.0
854.0
852.0
848.0
848.0
849.0
849.0
852.0
850.0
852.0
853.0
853.0
852.0
852.0
851.0
848.0
848.0
847.0
845.0
849.0
849.0
853.0
857.0
861.0
859.0
860.0
856.0
856.0
856.0
854.0
857.0
860.0
865.0
872.0
876.0
880.0
879.0
880.0
882.0
880.0
882.0
883.0
887.0
891.0
895.0
898.0
899.0
895.0
893.0
890.0
883.0
880.0
878.0
879.0
881.0
878.0
878.0
877.0
877.0
871.0
867.0
858.0
852.0
849.0
846.0
848.0
847.0
845.0
846.0
844.0
845.0
850.0
850.0
851.0
849.0
844.0
843.0
843.0
841.0
842.0
844.0
845.0
851.0
849.0
848.0
848.0
850.0
849.0
848.0
845.0
846.0
849.0
849.0
851.0
854.0
855.0
857.0
859.0
857.0
856.0
854.0
852.0
855.0
860.0
867.0
871.0
875.0
883.0
902.0
932.0
980.0
1036.0
1100.0
1165.0
1233.0
1292.0
1322.0
1311.0
1256.0
1157.0
1033.0
905.0
782.0
707.0
681.0
699.0
735.0
775.0
806.0
824.0
838.0
841.0
844.0
850.0
850.0
856.0
858.0
856.0
855.0
852.0
853.0
852.0
854.0
856.0
858.0
855.0
856.0
856.0
854.0
853.0
854.0
854.0
858.0
861.0
864.0
863.0
865.0
861.0
857.0
855.0
858.0
858.0
855.0
857.0
856.0
858.0
862.0
864.0
864.0
865.0
861.0
861.0
859.0
858.0
856.0
857.0
861.0
861.0
865.0
866.0
864.0
865.0
863.0
862.0
862.0
862.0
866.0
866.0
868.0
868.0
872.0
873.0
877.0
876.0
874.0
874.0
871.0
875.0
876.0
879.0
883.0
890.0
889.0
895.0
894.0
897.0
903.0
902.0
901.0
905.0
904.0
910.0
917.0
924.0
923.0
927.0
934.0
937.0
938.0
940.0
942.0
942.0
946.0
952.0
956.0
960.0
961.0
964.0
965.0
967.0
967.0
966.0
964.0
961.0
959.0
958.0
952.0
950.0
947.0
947.0
941.0
934.0
927.0
919.0
916.0
908.0
902.0
897.0
895.0
894.0
893.0
889.0
884.0
883.0
875.0
874.0
871.0
867.0
866.0
865.0
862.0
866.0
870.0
869.0
869.0
867.0
867.0
865.0
860.0
861.0
860.0
862.0
864.0
863.0
866.0
865.0
863.0
862.0
863.0
860.0
861.0
859.0
860.0
858.0
862.0
866.0
868.0
869.0
868.0
865.0
865.0
866.0
864.0
862.0
864.0
864.0
867.0
869.0
872.0
871.0
870.0
875.0
871.0
871.0
870.0
868.0
868.0
869.0
868.0
869.0
874.0
872.0
873.0
875.0
871.0
871.0
868.0
864.0
865.0
866.0
866.0
869.0
871.0
871.0
871.0
869.0
867.0
864.0
864.0
860.0
859.0
860.0
861.0
859.0
864.0
866.0
862.0
860.0
859.0
858.0
856.0
856.0
853.0
857.0
858.0
860.0
857.0
856.0
859.0
858.0
855.0
854.0
853.0
853.0
853.0
854.0
855.0
855.0
856.0
857.0
856.0
856.0
853.0
853.0
849.0
848.0
849.0
847.0
850.0
851.0
854.0
855.0
854.0
852.0
850.0
849.0
848.0
846.0
845.0
844.0
847.0
850.0
855.0
854.0
854.0
853.0
851.0
850.0
847.0
845.0
845.0
843.0
847.0
851.0
852.0
853.0
851.0
850.0
850.0
845.0
844.0
848.0
849.0
848.0
849.0
852.0
852.0
854.0
854.0
855.0
855.0
853.0
850.0
849.0
845.0
848.0
849.0
854.0
853.0
854.0
854.0
856.0
854.0
849.0
846.0
849.0
847.0
851.0
851.0
851.0
856.0
856.0
854.0
857.0
854.0
853.0
853.0
851.0
851.0
851.0
852.0
853.0
858.0
856.0
857.0
858.0
855.0
854.0
853.0
853.0
851.0
852.0
853.0
854.0
857.0
858.0
860.0
858.0
857.0
856.0
852.0
851.0
852.0
852.0
856.0
857.0
861.0
865.0
861.0
860.0
859.0
859.0
860.0
859.0
861.0
864.0
869.0
874.0
881.0
886.0
886.0
889.0
888.0
886.0
887.0
888.0
891.0
893.0
895.0
897.0
896.0
893.0
893.0
886.0
884.0
881.0
880.0
878.0
876.0
880.0
881.0
879.0
877.0
876.0
870.0
864.0
858.0
854.0
853.0
850.0
843.0
845.0
845.0
848.0
847.0
849.0
850.0
849.0
848.0
843.0
843.0
844.0
842.0
843.0
844.0
845.0
845.0
850.0
851.0
847.0
849.0
848.0
847.0
847.0
843.0
841.0
844.0
848.0
852.0
853.0
852.0
853.0
857.0
855.0
858.0
856.0
861.0
862.0
866.0
873.0
884.0
906.0
943.0
989.0
1043.0
1096.0
1152.0
1214.0
1272.0
1302.0
1300.0
1258.0
1176.0
1058.0
930.0
810.0
734.0
701.0
715.0
749.0
787.0
819.0
837.0
839.0
840.0
840.0
840.0
844.0
847.0
851.0
851.0
853.0
851.0
850.0
848.0
851.0
853.0
857.0
860.0
860.0
859.0
855.0
854.0
854.0
853.0
850.0
852.0
857.0
857.0
855.0
859.0
858.0
857.0
856.0
855.0
854.0
850.0
853.0
855.0
857.0
860.0
860.0
858.0
859.0
859.0
856.0
855.0
853.0
855.0
854.0
857.0
856.0
859.0
860.0
860.0
863.0
862.0
861.0
859.0
857.0
858.0
858.0
862.0
864.0
866.0
868.0
872.0
876.0
873.0
869.0
868.0
871.0
873.0
875.0
880.0
887.0
887.0
891.0
894.0
895.0
896.0
898.0
899.0
901.0
901.0
905.0
912.0
916.0
923.0
927.0
930.0
929.0
932.0
933.0
933.0
936.0
943.0
945.0
947.0
953.0
955.0
961.0
964.0
968.0
967.0
963.0
963.0
964.0
961.0
960.0
960.0
961.0
956.0
958.0
954.0
953.0
941.0
936.0
931.0
924.0
918.0
910.0
910.0
909.0
903.0
901.0
896.0
894.0
888.0
883.0
880.0
877.0
875.0
870.0
870.0
873.0
870.0
872.0
872.0
869.0
869.0
866.0
868.0
862.0
860.0
861.0
863.0
864.0
866.0
868.0
868.0
867.0
866.0
865.0
863.0
857.0
857.0
858.0
862.0
865.0
866.0
866.0
868.0
865.0
863.0
862.0
862.0
859.0
861.0
864.0
865.0
864.0
867.0
867.0
869.0
870.0
867.0
864.0
864.0
862.0
861.0
861.0
863.0
865.0
866.0
868.0
868.0
869.0
867.0
865.0
860.0
861.0
861.0
860.0
862.0
862.0
865.0
867.0
864.0
864.0
863.0
860.0
858.0
857.0
855.0
857.0
858.0
854.0
859.0
861.0
858.0
862.0
859.0
855.0
852.0
852.0
852.0
851.0
850.0
856.0
855.0
853.0
855.0
853.0
854.0
849.0
849.0
847.0
848.0
846.0
849.0
849.0
851.0
852.0
855.0
852.0
848.0
848.0
847.0
842.0
845.0
846.0
846.0
849.0
851.0
853.0
849.0
848.0
847.0
847.0
844.0
842.0
841.0
842.0
844.0
845.0
847.0
851.0
849.0
848.0
845.0
841.0
840.0
839.0
839.0
842.0
842.0
846.0
846.0
847.0
848.0
848.0
847.0
845.0
841.0
839.0
838.0
841.0
839.0
842.0
842.0
846.0
847.0
849.0
848.0
844.0
841.0
840.0
838.0
840.0
839.0
846.0
845.0
847.0
846.0
845.0
843.0
844.0
843.0
841.0
840.0
840.0
841.0
841.0
845.0
847.0
847.0
847.0
845.0
845.0
840.0
838.0
836.0
837.0
839.0
842.0
843.0
846.0
845.0
846.0
843.0
842.0
845.0
842.0
840.0
839.0
841.0
842.0
844.0
844.0
845.0
845.0
844.0
846.0
841.0
843.0
841.0
841.0
841.0
844.0
847.0
849.0
849.0
850.0
847.0
843.0
844.0
847.0
845.0
847.0
851.0
859.0
862.0
866.0
867.0
873.0
873.0
871.0
871.0
871.0
871.0
872.0
876.0
885.0
887.0
885.0
884.0
882.0
877.0
872.0
870.0
869.0
866.0
866.0
866.0
866.0
865.0
858.0
856.0
852.0
845.0
840.0
839.0
838.0
836.0
835.0
832.0
832.0
835.0
834.0
835.0
833.0
834.0
832.0
830.0
830.0
830.0
828.0
828.0
831.0
834.0
834.0
836.0
838.0
839.0
837.0
834.0
832.0
832.0
834.0
834.0
837.0
840.0
841.0
844.0
839.0
840.0
843.0
843.0
838.0
843.0
848.0
848.0
854.0
861.0
873.0
903.0
947.0
1001.0
1057.0
1117.0
1185.0
1243.0
1280.0
1283.0
1236.0
1152.0
1036.0
911.0
801.0
719.0
683.0
681.0
704.0
736.0
765.0
787.0
796.0
805.0
810.0
818.0
825.0
834.0
838.0
842.0
840.0
838.0
837.0
835.0
836.0
838.0
840.0
841.0
841.0
843.0
840.0
842.0
840.0
839.0
841.0
842.0
843.0
838.0
845.0
843.0
845.0
844.0
841.0
838.0
839.0
838.0
839.0
842.0
845.0
844.0
845.0
845.0
846.0
845.0
843.0
842.0
841.0
838.0
836.0
839.0
842.0
842.0
845.0
846.0
845.0
845.0
844.0
841.0
844.0
844.0
842.0
841.0
843.0
846.0
849.0
852.0
853.0
854.0
853.0
854.0
855.0
855.0
857.0
861.0
864.0
871.0
875.0
877.0
878.0
880.0
876.0
877.0
881.0
881.0
886.0
889.0
893.0
899.0
902.0
907.0
910.0
911.0
913.0
916.0
918.0
919.0
920.0
924.0
927.0
931.0
935.0
938.0
938.0
938.0
934.0
934.0
935.0
933.0
928.0
924.0
927.0
927.0
925.0
923.0
920.0
914.0
906.0
899.0
893.0
889.0
881.0
878.0
877.0
877.0
874.0
872.0
