# Simple Text Format
# Sampling Rate (Hz):= 360.00
# Resolution:= 12
# Labels:= ECG
963.0
963.0
961.0
959.0
959.0
963.0
965.0
965.0
963.0
961.0
963.0
967.0
969.0
969.0
968.0
968.0
969.0
974.0
975.0
976.0
977.0
977.0
978.0
981.0
982.0
982.0
979.0
981.0
982.0
985.0
985.0
985.0
980.0
977.0
977.0
977.0
977.0
974.0
973.0
970.0
970.0
970.0
969.0
968.0
965.0
962.0
961.0
961.0
962.0
960.0
957.0
956.0
955.0
956.0
957.0
956.0
955.0
951.0
953.0
955.0
956.0
956.0
955.0
952.0
954.0
954.0
956.0
956.0
956.0
952.0
953.0
954.0
957.0
957.0
957.0
958.0
960.0
966.0
969.0
974.0
973.0
975.0
984.0
1000.0
1022.0
1044.0
1068.0
1089.0
1112.0
1131.0
1155.0
1178.0
1195.0
1192.0
1172.0
1136.0
1087.0
1041.0
1002.0
974.0
951.0
938.0
941.0
951.0
960.0
962.0
960.0
960.0
960.0
956.0
953.0
950.0
950.0
952.0
953.0
951.0
952.0
951.0
952.0
954.0
953.0
956.0
953.0
953.0
955.0
954.0
955.0
958.0
957.0
955.0
957.0
957.0
958.0
958.0
960.0
960.0
960.0
961.0
964.0
964.0
964.0
962.0
962.0
965.0
967.0
967.0
966.0
965.0
966.0
969.0
971.0
971.0
971.0
969.0
973.0
974.0
977.0
976.0
976.0
978.0
979.0
980.0
984.0
983.0
985.0
983.0
987.0
989.0
991.0
994.0
995.0
995.0
996.0
999.0
1001.0
1003.0
1003.0
1003.0
1006.0
1008.0
1010.0
1011.0
1007.0
1008.0
1009.0
1011.0
1013.0
1012.0
1010.0
1008.0
1008.0
1007.0
1007.0
1006.0
1004.0
1001.0
1000.0
1001.0
1000.0
997.0
994.0
990.0
989.0
987.0
988.0
985.0
982.0
981.0
980.0
980.0
979.0
979.0
976.0
976.0
976.0
977.0
978.0
975.0
974.0
973.0
972.0
971.0
975.0
974.0
971.0
970.0
972.0
973.0
975.0
974.0
973.0
972.0
972.0
974.0
975.0
975.0
974.0
971.0
973.0
975.0
976.0
974.0
973.0
972.0
973.0
975.0
976.0
975.0
974.0
971.0
973.0
974.0
975.0
975.0
972.0
971.0
973.0
974.0
975.0
976.0
974.0
973.0
970.0
974.0
975.0
975.0
973.0
972.0
973.0
972.0
974.0
975.0
974.0
973.0
972.0
973.0
975.0
975.0
972.0
972.0
973.0
972.0
974.0
974.0
973.0
970.0
970.0
971.0
973.0
974.0
972.0
971.0
971.0
972.0
973.0
972.0
972.0
969.0
970.0
972.0
972.0
970.0
970.0
969.0
970.0
970.0
974.0
970.0
971.0
969.0
970.0
971.0
971.0
970.0
972.0
970.0
970.0
970.0
972.0
969.0
969.0
966.0
966.0
970.0
971.0
970.0
969.0
967.0
968.0
970.0
972.0
971.0
970.0
968.0
968.0
971.0
971.0
972.0
970.0
968.0
970.0
971.0
970.0
969.0
968.0
965.0
969.0
967.0
969.0
968.0
969.0
967.0
967.0
969.0
969.0
969.0
969.0
966.0
969.0
970.0
970.0
970.0
968.0
966.0
966.0
967.0
970.0
968.0
969.0
968.0
968.0
969.0
970.0
971.0
968.0
966.0
968.0
969.0
972.0
972.0
970.0
968.0
967.0
969.0
971.0
971.0
970.0
969.0
968.0
970.0
973.0
972.0
971.0
970.0
972.0
972.0
972.0
974.0
971.0
969.0
969.0
972.0
972.0
974.0
970.0
969.0
969.0
971.0
973.0
972.0
973.0
970.0
973.0
971.0
975.0
975.0
972.0
970.0
970.0
972.0
974.0
973.0
973.0
970.0
971.0
972.0
974.0
973.0
972.0
969.0
971.0
972.0
974.0
977.0
975.0
974.0
975.0
974.0
976.0
975.0
975.0
972.0
971.0
971.0
976.0
975.0
975.0
974.0
975.0
976.0
976.0
977.0
978.0
979.0
983.0
985.0
989.0
989.0
988.0
989.0
991.0
995.0
998.0
998.0
996.0
991.0
995.0
995.0
999.0
1000.0
999.0
994.0
992.0
992.0
993.0
991.0
987.0
986.0
986.0
988.0
989.0
988.0
984.0
980.0
978.0
979.0
977.0
976.0
973.0
970.0
969.0
970.0
971.0
972.0
970.0
969.0
968.0
970.0
969.0
972.0
970.0
967.0
968.0
968.0
969.0
971.0
968.0
967.0
968.0
970.0
971.0
971.0
969.0
967.0
968.0
970.0
973.0
973.0
978.0
978.0
983.0
986.0
989.0
997.0
1009.0
1023.0
1042.0
1062.0
1084.0
1108.0
1126.0
1142.0
1161.0
1179.0
1181.0
1166.0
1135.0
1096.0
1062.0
1030.0
1006.0
988.0
971.0
962.0
963.0
973.0
979.0
981.0
978.0
975.0
973.0
970.0
972.0
970.0
969.0
967.0
967.0
968.0
968.0
968.0
968.0
967.0
967.0
966.0
969.0
969.0
969.0
967.0
968.0
970.0
969.0
971.0
969.0
968.0
969.0
970.0
973.0
972.0
973.0
970.0
970.0
973.0
973.0
974.0
972.0
971.0
974.0
973.0
975.0
976.0
974.0
972.0
974.0
977.0
978.0
976.0
977.0
977.0
979.0
980.0
981.0
982.0
981.0
980.0
983.0
986.0
988.0
987.0
987.0
986.0
989.0
992.0
995.0
995.0
996.0
996.0
999.0
1001.0
1003.0
1005.0
1004.0
1003.0
1006.0
1010.0
1013.0
1012.0
1011.0
1011.0
1012.0
1014.0
1019.0
1017.0
1018.0
1017.0
1016.0
1017.0
1021.0
1019.0
1015.0
1013.0
1014.0
1013.0
1013.0
1012.0
1010.0
1007.0
1004.0
1003.0
1005.0
1003.0
999.0
997.0
994.0
992.0
993.0
991.0
988.0
986.0
984.0
983.0
986.0
983.0
981.0
980.0
978.0
981.0
979.0
979.0
975.0
974.0
976.0
975.0
977.0
976.0
975.0
975.0
977.0
976.0
977.0
976.0
971.0
971.0
974.0
976.0
976.0
975.0
972.0
971.0
972.0
974.0
975.0
974.0
972.0
970.0
971.0
972.0
973.0
973.0
972.0
970.0
970.0
972.0
974.0
973.0
972.0
972.0
971.0
971.0
973.0
970.0
970.0
969.0
969.0
970.0
973.0
972.0
970.0
967.0
969.0
970.0
973.0
971.0
971.0
970.0
971.0
971.0
972.0
974.0
971.0
970.0
970.0
972.0
973.0
971.0
972.0
970.0
970.0
971.0
974.0
972.0
972.0
969.0
969.0
970.0
972.0
971.0
969.0
970.0
972.0
972.0
973.0
972.0
969.0
967.0
969.0
969.0
969.0
972.0
969.0
967.0
968.0
968.0
968.0
970.0
969.0
967.0
968.0
968.0
971.0
969.0
967.0
965.0
965.0
966.0
967.0
966.0
966.0
965.0
966.0
967.0
967.0
967.0
963.0
965.0
965.0
965.0
966.0
966.0
966.0
964.0
965.0
965.0
968.0
968.0
967.0
964.0
965.0
967.0
967.0
966.0
966.0
965.0
965.0
968.0
968.0
967.0
966.0
964.0
966.0
967.0
968.0
967.0
965.0
965.0
965.0
966.0
969.0
968.0
966.0
964.0
966.0
967.0
968.0
968.0
967.0
965.0
964.0
968.0
968.0
967.0
966.0
964.0
965.0
967.0
968.0
968.0
966.0
965.0
964.0
967.0
969.0
967.0
966.0
963.0
965.0
965.0
968.0
968.0
965.0
963.0
965.0
966.0
968.0
968.0
964.0
962.0
964.0
966.0
967.0
966.0
965.0
962.0
965.0
965.0
969.0
967.0
965.0
966.0
966.0
968.0
969.0
970.0
968.0
966.0
966.0
967.0
968.0
969.0
967.0
966.0
967.0
969.0
968.0
968.0
965.0
965.0
966.0
964.0
966.0
967.0
966.0
963.0
966.0
966.0
969.0
966.0
966.0
966.0
966.0
966.0
967.0
967.0
968.0
967.0
966.0
968.0
970.0
971.0
969.0
967.0
968.0
971.0
974.0
975.0
974.0
975.0
976.0
978.0
979.0
981.0
982.0
981.0
985.0
986.0
985.0
987.0
988.0
985.0
987.0
992.0
993.0
992.0
990.0
988.0
986.0
988.0
986.0
986.0
983.0
980.0
980.0
982.0
981.0
980.0
976.0
973.0
971.0
970.0
970.0
969.0
966.0
964.0
963.0
965.0
965.0
962.0
960.0
961.0
961.0
962.0
964.0
962.0
961.0
961.0
960.0
962.0
963.0
962.0
960.0
960.0
959.0
962.0
963.0
961.0
961.0
960.0
962.0
963.0
966.0
966.0
965.0
967.0
972.0
977.0
981.0
984.0
985.0
991.0
1004.0
1023.0
1044.0
1065.0
1088.0
1109.0
1130.0
1152.0
1177.0
1198.0
1209.0
1201.0
1182.0
1148.0
1110.0
1069.0
1031.0
1003.0
979.0
960.0
948.0
945.0
948.0
956.0
966.0
969.0
970.0
969.0
965.0
960.0
961.0
960.0
961.0
960.0
960.0
956.0
957.0
958.0
962.0
958.0
959.0
957.0
959.0
960.0
959.0
960.0
959.0
957.0
958.0
960.0
963.0
961.0
960.0
958.0
958.0
959.0
961.0
963.0
961.0
958.0
962.0
963.0
965.0
965.0
966.0
963.0
965.0
967.0
967.0
968.0
968.0
969.0
969.0
972.0
975.0
974.0
976.0
973.0
977.0
977.0
979.0
982.0
981.0
981.0
984.0
986.0
990.0
991.0
992.0
993.0
994.0
996.0
999.0
1001.0
1000.0
1001.0
1003.0
1006.0
1008.0
1010.0
1008.0
1006.0
1010.0
1011.0
1013.0
1014.0
1012.0
1010.0
1013.0
1015.0
1016.0
1014.0
1014.0
1011.0
1010.0
1010.0
1008.0
1008.0
1006.0
1002.0
999.0
1000.0
999.0
995.0
992.0
989.0
988.0
985.0
984.0
984.0
982.0
978.0
979.0
980.0
981.0
980.0
977.0
975.0
975.0
975.0
977.0
977.0
977.0
974.0
974.0
976.0
979.0
977.0
977.0
977.0
975.0
978.0
979.0
975.0
975.0
972.0
973.0
975.0
978.0
977.0
975.0
975.0
976.0
975.0
978.0
978.0
977.0
975.0
976.0
976.0
979.0
978.0
977.0
973.0
975.0
976.0
978.0
977.0
975.0
974.0
974.0
974.0
975.0
978.0
976.0
973.0
976.0
976.0
977.0
976.0
977.0
973.0
974.0
975.0
977.0
977.0
975.0
970.0
973.0
975.0
975.0
976.0
973.0
973.0
973.0
975.0
975.0
973.0
972.0
971.0
971.0
972.0
973.0
974.0
972.0
971.0
971.0
973.0
974.0
973.0
972.0
970.0
969.0
971.0
972.0
971.0
970.0
969.0
968.0
971.0
970.0
968.0
968.0
966.0
969.0
970.0
970.0
970.0
967.0
965.0
967.0
968.0
969.0
969.0
968.0
966.0
968.0
968.0
971.0
969.0
968.0
967.0
968.0
968.0
970.0
969.0
966.0
966.0
966.0
968.0
970.0
969.0
968.0
966.0
967.0
966.0
969.0
968.0
968.0
966.0
965.0
967.0
969.0
968.0
967.0
967.0
967.0
969.0
969.0
968.0
967.0
967.0
967.0
968.0
969.0
969.0
969.0
965.0
966.0
968.0
971.0
969.0
968.0
968.0
968.0
968.0
969.0
970.0
970.0
968.0
968.0
970.0
971.0
972.0
970.0
967.0
971.0
970.0
972.0
972.0
970.0
968.0
966.0
968.0
971.0
968.0
969.0
967.0
969.0
971.0
975.0
971.0
969.0
969.0
970.0
972.0
972.0
971.0
969.0
970.0
969.0
969.0
971.0
971.0
970.0
969.0
970.0
972.0
973.0
973.0
970.0
969.0
971.0
972.0
974.0
973.0
968.0
971.0
973.0
972.0
973.0
973.0
972.0
971.0
973.0
976.0
975.0
975.0
975.0
974.0
978.0
981.0
987.0
986.0
987.0
985.0
986.0
990.0
994.0
993.0
993.0
993.0
992.0
993.0
995.0
996.0
996.0
995.0
997.0
995.0
995.0
993.0
990.0
985.0
987.0
988.0
988.0
987.0
985.0
982.0
982.0
980.0
980.0
976.0
974.0
971.0
972.0
972.0
974.0
969.0
966.0
966.0
967.0
967.0
969.0
969.0
965.0
966.0
968.0
969.0
967.0
969.0
967.0
966.0
964.0
968.0
967.0
968.0
965.0
965.0
966.0
967.0
969.0
971.0
971.0
971.0
976.0
983.0
986.0
989.0
998.0
1013.0
1037.0
1060.0
1084.0
1109.0
1128.0
1147.0
1169.0
1184.0
1182.0
1159.0
1125.0
1086.0
1048.0
1017.0
996.0
978.0
966.0
962.0
967.0
975.0
981.0
977.0
973.0
971.0
968.0
968.0
968.0
968.0
966.0
963.0
963.0
965.0
965.0
965.0
965.0
965.0
966.0
966.0
966.0
966.0
965.0
964.0
965.0
966.0
969.0
968.0
966.0
966.0
967.0
968.0
971.0
970.0
970.0
969.0
969.0
972.0
974.0
974.0
972.0
970.0
973.0
974.0
975.0
975.0
976.0
976.0
977.0
978.0
981.0
982.0
980.0
981.0
983.0
986.0
990.0
991.0
991.0
992.0
996.0
999.0
999.0
1002.0
1003.0
1003.0
1005.0
1008.0
1010.0
1012.0
1012.0
1010.0
1012.0
1014.0
1016.0
1017.0
1017.0
1016.0
1016.0
1018.0
1019.0
1018.0
1016.0
1014.0
1011.0
1011.0
1011.0
1010.0
1005.0
1002.0
1001.0
999.0
1001.0
999.0
993.0
987.0
985.0
987.0
987.0
984.0
982.0
977.0
978.0
979.0
982.0
981.0
978.0
976.0
976.0
977.0
978.0
978.0
974.0
972.0
974.0
976.0
978.0
976.0
974.0
972.0
975.0
977.0
977.0
975.0
975.0
973.0
975.0
974.0
976.0
972.0
972.0
971.0
974.0
975.0
975.0
975.0
975.0
972.0
973.0
973.0
975.0
974.0
973.0
972.0
973.0
973.0
974.0
975.0
973.0
971.0
971.0
973.0
975.0
975.0
973.0
971.0
971.0
972.0
975.0
974.0
972.0
970.0
969.0
972.0
973.0
972.0
971.0
970.0
971.0
971.0
972.0
972.0
971.0
968.0
970.0
971.0
973.0
971.0
969.0
968.0
969.0
971.0
972.0
971.0
969.0
969.0
970.0
969.0
973.0
970.0
970.0
967.0
969.0
968.0
968.0
967.0
967.0
966.0
969.0
967.0
969.0
966.0
965.0
965.0
967.0
967.0
967.0
965.0
965.0
964.0
966.0
966.0
969.0
968.0
966.0
965.0
965.0
967.0
965.0
966.0
965.0
964.0
965.0
966.0
968.0
965.0
967.0
965.0
965.0
966.0
967.0
966.0
964.0
963.0
965.0
964.0
966.0
966.0
965.0
962.0
964.0
964.0
968.0
966.0
964.0
963.0
963.0
963.0
966.0
966.0
965.0
961.0
962.0
966.0
967.0
965.0
965.0
965.0
965.0
964.0
966.0
969.0
966.0
963.0
963.0
965.0
968.0
967.0
966.0
964.0
963.0
965.0
967.0
965.0
965.0
963.0
964.0
963.0
967.0
966.0
964.0
963.0
965.0
967.0
966.0
966.0
964.0
963.0
965.0
966.0
967.0
967.0
963.0
962.0
962.0
965.0
968.0
967.0
963.0
962.0
965.0
964.0
966.0
962.0
963.0
961.0
962.0
965.0
967.0
966.0
963.0
962.0
965.0
966.0
968.0
966.0
965.0
964.0
966.0
966.0
968.0
964.0
964.0
964.0
963.0
964.0
966.0
966.0
967.0
965.0
966.0
966.0
966.0
968.0
968.0
965.0
966.0
968.0
969.0
969.0
968.0
964.0
966.0
968.0
968.0
969.0
970.0
967.0
966.0
969.0
971.0
972.0
971.0
970.0
971.0
974.0
978.0
981.0
980.0
980.0
980.0
981.0
983.0
983.0
980.0
980.0
981.0
982.0
985.0
989.0
986.0
983.0
980.0
980.0
980.0
980.0
979.0
977.0
978.0
980.0
978.0
978.0
974.0
971.0
971.0
974.0
974.0
973.0
971.0
967.0
969.0
970.0
969.0
970.0
967.0
965.0
966.0
968.0
969.0
970.0
970.0
966.0
969.0
967.0
971.0
968.0
968.0
967.0
967.0
967.0
970.0
971.0
970.0
969.0
969.0
972.0
975.0
983.0
983.0
984.0
985.0
996.0
1008.0
1027.0
1046.0
1067.0
1094.0
1120.0
1136.0
1152.0
1175.0
1194.0
1209.0
1206.0
1183.0
1143.0
1094.0
1055.0
1022.0
998.0
972.0
954.0
949.0
951.0
965.0
973.0
976.0
975.0
970.0
967.0
964.0
965.0
966.0
965.0
962.0
961.0
962.0
964.0
965.0
963.0
962.0
960.0
961.0
963.0
964.0
962.0
960.0
961.0
963.0
964.0
966.0
967.0
965.0
966.0
963.0
967.0
969.0
968.0
968.0
965.0
967.0
970.0
972.0
971.0
970.0
970.0
972.0
974.0
974.0
975.0
974.0
972.0
973.0
977.0
980.0
981.0
980.0
979.0
981.0
983.0
986.0
986.0
988.0
985.0
991.0
993.0
995.0
998.0
997.0
994.0
1001.0
1003.0
1006.0
1007.0
1008.0
1006.0
1009.0
1013.0
1014.0
1014.0
1013.0
1014.0
1017.0
1019.0
1021.0
1022.0
1020.0
1018.0
1021.0
1023.0
1023.0
1020.0
1017.0
1015.0
1016.0
1015.0
1016.0
1014.0
1011.0
1007.0
1005.0
1004.0
1002.0
999.0
998.0
992.0
992.0
992.0
990.0
989.0
986.0
984.0
985.0
986.0
984.0
981.0
979.0
980.0
977.0
983.0
983.0
980.0
979.0
978.0
979.0
980.0
982.0
982.0
980.0
979.0
982.0
982.0
982.0
982.0
979.0
977.0
978.0
979.0
980.0
979.0
977.0
974.0
979.0
980.0
982.0
981.0
981.0
977.0
978.0
981.0
983.0
981.0
979.0
977.0
979.0
979.0
980.0
983.0
979.0
978.0
978.0
982.0
981.0
979.0
978.0
977.0
977.0
981.0
981.0
981.0
979.0
976.0
977.0
978.0
980.0
979.0
978.0
976.0
978.0
979.0
980.0
979.0
978.0
975.0
976.0
978.0
978.0
980.0
978.0
977.0
976.0
977.0
979.0
977.0
977.0
975.0
975.0
976.0
977.0
977.0
976.0
972.0
975.0
977.0
976.0
976.0
971.0
970.0
971.0
974.0
975.0
974.0
973.0
971.0
973.0
974.0
973.0
973.0
972.0
972.0
973.0
976.0
974.0
975.0
971.0
972.0
974.0
973.0
973.0
972.0
972.0
970.0
971.0
973.0
974.0
972.0
972.0
972.0
972.0
976.0
975.0
973.0
972.0
971.0
973.0
975.0
975.0
975.0
973.0
972.0
974.0
975.0
976.0
976.0
972.0
971.0
973.0
973.0
974.0
974.0
973.0
971.0
973.0
972.0
974.0
976.0
975.0
972.0
974.0
976.0
975.0
974.0
972.0
969.0
972.0
974.0
975.0
975.0
973.0
970.0
973.0
974.0
976.0
974.0
974.0
973.0
974.0
973.0
974.0
974.0
971.0
970.0
973.0
975.0
975.0
973.0
973.0
972.0
974.0
975.0
977.0
974.0
973.0
973.0
974.0
974.0
975.0
973.0
972.0
970.0
973.0
974.0
975.0
974.0
973.0
973.0
973.0
975.0
975.0
974.0
971.0
971.0
974.0
975.0
975.0
975.0
973.0
974.0
974.0
975.0
975.0
974.0
972.0
972.0
973.0
977.0
977.0
975.0
974.0
974.0
976.0
976.0
977.0
976.0
974.0
972.0
973.0
974.0
978.0
976.0
975.0
974.0
976.0
977.0
977.0
977.0
976.0
977.0
978.0
980.0
980.0
981.0
982.0
981.0
982.0
987.0
990.0
992.0
991.0
990.0
993.0
995.0
998.0
999.0
997.0
997.0
998.0
998.0
1000.0
999.0
999.0
999.0
1000.0
997.0
995.0
993.0
994.0
992.0
991.0
993.0
993.0
992.0
987.0
984.0
985.0
984.0
983.0
980.0
976.0
974.0
973.0
975.0
976.0
974.0
971.0
971.0
971.0
972.0
972.0
971.0
972.0
969.0
972.0
972.0
974.0
970.0
968.0
967.0
969.0
969.0
973.0
970.0
968.0
968.0
971.0
970.0
972.0
974.0
973.0
974.0
980.0
987.0
991.0
990.0
993.0
1000.0
1017.0
1036.0
1055.0
1073.0
1096.0
1116.0
1136.0
1152.0
1171.0
1182.0
1182.0
1168.0
1142.0
1114.0
1082.0
1047.0
1016.0
995.0
982.0
971.0
968.0
969.0
975.0
977.0
976.0
978.0
975.0
971.0
968.0
965.0
966.0
967.0
968.0
965.0
965.0
962.0
963.0
966.0
966.0
965.0
964.0
963.0
965.0
965.0
967.0
966.0
964.0
963.0
965.0
966.0
967.0
969.0
964.0
964.0
964.0
968.0
968.0
969.0
967.0
966.0
966.0
969.0
969.0
972.0
969.0
968.0
969.0
972.0
974.0
973.0
972.0
972.0
973.0
975.0
975.0
976.0
976.0
976.0
979.0
980.0
980.0
981.0
982.0
982.0
982.0
985.0
984.0
987.0
989.0
990.0
991.0
996.0
997.0
997.0
999.0
996.0
1001.0
1004.0
1006.0
1006.0
1006.0
1005.0
1009.0
1014.0
1014.0
1014.0
1014.0
1012.0
1017.0
1018.0
1018.0
1018.0
1017.0
1015.0
1018.0
1018.0
1017.0
1016.0
1015.0
1011.0
1010.0
1011.0
1012.0
1010.0
1007.0
1002.0
1002.0
1000.0
996.0
997.0
992.0
989.0
987.0
985.0
986.0
984.0
979.0
974.0
978.0
980.0
978.0
977.0
976.0
973.0
973.0
972.0
975.0
974.0
971.0
970.0
971.0
972.0
974.0
973.0
973.0
970.0
972.0
973.0
973.0
974.0
971.0
971.0
971.0
973.0
972.0
972.0
973.0
970.0
971.0
971.0
973.0
973.0
970.0
969.0
970.0
973.0
972.0
971.0
969.0
968.0
969.0
970.0
973.0
971.0
968.0
970.0
970.0
972.0
974.0
973.0
970.0
968.0
971.0
973.0
973.0
972.0
970.0
970.0
968.0
972.0
972.0
972.0
971.0
968.0
970.0
970.0
973.0
973.0
968.0
970.0
971.0
971.0
975.0
973.0
971.0
970.0
970.0
970.0
972.0
971.0
968.0
969.0
969.0
971.0
971.0
971.0
971.0
966.0
971.0
972.0
973.0
971.0
969.0
969.0
969.0
972.0
975.0
973.0
970.0
968.0
969.0
972.0
972.0
972.0
970.0
968.0
969.0
971.0
971.0
971.0
970.0
969.0
969.0
972.0
972.0
970.0
969.0
968.0
969.0
968.0
970.0
969.0
968.0
966.0
967.0
971.0
970.0
968.0
969.0
967.0
968.0
970.0
970.0
970.0
970.0
966.0
968.0
969.0
970.0
970.0
968.0
969.0
968.0
970.0
972.0
971.0
968.0
967.0
970.0
973.0
972.0
969.0
967.0
966.0
969.0
970.0
971.0
971.0
970.0
969.0
969.0
970.0
969.0
971.0
970.0
968.0
969.0
970.0
972.0
971.0
969.0
969.0
970.0
972.0
973.0
971.0
969.0
969.0
969.0
971.0
972.0
973.0
971.0
969.0
970.0
971.0
973.0
969.0
971.0
970.0
971.0
971.0
972.0
971.0
969.0
970.0
972.0
974.0
974.0
973.0
970.0
971.0
971.0
969.0
972.0
971.0
970.0
968.0
971.0
970.0
973.0
971.0
969.0
969.0
969.0
974.0
973.0
973.0
971.0
969.0
971.0
973.0
974.0
972.0
970.0
969.0
971.0
971.0
970.0
970.0
971.0
970.0
971.0
971.0
971.0
973.0
970.0
970.0
969.0
972.0
975.0
972.0
971.0
969.0
973.0
973.0
975.0
973.0
971.0
971.0
973.0
974.0
974.0
973.0
971.0
970.0
972.0
975.0
974.0
974.0
972.0
972.0
973.0
974.0
975.0
975.0
973.0
971.0
974.0
976.0
977.0
978.0
977.0
973.0
975.0
978.0
981.0
979.0
979.0
979.0
983.0
985.0
985.0
987.0
987.0
984.0
986.0
988.0
989.0
987.0
987.0
986.0
986.0
990.0
993.0
992.0
987.0
984.0
985.0
986.0
984.0
984.0
985.0
982.0
983.0
982.0
982.0
982.0
981.0
979.0
980.0
979.0
979.0
980.0
978.0
976.0
973.0
974.0
973.0
974.0
973.0
972.0
973.0
972.0
974.0
974.0
973.0
972.0
973.0
973.0
975.0
975.0
974.0
972.0
973.0
973.0
976.0
975.0
974.0
974.0
974.0
973.0
978.0
979.0
983.0
984.0
991.0
994.0
995.0
999.0
1008.0
1025.0
1046.0
1067.0
1095.0
1120.0
1137.0
1158.0
1182.0
1202.0
1209.0
1194.0
1161.0
1119.0
1079.0
1046.0
1019.0
994.0
971.0
959.0
960.0
968.0
979.0
982.0
980.0
975.0
976.0
973.0
974.0
970.0
969.0
968.0
971.0
971.0
970.0
968.0
968.0
966.0
968.0
971.0
971.0
970.0
969.0
968.0
967.0
969.0
971.0
971.0
969.0
970.0
971.0
972.0
972.0
974.0
972.0
972.0
974.0
974.0
974.0
974.0
974.0
973.0
974.0
977.0
980.0
977.0
978.0
975.0
979.0
981.0
980.0
981.0
980.0
980.0
981.0
983.0
986.0
986.0
985.0
985.0
990.0
992.0
995.0
997.0
997.0
997.0
1000.0
1002.0
1003.0
1004.0
1004.0
1005.0
1008.0
1010.0
1013.0
1015.0
1015.0
1014.0
1015.0
1018.0
1018.0
1021.0
1018.0
1018.0
1020.0
1023.0
1022.0
1022.0
1020.0
1019.0
1021.0
1019.0
1020.0
1017.0
1017.0
1014.0
1013.0
1012.0
1009.0
1006.0
1001.0
1001.0
998.0
998.0
998.0
996.0
993.0
990.0
989.0
989.0
989.0
987.0
985.0
982.0
983.0
985.0
986.0
985.0
982.0
981.0
984.0
982.0
982.0
982.0
981.0
981.0
983.0
981.0
980.0
980.0
979.0
979.0
981.0
980.0
984.0
980.0
979.0
978.0
979.0
982.0
983.0
980.0
979.0
979.0
980.0
983.0
983.0
981.0
980.0
979.0
981.0
982.0
983.0
981.0
981.0
979.0
980.0
982.0
982.0
981.0
979.0
978.0
980.0
983.0
982.0
981.0
979.0
979.0
981.0
983.0
984.0
981.0
981.0
981.0
982.0
981.0
983.0
982.0
980.0
978.0
982.0
982.0
983.0
981.0
979.0
979.0
979.0
982.0
982.0
981.0
980.0
977.0
979.0
978.0
982.0
981.0
979.0
977.0
977.0
979.0
980.0
979.0
978.0
973.0
976.0
976.0
977.0
977.0
976.0
975.0
976.0
978.0
977.0
977.0
977.0
974.0
974.0
976.0
976.0
975.0
974.0
974.0
974.0
975.0
977.0
975.0
973.0
972.0
974.0
975.0
975.0
974.0
975.0
972.0
974.0
975.0
974.0
976.0
976.0
973.0
975.0
976.0
974.0
974.0
974.0
972.0
973.0
975.0
975.0
974.0
972.0
970.0
973.0
975.0
974.0
973.0
972.0
974.0
973.0
975.0
974.0
974.0
974.0
974.0
974.0
975.0
976.0
974.0
973.0
974.0
973.0
976.0
976.0
973.0
973.0
970.0
972.0
975.0
976.0
973.0
975.0
974.0
975.0
975.0
973.0
973.0
973.0
972.0
973.0
976.0
976.0
975.0
973.0
970.0
973.0
975.0
974.0
972.0
973.0
972.0
974.0
975.0
975.0
975.0
975.0
972.0
974.0
974.0
975.0
975.0
974.0
974.0
974.0
977.0
977.0
976.0
974.0
973.0
976.0
975.0
977.0
976.0
975.0
972.0
974.0
976.0
976.0
975.0
975.0
972.0
975.0
977.0
976.0
976.0
974.0
972.0
975.0
975.0
977.0
975.0
974.0
973.0
974.0
976.0
977.0
977.0
974.0
976.0
977.0
979.0
980.0
976.0
977.0
976.0
976.0
979.0
979.0
978.0
976.0
976.0
977.0
979.0
978.0
977.0
976.0
976.0
976.0
979.0
976.0
977.0
975.0
976.0
977.0
979.0
979.0
979.0
977.0
976.0
978.0
978.0
976.0
977.0
977.0
976.0
978.0
979.0
981.0
979.0
979.0
979.0
979.0
982.0
984.0
984.0
985.0
983.0
984.0
987.0
986.0
989.0
990.0
990.0
991.0
993.0
992.0
994.0
990.0
989.0
990.0
992.0
992.0
994.0
994.0
993.0
989.0
988.0
988.0
988.0
986.0
984.0
986.0
988.0
989.0
985.0
980.0
981.0
979.0
980.0
979.0
978.0
976.0
974.0
977.0
976.0
974.0
976.0
974.0
973.0
976.0
976.0
977.0
975.0
972.0
969.0
971.0
974.0
975.0
974.0
971.0
972.0
974.0
977.0
977.0
974.0
972.0
973.0
977.0
981.0
988.0
989.0
991.0
993.0
998.0
1008.0
1023.0
1042.0
1059.0
1082.0
1108.0
1129.0
1145.0
1163.0
1178.0
1184.0
1174.0
1147.0
1114.0
1074.0
1039.0
1012.0
992.0
979.0
971.0
965.0
969.0
976.0
982.0
982.0
979.0
978.0
973.0
970.0
971.0
971.0
968.0
967.0
966.0
965.0
968.0
969.0
968.0
969.0
966.0
966.0
967.0
968.0
971.0
970.0
967.0
965.0
969.0
971.0
973.0
970.0
971.0
970.0
971.0
974.0
974.0
973.0
971.0
971.0
973.0
975.0
974.0
975.0
974.0
973.0
976.0
978.0
979.0
977.0
976.0
976.0
977.0
981.0
982.0
981.0
979.0
982.0
983.0
986.0
987.0
987.0
986.0
985.0
990.0
994.0
995.0
995.0
996.0
996.0
998.0
1001.0
1002.0
1003.0
1004.0
1004.0
1007.0
1010.0
1011.0
1013.0
1012.0
1013.0
1015.0
1018.0
1019.0
1020.0
1019.0
1017.0
1020.0
1021.0
1021.0
1018.0
1019.0
1016.0
1016.0
1018.0
1017.0
1014.0
1010.0
1007.0
1006.0
1005.0
1001.0
999.0
996.0
994.0
993.0
991.0
992.0
987.0
986.0
982.0
981.0
984.0
983.0
982.0
980.0
978.0
977.0
980.0
980.0
979.0
978.0
976.0
978.0
978.0
979.0
979.0
976.0
976.0
977.0
978.0
978.0
977.0
975.0
975.0
975.0
977.0
979.0
978.0
976.0
975.0
978.0
978.0
979.0
978.0
972.0
974.0
974.0
979.0
978.0
975.0
975.0
973.0
976.0
977.0
976.0
977.0
974.0
974.0
975.0
976.0
978.0
977.0
974.0
974.0
977.0
976.0
978.0
978.0
974.0
973.0
975.0
977.0
978.0
976.0
976.0
974.0
976.0
977.0
974.0
976.0
973.0
975.0
977.0
979.0
978.0
975.0
976.0
975.0
975.0
977.0
976.0
975.0
974.0
974.0
975.0
977.0
978.0
976.0
972.0
974.0
975.0
977.0
977.0
974.0
974.0
973.0
974.0
976.0
975.0
973.0
974.0
972.0
974.0
976.0
973.0
976.0
972.0
971.0
975.0
973.0
974.0
974.0
972.0
971.0
975.0
975.0
974.0
975.0
974.0
972.0
973.0
974.0
976.0
973.0
973.0
973.0
975.0
974.0
975.0
975.0
972.0
972.0
973.0
973.0
975.0
975.0
974.0
973.0
975.0
974.0
976.0
975.0
974.0
973.0
974.0
974.0
974.0
973.0
974.0
973.0
974.0
976.0
974.0
973.0
973.0
970.0
972.0
975.0
975.0
975.0
971.0
971.0
975.0
975.0
976.0
974.0
974.0
971.0
973.0
977.0
975.0
974.0
971.0
972.0
973.0
974.0
974.0
976.0
973.0
970.0
971.0
974.0
