# Simple Text Format
# Sampling Rate (Hz):= 360.00
# Resolution:= 12
# Labels:= ECG
974.0
978.0
978.0
974.0
971.0
974.0
974.0
975.0
976.0
976.0
973.0
970.0
971.0
977.0
974.0
974.0
972.0
972.0
973.0
976.0
975.0
974.0
970.0
971.0
970.0
976.0
977.0
974.0
972.0
971.0
974.0
976.0
973.0
973.0
972.0
971.0
973.0
976.0
973.0
974.0
973.0
972.0
976.0
976.0
974.0
973.0
971.0
973.0
975.0
978.0
975.0
974.0
972.0
971.0
973.0
974.0
976.0
975.0
972.0
969.0
971.0
974.0
975.0
974.0
968.0
969.0
974.0
978.0
976.0
976.0
971.0
971.0
976.0
979.0
977.0
974.0
974.0
973.0
971.0
976.0
976.0
975.0
970.0
972.0
975.0
976.0
976.0
973.0
974.0
975.0
977.0
980.0
975.0
971.0
972.0
974.0
977.0
979.0
978.0
976.0
975.0
974.0
975.0
979.0
975.0
976.0
974.0
970.0
974.0
979.0
977.0
975.0
972.0
972.0
975.0
979.0
979.0
976.0
971.0
971.0
976.0
979.0
978.0
974.0
971.0
971.0
975.0
977.0
978.0
975.0
975.0
975.0
978.0
981.0
978.0
976.0
975.0
972.0
977.0
981.0
978.0
976.0
975.0
976.0
976.0
983.0
981.0
980.0
976.0
976.0
980.0
984.0
985.0
984.0
980.0
978.0
981.0
985.0
986.0
984.0
982.0
983.0
987.0
992.0
993.0
991.0
989.0
989.0
994.0
997.0
996.0
993.0
994.0
995.0
999.0
1001.0
1002.0
1000.0
998.0
999.0
1005.0
1006.0
1006.0
998.0
998.0
996.0
1000.0
1003.0
1004.0
1002.0
1000.0
999.0
1001.0
1001.0
999.0
996.0
990.0
989.0
990.0
993.0
991.0
989.0
984.0
986.0
988.0
988.0
989.0
985.0
984.0
984.0
986.0
989.0
988.0
987.0
987.0
984.0
989.0
988.0
990.0
988.0
989.0
987.0
986.0
988.0
991.0
986.0
985.0
988.0
990.0
994.0
995.0
994.0
994.0
997.0
999.0
1007.0
1011.0
1018.0
1023.0
1033.0
1059.0
1087.0
1125.0
1162.0
1198.0
1235.0
1273.0
1311.0
1344.0
1371.0
1389.0
1389.0
1370.0
1339.0
1291.0
1231.0
1176.0
1121.0
1077.0
1041.0
1015.0
1003.0
1001.0
1003.0
1007.0
1008.0
1003.0
998.0
994.0
990.0
989.0
989.0
985.0
981.0
981.0
980.0
980.0
982.0
979.0
978.0
977.0
980.0
980.0
983.0
979.0
975.0
975.0
973.0
976.0
979.0
979.0
978.0
977.0
977.0
979.0
984.0
981.0
981.0
980.0
981.0
978.0
982.0
982.0
983.0
984.0
982.0
987.0
988.0
989.0
986.0
984.0
980.0
985.0
993.0
993.0
992.0
990.0
992.0
996.0
1000.0
1000.0
1000.0
1000.0
1003.0
1005.0
1010.0
1010.0
1008.0
1011.0
1013.0
1017.0
1022.0
1023.0
1023.0
1023.0
1028.0
1034.0
1038.0
1040.0
1043.0
1041.0
1042.0
1046.0
1050.0
1053.0
1053.0
1056.0
1056.0
1061.0
1067.0
1062.0
1060.0
1059.0
1059.0
1060.0
1063.0
1058.0
1050.0
1046.0
1044.0
1041.0
1039.0
1035.0
1028.0
1024.0
1021.0
1018.0
1018.0
1013.0
1007.0
1001.0
999.0
1000.0
1004.0
1000.0
995.0
992.0
990.0
993.0
996.0
991.0
989.0
986.0
986.0
991.0
991.0
989.0
988.0
986.0
986.0
986.0
989.0
987.0
989.0
985.0
983.0
984.0
987.0
983.0
985.0
985.0
982.0
988.0
989.0
989.0
985.0
984.0
982.0
987.0
992.0
990.0
990.0
988.0
991.0
992.0
992.0
991.0
987.0
987.0
987.0
989.0
996.0
994.0
991.0
989.0
990.0
994.0
997.0
995.0
993.0
990.0
989.0
991.0
994.0
994.0
989.0
991.0
989.0
991.0
990.0
990.0
991.0
988.0
986.0
989.0
990.0
991.0
987.0
987.0
988.0
987.0
991.0
989.0
983.0
986.0
986.0
987.0
989.0
987.0
984.0
984.0
979.0
985.0
987.0
988.0
981.0
981.0
980.0
984.0
988.0
984.0
982.0
980.0
982.0
981.0
988.0
985.0
985.0
982.0
978.0
982.0
986.0
985.0
983.0
979.0
980.0
983.0
987.0
982.0
981.0
981.0
980.0
982.0
987.0
986.0
981.0
979.0
982.0
984.0
988.0
985.0
979.0
980.0
979.0
981.0
983.0
981.0
983.0
981.0
979.0
979.0
984.0
982.0
980.0
979.0
979.0
981.0
981.0
983.0
980.0
983.0
980.0
983.0
986.0
982.0
981.0
978.0
977.0
982.0
982.0
983.0
981.0
979.0
979.0
980.0
985.0
983.0
982.0
982.0
980.0
980.0
984.0
984.0
982.0
979.0
979.0
982.0
983.0
984.0
983.0
980.0
982.0
985.0
986.0
982.0
979.0
978.0
979.0
982.0
985.0
984.0
981.0
979.0
981.0
983.0
982.0
983.0
984.0
982.0
981.0
980.0
986.0
985.0
983.0
982.0
982.0
987.0
988.0
986.0
984.0
984.0
983.0
987.0
991.0
990.0
989.0
987.0
987.0
990.0
997.0
998.0
998.0
994.0
997.0
999.0
1000.0
1002.0
999.0
996.0
998.0
999.0
1007.0
1006.0
1006.0
1003.0
1002.0
999.0
1003.0
1002.0
1003.0
1000.0
1001.0
1000.0
1001.0
1001.0
995.0
992.0
990.0
992.0
989.0
991.0
988.0
982.0
983.0
988.0
990.0
989.0
982.0
980.0
984.0
987.0
988.0
988.0
986.0
985.0
981.0
984.0
988.0
986.0
986.0
984.0
986.0
987.0
988.0
989.0
988.0
985.0
984.0
991.0
990.0
990.0
992.0
988.0
991.0
994.0
999.0
1001.0
999.0
1006.0
1011.0
1019.0
1034.0
1055.0
1078.0
1105.0
1138.0
1178.0
1220.0
1255.0
1289.0
1318.0
1350.0
1376.0
1381.0
1363.0
1330.0
1281.0
1225.0
1174.0
1130.0
1085.0
1047.0
1021.0
1009.0
1012.0
1013.0
1010.0
1004.0
996.0
993.0
992.0
993.0
988.0
985.0
982.0
980.0
984.0
986.0
981.0
977.0
976.0
977.0
979.0
979.0
978.0
975.0
973.0
975.0
978.0
977.0
978.0
979.0
976.0
974.0
979.0
982.0
978.0
972.0
977.0
979.0
980.0
983.0
982.0
980.0
976.0
978.0
983.0
985.0
985.0
983.0
981.0
981.0
985.0
990.0
987.0
984.0
987.0
988.0
991.0
995.0
996.0
994.0
993.0
993.0
998.0
1002.0
1002.0
999.0
1001.0
1003.0
1010.0
1014.0
1016.0
1014.0
1013.0
1018.0
1021.0
1028.0
1028.0
1029.0
1031.0
1031.0
1037.0
1045.0
1046.0
1046.0
1045.0
1049.0
1050.0
1057.0
1059.0
1057.0
1056.0
1057.0
1062.0
1066.0
1061.0
1061.0
1058.0
1053.0
1053.0
1053.0
1049.0
1040.0
1033.0
1030.0
1029.0
1029.0
1025.0
1016.0
1010.0
1008.0
1006.0
1006.0
1002.0
999.0
991.0
989.0
989.0
992.0
990.0
988.0
984.0
983.0
984.0
983.0
985.0
980.0
977.0
979.0
980.0
981.0
980.0
979.0
979.0
977.0
979.0
981.0
981.0
980.0
978.0
973.0
978.0
980.0
980.0
978.0
973.0
973.0
977.0
980.0
978.0
977.0
977.0
977.0
976.0
978.0
978.0
975.0
974.0
975.0
978.0
981.0
980.0
980.0
978.0
975.0
978.0
982.0
979.0
979.0
978.0
977.0
979.0
980.0
982.0
978.0
977.0
975.0
978.0
980.0
979.0
978.0
976.0
974.0
978.0
983.0
981.0
978.0
979.0
978.0
981.0
984.0
979.0
978.0
976.0
975.0
978.0
984.0
980.0
978.0
973.0
974.0
976.0
976.0
978.0
975.0
974.0
973.0
978.0
981.0
979.0
975.0
976.0
978.0
978.0
981.0
979.0
977.0
971.0
972.0
977.0
981.0
980.0
977.0
974.0
971.0
975.0
978.0
979.0
974.0
971.0
971.0
973.0
978.0
977.0
975.0
972.0
969.0
973.0
976.0
976.0
973.0
970.0
970.0
971.0
977.0
975.0
974.0
970.0
971.0
973.0
977.0
975.0
973.0
970.0
973.0
977.0
977.0
980.0
974.0
972.0
972.0
974.0
978.0
978.0
973.0
969.0
972.0
971.0
977.0
978.0
977.0
973.0
973.0
975.0
978.0
979.0
976.0
973.0
973.0
974.0
974.0
974.0
973.0
972.0
972.0
973.0
976.0
974.0
975.0
975.0
974.0
976.0
980.0
979.0
975.0
971.0
972.0
976.0
977.0
979.0
977.0
974.0
974.0
976.0
977.0
976.0
978.0
976.0
976.0
978.0
980.0
979.0
977.0
976.0
972.0
977.0
979.0
977.0
977.0
973.0
975.0
977.0
978.0
976.0
978.0
977.0
976.0
979.0
980.0
980.0
977.0
975.0
975.0
978.0
983.0
980.0
980.0
977.0
978.0
980.0
983.0
983.0
982.0
981.0
984.0
988.0
992.0
994.0
993.0
990.0
991.0
993.0
996.0
995.0
994.0
995.0
994.0
996.0
1003.0
1000.0
1000.0
1000.0
999.0
999.0
1001.0
998.0
996.0
996.0
996.0
997.0
1000.0
998.0
990.0
987.0
987.0
990.0
993.0
987.0
984.0
981.0
980.0
983.0
984.0
984.0
981.0
978.0
977.0
978.0
981.0
981.0
980.0
977.0
978.0
981.0
988.0
986.0
981.0
978.0
982.0
985.0
987.0
986.0
986.0
983.0
984.0
987.0
992.0
990.0
987.0
986.0
988.0
992.0
998.0
999.0
1001.0
1007.0
1013.0
1021.0
1039.0
1061.0
1087.0
1118.0
1151.0
1195.0
1237.0
1273.0
1307.0
1341.0
1372.0
1384.0
1372.0
1331.0
1274.0
1210.0
1154.0
1105.0
1068.0
1037.0
1013.0
1008.0
1008.0
1009.0
1012.0
1005.0
999.0
997.0
992.0
990.0
989.0
986.0
983.0
982.0
980.0
979.0
982.0
981.0
979.0
977.0
977.0
978.0
978.0
979.0
973.0
975.0
974.0
979.0
983.0
979.0
978.0
976.0
976.0
979.0
985.0
983.0
981.0
977.0
978.0
979.0
980.0
983.0
983.0
981.0
980.0
983.0
987.0
987.0
987.0
986.0
987.0
989.0
995.0
992.0
991.0
991.0
993.0
995.0
998.0
1001.0
1003.0
1001.0
1003.0
1007.0
1014.0
1013.0
1016.0
1018.0
1018.0
1023.0
1029.0
1033.0
1032.0
1029.0
1035.0
1041.0
1045.0
1049.0
1051.0
1051.0
1052.0
1056.0
1061.0
1063.0
1063.0
1063.0
1066.0
1067.0
1071.0
1069.0
1065.0
1060.0
1057.0
1054.0
1053.0
1048.0
1041.0
1036.0
1033.0
1029.0
1028.0
1022.0
1014.0
1010.0
1005.0
1002.0
1003.0
998.0
993.0
988.0
986.0
989.0
990.0
986.0
985.0
976.0
980.0
983.0
986.0
984.0
983.0
980.0
978.0
979.0
984.0
983.0
984.0
977.0
978.0
979.0
982.0
983.0
980.0
976.0
975.0
978.0
980.0
981.0
980.0
978.0
978.0
981.0
985.0
982.0
981.0
980.0
978.0
982.0
983.0
983.0
982.0
980.0
980.0
983.0
984.0
983.0
978.0
979.0
979.0
982.0
983.0
983.0
979.0
980.0
978.0
982.0
982.0
983.0
979.0
980.0
979.0
977.0
982.0
982.0
979.0
978.0
981.0
981.0
987.0
980.0
979.0
979.0
976.0
979.0
982.0
980.0
979.0
976.0
978.0
979.0
980.0
982.0
977.0
978.0
978.0
980.0
981.0
979.0
978.0
977.0
975.0
977.0
979.0
980.0
975.0
975.0
977.0
980.0
981.0
981.0
980.0
976.0
976.0
978.0
981.0
982.0
973.0
971.0
974.0
975.0
978.0
980.0
980.0
975.0
977.0
978.0
979.0
981.0
977.0
976.0
974.0
976.0
975.0
976.0
977.0
975.0
973.0
976.0
979.0
976.0
975.0
971.0
972.0
975.0
978.0
977.0
977.0
972.0
975.0
977.0
979.0
978.0
976.0
975.0
975.0
979.0
979.0
978.0
979.0
978.0
977.0
978.0
979.0
979.0
975.0
975.0
976.0
977.0
980.0
979.0
979.0
976.0
974.0
978.0
978.0
977.0
977.0
974.0
974.0
975.0
979.0
981.0
978.0
977.0
977.0
977.0
979.0
980.0
978.0
974.0
976.0
980.0
982.0
982.0
978.0
977.0
976.0
979.0
981.0
983.0
981.0
976.0
979.0
982.0
985.0
983.0
980.0
980.0
979.0
981.0
985.0
984.0
984.0
981.0
980.0
983.0
988.0
990.0
987.0
980.0
985.0
988.0
993.0
996.0
994.0
991.0
991.0
994.0
1001.0
1001.0
999.0
996.0
995.0
999.0
1002.0
1001.0
997.0
995.0
993.0
996.0
1000.0
999.0
997.0
995.0
995.0
998.0
999.0
994.0
992.0
990.0
990.0
987.0
991.0
988.0
984.0
980.0
980.0
983.0
988.0
985.0
984.0
983.0
982.0
984.0
985.0
986.0
983.0
982.0
983.0
985.0
989.0
989.0
987.0
986.0
986.0
986.0
991.0
990.0
988.0
989.0
987.0
990.0
994.0
995.0
997.0
999.0
1002.0
1012.0
1022.0
1030.0
1045.0
1068.0
1103.0
1143.0
1184.0
1221.0
1257.0
1294.0
1329.0
1361.0
1380.0
1374.0
1349.0
1305.0
1248.0
1190.0
1139.0
1091.0
1047.0
1022.0
1008.0
1010.0
1012.0
1013.0
1009.0
999.0
996.0
993.0
992.0
989.0
984.0
981.0
977.0
978.0
981.0
982.0
978.0
978.0
974.0
977.0
981.0
981.0
980.0
975.0
975.0
977.0
980.0
975.0
976.0
974.0
973.0
978.0
981.0
979.0
980.0
977.0
978.0
980.0
985.0
986.0
980.0
981.0
981.0
985.0
987.0
989.0
989.0
988.0
987.0
991.0
995.0
994.0
991.0
989.0
994.0
1001.0
1004.0
1004.0
1001.0
1001.0
1005.0
1010.0
1014.0
1018.0
1015.0
1016.0
1019.0
1024.0
1028.0
1031.0
1030.0
1034.0
1037.0
1044.0
1048.0
1053.0
1051.0
1053.0
1056.0
1063.0
1067.0
1069.0
1067.0
1066.0
1071.0
1073.0
1077.0
1075.0
1070.0
1068.0
1063.0
1063.0
1059.0
1054.0
1048.0
1040.0
1038.0
1035.0
1032.0
1026.0
1021.0
1015.0
1012.0
1010.0
1007.0
1004.0
1000.0
994.0
994.0
995.0
995.0
994.0
991.0
986.0
986.0
986.0
992.0
987.0
989.0
985.0
983.0
985.0
992.0
989.0
985.0
985.0
983.0
987.0
991.0
990.0
989.0
986.0
984.0
988.0
990.0
992.0
987.0
984.0
987.0
988.0
992.0
989.0
985.0
983.0
983.0
986.0
987.0
991.0
986.0
983.0
985.0
987.0
991.0
989.0
987.0
983.0
983.0
988.0
987.0
987.0
984.0
982.0
983.0
987.0
989.0
987.0
986.0
982.0
984.0
983.0
985.0
981.0
980.0
983.0
981.0
986.0
987.0
988.0
986.0
982.0
981.0
982.0
989.0
987.0
982.0
980.0
980.0
983.0
983.0
984.0
980.0
979.0
979.0
981.0
985.0
983.0
983.0
979.0
977.0
980.0
986.0
984.0
981.0
981.0
979.0
980.0
983.0
984.0
980.0
979.0
975.0
981.0
983.0
982.0
981.0
975.0
977.0
978.0
980.0
980.0
978.0
977.0
975.0
977.0
982.0
982.0
980.0
977.0
976.0
975.0
981.0
980.0
979.0
976.0
975.0
976.0
979.0
978.0
980.0
976.0
977.0
978.0
981.0
982.0
979.0
975.0
975.0
977.0
984.0
982.0
980.0
974.0
973.0
977.0
982.0
979.0
980.0
977.0
977.0
979.0
981.0
980.0
980.0
975.0
975.0
980.0
985.0
980.0
978.0
976.0
974.0
979.0
984.0
980.0
981.0
979.0
979.0
983.0
983.0
981.0
977.0
973.0
975.0
980.0
985.0
984.0
979.0
978.0
979.0
978.0
982.0
985.0
983.0
978.0
979.0
979.0
982.0
984.0
982.0
979.0
981.0
979.0
985.0
985.0
984.0
982.0
981.0
980.0
986.0
990.0
991.0
989.0
986.0
992.0
998.0
997.0
995.0
995.0
993.0
994.0
997.0
999.0
1003.0
999.0
998.0
994.0
999.0
998.0
996.0
995.0
991.0
993.0
998.0
997.0
993.0
989.0
984.0
986.0
987.0
985.0
984.0
979.0
981.0
982.0
985.0
983.0
982.0
974.0
978.0
981.0
983.0
984.0
980.0
975.0
978.0
979.0
983.0
984.0
981.0
981.0
979.0
981.0
985.0
984.0
982.0
982.0
982.0
985.0
989.0
988.0
989.0
989.0
990.0
995.0
1002.0
1010.0
1014.0
1023.0
1040.0
1071.0
1107.0
1145.0
1183.0
1219.0
1259.0
1302.0
1341.0
1374.0
1396.0
1398.0
1380.0
1345.0
1297.0
1235.0
1174.0
1116.0
1071.0
1034.0
1017.0
1008.0
1005.0
1003.0
1003.0
1004.0
1003.0
999.0
992.0
988.0
980.0
984.0
986.0
983.0
979.0
975.0
975.0
978.0
982.0
980.0
977.0
970.0
971.0
975.0
977.0
975.0
977.0
973.0
972.0
974.0
977.0
976.0
974.0
971.0
975.0
975.0
979.0
978.0
975.0
975.0
974.0
980.0
983.0
983.0
982.0
977.0
978.0
982.0
987.0
987.0
984.0
983.0
982.0
989.0
992.0
992.0
991.0
992.0
990.0
994.0
1000.0
1000.0
1001.0
999.0
1002.0
1006.0
1011.0
1014.0
1015.0
1013.0
1022.0
1024.0
1029.0
1031.0
1031.0
1032.0
1035.0
1039.0
1045.0
1047.0
1045.0
1046.0
1052.0
1055.0
1061.0
1064.0
1061.0
1064.0
1061.0
1066.0
1070.0
1069.0
1062.0
1062.0
1059.0
1057.0
1055.0
1050.0
1044.0
1037.0
1033.0
1030.0
1027.0
1020.0
1017.0
1008.0
1008.0
1005.0
1008.0
1002.0
997.0
994.0
991.0
994.0
992.0
992.0
988.0
986.0
985.0
986.0
989.0
986.0
985.0
981.0
982.0
983.0
986.0
983.0
981.0
980.0
980.0
983.0
985.0
982.0
982.0
979.0
981.0
979.0
984.0
982.0
982.0
978.0
979.0
979.0
982.0
983.0
982.0
982.0
982.0
984.0
987.0
985.0
985.0
983.0
985.0
988.0
988.0
986.0
985.0
983.0
984.0
987.0
988.0
987.0
984.0
982.0
982.0
983.0
986.0
984.0
983.0
981.0
982.0
983.0
988.0
986.0
984.0
982.0
981.0
976.0
981.0
982.0
979.0
977.0
978.0
981.0
979.0
981.0
977.0
978.0
976.0
977.0
977.0
979.0
976.0
974.0
973.0
974.0
977.0
974.0
974.0
974.0
974.0
977.0
979.0
979.0
976.0
975.0
974.0
976.0
979.0
977.0
975.0
975.0
973.0
974.0
975.0
978.0
975.0
972.0
971.0
977.0
978.0
979.0
975.0
973.0
975.0
975.0
978.0
981.0
977.0
973.0
972.0
977.0
978.0
982.0
979.0
976.0
973.0
978.0
977.0
978.0
977.0
974.0
973.0
977.0
982.0
979.0
978.0
977.0
973.0
978.0
980.0
977.0
975.0
973.0
974.0
976.0
981.0
981.0
977.0
973.0
973.0
975.0
977.0
980.0
979.0
976.0
976.0
978.0
978.0
978.0
976.0
974.0
974.0
977.0
977.0
977.0
976.0
974.0
977.0
977.0
981.0
976.0
978.0
974.0
973.0
975.0
976.0
978.0
975.0
975.0
976.0
977.0
979.0
978.0
976.0
976.0
976.0
978.0
978.0
978.0
977.0
974.0
974.0
976.0
979.0
975.0
975.0
973.0
973.0
976.0
979.0
980.0
978.0
975.0
974.0
978.0
981.0
982.0
977.0
973.0
975.0
979.0
981.0
983.0
977.0
977.0
979.0
984.0
986.0
986.0
984.0
982.0
984.0
983.0
987.0
992.0
991.0
986.0
989.0
992.0
993.0
996.0
993.0
994.0
991.0
995.0
999.0
999.0
998.0
995.0
995.0
999.0
1001.0
996.0
992.0
990.0
992.0
993.0
997.0
996.0
991.0
991.0
990.0
991.0
992.0
990.0
986.0
984.0
984.0
983.0
982.0
981.0
979.0
976.0
975.0
978.0
981.0
980.0
977.0
977.0
977.0
980.0
982.0
981.0
975.0
975.0
977.0
981.0
982.0
984.0
980.0
979.0
978.0
981.0
987.0
985.0
982.0
981.0
980.0
984.0
985.0
987.0
986.0
981.0
986.0
988.0
992.0
993.0
996.0
997.0
1004.0
1009.0
1018.0
1030.0
1052.0
1072.0
1104.0
1139.0
1174.0
1209.0
1241.0
1272.0
1307.0
1343.0
1373.0
1381.0
1365.0
1336.0
1288.0
1238.0
1188.0
1142.0
1095.0
1058.0
1030.0
1015.0
1009.0
1009.0
1006.0
1003.0
1001.0
994.0
993.0
988.0
987.0
980.0
978.0
978.0
980.0
979.0
972.0
971.0
969.0
975.0
975.0
974.0
971.0
969.0
970.0
973.0
977.0
975.0
973.0
970.0
970.0
971.0
977.0
977.0
975.0
972.0
973.0
975.0
978.0
977.0
976.0
974.0
975.0
976.0
981.0
979.0
978.0
977.0
977.0
979.0
984.0
982.0
982.0
981.0
983.0
984.0
989.0
986.0
986.0
985.0
987.0
990.0
994.0
997.0
994.0
995.0
996.0
1000.0
1005.0
1006.0
1006.0
1007.0
1011.0
1014.0
1018.0
1021.0
1022.0
1020.0
1022.0
1028.0
1035.0
1036.0
1034.0
1035.0
1040.0
1045.0
1052.0
1055.0
1053.0
1052.0
1055.0
1060.0
1064.0
1065.0
1064.0
1058.0
1058.0
1063.0
1063.0
1061.0
1052.0
1048.0
1042.0
1038.0
1039.0
1032.0
1028.0
1021.0
1016.0
1015.0
1014.0
1006.0
1004.0
998.0
995.0
996.0
998.0
993.0
989.0
985.0
982.0
984.0
986.0
983.0
979.0
977.0
974.0
977.0
979.0
979.0
977.0
975.0
973.0
975.0
980.0
978.0
975.0
973.0
975.0
976.0
978.0
975.0
974.0
973.0
969.0
974.0
979.0
977.0
974.0
973.0
974.0
974.0
978.0
974.0
973.0
972.0
972.0
974.0
974.0
975.0
975.0
973.0
974.0
974.0
976.0
977.0
977.0
973.0
973.0
975.0
978.0
978.0
974.0
976.0
975.0
974.0
979.0
979.0
979.0
976.0
974.0
975.0
977.0
979.0
977.0
974.0
974.0
975.0
978.0
977.0
976.0
975.0
974.0
974.0
978.0
978.0
975.0
972.0
972.0
976.0
982.0
980.0
974.0
974.0
973.0
973.0
976.0
977.0
973.0
973.0
972.0
975.0
979.0
976.0
973.0
974.0
973.0
974.0
979.0
975.0
972.0
970.0
973.0
977.0
978.0
977.0
972.0
972.0
971.0
971.0
978.0
972.0
973.0
973.0
972.0
972.0
976.0
975.0
972.0
969.0
970.0
974.0
974.0
975.0
973.0
972.0
973.0
974.0
976.0
974.0
973.0
971.0
970.0
975.0
977.0
978.0
975.0
973.0
970.0
972.0
975.0
974.0
974.0
969.0
969.0
971.0
977.0
972.0
973.0
971.0
971.0
973.0
974.0
971.0
974.0
971.0
973.0
974.0
978.0
976.0
972.0
970.0
972.0
972.0
978.0
976.0
973.0
971.0
972.0
974.0
976.0
975.0
973.0
970.0
972.0
973.0
978.0
977.0
976.0
974.0
973.0
975.0
977.0
977.0
974.0
972.0
972.0
975.0
977.0
977.0
977.0
973.0
972.0
976.0
977.0
977.0
976.0
973.0
974.0
976.0
978.0
980.0
976.0
975.0
975.0
976.0
981.0
979.0
976.0
972.0
976.0
977.0
980.0
978.0
978.0
973.0
977.0
979.0
982.0
982.0
979.0
977.0
979.0
979.0
984.0
983.0
981.0
978.0
980.0
986.0
987.0
989.0
985.0
988.0
990.0
994.0
995.0
993.0
991.0
991.0
995.0
999.0
1002.0
1003.0
996.0
999.0
1000.0
1004.0
1006.0
1005.0
1002.0
996.0
996.0
1000.0
1001.0
1002.0
999.0
998.0
998.0
996.0
1000.0
995.0
993.0
989.0
987.0
987.0
989.0
990.0
988.0
986.0
985.0
987.0
989.0
987.0
985.0
981.0
983.0
986.0
988.0
988.0
988.0
987.0
984.0
986.0
991.0
991.0
988.0
986.0
985.0
987.0
991.0
989.0
988.0
983.0
985.0
991.0
993.0
998.0
994.0
995.0
999.0
1008.0
1018.0
1023.0
1031.0
1044.0
1069.0
1105.0
1146.0
1187.0
1226.0
1264.0
1303.0
1343.0
1379.0
1399.0
1401.0
1387.0
1357.0
1316.0
1259.0
1200.0
1144.0
1090.0
1048.0
1018.0
1012.0
1008.0
1008.0
1004.0
1003.0
1001.0
1001.0
995.0
990.0
986.0
980.0
980.0
985.0
984.0
981.0
975.0
977.0
977.0
979.0
976.0
973.0
971.0
974.0
976.0
979.0
976.0
975.0
973.0
972.0
974.0
979.0
980.0
977.0
975.0
977.0
978.0
984.0
979.0
979.0
976.0
978.0
982.0
985.0
986.0
981.0
980.0
977.0
986.0
990.0
987.0
989.0
984.0
986.0
990.0
988.0
992.0
991.0
991.0
990.0
995.0
1000.0
1001.0
1002.0
1002.0
1000.0
1008.0
1014.0
1013.0
1014.0
1015.0
1016.0
1021.0
1029.0
1029.0
1032.0
1029.0
1031.0
1034.0
1043.0
1044.0
1045.0
1046.0
1048.0
1051.0
1057.0
1060.0
1060.0
1057.0
1060.0
1064.0
1066.0
1072.0
1068.0
1064.0
1062.0
1064.0
1066.0
1060.0
1055.0
1049.0
1040.0
1040.0
1039.0
1029.0
1024.0
1020.0
1015.0
1010.0
1013.0
1008.0
1004.0
998.0
993.0
997.0
999.0
997.0
995.0
991.0
986.0
987.0
989.0
988.0
985.0
982.0
982.0
984.0
986.0
986.0
983.0
980.0
978.0
983.0
986.0
984.0
981.0
978.0
978.0
978.0
984.0
979.0
979.0
979.0
979.0
982.0
982.0
981.0
982.0
980.0
982.0
984.0
986.0
986.0
984.0
978.0
979.0
984.0
984.0
985.0
981.0
976.0
977.0
984.0
986.0
987.0
984.0
982.0
982.0
983.0
988.0
985.0
985.0
983.0
979.0
983.0
987.0
986.0
985.0
981.0
979.0
979.0
986.0
986.0
985.0
981.0
981.0
982.0
985.0
985.0
982.0
978.0
976.0
979.0
983.0
982.0
980.0
975.0
977.0
978.0
981.0
979.0
976.0
971.0
973.0
976.0
981.0
980.0
979.0
974.0
974.0
979.0
980.0
979.0
979.0
976.0
976.0
977.0
977.0
981.0
977.0
973.0
971.0
976.0
980.0
979.0
975.0
975.0
975.0
978.0
983.0
982.0
981.0
980.0
977.0
979.0
982.0
981.0
975.0
975.0
974.0
974.0
976.0
980.0
978.0
975.0
974.0
978.0
981.0
978.0
979.0
975.0
975.0
977.0
977.0
978.0
975.0
972.0
968.0
974.0
976.0
972.0
973.0
970.0
975.0
976.0
979.0
978.0
977.0
974.0
973.0
975.0
979.0
978.0
977.0
978.0
974.0
977.0
980.0
979.0
977.0
977.0
972.0
977.0
979.0
979.0
978.0
973.0
977.0
977.0
980.0
976.0
977.0
977.0
976.0
978.0
981.0
980.0
974.0
973.0
975.0
978.0
981.0
978.0
981.0
979.0
978.0
982.0
982.0
982.0
979.0
980.0
977.0
981.0
985.0
983.0
980.0
982.0
979.0
980.0
982.0
983.0
981.0
980.0
982.0
985.0
991.0
990.0
986.0
985.0
989.0
994.0
995.0
995.0
996.0
993.0
995.0
999.0
1000.0
1002.0
1001.0
1000.0
1001.0
1004.0
1008.0
1007.0
1004.0
998.0
997.0
1000.0
1002.0
1001.0
1001.0
995.0
998.0
1000.0
1000.0
997.0
993.0
991.0
987.0
989.0
991.0
989.0
984.0
980.0
981.0
984.0
985.0
984.0
981.0
981.0
982.0
983.0
987.0
984.0
983.0
982.0
984.0
986.0
988.0
987.0
986.0
983.0
982.0
987.0
989.0
992.0
989.0
982.0
989.0
990.0
994.0
992.0
993.0
994.0
998.0
1004.0
1013.0
1019.0
1023.0
1035.0
1058.0
1089.0
1119.0
1159.0
1190.0
1224.0
1259.0
1291.0
1331.0
1364.0
1382.0
1378.0
1354.0
1317.0
1263.0
1207.0
1150.0
1100.0
1058.0
1031.0
1018.0
1011.0
1010.0
1007.0
1003.0
1004.0
999.0
994.0
989.0
985.0
984.0
984.0
983.0
981.0
979.0
975.0
974.0
977.0
979.0
975.0
974.0
970.0
975.0
977.0
976.0
978.0
973.0
973.0
972.0
973.0
976.0
976.0
975.0
973.0
975.0
976.0
978.0
982.0
980.0
977.0
976.0
980.0
982.0
981.0
980.0
977.0
980.0
984.0
988.0
985.0
986.0
984.0
986.0
988.0
993.0
992.0
993.0
989.0
994.0
996.0
997.0
998.0
997.0
999.0
1001.0
1008.0
1011.0
1013.0
1016.0
1016.0
1016.0
1025.0
1030.0
1032.0
1032.0
1033.0
1035.0
1040.0
1045.0
1045.0
1050.0
1052.0
1053.0
1059.0
1065.0
1066.0
1065.0
1066.0
1066.0
1068.0
1070.0
1067.0
1062.0
1060.0
1057.0
1055.0
1052.0
1047.0
1039.0
1034.0
1029.0
1025.0
1025.0
1020.0
1011.0
1005.0
1003.0
1002.0
1003.0
998.0
997.0
993.0
990.0
990.0
993.0
990.0
989.0
986.0
987.0
986.0
989.0
987.0
984.0
983.0
981.0
983.0
985.0
983.0
981.0
981.0
982.0
980.0
982.0
984.0
981.0
981.0
982.0
980.0
981.0
984.0
981.0
979.0
979.0
981.0
984.0
985.0
983.0
978.0
978.0
981.0
985.0
984.0
983.0
983.0
982.0
983.0
986.0
984.0
983.0
983.0
979.0
984.0
985.0
986.0
984.0
980.0
980.0
983.0
987.0
985.0
984.0
981.0
980.0
982.0
982.0
984.0
979.0
977.0
978.0
979.0
984.0
983.0
980.0
980.0
979.0
981.0
984.0
983.0
979.0
980.0
977.0
978.0
981.0
980.0
980.0
977.0
976.0
980.0
984.0
985.0
983.0
980.0
978.0
979.0
983.0
981.0
978.0
979.0
979.0
980.0
984.0
981.0
979.0
981.0
978.0
980.0
983.0
984.0
980.0
981.0
977.0
978.0
981.0
982.0
982.0
980.0
978.0
981.0
985.0
983.0
981.0
979.0
977.0
979.0
986.0
983.0
981.0
979.0
980.0
982.0
978.0
976.0
978.0
977.0
978.0
979.0
983.0
984.0
981.0
980.0
980.0
982.0
986.0
987.0
982.0
981.0
978.0
982.0
985.0
986.0
984.0
982.0
982.0
986.0
987.0
987.0
985.0
981.0
978.0
985.0
988.0
987.0
983.0
980.0
980.0
982.0
989.0
988.0
984.0
984.0
983.0
985.0
986.0
987.0
984.0
980.0
980.0
984.0
988.0
988.0
985.0
984.0
985.0
987.0
990.0
988.0
985.0
983.0
984.0
985.0
986.0
984.0
982.0
979.0
978.0
984.0
988.0
985.0
983.0
981.0
986.0
986.0
989.0
986.0
985.0
982.0
984.0
989.0
991.0
991.0
989.0
988.0
992.0
994.0
996.0
998.0
999.0
995.0
994.0
1000.0
1000.0
1004.0
1003.0
1001.0
1000.0
1002.0
1008.0
1006.0
1002.0
1002.0
1000.0
1001.0
1006.0
1004.0
1003.0
999.0
998.0
1001.0
1000.0
997.0
998.0
993.0
991.0
989.0
989.0
990.0
987.0
986.0
987.0
987.0
993.0
992.0
990.0
986.0
985.0
988.0
994.0
993.0
993.0
989.0
987.0
