# Simple Text Format
# Sampling Rate (Hz):= 360.00
# Resolution:= 12
# Labels:= ECG
991.0
992.0
990.0
988.0
990.0
990.0
992.0
989.0
985.0
986.0
985.0
990.0
992.0
994.0
992.0
991.0
989.0
990.0
990.0
989.0
986.0
983.0
982.0
986.0
990.0
991.0
989.0
989.0
989.0
990.0
994.0
996.0
990.0
989.0
993.0
999.0
1003.0
1002.0
1002.0
1000.0
1002.0
1004.0
1006.0
1006.0
1002.0
1000.0
998.0
1001.0
1002.0
1002.0
1000.0
997.0
996.0
998.0
999.0
997.0
992.0
986.0
984.0
988.0
990.0
990.0
987.0
988.0
991.0
994.0
993.0
989.0
985.0
982.0
978.0
978.0
978.0
978.0
972.0
971.0
972.0
973.0
975.0
978.0
974.0
974.0
973.0
975.0
975.0
978.0
973.0
973.0
973.0
973.0
977.0
972.0
963.0
956.0
958.0
971.0
994.0
1021.0
1055.0
1093.0
1142.0
1196.0
1228.0
1227.0
1198.0
1146.0
1076.0
996.0
916.0
862.0
855.0
865.0
885.0
904.0
928.0
942.0
949.0
952.0
957.0
966.0
972.0
973.0
972.0
974.0
974.0
975.0
975.0
975.0
974.0
975.0
973.0
975.0
976.0
977.0
975.0
973.0
975.0
980.0
982.0
983.0
978.0
980.0
979.0
980.0
982.0
985.0
984.0
984.0
983.0
989.0
992.0
995.0
994.0
995.0
994.0
994.0
994.0
995.0
999.0
1000.0
1000.0
999.0
1002.0
1008.0
1010.0
1010.0
1013.0
1014.0
1021.0
1023.0
1023.0
1023.0
1022.0
1024.0
1028.0
1028.0
1028.0
1028.0
1027.0
1033.0
1036.0
1038.0
1034.0
1031.0
1031.0
1031.0
1038.0
1039.0
1041.0
1037.0
1035.0
1036.0
1039.0
1038.0
1034.0
1030.0
1028.0
1031.0
1032.0
1029.0
1024.0
1018.0
1017.0
1013.0
1015.0
1012.0
1010.0
1004.0
1002.0
999.0
1000.0
997.0
993.0
992.0
988.0
990.0
993.0
993.0
991.0
986.0
986.0
989.0
992.0
990.0
988.0
986.0
987.0
990.0
991.0
991.0
987.0
985.0
987.0
990.0
991.0
989.0
988.0
987.0
987.0
991.0
994.0
995.0
994.0
989.0
986.0
991.0
993.0
992.0
991.0
989.0
989.0
989.0
991.0
992.0
989.0
987.0
987.0
992.0
997.0
997.0
996.0
997.0
998.0
1001.0
1004.0
1003.0
1002.0
998.0
998.0
1001.0
1006.0
1005.0
1003.0
1000.0
998.0
1002.0
1004.0
1003.0
1001.0
998.0
999.0
999.0
1001.0
995.0
990.0
987.0
987.0
990.0
989.0
987.0
990.0
990.0
989.0
993.0
992.0
994.0
984.0
981.0
975.0
975.0
977.0
977.0
978.0
977.0
975.0
976.0
976.0
976.0
977.0
978.0
975.0
977.0
977.0
978.0
976.0
977.0
976.0
975.0
978.0
974.0
968.0
961.0
960.0
961.0
972.0
981.0
1003.0
1030.0
1071.0
1127.0
1180.0
1221.0
1235.0
1219.0
1176.0
1120.0
1054.0
973.0
895.0
860.0
860.0
875.0
892.0
907.0
926.0
939.0
949.0
959.0
968.0
973.0
972.0
972.0
973.0
974.0
977.0
977.0
975.0
974.0
975.0
977.0
979.0
982.0
980.0
977.0
976.0
977.0
984.0
984.0
984.0
984.0
982.0
985.0
989.0
989.0
989.0
987.0
988.0
991.0
994.0
998.0
998.0
996.0
996.0
1002.0
1008.0
1008.0
1007.0
1006.0
1007.0
1012.0
1014.0
1017.0
1018.0
1015.0
1017.0
1020.0
1026.0
1029.0
1030.0
1028.0
1029.0
1032.0
1034.0
1037.0
1037.0
1036.0
1037.0
1042.0
1042.0
1043.0
1041.0
1042.0
1042.0
1044.0
1043.0
1048.0
1045.0
1043.0
1041.0
1043.0
1045.0
1044.0
1040.0
1038.0
1035.0
1034.0
1037.0
1033.0
1029.0
1025.0
1023.0
1023.0
1021.0
1017.0
1013.0
1010.0
1008.0
1008.0
1009.0
1008.0
1005.0
1004.0
1001.0
1001.0
1004.0
1001.0
996.0
997.0
995.0
999.0
1002.0
999.0
995.0
994.0
993.0
996.0
998.0
999.0
999.0
998.0
998.0
1000.0
1001.0
1002.0
1002.0
1000.0
1001.0
1000.0
1002.0
1002.0
998.0
999.0
999.0
1000.0
1002.0
1004.0
1003.0
1002.0
1000.0
1002.0
1003.0
1004.0
1002.0
1001.0
1001.0
1004.0
1006.0
1004.0
1005.0
1004.0
1008.0
1010.0
1016.0
1015.0
1010.0
1009.0
1009.0
1014.0
1019.0
1015.0
1013.0
1010.0
1011.0
1013.0
1014.0
1012.0
1010.0
1007.0
1005.0
1007.0
1008.0
1004.0
1001.0
998.0
998.0
1000.0
1000.0
1003.0
1001.0
1001.0
1001.0
999.0
999.0
1000.0
993.0
987.0
986.0
986.0
990.0
988.0
985.0
985.0
986.0
987.0
986.0
987.0
986.0
985.0
984.0
985.0
988.0
984.0
985.0
980.0
984.0
983.0
979.0
974.0
970.0
970.0
979.0
997.0
1026.0
1062.0
1105.0
1154.0
1205.0
1245.0
1261.0
1241.0
1186.0
1116.0
1034.0
947.0
880.0
858.0
870.0
896.0
919.0
939.0
954.0
966.0
972.0
973.0
976.0
980.0
983.0
981.0
980.0
980.0
980.0
984.0
984.0
983.0
982.0
980.0
981.0
983.0
985.0
984.0
981.0
984.0
984.0
988.0
991.0
992.0
988.0
985.0
987.0
991.0
996.0
997.0
994.0
997.0
997.0
1002.0
1005.0
1008.0
1006.0
1008.0
1004.0
1014.0
1016.0
1019.0
1017.0
1020.0
1023.0
1025.0
1028.0
1030.0
1031.0
1033.0
1032.0
1038.0
1041.0
1043.0
1042.0
1043.0
1043.0
1045.0
1047.0
1048.0
1048.0
1047.0
1045.0
1047.0
1048.0
1050.0
1049.0
1046.0
1044.0
1046.0
1044.0
1044.0
1041.0
1037.0
1035.0
1035.0
1035.0
1030.0
1025.0
1020.0
1017.0
1016.0
1014.0
1013.0
1009.0
1006.0
1004.0
1004.0
1006.0
1005.0
1002.0
998.0
995.0
995.0
996.0
1000.0
996.0
993.0
992.0
992.0
994.0
996.0
993.0
989.0
990.0
995.0
996.0
999.0
996.0
995.0
992.0
993.0
998.0
995.0
995.0
996.0
993.0
994.0
995.0
999.0
994.0
992.0
991.0
995.0
997.0
997.0
993.0
993.0
990.0
994.0
999.0
1001.0
998.0
998.0
998.0
1005.0
1009.0
1010.0
1006.0
1005.0
1004.0
1010.0
1011.0
1010.0
1009.0
1007.0
1007.0
1007.0
1011.0
1010.0
1007.0
1003.0
1003.0
1005.0
1009.0
1002.0
999.0
992.0
995.0
997.0
998.0
994.0
992.0
994.0
996.0
995.0
998.0
997.0
990.0
987.0
982.0
983.0
986.0
983.0
979.0
978.0
978.0
979.0
985.0
983.0
978.0
980.0
977.0
980.0
983.0
980.0
979.0
979.0
979.0
977.0
982.0
978.0
970.0
963.0
961.0
971.0
990.0
1018.0
1053.0
1092.0
1142.0
1192.0
1231.0
1248.0
1228.0
1181.0
1119.0
1044.0
960.0
890.0
854.0
861.0
880.0
901.0
925.0
941.0
951.0
957.0
959.0
969.0
975.0
975.0
973.0
971.0
970.0
974.0
977.0
978.0
977.0
977.0
974.0
978.0
980.0
979.0
980.0
980.0
979.0
983.0
988.0
984.0
982.0
979.0
982.0
985.0
988.0
988.0
985.0
987.0
987.0
991.0
995.0
997.0
995.0
995.0
994.0
1001.0
1008.0
1009.0
1009.0
1009.0
1010.0
1012.0
1016.0
1018.0
1019.0
1020.0
1023.0
1024.0
1026.0
1033.0
1034.0
1035.0
1036.0
1039.0
1042.0
1041.0
1036.0
1039.0
1041.0
1039.0
1041.0
1045.0
1044.0
1042.0
1042.0
1039.0
1040.0
1041.0
1037.0
1036.0
1034.0
1034.0
1035.0
1032.0
1030.0
1028.0
1025.0
1023.0
1020.0
1015.0
1011.0
1007.0
1003.0
1006.0
1003.0
1001.0
999.0
997.0
997.0
997.0
1000.0
998.0
994.0
991.0
989.0
992.0
998.0
997.0
993.0
992.0
990.0
992.0
991.0
989.0
989.0
989.0
989.0
991.0
988.0
990.0
990.0
991.0
991.0
992.0
992.0
993.0
989.0
990.0
992.0
994.0
994.0
993.0
991.0
989.0
988.0
990.0
995.0
996.0
994.0
995.0
992.0
994.0
998.0
997.0
997.0
998.0
998.0
1004.0
1008.0
1004.0
1000.0
997.0
996.0
1001.0
1007.0
1012.0
1008.0
1004.0
999.0
996.0
998.0
995.0
992.0
994.0
992.0
996.0
999.0
997.0
996.0
996.0
992.0
988.0
987.0
986.0
983.0
980.0
978.0
978.0
985.0
984.0
985.0
983.0
981.0
979.0
982.0
980.0
978.0
976.0
979.0
980.0
981.0
974.0
968.0
964.0
963.0
969.0
981.0
1005.0
1038.0
1081.0
1134.0
1193.0
1232.0
1235.0
1198.0
1133.0
1048.0
955.0
885.0
860.0
867.0
884.0
903.0
926.0
946.0
958.0
962.0
965.0
965.0
973.0
976.0
979.0
978.0
973.0
971.0
975.0
979.0
979.0
976.0
975.0
977.0
979.0
981.0
982.0
982.0
981.0
980.0
982.0
990.0
990.0
990.0
989.0
990.0
993.0
995.0
996.0
995.0
998.0
997.0
1003.0
1006.0
1009.0
1006.0
1005.0
1005.0
1006.0
1012.0
1011.0
1017.0
1019.0
1021.0
1026.0
1028.0
1029.0
1029.0
1030.0
1030.0
1035.0
1040.0
1040.0
1035.0
1037.0
1038.0
1039.0
1044.0
1046.0
1048.0
1042.0
1041.0
1043.0
1043.0
1039.0
1037.0
1031.0
1028.0
1026.0
1022.0
1020.0
1014.0
1009.0
1004.0
1003.0
1003.0
1001.0
998.0
994.0
990.0
990.0
991.0
991.0
989.0
985.0
987.0
984.0
988.0
986.0
984.0
983.0
986.0
985.0
987.0
987.0
985.0
986.0
984.0
987.0
992.0
988.0
986.0
987.0
989.0
991.0
995.0
993.0
989.0
989.0
988.0
992.0
994.0
995.0
992.0
990.0
985.0
991.0
992.0
989.0
990.0
985.0
988.0
988.0
990.0
988.0
987.0
985.0
987.0
990.0
993.0
994.0
992.0
993.0
994.0
999.0
1002.0
1001.0
1000.0
999.0
1001.0
1003.0
1004.0
1004.0
1003.0
999.0
999.0
1000.0
1005.0
1003.0
1001.0
1002.0
1002.0
1002.0
1002.0
998.0
989.0
988.0
989.0
990.0
994.0
992.0
988.0
991.0
992.0
992.0
992.0
989.0
983.0
981.0
978.0
981.0
984.0
981.0
978.0
976.0
977.0
980.0
984.0
980.0
981.0
979.0
980.0
983.0
985.0
986.0
982.0
978.0
980.0
978.0
976.0
970.0
964.0
964.0
971.0
992.0
1016.0
1047.0
1089.0
1137.0
1189.0
1232.0
1254.0
1238.0
1191.0
1120.0
1032.0
939.0
873.0
852.0
867.0
888.0
910.0
931.0
951.0
960.0
964.0
964.0
967.0
971.0
976.0
974.0
971.0
972.0
974.0
979.0
984.0
980.0
978.0
977.0
978.0
980.0
985.0
987.0
985.0
983.0
980.0
985.0
988.0
989.0
987.0
981.0
984.0
990.0
994.0
996.0
995.0
994.0
996.0
1002.0
1005.0
1004.0
1003.0
1004.0
1004.0
1010.0
1016.0
1015.0
1016.0
1016.0
1018.0
1023.0
1027.0
1028.0
1027.0
1029.0
1029.0
1035.0
1039.0
1041.0
1040.0
1038.0
1039.0
1043.0
1050.0
1048.0
1047.0
1047.0
1047.0
1052.0
1056.0
1053.0
1050.0
1047.0
1043.0
1047.0
1049.0
1046.0
1043.0
1039.0
1039.0
1040.0
1040.0
1037.0
1032.0
1025.0
1023.0
1023.0
1019.0
1017.0
1012.0
1008.0
1009.0
1008.0
1007.0
1002.0
1000.0
997.0
998.0
999.0
998.0
999.0
998.0
997.0
996.0
998.0
998.0
997.0
998.0
997.0
998.0
1000.0
1000.0
998.0
993.0
997.0
995.0
997.0
999.0
999.0
994.0
995.0
994.0
999.0
998.0
998.0
996.0
995.0
990.0
996.0
997.0
999.0
996.0
994.0
994.0
996.0
1000.0
999.0
998.0
997.0
998.0
1000.0
1003.0
1003.0
1002.0
1003.0
1005.0
1011.0
1012.0
1012.0
1011.0
1010.0
1011.0
1014.0
1013.0
1013.0
1011.0
1009.0
1010.0
1012.0
1012.0
1011.0
1007.0
1002.0
1001.0
1001.0
1005.0
1002.0
998.0
997.0
996.0
999.0
1002.0
1001.0
1001.0
999.0
998.0
1000.0
1000.0
999.0
995.0
992.0
989.0
989.0
987.0
987.0
985.0
983.0
985.0
988.0
988.0
987.0
987.0
985.0
982.0
991.0
994.0
992.0
995.0
993.0
991.0
993.0
992.0
987.0
979.0
974.0
970.0
973.0
982.0
1005.0
1026.0
1057.0
1095.0
1148.0
1198.0
1243.0
1257.0
1237.0
1186.0
1116.0
1041.0
950.0
882.0
859.0
868.0
892.0
912.0
930.0
945.0
958.0
966.0
974.0
976.0
978.0
980.0
978.0
975.0
974.0
976.0
975.0
973.0
973.0
973.0
977.0
980.0
981.0
979.0
977.0
978.0
980.0
983.0
981.0
984.0
985.0
986.0
989.0
991.0
991.0
992.0
992.0
991.0
988.0
989.0
986.0
987.0
990.0
989.0
997.0
1002.0
1004.0
1002.0
1003.0
1006.0
1011.0
1012.0
1016.0
1017.0
1019.0
1023.0
1028.0
1032.0
1035.0
1031.0
1029.0
1029.0
1036.0
1041.0
1042.0
1036.0
1032.0
1033.0
1039.0
1046.0
1044.0
1043.0
1039.0
1041.0
1045.0
1052.0
1052.0
1047.0
1043.0
1043.0
1044.0
1047.0
1048.0
1045.0
1040.0
1036.0
1035.0
1035.0
1033.0
1030.0
1027.0
1022.0
1023.0
1022.0
1017.0
1010.0
1008.0
1006.0
1006.0
1005.0
1002.0
1000.0
998.0
994.0
999.0
1002.0
1002.0
999.0
999.0
993.0
998.0
998.0
995.0
992.0
993.0
993.0
994.0
997.0
994.0
992.0
987.0
988.0
991.0
993.0
992.0
990.0
989.0
991.0
994.0
995.0
993.0
994.0
993.0
992.0
994.0
995.0
996.0
994.0
991.0
991.0
995.0
998.0
996.0
995.0
990.0
989.0
992.0
998.0
997.0
997.0
996.0
997.0
999.0
1001.0
998.0
1007.0
1005.0
1006.0
1006.0
1005.0
1005.0
1001.0
1000.0
1005.0
1012.0
1016.0
1016.0
1013.0
1008.0
1005.0
1009.0
1013.0
1013.0
1007.0
1000.0
1000.0
1004.0
1006.0
1006.0
1001.0
998.0
994.0
992.0
994.0
994.0
992.0
996.0
998.0
1000.0
999.0
1000.0
997.0
993.0
986.0
983.0
982.0
980.0
980.0
981.0
981.0
981.0
983.0
984.0
980.0
982.0
983.0
988.0
989.0
985.0
984.0
982.0
979.0
979.0
980.0
979.0
972.0
961.0
959.0
968.0
982.0
1003.0
1031.0
1066.0
1112.0
1162.0
1212.0
1245.0
1249.0
1215.0
1155.0
1081.0
994.0
907.0
857.0
855.0
879.0
906.0
932.0
950.0
958.0
964.0
968.0
973.0
977.0
980.0
976.0
975.0
975.0
977.0
979.0
979.0
975.0
974.0
976.0
977.0
976.0
980.0
979.0
984.0
985.0
983.0
986.0
985.0
983.0
982.0
983.0
989.0
994.0
996.0
993.0
992.0
990.0
996.0
1001.0
1004.0
1004.0
1005.0
1005.0
1006.0
1011.0
1011.0
1011.0
1012.0
1014.0
1013.0
1016.0
1016.0
1017.0
1017.0
1020.0
1023.0
1028.0
1026.0
1030.0
1032.0
1034.0
1036.0
1039.0
1038.0
1038.0
1041.0
1041.0
1041.0
1047.0
1050.0
1048.0
1046.0
1047.0
1050.0
1052.0
1049.0
1045.0
1043.0
1040.0
1041.0
1039.0
1038.0
1035.0
1034.0
1030.0
1028.0
1028.0
1025.0
1019.0
1016.0
1010.0
1008.0
1006.0
1003.0
998.0
999.0
997.0
1000.0
1002.0
1002.0
996.0
989.0
988.0
990.0
993.0
994.0
991.0
986.0
983.0
981.0
985.0
988.0
985.0
984.0
980.0
984.0
987.0
984.0
981.0
984.0
985.0
989.0
992.0
992.0
982.0
978.0
985.0
990.0
991.0
988.0
986.0
986.0
986.0
988.0
991.0
989.0
986.0
985.0
984.0
986.0
986.0
983.0
980.0
981.0
983.0
984.0
989.0
990.0
990.0
987.0
987.0
993.0
996.0
998.0
998.0
998.0
998.0
999.0
1004.0
1006.0
1004.0
1004.0
999.0
1002.0
999.0
1003.0
1002.0
999.0
996.0
996.0
996.0
992.0
988.0
990.0
991.0
992.0
993.0
991.0
989.0
985.0
983.0
984.0
985.0
987.0
990.0
989.0
985.0
988.0
987.0
987.0
980.0
976.0
977.0
975.0
975.0
975.0
973.0
969.0
973.0
975.0
977.0
975.0
972.0
974.0
975.0
975.0
973.0
974.0
975.0
972.0
971.0
973.0
974.0
973.0
963.0
958.0
957.0
964.0
977.0
992.0
1018.0
1052.0
1101.0
1152.0
1201.0
1235.0
1239.0
1208.0
1159.0
1094.0
1016.0
933.0
870.0
853.0
864.0
880.0
896.0
914.0
929.0
943.0
948.0
955.0
966.0
971.0
972.0
971.0
971.0
971.0
972.0
974.0
975.0
975.0
972.0
970.0
973.0
978.0
976.0
976.0
974.0
973.0
979.0
979.0
978.0
977.0
979.0
980.0
981.0
986.0
987.0
983.0
982.0
986.0
991.0
992.0
992.0
993.0
994.0
996.0
1000.0
999.0
999.0
999.0
1000.0
1003.0
1012.0
1015.0
1017.0
1016.0
1022.0
1025.0
1031.0
1033.0
1033.0
1030.0
1026.0
1025.0
1029.0
1031.0
1034.0
1033.0
1036.0
1041.0
1043.0
1046.0
1040.0
1041.0
1040.0
1042.0
1044.0
1042.0
1038.0
1038.0
1038.0
1041.0
1044.0
1041.0
1038.0
1032.0
1028.0
1028.0
1026.0
1024.0
1019.0
1011.0
1005.0
1005.0
1004.0
1002.0
998.0
997.0
999.0
998.0
997.0
991.0
987.0
986.0
980.0
980.0
985.0
983.0
978.0
976.0
977.0
981.0
982.0
976.0
978.0
976.0
975.0
979.0
984.0
984.0
981.0
978.0
975.0
978.0
979.0
978.0
976.0
975.0
975.0
977.0
983.0
982.0
980.0
973.0
976.0
977.0
979.0
981.0
978.0
977.0
977.0
978.0
980.0
981.0
981.0
978.0
976.0
974.0
980.0
982.0
981.0
983.0
984.0
986.0
986.0
987.0
990.0
990.0
992.0
993.0
993.0
990.0
992.0
991.0
992.0
994.0
996.0
995.0
992.0
992.0
990.0
991.0
992.0
992.0
990.0
987.0
983.0
980.0
978.0
977.0
978.0
978.0
978.0
982.0
986.0
988.0
986.0
982.0
979.0
979.0
976.0
972.0
969.0
966.0
963.0
969.0
970.0
971.0
967.0
965.0
962.0
966.0
969.0
971.0
969.0
967.0
962.0
964.0
966.0
968.0
967.0
967.0
962.0
960.0
958.0
951.0
952.0
956.0
968.0
991.0
1022.0
1061.0
1108.0
1154.0
1200.0
1229.0
1229.0
1192.0
1133.0
1058.0
969.0
886.0
848.0
848.0
864.0
876.0
893.0
917.0
939.0
947.0
951.0
950.0
955.0
962.0
967.0
966.0
963.0
960.0
959.0
961.0
964.0
965.0
962.0
958.0
958.0
961.0
964.0
964.0
963.0
961.0
961.0
963.0
966.0
968.0
968.0
967.0
967.0
969.0
975.0
975.0
973.0
975.0
975.0
978.0
980.0
979.0
981.0
982.0
985.0
986.0
992.0
993.0
991.0
996.0
996.0
999.0
1004.0
1001.0
1004.0
1005.0
1010.0
1015.0
1017.0
1018.0
1015.0
1019.0
1018.0
1020.0
1023.0
1023.0
1024.0
1025.0
1029.0
1030.0
1032.0
1029.0
1027.0
1025.0
1028.0
1027.0
1028.0
1028.0
1028.0
1026.0
1019.0
1020.0
1023.0
1019.0
1013.0
1008.0
1002.0
1001.0
1002.0
998.0
992.0
989.0
984.0
988.0
991.0
987.0
984.0
979.0
978.0
976.0
977.0
978.0
977.0
975.0
977.0
975.0
980.0
980.0
980.0
977.0
978.0
977.0
979.0
980.0
979.0
977.0
976.0
979.0
983.0
983.0
979.0
978.0
978.0
978.0
979.0
981.0
980.0
979.0
980.0
982.0
981.0
983.0
980.0
980.0
980.0
981.0
981.0
983.0
981.0
983.0
979.0
983.0
984.0
986.0
982.0
982.0
979.0
984.0
986.0
987.0
986.0
983.0
985.0
990.0
995.0
996.0
994.0
994.0
994.0
996.0
999.0
998.0
995.0
992.0
992.0
992.0
996.0
996.0
995.0
991.0
990.0
992.0
992.0
988.0
982.0
983.0
982.0
986.0
986.0
986.0
984.0
985.0
984.0
988.0
988.0
984.0
982.0
978.0
972.0
973.0
973.0
970.0
971.0
967.0
966.0
969.0
971.0
973.0
969.0
970.0
969.0
971.0
972.0
974.0
971.0
969.0
968.0
969.0
968.0
972.0
967.0
962.0
962.0
958.0
958.0
962.0
973.0
992.0
1020.0
1064.0
1112.0
1165.0
1210.0
1241.0
1236.0
1195.0
1126.0
1038.0
944.0
872.0
849.0
867.0
896.0
920.0
937.0
947.0
951.0
960.0
962.0
969.0
964.0
964.0
963.0
965.0
969.0
968.0
964.0
966.0
963.0
966.0
970.0
971.0
971.0
968.0
967.0
967.0
967.0
967.0
968.0
969.0
970.0
977.0
980.0
980.0
978.0
973.0
975.0
980.0
980.0
983.0
983.0
985.0
985.0
987.0
990.0
991.0
995.0
995.0
994.0
1000.0
1007.0
1006.0
1005.0
1002.0
1008.0
1014.0
1020.0
1023.0
1021.0
1021.0
1020.0
1022.0
1027.0
1027.0
1026.0
1026.0
1025.0
1027.0
1031.0
1034.0
1034.0
1032.0
1031.0
1031.0
1036.0
1035.0
1030.0
1026.0
1025.0
1027.0
1027.0
1022.0
1020.0
1016.0
1013.0
1013.0
1009.0
1008.0
1004.0
997.0
995.0
994.0
990.0
987.0
984.0
985.0
981.0
986.0
985.0
982.0
979.0
976.0
979.0
979.0
983.0
983.0
981.0
980.0
977.0
980.0
982.0
984.0
981.0
977.0
978.0
979.0
980.0
980.0
980.0
982.0
982.0
982.0
986.0
980.0
982.0
979.0
979.0
980.0
982.0
981.0
981.0
983.0
983.0
986.0
986.0
982.0
980.0
975.0
974.0
979.0
982.0
981.0
978.0
976.0
972.0
975.0
981.0
977.0
978.0
979.0
983.0
985.0
987.0
988.0
990.0
989.0
987.0
988.0
993.0
994.0
995.0
994.0
990.0
991.0
990.0
993.0
990.0
986.0
984.0
985.0
988.0
984.0
980.0
978.0
978.0
979.0
980.0
979.0
977.0
971.0
976.0
979.0
982.0
980.0
976.0
970.0
967.0
967.0
966.0
963.0
962.0
961.0
962.0
964.0
965.0
965.0
967.0
966.0
967.0
965.0
969.0
966.0
966.0
965.0
962.0
966.0
970.0
968.0
967.0
961.0
954.0
952.0
952.0
955.0
963.0
983.0
1013.0
1058.0
1112.0
1164.0
1207.0
1239.0
1240.0
1207.0
1150.0
1070.0
978.0
889.0
844.0
848.0
870.0
892.0
910.0
927.0
937.0
943.0
952.0
956.0
957.0
958.0
959.0
961.0
961.0
960.0
959.0
957.0
959.0
961.0
966.0
965.0
960.0
962.0
962.0
964.0
967.0
966.0
965.0
965.0
965.0
968.0
969.0
971.0
973.0
973.0
974.0
975.0
975.0
978.0
978.0
981.0
981.0
986.0
991.0
993.0
992.0
992.0
991.0
998.0
999.0
1003.0
1003.0
1005.0
1006.0
1012.0
1018.0
1019.0
1021.0
1020.0
1024.0
1028.0
1031.0
1032.0
1031.0
1028.0
1030.0
1034.0
1038.0
1039.0
1035.0
1033.0
1032.0
1037.0
1039.0
1036.0
1035.0
1032.0
1029.0
1032.0
1031.0
1030.0
1022.0
1018.0
1013.0
1012.0
1011.0
1010.0
1008.0
1004.0
1000.0
1000.0
999.0
997.0
995.0
993.0
989.0
994.0
993.0
992.0
987.0
981.0
981.0
986.0
989.0
985.0
984.0
984.0
985.0
983.0
986.0
983.0
980.0
983.0
983.0
984.0
985.0
983.0
980.0
978.0
976.0
979.0
983.0
983.0
982.0
981.0
977.0
980.0
985.0
981.0
977.0
977.0
977.0
979.0
984.0
982.0
981.0
979.0
973.0
979.0
982.0
982.0
979.0
978.0
974.0
979.0
984.0
983.0
983.0
980.0
979.0
982.0
986.0
986.0
984.0
986.0
989.0
994.0
998.0
998.0
995.0
993.0
988.0
989.0
996.0
996.0
994.0
993.0
989.0
995.0
992.0
991.0
989.0
986.0
984.0
985.0
985.0
984.0
981.0
980.0
973.0
979.0
983.0
986.0
981.0
977.0
976.0
977.0
978.0
972.0
966.0
958.0
959.0
966.0
969.0
965.0
962.0
961.0
959.0
964.0
963.0
965.0
962.0
962.0
960.0
962.0
965.0
967.0
964.0
964.0
959.0
955.0
949.0
944.0
946.0
957.0
977.0
1010.0
1050.0
1098.0
1147.0
1194.0
1217.0
1209.0
1168.0
1100.0
1008.0
916.0
852.0
843.0
862.0
882.0
900.0
915.0
927.0
939.0
948.0
953.0
955.0
953.0
956.0
960.0
961.0
961.0
957.0
957.0
957.0
960.0
964.0
960.0
958.0
956.0
957.0
958.0
958.0
962.0
963.0
963.0
962.0
965.0
969.0
971.0
969.0
968.0
972.0
973.0
977.0
974.0
978.0
980.0
981.0
986.0
989.0
989.0
988.0
987.0
990.0
993.0
996.0
997.0
999.0
1001.0
1001.0
1004.0
1010.0
1013.0
1015.0
1012.0
1011.0
1011.0
1015.0
1020.0
1022.0
1020.0
1022.0
1027.0
1026.0
1024.0
1017.0
1017.0
1019.0
1021.0
1022.0
1019.0
1018.0
1016.0
1015.0
1016.0
1021.0
1018.0
1012.0
1007.0
1001.0
1000.0
997.0
994.0
990.0
986.0
984.0
983.0
982.0
984.0
981.0
978.0
975.0
976.0
976.0
975.0
976.0
969.0
970.0
969.0
970.0
968.0
966.0
962.0
963.0
969.0
969.0
969.0
969.0
968.0
967.0
968.0
970.0
968.0
967.0
966.0
963.0
965.0
970.0
971.0
974.0
972.0
970.0
973.0
979.0
976.0
971.0
968.0
968.0
976.0
975.0
972.0
971.0
968.0
966.0
972.0
973.0
977.0
975.0
973.0
971.0
974.0
976.0
974.0
975.0
974.0
976.0
981.0
986.0
981.0
979.0
979.0
980.0
984.0
987.0
985.0
979.0
979.0
979.0
983.0
985.0
982.0
978.0
978.0
976.0
977.0
978.0
975.0
970.0
968.0
967.0
970.0
972.0
977.0
973.0
974.0
973.0
973.0
972.0
972.0
967.0
963.0
956.0
960.0
962.0
965.0
961.0
962.0
960.0
962.0
965.0
963.0
959.0
958.0
959.0
961.0
966.0
965.0
964.0
962.0
959.0
959.0
954.0
954.0
946.0
946.0
962.0
987.0
1019.0
1055.0
1101.0
1157.0
1202.0
1227.0
1214.0
1168.0
1096.0
1008.0
915.0
857.0
843.0
855.0
872.0
887.0
908.0
928.0
942.0
950.0
952.0
954.0
955.0
960.0
962.0
962.0
961.0
958.0
965.0
966.0
970.0
968.0
967.0
962.0
962.0
965.0
970.0
970.0
968.0
968.0
971.0
974.0
973.0
973.0
972.0
971.0
972.0
978.0
984.0
985.0
982.0
984.0
986.0
992.0
992.0
992.0
989.0
990.0
992.0
996.0
1000.0
1000.0
1001.0
1003.0
1005.0
1010.0
1017.0
1021.0
1022.0
1023.0
1023.0
1026.0
1025.0
1028.0
1028.0
1028.0
1029.0
1031.0
1036.0
1033.0
1030.0
1033.0
1030.0
1036.0
1035.0
1035.0
1031.0
1033.0
1029.0
1029.0
1029.0
1026.0
1023.0
1019.0
1017.0
1017.0
1019.0
1017.0
1014.0
1009.0
1000.0
1002.0
1001.0
999.0
999.0
995.0
994.0
995.0
995.0
992.0
988.0
985.0
984.0
983.0
986.0
988.0
984.0
982.0
980.0
980.0
982.0
978.0
980.0
980.0
984.0
985.0
986.0
985.0
983.0
980.0
978.0
981.0
987.0
992.0
986.0
986.0
982.0
984.0
983.0
983.0
984.0
984.0
981.0
981.0
982.0
982.0
981.0
981.0
982.0
986.0
994.0
990.0
981.0
974.0
968.0
971.0
973.0
973.0
974.0
975.0
975.0
980.0
983.0
981.0
981.0
988.0
990.0
995.0
999.0
995.0
991.0
989.0
992.0
994.0
995.0
995.0
995.0
993.0
992.0
989.0
991.0
988.0
986.0
980.0
980.0
981.0
983.0
984.0
981.0
978.0
979.0
982.0
983.0
983.0
980.0
978.0
977.0
975.0
974.0
971.0
971.0
968.0
966.0
970.0
974.0
974.0
974.0
969.0
964.0
965.0
972.0
973.0
968.0
969.0
968.0
970.0
969.0
965.0
957.0
957.0
964.0
985.0
1013.0
1041.0
1078.0
1123.0
1172.0
1219.0
1242.0
1234.0
1188.0
1126.0
1047.0
962.0
888.0
862.0
868.0
889.0
910.0
929.0
940.0
947.0
949.0
957.0
961.0
968.0
970.0
970.0
968.0
965.0
963.0
966.0
971.0
972.0
970.0
972.0
972.0
975.0
973.0
974.0
973.0
971.0
973.0
974.0
977.0
978.0
977.0
977.0
976.0
978.0
982.0
985.0
981.0
979.0
979.0
983.0
990.0
992.0
991.0
995.0
995.0
1000.0
1007.0
1010.0
1006.0
1006.0
1004.0
1006.0
1010.0
1011.0
1005.0
1010.0
1013.0
1019.0
1024.0
1024.0
1022.0
1022.0
1023.0
1028.0
1031.0
1035.0
1032.0
1033.0
1036.0
1037.0
1038.0
1032.0
1031.0
1030.0
1033.0
1033.0
1037.0
1036.0
1034.0
1032.0
1031.0
1032.0
1032.0
1027.0
1021.0
1020.0
1018.0
1021.0
1019.0
1012.0
1006.0
997.0
995.0
1001.0
999.0
997.0
994.0
991.0
988.0
993.0
996.0
998.0
995.0
990.0
987.0
987.0
987.0
988.0
984.0
981.0
978.0
987.0
989.0
987.0
982.0
980.0
981.0
983.0
988.0
985.0
984.0
981.0
982.0
982.0
985.0
983.0
983.0
981.0
979.0
979.0
981.0
983.0
980.0
982.0
984.0
986.0
985.0
983.0
980.0
982.0
979.0
984.0
983.0
985.0
983.0
982.0
982.0
981.0
986.0
984.0
983.0
983.0
983.0
986.0
989.0
989.0
984.0
980.0
980.0
985.0
987.0
989.0
988.0
988.0
989.0
992.0
997.0
996.0
996.0
994.0
994.0
998.0
1003.0
998.0
995.0
995.0
993.0
995.0
997.0
996.0
995.0
993.0
991.0
993.0
991.0
986.0
982.0
982.0
982.0
981.0
981.0
986.0
986.0
986.0
981.0
979.0
978.0
975.0
975.0
969.0
968.0
972.0
974.0
971.0
967.0
962.0
963.0
967.0
973.0
971.0
969.0
968.0
964.0
965.0
966.0
966.0
966.0
964.0
964.0
964.0
968.0
964.0
956.0
954.0
949.0
952.0
961.0
974.0
994.0
1018.0
1054.0
1103.0
1153.0
1196.0
1227.0
1230.0
1198.0
1146.0
1074.0
991.0
908.0
852.0
844.0
862.0
883.0
901.0
916.0
930.0
940.0
945.0
953.0
962.0
963.0
960.0
957.0
961.0
963.0
963.0
964.0
963.0
962.0
964.0
965.0
965.0
964.0
964.0
964.0
967.0
973.0
974.0
974.0
973.0
969.0
970.0
969.0
968.0
970.0
972.0
974.0
977.0
981.0
983.0
982.0
981.0
976.0
977.0
982.0
979.0
983.0
985.0
986.0
990.0
994.0
999.0
999.0
1001.0
1000.0
1006.0
1012.0
1011.0
1010.0
1004.0
1004.0
1011.0
1017.0
1017.0
1021.0
1017.0
1023.0
1029.0
1031.0
1032.0
1028.0
1029.0
1029.0
1029.0
1036.0
1037.0
1035.0
1031.0
1026.0
1026.0
1027.0
1026.0
1022.0
1020.0
1017.0
1017.0
1019.0
1016.0
1013.0
1010.0
1009.0
1005.0
