# Simple Text Format
# Sampling Rate (Hz):= 360.00
# Resolution:= 12
# Labels:= ECG
1026.0
1018.0
1017.0
1016.0
1012.0
1010.0
1006.0
1004.0
1002.0
1002.0
1002.0
1002.0
999.0
997.0
995.0
995.0
995.0
991.0
987.0
989.0
991.0
990.0
994.0
992.0
990.0
991.0
991.0
990.0
991.0
988.0
985.0
988.0
987.0
990.0
993.0
993.0
992.0
988.0
990.0
989.0
988.0
986.0
986.0
982.0
986.0
988.0
995.0
991.0
988.0
989.0
993.0
994.0
994.0
992.0
989.0
986.0
985.0
991.0
992.0
992.0
990.0
988.0
988.0
990.0
991.0
990.0
990.0
988.0
991.0
991.0
996.0
999.0
1000.0
1000.0
1004.0
1007.0
1008.0
1007.0
1006.0
1007.0
1007.0
1008.0
1009.0
1006.0
1001.0
1000.0
998.0
1000.0
1002.0
1001.0
998.0
994.0
992.0
994.0
994.0
994.0
987.0
987.0
989.0
993.0
997.0
997.0
994.0
993.0
990.0
988.0
987.0
985.0
980.0
978.0
982.0
984.0
984.0
983.0
978.0
976.0
979.0
981.0
982.0
983.0
981.0
979.0
980.0
982.0
982.0
981.0
979.0
977.0
976.0
975.0
969.0
964.0
965.0
973.0
995.0
1021.0
1056.0
1098.0
1149.0
1204.0
1248.0
1278.0
1271.0
1222.0
1144.0
1058.0
964.0
887.0
853.0
860.0
881.0
904.0
926.0
945.0
956.0
962.0
967.0
975.0
977.0
977.0
975.0
970.0
966.0
964.0
969.0
972.0
974.0
974.0
971.0
970.0
973.0
975.0
976.0
974.0
971.0
974.0
978.0
983.0
983.0
985.0
984.0
986.0
986.0
987.0
985.0
986.0
987.0
986.0
987.0
991.0
996.0
994.0
995.0
997.0
1001.0
1004.0
1006.0
1006.0
1006.0
1010.0
1015.0
1018.0
1019.0
1024.0
1023.0
1023.0
1027.0
1035.0
1036.0
1035.0
1036.0
1034.0
1039.0
1041.0
1040.0
1040.0
1039.0
1038.0
1037.0
1043.0
1043.0
1038.0
1038.0
1039.0
1037.0
1039.0
1039.0
1035.0
1029.0
1027.0
1027.0
1027.0
1027.0
1022.0
1015.0
1011.0
1009.0
1007.0
1006.0
1004.0
998.0
996.0
995.0
994.0
997.0
994.0
993.0
988.0
989.0
989.0
989.0
990.0
985.0
984.0
986.0
988.0
990.0
987.0
987.0
987.0
988.0
989.0
990.0
988.0
987.0
989.0
990.0
991.0
992.0
990.0
988.0
984.0
987.0
987.0
987.0
988.0
984.0
983.0
981.0
981.0
984.0
981.0
982.0
980.0
983.0
985.0
987.0
986.0
983.0
984.0
982.0
987.0
987.0
987.0
985.0
985.0
986.0
990.0
991.0
988.0
987.0
992.0
997.0
1001.0
1002.0
996.0
993.0
993.0
1000.0
1005.0
1007.0
1005.0
1002.0
999.0
999.0
1002.0
1001.0
997.0
993.0
994.0
994.0
994.0
994.0
989.0
986.0
985.0
989.0
989.0
989.0
989.0
990.0
990.0
988.0
987.0
984.0
979.0
971.0
970.0
971.0
974.0
973.0
971.0
967.0
966.0
969.0
970.0
973.0
969.0
965.0
966.0
966.0
970.0
970.0
969.0
967.0
965.0
970.0
970.0
968.0
962.0
955.0
954.0
957.0
969.0
990.0
1016.0
1046.0
1087.0
1139.0
1193.0
1237.0
1250.0
1226.0
1171.0
1094.0
1011.0
916.0
852.0
839.0
858.0
887.0
914.0
933.0
945.0
950.0
958.0
963.0
966.0
964.0
959.0
958.0
959.0
962.0
966.0
969.0
968.0
964.0
958.0
965.0
968.0
967.0
967.0
966.0
969.0
971.0
973.0
974.0
974.0
970.0
971.0
971.0
978.0
978.0
975.0
973.0
973.0
976.0
983.0
984.0
985.0
982.0
983.0
987.0
993.0
992.0
993.0
993.0
995.0
998.0
1005.0
1008.0
1010.0
1009.0
1008.0
1014.0
1017.0
1022.0
1022.0
1021.0
1022.0
1028.0
1027.0
1029.0
1027.0
1024.0
1024.0
1030.0
1035.0
1036.0
1034.0
1027.0
1028.0
1030.0
1033.0
1034.0
1031.0
1027.0
1024.0
1026.0
1026.0
1027.0
1022.0
1016.0
1010.0
1009.0
1008.0
1006.0
1001.0
997.0
994.0
991.0
990.0
989.0
987.0
984.0
981.0
982.0
982.0
981.0
981.0
980.0
977.0
978.0
977.0
975.0
974.0
976.0
978.0
974.0
977.0
982.0
980.0
975.0
975.0
978.0
981.0
981.0
981.0
976.0
972.0
972.0
977.0
979.0
979.0
976.0
978.0
976.0
976.0
978.0
977.0
977.0
976.0
974.0
978.0
977.0
978.0
975.0
974.0
974.0
974.0
978.0
977.0
977.0
972.0
975.0
977.0
976.0
976.0
974.0
974.0
976.0
977.0
980.0
980.0
979.0
979.0
984.0
988.0
987.0
988.0
986.0
986.0
988.0
992.0
993.0
991.0
989.0
988.0
990.0
992.0
991.0
988.0
985.0
980.0
983.0
983.0
983.0
979.0
977.0
975.0
974.0
976.0
975.0
978.0
980.0
976.0
975.0
974.0
971.0
969.0
959.0
960.0
960.0
964.0
966.0
963.0
961.0
961.0
959.0
962.0
964.0
964.0
961.0
958.0
960.0
964.0
965.0
964.0
960.0
961.0
961.0
962.0
959.0
953.0
950.0
953.0
966.0
990.0
1019.0
1057.0
1106.0
1154.0
1205.0
1231.0
1231.0
1189.0
1127.0
1054.0
968.0
885.0
839.0
834.0
852.0
873.0
899.0
917.0
937.0
947.0
950.0
954.0
957.0
961.0
962.0
960.0
958.0
958.0
960.0
958.0
958.0
960.0
958.0
962.0
960.0
961.0
965.0
963.0
961.0
962.0
964.0
966.0
969.0
969.0
969.0
967.0
969.0
970.0
971.0
975.0
974.0
973.0
974.0
979.0
981.0
981.0
985.0
984.0
985.0
990.0
992.0
992.0
993.0
994.0
995.0
999.0
1003.0
1007.0
1007.0
1005.0
1008.0
1011.0
1015.0
1017.0
1016.0
1015.0
1018.0
1020.0
1021.0
1018.0
1016.0
1019.0
1021.0
1026.0
1028.0
1027.0
1026.0
1026.0
1028.0
1027.0
1026.0
1026.0
1022.0
1020.0
1025.0
1025.0
1023.0
1018.0
1012.0
1010.0
1007.0
1006.0
1003.0
997.0
993.0
990.0
990.0
990.0
991.0
988.0
986.0
980.0
978.0
981.0
980.0
979.0
978.0
977.0
973.0
977.0
978.0
978.0
973.0
972.0
973.0
976.0
978.0
974.0
976.0
974.0
974.0
975.0
977.0
976.0
974.0
972.0
971.0
973.0
973.0
973.0
976.0
974.0
976.0
978.0
980.0
979.0
975.0
974.0
973.0
975.0
972.0
972.0
974.0
975.0
977.0
975.0
978.0
975.0
972.0
969.0
970.0
973.0
973.0
971.0
968.0
967.0
973.0
976.0
977.0
980.0
981.0
985.0
984.0
984.0
985.0
983.0
983.0
985.0
986.0
987.0
991.0
988.0
985.0
985.0
983.0
981.0
983.0
985.0
978.0
978.0
974.0
975.0
977.0
973.0
972.0
968.0
973.0
972.0
975.0
975.0
975.0
972.0
973.0
972.0
971.0
969.0
958.0
957.0
956.0
958.0
959.0
959.0
956.0
952.0
953.0
954.0
958.0
954.0
956.0
953.0
956.0
961.0
964.0
961.0
957.0
958.0
958.0
961.0
963.0
956.0
949.0
946.0
947.0
953.0
964.0
982.0
1003.0
1041.0
1086.0
1142.0
1187.0
1217.0
1218.0
1184.0
1127.0
1061.0
981.0
892.0
830.0
818.0
837.0
861.0
885.0
902.0
919.0
930.0
936.0
942.0
947.0
945.0
946.0
949.0
950.0
954.0
954.0
953.0
954.0
952.0
954.0
957.0
957.0
954.0
954.0
954.0
955.0
958.0
963.0
961.0
964.0
961.0
963.0
966.0
969.0
972.0
970.0
970.0
970.0
971.0
972.0
973.0
974.0
976.0
977.0
976.0
979.0
982.0
985.0
986.0
994.0
995.0
995.0
999.0
999.0
998.0
999.0
1001.0
1002.0
1003.0
1003.0
1003.0
1006.0
1010.0
1015.0
1016.0
1014.0
1015.0
1020.0
1025.0
1022.0
1018.0
1014.0
1012.0
1016.0
1017.0
1019.0
1019.0
1016.0
1016.0
1020.0
1018.0
1017.0
1010.0
1007.0
1006.0
1004.0
999.0
996.0
989.0
986.0
984.0
985.0
983.0
981.0
975.0
971.0
967.0
968.0
965.0
967.0
964.0
963.0
959.0
962.0
967.0
972.0
964.0
962.0
962.0
958.0
964.0
965.0
967.0
964.0
961.0
963.0
965.0
968.0
968.0
967.0
965.0
966.0
968.0
970.0
968.0
966.0
965.0
968.0
969.0
969.0
966.0
967.0
966.0
963.0
965.0
967.0
966.0
968.0
965.0
969.0
971.0
975.0
974.0
970.0
967.0
967.0
968.0
969.0
970.0
970.0
972.0
975.0
979.0
982.0
980.0
977.0
978.0
978.0
982.0
983.0
984.0
981.0
977.0
979.0
981.0
983.0
983.0
981.0
978.0
977.0
979.0
974.0
973.0
973.0
970.0
973.0
976.0
973.0
972.0
971.0
971.0
968.0
971.0
969.0
965.0
958.0
957.0
958.0
959.0
960.0
957.0
954.0
954.0
955.0
958.0
956.0
956.0
950.0
951.0
953.0
955.0
961.0
961.0
960.0
958.0
956.0
955.0
948.0
944.0
948.0
967.0
1002.0
1050.0
1114.0
1180.0
1226.0
1224.0
1165.0
1068.0
945.0
843.0
808.0
831.0
862.0
893.0
916.0
934.0
942.0
946.0
950.0
955.0
959.0
958.0
955.0
953.0
954.0
956.0
959.0
959.0
957.0
958.0
961.0
962.0
964.0
964.0
964.0
963.0
964.0
967.0
969.0
970.0
970.0
970.0
970.0
974.0
975.0
980.0
978.0
980.0
981.0
986.0
990.0
993.0
993.0
993.0
993.0
994.0
997.0
999.0
998.0
1002.0
1004.0
1008.0
1012.0
1011.0
1012.0
1014.0
1018.0
1021.0
1024.0
1024.0
1026.0
1026.0
1027.0
1026.0
1024.0
1022.0
1024.0
1028.0
1030.0
1031.0
1034.0
1034.0
1032.0
1025.0
1025.0
1024.0
1024.0
1023.0
1022.0
1019.0
1017.0
1014.0
1011.0
1007.0
1003.0
1002.0
999.0
998.0
998.0
996.0
993.0
988.0
987.0
986.0
989.0
988.0
985.0
981.0
979.0
983.0
983.0
986.0
985.0
982.0
981.0
982.0
985.0
986.0
983.0
984.0
984.0
984.0
984.0
984.0
981.0
979.0
984.0
985.0
985.0
984.0
981.0
982.0
987.0
987.0
992.0
993.0
990.0
987.0
988.0
988.0
990.0
989.0
984.0
983.0
987.0
988.0
994.0
994.0
989.0
989.0
989.0
990.0
993.0
992.0
987.0
982.0
984.0
989.0
988.0
986.0
984.0
988.0
991.0
996.0
998.0
997.0
996.0
995.0
995.0
997.0
1002.0
1002.0
1002.0
998.0
994.0
995.0
996.0
1001.0
999.0
996.0
995.0
999.0
1002.0
999.0
993.0
989.0
988.0
988.0
989.0
989.0
987.0
983.0
986.0
987.0
992.0
993.0
988.0
985.0
983.0
981.0
979.0
976.0
973.0
972.0
973.0
976.0
977.0
976.0
970.0
971.0
973.0
970.0
975.0
971.0
970.0
972.0
972.0
973.0
976.0
974.0
973.0
972.0
969.0
969.0
965.0
961.0
960.0
970.0
987.0
1013.0
1049.0
1090.0
1138.0
1188.0
1232.0
1256.0
1239.0
1187.0
1116.0
1031.0
939.0
867.0
843.0
855.0
878.0
899.0
922.0
944.0
953.0
961.0
964.0
965.0
964.0
967.0
969.0
970.0
970.0
967.0
964.0
966.0
970.0
972.0
969.0
969.0
970.0
974.0
976.0
974.0
974.0
972.0
975.0
977.0
978.0
979.0
979.0
977.0
978.0
982.0
983.0
986.0
984.0
982.0
986.0
989.0
991.0
990.0
989.0
991.0
995.0
998.0
1002.0
1003.0
1004.0
999.0
1003.0
1006.0
1012.0
1014.0
1012.0
1014.0
1014.0
1017.0
1023.0
1027.0
1032.0
1030.0
1031.0
1033.0
1032.0
1031.0
1030.0
1031.0
1032.0
1035.0
1033.0
1031.0
1033.0
1031.0
1032.0
1036.0
1037.0
1037.0
1033.0
1032.0
1032.0
1033.0
1031.0
1027.0
1022.0
1016.0
1018.0
1017.0
1016.0
1011.0
1009.0
1004.0
1003.0
1003.0
1003.0
998.0
991.0
987.0
986.0
987.0
988.0
985.0
984.0
980.0
984.0
984.0
988.0
985.0
984.0
982.0
982.0
983.0
984.0
982.0
978.0
975.0
977.0
982.0
983.0
984.0
981.0
979.0
974.0
983.0
988.0
988.0
981.0
977.0
974.0
975.0
977.0
977.0
977.0
978.0
978.0
980.0
983.0
983.0
981.0
978.0
979.0
976.0
979.0
982.0
981.0
977.0
979.0
980.0
979.0
980.0
981.0
981.0
979.0
989.0
996.0
996.0
993.0
990.0
988.0
990.0
992.0
994.0
995.0
991.0
989.0
993.0
995.0
998.0
995.0
990.0
984.0
986.0
989.0
987.0
981.0
979.0
977.0
978.0
980.0
979.0
976.0
977.0
981.0
988.0
989.0
988.0
982.0
977.0
973.0
967.0
966.0
962.0
962.0
960.0
957.0
958.0
961.0
966.0
964.0
962.0
958.0
964.0
965.0
963.0
962.0
962.0
963.0
962.0
965.0
964.0
961.0
960.0
956.0
952.0
950.0
949.0
954.0
967.0
995.0
1029.0
1068.0
1113.0
1162.0
1207.0
1241.0
1252.0
1223.0
1168.0
1095.0
1014.0
930.0
864.0
840.0
843.0
863.0
878.0
899.0
919.0
932.0
942.0
950.0
953.0
957.0
959.0
959.0
960.0
957.0
959.0
960.0
962.0
963.0
963.0
960.0
960.0
960.0
963.0
963.0
964.0
963.0
964.0
964.0
966.0
969.0
968.0
967.0
967.0
967.0
971.0
971.0
972.0
973.0
973.0
973.0
976.0
979.0
985.0
983.0
980.0
981.0
986.0
989.0
990.0
990.0
991.0
992.0
996.0
1002.0
1002.0
1002.0
1000.0
1004.0
1006.0
1013.0
1015.0
1015.0
1015.0
1018.0
1023.0
1026.0
1026.0
1027.0
1027.0
1029.0
1030.0
1032.0
1031.0
1032.0
1033.0
1032.0
1032.0
1035.0
1034.0
1033.0
1032.0
1030.0
1032.0
1032.0
1031.0
1029.0
1023.0
1020.0
1020.0
1020.0
1019.0
1013.0
1009.0
1007.0
1005.0
1004.0
1003.0
995.0
991.0
992.0
992.0
990.0
987.0
984.0
980.0
981.0
981.0
979.0
980.0
978.0
977.0
980.0
980.0
982.0
982.0
980.0
979.0
979.0
985.0
982.0
980.0
975.0
973.0
974.0
975.0
978.0
975.0
974.0
973.0
972.0
974.0
980.0
979.0
977.0
976.0
976.0
977.0
979.0
978.0
974.0
974.0
973.0
977.0
980.0
978.0
978.0
976.0
978.0
978.0
981.0
977.0
976.0
973.0
970.0
975.0
974.0
975.0
976.0
974.0
979.0
982.0
991.0
994.0
992.0
994.0
992.0
990.0
995.0
997.0
994.0
991.0
992.0
993.0
996.0
993.0
992.0
989.0
988.0
989.0
991.0
991.0
987.0
983.0
979.0
978.0
979.0
979.0
978.0
977.0
980.0
984.0
983.0
982.0
980.0
975.0
973.0
969.0
967.0
966.0
965.0
964.0
960.0
963.0
965.0
965.0
966.0
965.0
965.0
965.0
968.0
966.0
964.0
963.0
963.0
967.0
970.0
969.0
969.0
964.0
960.0
956.0
952.0
949.0
951.0
958.0
979.0
1005.0
1038.0
1076.0
1119.0
1167.0
1211.0
1239.0
1234.0
1188.0
1117.0
1038.0
943.0
866.0
834.0
843.0
862.0
883.0
904.0
926.0
940.0
947.0
953.0
955.0
960.0
959.0
963.0
962.0
960.0
960.0
961.0
964.0
965.0
966.0
963.0
963.0
964.0
966.0
969.0
969.0
968.0
966.0
966.0
970.0
975.0
974.0
972.0
973.0
971.0
972.0
976.0
978.0
976.0
975.0
977.0
982.0
988.0
991.0
988.0
984.0
986.0
988.0
991.0
994.0
994.0
994.0
997.0
1004.0
1008.0
1012.0
1013.0
1010.0
1012.0
1016.0
1020.0
1024.0
1023.0
1026.0
1026.0
1032.0
1034.0
1036.0
1032.0
1029.0
1029.0
1030.0
1032.0
1031.0
1031.0
1028.0
1028.0
1032.0
1034.0
1033.0
1030.0
1027.0
1026.0
1026.0
1031.0
1025.0
1019.0
1017.0
1015.0
1015.0
1018.0
1015.0
1010.0
1002.0
997.0
995.0
995.0
995.0
993.0
990.0
988.0
987.0
986.0
984.0
981.0
979.0
977.0
977.0
978.0
980.0
975.0
976.0
977.0
977.0
977.0
979.0
974.0
973.0
975.0
978.0
981.0
979.0
976.0
972.0
972.0
977.0
979.0
979.0
976.0
975.0
978.0
978.0
981.0
978.0
979.0
977.0
976.0
978.0
979.0
980.0
975.0
974.0
974.0
983.0
984.0
982.0
979.0
976.0
976.0
978.0
979.0
980.0
978.0
978.0
977.0
988.0
992.0
995.0
993.0
991.0
990.0
991.0
997.0
997.0
992.0
990.0
986.0
987.0
990.0
989.0
993.0
993.0
991.0
991.0
990.0
993.0
991.0
988.0
984.0
984.0
985.0
986.0
983.0
982.0
978.0
979.0
983.0
985.0
978.0
978.0
977.0
976.0
972.0
966.0
960.0
956.0
960.0
962.0
963.0
965.0
965.0
965.0
968.0
967.0
968.0
966.0
962.0
962.0
962.0
966.0
967.0
967.0
963.0
961.0
960.0
959.0
963.0
960.0
952.0
947.0
951.0
962.0
981.0
1004.0
1035.0
1072.0
1119.0
1166.0
1212.0
1243.0
1234.0
1199.0
1146.0
1081.0
999.0
911.0
854.0
843.0
857.0
874.0
894.0
916.0
931.0
945.0
949.0
952.0
956.0
961.0
960.0
959.0
962.0
964.0
966.0
970.0
967.0
963.0
963.0
966.0
965.0
969.0
967.0
966.0
964.0
966.0
968.0
972.0
972.0
969.0
971.0
975.0
978.0
983.0
982.0
982.0
981.0
983.0
984.0
987.0
985.0
986.0
987.0
992.0
995.0
996.0
1000.0
1000.0
1001.0
1004.0
1009.0
1009.0
1011.0
1011.0
1015.0
1016.0
1019.0
1019.0
1021.0
1021.0
1023.0
1025.0
1031.0
1033.0
1030.0
1032.0
1033.0
1031.0
1035.0
1038.0
1036.0
1037.0
1038.0
1036.0
1041.0
1042.0
1037.0
1033.0
1033.0
1033.0
1031.0
1029.0
1026.0
1021.0
1019.0
1018.0
1018.0
1014.0
1010.0
1005.0
1003.0
1002.0
1000.0
996.0
989.0
985.0
982.0
985.0
986.0
985.0
984.0
983.0
981.0
984.0
983.0
983.0
979.0
977.0
978.0
979.0
981.0
981.0
975.0
976.0
977.0
979.0
982.0
978.0
973.0
974.0
975.0
978.0
980.0
979.0
976.0
972.0
977.0
979.0
980.0
978.0
980.0
980.0
981.0
979.0
979.0
976.0
976.0
979.0
979.0
982.0
986.0
984.0
982.0
983.0
983.0
985.0
985.0
985.0
984.0
981.0
984.0
991.0
994.0
993.0
991.0
990.0
990.0
994.0
998.0
999.0
995.0
992.0
993.0
993.0
997.0
997.0
993.0
992.0
990.0
992.0
990.0
988.0
984.0
982.0
979.0
984.0
984.0
984.0
981.0
980.0
977.0
982.0
983.0
981.0
975.0
967.0
966.0
968.0
968.0
967.0
967.0
964.0
963.0
964.0
965.0
969.0
967.0
964.0
966.0
968.0
970.0
970.0
968.0
967.0
967.0
965.0
964.0
961.0
953.0
948.0
954.0
966.0
987.0
1013.0
1048.0
1090.0
1145.0
1197.0
1243.0
1253.0
1222.0
1164.0
1083.0
990.0
898.0
844.0
836.0
852.0
875.0
901.0
926.0
942.0
953.0
953.0
956.0
961.0
964.0
962.0
965.0
963.0
963.0
965.0
967.0
968.0
968.0
966.0
968.0
970.0
973.0
973.0
969.0
971.0
971.0
972.0
975.0
975.0
974.0
973.0
977.0
980.0
982.0
983.0
978.0
979.0
980.0
985.0
990.0
992.0
991.0
990.0
994.0
997.0
1003.0
1003.0
999.0
1003.0
1005.0
1009.0
1013.0
1015.0
1013.0
1016.0
1017.0
1019.0
1025.0
1026.0
1027.0
1028.0
1033.0
1033.0
1037.0
1036.0
1033.0
1035.0
1034.0
1039.0
1041.0
1043.0
1039.0
1039.0
1037.0
1042.0
1044.0
1045.0
1039.0
1035.0
1035.0
1038.0
1038.0
1036.0
1031.0
1027.0
1023.0
1025.0
1026.0
1024.0
1022.0
1017.0
1012.0
1011.0
1012.0
1009.0
1006.0
1002.0
1000.0
1000.0
1001.0
999.0
997.0
995.0
995.0
995.0
993.0
992.0
989.0
988.0
987.0
991.0
993.0
994.0
993.0
992.0
994.0
993.0
989.0
989.0
988.0
984.0
986.0
990.0
992.0
992.0
989.0
984.0
984.0
988.0
988.0
989.0
989.0
986.0
987.0
987.0
989.0
987.0
985.0
983.0
984.0
985.0
989.0
991.0
991.0
990.0
990.0
993.0
993.0
994.0
992.0
985.0
983.0
988.0
987.0
988.0
988.0
989.0
988.0
994.0
999.0
1002.0
997.0
995.0
995.0
1000.0
1006.0
1006.0
1002.0
998.0
996.0
996.0
998.0
999.0
997.0
997.0
996.0
998.0
999.0
995.0
992.0
986.0
983.0
984.0
987.0
987.0
983.0
984.0
986.0
989.0
991.0
987.0
985.0
980.0
977.0
974.0
976.0
974.0
973.0
971.0
968.0
968.0
974.0
975.0
974.0
972.0
971.0
972.0
972.0
973.0
969.0
969.0
971.0
975.0
977.0
974.0
967.0
960.0
957.0
959.0
968.0
981.0
1003.0
1031.0
1069.0
1121.0
1172.0
1220.0
1253.0
1257.0
1220.0
1157.0
1077.0
976.0
886.0
840.0
842.0
868.0
896.0
917.0
933.0
940.0
948.0
954.0
965.0
962.0
957.0
954.0
955.0
961.0
962.0
963.0
960.0
959.0
960.0
962.0
964.0
963.0
963.0
965.0
967.0
971.0
974.0
969.0
967.0
965.0
967.0
971.0
974.0
973.0
973.0
971.0
973.0
976.0
977.0
977.0
979.0
979.0
981.0
985.0
988.0
987.0
990.0
990.0
991.0
997.0
1002.0
1005.0
1005.0
1006.0
1006.0
1011.0
1017.0
1017.0
1018.0
1018.0
1022.0
1024.0
1027.0
1028.0
1030.0
1029.0
1030.0
1027.0
1032.0
1033.0
1033.0
1033.0
1031.0
1031.0
1036.0
1034.0
1032.0
1031.0
1030.0
1028.0
1028.0
1027.0
1025.0
1022.0
1019.0
1018.0
1015.0
1012.0
1007.0
1003.0
999.0
1000.0
999.0
991.0
990.0
984.0
982.0
984.0
986.0
988.0
984.0
981.0
981.0
982.0
985.0
985.0
982.0
979.0
982.0
982.0
982.0
980.0
978.0
976.0
978.0
979.0
980.0
980.0
979.0
980.0
976.0
976.0
978.0
977.0
977.0
976.0
977.0
980.0
983.0
981.0
975.0
973.0
971.0
973.0
977.0
980.0
980.0
978.0
976.0
978.0
980.0
982.0
979.0
977.0
976.0
975.0
975.0
977.0
976.0
971.0
973.0
974.0
977.0
978.0
981.0
979.0
978.0
977.0
974.0
975.0
981.0
980.0
984.0
988.0
994.0
993.0
992.0
989.0
990.0
991.0
993.0
994.0
989.0
988.0
987.0
989.0
985.0
987.0
983.0
982.0
984.0
986.0
984.0
983.0
980.0
976.0
977.0
980.0
982.0
981.0
979.0
975.0
974.0
972.0
970.0
970.0
965.0
965.0
964.0
964.0
965.0
963.0
958.0
956.0
957.0
962.0
962.0
959.0
957.0
955.0
958.0
961.0
965.0
966.0
964.0
960.0
956.0
962.0
962.0
958.0
949.0
946.0
949.0
956.0
969.0
979.0
1002.0
1024.0
1060.0
1106.0
1153.0
1199.0
1228.0
1222.0
1189.0
1136.0
1066.0
982.0
891.0
832.0
827.0
845.0
869.0
888.0
907.0
926.0
936.0
946.0
952.0
950.0
952.0
951.0
953.0
950.0
947.0
945.0
947.0
948.0
947.0
952.0
955.0
956.0
954.0
953.0
953.0
957.0
957.0
958.0
961.0
963.0
965.0
971.0
972.0
968.0
965.0
966.0
968.0
970.0
975.0
975.0
974.0
973.0
978.0
981.0
983.0
984.0
982.0
982.0
986.0
993.0
999.0
998.0
998.0
1000.0
1003.0
1007.0
1008.0
1011.0
1014.0
1014.0
1017.0
1018.0
1020.0
1020.0
1017.0
1020.0
1020.0
1025.0
1022.0
1025.0
1017.0
1015.0
1018.0
1021.0
1026.0
1023.0
1021.0
1018.0
1020.0
1023.0
1021.0
1015.0
1010.0
1008.0
1005.0
1004.0
1003.0
999.0
994.0
994.0
991.0
987.0
985.0
981.0
980.0
975.0
974.0
975.0
974.0
975.0
969.0
967.0
969.0
967.0
966.0
964.0
961.0
958.0
961.0
962.0
964.0
966.0
964.0
961.0
961.0
965.0
968.0
967.0
966.0
965.0
964.0
967.0
970.0
970.0
968.0
964.0
965.0
966.0
964.0
966.0
966.0
969.0
967.0
966.0
967.0
965.0
964.0
963.0
963.0
966.0
968.0
969.0
967.0
962.0
964.0
965.0
970.0
970.0
966.0
960.0
963.0
963.0
968.0
966.0
966.0
967.0
969.0
974.0
977.0
978.0
978.0
976.0
974.0
977.0
980.0
981.0
978.0
975.0
973.0
973.0
976.0
978.0
975.0
974.0
974.0
975.0
973.0
972.0
964.0
958.0
961.0
965.0
969.0
969.0
966.0
966.0
966.0
968.0
966.0
961.0
955.0
953.0
949.0
951.0
952.0
951.0
948.0
945.0
945.0
948.0
949.0
949.0
948.0
946.0
946.0
948.0
948.0
950.0
948.0
948.0
948.0
949.0
948.0
938.0
931.0
933.0
942.0
961.0
990.0
1024.0
1066.0
1114.0
1169.0
1214.0
1233.0
1211.0
1159.0
1086.0
997.0
898.0
832.0
813.0
824.0
841.0
866.0
891.0
914.0
926.0
931.0
933.0
933.0
938.0
943.0
943.0
941.0
942.0
941.0
941.0
943.0
942.0
943.0
943.0
945.0
948.0
951.0
952.0
948.0
948.0
953.0
954.0
957.0
959.0
959.0
957.0
959.0
962.0
964.0
966.0
966.0
963.0
968.0
972.0
976.0
975.0
975.0
975.0
980.0
985.0
986.0
987.0
987.0
986.0
990.0
993.0
998.0
1000.0
999.0
1001.0
1004.0
1009.0
1013.0
1014.0
1016.0
1016.0
1016.0
1017.0
1020.0
1019.0
1018.0
1019.0
1022.0
1026.0
1027.0
1025.0
1021.0
1020.0
1021.0
1023.0
1026.0
1024.0
1020.0
1012.0
1012.0
1012.0
1011.0
1005.0
1000.0
995.0
992.0
991.0
991.0
990.0
988.0
984.0
980.0
980.0
979.0
975.0
968.0
966.0
971.0
969.0
970.0
975.0
971.0
970.0
969.0
971.0
972.0
972.0
969.0
967.0
969.0
970.0
970.0
968.0
963.0
965.0
968.0
971.0
972.0
967.0
966.0
965.0
964.0
969.0
972.0
974.0
970.0
971.0
971.0
973.0
973.0
971.0
970.0
967.0
970.0
972.0
976.0
974.0
974.0
972.0
973.0
976.0
978.0
975.0
973.0
969.0
966.0
973.0
975.0
976.0
972.0
971.0
971.0
973.0
978.0
978.0
975.0
971.0
976.0
981.0
985.0
986.0
986.0
983.0
981.0
987.0
988.0
988.0
986.0
985.0
985.0
988.0
989.0
988.0
984.0
984.0
981.0
985.0
988.0
984.0
980.0
976.0
977.0
977.0
979.0
977.0
976.0
977.0
978.0
981.0
982.0
976.0
972.0
968.0
966.0
965.0
963.0
962.0
963.0
960.0
961.0
964.0
964.0
962.0
960.0
962.0
961.0
960.0
962.0
965.0
964.0
963.0
960.0
963.0
963.0
958.0
951.0
944.0
947.0
957.0
974.0
997.0
1026.0
1062.0
1107.0
1161.0
1212.0
1253.0
1260.0
1223.0
1151.0
1061.0
967.0
877.0
832.0
832.0
858.0
889.0
915.0
932.0
944.0
948.0
951.0
956.0
959.0
960.0
958.0
955.0
955.0
956.0
960.0
960.0
960.0
956.0
957.0
962.0
966.0
964.0
963.0
962.0
961.0
961.0
966.0
967.0
964.0
963.0
966.0
968.0
972.0
978.0
979.0
976.0
976.0
979.0
982.0
984.0
985.0
990.0
989.0
999.0
1002.0
1005.0
1003.0
1007.0
1010.0
1015.0
1021.0
1020.0
1021.0
1022.0
1023.0
1026.0
1031.0
1032.0
1031.0
1027.0
1025.0
1027.0
1029.0
1029.0
1027.0
1026.0
1026.0
1028.0
1029.0
1029.0
1029.0
1023.0
1017.0
1019.0
1019.0
1013.0
1007.0
1004.0
996.0
993.0
995.0
992.0
986.0
978.0
982.0
984.0
985.0
982.0
977.0
975.0
975.0
979.0
986.0
985.0
980.0
979.0
978.0
978.0
982.0
980.0
975.0
976.0
973.0
976.0
977.0
977.0
974.0
973.0
972.0
971.0
974.0
972.0
970.0
966.0
962.0
967.0
971.0
972.0
969.0
966.0
966.0
970.0
975.0
976.0
976.0
973.0
970.0
971.0
972.0
974.0
973.0
972.0
969.0
972.0
974.0
973.0
969.0
966.0
968.0
970.0
974.0
974.0
974.0
972.0
969.0
970.0
975.0
976.0
975.0
973.0
977.0
981.0
984.0
984.0
982.0
983.0
983.0
987.0
992.0
990.0
985.0
980.0
978.0
978.0
980.0
979.0
975.0
974.0
975.0
975.0
973.0
969.0
963.0
963.0
963.0
967.0
970.0
975.0
975.0
973.0
971.0
967.0
967.0
962.0
957.0
953.0
951.0
956.0
958.0
960.0
954.0
950.0
948.0
953.0
958.0
957.0
955.0
953.0
953.0
956.0
958.0
956.0
952.0
951.0
950.0
950.0
950.0
942.0
936.0
940.0
951.0
973.0
1001.0
1037.0
1083.0
1134.0
1185.0
1224.0
1229.0
1191.0
1127.0
1045.0
948.0
865.0
828.0
830.0
853.0
871.0
891.0
916.0
933.0
938.0
938.0
942.0
940.0
946.0
947.0
949.0
952.0
950.0
948.0
950.0
952.0
952.0
952.0
948.0
946.0
950.0
953.0
955.0
956.0
955.0
954.0
958.0
961.0
961.0
961.0
958.0
956.0
961.0
965.0
967.0
967.0
969.0
971.0
977.0
978.0
975.0
974.0
975.0
978.0
982.0
986.0
996.0
997.0
996.0
994.0
996.0
999.0
995.0
998.0
999.0
1004.0
1011.0
1018.0
1021.0
1022.0
1020.0
1015.0
1016.0
1016.0
1014.0
1016.0
1017.0
1017.0
1021.0
1026.0
1025.0
1022.0
1022.0
1022.0
1023.0
1020.0
1016.0
1016.0
1012.0
1012.0
1011.0
1007.0
1007.0
1005.0
1001.0
1000.0
1001.0
1001.0
993.0
985.0
975.0
972.0
976.0
977.0
972.0
972.0
966.0
962.0
965.0
970.0
970.0
968.0
966.0
962.0
965.0
967.0
964.0
961.0
961.0
963.0
970.0
974.0
971.0
966.0
963.0
962.0
963.0
964.0
963.0
962.0
959.0
956.0
962.0
966.0
962.0
962.0
962.0
965.0
966.0
966.0
966.0
967.0
966.0
964.0
964.0
969.0
972.0
969.0
968.0
965.0
967.0
969.0
965.0
961.0
966.0
966.0
969.0
970.0
968.0
968.0
963.0
961.0
961.0
966.0
969.0
971.0
969.0
967.0
970.0
973.0
973.0
973.0
974.0
978.0
981.0
980.0
978.0
977.0
978.0
981.0
980.0
982.0
979.0
978.0
975.0
978.0
979.0
981.0
981.0
978.0
976.0
975.0
976.0
977.0
973.0
974.0
967.0
969.0
966.0
969.0
970.0
