# Simple Text Format
# Sampling Rate (Hz):= 360.00
# Resolution:= 12
# Labels:= ECG
998.0
992.0
992.0
991.0
993.0
992.0
986.0
981.0
975.0
971.0
968.0
966.0
964.0
964.0
963.0
963.0
962.0
964.0
964.0
966.0
966.0
965.0
965.0
968.0
972.0
980.0
989.0
998.0
1005.0
1011.0
1014.0
1017.0
1018.0
1020.0
1019.0
1020.0
1019.0
1014.0
1007.0
997.0
987.0
976.0
968.0
959.0
949.0
943.0
935.0
933.0
932.0
932.0
932.0
935.0
939.0
941.0
939.0
938.0
935.0
933.0
932.0
934.0
933.0
935.0
934.0
936.0
934.0
932.0
933.0
932.0
932.0
929.0
927.0
929.0
940.0
966.0
1012.0
1069.0
1141.0
1225.0
1308.0
1378.0
1417.0
1419.0
1378.0
1306.0
1218.0
1128.0
1039.0
965.0
910.0
865.0
833.0
811.0
802.0
812.0
831.0
850.0
870.0
882.0
884.0
882.0
876.0
871.0
868.0
864.0
860.0
863.0
862.0
865.0
862.0
862.0
859.0
859.0
857.0
855.0
855.0
857.0
855.0
854.0
851.0
848.0
847.0
848.0
851.0
854.0
856.0
858.0
855.0
855.0
856.0
858.0
862.0
864.0
868.0
871.0
876.0
883.0
887.0
894.0
903.0
910.0
915.0
924.0
926.0
929.0
935.0
943.0
952.0
962.0
973.0
984.0
991.0
998.0
1005.0
1014.0
1021.0
1031.0
1037.0
1044.0
1051.0
1054.0
1063.0
1069.0
1077.0
1084.0
1086.0
1089.0
1087.0
1088.0
1089.0
1091.0
1093.0
1093.0
1093.0
1090.0
1089.0
1086.0
1083.0
1079.0
1076.0
1072.0
1066.0
1062.0
1056.0
1054.0
1051.0
1048.0
1047.0
1040.0
1035.0
1025.0
1019.0
1014.0
1012.0
1010.0
1009.0
1005.0
1000.0
997.0
989.0
985.0
980.0
980.0
977.0
974.0
971.0
968.0
967.0
965.0
967.0
968.0
971.0
970.0
969.0
967.0
968.0
971.0
977.0
983.0
994.0
1002.0
1008.0
1011.0
1015.0
1019.0
1023.0
1025.0
1025.0
1026.0
1017.0
1010.0
1001.0
993.0
985.0
977.0
969.0
962.0
953.0
943.0
938.0
936.0
937.0
935.0
937.0
938.0
936.0
936.0
935.0
935.0
937.0
941.0
940.0
943.0
939.0
937.0
939.0
940.0
941.0
944.0
947.0
944.0
941.0
936.0
935.0
944.0
964.0
1000.0
1050.0
1112.0
1185.0
1263.0
1344.0
1406.0
1435.0
1418.0
1359.0
1279.0
1192.0
1107.0
1027.0
965.0
908.0
865.0
831.0
811.0
806.0
815.0
836.0
862.0
883.0
900.0
902.0
899.0
891.0
884.0
879.0
877.0
875.0
876.0
875.0
873.0
870.0
866.0
864.0
863.0
863.0
865.0
867.0
867.0
867.0
866.0
863.0
861.0
862.0
863.0
866.0
867.0
867.0
867.0
870.0
872.0
873.0
877.0
881.0
884.0
886.0
888.0
891.0
895.0
902.0
911.0
919.0
924.0
931.0
933.0
937.0
938.0
944.0
951.0
961.0
971.0
980.0
987.0
994.0
1000.0
1001.0
1008.0
1016.0
1022.0
1032.0
1038.0
1045.0
1053.0
1061.0
1070.0
1077.0
1084.0
1084.0
1088.0
1086.0
1085.0
1084.0
1087.0
1093.0
1098.0
1098.0
1098.0
1093.0
1087.0
1081.0
1077.0
1074.0
1072.0
1066.0
1062.0
1056.0
1051.0
1045.0
1043.0
1043.0
1044.0
1036.0
1030.0
1020.0
1013.0
1009.0
1006.0
1000.0
1000.0
996.0
991.0
985.0
976.0
972.0
966.0
963.0
961.0
958.0
955.0
950.0
947.0
946.0
947.0
948.0
947.0
946.0
942.0
938.0
934.0
934.0
939.0
944.0
952.0
957.0
963.0
967.0
969.0
976.0
981.0
988.0
998.0
1005.0
1008.0
1011.0
1010.0
1008.0
1006.0
1003.0
998.0
991.0
979.0
964.0
953.0
941.0
929.0
929.0
929.0
929.0
933.0
936.0
937.0
937.0
935.0
933.0
932.0
930.0
928.0
929.0
929.0
929.0
925.0
929.0
932.0
933.0
932.0
932.0
930.0
926.0
923.0
920.0
917.0
918.0
927.0
944.0
976.0
1016.0
1066.0
1124.0
1186.0
1260.0
1334.0
1397.0
1434.0
1434.0
1392.0
1323.0
1241.0
1148.0
1060.0
986.0
924.0
868.0
822.0
788.0
774.0
775.0
794.0
818.0
839.0
858.0
873.0
875.0
872.0
868.0
865.0
861.0
858.0
859.0
860.0
861.0
858.0
857.0
855.0
857.0
852.0
849.0
850.0
845.0
846.0
849.0
851.0
853.0
855.0
854.0
851.0
849.0
847.0
849.0
851.0
857.0
863.0
865.0
871.0
869.0
868.0
874.0
873.0
877.0
883.0
888.0
893.0
897.0
903.0
907.0
914.0
920.0
928.0
934.0
939.0
943.0
945.0
950.0
955.0
962.0
973.0
982.0
990.0
996.0
1002.0
1006.0
1014.0
1016.0
1022.0
1031.0
1038.0
1043.0
1052.0
1055.0
1062.0
1068.0
1071.0
1073.0
1076.0
1074.0
1073.0
1070.0
1068.0
1069.0
1070.0
1072.0
1072.0
1070.0
1066.0
1058.0
1053.0
1049.0
1046.0
1043.0
1043.0
1039.0
1035.0
1029.0
1023.0
1017.0
1011.0
1007.0
1004.0
999.0
992.0
987.0
982.0
976.0
975.0
970.0
971.0
968.0
964.0
961.0
956.0
952.0
949.0
948.0
948.0
950.0
951.0
952.0
951.0
951.0
950.0
950.0
954.0
956.0
957.0
962.0
966.0
974.0
979.0
984.0
995.0
1000.0
1007.0
1011.0
1010.0
1009.0
1006.0
1006.0
1004.0
1003.0
998.0
990.0
978.0
965.0
952.0
944.0
934.0
928.0
927.0
923.0
923.0
921.0
920.0
920.0
923.0
924.0
924.0
925.0
921.0
918.0
917.0
915.0
916.0
919.0
921.0
923.0
921.0
918.0
918.0
915.0
909.0
908.0
907.0
906.0
913.0
930.0
963.0
1011.0
1072.0
1144.0
1228.0
1311.0
1378.0
1427.0
1442.0
1417.0
1363.0
1291.0
1211.0
1131.0
1047.0
976.0
909.0
850.0
805.0
777.0
772.0
787.0
810.0
836.0
859.0
872.0
875.0
869.0
864.0
857.0
851.0
848.0
848.0
845.0
842.0
841.0
842.0
843.0
844.0
844.0
843.0
837.0
834.0
831.0
831.0
827.0
830.0
831.0
830.0
832.0
830.0
828.0
827.0
829.0
828.0
830.0
830.0
831.0
831.0
832.0
833.0
838.0
843.0
847.0
853.0
857.0
856.0
857.0
861.0
862.0
866.0
875.0
885.0
892.0
899.0
903.0
909.0
917.0
926.0
933.0
942.0
948.0
955.0
963.0
971.0
980.0
991.0
1001.0
1009.0
1017.0
1022.0
1026.0
1030.0
1032.0
1038.0
1043.0
1051.0
1055.0
1059.0
1062.0
1064.0
1063.0
1063.0
1065.0
1065.0
1059.0
1055.0
1052.0
1049.0
1046.0
1048.0
1046.0
1045.0
1041.0
1036.0
1030.0
1024.0
1017.0
1012.0
1012.0
1009.0
1007.0
1003.0
997.0
991.0
985.0
980.0
977.0
972.0
970.0
965.0
960.0
956.0
956.0
956.0
958.0
955.0
955.0
954.0
949.0
945.0
942.0
939.0
943.0
946.0
951.0
958.0
964.0
970.0
977.0
982.0
986.0
989.0
990.0
994.0
996.0
998.0
999.0
1000.0
997.0
991.0
979.0
966.0
949.0
935.0
926.0
918.0
917.0
915.0
916.0
916.0
915.0
914.0
915.0
914.0
914.0
909.0
909.0
909.0
910.0
910.0
911.0
915.0
917.0
917.0
915.0
912.0
910.0
908.0
906.0
903.0
904.0
903.0
904.0
914.0
939.0
982.0
1044.0
1117.0
1202.0
1295.0
1375.0
1428.0
1449.0
1425.0
1370.0
1292.0
1198.0
1104.0
1016.0
939.0
875.0
827.0
798.0
790.0
797.0
822.0
844.0
867.0
877.0
879.0
875.0
867.0
859.0
855.0
849.0
848.0
848.0
848.0
850.0
852.0
851.0
849.0
845.0
840.0
835.0
835.0
832.0
831.0
832.0
833.0
833.0
832.0
833.0
832.0
833.0
835.0
834.0
834.0
833.0
835.0
836.0
842.0
845.0
851.0
857.0
860.0
863.0
864.0
868.0
871.0
879.0
886.0
894.0
902.0
906.0
914.0
921.0
929.0
940.0
948.0
957.0
963.0
967.0
971.0
978.0
987.0
998.0
1010.0
1020.0
1030.0
1036.0
1044.0
1050.0
1054.0
1058.0
1065.0
1068.0
1070.0
1070.0
1073.0
1073.0
1078.0
1077.0
1076.0
1072.0
1067.0
1063.0
1058.0
1055.0
1058.0
1058.0
1058.0
1056.0
1052.0
1048.0
1041.0
1035.0
1034.0
1028.0
1024.0
1019.0
1014.0
1008.0
1005.0
1003.0
998.0
994.0
987.0
982.0
975.0
970.0
965.0
966.0
964.0
964.0
963.0
960.0
959.0
956.0
954.0
953.0
955.0
955.0
956.0
957.0
963.0
968.0
976.0
981.0
986.0
990.0
991.0
994.0
994.0
996.0
998.0
1003.0
1008.0
1011.0
1010.0
1008.0
1001.0
991.0
979.0
965.0
954.0
943.0
937.0
929.0
924.0
921.0
919.0
922.0
922.0
925.0
925.0
923.0
923.0
920.0
915.0
915.0
915.0
918.0
919.0
921.0
921.0
917.0
915.0
913.0
909.0
910.0
914.0
916.0
916.0
912.0
912.0
912.0
922.0
943.0
977.0
1024.0
1080.0
1146.0
1222.0
1302.0
1370.0
1419.0
1432.0
1406.0
1349.0
1274.0
1187.0
1108.0
1030.0
966.0
909.0
866.0
833.0
812.0
806.0
815.0
833.0
851.0
868.0
878.0
880.0
873.0
867.0
861.0
854.0
852.0
853.0
854.0
857.0
858.0
861.0
855.0
850.0
846.0
842.0
845.0
842.0
843.0
845.0
850.0
849.0
847.0
845.0
846.0
847.0
848.0
849.0
852.0
856.0
858.0
865.0
870.0
876.0
881.0
881.0
883.0
885.0
888.0
892.0
901.0
910.0
920.0
928.0
935.0
940.0
950.0
956.0
963.0
972.0
981.0
989.0
996.0
1003.0
1009.0
1014.0
1023.0
1031.0
1039.0
1043.0
1048.0
1053.0
1056.0
1061.0
1068.0
1076.0
1081.0
1086.0
1089.0
1086.0
1084.0
1081.0
1081.0
1083.0
1082.0
1080.0
1079.0
1079.0
1075.0
1073.0
1070.0
1067.0
1063.0
1061.0
1054.0
1049.0
1042.0
1037.0
1035.0
1034.0
1032.0
1030.0
1026.0
1020.0
1010.0
1003.0
996.0
991.0
986.0
980.0
973.0
971.0
964.0
959.0
957.0
954.0
952.0
946.0
943.0
938.0
934.0
933.0
936.0
938.0
939.0
938.0
937.0
935.0
936.0
938.0
946.0
951.0
958.0
963.0
970.0
975.0
983.0
992.0
997.0
1004.0
1006.0
1006.0
1001.0
997.0
991.0
983.0
975.0
966.0
954.0
943.0
935.0
928.0
925.0
924.0
925.0
926.0
926.0
924.0
926.0
922.0
921.0
924.0
926.0
929.0
930.0
927.0
923.0
921.0
922.0
923.0
924.0
925.0
927.0
922.0
923.0
918.0
924.0
935.0
959.0
999.0
1051.0
1118.0
1198.0
1283.0
1357.0
1403.0
1400.0
1354.0
1273.0
1171.0
1070.0
980.0
909.0
856.0
819.0
794.0
778.0
779.0
793.0
814.0
836.0
856.0
868.0
871.0
867.0
861.0
857.0
855.0
856.0
856.0
856.0
852.0
848.0
848.0
847.0
848.0
846.0
845.0
844.0
843.0
845.0
846.0
847.0
850.0
848.0
849.0
847.0
847.0
847.0
849.0
854.0
860.0
868.0
871.0
875.0
877.0
877.0
880.0
886.0
892.0
894.0
898.0
906.0
911.0
918.0
924.0
936.0
941.0
947.0
952.0
954.0
959.0
962.0
970.0
982.0
991.0
1002.0
1010.0
1015.0
1021.0
1028.0
1034.0
1038.0
1045.0
1050.0
1053.0
1055.0
1060.0
1063.0
1068.0
1073.0
1070.0
1069.0
1067.0
1063.0
1061.0
1060.0
1057.0
1054.0
1051.0
1047.0
1042.0
1040.0
1036.0
1034.0
1034.0
1026.0
1021.0
1013.0
1007.0
1002.0
1001.0
998.0
994.0
990.0
984.0
976.0
968.0
960.0
956.0
954.0
951.0
949.0
947.0
943.0
941.0
940.0
942.0
945.0
943.0
938.0
939.0
937.0
934.0
933.0
935.0
941.0
945.0
948.0
952.0
959.0
965.0
970.0
978.0
982.0
987.0
992.0
998.0
1001.0
1004.0
1006.0
1007.0
1005.0
1001.0
992.0
980.0
966.0
952.0
943.0
938.0
933.0
931.0
930.0
928.0
923.0
922.0
920.0
919.0
920.0
920.0
923.0
923.0
918.0
920.0
920.0
922.0
924.0
926.0
924.0
920.0
916.0
915.0
915.0
912.0
911.0
910.0
906.0
907.0
910.0
923.0
948.0
984.0
1038.0
1101.0
1179.0
1258.0
1336.0
1392.0
1418.0
1399.0
1348.0
1271.0
1178.0
1083.0
994.0
921.0
864.0
817.0
786.0
773.0
778.0
794.0
817.0
840.0
857.0
866.0
867.0
864.0
857.0
852.0
847.0
847.0
849.0
847.0
847.0
848.0
847.0
844.0
841.0
838.0
834.0
833.0
834.0
836.0
837.0
837.0
837.0
835.0
833.0
831.0
831.0
832.0
836.0
836.0
840.0
842.0
841.0
845.0
848.0
855.0
858.0
860.0
864.0
864.0
867.0
871.0
878.0
886.0
892.0
900.0
906.0
910.0
913.0
919.0
926.0
933.0
946.0
954.0
961.0
965.0
975.0
981.0
990.0
999.0
1006.0
1013.0
1018.0
1024.0
1031.0
1039.0
1048.0
1055.0
1062.0
1065.0
1067.0
1067.0
1068.0
1067.0
1067.0
1066.0
1067.0
1065.0
1064.0
1060.0
1055.0
1054.0
1050.0
1046.0
1041.0
1034.0
1026.0
1023.0
1016.0
1014.0
1012.0
1010.0
1007.0
999.0
992.0
982.0
980.0
975.0
972.0
967.0
966.0
961.0
957.0
955.0
954.0
951.0
951.0
947.0
944.0
941.0
939.0
937.0
940.0
943.0
946.0
950.0
954.0
960.0
965.0
971.0
976.0
983.0
986.0
988.0
990.0
994.0
995.0
1000.0
1004.0
1002.0
997.0
989.0
975.0
963.0
947.0
937.0
930.0
924.0
921.0
920.0
917.0
915.0
916.0
916.0
914.0
913.0
911.0
910.0
909.0
910.0
910.0
911.0
913.0
914.0
915.0
913.0
908.0
904.0
903.0
903.0
903.0
903.0
898.0
897.0
908.0
925.0
958.0
1004.0
1060.0
1129.0
1208.0
1292.0
1370.0
1419.0
1433.0
1405.0
1338.0
1252.0
1157.0
1058.0
971.0
900.0
844.0
805.0
786.0
785.0
799.0
823.0
846.0
866.0
875.0
876.0
872.0
864.0
855.0
850.0
846.0
846.0
847.0
850.0
852.0
851.0
851.0
852.0
848.0
843.0
843.0
842.0
842.0
845.0
846.0
844.0
843.0
841.0
844.0
844.0
849.0
854.0
855.0
856.0
855.0
855.0
859.0
863.0
869.0
876.0
882.0
886.0
886.0
894.0
897.0
902.0
912.0
921.0
929.0
936.0
942.0
949.0
955.0
963.0
970.0
977.0
984.0
986.0
990.0
1003.0
1009.0
1020.0
1029.0
1032.0
1045.0
1050.0
1054.0
1057.0
1062.0
1066.0
1073.0
1077.0
1082.0
1081.0
1082.0
1084.0
1081.0
1079.0
1077.0
1077.0
1074.0
1066.0
1062.0
1059.0
1055.0
1053.0
1052.0
1048.0
1047.0
1041.0
1034.0
1024.0
1020.0
1014.0
1011.0
1013.0
1011.0
1007.0
1002.0
995.0
991.0
986.0
975.0
970.0
963.0
958.0
951.0
946.0
941.0
943.0
942.0
943.0
941.0
939.0
938.0
934.0
929.0
928.0
927.0
929.0
930.0
935.0
933.0
933.0
931.0
931.0
932.0
936.0
942.0
948.0
956.0
963.0
970.0
976.0
983.0
990.0
995.0
995.0
997.0
996.0
990.0
982.0
978.0
971.0
963.0
956.0
949.0
942.0
934.0
924.0
915.0
912.0
911.0
909.0
912.0
915.0
915.0
917.0
917.0
917.0
919.0
923.0
924.0
920.0
918.0
914.0
912.0
910.0
911.0
911.0
914.0
915.0
915.0
911.0
906.0
902.0
900.0
909.0
930.0
971.0
1025.0
1091.0
1168.0
1250.0
1332.0
1397.0
1424.0
1405.0
1346.0
1261.0
1163.0
1065.0
979.0
907.0
849.0
804.0
773.0
762.0
769.0
793.0
818.0
843.0
862.0
867.0
867.0
862.0
852.0
844.0
843.0
841.0
842.0
841.0
841.0
839.0
837.0
836.0
836.0
836.0
837.0
835.0
834.0
832.0
828.0
830.0
829.0
832.0
836.0
837.0
841.0
839.0
840.0
843.0
848.0
851.0
853.0
855.0
857.0
859.0
864.0
868.0
876.0
884.0
891.0
896.0
900.0
903.0
908.0
913.0
918.0
927.0
932.0
938.0
942.0
948.0
957.0
966.0
976.0
984.0
989.0
994.0
1001.0
1006.0
1013.0
1022.0
1028.0
1036.0
1043.0
1047.0
1049.0
1050.0
1050.0
1057.0
1059.0
1059.0
1057.0
1052.0
1052.0
1050.0
1048.0
1045.0
1042.0
1037.0
1030.0
1022.0
1016.0
1013.0
1011.0
1007.0
1006.0
1002.0
998.0
990.0
984.0
979.0
974.0
970.0
963.0
955.0
952.0
946.0
944.0
941.0
940.0
937.0
938.0
933.0
929.0
925.0
922.0
918.0
920.0
920.0
922.0
921.0
920.0
922.0
924.0
929.0
934.0
940.0
945.0
950.0
955.0
960.0
966.0
974.0
980.0
986.0
991.0
991.0
989.0
985.0
983.0
978.0
973.0
966.0
955.0
940.0
930.0
920.0
915.0
912.0
911.0
910.0
910.0
906.0
906.0
905.0
905.0
905.0
908.0
908.0
907.0
909.0
905.0
904.0
903.0
903.0
905.0
906.0
905.0
906.0
904.0
902.0
897.0
894.0
890.0
892.0
901.0
918.0
951.0
998.0
1055.0
1113.0
1180.0
1251.0
1324.0
1383.0
1410.0
1400.0
1351.0
1277.0
1180.0
1085.0
993.0
915.0
848.0
798.0
771.0
764.0
778.0
801.0
827.0
847.0
858.0
861.0
856.0
851.0
845.0
840.0
837.0
835.0
833.0
833.0
830.0
829.0
829.0
825.0
826.0
823.0
823.0
823.0
821.0
823.0
821.0
821.0
821.0
820.0
823.0
821.0
821.0
822.0
822.0
826.0
829.0
829.0
831.0
832.0
833.0
835.0
838.0
845.0
849.0
856.0
860.0
862.0
867.0
869.0
874.0
880.0
885.0
888.0
894.0
900.0
907.0
912.0
922.0
932.0
941.0
948.0
955.0
962.0
967.0
972.0
978.0
986.0
997.0
1007.0
1012.0
1019.0
1024.0
1029.0
1031.0
1038.0
1042.0
1044.0
1047.0
1048.0
1050.0
1051.0
1052.0
1053.0
1054.0
1053.0
1052.0
1048.0
1043.0
1037.0
1032.0
1028.0
1030.0
1027.0
1025.0
1021.0
1019.0
1012.0
1003.0
995.0
993.0
990.0
986.0
982.0
974.0
972.0
968.0
964.0
960.0
958.0
952.0
950.0
946.0
941.0
937.0
935.0
934.0
935.0
936.0
939.0
936.0
936.0
930.0
925.0
924.0
927.0
931.0
938.0
943.0
949.0
951.0
958.0
964.0
969.0
975.0
979.0
982.0
982.0
981.0
983.0
985.0
984.0
985.0
980.0
973.0
961.0
945.0
931.0
920.0
912.0
907.0
907.0
908.0
908.0
908.0
907.0
907.0
906.0
905.0
906.0
908.0
905.0
904.0
905.0
906.0
905.0
906.0
909.0
908.0
908.0
907.0
906.0
902.0
899.0
896.0
897.0
901.0
908.0
926.0
957.0
1002.0
1060.0
1129.0
1210.0
1291.0
1363.0
1406.0
1406.0
1361.0
1283.0
1188.0
1090.0
1000.0
926.0
870.0
824.0
795.0
778.0
778.0
795.0
816.0
839.0
858.0
867.0
866.0
864.0
856.0
852.0
846.0
844.0
841.0
842.0
842.0
841.0
843.0
842.0
843.0
839.0
836.0
834.0
830.0
829.0
830.0
831.0
835.0
835.0
837.0
836.0
836.0
836.0
838.0
840.0
842.0
842.0
845.0
846.0
851.0
856.0
863.0
869.0
874.0
879.0
883.0
886.0
891.0
898.0
905.0
914.0
919.0
926.0
935.0
943.0
952.0
957.0
966.0
973.0
976.0
983.0
991.0
997.0
1007.0
1017.0
1026.0
1034.0
1038.0
1040.0
1045.0
1047.0
1052.0
1059.0
1062.0
1067.0
1068.0
1068.0
1068.0
1069.0
1067.0
1067.0
1065.0
1061.0
1055.0
1050.0
1043.0
1039.0
1038.0
1036.0
1036.0
1035.0
1029.0
1022.0
1017.0
1009.0
1006.0
1001.0
996.0
995.0
989.0
984.0
981.0
973.0
972.0
969.0
966.0
962.0
956.0
948.0
944.0
940.0
937.0
937.0
940.0
939.0
939.0
936.0
931.0
927.0
926.0
924.0
925.0
928.0
932.0
937.0
941.0
946.0
954.0
957.0
962.0
968.0
971.0
972.0
976.0
976.0
979.0
985.0
987.0
990.0
989.0
983.0
970.0
957.0
946.0
937.0
925.0
921.0
917.0
912.0
910.0
909.0
904.0
905.0
904.0
905.0
904.0
903.0
900.0
899.0
898.0
899.0
899.0
902.0
905.0
905.0
904.0
901.0
900.0
896.0
896.0
896.0
896.0
892.0
890.0
889.0
895.0
912.0
939.0
979.0
1031.0
1087.0
1156.0
1232.0
1308.0
1373.0
1412.0
1410.0
1367.0
1293.0
1199.0
1097.0
1003.0
920.0
852.0
805.0
777.0
773.0
787.0
811.0
832.0
851.0
858.0
860.0
855.0
846.0
837.0
834.0
830.0
830.0
833.0
836.0
836.0
837.0
833.0
828.0
825.0
821.0
819.0
818.0
816.0
822.0
821.0
820.0
819.0
818.0
814.0
813.0
814.0
815.0
815.0
814.0
815.0
817.0
819.0
824.0
829.0
832.0
834.0
836.0
836.0
841.0
843.0
849.0
855.0
863.0
869.0
875.0
880.0
885.0
889.0
896.0
903.0
911.0
919.0
927.0
933.0
941.0
949.0
958.0
968.0
977.0
983.0
988.0
995.0
999.0
1003.0
1009.0
1017.0
1025.0
1034.0
1042.0
1049.0
1051.0
1053.0
1054.0
1054.0
1054.0
1057.0
1058.0
1056.0
1053.0
1053.0
1051.0
1047.0
1047.0
1045.0
1041.0
1041.0
1037.0
1032.0
1024.0
1019.0
1017.0
1015.0
1014.0
1011.0
1009.0
1003.0
997.0
991.0
985.0
979.0
979.0
976.0
973.0
971.0
968.0
963.0
960.0
954.0
949.0
947.0
943.0
943.0
940.0
940.0
942.0
942.0
941.0
940.0
938.0
937.0
936.0
937.0
941.0
946.0
951.0
962.0
970.0
975.0
976.0
979.0
980.0
984.0
988.0
989.0
988.0
985.0
983.0
974.0
966.0
955.0
947.0
937.0
924.0
917.0
909.0
905.0
902.0
903.0
904.0
906.0
912.0
913.0
914.0
913.0
911.0
909.0
908.0
907.0
906.0
905.0
907.0
908.0
909.0
913.0
913.0
914.0
909.0
905.0
896.0
894.0
897.0
914.0
939.0
976.0
1027.0
1085.0
1153.0
1229.0
1307.0
1366.0
1396.0
1376.0
1316.0
1221.0
1117.0
1016.0
930.0
871.0
829.0
804.0
788.0
783.0
785.0
797.0
814.0
835.0
852.0
862.0
862.0
859.0
854.0
846.0
841.0
841.0
843.0
839.0
840.0
836.0
835.0
833.0
833.0
837.0
837.0
840.0
841.0
839.0
834.0
832.0
830.0
828.0
834.0
835.0
839.0
839.0
840.0
845.0
847.0
848.0
852.0
857.0
860.0
862.0
865.0
874.0
881.0
890.0
895.0
902.0
908.0
912.0
915.0
919.0
929.0
938.0
944.0
954.0
962.0
968.0
975.0
983.0
990.0
996.0
1003.0
1009.0
1015.0
1019.0
1025.0
1034.0
1042.0
1049.0
1054.0
1057.0
1055.0
1056.0
1057.0
1058.0
1058.0
1056.0
1054.0
1051.0
1048.0
1045.0
1046.0
1048.0
1045.0
1039.0
1034.0
1026.0
1017.0
1013.0
1009.0
1009.0
1005.0
1003.0
995.0
989.0
985.0
979.0
976.0
972.0
971.0
965.0
959.0
957.0
948.0
946.0
941.0
941.0
941.0
935.0
931.0
925.0
920.0
915.0
912.0
914.0
915.0
919.0
921.0
919.0
916.0
913.0
912.0
914.0
916.0
921.0
929.0
936.0
942.0
949.0
957.0
963.0
970.0
975.0
979.0
983.0
983.0
982.0
982.0
984.0
981.0
975.0
968.0
957.0
942.0
927.0
919.0
913.0
909.0
908.0
909.0
912.0
911.0
914.0
914.0
913.0
917.0
916.0
914.0
913.0
910.0
909.0
910.0
912.0
916.0
917.0
919.0
918.0
918.0
913.0
910.0
907.0
908.0
908.0
913.0
929.0
963.0
1013.0
1071.0
1149.0
1235.0
1317.0
1388.0
1431.0
1435.0
1396.0
1329.0
1247.0
1159.0
1076.0
998.0
929.0
869.0
820.0
787.0
771.0
774.0
787.0
809.0
833.0
850.0
861.0
866.0
865.0
863.0
859.0
856.0
853.0
849.0
845.0
845.0
842.0
845.0
843.0
846.0
845.0
843.0
841.0
838.0
835.0
833.0
832.0
834.0
834.0
836.0
836.0
838.0
839.0
838.0
840.0
842.0
840.0
843.0
845.0
846.0
852.0
859.0
863.0
867.0
876.0
879.0
880.0
883.0
886.0
890.0
895.0
903.0
907.0
912.0
916.0
921.0
928.0
933.0
940.0
949.0
957.0
960.0
965.0
970.0
976.0
984.0
993.0
1002.0
1007.0
1014.0
1014.0
1017.0
1023.0
1026.0
1027.0
1036.0
1041.0
1045.0
1045.0
1045.0
1045.0
1048.0
1048.0
1046.0
1043.0
1039.0
1034.0
1027.0
1025.0
1023.0
1022.0
1021.0
1017.0
1011.0
1003.0
997.0
992.0
986.0
984.0
981.0
976.0
974.0
972.0
966.0
958.0
954.0
947.0
943.0
938.0
934.0
933.0
930.0
927.0
926.0
925.0
927.0
928.0
927.0
925.0
923.0
920.0
918.0
915.0
919.0
923.0
928.0
934.0
938.0
947.0
952.0
954.0
959.0
966.0
968.0
971.0
973.0
975.0
975.0
977.0
979.0
977.0
971.0
961.0
950.0
932.0
922.0
909.0
904.0
899.0
899.0
898.0
898.0
896.0
897.0
896.0
894.0
894.0
893.0
893.0
891.0
890.0
891.0
892.0
893.0
896.0
894.0
894.0
894.0
889.0
888.0
884.0
886.0
884.0
885.0
887.0
898.0
921.0
960.0
1014.0
1080.0
1158.0
1243.0
1326.0
1386.0
1412.0
1392.0
1335.0
1253.0
1158.0
1065.0
977.0
903.0
843.0
795.0
767.0
762.0
777.0
801.0
825.0
844.0
852.0
853.0
847.0
841.0
833.0
829.0
825.0
824.0
825.0
825.0
827.0
824.0
825.0
823.0
817.0
814.0
812.0
810.0
806.0
809.0
808.0
811.0
811.0
810.0
809.0
811.0
810.0
809.0
810.0
810.0
809.0
810.0
812.0
818.0
824.0
829.0
837.0
837.0
841.0
844.0
847.0
850.0
855.0
861.0
869.0
875.0
882.0
892.0
902.0
910.0
917.0
926.0
935.0
940.0
945.0
952.0
959.0
970.0
980.0
990.0
996.0
1003.0
1010.0
1014.0
1021.0
1026.0
1029.0
1034.0
1041.0
1044.0
1045.0
1048.0
1050.0
1052.0
1052.0
1051.0
1048.0
1044.0
1039.0
1032.0
1031.0
1029.0
1029.0
1028.0
1025.0
1018.0
1014.0
1007.0
1002.0
1000.0
998.0
996.0
993.0
988.0
984.0
977.0
972.0
969.0
966.0
962.0
957.0
952.0
946.0
942.0
940.0
939.0
940.0
940.0
941.0
939.0
937.0
930.0
928.0
928.0
931.0
933.0
939.0
944.0
950.0
959.0
967.0
975.0
979.0
982.0
984.0
985.0
986.0
988.0
989.0
988.0
983.0
975.0
962.0
947.0
937.0
926.0
917.0
911.0
905.0
907.0
908.0
910.0
911.0
911.0
914.0
915.0
914.0
911.0
910.0
909.0
908.0
910.0
909.0
911.0
913.0
912.0
911.0
908.0
906.0
904.0
900.0
898.0
897.0
910.0
935.0
973.0
1024.0
1088.0
1162.0
1244.0
1324.0
1390.0
1423.0
1415.0
1368.0
1292.0
1199.0
1103.0
1016.0
941.0
879.0
831.0
801.0
789.0
791.0
805.0
826.0
849.0
864.0
875.0
876.0
872.0
866.0
858.0
853.0
849.0
845.0
844.0
845.0
847.0
847.0
848.0
844.0
844.0
842.0
841.0
839.0
838.0
835.0
834.0
829.0
828.0
829.0
833.0
834.0
839.0
838.0
839.0
839.0
839.0
840.0
843.0
845.0
848.0
853.0
856.0
860.0
867.0
872.0
878.0
886.0
893.0
898.0
901.0
906.0
912.0
919.0
927.0
939.0
946.0
958.0
966.0
975.0
977.0
986.0
993.0
1002.0
1014.0
1022.0
1031.0
1036.0
1045.0
1052.0
1060.0
1062.0
1067.0
1071.0
1072.0
1071.0
1072.0
1073.0
1077.0
1080.0
1083.0
1084.0
1081.0
1077.0
1072.0
1067.0
1065.0
1060.0
1056.0
1057.0
1057.0
1053.0
1051.0
1047.0
1043.0
1040.0
1036.0
1033.0
1028.0
1023.0
1017.0
1010.0
1006.0
1004.0
1002.0
999.0
994.0
987.0
982.0
976.0
972.0
968.0
967.0
966.0
966.0
964.0
961.0
959.0
957.0
958.0
957.0
954.0
954.0
954.0
956.0
961.0
968.0
976.0
985.0
991.0
998.0
998.0
1000.0
1001.0
1004.0
1007.0
1011.0
1015.0
1014.0
1011.0
1007.0
998.0
988.0
974.0
966.0
955.0
948.0
938.0
931.0
928.0
927.0
930.0
932.0
933.0
934.0
932.0
929.0
924.0
925.0
924.0
925.0
927.0
929.0
930.0
930.0
931.0
928.0
930.0
926.0
926.0
925.0
922.0
918.0
915.0
916.0
925.0
948.0
985.0
1037.0
1105.0
1179.0
1259.0
1341.0
1404.0
1443.0
1438.0
1394.0
1328.0
1249.0
1162.0
1080.0
1008.0
948.0
897.0
854.0
822.0
806.0
805.0
819.0
844.0
867.0
885.0
894.0
892.0
882.0
873.0
865.0
860.0
856.0
860.0
861.0
864.0
866.0
866.0
862.0
856.0
853.0
854.0
852.0
852.0
848.0
850.0
846.0
846.0
843.0
845.0
848.0
849.0
847.0
848.0
846.0
845.0
847.0
850.0
856.0
860.0
864.0
867.0
871.0
871.0
872.0
873.0
878.0
887.0
895.0
903.0
910.0
917.0
924.0
932.0
941.0
951.0
959.0
966.0
971.0
977.0
980.0
991.0
1001.0
1015.0
1028.0
1036.0
1047.0
1049.0
1052.0
1052.0
1057.0
1060.0
1067.0
1075.0
1081.0
1086.0
1090.0
1094.0
1093.0
1097.0
1099.0
1099.0
1096.0
1094.0
1089.0
1088.0
1085.0
1084.0
1087.0
1087.0
1084.0
1080.0
1072.0
1068.0
1056.0
1054.0
1050.0
1049.0
1048.0
1045.0
1043.0
1036.0
1025.0
1020.0
1016.0
1012.0
1009.0
1003.0
999.0
993.0
987.0
982.0
977.0
975.0
972.0
969.0
965.0
961.0
957.0
953.0
947.0
947.0
947.0
949.0
950.0
951.0
948.0
946.0
946.0
947.0
952.0
959.0
966.0
973.0
979.0
982.0
988.0
993.0
1001.0
1006.0
1010.0
1012.0
1011.0
1008.0
1008.0
1007.0
1004.0
1003.0
994.0
982.0
970.0
957.0
947.0
943.0
938.0
939.0
937.0
939.0
939.0
939.0
936.0
935.0
937.0
937.0
940.0
939.0
943.0
938.0
935.0
935.0
934.0
935.0
938.0
940.0
942.0
941.0
940.0
936.0
934.0
931.0
929.0
932.0
937.0
949.0
977.0
1017.0
1068.0
1132.0
1205.0
1283.0
1358.0
1417.0
1444.0
1431.0
1377.0
1302.0
1220.0
1133.0
1051.0
981.0
919.0
