# Simple Text Format
# Sampling Rate (Hz):= 360.00
# Resolution:= 12
# Labels:= ECG
1003.0
1006.0
1007.0
1008.0
1004.0
999.0
988.0
981.0
968.0
958.0
950.0
945.0
941.0
936.0
931.0
926.0
920.0
917.0
915.0
916.0
919.0
919.0
921.0
921.0
921.0
920.0
921.0
922.0
922.0
920.0
915.0
911.0
912.0
912.0
912.0
914.0
916.0
914.0
906.0
902.0
899.0
908.0
926.0
967.0
1016.0
1078.0
1138.0
1203.0
1266.0
1328.0
1379.0
1407.0
1402.0
1366.0
1305.0
1225.0
1139.0
1051.0
970.0
893.0
829.0
783.0
757.0
754.0
766.0
791.0
813.0
835.0
847.0
854.0
853.0
848.0
843.0
838.0
831.0
828.0
828.0
826.0
828.0
827.0
824.0
823.0
819.0
819.0
813.0
818.0
816.0
816.0
816.0
812.0
808.0
806.0
803.0
804.0
808.0
809.0
812.0
812.0
810.0
810.0
809.0
809.0
813.0
815.0
818.0
824.0
827.0
831.0
835.0
836.0
840.0
845.0
849.0
854.0
859.0
862.0
868.0
876.0
885.0
894.0
902.0
909.0
915.0
920.0
925.0
932.0
941.0
951.0
960.0
969.0
975.0
983.0
989.0
995.0
1001.0
1007.0
1012.0
1016.0
1017.0
1020.0
1021.0
1025.0
1029.0
1032.0
1035.0
1038.0
1034.0
1032.0
1028.0
1026.0
1023.0
1021.0
1020.0
1020.0
1018.0
1015.0
1011.0
1008.0
1004.0
999.0
993.0
989.0
980.0
975.0
968.0
965.0
961.0
960.0
959.0
955.0
949.0
942.0
937.0
931.0
928.0
925.0
925.0
928.0
927.0
927.0
925.0
923.0
920.0
917.0
916.0
917.0
920.0
924.0
927.0
932.0
936.0
943.0
950.0
955.0
959.0
962.0
961.0
962.0
961.0
960.0
963.0
967.0
968.0
969.0
965.0
956.0
944.0
930.0
917.0
906.0
901.0
896.0
895.0
895.0
895.0
894.0
893.0
894.0
892.0
893.0
892.0
891.0
892.0
887.0
889.0
890.0
889.0
894.0
897.0
899.0
900.0
898.0
897.0
895.0
892.0
890.0
891.0
889.0
889.0
889.0
898.0
919.0
955.0
1005.0
1069.0
1141.0
1222.0
1298.0
1360.0
1401.0
1412.0
1390.0
1340.0
1266.0
1182.0
1100.0
1018.0
942.0
876.0
823.0
793.0
782.0
790.0
813.0
840.0
861.0
871.0
872.0
867.0
857.0
851.0
843.0
840.0
839.0
842.0
841.0
841.0
840.0
840.0
837.0
834.0
828.0
823.0
818.0
819.0
821.0
823.0
824.0
823.0
822.0
818.0
817.0
817.0
818.0
819.0
819.0
820.0
824.0
825.0
827.0
830.0
831.0
832.0
835.0
838.0
839.0
842.0
844.0
847.0
854.0
861.0
870.0
879.0
886.0
892.0
898.0
902.0
906.0
914.0
922.0
930.0
941.0
951.0
957.0
966.0
973.0
981.0
990.0
1000.0
1008.0
1015.0
1016.0
1025.0
1031.0
1037.0
1045.0
1051.0
1054.0
1055.0
1054.0
1053.0
1053.0
1054.0
1052.0
1060.0
1060.0
1060.0
1057.0
1053.0
1053.0
1049.0
1046.0
1042.0
1038.0
1033.0
1029.0
1022.0
1018.0
1014.0
1009.0
1009.0
1010.0
1007.0
1002.0
996.0
985.0
979.0
975.0
971.0
967.0
964.0
958.0
950.0
945.0
944.0
940.0
942.0
940.0
938.0
934.0
933.0
926.0
928.0
929.0
930.0
931.0
934.0
936.0
937.0
936.0
944.0
952.0
959.0
967.0
969.0
971.0
977.0
977.0
980.0
984.0
985.0
985.0
978.0
969.0
958.0
947.0
934.0
927.0
920.0
913.0
911.0
905.0
903.0
901.0
900.0
902.0
906.0
908.0
907.0
907.0
906.0
902.0
902.0
901.0
906.0
904.0
905.0
903.0
904.0
906.0
907.0
911.0
910.0
910.0
907.0
901.0
902.0
909.0
941.0
987.0
1052.0
1128.0
1211.0
1294.0
1364.0
1405.0
1406.0
1368.0
1300.0
1216.0
1124.0
1041.0
978.0
927.0
886.0
849.0
818.0
799.0
795.0
805.0
826.0
850.0
866.0
873.0
874.0
872.0
865.0
859.0
856.0
855.0
859.0
860.0
862.0
861.0
859.0
856.0
851.0
849.0
846.0
847.0
849.0
850.0
850.0
850.0
850.0
850.0
852.0
854.0
853.0
855.0
855.0
860.0
861.0
863.0
868.0
871.0
875.0
880.0
883.0
885.0
891.0
893.0
905.0
915.0
923.0
931.0
934.0
939.0
942.0
946.0
954.0
961.0
973.0
982.0
990.0
1000.0
1009.0
1012.0
1021.0
1024.0
1033.0
1039.0
1045.0
1046.0
1052.0
1057.0
1064.0
1072.0
1079.0
1086.0
1088.0
1088.0
1089.0
1086.0
1087.0
1088.0
1087.0
1090.0
1090.0
1086.0
1084.0
1078.0
1073.0
1069.0
1066.0
1061.0
1057.0
1053.0
1046.0
1046.0
1041.0
1036.0
1034.0
1031.0
1025.0
1019.0
1015.0
1008.0
1000.0
996.0
995.0
992.0
988.0
982.0
974.0
964.0
958.0
952.0
949.0
946.0
940.0
937.0
937.0
934.0
934.0
935.0
937.0
936.0
937.0
933.0
931.0
931.0
928.0
935.0
940.0
950.0
959.0
967.0
974.0
980.0
986.0
991.0
997.0
1000.0
1003.0
1002.0
1003.0
998.0
996.0
995.0
992.0
984.0
973.0
958.0
946.0
934.0
924.0
921.0
921.0
927.0
928.0
929.0
929.0
927.0
926.0
926.0
924.0
927.0
927.0
931.0
929.0
929.0
929.0
932.0
933.0
932.0
934.0
927.0
928.0
923.0
918.0
915.0
915.0
918.0
929.0
950.0
982.0
1029.0
1086.0
1152.0
1227.0
1301.0
1365.0
1398.0
1397.0
1360.0
1294.0
1210.0
1120.0
1032.0
956.0
899.0
857.0
823.0
794.0
777.0
779.0
793.0
813.0
840.0
859.0
874.0
876.0
878.0
870.0
868.0
863.0
860.0
857.0
857.0
857.0
856.0
860.0
861.0
864.0
863.0
860.0
856.0
853.0
847.0
846.0
850.0
849.0
853.0
858.0
861.0
860.0
858.0
857.0
860.0
862.0
864.0
872.0
878.0
884.0
887.0
893.0
899.0
904.0
908.0
911.0
914.0
917.0
925.0
933.0
945.0
951.0
958.0
963.0
967.0
969.0
976.0
979.0
988.0
996.0
1001.0
1008.0
1012.0
1020.0
1032.0
1042.0
1052.0
1059.0
1061.0
1062.0
1064.0
1063.0
1064.0
1069.0
1073.0
1076.0
1078.0
1076.0
1077.0
1076.0
1071.0
1068.0
1067.0
1062.0
1057.0
1052.0
1048.0
1046.0
1044.0
1046.0
1044.0
1040.0
1028.0
1021.0
1009.0
1003.0
998.0
994.0
994.0
990.0
982.0
979.0
975.0
970.0
965.0
962.0
956.0
951.0
945.0
941.0
935.0
935.0
935.0
934.0
934.0
935.0
932.0
932.0
931.0
931.0
931.0
933.0
935.0
936.0
937.0
942.0
945.0
951.0
959.0
965.0
974.0
982.0
985.0
989.0
993.0
997.0
1002.0
1004.0
1003.0
996.0
987.0
976.0
965.0
954.0
942.0
936.0
927.0
925.0
922.0
921.0
922.0
924.0
923.0
921.0
917.0
913.0
914.0
914.0
917.0
919.0
921.0
925.0
922.0
920.0
918.0
914.0
915.0
911.0
909.0
908.0
903.0
899.0
904.0
921.0
951.0
995.0
1050.0
1115.0
1187.0
1267.0
1338.0
1382.0
1386.0
1347.0
1275.0
1179.0
1072.0
974.0
886.0
817.0
765.0
738.0
735.0
750.0
774.0
803.0
825.0
845.0
853.0
852.0
844.0
835.0
828.0
822.0
820.0
823.0
824.0
825.0
824.0
825.0
822.0
820.0
817.0
816.0
815.0
811.0
810.0
808.0
805.0
801.0
807.0
810.0
813.0
813.0
811.0
808.0
806.0
808.0
812.0
813.0
818.0
823.0
827.0
827.0
830.0
833.0
837.0
842.0
848.0
855.0
858.0
861.0
869.0
874.0
882.0
892.0
899.0
905.0
910.0
913.0
914.0
920.0
925.0
935.0
944.0
955.0
966.0
973.0
979.0
984.0
990.0
997.0
1000.0
1008.0
1012.0
1017.0
1017.0
1021.0
1020.0
1023.0
1025.0
1028.0
1029.0
1029.0
1024.0
1022.0
1020.0
1017.0
1017.0
1015.0
1012.0
1009.0
1003.0
997.0
992.0
987.0
982.0
977.0
973.0
968.0
963.0
958.0
953.0
948.0
944.0
940.0
936.0
929.0
924.0
917.0
911.0
909.0
909.0
907.0
908.0
908.0
906.0
904.0
902.0
897.0
895.0
895.0
894.0
896.0
900.0
903.0
905.0
915.0
921.0
934.0
940.0
946.0
948.0
948.0
951.0
952.0
957.0
961.0
965.0
964.0
960.0
950.0
940.0
924.0
915.0
904.0
896.0
889.0
885.0
883.0
885.0
886.0
890.0
894.0
893.0
895.0
892.0
884.0
883.0
881.0
877.0
883.0
886.0
890.0
893.0
890.0
890.0
889.0
887.0
888.0
888.0
889.0
889.0
886.0
883.0
882.0
883.0
895.0
923.0
967.0
1024.0
1091.0
1169.0
1252.0
1326.0
1377.0
1392.0
1361.0
1301.0
1219.0
1128.0
1037.0
961.0
895.0
840.0
799.0
770.0
755.0
760.0
778.0
803.0
829.0
845.0
851.0
849.0
839.0
831.0
824.0
821.0
822.0
823.0
827.0
826.0
826.0
822.0
817.0
809.0
809.0
808.0
810.0
810.0
810.0
810.0
809.0
809.0
810.0
811.0
811.0
809.0
810.0
809.0
811.0
815.0
819.0
825.0
831.0
835.0
838.0
841.0
845.0
849.0
856.0
862.0
867.0
874.0
880.0
885.0
890.0
900.0
907.0
917.0
924.0
930.0
935.0
940.0
949.0
960.0
970.0
978.0
989.0
997.0
1003.0
1006.0
1011.0
1016.0
1022.0
1027.0
1033.0
1037.0
1037.0
1038.0
1040.0
1040.0
1044.0
1043.0
1043.0
1041.0
1035.0
1031.0
1027.0
1027.0
1024.0
1024.0
1020.0
1016.0
1009.0
1002.0
994.0
990.0
986.0
981.0
976.0
973.0
970.0
964.0
963.0
958.0
953.0
949.0
942.0
936.0
928.0
922.0
919.0
918.0
918.0
917.0
916.0
914.0
911.0
908.0
906.0
905.0
906.0
904.0
902.0
901.0
902.0
906.0
914.0
923.0
932.0
943.0
946.0
947.0
950.0
954.0
956.0
961.0
966.0
972.0
973.0
969.0
962.0
955.0
944.0
933.0
924.0
914.0
907.0
901.0
895.0
891.0
892.0
894.0
898.0
898.0
896.0
895.0
896.0
894.0
896.0
898.0
901.0
904.0
903.0
904.0
904.0
903.0
903.0
903.0
903.0
903.0
903.0
904.0
898.0
896.0
895.0
903.0
917.0
943.0
980.0
1026.0
1075.0
1126.0
1182.0
1248.0
1315.0
1366.0
1379.0
1353.0
1289.0
1204.0
1104.0
1010.0
928.0
866.0
820.0
789.0
771.0
768.0
778.0
792.0
813.0
831.0
847.0
857.0
860.0
859.0
854.0
847.0
843.0
845.0
845.0
847.0
846.0
844.0
841.0
837.0
836.0
837.0
836.0
838.0
842.0
842.0
839.0
838.0
836.0
836.0
835.0
837.0
839.0
840.0
843.0
842.0
844.0
846.0
851.0
858.0
863.0
867.0
866.0
866.0
865.0
868.0
873.0
881.0
889.0
896.0
903.0
907.0
909.0
913.0
917.0
922.0
934.0
941.0
947.0
953.0
961.0
962.0
969.0
977.0
986.0
996.0
1002.0
1007.0
1010.0
1013.0
1018.0
1028.0
1037.0
1045.0
1053.0
1058.0
1060.0
1060.0
1060.0
1059.0
1058.0
1060.0
1064.0
1065.0
1065.0
1063.0
1061.0
1057.0
1056.0
1054.0
1051.0
1046.0
1039.0
1033.0
1023.0
1020.0
1018.0
1016.0
1017.0
1015.0
1012.0
1006.0
999.0
989.0
983.0
979.0
978.0
976.0
971.0
967.0
963.0
956.0
948.0
944.0
942.0
935.0
933.0
927.0
922.0
915.0
913.0
912.0
915.0
915.0
917.0
915.0
914.0
908.0
906.0
906.0
908.0
912.0
919.0
926.0
932.0
940.0
947.0
953.0
956.0
962.0
966.0
970.0
972.0
975.0
976.0
978.0
975.0
974.0
972.0
963.0
952.0
939.0
929.0
920.0
912.0
914.0
914.0
914.0
912.0
914.0
911.0
910.0
909.0
909.0
909.0
909.0
911.0
910.0
910.0
911.0
913.0
916.0
919.0
919.0
919.0
916.0
914.0
908.0
907.0
904.0
906.0
911.0
926.0
958.0
1006.0
1068.0
1144.0
1228.0
1308.0
1379.0
1424.0
1428.0
1394.0
1327.0
1238.0
1134.0
1030.0
940.0
863.0
804.0
766.0
753.0
762.0
787.0
815.0
839.0
856.0
864.0
867.0
862.0
855.0
848.0
841.0
840.0
837.0
837.0
835.0
836.0
838.0
838.0
837.0
832.0
829.0
828.0
828.0
828.0
828.0
829.0
829.0
827.0
828.0
829.0
831.0
833.0
832.0
833.0
835.0
836.0
838.0
841.0
846.0
850.0
858.0
862.0
864.0
867.0
868.0
870.0
874.0
880.0
887.0
894.0
902.0
906.0
911.0
917.0
927.0
932.0
939.0
944.0
950.0
951.0
955.0
962.0
972.0
982.0
991.0
1000.0
1004.0
1008.0
1009.0
1015.0
1022.0
1025.0
1029.0
1032.0
1033.0
1033.0
1033.0
1031.0
1031.0
1031.0
1033.0
1032.0
1028.0
1023.0
1019.0
1014.0
1013.0
1010.0
1008.0
1004.0
994.0
983.0
976.0
971.0
968.0
966.0
963.0
961.0
956.0
949.0
941.0
935.0
930.0
929.0
925.0
919.0
915.0
911.0
907.0
905.0
903.0
908.0
912.0
908.0
907.0
907.0
902.0
899.0
900.0
901.0
905.0
911.0
917.0
925.0
936.0
942.0
949.0
953.0
957.0
959.0
959.0
958.0
958.0
960.0
962.0
963.0
963.0
957.0
946.0
933.0
916.0
904.0
894.0
888.0
885.0
884.0
884.0
885.0
884.0
883.0
881.0
883.0
879.0
881.0
883.0
880.0
879.0
879.0
880.0
883.0
887.0
888.0
891.0
890.0
889.0
888.0
883.0
881.0
879.0
877.0
876.0
878.0
887.0
899.0
934.0
978.0
1037.0
1107.0
1185.0
1269.0
1344.0
1399.0
1420.0
1407.0
1356.0
1285.0
1196.0
1105.0
1018.0
941.0
871.0
814.0
773.0
753.0
753.0
770.0
799.0
825.0
841.0
849.0
849.0
842.0
834.0
827.0
821.0
819.0
817.0
818.0
818.0
821.0
822.0
819.0
817.0
812.0
808.0
804.0
802.0
804.0
808.0
808.0
810.0
808.0
802.0
801.0
797.0
798.0
800.0
803.0
803.0
805.0
808.0
807.0
813.0
817.0
821.0
829.0
832.0
831.0
830.0
832.0
833.0
838.0
845.0
855.0
864.0
869.0
876.0
881.0
886.0
891.0
898.0
905.0
914.0
924.0
932.0
937.0
944.0
950.0
954.0
963.0
973.0
980.0
987.0
988.0
998.0
1005.0
1010.0
1022.0
1029.0
1035.0
1038.0
1039.0
1040.0
1036.0
1033.0
1032.0
1035.0
1035.0
1038.0
1037.0
1034.0
1030.0
1027.0
1023.0
1021.0
1017.0
1013.0
1007.0
998.0
994.0
988.0
986.0
983.0
984.0
982.0
976.0
968.0
962.0
957.0
949.0
944.0
943.0
940.0
940.0
936.0
927.0
926.0
921.0
918.0
917.0
914.0
913.0
910.0
907.0
905.0
901.0
901.0
901.0
905.0
908.0
911.0
913.0
918.0
923.0
929.0
937.0
944.0
950.0
956.0
960.0
963.0
966.0
969.0
968.0
967.0
967.0
961.0
955.0
946.0
936.0
929.0
922.0
914.0
907.0
901.0
893.0
888.0
887.0
886.0
891.0
896.0
899.0
899.0
899.0
897.0
894.0
891.0
892.0
897.0
897.0
897.0
897.0
898.0
899.0
900.0
902.0
904.0
905.0
901.0
898.0
895.0
900.0
923.0
961.0
1016.0
1079.0
1155.0
1237.0
1317.0
1383.0
1420.0
1420.0
1379.0
1308.0
1223.0
1130.0
1039.0
960.0
899.0
849.0
814.0
788.0
779.0
779.0
791.0
812.0
834.0
854.0
866.0
871.0
869.0
864.0
858.0
854.0
846.0
844.0
842.0
840.0
844.0
844.0
844.0
843.0
840.0
842.0
842.0
841.0
841.0
841.0
840.0
836.0
834.0
837.0
839.0
843.0
848.0
851.0
851.0
852.0
849.0
853.0
858.0
863.0
869.0
875.0
880.0
886.0
887.0
890.0
893.0
899.0
905.0
908.0
913.0
918.0
924.0
930.0
938.0
947.0
958.0
967.0
973.0
974.0
978.0
984.0
989.0
996.0
1005.0
1016.0
1026.0
1030.0
1031.0
1035.0
1042.0
1046.0
1051.0
1055.0
1059.0
1060.0
1062.0
1059.0
1060.0
1063.0
1063.0
1066.0
1066.0
1066.0
1057.0
1051.0
1044.0
1041.0
1038.0
1036.0
1036.0
1034.0
1031.0
1028.0
1023.0
1017.0
1011.0
1006.0
998.0
994.0
989.0
982.0
980.0
977.0
976.0
973.0
969.0
965.0
957.0
949.0
947.0
939.0
934.0
931.0
926.0
923.0
925.0
924.0
919.0
915.0
913.0
913.0
912.0
911.0
911.0
908.0
909.0
907.0
907.0
909.0
915.0
922.0
930.0
937.0
943.0
946.0
949.0
955.0
962.0
967.0
972.0
977.0
979.0
979.0
977.0
978.0
972.0
970.0
966.0
962.0
958.0
946.0
933.0
924.0
917.0
908.0
905.0
906.0
907.0
908.0
905.0
904.0
904.0
908.0
907.0
910.0
911.0
910.0
909.0
907.0
905.0
905.0
906.0
910.0
911.0
913.0
913.0
912.0
910.0
907.0
905.0
902.0
902.0
908.0
924.0
956.0
1000.0
1050.0
1105.0
1174.0
1247.0
1319.0
1379.0
1411.0
1403.0
1356.0
1278.0
1190.0
1098.0
1013.0
937.0
870.0
811.0
769.0
747.0
742.0
755.0
779.0
806.0
831.0
846.0
852.0
853.0
850.0
844.0
843.0
844.0
840.0
839.0
835.0
832.0
837.0
839.0
840.0
841.0
841.0
839.0
832.0
830.0
830.0
831.0
834.0
834.0
838.0
838.0
838.0
838.0
839.0
840.0
843.0
844.0
846.0
849.0
849.0
849.0
851.0
854.0
860.0
864.0
870.0
875.0
881.0
882.0
882.0
886.0
893.0
898.0
907.0
915.0
920.0
926.0
932.0
936.0
943.0
946.0
949.0
955.0
962.0
966.0
973.0
982.0
990.0
999.0
1009.0
1014.0
1018.0
1022.0
1025.0
1027.0
1032.0
1036.0
1039.0
1039.0
1041.0
1040.0
1039.0
1038.0
1040.0
1037.0
1036.0
1031.0
1027.0
1021.0
1015.0
1013.0
1009.0
1007.0
1007.0
1001.0
996.0
989.0
981.0
974.0
971.0
967.0
960.0
954.0
952.0
945.0
941.0
937.0
934.0
929.0
924.0
918.0
910.0
905.0
905.0
906.0
908.0
907.0
907.0
904.0
903.0
900.0
898.0
898.0
901.0
902.0
909.0
915.0
921.0
928.0
937.0
945.0
946.0
952.0
954.0
953.0
954.0
955.0
955.0
957.0
960.0
958.0
952.0
941.0
926.0
913.0
903.0
895.0
887.0
884.0
881.0
880.0
881.0
883.0
884.0
886.0
887.0
887.0
884.0
883.0
878.0
874.0
875.0
875.0
879.0
884.0
884.0
886.0
885.0
881.0
878.0
877.0
872.0
868.0
863.0
864.0
871.0
891.0
925.0
977.0
1043.0
1116.0
1198.0
1278.0
1346.0
1386.0
1385.0
1350.0
1283.0
1196.0
1100.0
1004.0
912.0
839.0
786.0
749.0
735.0
739.0
765.0
795.0
818.0
835.0
841.0
842.0
837.0
829.0
821.0
814.0
810.0
811.0
812.0
816.0
817.0
816.0
815.0
811.0
810.0
805.0
800.0
799.0
798.0
798.0
801.0
802.0
801.0
800.0
801.0
799.0
801.0
801.0
805.0
803.0
802.0
804.0
806.0
808.0
815.0
819.0
825.0
830.0
833.0
835.0
841.0
845.0
850.0
856.0
862.0
870.0
876.0
882.0
889.0
897.0
905.0
912.0
917.0
924.0
927.0
935.0
943.0
956.0
966.0
975.0
984.0
989.0
995.0
1000.0
1007.0
1009.0
1014.0
1018.0
1022.0
1027.0
1026.0
1027.0
1029.0
1034.0
1037.0
1033.0
1029.0
1024.0
1021.0
1019.0
1018.0
1018.0
1018.0
1017.0
1011.0
1007.0
1003.0
996.0
991.0
987.0
982.0
980.0
977.0
975.0
968.0
965.0
957.0
954.0
953.0
947.0
942.0
937.0
931.0
926.0
924.0
921.0
926.0
925.0
925.0
924.0
919.0
918.0
915.0
914.0
916.0
918.0
922.0
927.0
931.0
939.0
943.0
951.0
954.0
958.0
963.0
962.0
965.0
965.0
967.0
970.0
972.0
972.0
970.0
966.0
952.0
937.0
924.0
913.0
907.0
901.0
896.0
899.0
899.0
896.0
895.0
898.0
900.0
900.0
898.0
895.0
894.0
891.0
888.0
893.0
894.0
898.0
901.0
902.0
902.0
898.0
896.0
894.0
893.0
893.0
896.0
895.0
896.0
897.0
908.0
931.0
971.0
1025.0
1093.0
1172.0
1259.0
1339.0
1400.0
1425.0
1411.0
1364.0
1295.0
1215.0
1130.0
1055.0
989.0
929.0
876.0
833.0
802.0
793.0
802.0
824.0
848.0
862.0
871.0
869.0
863.0
851.0
846.0
839.0
838.0
837.0
836.0
838.0
839.0
841.0
837.0
833.0
829.0
825.0
821.0
817.0
823.0
822.0
824.0
825.0
825.0
824.0
823.0
824.0
823.0
824.0
823.0
821.0
825.0
825.0
828.0
831.0
838.0
844.0
846.0
849.0
851.0
855.0
858.0
864.0
873.0
879.0
887.0
893.0
894.0
901.0
909.0
915.0
922.0
933.0
942.0
947.0
955.0
963.0
976.0
985.0
996.0
1003.0
1010.0
1013.0
1011.0
1019.0
1027.0
1034.0
1041.0
1047.0
1052.0
1055.0
1057.0
1058.0
1055.0
1056.0
1056.0
1055.0
1055.0
1051.0
1050.0
1049.0
1048.0
1046.0
1045.0
1042.0
1034.0
1029.0
1023.0
1016.0
1015.0
1013.0
1009.0
1004.0
1000.0
996.0
994.0
990.0
986.0
980.0
975.0
970.0
962.0
956.0
953.0
948.0
948.0
948.0
947.0
944.0
938.0
936.0
930.0
929.0
929.0
928.0
934.0
935.0
937.0
941.0
947.0
954.0
960.0
969.0
975.0
977.0
980.0
980.0
983.0
988.0
991.0
999.0
1003.0
1004.0
999.0
991.0
981.0
969.0
958.0
949.0
941.0
933.0
928.0
925.0
924.0
925.0
926.0
927.0
926.0
926.0
925.0
915.0
919.0
914.0
920.0
923.0
925.0
927.0
924.0
921.0
921.0
922.0
923.0
924.0
924.0
922.0
918.0
915.0
918.0
934.0
964.0
1009.0
1071.0
1151.0
1237.0
1326.0
1405.0
1456.0
1474.0
1449.0
1386.0
1303.0
1208.0
1113.0
1021.0
942.0
881.0
836.0
812.0
810.0
827.0
852.0
876.0
895.0
902.0
899.0
891.0
879.0
871.0
867.0
866.0
868.0
868.0
871.0
870.0
866.0
863.0
859.0
854.0
852.0
850.0
853.0
853.0
853.0
850.0
852.0
853.0
852.0
854.0
853.0
855.0
852.0
853.0
854.0
855.0
863.0
868.0
874.0
877.0
881.0
884.0
888.0
892.0
898.0
907.0
912.0
921.0
928.0
932.0
942.0
950.0
957.0
966.0
975.0
985.0
992.0
997.0
1004.0
1014.0
1022.0
1031.0
1036.0
1045.0
1052.0
1060.0
1066.0
1071.0
1078.0
1082.0
1085.0
1088.0
1092.0
1095.0
1098.0
1099.0
1101.0
1104.0
1098.0
1091.0
1089.0
1088.0
1085.0
1084.0
1081.0
1080.0
1078.0
1072.0
1066.0
1060.0
1054.0
1051.0
1050.0
1050.0
1042.0
1039.0
1033.0
1026.0
1020.0
1015.0
1011.0
1011.0
1006.0
1000.0
992.0
983.0
976.0
974.0
968.0
967.0
971.0
967.0
961.0
957.0
950.0
946.0
946.0
949.0
948.0
949.0
950.0
949.0
951.0
952.0
956.0
962.0
967.0
974.0
977.0
980.0
983.0
988.0
995.0
1004.0
1013.0
1016.0
1021.0
1024.0
1024.0
1020.0
1016.0
1009.0
995.0
983.0
971.0
959.0
951.0
947.0
948.0
947.0
949.0
946.0
944.0
941.0
938.0
939.0
941.0
944.0
946.0
951.0
950.0
948.0
946.0
941.0
941.0
942.0
945.0
946.0
950.0
949.0
948.0
948.0
948.0
943.0
941.0
942.0
953.0
980.0
1022.0
1077.0
1147.0
1226.0
1308.0
1381.0
1435.0
1460.0
1438.0
1382.0
1307.0
1224.0
1145.0
1063.0
992.0
930.0
876.0
832.0
806.0
803.0
815.0
835.0
858.0
878.0
890.0
894.0
893.0
892.0
889.0
886.0
887.0
886.0
883.0
877.0
874.0
869.0
867.0
867.0
868.0
867.0
869.0
870.0
872.0
874.0
874.0
874.0
871.0
873.0
872.0
872.0
873.0
875.0
878.0
880.0
883.0
885.0
886.0
889.0
890.0
894.0
899.0
904.0
907.0
913.0
915.0
920.0
924.0
927.0
934.0
940.0
947.0
953.0
956.0
961.0
967.0
975.0
982.0
992.0
1001.0
1007.0
1012.0
1014.0
1017.0
1021.0
1025.0
1036.0
1044.0
1053.0
1059.0
1064.0
1069.0
1073.0
1076.0
1079.0
1082.0
1085.0
1087.0
1088.0
1086.0
1084.0
1086.0
1089.0
1090.0
1089.0
1084.0
1078.0
1071.0
1067.0
1062.0
1057.0
1055.0
1056.0
1054.0
1047.0
1040.0
1035.0
1029.0
1025.0
1021.0
1016.0
1013.0
1008.0
1003.0
998.0
994.0
992.0
988.0
984.0
978.0
974.0
968.0
962.0
958.0
956.0
953.0
955.0
956.0
955.0
952.0
949.0
944.0
942.0
940.0
942.0
943.0
948.0
949.0
951.0
948.0
952.0
952.0
954.0
959.0
963.0
968.0
975.0
979.0
985.0
992.0
997.0
1004.0
1010.0
1015.0
1016.0
1014.0
1013.0
1007.0
1006.0
1004.0
1002.0
993.0
981.0
971.0
961.0
952.0
947.0
947.0
945.0
946.0
944.0
942.0
937.0
935.0
937.0
936.0
938.0
943.0
943.0
940.0
938.0
937.0
937.0
935.0
939.0
944.0
944.0
944.0
944.0
941.0
938.0
935.0
933.0
935.0
945.0
969.0
1010.0
1066.0
1134.0
1213.0
1294.0
1374.0
1436.0
1470.0
1475.0
1437.0
1373.0
1289.0
1200.0
1108.0
1023.0
949.0
885.0
832.0
796.0
783.0
788.0
811.0
836.0
858.0
875.0
884.0
887.0
882.0
879.0
873.0
868.0
864.0
863.0
861.0
859.0
856.0
858.0
858.0
858.0
859.0
859.0
857.0
854.0
854.0
853.0
853.0
853.0
849.0
848.0
850.0
853.0
853.0
856.0
859.0
859.0
863.0
865.0
863.0
867.0
868.0
871.0
876.0
883.0
886.0
890.0
895.0
896.0
902.0
906.0
911.0
916.0
923.0
927.0
930.0
936.0
940.0
947.0
954.0
963.0
970.0
978.0
983.0
988.0
990.0
995.0
1002.0
1013.0
1023.0
1029.0
1035.0
1040.0
1042.0
1048.0
1051.0
1057.0
1060.0
1069.0
1070.0
1074.0
1073.0
1072.0
1075.0
1072.0
1071.0
1072.0
1069.0
1062.0
1057.0
1055.0
1051.0
1050.0
1048.0
1047.0
1044.0
1035.0
1029.0
1023.0
1013.0
1008.0
1005.0
1001.0
997.0
993.0
991.0
986.0
979.0
976.0
971.0
970.0
965.0
959.0
954.0
950.0
947.0
948.0
950.0
955.0
958.0
957.0
956.0
952.0
947.0
948.0
949.0
955.0
961.0
967.0
974.0
979.0
984.0
994.0
1001.0
1006.0
1006.0
1010.0
1012.0
1013.0
1015.0
1016.0
1018.0
1019.0
1018.0
1015.0
1006.0
993.0
977.0
963.0
954.0
946.0
942.0
940.0
941.0
937.0
941.0
938.0
937.0
936.0
936.0
937.0
936.0
934.0
932.0
933.0
934.0
934.0
939.0
939.0
938.0
935.0
934.0
931.0
931.0
931.0
932.0
930.0
929.0
930.0
937.0
960.0
993.0
1042.0
1101.0
1169.0
1244.0
1317.0
1381.0
1433.0
1454.0
1440.0
1391.0
1319.0
1233.0
1140.0
1048.0
966.0
894.0
835.0
802.0
792.0
803.0
827.0
857.0
881.0
894.0
900.0
894.0
888.0
879.0
871.0
869.0
865.0
867.0
868.0
870.0
873.0
871.0
868.0
864.0
857.0
852.0
852.0
852.0
854.0
858.0
859.0
860.0
857.0
855.0
854.0
854.0
853.0
855.0
858.0
857.0
861.0
862.0
864.0
868.0
875.0
880.0
883.0
886.0
887.0
886.0
889.0
895.0
904.0
912.0
922.0
929.0
936.0
941.0
944.0
948.0
954.0
962.0
967.0
974.0
983.0
989.0
998.0
1006.0
1016.0
1024.0
1031.0
1038.0
1046.0
1049.0
1056.0
1063.0
1072.0
1080.0
1085.0
1091.0
1096.0
1096.0
1095.0
1094.0
1092.0
1091.0
1094.0
1094.0
1095.0
1094.0
1091.0
1089.0
1081.0
1077.0
1078.0
1075.0
1070.0
1064.0
1057.0
1050.0
1047.0
1041.0
1037.0
1035.0
1031.0
1025.0
1021.0
1014.0
1008.0
999.0
996.0
991.0
985.0
980.0
975.0
975.0
974.0
973.0
973.0
971.0
969.0
962.0
956.0
957.0
959.0
957.0
956.0
956.0
959.0
962.0
966.0
973.0
981.0
988.0
998.0
1004.0
1012.0
1014.0
1018.0
1022.0
1025.0
1029.0
1024.0
1022.0
1014.0
1008.0
995.0
986.0
977.0
967.0
962.0
956.0
951.0
952.0
951.0
953.0
952.0
951.0
952.0
949.0
949.0
947.0
948.0
950.0
952.0
956.0
954.0
954.0
953.0
951.0
951.0
953.0
952.0
953.0
953.0
952.0
950.0
951.0
960.0
985.0
1024.0
1075.0
1144.0
1223.0
1305.0
1383.0
1442.0
1471.0
1459.0
1402.0
1327.0
1235.0
1141.0
1048.0
970.0
915.0
869.0
836.0
819.0
817.0
827.0
854.0
880.0
901.0
913.0
917.0
909.0
900.0
891.0
886.0
885.0
887.0
889.0
886.0
886.0
883.0
883.0
877.0
875.0
876.0
878.0
882.0
885.0
886.0
886.0
883.0
882.0
882.0
883.0
884.0
884.0
883.0
886.0
889.0
892.0
898.0
906.0
910.0
915.0
917.0
920.0
920.0
925.0
933.0
942.0
951.0
955.0
962.0
963.0
968.0
972.0
979.0
987.0
992.0
1000.0
1008.0
1016.0
1021.0
1026.0
1036.0
1045.0
1053.0
1059.0
1063.0
1068.0
1072.0
1078.0
1087.0
1093.0
1098.0
1105.0
1107.0
1107.0
1109.0
1108.0
1110.0
1112.0
1111.0
1109.0
1109.0
1103.0
1099.0
1098.0
1099.0
1099.0
1096.0
1091.0
1083.0
1078.0
1074.0
1067.0
1065.0
1061.0
1058.0
1056.0
1048.0
1040.0
1034.0
1026.0
1024.0
1022.0
1019.0
1014.0
1014.0
1012.0
1003.0
996.0
990.0
987.0
985.0
984.0
982.0
977.0
971.0
966.0
966.0
965.0
967.0
971.0
974.0
975.0
972.0
969.0
967.0
965.0
964.0
965.0
969.0
971.0
979.0
984.0
989.0
999.0
1010.0
1017.0
1019.0
1021.0
1023.0
1023.0
1026.0
1031.0
1035.0
1035.0
1037.0
1033.0
1022.0
1010.0
1000.0
988.0
977.0
968.0
964.0
964.0
962.0
963.0
965.0
963.0
964.0
962.0
962.0
960.0
954.0
954.0
954.0
955.0
959.0
964.0
964.0
965.0
962.0
960.0
958.0
957.0
957.0
957.0
957.0
956.0
953.0
954.0
958.0
975.0
1006.0
1057.0
1116.0
1186.0
1263.0
1344.0
1411.0
1464.0
