# Simple Text Format
# Sampling Rate (Hz):= 360.00
# Resolution:= 12
# Labels:= ECG
1037.0
1039.0
1037.0
1040.0
1038.0
1038.0
1034.0
1034.0
1033.0
1031.0
1033.0
1031.0
1028.0
1023.0
1017.0
1008.0
1003.0
996.0
994.0
992.0
990.0
984.0
975.0
969.0
964.0
959.0
956.0
953.0
949.0
942.0
936.0
932.0
931.0
931.0
932.0
931.0
928.0
928.0
924.0
921.0
919.0
919.0
919.0
921.0
922.0
926.0
930.0
936.0
946.0
952.0
959.0
963.0
964.0
965.0
967.0
972.0
977.0
978.0
979.0
974.0
963.0
951.0
937.0
925.0
914.0
906.0
898.0
893.0
891.0
892.0
893.0
894.0
897.0
899.0
897.0
896.0
893.0
890.0
888.0
889.0
891.0
893.0
896.0
897.0
896.0
896.0
894.0
889.0
888.0
888.0
886.0
885.0
880.0
880.0
881.0
888.0
908.0
941.0
989.0
1045.0
1115.0
1195.0
1278.0
1352.0
1404.0
1418.0
1393.0
1337.0
1268.0
1184.0
1100.0
1027.0
962.0
907.0
853.0
812.0
787.0
780.0
788.0
810.0
835.0
854.0
865.0
863.0
862.0
852.0
845.0
838.0
836.0
836.0
838.0
841.0
842.0
839.0
837.0
830.0
827.0
823.0
822.0
823.0
824.0
825.0
824.0
823.0
819.0
820.0
818.0
819.0
819.0
817.0
819.0
816.0
816.0
818.0
822.0
822.0
826.0
828.0
831.0
832.0
833.0
834.0
840.0
848.0
856.0
864.0
873.0
877.0
884.0
890.0
893.0
897.0
904.0
914.0
923.0
932.0
939.0
949.0
960.0
971.0
983.0
991.0
999.0
1007.0
1011.0
1016.0
1024.0
1034.0
1043.0
1048.0
1052.0
1055.0
1055.0
1057.0
1057.0
1062.0
1064.0
1064.0
1059.0
1062.0
1059.0
1057.0
1057.0
1059.0
1058.0
1054.0
1050.0
1045.0
1039.0
1037.0
1033.0
1032.0
1032.0
1030.0
1027.0
1022.0
1018.0
1009.0
1003.0
999.0
994.0
991.0
984.0
978.0
973.0
969.0
970.0
968.0
970.0
966.0
963.0
957.0
953.0
949.0
947.0
950.0
953.0
954.0
954.0
955.0
954.0
957.0
961.0
970.0
975.0
981.0
985.0
986.0
987.0
990.0
993.0
1000.0
1001.0
1003.0
999.0
991.0
982.0
969.0
957.0
946.0
935.0
927.0
919.0
913.0
914.0
914.0
915.0
915.0
914.0
911.0
907.0
906.0
907.0
908.0
913.0
917.0
916.0
918.0
915.0
912.0
912.0
912.0
910.0
912.0
910.0
907.0
904.0
903.0
906.0
925.0
955.0
1000.0
1060.0
1132.0
1217.0
1301.0
1371.0
1414.0
1412.0
1370.0
1301.0
1217.0
1127.0
1046.0
978.0
924.0
880.0
842.0
813.0
799.0
801.0
819.0
844.0
867.0
882.0
888.0
884.0
875.0
869.0
866.0
864.0
868.0
867.0
866.0
867.0
861.0
860.0
859.0
857.0
857.0
857.0
855.0
853.0
852.0
857.0
855.0
855.0
858.0
860.0
858.0
856.0
852.0
853.0
856.0
859.0
865.0
870.0
875.0
877.0
879.0
884.0
887.0
894.0
901.0
910.0
915.0
920.0
926.0
935.0
941.0
952.0
960.0
970.0
976.0
978.0
983.0
988.0
995.0
1007.0
1018.0
1028.0
1036.0
1045.0
1049.0
1054.0
1058.0
1062.0
1069.0
1075.0
1080.0
1082.0
1088.0
1092.0
1095.0
1096.0
1094.0
1093.0
1093.0
1088.0
1085.0
1082.0
1080.0
1079.0
1078.0
1078.0
1073.0
1067.0
1061.0
1054.0
1049.0
1042.0
1039.0
1035.0
1034.0
1031.0
1023.0
1020.0
1013.0
1011.0
1010.0
1004.0
1000.0
996.0
986.0
981.0
974.0
970.0
967.0
965.0
962.0
959.0
954.0
950.0
945.0
944.0
943.0
942.0
942.0
938.0
936.0
935.0
936.0
937.0
940.0
944.0
948.0
953.0
955.0
960.0
966.0
975.0
983.0
990.0
997.0
1003.0
1006.0
1006.0
1006.0
1007.0
1001.0
999.0
998.0
992.0
983.0
975.0
965.0
953.0
944.0
939.0
934.0
931.0
928.0
926.0
928.0
928.0
928.0
930.0
930.0
932.0
932.0
931.0
929.0
929.0
927.0
925.0
928.0
930.0
931.0
932.0
931.0
931.0
929.0
926.0
926.0
925.0
923.0
930.0
949.0
980.0
1025.0
1074.0
1128.0
1190.0
1256.0
1321.0
1377.0
1414.0
1414.0
1380.0
1317.0
1234.0
1143.0
1055.0
973.0
907.0
851.0
807.0
781.0
774.0
784.0
802.0
826.0
847.0
863.0
871.0
877.0
876.0
872.0
867.0
863.0
860.0
856.0
854.0
854.0
855.0
856.0
859.0
859.0
855.0
852.0
847.0
845.0
844.0
847.0
847.0
849.0
848.0
846.0
848.0
850.0
851.0
850.0
854.0
856.0
857.0
857.0
859.0
863.0
871.0
877.0
880.0
889.0
892.0
894.0
896.0
900.0
905.0
911.0
916.0
926.0
936.0
942.0
947.0
954.0
957.0
963.0
970.0
977.0
980.0
987.0
992.0
1001.0
1011.0
1019.0
1028.0
1037.0
1042.0
1047.0
1050.0
1049.0
1056.0
1061.0
1064.0
1069.0
1072.0
1075.0
1074.0
1073.0
1075.0
1079.0
1078.0
1077.0
1073.0
1067.0
1062.0
1059.0
1055.0
1056.0
1055.0
1053.0
1047.0
1043.0
1036.0
1028.0
1021.0
1016.0
1015.0
1012.0
1007.0
997.0
996.0
989.0
984.0
981.0
976.0
970.0
965.0
960.0
957.0
954.0
952.0
952.0
950.0
950.0
946.0
945.0
942.0
940.0
943.0
945.0
943.0
946.0
949.0
950.0
953.0
959.0
965.0
973.0
981.0
984.0
987.0
991.0
993.0
999.0
1005.0
1011.0
1014.0
1012.0
1008.0
1001.0
991.0
978.0
969.0
958.0
947.0
936.0
932.0
929.0
926.0
928.0
927.0
931.0
932.0
930.0
925.0
924.0
921.0
921.0
925.0
926.0
930.0
927.0
928.0
920.0
919.0
920.0
921.0
922.0
924.0
924.0
921.0
916.0
914.0
916.0
924.0
946.0
979.0
1028.0
1083.0
1151.0
1225.0
1305.0
1373.0
1418.0
1428.0
1399.0
1340.0
1266.0
1187.0
1107.0
1031.0
958.0
894.0
840.0
794.0
771.0
771.0
789.0
817.0
844.0
865.0
873.0
874.0
863.0
853.0
845.0
841.0
843.0
847.0
848.0
850.0
850.0
845.0
841.0
838.0
834.0
831.0
830.0
833.0
832.0
834.0
834.0
832.0
835.0
835.0
835.0
832.0
827.0
824.0
825.0
827.0
832.0
836.0
841.0
843.0
845.0
847.0
849.0
851.0
856.0
862.0
869.0
874.0
879.0
886.0
891.0
898.0
902.0
910.0
918.0
923.0
928.0
936.0
944.0
955.0
964.0
975.0
985.0
994.0
998.0
1006.0
1009.0
1017.0
1024.0
1028.0
1034.0
1039.0
1043.0
1046.0
1051.0
1055.0
1059.0
1059.0
1060.0
1059.0
1057.0
1052.0
1051.0
1052.0
1053.0
1053.0
1053.0
1048.0
1040.0
1036.0
1032.0
1027.0
1023.0
1020.0
1017.0
1013.0
1009.0
1004.0
1001.0
997.0
994.0
989.0
985.0
980.0
973.0
965.0
960.0
956.0
954.0
954.0
952.0
952.0
951.0
945.0
940.0
934.0
932.0
932.0
932.0
934.0
936.0
935.0
934.0
939.0
940.0
947.0
953.0
958.0
963.0
967.0
971.0
972.0
974.0
979.0
985.0
990.0
992.0
993.0
991.0
988.0
977.0
970.0
964.0
954.0
945.0
933.0
928.0
920.0
910.0
907.0
905.0
906.0
909.0
909.0
910.0
907.0
903.0
902.0
904.0
906.0
907.0
908.0
908.0
906.0
904.0
901.0
903.0
903.0
906.0
908.0
907.0
905.0
903.0
900.0
894.0
894.0
898.0
912.0
940.0
980.0
1027.0
1089.0
1161.0
1239.0
1314.0
1379.0
1416.0
1415.0
1378.0
1315.0
1240.0
1155.0
1075.0
1010.0
957.0
910.0
866.0
825.0
799.0
791.0
800.0
821.0
846.0
867.0
876.0
873.0
866.0
856.0
849.0
843.0
843.0
842.0
843.0
840.0
840.0
839.0
838.0
838.0
838.0
836.0
837.0
832.0
828.0
825.0
822.0
822.0
820.0
821.0
822.0
824.0
824.0
824.0
824.0
824.0
825.0
827.0
827.0
829.0
829.0
832.0
834.0
839.0
847.0
852.0
858.0
862.0
866.0
870.0
873.0
881.0
889.0
900.0
910.0
919.0
926.0
935.0
941.0
947.0
956.0
966.0
973.0
981.0
988.0
996.0
1006.0
1015.0
1027.0
1035.0
1042.0
1046.0
1049.0
1051.0
1055.0
1059.0
1060.0
1063.0
1066.0
1067.0
1069.0
1068.0
1065.0
1064.0
1062.0
1061.0
1059.0
1054.0
1052.0
1049.0
1044.0
1041.0
1040.0
1037.0
1034.0
1030.0
1024.0
1019.0
1015.0
1011.0
1008.0
1007.0
1004.0
1001.0
997.0
993.0
986.0
980.0
978.0
974.0
970.0
964.0
960.0
959.0
959.0
959.0
962.0
961.0
961.0
959.0
953.0
952.0
951.0
955.0
958.0
968.0
973.0
977.0
982.0
983.0
984.0
987.0
990.0
992.0
996.0
998.0
1000.0
1001.0
999.0
1000.0
996.0
987.0
979.0
965.0
952.0
938.0
930.0
923.0
920.0
920.0
922.0
925.0
925.0
926.0
922.0
922.0
921.0
920.0
920.0
919.0
919.0
920.0
921.0
923.0
927.0
929.0
931.0
930.0
928.0
925.0
922.0
918.0
915.0
914.0
918.0
929.0
946.0
982.0
1030.0
1091.0
1162.0
1243.0
1326.0
1392.0
1430.0
1425.0
1387.0
1327.0
1257.0
1180.0
1109.0
1045.0
984.0
926.0
873.0
836.0
818.0
819.0
837.0
865.0
888.0
901.0
905.0
897.0
891.0
881.0
876.0
874.0
872.0
872.0
872.0
869.0
873.0
869.0
870.0
870.0
868.0
864.0
860.0
857.0
854.0
857.0
857.0
858.0
859.0
859.0
856.0
855.0
851.0
853.0
853.0
855.0
857.0
861.0
861.0
862.0
867.0
869.0
876.0
878.0
884.0
884.0
888.0
891.0
900.0
908.0
918.0
925.0
936.0
946.0
951.0
958.0
965.0
971.0
979.0
985.0
995.0
1002.0
1010.0
1019.0
1027.0
1036.0
1045.0
1051.0
1060.0
1065.0
1070.0
1073.0
1078.0
1083.0
1090.0
1098.0
1100.0
1104.0
1104.0
1100.0
1100.0
1098.0
1095.0
1097.0
1097.0
1099.0
1100.0
1100.0
1096.0
1092.0
1087.0
1085.0
1083.0
1080.0
1078.0
1073.0
1072.0
1067.0
1063.0
1059.0
1057.0
1055.0
1050.0
1046.0
1041.0
1034.0
1028.0
1020.0
1016.0
1014.0
1012.0
1010.0
1005.0
1000.0
998.0
991.0
986.0
987.0
981.0
980.0
978.0
976.0
975.0
976.0
978.0
980.0
984.0
989.0
990.0
993.0
996.0
999.0
1006.0
1012.0
1017.0
1021.0
1026.0
1026.0
1026.0
1027.0
1025.0
1020.0
1014.0
1004.0
991.0
979.0
965.0
956.0
949.0
944.0
944.0
942.0
940.0
938.0
938.0
938.0
939.0
938.0
940.0
939.0
937.0
935.0
932.0
932.0
931.0
930.0
931.0
931.0
931.0
933.0
933.0
935.0
937.0
937.0
933.0
929.0
930.0
937.0
955.0
987.0
1033.0
1083.0
1140.0
1198.0
1260.0
1324.0
1377.0
1410.0
1406.0
1365.0
1291.0
1200.0
1105.0
1017.0
944.0
891.0
852.0
833.0
825.0
833.0
849.0
870.0
890.0
903.0
907.0
902.0
901.0
899.0
896.0
894.0
891.0
889.0
889.0
890.0
887.0
888.0
887.0
885.0
883.0
881.0
881.0
881.0
882.0
882.0
880.0
876.0
873.0
872.0
871.0
875.0
877.0
881.0
886.0
888.0
888.0
892.0
893.0
899.0
905.0
909.0
915.0
919.0
924.0
930.0
940.0
949.0
959.0
967.0
970.0
977.0
984.0
988.0
996.0
1006.0
1015.0
1025.0
1035.0
1045.0
1052.0
1060.0
1067.0
1073.0
1076.0
1081.0
1082.0
1086.0
1093.0
1097.0
1102.0
1107.0
1111.0
1111.0
1109.0
1108.0
1104.0
1100.0
1102.0
1100.0
1100.0
1096.0
1094.0
1089.0
1085.0
1081.0
1079.0
1076.0
1073.0
1068.0
1061.0
1056.0
1051.0
1047.0
1043.0
1041.0
1036.0
1030.0
1019.0
1016.0
1012.0
1007.0
1001.0
996.0
992.0
987.0
983.0
972.0
970.0
961.0
960.0
958.0
958.0
955.0
954.0
955.0
955.0
957.0
959.0
957.0
954.0
952.0
948.0
947.0
948.0
955.0
961.0
971.0
979.0
986.0
994.0
1001.0
1005.0
1012.0
1017.0
1019.0
1019.0
1017.0
1012.0
1007.0
1001.0
991.0
982.0
972.0
962.0
952.0
943.0
934.0
929.0
928.0
931.0
933.0
934.0
935.0
935.0
935.0
933.0
936.0
938.0
938.0
936.0
933.0
930.0
929.0
930.0
934.0
937.0
939.0
936.0
934.0
930.0
926.0
922.0
925.0
934.0
960.0
995.0
1044.0
1105.0
1176.0
1255.0
1328.0
1393.0
1432.0
1435.0
1401.0
1332.0
1241.0
1140.0
1048.0
965.0
894.0
839.0
798.0
777.0
774.0
790.0
815.0
839.0
864.0
873.0
875.0
873.0
868.0
863.0
859.0
857.0
855.0
856.0
852.0
851.0
848.0
851.0
852.0
855.0
855.0
855.0
855.0
851.0
849.0
848.0
846.0
846.0
849.0
850.0
851.0
853.0
855.0
859.0
862.0
863.0
864.0
865.0
863.0
866.0
872.0
877.0
885.0
892.0
900.0
905.0
904.0
908.0
910.0
914.0
919.0
928.0
937.0
946.0
953.0
962.0
968.0
972.0
978.0
987.0
991.0
997.0
1003.0
1009.0
1016.0
1023.0
1031.0
1040.0
1044.0
1051.0
1055.0
1057.0
1057.0
1059.0
1061.0
1065.0
1070.0
1076.0
1075.0
1075.0
1077.0
1072.0
1073.0
1068.0
1065.0
1062.0
1057.0
1053.0
1049.0
1048.0
1044.0
1043.0
1042.0
1039.0
1031.0
1024.0
1018.0
1009.0
1005.0
1001.0
997.0
994.0
990.0
985.0
982.0
974.0
969.0
963.0
961.0
959.0
956.0
953.0
951.0
945.0
945.0
945.0
943.0
944.0
946.0
945.0
943.0
941.0
938.0
938.0
939.0
942.0
947.0
952.0
956.0
962.0
965.0
970.0
976.0
980.0
983.0
990.0
993.0
999.0
1003.0
1007.0
1010.0
1011.0
1007.0
1004.0
997.0
985.0
973.0
960.0
953.0
947.0
943.0
937.0
935.0
930.0
927.0
924.0
923.0
922.0
922.0
924.0
921.0
922.0
922.0
921.0
920.0
921.0
923.0
921.0
926.0
923.0
921.0
917.0
921.0
920.0
920.0
921.0
920.0
916.0
913.0
915.0
931.0
960.0
1005.0
1063.0
1132.0
1204.0
1280.0
1352.0
1398.0
1413.0
1388.0
1329.0
1242.0
1151.0
1056.0
971.0
901.0
841.0
799.0
775.0
772.0
785.0
808.0
831.0
850.0
862.0
863.0
862.0
856.0
851.0
844.0
842.0
842.0
842.0
846.0
845.0
844.0
836.0
832.0
827.0
825.0
825.0
827.0
829.0
828.0
830.0
827.0
822.0
821.0
821.0
825.0
825.0
824.0
826.0
830.0
834.0
837.0
837.0
841.0
843.0
846.0
851.0
854.0
861.0
867.0
874.0
882.0
891.0
897.0
902.0
910.0
916.0
924.0
931.0
937.0
945.0
949.0
956.0
961.0
970.0
981.0
991.0
1000.0
1010.0
1015.0
1020.0
1026.0
1030.0
1040.0
1049.0
1056.0
1059.0
1059.0
1063.0
1062.0
1060.0
1065.0
1067.0
1068.0
1067.0
1066.0
1066.0
1063.0
1060.0
1060.0
1055.0
1052.0
1047.0
1040.0
1032.0
1025.0
1020.0
1016.0
1015.0
1014.0
1009.0
1003.0
997.0
992.0
986.0
981.0
977.0
969.0
962.0
958.0
954.0
952.0
954.0
955.0
955.0
951.0
946.0
944.0
942.0
939.0
938.0
942.0
945.0
950.0
954.0
958.0
963.0
970.0
978.0
984.0
987.0
988.0
993.0
997.0
1000.0
1003.0
1004.0
1004.0
1001.0
992.0
980.0
965.0
952.0
934.0
929.0
921.0
916.0
912.0
910.0
910.0
911.0
914.0
913.0
914.0
912.0
907.0
905.0
905.0
903.0
905.0
910.0
913.0
914.0
911.0
910.0
909.0
907.0
904.0
903.0
902.0
900.0
896.0
898.0
911.0
937.0
977.0
1032.0
1093.0
1163.0
1241.0
1317.0
1377.0
1410.0
1402.0
1355.0
1279.0
1189.0
1091.0
998.0
916.0
850.0
802.0
779.0
781.0
798.0
825.0
852.0
870.0
878.0
877.0
871.0
859.0
852.0
844.0
840.0
840.0
842.0
844.0
843.0
846.0
844.0
839.0
832.0
830.0
829.0
829.0
826.0
826.0
827.0
826.0
825.0
825.0
825.0
826.0
826.0
827.0
826.0
824.0
825.0
827.0
830.0
835.0
841.0
844.0
847.0
847.0
853.0
854.0
860.0
866.0
875.0
882.0
887.0
895.0
900.0
910.0
919.0
927.0
938.0
942.0
951.0
959.0
963.0
970.0
980.0
994.0
1004.0
1012.0
1020.0
1026.0
1030.0
1040.0
1043.0
1051.0
1058.0
1060.0
1063.0
1066.0
1069.0
1069.0
1073.0
1074.0
1073.0
1072.0
1073.0
1067.0
1062.0
1061.0
1061.0
1057.0
1056.0
1053.0
1045.0
1042.0
1038.0
1034.0
1033.0
1030.0
1021.0
1021.0
1014.0
1009.0
1005.0
1004.0
1003.0
1000.0
996.0
988.0
979.0
972.0
966.0
963.0
963.0
964.0
965.0
962.0
960.0
955.0
952.0
951.0
950.0
950.0
950.0
952.0
951.0
949.0
956.0
961.0
967.0
976.0
985.0
991.0
995.0
997.0
1001.0
1006.0
1006.0
1008.0
1011.0
1012.0
1014.0
1011.0
999.0
990.0
979.0
968.0
957.0
947.0
938.0
935.0
932.0
933.0
930.0
933.0
931.0
932.0
930.0
929.0
927.0
929.0
929.0
931.0
934.0
935.0
934.0
933.0
927.0
925.0
924.0
924.0
925.0
925.0
924.0
923.0
923.0
924.0
938.0
966.0
1004.0
1054.0
1111.0
1180.0
1249.0
1319.0
1373.0
1406.0
1404.0
1361.0
1286.0
1194.0
1096.0
1003.0
927.0
867.0
822.0
795.0
784.0
788.0
806.0
835.0
856.0
873.0
881.0
879.0
873.0
865.0
858.0
855.0
855.0
857.0
858.0
858.0
861.0
856.0
850.0
846.0
843.0
844.0
844.0
844.0
845.0
844.0
846.0
842.0
846.0
846.0
847.0
845.0
846.0
845.0
844.0
847.0
852.0
857.0
862.0
865.0
872.0
871.0
875.0
876.0
878.0
884.0
894.0
904.0
910.0
916.0
923.0
929.0
937.0
942.0
949.0
956.0
961.0
965.0
970.0
977.0
987.0
994.0
1002.0
1015.0
1022.0
1027.0
1033.0
1034.0
1036.0
1042.0
1047.0
1056.0
1063.0
1067.0
1071.0
1072.0
1072.0
1074.0
1074.0
1078.0
1074.0
1071.0
1070.0
1071.0
1067.0
1064.0
1063.0
1061.0
1058.0
1054.0
1048.0
1041.0
1035.0
1029.0
1026.0
1022.0
1018.0
1011.0
1011.0
1006.0
1003.0
998.0
996.0
993.0
988.0
981.0
973.0
965.0
960.0
956.0
955.0
952.0
951.0
947.0
940.0
935.0
930.0
925.0
926.0
928.0
929.0
933.0
932.0
932.0
929.0
927.0
929.0
929.0
934.0
936.0
941.0
949.0
957.0
962.0
971.0
979.0
985.0
989.0
992.0
993.0
992.0
989.0
989.0
990.0
990.0
983.0
974.0
964.0
956.0
942.0
933.0
926.0
920.0
918.0
915.0
912.0
911.0
911.0
915.0
921.0
923.0
925.0
921.0
920.0
917.0
916.0
914.0
916.0
919.0
921.0
922.0
923.0
924.0
921.0
919.0
914.0
912.0
910.0
912.0
926.0
952.0
994.0
1051.0
1120.0
1194.0
1276.0
1347.0
1402.0
1433.0
1435.0
1405.0
1343.0
1267.0
1179.0
1090.0
1002.0
923.0
854.0
802.0
769.0
762.0
774.0
797.0
822.0
845.0
862.0
868.0
865.0
864.0
858.0
853.0
849.0
842.0
840.0
839.0
838.0
841.0
843.0
844.0
844.0
841.0
837.0
834.0
832.0
829.0
831.0
831.0
830.0
830.0
832.0
832.0
835.0
838.0
841.0
841.0
842.0
841.0
840.0
840.0
843.0
846.0
852.0
859.0
866.0
869.0
872.0
877.0
880.0
882.0
888.0
892.0
900.0
909.0
913.0
916.0
921.0
928.0
933.0
941.0
948.0
954.0
957.0
962.0
970.0
976.0
985.0
999.0
1006.0
1014.0
1022.0
1022.0
1023.0
1026.0
1032.0
1035.0
1042.0
1047.0
1050.0
1049.0
1054.0
1055.0
1057.0
1056.0
1054.0
1052.0
1051.0
1048.0
1043.0
1040.0
1037.0
1038.0
1036.0
1032.0
1030.0
1024.0
1019.0
1012.0
1006.0
999.0
995.0
993.0
990.0
987.0
981.0
975.0
970.0
964.0
960.0
956.0
952.0
948.0
948.0
943.0
938.0
934.0
932.0
930.0
930.0
928.0
927.0
923.0
921.0
918.0
920.0
922.0
922.0
927.0
930.0
933.0
939.0
944.0
949.0
955.0
962.0
966.0
971.0
977.0
980.0
982.0
985.0
987.0
987.0
988.0
986.0
982.0
973.0
961.0
951.0
937.0
926.0
922.0
915.0
911.0
905.0
904.0
901.0
903.0
903.0
902.0
904.0
906.0
903.0
902.0
901.0
902.0
901.0
904.0
903.0
900.0
898.0
892.0
894.0
893.0
895.0
895.0
893.0
891.0
885.0
884.0
890.0
906.0
936.0
983.0
1042.0
1116.0
1196.0
1278.0
1350.0
1397.0
1402.0
1370.0
1303.0
1216.0
1121.0
1028.0
943.0
872.0
814.0
775.0
755.0
753.0
766.0
786.0
807.0
831.0
841.0
846.0
848.0
845.0
840.0
835.0
833.0
830.0
830.0
830.0
829.0
827.0
826.0
823.0
821.0
818.0
816.0
814.0
816.0
818.0
818.0
814.0
813.0
810.0
803.0
803.0
806.0
809.0
814.0
815.0
818.0
817.0
818.0
820.0
822.0
826.0
828.0
832.0
835.0
839.0
844.0
851.0
858.0
867.0
874.0
879.0
883.0
887.0
893.0
901.0
912.0
922.0
931.0
935.0
945.0
951.0
959.0
968.0
979.0
988.0
995.0
1002.0
1012.0
1019.0
1027.0
1035.0
1043.0
1046.0
1049.0
1050.0
1050.0
1051.0
1050.0
1052.0
1054.0
1056.0
1056.0
1055.0
1050.0
1047.0
1046.0
1041.0
1037.0
1036.0
1029.0
1025.0
1020.0
1017.0
1015.0
1013.0
1011.0
1006.0
999.0
994.0
988.0
983.0
979.0
974.0
971.0
964.0
963.0
960.0
955.0
948.0
945.0
945.0
942.0
942.0
938.0
933.0
933.0
931.0
935.0
935.0
937.0
938.0
938.0
940.0
941.0
944.0
949.0
958.0
965.0
972.0
977.0
981.0
984.0
988.0
989.0
992.0
992.0
986.0
980.0
973.0
963.0
953.0
944.0
936.0
928.0
919.0
911.0
902.0
896.0
895.0
896.0
895.0
897.0
897.0
897.0
899.0
896.0
895.0
897.0
897.0
897.0
898.0
896.0
893.0
894.0
891.0
895.0
896.0
896.0
894.0
890.0
886.0
885.0
892.0
916.0
956.0
1011.0
1079.0
1156.0
1239.0
1320.0
1387.0
1432.0
1447.0
1422.0
1366.0
1283.0
1187.0
1086.0
995.0
914.0
851.0
804.0
778.0
774.0
788.0
812.0
838.0
855.0
863.0
860.0
853.0
846.0
839.0
836.0
834.0
836.0
836.0
836.0
833.0
831.0
824.0
823.0
822.0
822.0
822.0
824.0
828.0
827.0
826.0
824.0
822.0
821.0
821.0
823.0
820.0
826.0
828.0
827.0
831.0
835.0
839.0
845.0
847.0
850.0
848.0
855.0
858.0
867.0
875.0
884.0
891.0
896.0
900.0
903.0
907.0
912.0
919.0
931.0
942.0
953.0
962.0
970.0
979.0
988.0
995.0
1003.0
1010.0
1014.0
1022.0
1025.0
1033.0
1040.0
1046.0
1053.0
1059.0
1061.0
1066.0
1067.0
1067.0
1067.0
1069.0
1072.0
1074.0
1076.0
1074.0
1070.0
1065.0
1059.0
1058.0
1054.0
1051.0
1045.0
1037.0
1033.0
1028.0
1023.0
1021.0
1021.0
1021.0
1019.0
1014.0
1007.0
1000.0
988.0
982.0
980.0
978.0
976.0
968.0
962.0
958.0
948.0
950.0
945.0
945.0
939.0
933.0
927.0
921.0
915.0
916.0
917.0
916.0
921.0
920.0
918.0
917.0
914.0
916.0
920.0
926.0
934.0
942.0
950.0
957.0
962.0
969.0
973.0
977.0
980.0
981.0
981.0
979.0
975.0
970.0
963.0
951.0
939.0
926.0
914.0
903.0
901.0
899.0
901.0
905.0
907.0
907.0
907.0
905.0
904.0
902.0
902.0
900.0
899.0
898.0
898.0
901.0
904.0
906.0
909.0
910.0
908.0
904.0
896.0
889.0
883.0
885.0
891.0
908.0
935.0
973.0
1024.0
1092.0
1171.0
1253.0
1331.0
1388.0
1408.0
1382.0
1316.0
1231.0
1132.0
1034.0
946.0
877.0
818.0
774.0
746.0
736.0
745.0
766.0
791.0
818.0
836.0
850.0
851.0
847.0
843.0
838.0
830.0
831.0
828.0
825.0
826.0
826.0
828.0
828.0
827.0
827.0
825.0
820.0
817.0
819.0
818.0
819.0
819.0
820.0
819.0
821.0
824.0
829.0
833.0
833.0
836.0
837.0
836.0
838.0
842.0
847.0
854.0
863.0
868.0
871.0
875.0
880.0
884.0
890.0
897.0
903.0
910.0
918.0
924.0
935.0
942.0
951.0
962.0
969.0
975.0
978.0
984.0
989.0
994.0
1001.0
1011.0
1022.0
1027.0
1033.0
1040.0
1044.0
1049.0
1051.0
1049.0
1048.0
1046.0
1044.0
1044.0
1043.0
1048.0
1049.0
1043.0
1040.0
1036.0
1027.0
1020.0
1012.0
1007.0
1006.0
1004.0
1002.0
996.0
992.0
987.0
978.0
972.0
968.0
961.0
954.0
951.0
947.0
942.0
940.0
938.0
936.0
934.0
928.0
921.0
915.0
910.0
903.0
901.0
903.0
905.0
908.0
911.0
914.0
915.0
916.0
917.0
916.0
915.0
915.0
919.0
925.0
934.0
947.0
955.0
963.0
968.0
971.0
972.0
973.0
976.0
976.0
977.0
971.0
966.0
958.0
949.0
941.0
929.0
921.0
914.0
908.0
902.0
899.0
899.0
897.0
901.0
897.0
899.0
899.0
902.0
900.0
899.0
899.0
899.0
901.0
900.0
902.0
902.0
903.0
904.0
903.0
903.0
902.0
898.0
892.0
886.0
889.0
902.0
930.0
975.0
1033.0
1108.0
1188.0
1273.0
1350.0
1408.0
1440.0
1434.0
1389.0
1316.0
1227.0
1135.0
1045.0
962.0
888.0
831.0
781.0
753.0
748.0
758.0
777.0
807.0
831.0
846.0
852.0
852.0
843.0
833.0
824.0
818.0
815.0
815.0
816.0
818.0
817.0
814.0
809.0
811.0
811.0
810.0
811.0
809.0
808.0
804.0
802.0
802.0
804.0
806.0
808.0
813.0
814.0
811.0
810.0
807.0
806.0
808.0
810.0
813.0
817.0
818.0
822.0
829.0
831.0
835.0
843.0
848.0
854.0
858.0
859.0
860.0
866.0
874.0
885.0
895.0
906.0
911.0
919.0
923.0
927.0
935.0
942.0
954.0
963.0
972.0
980.0
986.0
991.0
998.0
1006.0
1011.0
1017.0
1023.0
1024.0
1027.0
1030.0
1031.0
1036.0
1040.0
1040.0
1039.0
1037.0
1031.0
1027.0
1024.0
1023.0
1019.0
1018.0
1016.0
1014.0
1010.0
1001.0
997.0
993.0
992.0
988.0
982.0
975.0
967.0
961.0
960.0
955.0
952.0
952.0
949.0
945.0
936.0
928.0
920.0
916.0
918.0
919.0
917.0
916.0
915.0
913.0
910.0
908.0
909.0
910.0
908.0
911.0
912.0
916.0
920.0
930.0
940.0
950.0
953.0
953.0
959.0
961.0
963.0
966.0
967.0
968.0
964.0
960.0
953.0
941.0
932.0
922.0
911.0
903.0
896.0
888.0
884.0
882.0
883.0
884.0
886.0
885.0
887.0
882.0
882.0
882.0
882.0
883.0
884.0
886.0
884.0
885.0
885.0
886.0
887.0
887.0
883.0
879.0
876.0
871.0
870.0
879.0
903.0
944.0
996.0
1064.0
1141.0
1223.0
1308.0
1377.0
1420.0
1431.0
1401.0
1341.0
1258.0
1167.0
1071.0
982.0
900.0
833.0
784.0
760.0
760.0
778.0
807.0
833.0
852.0
855.0
851.0
842.0
831.0
823.0
820.0
818.0
818.0
820.0
817.0
817.0
816.0
813.0
813.0
812.0
814.0
811.0
808.0
802.0
797.0
796.0
798.0
801.0
804.0
804.0
805.0
805.0
806.0
803.0
805.0
810.0
809.0
814.0
816.0
819.0
821.0
828.0
831.0
838.0
845.0
850.0
853.0
856.0
864.0
871.0
877.0
888.0
898.0
906.0
918.0
924.0
934.0
943.0
954.0
963.0
973.0
979.0
985.0
992.0
1000.0
1009.0
1020.0
1026.0
1033.0
1037.0
1038.0
1042.0
1044.0
1048.0
1050.0
1056.0
1057.0
1059.0
1059.0
1056.0
1056.0
1053.0
1049.0
1046.0
1043.0
1043.0
1039.0
1034.0
1031.0
1027.0
1023.0
1021.0
1020.0
1016.0
1009.0
1003.0
997.0
992.0
988.0
988.0
985.0
983.0
978.0
973.0
966.0
961.0
958.0
955.0
950.0
949.0
944.0
943.0
939.0
938.0
939.0
938.0
938.0
935.0
932.0
930.0
926.0
924.0
927.0
934.0
942.0
949.0
958.0
963.0
968.0
971.0
971.0
973.0
978.0
981.0
982.0
984.0
981.0
975.0
972.0
963.0
952.0
940.0
924.0
911.0
900.0
892.0
889.0
889.0
894.0
895.0
897.0
895.0
892.0
891.0
890.0
889.0
891.0
892.0
893.0
891.0
893.0
889.0
892.0
893.0
897.0
899.0
898.0
897.0
893.0
887.0
882.0
882.0
885.0
896.0
916.0
946.0
988.0
1036.0
1091.0
1152.0
1221.0
1295.0
1358.0
1398.0
1397.0
1357.0
1284.0
1194.0
1098.0
1008.0
932.0
876.0
831.0
800.0
782.0
779.0
786.0
803.0
824.0
846.0
859.0
864.0
861.0
854.0
845.0
840.0
837.0
838.0
842.0
840.0
840.0
839.0
834.0
833.0
830.0
831.0
832.0
831.0
828.0
824.0
823.0
823.0
824.0
825.0
825.0
825.0
825.0
825.0
824.0
822.0
824.0
826.0
834.0
839.0
843.0
846.0
849.0
854.0
859.0
861.0
870.0
873.0
875.0
880.0
882.0
889.0
898.0
903.0
910.0
922.0
928.0
937.0
943.0
952.0
960.0
969.0
979.0
985.0
994.0
999.0
1004.0
1011.0
1018.0
1025.0
1032.0
1038.0
1040.0
1046.0
1047.0
1047.0
1048.0
1053.0
1054.0
1053.0
1057.0
1052.0
1050.0
1044.0
1041.0
1037.0
1037.0
1036.0
1033.0
1027.0
1021.0
1014.0
1009.0
1006.0
1002.0
994.0
983.0
986.0
982.0
979.0
977.0
975.0
968.0
961.0
951.0
943.0
937.0
933.0
930.0
928.0
926.0
923.0
918.0
913.0
908.0
905.0
903.0
901.0
900.0
899.0
896.0
895.0
893.0
893.0
894.0
900.0
902.0
906.0
908.0
912.0
918.0
924.0
928.0
939.0
947.0
952.0
958.0
957.0
962.0
962.0
965.0
962.0
954.0
943.0
930.0
919.0
908.0
903.0
900.0
898.0
894.0
891.0
888.0
886.0
889.0
888.0
887.0
886.0
886.0
887.0
