# Simple Text Format
# Sampling Rate (Hz):= 360.00
# Resolution:= 12
# Labels:= ECG
867.0
865.0
866.0
867.0
867.0
864.0
863.0
860.0
858.0
857.0
855.0
854.0
854.0
852.0
853.0
854.0
853.0
856.0
853.0
855.0
851.0
849.0
852.0
855.0
857.0
858.0
863.0
866.0
866.0
870.0
873.0
879.0
883.0
886.0
890.0
895.0
902.0
905.0
913.0
921.0
928.0
935.0
937.0
941.0
945.0
951.0
955.0
966.0
974.0
984.0
994.0
1004.0
1012.0
1017.0
1024.0
1030.0
1040.0
1047.0
1051.0
1059.0
1064.0
1067.0
1074.0
1080.0
1082.0
1083.0
1086.0
1082.0
1079.0
1078.0
1075.0
1075.0
1074.0
1074.0
1074.0
1070.0
1066.0
1062.0
1055.0
1048.0
1042.0
1039.0
1033.0
1026.0
1021.0
1016.0
1014.0
1011.0
1012.0
1010.0
1006.0
1000.0
993.0
988.0
981.0
979.0
977.0
976.0
973.0
972.0
966.0
961.0
960.0
960.0
962.0
962.0
960.0
958.0
955.0
956.0
959.0
962.0
967.0
975.0
982.0
985.0
994.0
996.0
999.0
1006.0
1012.0
1018.0
1020.0
1018.0
1018.0
1013.0
1007.0
1001.0
993.0
979.0
968.0
956.0
948.0
942.0
940.0
939.0
938.0
938.0
935.0
934.0
932.0
929.0
930.0
931.0
930.0
935.0
935.0
935.0
935.0
935.0
937.0
938.0
938.0
937.0
936.0
932.0
929.0
927.0
924.0
926.0
933.0
952.0
988.0
1040.0
1104.0
1185.0
1276.0
1361.0
1429.0
1462.0
1453.0
1403.0
1334.0
1254.0
1168.0
1084.0
1006.0
937.0
878.0
832.0
808.0
806.0
824.0
850.0
877.0
895.0
901.0
893.0
885.0
881.0
876.0
869.0
871.0
871.0
870.0
868.0
869.0
867.0
866.0
864.0
862.0
859.0
854.0
852.0
850.0
850.0
854.0
854.0
855.0
853.0
850.0
846.0
847.0
847.0
849.0
851.0
854.0
855.0
854.0
858.0
863.0
866.0
873.0
873.0
878.0
881.0
886.0
891.0
898.0
906.0
916.0
924.0
931.0
937.0
941.0
948.0
951.0
961.0
971.0
982.0
991.0
999.0
1006.0
1017.0
1027.0
1034.0
1044.0
1050.0
1054.0
1062.0
1064.0
1069.0
1077.0
1080.0
1087.0
1090.0
1092.0
1092.0
1090.0
1089.0
1091.0
1092.0
1091.0
1091.0
1089.0
1085.0
1080.0
1076.0
1073.0
1071.0
1067.0
1063.0
1057.0
1048.0
1042.0
1036.0
1034.0
1036.0
1037.0
1034.0
1031.0
1025.0
1017.0
1010.0
1005.0
1001.0
997.0
994.0
991.0
984.0
982.0
981.0
978.0
976.0
975.0
971.0
970.0
967.0
961.0
959.0
959.0
963.0
969.0
973.0
979.0
982.0
985.0
989.0
993.0
999.0
1005.0
1010.0
1017.0
1021.0
1026.0
1030.0
1033.0
1032.0
1027.0
1021.0
1013.0
1001.0
989.0
978.0
971.0
969.0
963.0
962.0
959.0
956.0
953.0
950.0
947.0
945.0
946.0
947.0
951.0
951.0
953.0
955.0
952.0
953.0
954.0
950.0
950.0
948.0
944.0
941.0
945.0
949.0
952.0
954.0
954.0
951.0
952.0
961.0
985.0
1019.0
1065.0
1120.0
1182.0
1248.0
1318.0
1380.0
1427.0
1434.0
1396.0
1327.0
1231.0
1128.0
1031.0
950.0
889.0
849.0
825.0
821.0
825.0
841.0
864.0
882.0
897.0
903.0
905.0
903.0
899.0
895.0
890.0
889.0
885.0
883.0
885.0
886.0
884.0
882.0
878.0
874.0
871.0
870.0
869.0
876.0
879.0
879.0
877.0
875.0
874.0
872.0
874.0
876.0
880.0
884.0
886.0
888.0
889.0
895.0
899.0
902.0
904.0
909.0
912.0
913.0
922.0
929.0
938.0
946.0
951.0
956.0
958.0
959.0
962.0
966.0
975.0
986.0
995.0
1008.0
1017.0
1023.0
1029.0
1037.0
1043.0
1050.0
1054.0
1063.0
1067.0
1073.0
1076.0
1085.0
1090.0
1093.0
1099.0
1106.0
1105.0
1106.0
1103.0
1103.0
1102.0
1101.0
1100.0
1099.0
1097.0
1096.0
1092.0
1088.0
1082.0
1078.0
1072.0
1066.0
1059.0
1053.0
1049.0
1045.0
1044.0
1040.0
1038.0
1035.0
1029.0
1023.0
1018.0
1012.0
1009.0
1007.0
1001.0
994.0
988.0
981.0
975.0
970.0
969.0
970.0
967.0
963.0
959.0
952.0
950.0
950.0
953.0
956.0
959.0
960.0
959.0
955.0
953.0
956.0
958.0
964.0
970.0
979.0
990.0
995.0
1004.0
1006.0
1010.0
1013.0
1019.0
1018.0
1019.0
1019.0
1017.0
1015.0
1010.0
1005.0
993.0
981.0
969.0
959.0
951.0
947.0
945.0
942.0
942.0
945.0
946.0
947.0
948.0
949.0
951.0
950.0
950.0
949.0
947.0
945.0
946.0
950.0
954.0
957.0
955.0
953.0
951.0
949.0
945.0
946.0
948.0
961.0
986.0
1030.0
1082.0
1150.0
1225.0
1298.0
1368.0
1416.0
1443.0
1440.0
1402.0
1339.0
1263.0
1181.0
1097.0
1022.0
954.0
892.0
843.0
813.0
804.0
813.0
837.0
863.0
885.0
898.0
905.0
903.0
897.0
896.0
890.0
886.0
881.0
880.0
875.0
873.0
870.0
874.0
876.0
878.0
878.0
875.0
872.0
871.0
871.0
870.0
870.0
867.0
868.0
869.0
871.0
873.0
876.0
879.0
879.0
879.0
879.0
882.0
885.0
889.0
895.0
901.0
907.0
912.0
917.0
921.0
926.0
931.0
937.0
942.0
946.0
950.0
956.0
962.0
971.0
981.0
988.0
996.0
1003.0
1009.0
1011.0
1019.0
1024.0
1032.0
1041.0
1049.0
1060.0
1064.0
1067.0
1073.0
1075.0
1079.0
1085.0
1086.0
1088.0
1085.0
1084.0
1085.0
1086.0
1091.0
1090.0
1086.0
1080.0
1075.0
1070.0
1064.0
1059.0
1059.0
1056.0
1055.0
1047.0
1043.0
1039.0
1033.0
1031.0
1022.0
1021.0
1015.0
1007.0
1003.0
997.0
995.0
989.0
990.0
987.0
983.0
977.0
972.0
966.0
962.0
960.0
961.0
965.0
966.0
965.0
966.0
961.0
960.0
959.0
958.0
961.0
965.0
967.0
972.0
981.0
987.0
994.0
1004.0
1011.0
1017.0
1018.0
1021.0
1019.0
1020.0
1021.0
1018.0
1020.0
1018.0
1013.0
1004.0
992.0
980.0
969.0
960.0
952.0
946.0
940.0
938.0
937.0
937.0
939.0
943.0
943.0
947.0
945.0
942.0
940.0
939.0
937.0
937.0
939.0
942.0
945.0
946.0
946.0
946.0
945.0
942.0
942.0
940.0
940.0
945.0
959.0
990.0
1037.0
1096.0
1171.0
1254.0
1335.0
1404.0
1449.0
1461.0
1439.0
1390.0
1314.0
1227.0
1136.0
1045.0
967.0
902.0
851.0
820.0
816.0
826.0
846.0
871.0
891.0
902.0
904.0
901.0
897.0
889.0
884.0
881.0
879.0
878.0
879.0
879.0
881.0
878.0
878.0
876.0
871.0
872.0
873.0
873.0
870.0
870.0
868.0
864.0
865.0
866.0
869.0
871.0
876.0
875.0
876.0
875.0
874.0
876.0
878.0
882.0
889.0
896.0
900.0
904.0
910.0
918.0
926.0
933.0
941.0
946.0
952.0
956.0
960.0
967.0
973.0
981.0
993.0
1002.0
1010.0
1018.0
1024.0
1029.0
1038.0
1046.0
1057.0
1066.0
1073.0
1082.0
1088.0
1095.0
1100.0
1102.0
1106.0
1111.0
1109.0
1107.0
1110.0
1111.0
1112.0
1114.0
1117.0
1115.0
1112.0
1104.0
1100.0
1093.0
1089.0
1089.0
1085.0
1082.0
1076.0
1073.0
1069.0
1065.0
1062.0
1059.0
1056.0
1053.0
1046.0
1038.0
1030.0
1028.0
1026.0
1024.0
1022.0
1019.0
1015.0
1008.0
999.0
995.0
990.0
988.0
988.0
988.0
983.0
983.0
982.0
981.0
982.0
979.0
979.0
979.0
979.0
980.0
984.0
987.0
998.0
1006.0
1018.0
1018.0
1022.0
1026.0
1025.0
1027.0
1028.0
1031.0
1032.0
1033.0
1030.0
1027.0
1015.0
1004.0
990.0
980.0
969.0
961.0
952.0
948.0
946.0
945.0
946.0
950.0
952.0
954.0
954.0
949.0
946.0
945.0
944.0
944.0
949.0
950.0
952.0
953.0
952.0
952.0
950.0
950.0
947.0
946.0
945.0
942.0
940.0
940.0
946.0
965.0
999.0
1043.0
1096.0
1152.0
1217.0
1282.0
1352.0
1408.0
1439.0
1439.0
1403.0
1338.0
1258.0
1163.0
1071.0
987.0
920.0
864.0
830.0
815.0
822.0
842.0
869.0
894.0
912.0
917.0
916.0
907.0
893.0
887.0
882.0
881.0
880.0
883.0
885.0
886.0
885.0
882.0
880.0
877.0
875.0
874.0
871.0
869.0
866.0
865.0
863.0
865.0
868.0
869.0
871.0
873.0
871.0
869.0
868.0
866.0
867.0
869.0
876.0
880.0
885.0
886.0
885.0
889.0
892.0
898.0
903.0
911.0
914.0
922.0
926.0
935.0
945.0
953.0
962.0
969.0
975.0
978.0
979.0
983.0
992.0
1002.0
1014.0
1025.0
1037.0
1043.0
1051.0
1060.0
1064.0
1071.0
1079.0
1084.0
1091.0
1097.0
1101.0
1103.0
1108.0
1110.0
1111.0
1111.0
1109.0
1108.0
1103.0
1102.0
1100.0
1100.0
1098.0
1100.0
1100.0
1099.0
1093.0
1087.0
1083.0
1075.0
1070.0
1066.0
1064.0
1062.0
1057.0
1049.0
1048.0
1043.0
1038.0
1035.0
1033.0
1031.0
1028.0
1024.0
1019.0
1013.0
1006.0
1002.0
1001.0
999.0
994.0
989.0
981.0
975.0
975.0
975.0
979.0
984.0
986.0
985.0
982.0
979.0
975.0
972.0
974.0
977.0
988.0
993.0
1000.0
1010.0
1016.0
1022.0
1027.0
1035.0
1037.0
1039.0
1039.0
1037.0
1034.0
1028.0
1025.0
1021.0
1016.0
1010.0
998.0
985.0
971.0
960.0
954.0
953.0
954.0
953.0
956.0
957.0
954.0
955.0
956.0
955.0
955.0
956.0
955.0
955.0
956.0
954.0
954.0
954.0
955.0
958.0
959.0
957.0
956.0
949.0
946.0
943.0
944.0
951.0
968.0
996.0
1032.0
1079.0
1130.0
1191.0
1256.0
1325.0
1382.0
1422.0
1432.0
1400.0
1337.0
1257.0
1172.0
1087.0
1013.0
949.0
898.0
857.0
828.0
809.0
807.0
824.0
850.0
878.0
898.0
908.0
907.0
901.0
895.0
890.0
885.0
883.0
883.0
884.0
883.0
883.0
882.0
883.0
884.0
883.0
879.0
876.0
873.0
870.0
870.0
871.0
874.0
875.0
876.0
879.0
880.0
878.0
878.0
877.0
879.0
882.0
884.0
888.0
891.0
892.0
897.0
904.0
910.0
913.0
920.0
923.0
925.0
929.0
931.0
940.0
947.0
958.0
967.0
977.0
984.0
990.0
994.0
999.0
1004.0
1010.0
1019.0
1025.0
1034.0
1040.0
1047.0
1055.0
1063.0
1070.0
1079.0
1085.0
1089.0
1089.0
1091.0
1096.0
1100.0
1103.0
1106.0
1106.0
1104.0
1103.0
1100.0
1096.0
1093.0
1089.0
1087.0
1081.0
1075.0
1070.0
1070.0
1066.0
1067.0
1064.0
1057.0
1050.0
1045.0
1038.0
1030.0
1025.0
1019.0
1018.0
1018.0
1013.0
1009.0
1002.0
998.0
990.0
986.0
983.0
977.0
973.0
969.0
965.0
961.0
959.0
960.0
961.0
961.0
959.0
957.0
952.0
952.0
952.0
953.0
955.0
959.0
963.0
963.0
965.0
971.0
977.0
984.0
989.0
992.0
998.0
1003.0
1007.0
1012.0
1017.0
1023.0
1028.0
1031.0
1027.0
1023.0
1013.0
1004.0
993.0
982.0
974.0
964.0
959.0
952.0
949.0
948.0
947.0
947.0
948.0
949.0
945.0
942.0
941.0
940.0
942.0
944.0
947.0
947.0
945.0
947.0
947.0
945.0
943.0
946.0
944.0
942.0
939.0
937.0
937.0
940.0
958.0
987.0
1028.0
1084.0
1150.0
1226.0
1306.0
1377.0
1425.0
1436.0
1399.0
1335.0
1247.0
1150.0
1058.0
981.0
917.0
863.0
821.0
796.0
793.0
805.0
827.0
855.0
878.0
892.0
896.0
894.0
889.0
881.0
876.0
877.0
878.0
879.0
880.0
879.0
876.0
869.0
867.0
865.0
864.0
864.0
865.0
865.0
860.0
862.0
862.0
858.0
859.0
862.0
861.0
861.0
859.0
856.0
856.0
857.0
861.0
865.0
872.0
874.0
877.0
878.0
878.0
881.0
886.0
892.0
898.0
903.0
907.0
910.0
915.0
924.0
929.0
936.0
943.0
947.0
954.0
959.0
965.0
973.0
980.0
988.0
998.0
1005.0
1014.0
1017.0
1021.0
1026.0
1031.0
1041.0
1049.0
1058.0
1065.0
1070.0
1076.0
1077.0
1081.0
1082.0
1087.0
1087.0
1086.0
1088.0
1087.0
1086.0
1086.0
1086.0
1085.0
1085.0
1081.0
1079.0
1073.0
1065.0
1059.0
1054.0
1049.0
1047.0
1045.0
1043.0
1040.0
1033.0
1028.0
1020.0
1017.0
1010.0
1005.0
1003.0
998.0
993.0
986.0
983.0
981.0
981.0
978.0
977.0
974.0
970.0
965.0
960.0
961.0
961.0
965.0
967.0
964.0
965.0
966.0
967.0
972.0
978.0
980.0
992.0
998.0
1003.0
1006.0
1009.0
1016.0
1017.0
1018.0
1022.0
1021.0
1019.0
1012.0
1006.0
998.0
992.0
981.0
972.0
961.0
954.0
944.0
938.0
932.0
932.0
930.0
929.0
929.0
932.0
932.0
933.0
932.0
930.0
933.0
935.0
933.0
929.0
928.0
927.0
931.0
931.0
936.0
938.0
940.0
934.0
929.0
923.0
921.0
915.0
923.0
937.0
967.0
1006.0
1058.0
1125.0
1202.0
1286.0
1365.0
1427.0
1458.0
1452.0
1407.0
1336.0
1254.0
1165.0
1078.0
999.0
932.0
870.0
826.0
805.0
807.0
824.0
851.0
879.0
898.0
905.0
905.0
895.0
885.0
877.0
873.0
873.0
872.0
873.0
870.0
869.0
867.0
864.0
864.0
865.0
864.0
863.0
859.0
854.0
852.0
848.0
847.0
847.0
849.0
851.0
851.0
851.0
850.0
848.0
849.0
850.0
852.0
853.0
857.0
858.0
863.0
866.0
872.0
878.0
885.0
890.0
890.0
894.0
897.0
902.0
911.0
924.0
935.0
945.0
954.0
964.0
975.0
983.0
994.0
1004.0
1010.0
1016.0
1022.0
1029.0
1035.0
1042.0
1056.0
1064.0
1072.0
1074.0
1078.0
1084.0
1088.0
1095.0
1099.0
1101.0
1100.0
1099.0
1094.0
1093.0
1092.0
1094.0
1093.0
1091.0
1086.0
1079.0
1072.0
1067.0
1064.0
1061.0
1060.0
1061.0
1058.0
1056.0
1048.0
1043.0
1037.0
1031.0
1026.0
1023.0
1014.0
1014.0
1010.0
1007.0
1006.0
1003.0
1003.0
1000.0
996.0
988.0
982.0
977.0
975.0
975.0
976.0
975.0
974.0
973.0
972.0
972.0
974.0
976.0
981.0
987.0
991.0
998.0
1004.0
1010.0
1018.0
1026.0
1033.0
1036.0
1037.0
1035.0
1034.0
1031.0
1029.0
1021.0
1011.0
997.0
980.0
972.0
961.0
958.0
952.0
953.0
953.0
952.0
952.0
952.0
952.0
953.0
954.0
954.0
953.0
949.0
950.0
948.0
952.0
954.0
953.0
952.0
952.0
949.0
949.0
944.0
941.0
933.0
925.0
919.0
924.0
950.0
995.0
1069.0
1163.0
1271.0
1372.0
1444.0
1479.0
1462.0
1408.0
1317.0
1204.0
1076.0
948.0
843.0
774.0
747.0
756.0
783.0
816.0
846.0
869.0
881.0
885.0
885.0
886.0
883.0
885.0
882.0
879.0
877.0
875.0
871.0
869.0
869.0
870.0
870.0
867.0
866.0
864.0
860.0
859.0
859.0
860.0
860.0
862.0
859.0
856.0
854.0
856.0
858.0
863.0
866.0
869.0
869.0
869.0
873.0
874.0
878.0
883.0
889.0
896.0
900.0
904.0
907.0
911.0
918.0
922.0
928.0
934.0
939.0
946.0
955.0
962.0
971.0
980.0
990.0
997.0
1003.0
1006.0
1010.0
1015.0
1019.0
1026.0
1034.0
1042.0
1051.0
1058.0
1066.0
1067.0
1075.0
1075.0
1079.0
1079.0
1077.0
1075.0
1074.0
1077.0
1078.0
1078.0
1079.0
1077.0
1070.0
1064.0
1056.0
1051.0
1048.0
1045.0
1042.0
1035.0
1030.0
1023.0
1019.0
1012.0
1009.0
1004.0
999.0
992.0
986.0
980.0
974.0
973.0
973.0
973.0
972.0
970.0
965.0
957.0
951.0
945.0
941.0
941.0
939.0
940.0
940.0
940.0
942.0
945.0
946.0
946.0
946.0
947.0
945.0
944.0
946.0
949.0
956.0
961.0
973.0
980.0
985.0
990.0
991.0
995.0
1000.0
1005.0
1008.0
1015.0
1018.0
1019.0
1014.0
1015.0
1011.0
1005.0
996.0
982.0
967.0
954.0
944.0
938.0
936.0
937.0
940.0
941.0
941.0
939.0
935.0
931.0
931.0
932.0
934.0
937.0
939.0
940.0
941.0
942.0
938.0
941.0
940.0
939.0
935.0
930.0
927.0
923.0
922.0
920.0
926.0
942.0
967.0
1001.0
1050.0
1108.0
1181.0
1263.0
1344.0
1406.0
1438.0
1427.0
1375.0
1298.0
1206.0
1109.0
1024.0
949.0
885.0
830.0
793.0
772.0
775.0
793.0
821.0
847.0
869.0
882.0
886.0
882.0
876.0
868.0
866.0
865.0
866.0
867.0
867.0
865.0
864.0
861.0
858.0
856.0
854.0
851.0
850.0
849.0
851.0
853.0
856.0
856.0
856.0
853.0
852.0
850.0
850.0
848.0
850.0
855.0
858.0
860.0
863.0
866.0
871.0
874.0
879.0
882.0
885.0
886.0
889.0
895.0
900.0
908.0
919.0
927.0
933.0
938.0
942.0
946.0
952.0
959.0
968.0
979.0
989.0
997.0
1005.0
1011.0
1018.0
1026.0
1035.0
1044.0
1048.0
1054.0
1055.0
1060.0
1065.0
1070.0
1076.0
1081.0
1085.0
1087.0
1086.0
1086.0
1084.0
1083.0
1082.0
1081.0
1080.0
1078.0
1074.0
1068.0
1065.0
1063.0
1058.0
1055.0
1050.0
1044.0
1034.0
1032.0
1025.0
1022.0
1018.0
1014.0
1013.0
1007.0
1002.0
994.0
988.0
982.0
979.0
978.0
978.0
972.0
967.0
965.0
963.0
962.0
962.0
958.0
960.0
957.0
957.0
955.0
956.0
961.0
964.0
973.0
980.0
986.0
988.0
991.0
994.0
999.0
1003.0
1010.0
1014.0
1017.0
1020.0
1020.0
1019.0
1014.0
1008.0
997.0
987.0
975.0
959.0
952.0
946.0
940.0
939.0
937.0
938.0
935.0
931.0
929.0
927.0
926.0
925.0
929.0
931.0
929.0
931.0
930.0
928.0
925.0
924.0
930.0
931.0
929.0
929.0
926.0
926.0
922.0
923.0
921.0
921.0
921.0
930.0
948.0
980.0
1023.0
1075.0
1133.0
1203.0
1276.0
1351.0
1410.0
1441.0
1434.0
1388.0
1323.0
1244.0
1154.0
1065.0
986.0
918.0
863.0
819.0
800.0
801.0
816.0
840.0
863.0
882.0
890.0
889.0
883.0
878.0
872.0
872.0
870.0
867.0
865.0
862.0
861.0
859.0
858.0
858.0
857.0
855.0
854.0
852.0
851.0
848.0
850.0
848.0
848.0
847.0
845.0
842.0
838.0
838.0
837.0
841.0
844.0
848.0
847.0
848.0
847.0
847.0
848.0
850.0
856.0
861.0
866.0
875.0
878.0
882.0
888.0
894.0
900.0
907.0
913.0
918.0
924.0
933.0
942.0
953.0
961.0
973.0
978.0
987.0
992.0
999.0
1005.0
1014.0
1021.0
1033.0
1042.0
1049.0
1055.0
1061.0
1067.0
1073.0
1077.0
1085.0
1087.0
1088.0
1089.0
1088.0
1087.0
1086.0
1089.0
1089.0
1086.0
1084.0
1079.0
1073.0
1067.0
1065.0
1062.0
1060.0
1064.0
1058.0
1056.0
1051.0
1046.0
1044.0
1040.0
1035.0
1034.0
1027.0
1022.0
1019.0
1013.0
1009.0
1008.0
1005.0
1006.0
1004.0
997.0
993.0
985.0
980.0
977.0
975.0
973.0
975.0
976.0
975.0
973.0
971.0
967.0
966.0
966.0
966.0
968.0
972.0
978.0
986.0
994.0
1003.0
1011.0
1012.0
1016.0
1015.0
1016.0
1016.0
1021.0
1026.0
1029.0
1030.0
1026.0
1016.0
1006.0
994.0
980.0
967.0
960.0
953.0
948.0
949.0
948.0
949.0
952.0
955.0
956.0
953.0
950.0
947.0
943.0
940.0
944.0
948.0
951.0
954.0
953.0
953.0
949.0
948.0
947.0
944.0
940.0
938.0
939.0
938.0
952.0
977.0
1017.0
1071.0
1133.0
1206.0
1284.0
1357.0
1408.0
1415.0
1381.0
1308.0
1211.0
1106.0
1010.0
934.0
880.0
846.0
825.0
812.0
808.0
817.0
836.0
861.0
883.0
901.0
906.0
903.0
896.0
886.0
877.0
874.0
873.0
874.0
875.0
875.0
876.0
872.0
871.0
869.0
867.0
867.0
868.0
867.0
864.0
859.0
860.0
861.0
866.0
871.0
875.0
876.0
873.0
872.0
874.0
875.0
877.0
881.0
890.0
894.0
895.0
898.0
901.0
906.0
915.0
920.0
930.0
934.0
940.0
943.0
949.0
955.0
963.0
974.0
982.0
987.0
993.0
997.0
1003.0
1009.0
1017.0
1023.0
1033.0
1041.0
1049.0
1056.0
1060.0
1068.0
1076.0
1083.0
1088.0
1088.0
1090.0
1089.0
1089.0
1091.0
1092.0
1095.0
1094.0
1094.0
1090.0
1083.0
1077.0
1072.0
1067.0
1068.0
1064.0
1061.0
1059.0
1055.0
1049.0
1048.0
1044.0
1038.0
1035.0
1029.0
1025.0
1017.0
1013.0
1008.0
1006.0
1004.0
1002.0
996.0
989.0
981.0
970.0
964.0
961.0
959.0
957.0
956.0
953.0
953.0
953.0
953.0
951.0
949.0
951.0
947.0
945.0
943.0
943.0
946.0
944.0
949.0
954.0
960.0
965.0
968.0
974.0
978.0
981.0
988.0
995.0
999.0
1006.0
1010.0
1014.0
1017.0
1017.0
1017.0
1014.0
1006.0
998.0
985.0
975.0
963.0
956.0
950.0
947.0
944.0
942.0
939.0
941.0
936.0
935.0
937.0
937.0
939.0
938.0
941.0
939.0
937.0
935.0
937.0
939.0
939.0
939.0
939.0
937.0
936.0
936.0
937.0
937.0
937.0
935.0
933.0
934.0
942.0
964.0
1003.0
1056.0
1121.0
1195.0
1272.0
1346.0
1404.0
1430.0
1418.0
1372.0
1303.0
1225.0
1143.0
1063.0
995.0
934.0
882.0
839.0
806.0
791.0
795.0
810.0
833.0
857.0
873.0
883.0
889.0
885.0
880.0
875.0
869.0
866.0
864.0
862.0
861.0
864.0
862.0
862.0
862.0
859.0
860.0
859.0
859.0
857.0
856.0
856.0
853.0
850.0
850.0
851.0
856.0
857.0
862.0
861.0
862.0
860.0
862.0
863.0
866.0
870.0
875.0
882.0
884.0
891.0
894.0
898.0
904.0
909.0
915.0
920.0
923.0
924.0
930.0
934.0
944.0
952.0
964.0
974.0
981.0
989.0
993.0
997.0
1003.0
1010.0
1018.0
1027.0
1036.0
1043.0
1050.0
1053.0
1059.0
1065.0
1071.0
1076.0
1077.0
1081.0
1081.0
1083.0
1082.0
1083.0
1084.0
1084.0
1085.0
1083.0
1078.0
1074.0
1070.0
1067.0
1066.0
1065.0
1063.0
1061.0
1055.0
1051.0
1047.0
1041.0
1035.0
1030.0
1027.0
1019.0
1011.0
1005.0
1001.0
997.0
995.0
993.0
988.0
985.0
981.0
976.0
970.0
965.0
962.0
964.0
965.0
964.0
963.0
963.0
960.0
960.0
958.0
961.0
961.0
962.0
967.0
973.0
979.0
987.0
998.0
1005.0
1011.0
1014.0
1013.0
1013.0
1013.0
1016.0
1016.0
1016.0
1011.0
1004.0
994.0
981.0
968.0
960.0
952.0
946.0
941.0
932.0
929.0
927.0
926.0
928.0
930.0
931.0
933.0
927.0
928.0
925.0
923.0
922.0
926.0
928.0
929.0
927.0
928.0
926.0
929.0
928.0
928.0
923.0
920.0
917.0
918.0
926.0
949.0
989.0
1042.0
1103.0
1170.0
1246.0
1316.0
1377.0
1420.0
1434.0
1414.0
1363.0
1293.0
1215.0
1128.0
1043.0
963.0
895.0
843.0
805.0
793.0
801.0
820.0
847.0
872.0
888.0
895.0
892.0
885.0
878.0
868.0
860.0
857.0
857.0
860.0
861.0
863.0
863.0
860.0
857.0
855.0
855.0
851.0
850.0
850.0
850.0
847.0
846.0
844.0
841.0
845.0
846.0
847.0
848.0
846.0
846.0
845.0
848.0
850.0
854.0
857.0
865.0
867.0
871.0
877.0
880.0
889.0
892.0
899.0
903.0
906.0
913.0
919.0
930.0
941.0
951.0
961.0
969.0
974.0
980.0
989.0
997.0
1007.0
1017.0
1029.0
1037.0
1040.0
1045.0
1052.0
1060.0
1067.0
1073.0
1076.0
1082.0
1081.0
1086.0
1087.0
1090.0
1093.0
1094.0
1095.0
1091.0
1087.0
1082.0
1080.0
1078.0
1077.0
1075.0
1075.0
1072.0
1069.0
1066.0
1064.0
1056.0
1054.0
1051.0
1047.0
1041.0
1038.0
1031.0
1027.0
1022.0
1021.0
1021.0
1017.0
1013.0
1010.0
1002.0
996.0
991.0
985.0
983.0
982.0
980.0
981.0
981.0
978.0
974.0
972.0
970.0
970.0
970.0
967.0
967.0
968.0
970.0
972.0
979.0
987.0
994.0
997.0
1001.0
1002.0
1003.0
1005.0
1009.0
1015.0
1022.0
1024.0
1026.0
1027.0
1022.0
1014.0
1004.0
993.0
982.0
972.0
963.0
955.0
949.0
946.0
940.0
939.0
939.0
938.0
940.0
936.0
931.0
928.0
930.0
930.0
933.0
938.0
940.0
938.0
938.0
935.0
934.0
931.0
931.0
935.0
937.0
938.0
940.0
938.0
934.0
928.0
922.0
924.0
934.0
954.0
988.0
1035.0
1091.0
1161.0
1235.0
1316.0
1393.0
1448.0
1465.0
1449.0
1395.0
1322.0
1237.0
1149.0
1063.0
990.0
930.0
878.0
841.0
820.0
819.0
834.0
857.0
883.0
901.0
908.0
906.0
899.0
892.0
887.0
886.0
886.0
888.0
886.0
883.0
880.0
872.0
870.0
871.0
873.0
874.0
879.0
880.0
879.0
878.0
872.0
871.0
873.0
873.0
875.0
876.0
874.0
876.0
877.0
879.0
882.0
882.0
885.0
888.0
892.0
892.0
895.0
901.0
908.0
914.0
923.0
930.0
934.0
938.0
940.0
946.0
950.0
957.0
967.0
978.0
987.0
995.0
999.0
1008.0
1014.0
1022.0
1033.0
1042.0
1050.0
1055.0
1059.0
1065.0
1072.0
1080.0
1087.0
1094.0
1097.0
1096.0
1101.0
1102.0
1103.0
1106.0
1108.0
1112.0
1116.0
1113.0
1113.0
1109.0
1104.0
1101.0
1099.0
1097.0
1095.0
1090.0
1087.0
1081.0
1078.0
1075.0
1069.0
1069.0
1066.0
1058.0
1051.0
1043.0
1038.0
1034.0
1027.0
1023.0
1021.0
1018.0
1013.0
1008.0
999.0
997.0
994.0
987.0
983.0
977.0
971.0
967.0
965.0
963.0
959.0
959.0
959.0
956.0
955.0
952.0
951.0
951.0
951.0
956.0
960.0
962.0
965.0
969.0
976.0
984.0
991.0
1001.0
1006.0
1009.0
1010.0
1012.0
1016.0
1018.0
1023.0
1023.0
1019.0
1013.0
1000.0
983.0
971.0
958.0
949.0
944.0
939.0
938.0
939.0
938.0
940.0
943.0
942.0
943.0
941.0
939.0
935.0
934.0
934.0
937.0
937.0
940.0
940.0
941.0
939.0
938.0
937.0
936.0
938.0
935.0
935.0
930.0
929.0
935.0
952.0
986.0
1032.0
1091.0
1159.0
1234.0
1311.0
1379.0
1427.0
1436.0
1405.0
1337.0
1246.0
1143.0
1042.0
954.0
882.0
827.0
795.0
779.0
784.0
807.0
834.0
864.0
884.0
895.0
897.0
890.0
880.0
872.0
866.0
864.0
866.0
869.0
869.0
870.0
866.0
863.0
860.0
857.0
854.0
851.0
854.0
855.0
857.0
856.0
857.0
857.0
858.0
859.0
862.0
862.0
861.0
863.0
862.0
865.0
869.0
878.0
884.0
891.0
896.0
901.0
904.0
907.0
910.0
916.0
923.0
929.0
934.0
940.0
944.0
951.0
959.0
969.0
978.0
985.0
990.0
995.0
996.0
1002.0
1013.0
1023.0
1030.0
1036.0
1046.0
1046.0
1051.0
1055.0
1058.0
1065.0
1074.0
1078.0
1080.0
1082.0
1083.0
1083.0
1085.0
1088.0
1088.0
1088.0
1088.0
1084.0
1076.0
1076.0
1068.0
1065.0
1064.0
1063.0
1060.0
1056.0
1049.0
1042.0
1036.0
1031.0
1028.0
1024.0
1021.0
1018.0
1012.0
1004.0
1000.0
996.0
991.0
989.0
982.0
976.0
969.0
966.0
964.0
963.0
963.0
965.0
964.0
963.0
960.0
955.0
954.0
949.0
953.0
956.0
954.0
953.0
954.0
958.0
958.0
964.0
968.0
976.0
980.0
988.0
993.0
999.0
1004.0
1010.0
1016.0
1022.0
1025.0
1025.0
1023.0
1016.0
1014.0
1007.0
999.0
991.0
980.0
967.0
955.0
946.0
939.0
935.0
934.0
935.0
937.0
936.0
935.0
933.0
931.0
931.0
931.0
933.0
934.0
934.0
935.0
933.0
930.0
929.0
930.0
930.0
931.0
931.0
931.0
928.0
926.0
921.0
920.0
919.0
926.0
938.0
966.0
1006.0
1056.0
1117.0
1184.0
1265.0
1341.0
1402.0
1429.0
1412.0
1358.0
1279.0
1185.0
1086.0
1001.0
929.0
868.0
823.0
787.0
774.0
782.0
804.0
833.0
859.0
879.0
887.0
884.0
877.0
871.0
870.0
866.0
864.0
866.0
864.0
862.0
861.0
859.0
858.0
858.0
859.0
860.0
857.0
856.0
851.0
846.0
846.0
846.0
847.0
845.0
844.0
845.0
846.0
845.0
849.0
852.0
855.0
854.0
855.0
855.0
855.0
858.0
866.0
870.0
878.0
882.0
886.0
891.0
893.0
898.0
907.0
914.0
921.0
929.0
936.0
942.0
949.0
959.0
972.0
981.0
992.0
999.0
1004.0
1007.0
1012.0
1016.0
1023.0
1033.0
1045.0
1052.0
1059.0
1064.0
1069.0
1073.0
1078.0
1082.0
1085.0
1086.0
1086.0
1084.0
1084.0
1083.0
1085.0
1085.0
1083.0
1081.0
1075.0
1068.0
1064.0
1060.0
1058.0
1056.0
1053.0
1052.0
1048.0
1044.0
1037.0
1033.0
1028.0
1023.0
1015.0
1010.0
1005.0
1002.0
996.0
995.0
995.0
994.0
991.0
984.0
980.0
977.0
971.0
967.0
969.0
970.0
971.0
970.0
969.0
966.0
966.0
968.0
971.0
975.0
980.0
981.0
984.0
989.0
996.0
1002.0
1010.0
1015.0
1019.0
1023.0
1020.0
1019.0
1017.0
1014.0
1008.0
1000.0
989.0
976.0
965.0
953.0
944.0
939.0
937.0
936.0
935.0
932.0
930.0
930.0
933.0
935.0
936.0
939.0
936.0
935.0
934.0
931.0
929.0
932.0
931.0
933.0
934.0
934.0
934.0
933.0
933.0
929.0
925.0
927.0
934.0
953.0
988.0
1042.0
1105.0
1183.0
1271.0
1353.0
1417.0
1442.0
1423.0
1366.0
1286.0
1193.0
1098.0
1014.0
944.0
886.0
845.0
821.0
819.0
834.0
858.0
882.0
899.0
903.0
902.0
897.0
891.0
888.0
888.0
887.0
886.0
884.0
883.0
883.0
882.0
882.0
880.0
878.0
877.0
877.0
880.0
881.0
884.0
883.0
881.0
876.0
871.0
869.0
870.0
875.0
879.0
885.0
886.0
890.0
891.0
895.0
900.0
903.0
908.0
912.0
916.0
919.0
925.0
932.0
944.0
951.0
962.0
969.0
972.0
982.0
990.0
998.0
1008.0
1017.0
1026.0
1032.0
1038.0
1043.0
1052.0
1056.0
1061.0
1068.0
1075.0
1082.0
1089.0
1095.0
1098.0
1103.0
1106.0
1110.0
1113.0
1114.0
1112.0
1109.0
1105.0
