# Simple Text Format
# Sampling Rate (Hz):= 360.00
# Resolution:= 12
# Labels:= ECG
1250.0
1326.0
1377.0
1393.0
1366.0
1308.0
1228.0
1137.0
1044.0
962.0
895.0
839.0
794.0
759.0
741.0
740.0
754.0
780.0
809.0
828.0
836.0
831.0
821.0
810.0
805.0
804.0
804.0
806.0
806.0
806.0
803.0
801.0
800.0
801.0
800.0
800.0
798.0
795.0
793.0
792.0
793.0
796.0
798.0
798.0
799.0
798.0
795.0
793.0
793.0
798.0
803.0
809.0
815.0
820.0
823.0
826.0
831.0
835.0
841.0
848.0
854.0
858.0
863.0
870.0
876.0
885.0
897.0
907.0
917.0
926.0
931.0
933.0
939.0
944.0
953.0
962.0
972.0
981.0
990.0
996.0
1003.0
1014.0
1023.0
1031.0
1037.0
1039.0
1041.0
1045.0
1049.0
1052.0
1056.0
1059.0
1061.0
1062.0
1061.0
1059.0
1055.0
1050.0
1047.0
1046.0
1045.0
1045.0
1042.0
1038.0
1031.0
1027.0
1021.0
1017.0
1013.0
1010.0
1004.0
999.0
996.0
993.0
988.0
984.0
978.0
975.0
972.0
965.0
958.0
950.0
943.0
939.0
935.0
931.0
927.0
925.0
920.0
912.0
909.0
907.0
906.0
905.0
902.0
901.0
897.0
896.0
892.0
889.0
890.0
892.0
897.0
903.0
905.0
911.0
916.0
921.0
929.0
935.0
945.0
952.0
957.0
960.0
961.0
962.0
964.0
965.0
964.0
964.0
960.0
950.0
939.0
923.0
910.0
898.0
891.0
887.0
883.0
884.0
881.0
879.0
880.0
879.0
885.0
883.0
886.0
885.0
881.0
881.0
881.0
878.0
877.0
882.0
884.0
887.0
889.0
887.0
883.0
882.0
879.0
877.0
874.0
869.0
868.0
867.0
880.0
896.0
931.0
978.0
1035.0
1107.0
1183.0
1261.0
1328.0
1375.0
1382.0
1349.0
1287.0
1208.0
1122.0
1034.0
956.0
894.0
845.0
801.0
765.0
737.0
726.0
734.0
752.0
777.0
801.0
815.0
826.0
831.0
827.0
823.0
813.0
808.0
805.0
803.0
806.0
807.0
810.0
810.0
808.0
805.0
803.0
798.0
796.0
794.0
793.0
796.0
798.0
797.0
799.0
799.0
799.0
800.0
802.0
799.0
802.0
804.0
804.0
806.0
809.0
812.0
818.0
824.0
831.0
832.0
835.0
839.0
842.0
849.0
855.0
864.0
870.0
876.0
880.0
888.0
891.0
899.0
912.0
919.0
925.0
930.0
937.0
939.0
948.0
955.0
964.0
976.0
984.0
991.0
996.0
998.0
1002.0
1008.0
1016.0
1019.0
1026.0
1031.0
1031.0
1032.0
1033.0
1035.0
1034.0
1034.0
1036.0
1035.0
1032.0
1031.0
1029.0
1028.0
1024.0
1024.0
1021.0
1016.0
1015.0
1007.0
1002.0
994.0
988.0
986.0
984.0
983.0
981.0
977.0
973.0
965.0
956.0
949.0
943.0
939.0
938.0
935.0
930.0
926.0
920.0
915.0
913.0
911.0
910.0
910.0
906.0
902.0
896.0
895.0
894.0
896.0
900.0
903.0
906.0
906.0
905.0
909.0
912.0
918.0
925.0
933.0
941.0
947.0
952.0
952.0
956.0
959.0
962.0
965.0
964.0
960.0
952.0
944.0
934.0
924.0
916.0
906.0
899.0
890.0
881.0
874.0
872.0
867.0
869.0
873.0
875.0
875.0
877.0
876.0
877.0
875.0
873.0
873.0
874.0
872.0
872.0
874.0
875.0
874.0
877.0
877.0
879.0
877.0
870.0
864.0
859.0
862.0
878.0
910.0
954.0
1010.0
1072.0
1142.0
1217.0
1293.0
1355.0
1395.0
1399.0
1361.0
1294.0
1206.0
1108.0
1013.0
927.0
853.0
795.0
754.0
735.0
737.0
755.0
780.0
804.0
824.0
835.0
834.0
829.0
819.0
814.0
808.0
806.0
807.0
808.0
807.0
805.0
802.0
800.0
801.0
801.0
802.0
802.0
799.0
794.0
792.0
790.0
788.0
789.0
789.0
790.0
792.0
793.0
795.0
795.0
797.0
800.0
803.0
804.0
803.0
805.0
808.0
814.0
816.0
824.0
832.0
841.0
848.0
850.0
856.0
862.0
865.0
877.0
890.0
895.0
905.0
911.0
919.0
924.0
930.0
936.0
951.0
960.0
970.0
979.0
987.0
993.0
1001.0
1013.0
1019.0
1028.0
1032.0
1032.0
1032.0
1032.0
1039.0
1040.0
1045.0
1048.0
1050.0
1050.0
1048.0
1047.0
1044.0
1038.0
1036.0
1034.0
1026.0
1022.0
1020.0
1016.0
1012.0
1014.0
1012.0
1010.0
1002.0
996.0
990.0
982.0
973.0
971.0
966.0
963.0
960.0
956.0
951.0
946.0
939.0
936.0
933.0
931.0
929.0
926.0
924.0
920.0
917.0
921.0
918.0
921.0
914.0
911.0
910.0
908.0
906.0
914.0
923.0
932.0
944.0
952.0
958.0
959.0
960.0
962.0
962.0
965.0
965.0
967.0
966.0
962.0
957.0
950.0
940.0
929.0
917.0
905.0
894.0
884.0
879.0
879.0
881.0
885.0
884.0
885.0
887.0
888.0
886.0
888.0
887.0
888.0
889.0
886.0
886.0
886.0
884.0
888.0
893.0
894.0
894.0
890.0
886.0
880.0
878.0
883.0
899.0
927.0
967.0
1018.0
1073.0
1133.0
1201.0
1276.0
1337.0
1379.0
1380.0
1333.0
1256.0
1164.0
1065.0
979.0
904.0
845.0
800.0
770.0
752.0
748.0
759.0
779.0
806.0
827.0
843.0
853.0
848.0
842.0
832.0
826.0
824.0
821.0
819.0
817.0
817.0
813.0
813.0
815.0
815.0
817.0
815.0
813.0
810.0
805.0
802.0
802.0
804.0
807.0
811.0
811.0
810.0
810.0
810.0
811.0
813.0
816.0
818.0
822.0
827.0
828.0
830.0
832.0
835.0
844.0
850.0
857.0
864.0
868.0
876.0
880.0
889.0
896.0
906.0
914.0
921.0
927.0
931.0
934.0
940.0
946.0
956.0
965.0
974.0
984.0
992.0
1002.0
1008.0
1012.0
1018.0
1023.0
1027.0
1032.0
1035.0
1037.0
1040.0
1043.0
1047.0
1046.0
1049.0
1050.0
1051.0
1048.0
1045.0
1043.0
1040.0
1038.0
1037.0
1037.0
1037.0
1033.0
1029.0
1024.0
1017.0
1011.0
1004.0
1000.0
996.0
989.0
987.0
982.0
975.0
970.0
964.0
964.0
958.0
950.0
945.0
935.0
927.0
920.0
920.0
916.0
914.0
912.0
909.0
906.0
899.0
893.0
892.0
893.0
891.0
891.0
890.0
887.0
884.0
888.0
890.0
894.0
896.0
900.0
906.0
912.0
919.0
925.0
937.0
943.0
951.0
955.0
956.0
957.0
957.0
956.0
956.0
953.0
950.0
939.0
929.0
913.0
898.0
887.0
885.0
883.0
883.0
886.0
885.0
886.0
883.0
880.0
880.0
879.0
876.0
876.0
875.0
876.0
876.0
876.0
877.0
879.0
881.0
881.0
880.0
881.0
882.0
882.0
882.0
878.0
877.0
871.0
873.0
884.0
909.0
951.0
1013.0
1085.0
1170.0
1250.0
1329.0
1384.0
1403.0
1379.0
1319.0
1233.0
1133.0
1029.0
932.0
851.0
783.0
739.0
717.0
720.0
737.0
762.0
788.0
804.0
816.0
820.0
820.0
817.0
814.0
810.0
804.0
802.0
801.0
800.0
802.0
801.0
800.0
800.0
796.0
797.0
794.0
796.0
797.0
797.0
797.0
797.0
795.0
796.0
795.0
796.0
801.0
805.0
808.0
809.0
812.0
815.0
815.0
819.0
823.0
829.0
833.0
837.0
842.0
844.0
852.0
860.0
873.0
880.0
885.0
890.0
895.0
901.0
906.0
915.0
925.0
933.0
938.0
946.0
953.0
961.0
970.0
977.0
985.0
990.0
992.0
996.0
1003.0
1012.0
1019.0
1026.0
1032.0
1033.0
1032.0
1031.0
1028.0
1027.0
1027.0
1028.0
1029.0
1028.0
1023.0
1023.0
1019.0
1018.0
1016.0
1011.0
1005.0
996.0
988.0
982.0
980.0
971.0
970.0
968.0
965.0
957.0
948.0
941.0
935.0
930.0
926.0
923.0
917.0
912.0
910.0
909.0
909.0
907.0
906.0
907.0
904.0
900.0
895.0
894.0
895.0
893.0
894.0
900.0
903.0
903.0
906.0
907.0
913.0
920.0
927.0
938.0
942.0
947.0
951.0
953.0
957.0
963.0
963.0
962.0
956.0
947.0
934.0
922.0
910.0
899.0
894.0
891.0
882.0
878.0
874.0
870.0
869.0
870.0
868.0
869.0
868.0
867.0
866.0
866.0
870.0
871.0
876.0
874.0
872.0
868.0
865.0
863.0
861.0
864.0
865.0
867.0
865.0
863.0
861.0
864.0
880.0
913.0
957.0
1013.0
1077.0
1147.0
1221.0
1296.0
1359.0
1389.0
1384.0
1338.0
1262.0
1168.0
1068.0
967.0
884.0
814.0
761.0
729.0
718.0
724.0
747.0
776.0
803.0
820.0
828.0
824.0
819.0
810.0
805.0
800.0
801.0
803.0
804.0
803.0
805.0
801.0
797.0
790.0
786.0
785.0
787.0
789.0
791.0
790.0
790.0
785.0
781.0
782.0
780.0
780.0
782.0
785.0
784.0
785.0
787.0
789.0
792.0
795.0
798.0
799.0
801.0
802.0
804.0
806.0
815.0
822.0
830.0
836.0
842.0
846.0
851.0
856.0
864.0
872.0
880.0
888.0
896.0
899.0
910.0
916.0
924.0
937.0
945.0
954.0
961.0
968.0
978.0
985.0
994.0
1002.0
1012.0
1020.0
1025.0
1027.0
1030.0
1031.0
1034.0
1036.0
1039.0
1040.0
1039.0
1039.0
1037.0
1034.0
1032.0
1031.0
1029.0
1026.0
1024.0
1018.0
1012.0
1008.0
1004.0
1000.0
999.0
996.0
990.0
984.0
975.0
968.0
961.0
957.0
954.0
950.0
944.0
938.0
934.0
931.0
928.0
927.0
923.0
920.0
916.0
914.0
909.0
908.0
908.0
912.0
913.0
914.0
912.0
913.0
912.0
915.0
920.0
926.0
936.0
943.0
945.0
952.0
954.0
958.0
964.0
967.0
966.0
961.0
954.0
944.0
933.0
923.0
913.0
905.0
897.0
891.0
884.0
876.0
876.0
876.0
878.0
879.0
880.0
881.0
876.0
877.0
874.0
875.0
876.0
879.0
879.0
877.0
875.0
873.0
874.0
876.0
878.0
876.0
876.0
875.0
871.0
867.0
870.0
885.0
919.0
965.0
1033.0
1112.0
1205.0
1297.0
1370.0
1409.0
1409.0
1365.0
1292.0
1203.0
1104.0
1018.0
942.0
877.0
821.0
783.0
766.0
767.0
785.0
810.0
833.0
846.0
848.0
841.0
834.0
822.0
816.0
815.0
816.0
820.0
820.0
818.0
814.0
809.0
806.0
803.0
803.0
803.0
803.0
803.0
803.0
799.0
797.0
797.0
796.0
795.0
792.0
791.0
793.0
794.0
793.0
797.0
801.0
804.0
807.0
811.0
813.0
817.0
821.0
827.0
832.0
834.0
843.0
850.0
856.0
867.0
879.0
887.0
898.0
905.0
911.0
918.0
926.0
937.0
948.0
959.0
970.0
976.0
985.0
994.0
999.0
1007.0
1016.0
1024.0
1030.0
1035.0
1041.0
1044.0
1047.0
1052.0
1054.0
1057.0
1057.0
1059.0
1057.0
1055.0
1052.0
1050.0
1051.0
1052.0
1051.0
1050.0
1045.0
1042.0
1037.0
1029.0
1025.0
1024.0
1021.0
1020.0
1017.0
1014.0
1008.0
1004.0
1001.0
996.0
991.0
983.0
975.0
966.0
960.0
955.0
954.0
952.0
950.0
949.0
942.0
939.0
936.0
932.0
931.0
934.0
934.0
932.0
932.0
931.0
935.0
939.0
943.0
950.0
956.0
962.0
965.0
968.0
970.0
973.0
980.0
986.0
989.0
989.0
988.0
984.0
976.0
967.0
956.0
944.0
932.0
921.0
910.0
901.0
896.0
894.0
901.0
903.0
903.0
902.0
900.0
895.0
894.0
893.0
894.0
895.0
897.0
900.0
901.0
901.0
898.0
898.0
894.0
895.0
899.0
901.0
899.0
900.0
897.0
894.0
894.0
898.0
910.0
940.0
981.0
1037.0
1104.0
1185.0
1267.0
1342.0
1396.0
1411.0
1384.0
1322.0
1242.0
1154.0
1067.0
996.0
937.0
893.0
853.0
820.0
792.0
780.0
785.0
804.0
826.0
845.0
859.0
862.0
860.0
851.0
845.0
843.0
846.0
847.0
847.0
849.0
846.0
843.0
839.0
838.0
837.0
836.0
837.0
839.0
836.0
835.0
834.0
831.0
833.0
832.0
835.0
834.0
833.0
832.0
831.0
830.0
835.0
840.0
848.0
851.0
854.0
857.0
859.0
861.0
868.0
874.0
883.0
888.0
890.0
895.0
898.0
903.0
911.0
922.0
929.0
936.0
945.0
951.0
959.0
969.0
978.0
989.0
997.0
1004.0
1010.0
1012.0
1016.0
1021.0
1030.0
1037.0
1047.0
1056.0
1059.0
1064.0
1064.0
1063.0
1062.0
1064.0
1065.0
1063.0
1059.0
1058.0
1056.0
1056.0
1057.0
1056.0
1055.0
1052.0
1043.0
1038.0
1031.0
1023.0
1020.0
1015.0
1011.0
1006.0
1000.0
1000.0
994.0
989.0
985.0
980.0
976.0
973.0
966.0
959.0
952.0
945.0
942.0
938.0
930.0
925.0
919.0
915.0
910.0
908.0
905.0
907.0
907.0
907.0
908.0
908.0
907.0
906.0
905.0
905.0
905.0
908.0
912.0
921.0
932.0
940.0
951.0
955.0
960.0
962.0
959.0
963.0
968.0
972.0
974.0
973.0
969.0
957.0
949.0
933.0
919.0
909.0
903.0
896.0
892.0
891.0
888.0
889.0
893.0
895.0
895.0
894.0
892.0
888.0
885.0
882.0
884.0
890.0
892.0
894.0
895.0
895.0
894.0
892.0
892.0
893.0
893.0
890.0
887.0
881.0
882.0
902.0
935.0
985.0
1050.0
1132.0
1220.0
1306.0
1379.0
1421.0
1418.0
1368.0
1292.0
1200.0
1108.0
1018.0
938.0
867.0
807.0
761.0
735.0
729.0
743.0
764.0
791.0
814.0
830.0
839.0
837.0
831.0
826.0
820.0
817.0
815.0
816.0
814.0
818.0
817.0
816.0
813.0
814.0
812.0
811.0
813.0
815.0
813.0
810.0
808.0
805.0
804.0
806.0
812.0
816.0
820.0
822.0
823.0
822.0
822.0
824.0
827.0
836.0
841.0
846.0
849.0
851.0
855.0
858.0
863.0
871.0
875.0
882.0
883.0
888.0
895.0
901.0
908.0
916.0
923.0
931.0
938.0
943.0
946.0
951.0
958.0
966.0
975.0
984.0
990.0
996.0
1003.0
1008.0
1013.0
1018.0
1024.0
1028.0
1031.0
1029.0
1029.0
1033.0
1036.0
1037.0
1041.0
1043.0
1040.0
1037.0
1032.0
1027.0
1026.0
1019.0
1017.0
1014.0
1014.0
1009.0
1004.0
997.0
992.0
986.0
981.0
980.0
973.0
969.0
963.0
959.0
952.0
952.0
948.0
945.0
941.0
936.0
927.0
919.0
912.0
910.0
907.0
911.0
909.0
910.0
910.0
907.0
907.0
904.0
902.0
903.0
903.0
900.0
900.0
902.0
903.0
909.0
916.0
925.0
931.0
936.0
941.0
945.0
948.0
954.0
959.0
967.0
970.0
973.0
974.0
972.0
967.0
961.0
957.0
949.0
941.0
931.0
917.0
906.0
899.0
890.0
889.0
885.0
885.0
887.0
885.0
883.0
882.0
879.0
881.0
880.0
884.0
888.0
887.0
888.0
887.0
884.0
879.0
878.0
877.0
879.0
881.0
884.0
882.0
882.0
876.0
872.0
869.0
865.0
871.0
887.0
913.0
952.0
1003.0
1066.0
1139.0
1218.0
1298.0
1363.0
1397.0
1388.0
1337.0
1261.0
1167.0
1072.0
987.0
914.0
854.0
804.0
761.0
731.0
721.0
731.0
754.0
783.0
808.0
826.0
833.0
832.0
824.0
819.0
815.0
814.0
814.0
812.0
811.0
806.0
803.0
802.0
800.0
802.0
804.0
804.0
803.0
802.0
799.0
796.0
793.0
793.0
795.0
796.0
795.0
795.0
796.0
798.0
799.0
803.0
805.0
807.0
811.0
811.0
811.0
816.0
819.0
824.0
830.0
834.0
840.0
847.0
850.0
852.0
858.0
867.0
874.0
883.0
892.0
901.0
907.0
914.0
923.0
932.0
939.0
948.0
954.0
959.0
961.0
970.0
977.0
987.0
999.0
1010.0
1018.0
1024.0
1027.0
1029.0
1032.0
1037.0
1041.0
1042.0
1048.0
1049.0
1050.0
1048.0
1046.0
1046.0
1043.0
1039.0
1038.0
1035.0
1031.0
1029.0
1025.0
1021.0
1021.0
1016.0
1013.0
1004.0
996.0
991.0
984.0
979.0
978.0
974.0
970.0
966.0
959.0
954.0
949.0
946.0
941.0
937.0
932.0
929.0
922.0
914.0
915.0
919.0
921.0
922.0
925.0
921.0
918.0
914.0
914.0
917.0
923.0
928.0
936.0
941.0
949.0
953.0
959.0
962.0
967.0
973.0
977.0
978.0
977.0
975.0
973.0
970.0
965.0
959.0
947.0
935.0
922.0
910.0
902.0
895.0
893.0
895.0
893.0
893.0
895.0
896.0
895.0
893.0
895.0
895.0
895.0
895.0
891.0
889.0
889.0
890.0
893.0
897.0
904.0
905.0
904.0
899.0
894.0
890.0
886.0
881.0
883.0
894.0
912.0
946.0
993.0
1056.0
1131.0
1215.0
1297.0
1368.0
1411.0
1416.0
1383.0
1326.0
1256.0
1180.0
1104.0
1029.0
955.0
887.0
826.0
780.0
757.0
759.0
781.0
810.0
836.0
855.0
861.0
856.0
848.0
840.0
835.0
831.0
830.0
829.0
829.0
830.0
829.0
829.0
828.0
828.0
827.0
824.0
821.0
816.0
814.0
810.0
811.0
812.0
813.0
815.0
813.0
812.0
813.0
810.0
808.0
810.0
813.0
814.0
815.0
819.0
822.0
824.0
830.0
833.0
839.0
838.0
844.0
848.0
851.0
858.0
868.0
876.0
889.0
900.0
907.0
914.0
922.0
931.0
940.0
947.0
954.0
960.0
968.0
975.0
985.0
993.0
1003.0
1016.0
1024.0
1031.0
1035.0
1041.0
1045.0
1050.0
1057.0
1063.0
1070.0
1074.0
1080.0
1079.0
1074.0
1075.0
1072.0
1069.0
1070.0
1068.0
1066.0
1063.0
1058.0
1056.0
1050.0
1050.0
1048.0
1043.0
1034.0
1030.0
1027.0
1022.0
1020.0
1018.0
1015.0
1015.0
1012.0
1004.0
998.0
989.0
983.0
977.0
971.0
969.0
965.0
961.0
960.0
955.0
951.0
943.0
942.0
942.0
940.0
936.0
933.0
930.0
930.0
929.0
929.0
932.0
934.0
938.0
943.0
948.0
952.0
957.0
960.0
966.0
972.0
977.0
982.0
987.0
987.0
993.0
994.0
994.0
993.0
990.0
984.0
974.0
961.0
949.0
938.0
926.0
919.0
918.0
917.0
912.0
909.0
906.0
905.0
904.0
906.0
905.0
909.0
910.0
909.0
906.0
902.0
901.0
903.0
901.0
904.0
903.0
905.0
903.0
904.0
905.0
904.0
906.0
900.0
897.0
893.0
893.0
900.0
920.0
957.0
1008.0
1070.0
1138.0
1219.0
1298.0
1362.0
1393.0
1378.0
1321.0
1235.0
1134.0
1035.0
947.0
875.0
824.0
785.0
760.0
750.0
759.0
775.0
798.0
819.0
831.0
840.0
842.0
842.0
838.0
833.0
830.0
828.0
826.0
826.0
825.0
823.0
820.0
819.0
817.0
816.0
815.0
815.0
816.0
817.0
817.0
815.0
815.0
813.0
815.0
817.0
817.0
821.0
825.0
828.0
831.0
835.0
838.0
841.0
844.0
849.0
852.0
855.0
858.0
862.0
871.0
878.0
888.0
894.0
900.0
906.0
908.0
915.0
924.0
934.0
944.0
953.0
959.0
964.0
970.0
975.0
982.0
990.0
999.0
1004.0
1012.0
1019.0
1025.0
1033.0
1035.0
1042.0
1048.0
1050.0
1048.0
1047.0
1047.0
1043.0
1044.0
1043.0
1043.0
1040.0
1036.0
1032.0
1028.0
1023.0
1019.0
1014.0
1010.0
1002.0
993.0
988.0
984.0
982.0
980.0
977.0
974.0
968.0
961.0
954.0
947.0
939.0
936.0
930.0
927.0
921.0
918.0
913.0
911.0
910.0
908.0
903.0
899.0
896.0
894.0
898.0
901.0
906.0
909.0
910.0
903.0
901.0
901.0
904.0
909.0
916.0
924.0
931.0
939.0
946.0
953.0
961.0
966.0
969.0
972.0
972.0
968.0
964.0
957.0
951.0
939.0
929.0
919.0
909.0
901.0
896.0
897.0
895.0
892.0
890.0
888.0
887.0
887.0
888.0
891.0
894.0
895.0
895.0
895.0
895.0
896.0
895.0
894.0
895.0
895.0
894.0
894.0
892.0
888.0
890.0
887.0
888.0
896.0
917.0
950.0
1002.0
1064.0
1140.0
1223.0
1303.0
1369.0
1412.0
1421.0
1393.0
1329.0
1246.0
1152.0
1057.0
969.0
892.0
827.0
774.0
744.0
738.0
750.0
772.0
797.0
817.0
829.0
835.0
833.0
830.0
826.0
824.0
822.0
821.0
820.0
816.0
814.0
814.0
810.0
810.0
814.0
812.0
812.0
810.0
807.0
806.0
805.0
806.0
806.0
806.0
803.0
803.0
802.0
805.0
808.0
811.0
820.0
823.0
822.0
823.0
823.0
822.0
827.0
833.0
839.0
847.0
851.0
857.0
860.0
865.0
874.0
881.0
888.0
894.0
898.0
901.0
906.0
913.0
921.0
931.0
939.0
949.0
957.0
962.0
965.0
971.0
977.0
986.0
995.0
1003.0
1013.0
1020.0
1025.0
1028.0
1032.0
1037.0
1042.0
1045.0
1044.0
1044.0
1044.0
1041.0
1043.0
1044.0
1047.0
1049.0
1044.0
1039.0
1031.0
1027.0
1023.0
1018.0
1017.0
1014.0
1010.0
1008.0
1001.0
993.0
989.0
982.0
979.0
975.0
970.0
964.0
959.0
953.0
949.0
946.0
943.0
940.0
933.0
928.0
925.0
922.0
920.0
920.0
925.0
927.0
926.0
926.0
923.0
920.0
921.0
922.0
928.0
932.0
938.0
944.0
951.0
952.0
958.0
964.0
969.0
975.0
980.0
982.0
979.0
978.0
977.0
974.0
968.0
958.0
945.0
932.0
916.0
904.0
898.0
897.0
897.0
896.0
895.0
892.0
893.0
891.0
893.0
895.0
897.0
897.0
896.0
892.0
890.0
890.0
889.0
891.0
895.0
897.0
899.0
897.0
895.0
892.0
887.0
887.0
884.0
885.0
898.0
925.0
963.0
1015.0
1075.0
1149.0
1228.0
1305.0
1371.0
1406.0
1401.0
1357.0
1284.0
1197.0
1099.0
1005.0
922.0
851.0
791.0
755.0
741.0
749.0
771.0
801.0
826.0
844.0
850.0
849.0
842.0
836.0
833.0
833.0
830.0
828.0
827.0
826.0
825.0
825.0
827.0
826.0
826.0
825.0
820.0
818.0
816.0
816.0
815.0
816.0
813.0
811.0
811.0
812.0
816.0
817.0
822.0
822.0
824.0
821.0
822.0
822.0
827.0
832.0
837.0
845.0
854.0
857.0
866.0
874.0
880.0
888.0
895.0
898.0
903.0
910.0
920.0
930.0
941.0
950.0
961.0
970.0
977.0
987.0
992.0
998.0
1007.0
1019.0
1026.0
1032.0
1041.0
1044.0
1050.0
1054.0
1057.0
1063.0
1064.0
1065.0
1062.0
1063.0
1063.0
1063.0
1063.0
1061.0
1059.0
1052.0
1048.0
1042.0
1040.0
1037.0
1034.0
1032.0
1029.0
1022.0
1017.0
1014.0
1008.0
1005.0
997.0
994.0
987.0
979.0
971.0
965.0
962.0
961.0
959.0
958.0
952.0
947.0
941.0
936.0
932.0
930.0
931.0
925.0
925.0
927.0
927.0
928.0
931.0
936.0
937.0
939.0
939.0
944.0
947.0
952.0
958.0
966.0
970.0
976.0
981.0
984.0
986.0
986.0
987.0
984.0
981.0
973.0
965.0
952.0
940.0
928.0
919.0
914.0
908.0
909.0
904.0
904.0
902.0
903.0
903.0
906.0
908.0
908.0
907.0
907.0
905.0
904.0
905.0
907.0
906.0
907.0
907.0
905.0
905.0
908.0
908.0
907.0
906.0
902.0
904.0
912.0
932.0
969.0
1024.0
1087.0
1163.0
1239.0
1315.0
1374.0
1398.0
1378.0
1317.0
1233.0
1135.0
1035.0
953.0
888.0
845.0
815.0
798.0
797.0
804.0
820.0
841.0
858.0
866.0
870.0
866.0
861.0
856.0
853.0
850.0
849.0
848.0
847.0
846.0
847.0
840.0
839.0
840.0
839.0
842.0
844.0
845.0
845.0
842.0
839.0
836.0
835.0
834.0
835.0
838.0
838.0
844.0
849.0
852.0
858.0
862.0
865.0
870.0
870.0
873.0
877.0
882.0
891.0
899.0
910.0
919.0
925.0
932.0
937.0
944.0
950.0
958.0
965.0
976.0
979.0
986.0
991.0
997.0
1004.0
1013.0
1022.0
1030.0
1036.0
1042.0
1044.0
1054.0
1057.0
1066.0
1070.0
1076.0
1078.0
1078.0
1076.0
1074.0
1072.0
1071.0
1071.0
1071.0
1068.0
1065.0
1064.0
1059.0
1052.0
1048.0
1047.0
1044.0
1039.0
1031.0
1026.0
1019.0
1012.0
1008.0
1007.0
1005.0
1001.0
998.0
991.0
984.0
976.0
970.0
966.0
964.0
962.0
956.0
952.0
947.0
943.0
941.0
937.0
935.0
931.0
927.0
924.0
923.0
920.0
922.0
923.0
925.0
927.0
924.0
924.0
919.0
920.0
920.0
926.0
935.0
943.0
953.0
962.0
967.0
970.0
976.0
981.0
982.0
986.0
984.0
984.0
979.0
977.0
975.0
969.0
961.0
953.0
943.0
930.0
919.0
912.0
909.0
909.0
911.0
913.0
914.0
915.0
913.0
911.0
910.0
910.0
910.0
908.0
909.0
910.0
908.0
909.0
914.0
915.0
919.0
919.0
919.0
917.0
915.0
914.0
911.0
912.0
914.0
928.0
950.0
989.0
1036.0
1096.0
1164.0
1234.0
1303.0
1353.0
1377.0
1365.0
1318.0
1255.0
1184.0
1114.0
1042.0
973.0
910.0
852.0
806.0
773.0
763.0
770.0
792.0
815.0
834.0
849.0
854.0
854.0
844.0
841.0
837.0
835.0
834.0
834.0
835.0
834.0
834.0
833.0
832.0
831.0
828.0
825.0
820.0
820.0
819.0
820.0
825.0
827.0
829.0
832.0
832.0
832.0
829.0
830.0
831.0
833.0
837.0
841.0
844.0
848.0
853.0
859.0
865.0
868.0
869.0
877.0
877.0
882.0
883.0
890.0
900.0
908.0
917.0
922.0
929.0
936.0
941.0
948.0
956.0
963.0
972.0
976.0
982.0
987.0
992.0
999.0
1006.0
1013.0
1021.0
1025.0
1033.0
1035.0
1038.0
1039.0
1044.0
1049.0
1051.0
1053.0
1052.0
1050.0
1048.0
1047.0
1046.0
1043.0
1043.0
1039.0
1037.0
1035.0
1031.0
1026.0
1021.0
1016.0
1013.0
1009.0
1005.0
995.0
988.0
981.0
974.0
975.0
974.0
972.0
969.0
964.0
958.0
951.0
946.0
941.0
937.0
933.0
932.0
927.0
923.0
924.0
923.0
923.0
923.0
921.0
922.0
922.0
917.0
917.0
918.0
919.0
919.0
927.0
932.0
939.0
943.0
949.0
954.0
959.0
963.0
966.0
974.0
979.0
981.0
983.0
986.0
987.0
986.0
982.0
978.0
970.0
956.0
943.0
932.0
924.0
918.0
917.0
916.0
916.0
913.0
912.0
910.0
908.0
905.0
904.0
906.0
906.0
908.0
911.0
909.0
908.0
909.0
911.0
911.0
910.0
909.0
909.0
909.0
909.0
907.0
907.0
909.0
907.0
907.0
910.0
921.0
947.0
989.0
1041.0
1106.0
1177.0
1250.0
1322.0
1377.0
1410.0
1406.0
1363.0
1294.0
1208.0
1115.0
1021.0
941.0
872.0
821.0
783.0
768.0
772.0
792.0
814.0
836.0
852.0
859.0
859.0
855.0
851.0
845.0
841.0
838.0
838.0
837.0
837.0
836.0
838.0
836.0
835.0
834.0
832.0
831.0
831.0
832.0
833.0
833.0
832.0
831.0
828.0
825.0
824.0
825.0
828.0
833.0
838.0
838.0
839.0
840.0
842.0
844.0
847.0
854.0
857.0
862.0
865.0
870.0
874.0
880.0
890.0
893.0
901.0
906.0
911.0
915.0
921.0
930.0
941.0
951.0
962.0
970.0
979.0
985.0
989.0
994.0
1001.0
1008.0
1017.0
1023.0
1032.0
1038.0
1041.0
1050.0
1059.0
1067.0
1071.0
1074.0
1077.0
1075.0
1073.0
1075.0
1075.0
1077.0
1080.0
1078.0
1075.0
1072.0
1066.0
1057.0
1054.0
1048.0
1048.0
1044.0
1042.0
1035.0
1033.0
1026.0
1023.0
1021.0
1018.0
1012.0
1008.0
1000.0
993.0
987.0
982.0
977.0
977.0
977.0
975.0
970.0
964.0
958.0
950.0
946.0
945.0
945.0
946.0
945.0
944.0
944.0
944.0
942.0
942.0
940.0
940.0
942.0
944.0
947.0
952.0
960.0
971.0
979.0
987.0
993.0
995.0
998.0
996.0
996.0
998.0
1000.0
1002.0
1001.0
999.0
990.0
980.0
967.0
956.0
947.0
938.0
930.0
924.0
920.0
917.0
915.0
917.0
920.0
921.0
922.0
920.0
919.0
916.0
912.0
911.0
914.0
919.0
920.0
924.0
924.0
924.0
923.0
920.0
919.0
918.0
918.0
916.0
916.0
912.0
912.0
922.0
942.0
977.0
1026.0
1083.0
1150.0
1221.0
1296.0
1365.0
1414.0
1426.0
1395.0
1333.0
1245.0
1143.0
1042.0
950.0
874.0
816.0
781.0
767.0
777.0
799.0
825.0
855.0
870.0
881.0
880.0
873.0
864.0
855.0
850.0
847.0
847.0
850.0
855.0
855.0
854.0
851.0
844.0
841.0
840.0
837.0
838.0
838.0
836.0
835.0
835.0
834.0
837.0
838.0
839.0
838.0
837.0
838.0
837.0
841.0
846.0
852.0
858.0
862.0
863.0
867.0
867.0
875.0
880.0
887.0
894.0
900.0
907.0
911.0
919.0
926.0
933.0
944.0
953.0
959.0
965.0
972.0
978.0
989.0
997.0
1007.0
1017.0
1024.0
1031.0
1037.0
1042.0
1048.0
1055.0
1063.0
1068.0
1072.0
1078.0
1080.0
1082.0
1085.0
1086.0
1087.0
1087.0
1085.0
1081.0
1077.0
1071.0
1066.0
1067.0
1067.0
1067.0
1066.0
1062.0
1055.0
1048.0
1039.0
1035.0
1027.0
1021.0
1018.0
1016.0
1010.0
1005.0
1001.0
999.0
999.0
998.0
993.0
989.0
982.0
975.0
968.0
964.0
959.0
956.0
956.0
952.0
947.0
943.0
939.0
936.0
939.0
939.0
941.0
942.0
942.0
945.0
949.0
953.0
962.0
969.0
977.0
980.0
984.0
985.0
989.0
991.0
997.0
1001.0
1003.0
1003.0
1000.0
992.0
984.0
978.0
964.0
953.0
942.0
932.0
925.0
923.0
924.0
927.0
932.0
934.0
933.0
932.0
928.0
924.0
922.0
922.0
927.0
931.0
935.0
935.0
936.0
933.0
933.0
931.0
933.0
932.0
932.0
932.0
931.0
928.0
926.0
934.0
951.0
981.0
1024.0
1079.0
1144.0
1219.0
1298.0
1368.0
1417.0
1428.0
1396.0
1326.0
1237.0
1139.0
1044.0
964.0
899.0
853.0
816.0
794.0
789.0
796.0
817.0
841.0
867.0
883.0
887.0
886.0
874.0
863.0
859.0
859.0
860.0
863.0
866.0
866.0
864.0
858.0
853.0
852.0
846.0
848.0
849.0
851.0
851.0
852.0
851.0
850.0
850.0
849.0
849.0
848.0
847.0
848.0
847.0
851.0
856.0
861.0
866.0
872.0
876.0
875.0
880.0
883.0
889.0
890.0
895.0
905.0
909.0
920.0
926.0
929.0
939.0
946.0
