# Simple Text Format
# Sampling Rate (Hz):= 360.00
# Resolution:= 12
# Labels:= ECG
864.0
864.0
865.0
863.0
860.0
859.0
856.0
854.0
853.0
855.0
858.0
860.0
864.0
864.0
865.0
867.0
873.0
873.0
877.0
881.0
882.0
883.0
886.0
890.0
893.0
901.0
909.0
917.0
924.0
929.0
934.0
939.0
948.0
955.0
965.0
978.0
984.0
993.0
999.0
1005.0
1008.0
1015.0
1020.0
1027.0
1036.0
1044.0
1051.0
1061.0
1070.0
1076.0
1084.0
1087.0
1091.0
1091.0
1091.0
1090.0
1088.0
1089.0
1089.0
1091.0
1088.0
1088.0
1086.0
1086.0
1083.0
1078.0
1075.0
1071.0
1063.0
1061.0
1054.0
1048.0
1048.0
1045.0
1045.0
1043.0
1040.0
1033.0
1026.0
1018.0
1009.0
1005.0
1004.0
1004.0
1001.0
995.0
989.0
982.0
975.0
969.0
964.0
962.0
956.0
952.0
951.0
946.0
944.0
944.0
947.0
947.0
947.0
947.0
944.0
938.0
937.0
934.0
936.0
941.0
947.0
952.0
962.0
966.0
973.0
983.0
989.0
993.0
996.0
997.0
999.0
1001.0
1004.0
1008.0
1012.0
1012.0
1011.0
1001.0
988.0
972.0
956.0
947.0
937.0
935.0
934.0
933.0
936.0
936.0
934.0
931.0
930.0
929.0
932.0
933.0
933.0
932.0
931.0
930.0
933.0
935.0
936.0
937.0
937.0
933.0
931.0
927.0
924.0
923.0
924.0
925.0
931.0
946.0
976.0
1019.0
1079.0
1150.0
1232.0
1319.0
1392.0
1438.0
1444.0
1410.0
1349.0
1276.0
1197.0
1119.0
1043.0
975.0
912.0
854.0
807.0
779.0
775.0
788.0
814.0
842.0
863.0
876.0
878.0
876.0
872.0
865.0
863.0
860.0
861.0
860.0
858.0
857.0
860.0
859.0
858.0
855.0
852.0
847.0
843.0
843.0
844.0
849.0
856.0
857.0
856.0
854.0
852.0
851.0
849.0
851.0
854.0
859.0
864.0
867.0
869.0
872.0
874.0
877.0
882.0
884.0
888.0
889.0
891.0
898.0
902.0
911.0
920.0
927.0
934.0
939.0
942.0
948.0
955.0
962.0
971.0
983.0
987.0
995.0
1001.0
1005.0
1010.0
1017.0
1024.0
1030.0
1037.0
1041.0
1047.0
1053.0
1059.0
1065.0
1072.0
1076.0
1080.0
1079.0
1077.0
1076.0
1075.0
1077.0
1079.0
1080.0
1080.0
1075.0
1073.0
1068.0
1063.0
1057.0
1051.0
1049.0
1042.0
1036.0
1029.0
1023.0
1018.0
1018.0
1016.0
1013.0
1011.0
1003.0
997.0
991.0
984.0
976.0
976.0
972.0
970.0
965.0
961.0
958.0
955.0
955.0
954.0
953.0
952.0
950.0
949.0
946.0
949.0
951.0
953.0
954.0
955.0
961.0
964.0
969.0
977.0
984.0
992.0
999.0
1003.0
1007.0
1011.0
1013.0
1015.0
1014.0
1012.0
1009.0
1000.0
993.0
981.0
970.0
961.0
955.0
948.0
942.0
936.0
934.0
932.0
931.0
933.0
932.0
934.0
933.0
933.0
932.0
932.0
933.0
932.0
933.0
933.0
930.0
929.0
926.0
925.0
928.0
930.0
931.0
931.0
927.0
923.0
922.0
930.0
956.0
1002.0
1062.0
1135.0
1220.0
1303.0
1379.0
1432.0
1448.0
1421.0
1362.0
1289.0
1213.0
1133.0
1051.0
975.0
905.0
846.0
801.0
779.0
782.0
798.0
824.0
850.0
868.0
880.0
877.0
869.0
859.0
854.0
851.0
850.0
850.0
854.0
854.0
853.0
848.0
844.0
839.0
838.0
839.0
841.0
844.0
846.0
844.0
843.0
840.0
839.0
837.0
837.0
839.0
844.0
845.0
848.0
849.0
853.0
854.0
857.0
863.0
867.0
865.0
866.0
866.0
868.0
874.0
882.0
890.0
900.0
907.0
914.0
921.0
926.0
931.0
938.0
947.0
955.0
963.0
970.0
977.0
984.0
990.0
1000.0
1007.0
1014.0
1022.0
1026.0
1029.0
1034.0
1040.0
1049.0
1060.0
1069.0
1076.0
1076.0
1078.0
1078.0
1077.0
1077.0
1076.0
1073.0
1076.0
1074.0
1069.0
1068.0
1064.0
1064.0
1061.0
1060.0
1053.0
1045.0
1035.0
1028.0
1025.0
1026.0
1024.0
1024.0
1021.0
1016.0
1007.0
1000.0
992.0
990.0
987.0
982.0
978.0
974.0
970.0
966.0
963.0
960.0
959.0
958.0
954.0
948.0
942.0
940.0
943.0
942.0
945.0
948.0
949.0
951.0
954.0
955.0
960.0
966.0
971.0
976.0
980.0
985.0
987.0
992.0
997.0
1004.0
1007.0
1008.0
1003.0
998.0
986.0
974.0
963.0
952.0
944.0
938.0
930.0
925.0
921.0
916.0
914.0
915.0
915.0
916.0
916.0
917.0
915.0
915.0
915.0
917.0
918.0
918.0
914.0
914.0
910.0
908.0
911.0
911.0
913.0
909.0
913.0
909.0
905.0
904.0
914.0
938.0
974.0
1022.0
1076.0
1137.0
1207.0
1286.0
1360.0
1414.0
1436.0
1415.0
1360.0
1280.0
1189.0
1096.0
1013.0
940.0
881.0
831.0
796.0
775.0
775.0
789.0
810.0
832.0
855.0
868.0
871.0
865.0
858.0
853.0
846.0
846.0
848.0
851.0
847.0
849.0
846.0
843.0
843.0
840.0
840.0
842.0
841.0
843.0
841.0
838.0
835.0
835.0
836.0
835.0
838.0
836.0
837.0
840.0
841.0
845.0
847.0
851.0
851.0
852.0
857.0
855.0
863.0
870.0
879.0
890.0
897.0
903.0
907.0
910.0
917.0
921.0
930.0
940.0
949.0
958.0
964.0
974.0
984.0
995.0
1004.0
1012.0
1018.0
1024.0
1028.0
1036.0
1044.0
1055.0
1063.0
1072.0
1078.0
1079.0
1081.0
1080.0
1082.0
1082.0
1082.0
1084.0
1081.0
1080.0
1077.0
1076.0
1077.0
1074.0
1074.0
1070.0
1066.0
1058.0
1051.0
1046.0
1043.0
1039.0
1036.0
1033.0
1028.0
1026.0
1020.0
1015.0
1013.0
1005.0
1002.0
998.0
991.0
986.0
980.0
977.0
977.0
974.0
972.0
967.0
964.0
958.0
957.0
955.0
957.0
956.0
954.0
954.0
953.0
955.0
958.0
964.0
970.0
977.0
982.0
987.0
993.0
1000.0
1004.0
1009.0
1015.0
1016.0
1015.0
1010.0
1003.0
992.0
982.0
969.0
958.0
946.0
936.0
932.0
924.0
919.0
920.0
921.0
922.0
920.0
918.0
917.0
915.0
915.0
919.0
921.0
923.0
923.0
924.0
919.0
918.0
917.0
916.0
916.0
919.0
919.0
914.0
911.0
909.0
913.0
925.0
954.0
1000.0
1058.0
1130.0
1214.0
1303.0
1383.0
1440.0
1457.0
1428.0
1363.0
1274.0
1172.0
1072.0
981.0
906.0
847.0
805.0
787.0
792.0
811.0
835.0
866.0
882.0
888.0
884.0
875.0
863.0
856.0
854.0
855.0
856.0
859.0
860.0
856.0
857.0
855.0
853.0
852.0
851.0
850.0
850.0
848.0
851.0
847.0
851.0
850.0
855.0
855.0
856.0
855.0
855.0
855.0
859.0
867.0
873.0
878.0
881.0
886.0
886.0
889.0
890.0
902.0
909.0
918.0
924.0
931.0
936.0
944.0
952.0
959.0
968.0
976.0
982.0
987.0
994.0
1000.0
1010.0
1021.0
1032.0
1041.0
1049.0
1058.0
1065.0
1069.0
1078.0
1083.0
1086.0
1089.0
1091.0
1089.0
1093.0
1096.0
1097.0
1101.0
1100.0
1099.0
1094.0
1091.0
1088.0
1085.0
1083.0
1082.0
1078.0
1075.0
1070.0
1065.0
1059.0
1049.0
1046.0
1041.0
1035.0
1030.0
1022.0
1018.0
1017.0
1014.0
1011.0
1007.0
1000.0
993.0
984.0
976.0
974.0
969.0
966.0
964.0
962.0
957.0
954.0
948.0
947.0
946.0
945.0
942.0
942.0
936.0
936.0
933.0
932.0
933.0
938.0
943.0
951.0
958.0
964.0
973.0
979.0
986.0
990.0
999.0
1004.0
1006.0
1009.0
1006.0
1004.0
1002.0
995.0
985.0
971.0
958.0
948.0
942.0
938.0
936.0
933.0
932.0
930.0
926.0
924.0
923.0
924.0
926.0
931.0
931.0
931.0
932.0
931.0
931.0
934.0
934.0
934.0
932.0
929.0
924.0
924.0
922.0
922.0
927.0
927.0
928.0
933.0
948.0
976.0
1017.0
1074.0
1147.0
1227.0
1310.0
1381.0
1427.0
1432.0
1392.0
1325.0
1243.0
1156.0
1069.0
989.0
919.0
857.0
812.0
781.0
772.0
782.0
800.0
826.0
849.0
864.0
873.0
873.0
868.0
867.0
865.0
861.0
859.0
858.0
858.0
857.0
857.0
857.0
857.0
856.0
852.0
850.0
847.0
845.0
848.0
852.0
851.0
853.0
850.0
849.0
846.0
847.0
852.0
857.0
860.0
860.0
862.0
866.0
866.0
869.0
872.0
877.0
882.0
888.0
892.0
897.0
905.0
910.0
918.0
927.0
932.0
938.0
940.0
945.0
945.0
950.0
961.0
970.0
980.0
987.0
995.0
1002.0
1010.0
1016.0
1023.0
1030.0
1037.0
1045.0
1047.0
1053.0
1055.0
1061.0
1066.0
1071.0
1077.0
1079.0
1078.0
1077.0
1075.0
1073.0
1072.0
1075.0
1074.0
1071.0
1069.0
1065.0
1058.0
1056.0
1052.0
1048.0
1045.0
1038.0
1032.0
1025.0
1022.0
1016.0
1014.0
1014.0
1009.0
1001.0
994.0
987.0
982.0
977.0
973.0
971.0
972.0
969.0
965.0
960.0
956.0
954.0
950.0
948.0
948.0
945.0
942.0
942.0
942.0
941.0
941.0
943.0
944.0
946.0
946.0
947.0
952.0
955.0
961.0
970.0
979.0
990.0
993.0
994.0
997.0
999.0
1000.0
1003.0
1005.0
1001.0
996.0
988.0
978.0
968.0
956.0
946.0
938.0
929.0
922.0
915.0
913.0
909.0
910.0
911.0
913.0
914.0
917.0
915.0
911.0
906.0
905.0
906.0
907.0
909.0
907.0
907.0
908.0
908.0
909.0
908.0
906.0
904.0
899.0
895.0
892.0
895.0
902.0
928.0
969.0
1023.0
1090.0
1170.0
1256.0
1339.0
1402.0
1435.0
1431.0
1388.0
1321.0
1244.0
1162.0
1078.0
1000.0
932.0
872.0
821.0
784.0
770.0
769.0
786.0
808.0
832.0
852.0
859.0
860.0
858.0
853.0
844.0
838.0
834.0
831.0
831.0
830.0
831.0
832.0
831.0
828.0
827.0
825.0
825.0
825.0
824.0
824.0
824.0
822.0
819.0
819.0
818.0
818.0
818.0
823.0
824.0
822.0
820.0
820.0
821.0
823.0
827.0
830.0
838.0
839.0
842.0
845.0
847.0
852.0
857.0
866.0
872.0
879.0
883.0
891.0
896.0
905.0
910.0
921.0
928.0
937.0
942.0
947.0
953.0
961.0
970.0
980.0
990.0
997.0
1006.0
1012.0
1018.0
1021.0
1027.0
1035.0
1042.0
1046.0
1051.0
1052.0
1054.0
1057.0
1064.0
1066.0
1067.0
1066.0
1063.0
1055.0
1050.0
1047.0
1048.0
1044.0
1048.0
1047.0
1045.0
1039.0
1032.0
1028.0
1022.0
1018.0
1016.0
1010.0
1006.0
1000.0
996.0
991.0
990.0
988.0
986.0
984.0
977.0
970.0
964.0
957.0
953.0
950.0
949.0
949.0
950.0
948.0
947.0
941.0
936.0
934.0
933.0
932.0
938.0
938.0
942.0
944.0
946.0
950.0
956.0
962.0
966.0
974.0
976.0
977.0
980.0
981.0
988.0
993.0
992.0
996.0
993.0
984.0
971.0
959.0
947.0
936.0
928.0
922.0
919.0
916.0
913.0
910.0
908.0
905.0
905.0
907.0
905.0
904.0
903.0
902.0
899.0
898.0
899.0
901.0
902.0
904.0
906.0
901.0
901.0
897.0
899.0
897.0
899.0
901.0
896.0
894.0
889.0
888.0
898.0
918.0
957.0
1007.0
1076.0
1161.0
1249.0
1332.0
1397.0
1423.0
1407.0
1358.0
1279.0
1188.0
1094.0
1012.0
946.0
890.0
844.0
807.0
786.0
779.0
784.0
804.0
823.0
842.0
851.0
857.0
854.0
847.0
841.0
837.0
836.0
834.0
835.0
835.0
835.0
834.0
832.0
827.0
826.0
821.0
820.0
818.0
821.0
823.0
823.0
822.0
818.0
817.0
812.0
815.0
815.0
815.0
820.0
820.0
821.0
822.0
821.0
823.0
827.0
828.0
832.0
833.0
835.0
840.0
843.0
849.0
857.0
865.0
871.0
875.0
879.0
879.0
886.0
890.0
899.0
908.0
922.0
931.0
940.0
949.0
957.0
965.0
971.0
979.0
987.0
992.0
1002.0
1008.0
1011.0
1021.0
1030.0
1040.0
1047.0
1050.0
1052.0
1055.0
1056.0
1056.0
1061.0
1062.0
1063.0
1063.0
1062.0
1060.0
1057.0
1053.0
1050.0
1049.0
1044.0
1040.0
1035.0
1034.0
1030.0
1028.0
1027.0
1025.0
1024.0
1017.0
1013.0
1005.0
997.0
991.0
989.0
985.0
983.0
979.0
977.0
972.0
965.0
963.0
958.0
957.0
953.0
950.0
949.0
946.0
944.0
945.0
945.0
945.0
948.0
949.0
950.0
951.0
955.0
962.0
970.0
978.0
984.0
986.0
988.0
990.0
994.0
999.0
1000.0
998.0
992.0
981.0
970.0
956.0
944.0
934.0
926.0
917.0
914.0
912.0
908.0
907.0
906.0
906.0
908.0
907.0
906.0
906.0
908.0
903.0
906.0
908.0
907.0
909.0
908.0
907.0
905.0
906.0
908.0
912.0
911.0
907.0
901.0
897.0
898.0
911.0
940.0
985.0
1048.0
1122.0
1206.0
1295.0
1376.0
1430.0
1453.0
1433.0
1377.0
1300.0
1210.0
1115.0
1027.0
948.0
884.0
835.0
803.0
789.0
795.0
814.0
835.0
854.0
867.0
871.0
867.0
859.0
852.0
846.0
843.0
845.0
846.0
845.0
844.0
841.0
838.0
835.0
834.0
834.0
835.0
837.0
840.0
839.0
835.0
834.0
832.0
831.0
832.0
832.0
834.0
836.0
836.0
837.0
842.0
847.0
852.0
858.0
859.0
862.0
863.0
865.0
868.0
871.0
881.0
891.0
903.0
911.0
921.0
928.0
940.0
950.0
957.0
966.0
972.0
979.0
985.0
990.0
1000.0
1009.0
1020.0
1031.0
1041.0
1048.0
1054.0
1059.0
1066.0
1072.0
1080.0
1087.0
1091.0
1096.0
1096.0
1097.0
1095.0
1094.0
1098.0
1097.0
1097.0
1096.0
1093.0
1090.0
1090.0
1089.0
1086.0
1082.0
1073.0
1065.0
1056.0
1049.0
1046.0
1044.0
1045.0
1042.0
1043.0
1039.0
1035.0
1024.0
1019.0
1017.0
1011.0
1005.0
999.0
993.0
985.0
981.0
977.0
972.0
972.0
969.0
967.0
963.0
958.0
954.0
949.0
948.0
947.0
947.0
951.0
949.0
950.0
949.0
947.0
946.0
947.0
953.0
958.0
966.0
975.0
978.0
986.0
994.0
998.0
1006.0
1010.0
1013.0
1012.0
1012.0
1008.0
1006.0
1000.0
994.0
989.0
978.0
969.0
955.0
949.0
940.0
935.0
930.0
930.0
931.0
934.0
935.0
934.0
933.0
929.0
928.0
926.0
925.0
929.0
930.0
931.0
929.0
930.0
931.0
933.0
937.0
938.0
939.0
938.0
935.0
928.0
923.0
916.0
918.0
927.0
948.0
982.0
1031.0
1088.0
1155.0
1231.0
1311.0
1380.0
1429.0
1442.0
1415.0
1353.0
1278.0
1197.0
1117.0
1040.0
972.0
913.0
861.0
818.0
787.0
777.0
786.0
807.0
832.0
858.0
875.0
887.0
888.0
880.0
873.0
867.0
863.0
862.0
866.0
867.0
865.0
863.0
862.0
857.0
855.0
851.0
855.0
854.0
851.0
847.0
847.0
846.0
850.0
854.0
857.0
859.0
858.0
857.0
858.0
860.0
860.0
865.0
869.0
875.0
878.0
882.0
885.0
890.0
895.0
901.0
906.0
911.0
913.0
916.0
923.0
932.0
941.0
952.0
961.0
968.0
974.0
978.0
984.0
991.0
999.0
1008.0
1015.0
1019.0
1028.0
1033.0
1040.0
1048.0
1056.0
1063.0
1068.0
1071.0
1075.0
1077.0
1080.0
1084.0
1083.0
1082.0
1081.0
1080.0
1076.0
1070.0
1072.0
1070.0
1070.0
1065.0
1061.0
1054.0
1049.0
1045.0
1041.0
1037.0
1033.0
1027.0
1023.0
1016.0
1012.0
1009.0
1008.0
1002.0
1001.0
995.0
989.0
981.0
977.0
974.0
970.0
967.0
962.0
956.0
954.0
950.0
948.0
947.0
950.0
945.0
944.0
942.0
940.0
939.0
939.0
942.0
944.0
947.0
949.0
953.0
960.0
966.0
974.0
980.0
988.0
993.0
995.0
997.0
1002.0
1005.0
1009.0
1013.0
1016.0
1015.0
1010.0
1000.0
987.0
971.0
957.0
944.0
938.0
935.0
931.0
932.0
933.0
935.0
935.0
936.0
936.0
935.0
929.0
927.0
922.0
921.0
924.0
930.0
931.0
934.0
934.0
930.0
929.0
928.0
928.0
926.0
924.0
916.0
914.0
916.0
932.0
969.0
1024.0
1093.0
1174.0
1262.0
1348.0
1420.0
1454.0
1447.0
1396.0
1317.0
1219.0
1115.0
1015.0
928.0
856.0
803.0
769.0
765.0
781.0
804.0
832.0
856.0
870.0
876.0
873.0
862.0
855.0
846.0
840.0
839.0
840.0
843.0
843.0
846.0
842.0
840.0
837.0
835.0
834.0
833.0
832.0
831.0
829.0
829.0
829.0
830.0
834.0
835.0
837.0
835.0
836.0
837.0
838.0
840.0
845.0
850.0
852.0
855.0
857.0
861.0
865.0
870.0
877.0
880.0
887.0
891.0
897.0
905.0
911.0
920.0
930.0
938.0
942.0
946.0
948.0
954.0
961.0
975.0
986.0
995.0
1001.0
1008.0
1014.0
1021.0
1030.0
1037.0
1045.0
1044.0
1046.0
1049.0
1050.0
1056.0
1060.0
1066.0
1070.0
1074.0
1070.0
1066.0
1061.0
1059.0
1057.0
1055.0
1054.0
1051.0
1046.0
1042.0
1038.0
1032.0
1028.0
1024.0
1022.0
1018.0
1013.0
1005.0
999.0
992.0
989.0
986.0
986.0
983.0
980.0
974.0
968.0
958.0
953.0
948.0
950.0
948.0
950.0
950.0
948.0
946.0
942.0
939.0
940.0
941.0
942.0
943.0
947.0
952.0
954.0
963.0
970.0
980.0
987.0
990.0
990.0
990.0
994.0
996.0
1002.0
1002.0
1005.0
1001.0
994.0
981.0
968.0
957.0
945.0
936.0
929.0
921.0
918.0
917.0
913.0
914.0
917.0
918.0
919.0
917.0
916.0
912.0
910.0
910.0
911.0
912.0
914.0
918.0
920.0
920.0
917.0
915.0
912.0
911.0
910.0
906.0
903.0
902.0
901.0
912.0
932.0
971.0
1018.0
1080.0
1150.0
1227.0
1309.0
1377.0
1421.0
1420.0
1382.0
1315.0
1225.0
1129.0
1035.0
960.0
901.0
854.0
816.0
791.0
782.0
790.0
808.0
835.0
855.0
871.0
872.0
870.0
861.0
853.0
847.0
841.0
843.0
843.0
845.0
848.0
851.0
849.0
847.0
845.0
838.0
838.0
839.0
837.0
836.0
834.0
836.0
836.0
839.0
840.0
844.0
842.0
843.0
841.0
841.0
838.0
840.0
845.0
854.0
861.0
865.0
873.0
876.0
883.0
890.0
896.0
901.0
905.0
911.0
911.0
917.0
926.0
933.0
944.0
954.0
963.0
973.0
982.0
988.0
995.0
1004.0
1014.0
1023.0
1036.0
1044.0
1051.0
1057.0
1064.0
1067.0
1071.0
1075.0
1079.0
1083.0
1084.0
1083.0
1088.0
1093.0
1092.0
1090.0
1088.0
1079.0
1075.0
1067.0
1068.0
1068.0
1069.0
1067.0
1062.0
1056.0
1051.0
1047.0
1042.0
1038.0
1034.0
1029.0
1024.0
1018.0
1011.0
1006.0
1004.0
1004.0
1003.0
998.0
992.0
983.0
978.0
972.0
968.0
968.0
968.0
966.0
964.0
963.0
957.0
957.0
957.0
955.0
955.0
955.0
955.0
955.0
958.0
960.0
969.0
978.0
989.0
996.0
1000.0
1003.0
1006.0
1006.0
1008.0
1013.0
1017.0
1021.0
1020.0
1020.0
1017.0
1005.0
994.0
979.0
967.0
956.0
946.0
938.0
934.0
931.0
933.0
936.0
939.0
941.0
941.0
939.0
938.0
934.0
935.0
934.0
936.0
938.0
940.0
941.0
940.0
939.0
936.0
934.0
935.0
935.0
933.0
933.0
925.0
921.0
922.0
931.0
951.0
989.0
1031.0
1086.0
1140.0
1201.0
1271.0
1342.0
1400.0
1432.0
1421.0
1373.0
1288.0
1190.0
1088.0
997.0
923.0
865.0
824.0
796.0
787.0
792.0
809.0
833.0
855.0
874.0
885.0
887.0
883.0
876.0
869.0
863.0
862.0
864.0
864.0
869.0
867.0
868.0
862.0
860.0
858.0
859.0
858.0
855.0
858.0
855.0
853.0
852.0
855.0
856.0
858.0
860.0
860.0
857.0
858.0
859.0
863.0
868.0
871.0
878.0
881.0
882.0
881.0
881.0
887.0
889.0
897.0
903.0
913.0
919.0
925.0
928.0
935.0
945.0
952.0
959.0
964.0
970.0
973.0
978.0
984.0
994.0
1001.0
1014.0
1025.0
1031.0
1036.0
1041.0
1041.0
1047.0
1055.0
1063.0
1071.0
1075.0
1081.0
1081.0
1080.0
1081.0
1083.0
1084.0
1089.0
1089.0
1087.0
1083.0
1079.0
1080.0
1076.0
1076.0
1078.0
1073.0
1069.0
1066.0
1055.0
1049.0
1042.0
1039.0
1041.0
1036.0
1035.0
1031.0
1026.0
1021.0
1014.0
1009.0
1005.0
1002.0
996.0
991.0
985.0
979.0
974.0
974.0
970.0
969.0
968.0
962.0
956.0
952.0
951.0
950.0
953.0
956.0
957.0
957.0
953.0
950.0
950.0
949.0
952.0
955.0
959.0
966.0
971.0
975.0
982.0
989.0
992.0
998.0
1004.0
1005.0
1006.0
1006.0
1003.0
1003.0
1001.0
999.0
994.0
985.0
971.0
958.0
945.0
935.0
927.0
924.0
922.0
920.0
919.0
915.0
919.0
922.0
922.0
923.0
923.0
921.0
919.0
917.0
915.0
915.0
914.0
918.0
919.0
919.0
916.0
916.0
914.0
910.0
908.0
906.0
903.0
908.0
924.0
958.0
1010.0
1078.0
1162.0
1254.0
1343.0
1414.0
1447.0
1434.0
1380.0
1296.0
1197.0
1093.0
993.0
915.0
847.0
800.0
777.0
778.0
795.0
823.0
848.0
865.0
875.0
876.0
872.0
868.0
862.0
860.0
855.0
852.0
849.0
848.0
848.0
850.0
848.0
850.0
849.0
844.0
846.0
845.0
845.0
843.0
842.0
839.0
837.0
836.0
839.0
843.0
846.0
850.0
853.0
852.0
854.0
854.0
856.0
858.0
865.0
871.0
874.0
879.0
884.0
889.0
895.0
906.0
912.0
920.0
926.0
933.0
938.0
949.0
956.0
969.0
979.0
989.0
996.0
1000.0
1007.0
1013.0
1020.0
1031.0
1042.0
1049.0
1058.0
1064.0
1070.0
1077.0
1080.0
1088.0
1092.0
1093.0
1091.0
1091.0
1089.0
1089.0
1089.0
1092.0
1092.0
1091.0
1089.0
1085.0
1083.0
1076.0
1070.0
1066.0
1063.0
1059.0
1055.0
1050.0
1048.0
1044.0
1041.0
1039.0
1037.0
1033.0
1025.0
1020.0
1013.0
1009.0
1006.0
1003.0
1000.0
998.0
993.0
986.0
982.0
978.0
974.0
972.0
971.0
972.0
970.0
968.0
968.0
968.0
970.0
972.0
977.0
980.0
984.0
987.0
991.0
998.0
1005.0
1013.0
1020.0
1024.0
1028.0
1027.0
1027.0
1023.0
1020.0
1017.0
1010.0
1000.0
988.0
975.0
963.0
954.0
949.0
943.0
942.0
939.0
937.0
935.0
932.0
933.0
933.0
936.0
934.0
934.0
936.0
934.0
933.0
933.0
933.0
933.0
938.0
936.0
934.0
934.0
934.0
932.0
931.0
928.0
927.0
924.0
929.0
941.0
969.0
1016.0
1075.0
1147.0
1226.0
1313.0
1389.0
1444.0
1464.0
1444.0
1390.0
1312.0
1223.0
1127.0
1041.0
967.0
902.0
850.0
815.0
799.0
802.0
819.0
843.0
865.0
882.0
888.0
886.0
882.0
878.0
875.0
872.0
870.0
866.0
864.0
863.0
863.0
863.0
863.0
861.0
862.0
858.0
858.0
856.0
854.0
854.0
852.0
851.0
850.0
848.0
847.0
848.0
849.0
851.0
852.0
856.0
858.0
858.0
856.0
853.0
854.0
855.0
860.0
864.0
871.0
878.0
886.0
889.0
892.0
897.0
900.0
908.0
913.0
921.0
928.0
934.0
940.0
947.0
953.0
961.0
967.0
981.0
985.0
993.0
998.0
1007.0
1015.0
1026.0
1037.0
1043.0
1054.0
1061.0
1065.0
1069.0
1074.0
1075.0
1083.0
1087.0
1094.0
1097.0
1099.0
1100.0
1100.0
1098.0
1099.0
1097.0
1095.0
1092.0
1089.0
1084.0
1082.0
1078.0
1075.0
1076.0
1074.0
1070.0
1067.0
1064.0
1057.0
1051.0
1048.0
1043.0
1042.0
1041.0
1038.0
1036.0
1031.0
1025.0
1020.0
1013.0
1008.0
1004.0
998.0
995.0
990.0
986.0
983.0
980.0
981.0
980.0
979.0
977.0
969.0
965.0
962.0
962.0
959.0
959.0
963.0
964.0
971.0
977.0
985.0
992.0
998.0
1003.0
1009.0
1013.0
1014.0
1016.0
1018.0
1020.0
1026.0
1033.0
1037.0
1036.0
1029.0
1019.0
1006.0
991.0
980.0
969.0
961.0
956.0
954.0
950.0
945.0
944.0
943.0
945.0
946.0
946.0
944.0
947.0
943.0
941.0
940.0
940.0
940.0
945.0
948.0
948.0
946.0
944.0
942.0
940.0
940.0
939.0
937.0
937.0
940.0
952.0
979.0
1021.0
1068.0
1122.0
1187.0
1257.0
1328.0
1392.0
1428.0
1418.0
1363.0
1281.0
1178.0
1074.0
982.0
907.0
851.0
812.0
792.0
792.0
806.0
825.0
846.0
870.0
886.0
894.0
894.0
891.0
884.0
877.0
873.0
867.0
870.0
872.0
874.0
873.0
873.0
870.0
867.0
861.0
861.0
862.0
864.0
865.0
866.0
865.0
864.0
861.0
861.0
861.0
865.0
865.0
869.0
871.0
872.0
874.0
876.0
882.0
889.0
891.0
897.0
900.0
903.0
903.0
908.0
915.0
923.0
932.0
940.0
947.0
952.0
957.0
961.0
967.0
973.0
981.0
987.0
993.0
999.0
1004.0
1015.0
1024.0
1034.0
1042.0
1048.0
1051.0
1054.0
1056.0
1058.0
1069.0
1077.0
1084.0
1095.0
1096.0
1100.0
1098.0
1097.0
1096.0
1094.0
1094.0
1091.0
1092.0
1088.0
1086.0
1083.0
1081.0
1080.0
1079.0
1071.0
1071.0
1065.0
1060.0
1054.0
1046.0
1045.0
1044.0
1042.0
1040.0
1036.0
1030.0
1022.0
1012.0
1006.0
1001.0
997.0
994.0
990.0
985.0
984.0
982.0
978.0
975.0
969.0
965.0
961.0
957.0
951.0
949.0
952.0
952.0
956.0
960.0
963.0
962.0
960.0
955.0
955.0
954.0
956.0
960.0
967.0
973.0
981.0
986.0
993.0
998.0
1001.0
1008.0
1013.0
1016.0
1020.0
1023.0
1022.0
1019.0
1020.0
1016.0
1013.0
1007.0
996.0
986.0
975.0
960.0
952.0
948.0
943.0
946.0
949.0
952.0
949.0
947.0
944.0
941.0
942.0
941.0
944.0
946.0
947.0
946.0
946.0
945.0
944.0
944.0
945.0
947.0
947.0
940.0
939.0
931.0
928.0
927.0
930.0
941.0
964.0
1001.0
1050.0
1108.0
1172.0
1246.0
1321.0
1392.0
1438.0
1452.0
1425.0
1362.0
1279.0
1183.0
1087.0
1001.0
924.0
860.0
813.0
787.0
781.0
796.0
822.0
849.0
868.0
884.0
889.0
885.0
878.0
875.0
870.0
867.0
867.0
868.0
866.0
867.0
864.0
863.0
862.0
859.0
859.0
856.0
852.0
856.0
855.0
854.0
857.0
860.0
862.0
861.0
861.0
857.0
855.0
855.0
855.0
859.0
861.0
867.0
871.0
871.0
871.0
872.0
874.0
873.0
882.0
885.0
891.0
895.0
901.0
905.0
910.0
916.0
923.0
930.0
934.0
939.0
939.0
945.0
953.0
960.0
968.0
980.0
990.0
997.0
1001.0
1006.0
1010.0
1014.0
1019.0
1023.0
1037.0
1045.0
1055.0
1061.0
1067.0
1073.0
1075.0
1079.0
1080.0
1087.0
1087.0
1090.0
1088.0
1088.0
1083.0
1088.0
1087.0
1090.0
1089.0
1086.0
1081.0
1075.0
1069.0
1064.0
1062.0
1061.0
1060.0
1055.0
1054.0
1048.0
1041.0
1034.0
1027.0
1022.0
1020.0
1016.0
1011.0
1007.0
1001.0
996.0
992.0
989.0
985.0
981.0
979.0
973.0
970.0
965.0
962.0
961.0
963.0
965.0
964.0
965.0
962.0
961.0
960.0
963.0
967.0
974.0
982.0
988.0
993.0
1001.0
1005.0
1010.0
1016.0
1020.0
1022.0
1020.0
1019.0
1015.0
1011.0
1006.0
998.0
989.0
977.0
966.0
953.0
941.0
937.0
935.0
936.0
936.0
934.0
933.0
932.0
931.0
932.0
933.0
936.0
934.0
935.0
932.0
932.0
932.0
933.0
935.0
933.0
932.0
931.0
929.0
925.0
922.0
923.0
931.0
945.0
975.0
1016.0
1071.0
1140.0
1214.0
1298.0
1373.0
1423.0
1440.0
1409.0
1342.0
1257.0
1159.0
1059.0
977.0
907.0
850.0
811.0
789.0
788.0
804.0
829.0
856.0
878.0
885.0
887.0
882.0
878.0
874.0
873.0
872.0
870.0
870.0
868.0
866.0
863.0
862.0
858.0
860.0
860.0
858.0
858.0
858.0
858.0
859.0
861.0
859.0
857.0
855.0
855.0
855.0
857.0
861.0
867.0
872.0
876.0
875.0
876.0
877.0
883.0
887.0
896.0
902.0
908.0
912.0
918.0
925.0
930.0
939.0
945.0
951.0
959.0
966.0
971.0
978.0
986.0
997.0
1006.0
1018.0
1028.0
1032.0
1041.0
1046.0
1052.0
1062.0
1067.0
1077.0
1083.0
1087.0
1090.0
1095.0
1099.0
1101.0
1102.0
1104.0
1103.0
1099.0
1099.0
1096.0
1093.0
1093.0
1091.0
1086.0
1081.0
1075.0
1066.0
1059.0
1057.0
1051.0
1047.0
1044.0
1042.0
1038.0
1033.0
1032.0
1029.0
1025.0
1019.0
1011.0
1003.0
992.0
986.0
983.0
978.0
981.0
979.0
976.0
967.0
967.0
967.0
966.0
963.0
964.0
962.0
959.0
955.0
951.0
954.0
954.0
957.0
961.0
966.0
971.0
976.0
981.0
986.0
994.0
1002.0
1008.0
1015.0
1018.0
1018.0
1019.0
1019.0
1014.0
1012.0
1010.0
1003.0
994.0
981.0
972.0
963.0
956.0
952.0
947.0
944.0
941.0
937.0
937.0
935.0
936.0
939.0
940.0
942.0
943.0
939.0
937.0
935.0
934.0
933.0
934.0
933.0
932.0
932.0
931.0
930.0
930.0
935.0
935.0
933.0
937.0
953.0
986.0
1033.0
1098.0
1173.0
1253.0
1331.0
1395.0
1423.0
1412.0
1361.0
1285.0
1201.0
1111.0
1027.0
952.0
893.0
844.0
809.0
792.0
793.0
806.0
827.0
847.0
864.0
873.0
876.0
878.0
876.0
873.0
872.0
869.0
865.0
866.0
865.0
864.0
863.0
863.0
859.0
858.0
855.0
854.0
855.0
856.0
859.0
860.0
857.0
855.0
853.0
851.0
850.0
854.0
859.0
862.0
863.0
864.0
865.0
866.0
867.0
867.0
872.0
881.0
887.0
890.0
896.0
899.0
903.0
910.0
917.0
924.0
929.0
932.0
937.0
944.0
951.0
958.0
968.0
975.0
982.0
989.0
994.0
998.0
1004.0
1011.0
1021.0
1028.0
1036.0
1041.0
1047.0
1055.0
1061.0
1068.0
1075.0
1081.0
1084.0
1086.0
1086.0
1082.0
1082.0
1084.0
1084.0
1086.0
1084.0
1081.0
1081.0
1077.0
1071.0
1067.0
1065.0
1061.0
1059.0
1054.0
1050.0
1047.0
1043.0
1039.0
1037.0
1033.0
1026.0
1020.0
1012.0
1003.0
