# Simple Text Format
# Sampling Rate (Hz):= 360.00
# Resolution:= 12
# Labels:= ECG
1022.0
1022.0
1022.0
1022.0
1022.0
1022.0
1022.0
1022.0
1022.0
1017.0
1010.0
1004.0
999.0
994.0
992.0
989.0
988.0
985.0
979.0
973.0
962.0
956.0
950.0
947.0
944.0
943.0
945.0
945.0
946.0
945.0
947.0
946.0
945.0
945.0
941.0
942.0
944.0
953.0
960.0
969.0
981.0
992.0
997.0
1000.0
1001.0
1003.0
1006.0
1008.0
1009.0
1014.0
1013.0
1007.0
998.0
986.0
971.0
959.0
948.0
939.0
934.0
931.0
924.0
924.0
924.0
926.0
929.0
930.0
929.0
927.0
927.0
923.0
923.0
922.0
925.0
926.0
927.0
928.0
924.0
923.0
924.0
926.0
926.0
927.0
923.0
918.0
912.0
912.0
923.0
948.0
989.0
1045.0
1113.0
1187.0
1267.0
1339.0
1395.0
1417.0
1400.0
1348.0
1276.0
1196.0
1110.0
1026.0
949.0
880.0
822.0
782.0
759.0
760.0
778.0
804.0
832.0
855.0
868.0
874.0
872.0
864.0
854.0
847.0
843.0
844.0
843.0
845.0
843.0
840.0
838.0
837.0
838.0
840.0
842.0
843.0
840.0
839.0
836.0
836.0
837.0
838.0
841.0
844.0
847.0
846.0
843.0
842.0
843.0
847.0
854.0
861.0
865.0
869.0
870.0
873.0
878.0
882.0
889.0
896.0
901.0
907.0
912.0
916.0
921.0
928.0
936.0
945.0
953.0
958.0
964.0
968.0
972.0
976.0
982.0
993.0
1003.0
1012.0
1019.0
1026.0
1033.0
1038.0
1044.0
1054.0
1060.0
1068.0
1075.0
1079.0
1084.0
1086.0
1089.0
1096.0
1102.0
1104.0
1100.0
1097.0
1091.0
1084.0
1079.0
1074.0
1070.0
1061.0
1049.0
1042.0
1031.0
1022.0
1011.0
1003.0
995.0
989.0
983.0
978.0
973.0
971.0
969.0
969.0
971.0
971.0
969.0
961.0
953.0
943.0
935.0
933.0
930.0
929.0
926.0
924.0
921.0
919.0
913.0
914.0
913.0
913.0
914.0
915.0
916.0
918.0
921.0
923.0
926.0
929.0
931.0
928.0
926.0
920.0
916.0
914.0
917.0
928.0
949.0
982.0
1025.0
1082.0
1155.0
1240.0
1326.0
1397.0
1446.0
1459.0
1437.0
1387.0
1326.0
1255.0
1179.0
1106.0
1033.0
952.0
880.0
824.0
796.0
791.0
812.0
840.0
865.0
881.0
883.0
875.0
864.0
850.0
845.0
842.0
838.0
842.0
843.0
840.0
838.0
834.0
833.0
829.0
826.0
819.0
816.0
811.0
810.0
808.0
811.0
813.0
814.0
815.0
811.0
811.0
806.0
803.0
802.0
804.0
804.0
804.0
809.0
811.0
815.0
819.0
824.0
828.0
835.0
841.0
845.0
848.0
854.0
863.0
874.0
885.0
898.0
906.0
914.0
921.0
923.0
934.0
944.0
951.0
961.0
969.0
978.0
987.0
995.0
1003.0
1012.0
1020.0
1024.0
1021.0
1021.0
1020.0
1021.0
1023.0
1024.0
1024.0
1023.0
1021.0
1016.0
1009.0
1006.0
1002.0
997.0
990.0
985.0
983.0
976.0
975.0
974.0
974.0
972.0
965.0
959.0
953.0
946.0
942.0
938.0
937.0
933.0
932.0
925.0
926.0
921.0
918.0
915.0
913.0
909.0
909.0
904.0
904.0
903.0
903.0
907.0
913.0
913.0
913.0
911.0
906.0
904.0
904.0
903.0
905.0
905.0
909.0
905.0
906.0
907.0
906.0
904.0
904.0
905.0
903.0
898.0
898.0
899.0
905.0
908.0
912.0
911.0
909.0
904.0
900.0
896.0
901.0
902.0
904.0
908.0
909.0
911.0
913.0
914.0
915.0
913.0
913.0
915.0
913.0
914.0
917.0
925.0
933.0
943.0
951.0
956.0
959.0
960.0
961.0
961.0
964.0
966.0
968.0
967.0
966.0
963.0
956.0
946.0
935.0
924.0
911.0
901.0
892.0
885.0
884.0
888.0
891.0
895.0
899.0
898.0
898.0
893.0
891.0
889.0
888.0
889.0
891.0
892.0
892.0
892.0
892.0
889.0
891.0
888.0
887.0
880.0
875.0
877.0
890.0
918.0
965.0
1022.0
1094.0
1178.0
1268.0
1346.0
1401.0
1419.0
1397.0
1340.0
1263.0
1175.0
1086.0
1002.0
920.0
848.0
794.0
762.0
760.0
777.0
802.0
827.0
845.0
852.0
849.0
842.0
833.0
825.0
820.0
819.0
820.0
820.0
818.0
816.0
813.0
810.0
808.0
807.0
807.0
809.0
808.0
807.0
804.0
800.0
799.0
799.0
799.0
802.0
807.0
811.0
807.0
810.0
814.0
815.0
818.0
819.0
823.0
826.0
826.0
829.0
834.0
840.0
846.0
853.0
860.0
859.0
863.0
865.0
870.0
874.0
883.0
895.0
901.0
908.0
915.0
922.0
927.0
936.0
944.0
949.0
955.0
961.0
965.0
971.0
980.0
989.0
998.0
1007.0
1013.0
1020.0
1024.0
1027.0
1030.0
1035.0
1041.0
1051.0
1052.0
1060.0
1061.0
1062.0
1061.0
1064.0
1068.0
1067.0
1067.0
1063.0
1062.0
1057.0
1055.0
1054.0
1055.0
1049.0
1045.0
1041.0
1033.0
1024.0
1017.0
1014.0
1006.0
1003.0
998.0
995.0
990.0
983.0
977.0
971.0
969.0
964.0
960.0
954.0
952.0
949.0
948.0
952.0
955.0
955.0
957.0
954.0
949.0
946.0
944.0
946.0
950.0
956.0
962.0
967.0
974.0
978.0
981.0
984.0
988.0
992.0
993.0
994.0
995.0
994.0
996.0
995.0
992.0
984.0
974.0
961.0
944.0
933.0
923.0
916.0
914.0
909.0
912.0
911.0
910.0
911.0
910.0
908.0
909.0
908.0
907.0
903.0
903.0
905.0
907.0
910.0
911.0
915.0
915.0
913.0
911.0
907.0
905.0
902.0
900.0
898.0
900.0
913.0
941.0
982.0
1031.0
1093.0
1162.0
1236.0
1310.0
1373.0
1404.0
1394.0
1351.0
1282.0
1195.0
1103.0
1015.0
935.0
870.0
816.0
780.0
762.0
764.0
786.0
812.0
838.0
855.0
863.0
860.0
855.0
847.0
840.0
834.0
831.0
829.0
826.0
828.0
827.0
831.0
831.0
831.0
827.0
825.0
818.0
814.0
812.0
813.0
812.0
813.0
811.0
813.0
812.0
812.0
813.0
815.0
816.0
814.0
813.0
812.0
813.0
817.0
821.0
825.0
833.0
839.0
842.0
842.0
849.0
850.0
857.0
865.0
875.0
883.0
893.0
897.0
904.0
910.0
917.0
923.0
932.0
942.0
950.0
957.0
967.0
975.0
983.0
993.0
1003.0
1013.0
1019.0
1024.0
1028.0
1032.0
1036.0
1042.0
1048.0
1055.0
1061.0
1066.0
1066.0
1064.0
1066.0
1061.0
1064.0
1063.0
1062.0
1062.0
1058.0
1056.0
1052.0
1051.0
1048.0
1044.0
1043.0
1039.0
1032.0
1025.0
1019.0
1014.0
1009.0
1008.0
1005.0
1005.0
1001.0
995.0
988.0
982.0
975.0
970.0
969.0
963.0
959.0
955.0
951.0
948.0
946.0
944.0
942.0
940.0
937.0
935.0
930.0
927.0
926.0
925.0
927.0
929.0
934.0
937.0
938.0
942.0
947.0
955.0
960.0
966.0
972.0
976.0
979.0
981.0
985.0
986.0
987.0
986.0
985.0
981.0
972.0
960.0
949.0
937.0
930.0
923.0
916.0
910.0
906.0
900.0
898.0
898.0
897.0
902.0
904.0
905.0
908.0
906.0
905.0
902.0
903.0
901.0
902.0
905.0
905.0
905.0
906.0
906.0
908.0
910.0
911.0
910.0
907.0
903.0
903.0
908.0
932.0
970.0
1019.0
1083.0
1163.0
1243.0
1323.0
1388.0
1429.0
1435.0
1402.0
1341.0
1259.0
1168.0
1077.0
996.0
927.0
870.0
827.0
799.0
787.0
793.0
809.0
829.0
851.0
869.0
880.0
878.0
878.0
873.0
868.0
864.0
860.0
854.0
851.0
851.0
852.0
853.0
853.0
853.0
854.0
852.0
852.0
851.0
847.0
848.0
847.0
846.0
843.0
842.0
841.0
841.0
842.0
846.0
849.0
852.0
853.0
850.0
850.0
852.0
855.0
859.0
866.0
872.0
879.0
884.0
886.0
891.0
896.0
902.0
908.0
914.0
920.0
927.0
934.0
940.0
948.0
955.0
963.0
970.0
979.0
982.0
989.0
994.0
999.0
1007.0
1017.0
1029.0
1040.0
1048.0
1055.0
1060.0
1063.0
1066.0
1071.0
1077.0
1080.0
1082.0
1085.0
1084.0
1085.0
1089.0
1090.0
1092.0
1091.0
1088.0
1085.0
1078.0
1072.0
1069.0
1066.0
1069.0
1069.0
1067.0
1063.0
1056.0
1046.0
1039.0
1032.0
1029.0
1023.0
1018.0
1015.0
1012.0
1011.0
1008.0
1001.0
996.0
992.0
984.0
977.0
966.0
961.0
955.0
950.0
949.0
948.0
948.0
946.0
940.0
932.0
932.0
932.0
928.0
931.0
933.0
931.0
931.0
931.0
930.0
929.0
935.0
938.0
945.0
953.0
954.0
959.0
962.0
969.0
975.0
986.0
994.0
1000.0
1004.0
1003.0
1002.0
998.0
995.0
988.0
981.0
971.0
959.0
946.0
935.0
923.0
917.0
911.0
911.0
910.0
913.0
911.0
910.0
910.0
910.0
911.0
913.0
915.0
913.0
911.0
907.0
906.0
903.0
906.0
907.0
912.0
913.0
912.0
911.0
907.0
901.0
900.0
900.0
906.0
928.0
963.0
1012.0
1064.0
1125.0
1195.0
1267.0
1336.0
1386.0
1400.0
1376.0
1314.0
1227.0
1128.0
1031.0
946.0
872.0
813.0
762.0
732.0
724.0
738.0
763.0
794.0
821.0
838.0
843.0
842.0
841.0
837.0
835.0
830.0
828.0
825.0
822.0
821.0
822.0
821.0
820.0
821.0
819.0
819.0
819.0
820.0
821.0
821.0
821.0
820.0
819.0
815.0
818.0
820.0
824.0
829.0
832.0
835.0
837.0
837.0
837.0
842.0
847.0
853.0
860.0
866.0
869.0
875.0
880.0
885.0
889.0
899.0
903.0
905.0
909.0
912.0
918.0
930.0
938.0
949.0
957.0
965.0
970.0
974.0
980.0
988.0
996.0
1001.0
1011.0
1019.0
1021.0
1027.0
1030.0
1032.0
1034.0
1038.0
1041.0
1043.0
1043.0
1043.0
1043.0
1042.0
1046.0
1047.0
1045.0
1044.0
1038.0
1031.0
1025.0
1018.0
1012.0
1008.0
1004.0
1004.0
998.0
994.0
987.0
981.0
973.0
968.0
966.0
962.0
955.0
949.0
947.0
941.0
936.0
937.0
934.0
931.0
926.0
920.0
915.0
907.0
905.0
903.0
906.0
909.0
908.0
910.0
910.0
910.0
909.0
908.0
910.0
911.0
913.0
914.0
919.0
921.0
929.0
940.0
947.0
957.0
960.0
964.0
963.0
962.0
963.0
967.0
971.0
974.0
973.0
971.0
964.0
954.0
940.0
927.0
917.0
908.0
900.0
892.0
890.0
889.0
889.0
890.0
893.0
892.0
895.0
890.0
885.0
885.0
883.0
882.0
887.0
890.0
891.0
892.0
890.0
889.0
889.0
889.0
887.0
887.0
881.0
877.0
873.0
874.0
886.0
914.0
958.0
1017.0
1082.0
1155.0
1228.0
1296.0
1353.0
1389.0
1396.0
1369.0
1310.0
1233.0
1145.0
1046.0
958.0
877.0
815.0
763.0
732.0
725.0
740.0
764.0
791.0
815.0
832.0
837.0
835.0
829.0
820.0
812.0
807.0
805.0
806.0
809.0
809.0
810.0
811.0
807.0
801.0
799.0
796.0
798.0
796.0
799.0
798.0
798.0
795.0
794.0
794.0
794.0
798.0
796.0
796.0
791.0
793.0
795.0
798.0
801.0
805.0
811.0
816.0
816.0
819.0
821.0
825.0
829.0
835.0
842.0
848.0
856.0
863.0
870.0
876.0
884.0
893.0
895.0
904.0
907.0
913.0
919.0
929.0
942.0
952.0
964.0
971.0
979.0
985.0
990.0
999.0
1005.0
1013.0
1019.0
1025.0
1031.0
1030.0
1033.0
1036.0
1041.0
1044.0
1047.0
1047.0
1044.0
1041.0
1037.0
1035.0
1033.0
1032.0
1033.0
1033.0
1031.0
1024.0
1018.0
1011.0
1004.0
1000.0
995.0
993.0
987.0
985.0
980.0
972.0
968.0
961.0
958.0
951.0
946.0
940.0
933.0
929.0
923.0
923.0
922.0
922.0
922.0
920.0
916.0
915.0
911.0
912.0
911.0
914.0
916.0
917.0
920.0
925.0
933.0
941.0
948.0
952.0
959.0
960.0
961.0
966.0
970.0
976.0
981.0
979.0
977.0
967.0
956.0
943.0
930.0
917.0
905.0
899.0
890.0
882.0
883.0
882.0
883.0
883.0
884.0
884.0
880.0
877.0
874.0
874.0
876.0
880.0
885.0
888.0
887.0
886.0
882.0
883.0
880.0
882.0
876.0
876.0
873.0
868.0
866.0
874.0
895.0
928.0
976.0
1038.0
1110.0
1195.0
1278.0
1352.0
1388.0
1376.0
1327.0
1251.0
1156.0
1064.0
978.0
906.0
846.0
796.0
761.0
743.0
745.0
764.0
792.0
820.0
837.0
842.0
837.0
829.0
819.0
808.0
805.0
806.0
810.0
811.0
813.0
814.0
809.0
805.0
803.0
799.0
797.0
797.0
795.0
794.0
789.0
790.0
792.0
794.0
795.0
797.0
794.0
794.0
790.0
789.0
789.0
793.0
799.0
803.0
807.0
810.0
811.0
815.0
818.0
824.0
830.0
836.0
843.0
849.0
857.0
870.0
881.0
891.0
902.0
909.0
915.0
922.0
928.0
937.0
946.0
957.0
967.0
973.0
981.0
989.0
1003.0
1012.0
1019.0
1027.0
1028.0
1030.0
1031.0
1035.0
1035.0
1043.0
1046.0
1047.0
1047.0
1041.0
1036.0
1032.0
1028.0
1029.0
1025.0
1021.0
1017.0
1014.0
1010.0
1006.0
1005.0
1001.0
996.0
991.0
983.0
974.0
969.0
963.0
963.0
959.0
956.0
952.0
944.0
939.0
936.0
933.0
928.0
927.0
921.0
918.0
914.0
910.0
908.0
908.0
909.0
909.0
906.0
905.0
904.0
906.0
908.0
918.0
928.0
937.0
944.0
950.0
955.0
957.0
964.0
970.0
974.0
977.0
975.0
973.0
971.0
965.0
957.0
947.0
936.0
925.0
914.0
907.0
899.0
896.0
896.0
900.0
900.0
900.0
899.0
903.0
903.0
901.0
899.0
899.0
897.0
894.0
892.0
894.0
895.0
897.0
903.0
909.0
910.0
909.0
907.0
902.0
895.0
891.0
889.0
893.0
906.0
937.0
980.0
1031.0
1100.0
1174.0
1252.0
1328.0
1379.0
1388.0
1349.0
1279.0
1193.0
1099.0
1016.0
943.0
884.0
835.0
797.0
766.0
755.0
757.0
776.0
801.0
831.0
848.0
855.0
853.0
847.0
838.0
832.0
828.0
826.0
826.0
828.0
827.0
823.0
821.0
823.0
824.0
826.0
826.0
821.0
818.0
815.0
816.0
815.0
819.0
822.0
825.0
823.0
820.0
822.0
825.0
826.0
826.0
829.0
834.0
834.0
839.0
843.0
848.0
851.0
856.0
865.0
870.0
874.0
881.0
885.0
890.0
897.0
910.0
920.0
924.0
934.0
943.0
949.0
954.0
957.0
964.0
975.0
980.0
987.0
992.0
999.0
1008.0
1018.0
1026.0
1035.0
1043.0
1046.0
1049.0
1049.0
1052.0
1052.0
1056.0
1060.0
1062.0
1065.0
1065.0
1063.0
1062.0
1059.0
1056.0
1054.0
1051.0
1043.0
1037.0
1034.0
1029.0
1026.0
1027.0
1026.0
1023.0
1018.0
1010.0
1002.0
993.0
986.0
982.0
978.0
974.0
968.0
963.0
960.0
953.0
947.0
941.0
940.0
933.0
930.0
924.0
919.0
917.0
916.0
916.0
918.0
917.0
913.0
908.0
904.0
903.0
904.0
906.0
910.0
914.0
918.0
922.0
929.0
936.0
944.0
951.0
956.0
959.0
964.0
968.0
976.0
983.0
988.0
990.0
987.0
977.0
964.0
948.0
932.0
919.0
910.0
904.0
898.0
895.0
893.0
893.0
892.0
895.0
898.0
897.0
893.0
892.0
888.0
889.0
890.0
896.0
898.0
899.0
900.0
900.0
896.0
893.0
894.0
891.0
889.0
887.0
884.0
880.0
884.0
904.0
941.0
995.0
1060.0
1136.0
1216.0
1293.0
1359.0
1396.0
1389.0
1342.0
1266.0
1174.0
1078.0
992.0
919.0
859.0
808.0
767.0
739.0
732.0
742.0
763.0
791.0
815.0
831.0
838.0
838.0
832.0
824.0
816.0
811.0
810.0
812.0
814.0
815.0
815.0
819.0
816.0
812.0
808.0
805.0
806.0
804.0
804.0
806.0
805.0
807.0
807.0
810.0
814.0
815.0
815.0
815.0
813.0
812.0
815.0
819.0
825.0
829.0
834.0
837.0
840.0
842.0
843.0
848.0
854.0
860.0
868.0
875.0
879.0
886.0
894.0
902.0
909.0
918.0
925.0
930.0
935.0
939.0
945.0
952.0
960.0
967.0
978.0
982.0
990.0
995.0
1001.0
1006.0
1011.0
1017.0
1022.0
1028.0
1031.0
1034.0
1035.0
1038.0
1038.0
1041.0
1041.0
1036.0
1034.0
1028.0
1025.0
1021.0
1021.0
1021.0
1020.0
1017.0
1011.0
1002.0
995.0
990.0
982.0
980.0
978.0
970.0
967.0
960.0
955.0
952.0
948.0
944.0
939.0
932.0
926.0
918.0
918.0
917.0
914.0
913.0
913.0
908.0
905.0
900.0
899.0
897.0
899.0
903.0
908.0
913.0
914.0
915.0
916.0
921.0
925.0
932.0
938.0
938.0
940.0
943.0
945.0
953.0
957.0
967.0
975.0
980.0
978.0
976.0
970.0
960.0
947.0
934.0
925.0
913.0
907.0
899.0
892.0
888.0
886.0
885.0
885.0
887.0
887.0
886.0
883.0
881.0
879.0
882.0
886.0
886.0
886.0
888.0
886.0
885.0
880.0
878.0
877.0
877.0
881.0
879.0
883.0
879.0
874.0
875.0
880.0
897.0
930.0
978.0
1038.0
1110.0
1192.0
1277.0
1352.0
1404.0
1415.0
1386.0
1318.0
1230.0
1134.0
1034.0
947.0
870.0
807.0
762.0
735.0
732.0
747.0
771.0
800.0
823.0
833.0
835.0
832.0
824.0
814.0
810.0
808.0
810.0
812.0
812.0
809.0
807.0
800.0
800.0
799.0
801.0
802.0
803.0
801.0
800.0
797.0
796.0
795.0
795.0
795.0
792.0
793.0
791.0
792.0
797.0
801.0
807.0
810.0
812.0
812.0
814.0
815.0
817.0
821.0
832.0
838.0
846.0
851.0
856.0
859.0
864.0
870.0
877.0
887.0
893.0
903.0
911.0
920.0
927.0
935.0
949.0
959.0
967.0
973.0
977.0
980.0
990.0
1000.0
1009.0
1018.0
1025.0
1031.0
1032.0
1037.0
1038.0
1040.0
1042.0
1043.0
1041.0
1040.0
1038.0
1038.0
1037.0
1039.0
1038.0
1029.0
1022.0
1016.0
1011.0
1006.0
1002.0
998.0
997.0
992.0
987.0
980.0
973.0
966.0
965.0
961.0
955.0
948.0
942.0
932.0
929.0
929.0
928.0
926.0
924.0
923.0
918.0
914.0
912.0
910.0
910.0
911.0
910.0
910.0
911.0
917.0
922.0
928.0
937.0
942.0
947.0
950.0
950.0
954.0
959.0
966.0
974.0
976.0
975.0
971.0
964.0
951.0
943.0
932.0
922.0
907.0
896.0
891.0
884.0
881.0
881.0
883.0
882.0
878.0
878.0
877.0
877.0
877.0
877.0
881.0
882.0
885.0
882.0
880.0
877.0
880.0
877.0
878.0
878.0
874.0
872.0
871.0
870.0
869.0
872.0
882.0
900.0
931.0
970.0
1025.0
1093.0
1173.0
1257.0
1334.0
1382.0
1392.0
1351.0
1280.0
1187.0
1084.0
986.0
901.0
828.0
774.0
739.0
728.0
738.0
761.0
792.0
819.0
839.0
842.0
837.0
824.0
815.0
809.0
808.0
807.0
811.0
812.0
812.0
809.0
809.0
808.0
806.0
808.0
803.0
801.0
799.0
799.0
796.0
799.0
801.0
800.0
803.0
801.0
800.0
799.0
802.0
806.0
812.0
819.0
825.0
827.0
831.0
833.0
836.0
844.0
850.0
855.0
862.0
872.0
877.0
886.0
896.0
908.0
916.0
925.0
934.0
938.0
942.0
946.0
952.0
962.0
973.0
982.0
990.0
999.0
1004.0
1011.0
1021.0
1030.0
1041.0
1047.0
1051.0
1053.0
1054.0
1055.0
1056.0
1061.0
1067.0
1072.0
1071.0
1069.0
1066.0
1059.0
1056.0
1053.0
1052.0
1051.0
1046.0
1043.0
1037.0
1033.0
1027.0
1022.0
1021.0
1019.0
1012.0
1004.0
1000.0
996.0
989.0
990.0
987.0
982.0
975.0
972.0
960.0
951.0
944.0
941.0
940.0
939.0
937.0
935.0
931.0
925.0
917.0
916.0
912.0
910.0
910.0
910.0
909.0
907.0
909.0
908.0
909.0
913.0
915.0
918.0
921.0
925.0
931.0
939.0
947.0
954.0
962.0
968.0
972.0
974.0
975.0
977.0
975.0
973.0
969.0
964.0
957.0
947.0
935.0
923.0
915.0
909.0
904.0
903.0
902.0
900.0
898.0
894.0
893.0
893.0
898.0
901.0
901.0
898.0
899.0
895.0
894.0
893.0
894.0
893.0
893.0
895.0
894.0
896.0
898.0
896.0
892.0
890.0
886.0
883.0
891.0
914.0
948.0
999.0
1061.0
1134.0
1214.0
1295.0
1359.0
1390.0
1381.0
1326.0
1247.0
1149.0
1050.0
962.0
887.0
830.0
786.0
752.0
734.0
729.0
743.0
763.0
788.0
810.0
828.0
837.0
842.0
840.0
835.0
830.0
825.0
819.0
818.0
816.0
816.0
816.0
815.0
816.0
814.0
813.0
813.0
814.0
814.0
817.0
816.0
815.0
812.0
811.0
810.0
808.0
809.0
813.0
817.0
822.0
825.0
827.0
827.0
827.0
831.0
833.0
839.0
847.0
851.0
859.0
861.0
867.0
871.0
876.0
880.0
887.0
897.0
903.0
908.0
915.0
921.0
929.0
938.0
947.0
953.0
958.0
964.0
968.0
975.0
984.0
993.0
1003.0
1010.0
1016.0
1021.0
1025.0
1029.0
1030.0
1038.0
1039.0
1041.0
1043.0
1045.0
1044.0
1042.0
1045.0
1046.0
1046.0
1044.0
1037.0
1029.0
1020.0
1016.0
1011.0
1006.0
1003.0
997.0
992.0
990.0
985.0
982.0
979.0
973.0
970.0
960.0
953.0
949.0
944.0
942.0
943.0
937.0
934.0
924.0
919.0
912.0
908.0
909.0
904.0
905.0
904.0
903.0
903.0
901.0
902.0
902.0
905.0
902.0
903.0
903.0
905.0
908.0
917.0
926.0
936.0
944.0
949.0
952.0
952.0
954.0
956.0
958.0
962.0
968.0
971.0
968.0
963.0
957.0
949.0
938.0
929.0
917.0
907.0
896.0
888.0
883.0
881.0
884.0
885.0
888.0
887.0
886.0
883.0
880.0
881.0
879.0
881.0
881.0
886.0
886.0
885.0
885.0
886.0
884.0
882.0
883.0
882.0
881.0
878.0
875.0
870.0
869.0
872.0
887.0
916.0
956.0
1011.0
1074.0
1150.0
1229.0
1304.0
1366.0
1403.0
1407.0
1374.0
1314.0
1232.0
1143.0
1049.0
967.0
896.0
830.0
777.0
738.0
721.0
727.0
744.0
771.0
802.0
821.0
832.0
831.0
824.0
814.0
805.0
799.0
800.0
798.0
801.0
804.0
802.0
800.0
793.0
791.0
788.0
788.0
788.0
789.0
792.0
790.0
789.0
788.0
786.0
786.0
785.0
785.0
785.0
785.0
784.0
783.0
784.0
789.0
793.0
799.0
801.0
802.0
804.0
803.0
802.0
807.0
814.0
819.0
826.0
831.0
838.0
842.0
850.0
854.0
861.0
868.0
875.0
881.0
887.0
892.0
897.0
904.0
913.0
920.0
929.0
942.0
948.0
955.0
960.0
966.0
971.0
979.0
989.0
997.0
1003.0
1009.0
1013.0
1014.0
1016.0
1016.0
1020.0
1021.0
1021.0
1022.0
1023.0
1022.0
1019.0
1017.0
1016.0
1014.0
1011.0
1003.0
994.0
993.0
983.0
979.0
979.0
981.0
979.0
977.0
971.0
962.0
957.0
949.0
944.0
941.0
935.0
932.0
926.0
922.0
916.0
913.0
911.0
909.0
906.0
905.0
901.0
896.0
890.0
889.0
889.0
892.0
893.0
896.0
895.0
896.0
894.0
892.0
900.0
904.0
913.0
921.0
929.0
933.0
937.0
940.0
941.0
943.0
949.0
954.0
956.0
955.0
950.0
944.0
936.0
927.0
920.0
912.0
905.0
896.0
887.0
876.0
866.0
861.0
860.0
867.0
869.0
872.0
873.0
872.0
870.0
867.0
866.0
869.0
869.0
868.0
869.0
870.0
869.0
869.0
869.0
871.0
872.0
875.0
872.0
869.0
863.0
857.0
857.0
863.0
880.0
909.0
949.0
997.0
1056.0
1122.0
1193.0
1268.0
1332.0
1372.0
1379.0
1346.0
1285.0
1204.0
1114.0
1023.0
940.0
863.0
799.0
754.0
727.0
722.0
736.0
763.0
794.0
818.0
833.0
837.0
830.0
819.0
811.0
804.0
797.0
798.0
797.0
799.0
798.0
799.0
795.0
795.0
795.0
794.0
792.0
789.0
786.0
782.0
780.0
780.0
785.0
785.0
786.0
788.0
788.0
786.0
785.0
787.0
788.0
793.0
796.0
797.0
802.0
807.0
814.0
821.0
831.0
837.0
841.0
846.0
851.0
857.0
862.0
872.0
884.0
897.0
905.0
916.0
924.0
933.0
944.0
951.0
960.0
970.0
975.0
980.0
986.0
996.0
1005.0
1015.0
1023.0
1029.0
1033.0
1036.0
1037.0
1041.0
1040.0
1042.0
1045.0
1042.0
1043.0
1043.0
1040.0
1038.0
1034.0
1031.0
1028.0
1019.0
1013.0
1011.0
1006.0
1006.0
1004.0
1000.0
996.0
991.0
986.0
981.0
980.0
974.0
970.0
966.0
959.0
951.0
944.0
940.0
939.0
937.0
932.0
928.0
922.0
916.0
911.0
911.0
911.0
914.0
916.0
919.0
919.0
916.0
915.0
918.0
920.0
926.0
933.0
941.0
948.0
954.0
961.0
962.0
969.0
972.0
977.0
980.0
979.0
980.0
976.0
971.0
967.0
961.0
952.0
940.0
928.0
917.0
906.0
900.0
898.0
902.0
905.0
905.0
904.0
903.0
898.0
898.0
898.0
901.0
901.0
903.0
902.0
899.0
899.0
903.0
901.0
903.0
904.0
903.0
900.0
895.0
890.0
891.0
895.0
909.0
938.0
977.0
1027.0
1087.0
1155.0
1232.0
1304.0
1364.0
1390.0
1375.0
1317.0
1235.0
1143.0
1046.0
965.0
894.0
839.0
797.0
767.0
748.0
749.0
765.0
791.0
817.0
837.0
848.0
848.0
843.0
836.0
831.0
829.0
826.0
824.0
822.0
821.0
819.0
815.0
819.0
820.0
819.0
818.0
815.0
814.0
810.0
809.0
811.0
814.0
812.0
813.0
813.0
814.0
813.0
818.0
823.0
830.0
834.0
836.0
836.0
837.0
838.0
843.0
849.0
856.0
862.0
865.0
870.0
877.0
881.0
888.0
895.0
904.0
913.0
920.0
925.0
931.0
937.0
944.0
956.0
965.0
976.0
986.0
991.0
994.0
998.0
1003.0
1011.0
1019.0
1025.0
1030.0
1035.0
1039.0
1045.0
1048.0
1052.0
1054.0
1056.0
1053.0
1048.0
1044.0
1042.0
1040.0
1038.0
1040.0
1041.0
1038.0
1035.0
1028.0
1023.0
1015.0
1008.0
1005.0
1002.0
1002.0
997.0
992.0
986.0
979.0
975.0
969.0
966.0
957.0
955.0
948.0
944.0
936.0
938.0
933.0
926.0
922.0
915.0
908.0
902.0
902.0
900.0
900.0
900.0
902.0
899.0
899.0
896.0
894.0
891.0
889.0
888.0
890.0
896.0
904.0
913.0
923.0
933.0
941.0
943.0
945.0
949.0
949.0
951.0
956.0
964.0
968.0
970.0
969.0
964.0
955.0
945.0
931.0
920.0
910.0
901.0
895.0
890.0
886.0
881.0
883.0
884.0
885.0
884.0
881.0
884.0
881.0
882.0
880.0
879.0
881.0
883.0
885.0
888.0
886.0
889.0
885.0
884.0
884.0
884.0
879.0
877.0
870.0
867.0
867.0
880.0
905.0
948.0
1003.0
1075.0
1151.0
1234.0
1311.0
1374.0
1405.0
1396.0
1347.0
1276.0
1188.0
1095.0
1004.0
920.0
843.0
780.0
735.0
719.0
721.0
745.0
774.0
801.0
820.0
833.0
832.0
826.0
819.0
808.0
803.0
802.0
803.0
808.0
809.0
808.0
805.0
801.0
796.0
794.0
793.0
794.0
792.0
792.0
790.0
792.0
794.0
800.0
804.0
807.0
806.0
806.0
804.0
804.0
808.0
810.0
815.0
820.0
825.0
830.0
833.0
839.0
844.0
850.0
857.0
861.0
864.0
868.0
874.0
882.0
892.0
901.0
910.0
919.0
924.0
929.0
937.0
944.0
953.0
962.0
970.0
974.0
977.0
987.0
993.0
1001.0
1005.0
1009.0
1013.0
1013.0
1017.0
1020.0
1023.0
1027.0
1032.0
1034.0
1032.0
1028.0
1023.0
1017.0
1013.0
1012.0
1009.0
1007.0
1001.0
996.0
994.0
988.0
984.0
982.0
978.0
973.0
964.0
957.0
948.0
946.0
941.0
939.0
936.0
932.0
928.0
920.0
915.0
908.0
904.0
899.0
897.0
894.0
896.0
896.0
893.0
892.0
895.0
895.0
897.0
895.0
894.0
892.0
892.0
897.0
904.0
914.0
923.0
931.0
937.0
940.0
941.0
945.0
949.0
952.0
955.0
956.0
956.0
954.0
950.0
942.0
933.0
924.0
914.0
901.0
890.0
882.0
874.0
870.0
873.0
878.0
878.0
877.0
874.0
871.0
870.0
869.0
868.0
869.0
866.0
866.0
865.0
865.0
871.0
872.0
875.0
878.0
876.0
871.0
863.0
857.0
852.0
859.0
875.0
901.0
944.0
994.0
1063.0
1136.0
1216.0
1293.0
1356.0
1390.0
1386.0
1346.0
1282.0
1208.0
1127.0
1045.0
965.0
890.0
821.0
766.0
727.0
717.0
729.0
754.0
787.0
809.0
825.0
829.0
820.0
808.0
800.0
795.0
793.0
795.0
794.0
796.0
794.0
792.0
790.0
789.0
789.0
790.0
788.0
785.0
781.0
777.0
774.0
772.0
776.0
778.0
781.0
781.0
783.0
781.0
782.0
780.0
783.0
787.0
788.0
789.0
792.0
795.0
797.0
805.0
811.0
818.0
822.0
825.0
828.0
834.0
839.0
846.0
855.0
868.0
878.0
885.0
891.0
897.0
903.0
915.0
923.0
932.0
942.0
950.0
959.0
967.0
974.0
987.0
995.0
1002.0
1009.0
1010.0
1011.0
1012.0
1015.0
1021.0
1025.0
1030.0
1031.0
1033.0
1031.0
1029.0
1026.0
1022.0
1021.0
1016.0
1010.0
1007.0
1000.0
997.0
994.0
990.0
990.0
989.0
984.0
976.0
970.0
962.0
956.0
953.0
951.0
945.0
941.0
936.0
929.0
926.0
921.0
919.0
916.0
912.0
910.0
905.0
901.0
898.0
895.0
896.0
897.0
899.0
897.0
893.0
892.0
887.0
890.0
891.0
901.0
912.0
918.0
927.0
931.0
933.0
935.0
936.0
940.0
945.0
950.0
952.0
954.0
954.0
950.0
946.0
940.0
933.0
923.0
912.0
899.0
885.0
874.0
868.0
865.0
865.0
870.0
875.0
874.0
871.0
870.0
867.0
866.0
866.0
868.0
869.0
868.0
868.0
869.0
871.0
872.0
873.0
875.0
875.0
871.0
866.0
860.0
853.0
850.0
856.0
868.0
892.0
925.0
968.0
1020.0
1089.0
1163.0
