# Simple Text Format
# Sampling Rate (Hz):= 360.00
# Resolution:= 12
# Labels:= ECG
955.0
964.0
970.0
975.0
979.0
985.0
993.0
1003.0
1013.0
1021.0
1030.0
1034.0
1038.0
1043.0
1050.0
1055.0
1063.0
1072.0
1077.0
1082.0
1084.0
1084.0
1086.0
1086.0
1085.0
1086.0
1088.0
1086.0
1085.0
1083.0
1080.0
1078.0
1076.0
1073.0
1071.0
1068.0
1061.0
1052.0
1044.0
1038.0
1031.0
1031.0
1031.0
1028.0
1022.0
1014.0
1009.0
1003.0
998.0
993.0
990.0
984.0
979.0
977.0
974.0
972.0
970.0
965.0
960.0
955.0
948.0
940.0
933.0
929.0
927.0
926.0
928.0
927.0
930.0
930.0
931.0
931.0
928.0
934.0
936.0
941.0
945.0
951.0
958.0
966.0
973.0
979.0
987.0
992.0
994.0
996.0
996.0
997.0
999.0
1000.0
999.0
995.0
985.0
974.0
959.0
944.0
935.0
928.0
922.0
921.0
918.0
920.0
921.0
920.0
918.0
924.0
924.0
927.0
922.0
918.0
919.0
916.0
918.0
920.0
922.0
923.0
924.0
924.0
922.0
922.0
919.0
916.0
910.0
910.0
915.0
932.0
971.0
1021.0
1081.0
1154.0
1234.0
1315.0
1380.0
1416.0
1406.0
1355.0
1272.0
1172.0
1066.0
974.0
903.0
845.0
799.0
769.0
759.0
764.0
785.0
810.0
835.0
853.0
862.0
863.0
860.0
854.0
847.0
842.0
838.0
836.0
838.0
839.0
839.0
838.0
837.0
834.0
833.0
832.0
834.0
836.0
834.0
837.0
832.0
829.0
827.0
826.0
828.0
832.0
836.0
839.0
838.0
842.0
846.0
851.0
853.0
857.0
859.0
861.0
867.0
873.0
883.0
892.0
898.0
904.0
909.0
913.0
920.0
928.0
935.0
946.0
956.0
963.0
971.0
977.0
986.0
995.0
1003.0
1011.0
1018.0
1024.0
1030.0
1035.0
1043.0
1051.0
1058.0
1063.0
1067.0
1066.0
1065.0
1065.0
1064.0
1066.0
1067.0
1068.0
1066.0
1060.0
1058.0
1055.0
1051.0
1051.0
1047.0
1042.0
1035.0
1028.0
1019.0
1015.0
1010.0
1009.0
1010.0
1007.0
1000.0
991.0
983.0
975.0
972.0
969.0
962.0
959.0
956.0
952.0
948.0
946.0
945.0
945.0
943.0
940.0
937.0
933.0
932.0
934.0
936.0
936.0
937.0
941.0
942.0
947.0
953.0
961.0
969.0
976.0
979.0
985.0
988.0
990.0
994.0
997.0
1002.0
1005.0
1004.0
998.0
986.0
974.0
961.0
949.0
938.0
931.0
926.0
922.0
919.0
917.0
915.0
913.0
916.0
914.0
915.0
914.0
913.0
912.0
913.0
913.0
914.0
914.0
915.0
915.0
911.0
912.0
911.0
911.0
916.0
916.0
916.0
912.0
910.0
906.0
907.0
924.0
954.0
1002.0
1061.0
1132.0
1214.0
1296.0
1372.0
1423.0
1436.0
1408.0
1346.0
1266.0
1177.0
1086.0
999.0
921.0
859.0
806.0
777.0
767.0
777.0
799.0
825.0
850.0
864.0
869.0
868.0
857.0
847.0
840.0
835.0
838.0
842.0
845.0
845.0
844.0
838.0
831.0
828.0
827.0
830.0
830.0
835.0
832.0
830.0
829.0
826.0
824.0
825.0
824.0
825.0
827.0
826.0
826.0
831.0
830.0
836.0
839.0
845.0
845.0
847.0
849.0
851.0
858.0
865.0
872.0
881.0
888.0
893.0
901.0
903.0
908.0
915.0
924.0
933.0
943.0
950.0
959.0
968.0
977.0
985.0
997.0
1002.0
1011.0
1019.0
1024.0
1027.0
1035.0
1045.0
1051.0
1061.0
1067.0
1071.0
1074.0
1074.0
1074.0
1075.0
1077.0
1079.0
1080.0
1078.0
1077.0
1074.0
1074.0
1073.0
1072.0
1071.0
1066.0
1060.0
1053.0
1046.0
1041.0
1035.0
1033.0
1032.0
1029.0
1024.0
1016.0
1010.0
1003.0
997.0
993.0
989.0
984.0
982.0
982.0
974.0
968.0
962.0
958.0
955.0
956.0
953.0
950.0
947.0
942.0
940.0
942.0
944.0
946.0
945.0
944.0
945.0
943.0
946.0
950.0
958.0
969.0
979.0
986.0
994.0
999.0
1002.0
1006.0
1008.0
1007.0
1007.0
1004.0
996.0
992.0
986.0
979.0
964.0
947.0
935.0
922.0
916.0
914.0
916.0
918.0
921.0
921.0
921.0
920.0
918.0
916.0
916.0
918.0
921.0
922.0
920.0
920.0
919.0
922.0
924.0
924.0
927.0
927.0
922.0
920.0
917.0
924.0
941.0
973.0
1018.0
1071.0
1133.0
1200.0
1272.0
1344.0
1398.0
1417.0
1390.0
1325.0
1237.0
1135.0
1035.0
952.0
885.0
836.0
803.0
784.0
781.0
788.0
807.0
832.0
854.0
870.0
876.0
873.0
868.0
865.0
861.0
860.0
860.0
860.0
857.0
854.0
850.0
847.0
843.0
846.0
847.0
850.0
849.0
847.0
844.0
842.0
840.0
841.0
842.0
843.0
842.0
843.0
842.0
841.0
845.0
849.0
857.0
861.0
868.0
871.0
871.0
873.0
873.0
878.0
886.0
893.0
901.0
907.0
911.0
917.0
925.0
932.0
942.0
948.0
956.0
963.0
966.0
974.0
982.0
993.0
1003.0
1013.0
1021.0
1027.0
1033.0
1036.0
1042.0
1049.0
1058.0
1064.0
1071.0
1075.0
1078.0
1077.0
1076.0
1076.0
1078.0
1080.0
1081.0
1081.0
1079.0
1076.0
1073.0
1073.0
1070.0
1071.0
1069.0
1064.0
1057.0
1052.0
1045.0
1037.0
1037.0
1032.0
1030.0
1022.0
1016.0
1010.0
1006.0
1002.0
998.0
993.0
987.0
981.0
974.0
964.0
961.0
960.0
958.0
956.0
951.0
946.0
940.0
934.0
928.0
925.0
927.0
927.0
928.0
930.0
930.0
928.0
925.0
924.0
924.0
927.0
929.0
934.0
942.0
946.0
952.0
960.0
966.0
974.0
978.0
980.0
984.0
986.0
988.0
991.0
991.0
994.0
993.0
991.0
982.0
971.0
957.0
943.0
933.0
928.0
923.0
922.0
920.0
918.0
916.0
916.0
918.0
919.0
917.0
918.0
917.0
911.0
913.0
913.0
913.0
917.0
919.0
923.0
926.0
926.0
922.0
918.0
914.0
912.0
909.0
906.0
903.0
903.0
910.0
928.0
962.0
1013.0
1072.0
1138.0
1206.0
1275.0
1340.0
1392.0
1419.0
1410.0
1372.0
1305.0
1222.0
1127.0
1036.0
952.0
877.0
819.0
776.0
752.0
753.0
770.0
797.0
823.0
842.0
854.0
860.0
859.0
853.0
849.0
841.0
837.0
833.0
832.0
835.0
838.0
839.0
838.0
833.0
831.0
829.0
828.0
827.0
828.0
831.0
831.0
831.0
831.0
828.0
828.0
826.0
828.0
831.0
833.0
835.0
836.0
838.0
838.0
839.0
845.0
848.0
857.0
860.0
864.0
866.0
869.0
871.0
875.0
882.0
890.0
898.0
907.0
915.0
919.0
927.0
934.0
937.0
943.0
948.0
955.0
964.0
970.0
979.0
990.0
999.0
1009.0
1016.0
1021.0
1023.0
1027.0
1028.0
1036.0
1043.0
1051.0
1056.0
1059.0
1056.0
1055.0
1055.0
1055.0
1054.0
1055.0
1056.0
1053.0
1050.0
1046.0
1042.0
1041.0
1037.0
1036.0
1032.0
1029.0
1022.0
1014.0
1005.0
1001.0
997.0
995.0
992.0
989.0
983.0
978.0
968.0
961.0
956.0
952.0
947.0
942.0
939.0
935.0
931.0
933.0
933.0
934.0
931.0
932.0
928.0
923.0
923.0
922.0
924.0
926.0
932.0
935.0
941.0
946.0
952.0
958.0
966.0
972.0
976.0
979.0
982.0
988.0
994.0
998.0
999.0
996.0
988.0
974.0
960.0
945.0
932.0
924.0
918.0
915.0
910.0
909.0
905.0
904.0
907.0
907.0
909.0
906.0
904.0
902.0
902.0
902.0
904.0
908.0
910.0
909.0
908.0
905.0
902.0
903.0
904.0
901.0
897.0
892.0
889.0
891.0
907.0
934.0
981.0
1040.0
1109.0
1188.0
1273.0
1349.0
1401.0
1412.0
1379.0
1316.0
1234.0
1144.0
1054.0
979.0
910.0
851.0
801.0
767.0
751.0
758.0
779.0
808.0
832.0
852.0
858.0
855.0
846.0
837.0
827.0
821.0
822.0
823.0
824.0
828.0
828.0
827.0
822.0
817.0
815.0
814.0
815.0
812.0
811.0
812.0
811.0
809.0
810.0
810.0
811.0
811.0
811.0
809.0
809.0
809.0
812.0
816.0
820.0
826.0
830.0
833.0
835.0
836.0
838.0
844.0
851.0
856.0
864.0
869.0
873.0
880.0
886.0
894.0
902.0
909.0
919.0
924.0
931.0
939.0
949.0
960.0
970.0
982.0
990.0
995.0
999.0
1004.0
1010.0
1015.0
1023.0
1030.0
1036.0
1039.0
1041.0
1046.0
1050.0
1051.0
1054.0
1053.0
1053.0
1050.0
1045.0
1042.0
1041.0
1042.0
1042.0
1041.0
1036.0
1033.0
1027.0
1018.0
1013.0
1010.0
1005.0
1001.0
998.0
995.0
989.0
984.0
981.0
977.0
973.0
968.0
963.0
956.0
953.0
947.0
943.0
937.0
937.0
940.0
939.0
938.0
937.0
932.0
927.0
923.0
922.0
921.0
921.0
922.0
922.0
928.0
929.0
934.0
942.0
946.0
952.0
960.0
963.0
963.0
965.0
968.0
972.0
980.0
984.0
986.0
980.0
976.0
964.0
952.0
939.0
927.0
920.0
914.0
909.0
903.0
900.0
898.0
896.0
896.0
899.0
899.0
896.0
895.0
894.0
895.0
898.0
904.0
906.0
905.0
906.0
904.0
903.0
901.0
900.0
901.0
899.0
900.0
895.0
894.0
888.0
889.0
899.0
923.0
959.0
1007.0
1059.0
1126.0
1202.0
1285.0
1359.0
1408.0
1422.0
1392.0
1330.0
1246.0
1153.0
1062.0
981.0
914.0
858.0
815.0
786.0
773.0
777.0
795.0
818.0
842.0
859.0
865.0
861.0
852.0
844.0
837.0
833.0
835.0
837.0
840.0
839.0
835.0
830.0
825.0
820.0
818.0
820.0
824.0
824.0
822.0
820.0
820.0
817.0
816.0
816.0
816.0
814.0
813.0
811.0
812.0
812.0
818.0
822.0
825.0
829.0
830.0
830.0
829.0
834.0
840.0
846.0
854.0
862.0
868.0
875.0
881.0
887.0
894.0
902.0
909.0
919.0
927.0
935.0
944.0
955.0
965.0
975.0
986.0
995.0
1003.0
1007.0
1013.0
1015.0
1021.0
1029.0
1038.0
1044.0
1052.0
1058.0
1061.0
1062.0
1067.0
1070.0
1071.0
1072.0
1070.0
1069.0
1063.0
1060.0
1062.0
1061.0
1063.0
1059.0
1057.0
1051.0
1042.0
1036.0
1031.0
1031.0
1027.0
1027.0
1019.0
1014.0
1011.0
1004.0
999.0
993.0
988.0
982.0
976.0
972.0
967.0
965.0
964.0
962.0
962.0
959.0
951.0
947.0
941.0
938.0
936.0
937.0
938.0
939.0
938.0
937.0
941.0
945.0
952.0
957.0
962.0
965.0
970.0
973.0
976.0
979.0
986.0
991.0
997.0
1000.0
995.0
992.0
982.0
974.0
963.0
956.0
944.0
935.0
928.0
918.0
913.0
911.0
909.0
911.0
911.0
911.0
910.0
909.0
908.0
908.0
909.0
910.0
914.0
915.0
912.0
912.0
909.0
908.0
908.0
910.0
913.0
916.0
917.0
917.0
912.0
905.0
902.0
898.0
904.0
919.0
948.0
992.0
1043.0
1110.0
1185.0
1264.0
1340.0
1400.0
1432.0
1430.0
1394.0
1326.0
1251.0
1173.0
1094.0
1016.0
949.0
886.0
835.0
797.0
782.0
786.0
807.0
836.0
859.0
874.0
876.0
870.0
861.0
858.0
851.0
850.0
851.0
851.0
850.0
847.0
841.0
839.0
837.0
838.0
837.0
842.0
840.0
837.0
832.0
830.0
825.0
824.0
823.0
823.0
825.0
829.0
830.0
830.0
830.0
827.0
828.0
828.0
831.0
832.0
834.0
836.0
841.0
845.0
853.0
860.0
866.0
872.0
873.0
879.0
883.0
889.0
896.0
906.0
916.0
924.0
935.0
940.0
950.0
960.0
970.0
978.0
988.0
997.0
1002.0
1010.0
1017.0
1024.0
1034.0
1043.0
1055.0
1064.0
1068.0
1075.0
1072.0
1073.0
1076.0
1079.0
1083.0
1084.0
1092.0
1093.0
1094.0
1092.0
1088.0
1087.0
1082.0
1081.0
1076.0
1073.0
1072.0
1068.0
1064.0
1061.0
1056.0
1052.0
1049.0
1043.0
1035.0
1030.0
1024.0
1022.0
1024.0
1023.0
1023.0
1020.0
1014.0
1008.0
999.0
991.0
983.0
977.0
977.0
974.0
970.0
963.0
960.0
954.0
951.0
948.0
948.0
950.0
951.0
951.0
948.0
944.0
942.0
939.0
943.0
950.0
956.0
963.0
969.0
973.0
979.0
984.0
991.0
998.0
1004.0
1008.0
1012.0
1012.0
1011.0
1009.0
1006.0
1003.0
993.0
983.0
970.0
959.0
947.0
939.0
935.0
935.0
934.0
934.0
933.0
932.0
928.0
926.0
925.0
924.0
930.0
931.0
933.0
933.0
932.0
932.0
931.0
930.0
931.0
932.0
931.0
934.0
934.0
934.0
930.0
930.0
931.0
931.0
929.0
935.0
955.0
991.0
1036.0
1099.0
1176.0
1255.0
1335.0
1400.0
1436.0
1429.0
1379.0
1302.0
1217.0
1126.0
1038.0
962.0
894.0
841.0
799.0
775.0
770.0
783.0
802.0
831.0
855.0
871.0
876.0
875.0
872.0
867.0
866.0
866.0
866.0
863.0
861.0
856.0
852.0
849.0
846.0
848.0
851.0
851.0
852.0
850.0
849.0
847.0
848.0
848.0
850.0
850.0
847.0
850.0
849.0
851.0
855.0
858.0
860.0
861.0
864.0
863.0
869.0
874.0
878.0
883.0
892.0
897.0
902.0
907.0
912.0
921.0
925.0
932.0
937.0
943.0
946.0
955.0
959.0
971.0
980.0
989.0
999.0
1006.0
1013.0
1019.0
1023.0
1031.0
1035.0
1040.0
1045.0
1050.0
1057.0
1064.0
1067.0
1073.0
1074.0
1081.0
1081.0
1080.0
1078.0
1077.0
1075.0
1075.0
1075.0
1073.0
1072.0
1068.0
1057.0
1051.0
1046.0
1043.0
1042.0
1042.0
1040.0
1034.0
1028.0
1021.0
1018.0
1011.0
1008.0
1003.0
998.0
992.0
984.0
976.0
967.0
966.0
964.0
964.0
961.0
957.0
953.0
946.0
943.0
942.0
940.0
937.0
938.0
938.0
938.0
937.0
938.0
939.0
941.0
940.0
938.0
937.0
933.0
936.0
941.0
948.0
957.0
967.0
972.0
978.0
982.0
985.0
993.0
999.0
1004.0
1006.0
1007.0
1006.0
1002.0
997.0
990.0
979.0
966.0
952.0
942.0
933.0
927.0
926.0
926.0
928.0
933.0
930.0
927.0
925.0
926.0
923.0
922.0
924.0
926.0
925.0
927.0
925.0
924.0
925.0
925.0
926.0
930.0
932.0
932.0
926.0
921.0
910.0
906.0
907.0
921.0
947.0
984.0
1032.0
1089.0
1152.0
1221.0
1297.0
1365.0
1413.0
1425.0
1393.0
1329.0
1239.0
1142.0
1045.0
961.0
892.0
832.0
783.0
754.0
746.0
760.0
783.0
811.0
839.0
858.0
865.0
863.0
858.0
852.0
846.0
845.0
842.0
844.0
847.0
845.0
843.0
842.0
841.0
839.0
835.0
835.0
834.0
830.0
830.0
827.0
828.0
831.0
832.0
834.0
835.0
833.0
833.0
830.0
831.0
832.0
835.0
837.0
839.0
842.0
845.0
846.0
852.0
856.0
861.0
868.0
870.0
871.0
875.0
880.0
887.0
893.0
901.0
911.0
915.0
916.0
923.0
924.0
929.0
937.0
946.0
956.0
965.0
972.0
978.0
985.0
994.0
1001.0
1009.0
1016.0
1022.0
1026.0
1029.0
1035.0
1041.0
1044.0
1049.0
1055.0
1057.0
1058.0
1057.0
1052.0
1052.0
1050.0
1048.0
1049.0
1048.0
1046.0
1042.0
1039.0
1033.0
1029.0
1024.0
1017.0
1011.0
1006.0
1001.0
994.0
989.0
986.0
984.0
983.0
979.0
976.0
969.0
958.0
951.0
950.0
946.0
945.0
941.0
940.0
937.0
933.0
931.0
927.0
928.0
930.0
927.0
927.0
925.0
921.0
923.0
927.0
933.0
942.0
949.0
956.0
960.0
963.0
968.0
967.0
973.0
981.0
988.0
994.0
994.0
992.0
990.0
981.0
975.0
966.0
955.0
940.0
928.0
919.0
912.0
907.0
907.0
904.0
909.0
908.0
907.0
902.0
898.0
897.0
897.0
899.0
901.0
905.0
906.0
904.0
901.0
901.0
899.0
902.0
904.0
906.0
905.0
904.0
903.0
900.0
898.0
897.0
899.0
904.0
920.0
950.0
995.0
1058.0
1137.0
1221.0
1308.0
1381.0
1431.0
1446.0
1423.0
1367.0
1292.0
1203.0
1110.0
1022.0
943.0
875.0
818.0
777.0
760.0
768.0
789.0
819.0
845.0
860.0
861.0
857.0
846.0
840.0
836.0
836.0
839.0
840.0
838.0
836.0
831.0
826.0
824.0
821.0
819.0
815.0
815.0
814.0
818.0
818.0
818.0
816.0
816.0
811.0
811.0
808.0
810.0
812.0
817.0
821.0
822.0
824.0
826.0
826.0
832.0
836.0
840.0
844.0
848.0
853.0
857.0
869.0
876.0
886.0
894.0
902.0
907.0
914.0
922.0
931.0
940.0
952.0
960.0
969.0
976.0
985.0
994.0
1004.0
1011.0
1020.0
1024.0
1031.0
1039.0
1043.0
1049.0
1056.0
1061.0
1065.0
1065.0
1062.0
1060.0
1056.0
1055.0
1056.0
1059.0
1058.0
1056.0
1054.0
1049.0
1047.0
1044.0
1039.0
1036.0
1032.0
1026.0
1020.0
1012.0
1009.0
1006.0
1004.0
1004.0
1003.0
998.0
993.0
985.0
976.0
971.0
967.0
965.0
963.0
959.0
955.0
952.0
950.0
948.0
945.0
943.0
941.0
939.0
937.0
935.0
934.0
936.0
939.0
946.0
954.0
958.0
962.0
968.0
972.0
977.0
981.0
984.0
987.0
990.0
993.0
994.0
994.0
992.0
989.0
981.0
968.0
951.0
935.0
921.0
915.0
912.0
909.0
908.0
908.0
905.0
904.0
901.0
901.0
903.0
904.0
904.0
904.0
905.0
905.0
908.0
911.0
914.0
917.0
914.0
912.0
908.0
902.0
897.0
896.0
894.0
893.0
897.0
906.0
925.0
959.0
1010.0
1072.0
1150.0
1240.0
1328.0
1393.0
1420.0
1400.0
1345.0
1265.0
1167.0
1068.0
979.0
908.0
855.0
814.0
790.0
784.0
794.0
817.0
843.0
866.0
876.0
879.0
872.0
867.0
858.0
856.0
854.0
851.0
854.0
856.0
855.0
859.0
859.0
859.0
858.0
854.0
850.0
847.0
846.0
846.0
848.0
850.0
850.0
849.0
849.0
848.0
848.0
852.0
855.0
856.0
856.0
858.0
860.0
863.0
871.0
877.0
884.0
888.0
892.0
896.0
899.0
905.0
912.0
922.0
931.0
939.0
946.0
949.0
951.0
957.0
962.0
972.0
984.0
994.0
1003.0
1013.0
1026.0
1034.0
1045.0
1052.0
1060.0
1061.0
1066.0
1064.0
1066.0
1069.0
1077.0
1079.0
1081.0
1085.0
1087.0
1085.0
1084.0
1086.0
1084.0
1080.0
1075.0
1072.0
1065.0
1059.0
1057.0
1056.0
1056.0
1055.0
1054.0
1050.0
1042.0
1033.0
1028.0
1019.0
1017.0
1016.0
1011.0
1007.0
1003.0
996.0
989.0
984.0
980.0
977.0
973.0
967.0
960.0
953.0
948.0
943.0
942.0
943.0
943.0
942.0
940.0
936.0
935.0
933.0
933.0
929.0
930.0
929.0
933.0
935.0
940.0
948.0
953.0
959.0
964.0
967.0
972.0
979.0
988.0
996.0
1001.0
1007.0
1008.0
1010.0
1003.0
998.0
988.0
980.0
967.0
956.0
947.0
940.0
932.0
928.0
923.0
922.0
922.0
921.0
923.0
921.0
921.0
921.0
921.0
922.0
923.0
924.0
929.0
931.0
931.0
930.0
928.0
926.0
926.0
927.0
928.0
928.0
929.0
926.0
922.0
916.0
913.0
916.0
933.0
966.0
1017.0
1075.0
1144.0
1222.0
1300.0
1369.0
1416.0
1425.0
1390.0
1324.0
1246.0
1167.0
1090.0
1020.0
964.0
914.0
867.0
823.0
782.0
764.0
768.0
786.0
813.0
838.0
857.0
869.0
869.0
865.0
857.0
853.0
851.0
852.0
854.0
855.0
852.0
847.0
843.0
840.0
840.0
838.0
842.0
841.0
842.0
841.0
840.0
840.0
840.0
838.0
839.0
841.0
840.0
843.0
847.0
851.0
857.0
863.0
866.0
869.0
866.0
865.0
867.0
868.0
877.0
884.0
895.0
902.0
908.0
910.0
911.0
919.0
921.0
928.0
934.0
943.0
949.0
953.0
959.0
963.0
973.0
980.0
989.0
994.0
1005.0
1009.0
1014.0
1019.0
1026.0
1036.0
1044.0
1052.0
1058.0
1058.0
1059.0
1060.0
1062.0
1063.0
1065.0
1068.0
1071.0
1067.0
1068.0
1063.0
1061.0
1057.0
1053.0
1050.0
1047.0
1043.0
1037.0
1032.0
1030.0
1026.0
1023.0
1018.0
1015.0
1006.0
998.0
991.0
985.0
982.0
979.0
978.0
976.0
971.0
965.0
961.0
956.0
950.0
945.0
941.0
940.0
937.0
935.0
934.0
934.0
934.0
935.0
938.0
940.0
939.0
935.0
932.0
929.0
928.0
929.0
934.0
942.0
951.0
960.0
969.0
975.0
979.0
984.0
988.0
990.0
994.0
995.0
996.0
994.0
996.0
998.0
995.0
991.0
981.0
967.0
953.0
938.0
929.0
920.0
918.0
918.0
921.0
921.0
921.0
920.0
918.0
914.0
914.0
916.0
916.0
916.0
917.0
916.0
913.0
915.0
915.0
918.0
921.0
919.0
917.0
914.0
909.0
907.0
906.0
904.0
902.0
905.0
915.0
935.0
968.0
1009.0
1058.0
1109.0
1162.0
1223.0
1286.0
1349.0
1396.0
1411.0
1384.0
1326.0
1244.0
1149.0
1054.0
968.0
893.0
831.0
784.0
756.0
753.0
770.0
799.0
826.0
845.0
857.0
860.0
854.0
851.0
841.0
835.0
835.0
834.0
836.0
835.0
836.0
834.0
833.0
829.0
829.0
822.0
822.0
819.0
822.0
823.0
824.0
828.0
827.0
825.0
822.0
819.0
819.0
818.0
820.0
823.0
828.0
829.0
831.0
831.0
836.0
841.0
846.0
851.0
853.0
854.0
856.0
862.0
868.0
874.0
883.0
889.0
896.0
901.0
905.0
908.0
911.0
919.0
927.0
939.0
947.0
957.0
964.0
971.0
977.0
984.0
992.0
1001.0
1008.0
1013.0
1019.0
1024.0
1029.0
1035.0
1041.0
1046.0
1052.0
1055.0
1056.0
1056.0
1056.0
1057.0
1056.0
1055.0
1058.0
1059.0
1059.0
1056.0
1053.0
1050.0
1042.0
1037.0
1033.0
1029.0
1024.0
1020.0
1014.0
1009.0
1009.0
1005.0
1002.0
999.0
995.0
991.0
983.0
975.0
967.0
963.0
960.0
958.0
956.0
954.0
949.0
945.0
938.0
931.0
929.0
932.0
930.0
930.0
930.0
929.0
927.0
925.0
928.0
928.0
929.0
933.0
935.0
938.0
942.0
948.0
954.0
962.0
970.0
977.0
983.0
989.0
986.0
987.0
986.0
988.0
987.0
987.0
986.0
982.0
975.0
964.0
953.0
942.0
929.0
921.0
914.0
909.0
905.0
901.0
899.0
901.0
902.0
905.0
907.0
909.0
909.0
905.0
902.0
901.0
901.0
903.0
906.0
909.0
912.0
916.0
913.0
906.0
903.0
899.0
894.0
895.0
892.0
894.0
901.0
920.0
954.0
1004.0
1069.0
1147.0
1229.0
1314.0
1387.0
1437.0
1454.0
1439.0
1389.0
1315.0
1225.0
1129.0
1033.0
946.0
869.0
811.0
774.0
763.0
775.0
799.0
829.0
850.0
864.0
869.0
865.0
856.0
849.0
843.0
837.0
835.0
831.0
830.0
836.0
835.0
837.0
833.0
832.0
831.0
827.0
825.0
823.0
821.0
820.0
822.0
821.0
820.0
820.0
820.0
818.0
819.0
819.0
820.0
819.0
819.0
816.0
819.0
826.0
832.0
838.0
841.0
846.0
849.0
850.0
850.0
857.0
864.0
871.0
880.0
891.0
896.0
904.0
914.0
925.0
931.0
939.0
947.0
952.0
958.0
964.0
975.0
986.0
998.0
1009.0
1019.0
1027.0
1035.0
1038.0
1043.0
1049.0
1053.0
1057.0
1059.0
1062.0
1063.0
1065.0
1068.0
1070.0
1070.0
1069.0
1066.0
1060.0
1056.0
1050.0
1047.0
1044.0
1043.0
1037.0
1034.0
1031.0
1026.0
1023.0
1017.0
1014.0
1009.0
1005.0
1001.0
998.0
993.0
991.0
988.0
984.0
978.0
976.0
970.0
962.0
955.0
950.0
949.0
949.0
950.0
952.0
953.0
952.0
946.0
942.0
936.0
933.0
933.0
935.0
938.0
944.0
949.0
958.0
968.0
978.0
984.0
990.0
994.0
995.0
995.0
995.0
997.0
1000.0
1000.0
1000.0
993.0
982.0
970.0
955.0
943.0
934.0
925.0
918.0
914.0
911.0
910.0
912.0
914.0
918.0
916.0
916.0
915.0
911.0
912.0
910.0
911.0
915.0
917.0
915.0
916.0
912.0
909.0
907.0
907.0
906.0
905.0
903.0
900.0
899.0
903.0
918.0
947.0
991.0
1047.0
1113.0
1184.0
1262.0
1333.0
1382.0
1387.0
1349.0
1279.0
1188.0
1090.0
993.0
913.0
850.0
806.0
774.0
756.0
757.0
768.0
788.0
812.0
835.0
851.0
862.0
861.0
856.0
850.0
841.0
835.0
832.0
834.0
835.0
839.0
838.0
840.0
840.0
836.0
829.0
827.0
824.0
828.0
828.0
822.0
826.0
825.0
826.0
829.0
833.0
836.0
840.0
841.0
843.0
842.0
844.0
847.0
853.0
858.0
863.0
867.0
870.0
874.0
875.0
882.0
886.0
890.0
899.0
905.0
911.0
918.0
927.0
935.0
944.0
951.0
956.0
960.0
961.0
968.0
973.0
983.0
994.0
1002.0
1012.0
1020.0
1025.0
1029.0
1033.0
1037.0
1041.0
1048.0
1052.0
1057.0
1060.0
1063.0
1066.0
1066.0
1064.0
1064.0
1062.0
1058.0
1053.0
1049.0
1045.0
1041.0
1037.0
1035.0
1033.0
1029.0
1022.0
1017.0
1010.0
1006.0
1003.0
1002.0
997.0
992.0
989.0
982.0
977.0
974.0
969.0
968.0
964.0
958.0
953.0
946.0
937.0
930.0
927.0
925.0
926.0
923.0
924.0
922.0
916.0
913.0
911.0
914.0
916.0
917.0
916.0
913.0
911.0
911.0
912.0
918.0
924.0
931.0
938.0
943.0
948.0
953.0
961.0
968.0
976.0
983.0
986.0
986.0
984.0
982.0
981.0
973.0
971.0
965.0
953.0
942.0
928.0
918.0
913.0
909.0
911.0
911.0
909.0
909.0
904.0
905.0
904.0
904.0
907.0
910.0
910.0
911.0
908.0
908.0
908.0
908.0
908.0
909.0
911.0
911.0
908.0
906.0
904.0
902.0
901.0
902.0
910.0
932.0
969.0
1019.0
1084.0
1159.0
1241.0
1324.0
1387.0
1427.0
1429.0
1390.0
1320.0
1233.0
1137.0
1039.0
956.0
881.0
821.0
776.0
752.0
752.0
768.0
789.0
814.0
833.0
846.0
851.0
849.0
843.0
840.0
843.0
840.0
838.0
835.0
831.0
828.0
825.0
822.0
825.0
825.0
824.0
823.0
823.0
819.0
820.0
819.0
819.0
817.0
812.0
812.0
816.0
820.0
825.0
829.0
830.0
831.0
834.0
835.0
836.0
839.0
843.0
847.0
851.0
858.0
864.0
870.0
874.0
882.0
891.0
898.0
904.0
908.0
911.0
915.0
925.0
935.0
943.0
952.0
960.0
968.0
970.0
982.0
992.0
998.0
1008.0
1013.0
1019.0
1025.0
1026.0
1032.0
1037.0
1042.0
1045.0
1046.0
1047.0
1044.0
1044.0
1042.0
1044.0
1042.0
1041.0
1039.0
1036.0
1031.0
1026.0
1023.0
1018.0
1016.0
1012.0
1008.0
1001.0
995.0
989.0
985.0
983.0
979.0
976.0
971.0
960.0
952.0
947.0
941.0
938.0
937.0
936.0
933.0
929.0
926.0
922.0
922.0
920.0
920.0
920.0
919.0
916.0
916.0
916.0
918.0
925.0
933.0
940.0
946.0
952.0
956.0
961.0
964.0
966.0
974.0
980.0
981.0
980.0
979.0
979.0
976.0
971.0
963.0
951.0
937.0
923.0
912.0
904.0
898.0
897.0
896.0
899.0
898.0
897.0
892.0
889.0
890.0
891.0
894.0
893.0
892.0
892.0
894.0
895.0
896.0
894.0
892.0
889.0
887.0
886.0
881.0
879.0
882.0
882.0
890.0
904.0
931.0
971.0
1023.0
1079.0
1145.0
1226.0
1307.0
1373.0
1401.0
1383.0
1323.0
1237.0
1130.0
1023.0
929.0
850.0
790.0
754.0
742.0
752.0
779.0
811.0
834.0
846.0
852.0
847.0
838.0
833.0
826.0
824.0
823.0
822.0
822.0
822.0
822.0
820.0
816.0
818.0
815.0
810.0
808.0
807.0
806.0
809.0
812.0
816.0
816.0
816.0
812.0
806.0
803.0
803.0
804.0
807.0
808.0
814.0
814.0
817.0
817.0
820.0
823.0
827.0
834.0
834.0
838.0
842.0
846.0
852.0
859.0
868.0
874.0
884.0
892.0
896.0
901.0
906.0
912.0
922.0
930.0
942.0
954.0
961.0
969.0
972.0
979.0
987.0
993.0
999.0
1007.0
1016.0
1022.0
1026.0
1036.0
1041.0
1045.0
1052.0
1052.0
1052.0
1052.0
1050.0
1047.0
1045.0
1046.0
1047.0
1050.0
1046.0
1042.0
1038.0
1033.0
1025.0
1021.0
1019.0
1012.0
1009.0
1002.0
997.0
993.0
986.0
986.0
984.0
981.0
975.0
970.0
965.0
957.0
951.0
946.0
945.0
939.0
937.0
931.0
925.0
923.0
920.0
917.0
918.0
916.0
919.0
919.0
915.0
914.0
913.0
910.0
914.0
914.0
915.0
919.0
924.0
929.0
937.0
945.0
952.0
960.0
967.0
970.0
974.0
973.0
971.0
967.0
965.0
957.0
949.0
936.0
928.0
917.0
910.0
903.0
896.0
892.0
889.0
888.0
887.0
888.0
888.0
890.0
891.0
889.0
888.0
888.0
886.0
887.0
889.0
891.0
893.0
894.0
892.0
891.0
888.0
890.0
893.0
895.0
892.0
897.0
904.0
926.0
963.0
1018.0
1085.0
1162.0
1243.0
1319.0
1376.0
1405.0
1395.0
1344.0
1263.0
1168.0
1063.0
969.0
889.0
830.0
792.0
773.0
770.0
788.0
812.0
838.0
856.0
863.0
865.0
863.0
858.0
852.0
848.0
843.0
841.0
839.0
843.0
842.0
841.0
839.0
836.0
826.0
821.0
820.0
823.0
825.0
828.0
830.0
831.0
831.0
830.0
830.0
828.0
829.0
831.0
832.0
834.0
837.0
842.0
848.0
854.0
858.0
865.0
868.0
873.0
876.0
882.0
889.0
901.0
907.0
918.0
924.0
928.0
936.0
941.0
949.0
956.0
963.0
968.0
976.0
982.0
992.0
1001.0
1010.0
1021.0
1027.0
1033.0
1036.0
1039.0
1042.0
1048.0
1053.0
1056.0
1060.0
1064.0
1063.0
1062.0
1062.0
1062.0
1062.0
1057.0
1052.0
1046.0
1040.0
1033.0
1031.0
1031.0
1028.0
1024.0
1023.0
1017.0
1010.0
1001.0
998.0
992.0
990.0
990.0
983.0
978.0
974.0
968.0
964.0
958.0
954.0
952.0
946.0
940.0
934.0
930.0
926.0
925.0
921.0
922.0
922.0
918.0
912.0
908.0
904.0
905.0
905.0
911.0
911.0
912.0
913.0
914.0
916.0
922.0
925.0
937.0
942.0
950.0
955.0
960.0
965.0
969.0
