# Simple Text Format
# Sampling Rate (Hz):= 360.00
# Resolution:= 12
# Labels:= ECG
1102.0
1102.0
1104.0
1102.0
1097.0
1093.0
1087.0
1082.0
1077.0
1074.0
1069.0
1066.0
1059.0
1054.0
1049.0
1047.0
1044.0
1044.0
1040.0
1034.0
1027.0
1019.0
1013.0
1006.0
1003.0
1000.0
997.0
994.0
988.0
981.0
972.0
970.0
967.0
966.0
964.0
963.0
959.0
955.0
952.0
952.0
951.0
953.0
956.0
956.0
955.0
953.0
954.0
960.0
966.0
975.0
985.0
997.0
1003.0
1009.0
1014.0
1019.0
1020.0
1024.0
1024.0
1023.0
1018.0
1010.0
1004.0
996.0
986.0
975.0
966.0
960.0
949.0
944.0
938.0
937.0
938.0
941.0
945.0
947.0
945.0
943.0
941.0
941.0
943.0
944.0
944.0
943.0
944.0
939.0
939.0
939.0
942.0
945.0
945.0
941.0
940.0
932.0
927.0
932.0
946.0
972.0
1014.0
1068.0
1133.0
1208.0
1289.0
1370.0
1432.0
1464.0
1463.0
1417.0
1344.0
1252.0
1157.0
1063.0
982.0
916.0
863.0
822.0
796.0
788.0
799.0
819.0
844.0
865.0
882.0
890.0
888.0
884.0
879.0
872.0
869.0
869.0
870.0
869.0
867.0
866.0
863.0
863.0
863.0
864.0
864.0
864.0
857.0
857.0
851.0
849.0
851.0
852.0
856.0
858.0
861.0
865.0
866.0
866.0
867.0
869.0
871.0
874.0
876.0
879.0
883.0
889.0
896.0
906.0
912.0
917.0
920.0
924.0
929.0
932.0
940.0
946.0
954.0
960.0
964.0
971.0
977.0
983.0
990.0
999.0
1007.0
1015.0
1016.0
1025.0
1031.0
1039.0
1045.0
1054.0
1060.0
1067.0
1071.0
1071.0
1070.0
1070.0
1072.0
1077.0
1080.0
1082.0
1083.0
1086.0
1083.0
1079.0
1076.0
1074.0
1072.0
1070.0
1064.0
1058.0
1055.0
1049.0
1045.0
1045.0
1045.0
1042.0
1036.0
1025.0
1018.0
1011.0
1004.0
1000.0
998.0
996.0
995.0
990.0
984.0
979.0
973.0
969.0
965.0
964.0
959.0
957.0
954.0
949.0
947.0
949.0
948.0
950.0
951.0
949.0
949.0
944.0
941.0
942.0
948.0
955.0
963.0
969.0
977.0
982.0
986.0
993.0
995.0
1002.0
1007.0
1009.0
1011.0
1013.0
1014.0
1011.0
1012.0
1008.0
1002.0
991.0
980.0
965.0
952.0
942.0
936.0
930.0
932.0
933.0
935.0
935.0
933.0
930.0
928.0
928.0
928.0
929.0
929.0
929.0
931.0
934.0
932.0
935.0
936.0
937.0
934.0
932.0
928.0
924.0
924.0
919.0
920.0
923.0
935.0
954.0
988.0
1037.0
1097.0
1170.0
1254.0
1340.0
1410.0
1459.0
1472.0
1452.0
1400.0
1329.0
1247.0
1163.0
1083.0
1007.0
937.0
876.0
824.0
790.0
781.0
792.0
814.0
848.0
871.0
883.0
887.0
883.0
874.0
868.0
863.0
861.0
860.0
861.0
860.0
861.0
859.0
856.0
854.0
853.0
850.0
847.0
845.0
844.0
842.0
845.0
843.0
844.0
842.0
841.0
839.0
835.0
835.0
836.0
839.0
842.0
847.0
845.0
851.0
849.0
849.0
851.0
854.0
857.0
858.0
864.0
867.0
872.0
874.0
881.0
891.0
899.0
905.0
910.0
920.0
920.0
926.0
931.0
939.0
951.0
960.0
971.0
979.0
988.0
992.0
999.0
1007.0
1017.0
1025.0
1031.0
1039.0
1045.0
1051.0
1053.0
1059.0
1066.0
1073.0
1078.0
1079.0
1079.0
1077.0
1079.0
1077.0
1079.0
1081.0
1085.0
1083.0
1081.0
1076.0
1071.0
1066.0
1060.0
1059.0
1057.0
1054.0
1052.0
1046.0
1044.0
1039.0
1035.0
1033.0
1030.0
1029.0
1021.0
1017.0
1011.0
1004.0
1001.0
998.0
998.0
995.0
994.0
984.0
979.0
974.0
971.0
969.0
965.0
966.0
970.0
968.0
969.0
969.0
968.0
962.0
962.0
960.0
961.0
967.0
968.0
974.0
981.0
988.0
995.0
1002.0
1007.0
1010.0
1015.0
1016.0
1014.0
1014.0
1015.0
1018.0
1018.0
1017.0
1012.0
1004.0
992.0
978.0
965.0
953.0
943.0
939.0
933.0
932.0
931.0
930.0
932.0
933.0
933.0
933.0
931.0
931.0
926.0
924.0
923.0
926.0
926.0
928.0
934.0
935.0
934.0
933.0
930.0
927.0
926.0
923.0
921.0
919.0
920.0
924.0
939.0
969.0
1012.0
1064.0
1122.0
1188.0
1263.0
1342.0
1408.0
1445.0
1444.0
1402.0
1334.0
1252.0
1158.0
1068.0
983.0
911.0
853.0
818.0
805.0
813.0
838.0
863.0
887.0
898.0
900.0
896.0
887.0
879.0
873.0
869.0
867.0
864.0
864.0
865.0
865.0
867.0
865.0
858.0
854.0
849.0
851.0
853.0
851.0
847.0
848.0
845.0
844.0
843.0
845.0
846.0
847.0
847.0
846.0
843.0
839.0
842.0
843.0
849.0
856.0
861.0
866.0
868.0
870.0
873.0
877.0
887.0
895.0
903.0
912.0
918.0
924.0
929.0
939.0
946.0
954.0
962.0
968.0
978.0
983.0
987.0
999.0
1009.0
1022.0
1034.0
1043.0
1051.0
1055.0
1062.0
1067.0
1073.0
1081.0
1089.0
1094.0
1097.0
1097.0
1100.0
1100.0
1100.0
1099.0
1097.0
1096.0
1090.0
1084.0
1082.0
1081.0
1079.0
1079.0
1081.0
1079.0
1075.0
1067.0
1059.0
1052.0
1046.0
1044.0
1039.0
1035.0
1034.0
1030.0
1028.0
1026.0
1023.0
1018.0
1014.0
1004.0
998.0
990.0
986.0
982.0
982.0
981.0
981.0
979.0
975.0
970.0
967.0
967.0
963.0
961.0
962.0
963.0
968.0
977.0
987.0
994.0
1003.0
1008.0
1011.0
1013.0
1016.0
1017.0
1022.0
1028.0
1031.0
1032.0
1027.0
1021.0
1009.0
996.0
980.0
966.0
953.0
945.0
939.0
936.0
939.0
947.0
948.0
950.0
949.0
946.0
942.0
939.0
940.0
942.0
944.0
945.0
948.0
945.0
944.0
944.0
944.0
942.0
943.0
938.0
934.0
931.0
928.0
930.0
936.0
959.0
993.0
1038.0
1097.0
1161.0
1234.0
1310.0
1378.0
1417.0
1414.0
1368.0
1290.0
1193.0
1097.0
1007.0
935.0
885.0
848.0
819.0
804.0
800.0
811.0
828.0
853.0
875.0
891.0
898.0
896.0
888.0
880.0
872.0
870.0
868.0
870.0
869.0
868.0
868.0
867.0
866.0
867.0
868.0
866.0
863.0
859.0
857.0
853.0
854.0
856.0
861.0
867.0
869.0
867.0
868.0
865.0
866.0
869.0
872.0
878.0
878.0
885.0
890.0
897.0
900.0
905.0
912.0
917.0
923.0
928.0
931.0
937.0
943.0
951.0
960.0
969.0
976.0
981.0
988.0
993.0
1002.0
1007.0
1012.0
1020.0
1031.0
1039.0
1045.0
1049.0
1057.0
1062.0
1071.0
1076.0
1081.0
1081.0
1081.0
1082.0
1085.0
1089.0
1092.0
1092.0
1095.0
1092.0
1089.0
1085.0
1079.0
1072.0
1071.0
1073.0
1071.0
1070.0
1065.0
1059.0
1054.0
1049.0
1045.0
1040.0
1037.0
1032.0
1025.0
1022.0
1018.0
1014.0
1013.0
1008.0
1005.0
1001.0
994.0
987.0
982.0
979.0
975.0
970.0
964.0
961.0
957.0
956.0
954.0
951.0
949.0
950.0
950.0
953.0
950.0
948.0
947.0
946.0
948.0
951.0
955.0
959.0
958.0
959.0
961.0
966.0
971.0
979.0
991.0
998.0
1005.0
1010.0
1013.0
1015.0
1017.0
1020.0
1019.0
1018.0
1014.0
1008.0
998.0
988.0
978.0
969.0
961.0
954.0
948.0
940.0
937.0
936.0
935.0
937.0
939.0
942.0
938.0
939.0
938.0
931.0
931.0
931.0
936.0
935.0
936.0
935.0
936.0
933.0
935.0
935.0
936.0
937.0
930.0
926.0
921.0
920.0
930.0
956.0
995.0
1042.0
1095.0
1158.0
1227.0
1300.0
1367.0
1417.0
1437.0
1418.0
1364.0
1287.0
1196.0
1104.0
1016.0
939.0
874.0
820.0
789.0
781.0
791.0
814.0
840.0
865.0
883.0
889.0
889.0
883.0
873.0
865.0
857.0
857.0
855.0
855.0
856.0
855.0
854.0
850.0
849.0
845.0
847.0
845.0
846.0
843.0
838.0
835.0
833.0
833.0
837.0
837.0
840.0
843.0
842.0
839.0
836.0
834.0
835.0
833.0
839.0
844.0
847.0
851.0
854.0
857.0
867.0
873.0
880.0
883.0
887.0
890.0
895.0
902.0
912.0
920.0
931.0
940.0
947.0
952.0
957.0
964.0
972.0
980.0
988.0
998.0
1004.0
1014.0
1023.0
1032.0
1040.0
1048.0
1054.0
1056.0
1053.0
1055.0
1057.0
1058.0
1069.0
1075.0
1079.0
1079.0
1078.0
1074.0
1071.0
1071.0
1067.0
1064.0
1060.0
1053.0
1051.0
1048.0
1046.0
1043.0
1041.0
1036.0
1030.0
1022.0
1014.0
1009.0
1003.0
1003.0
1001.0
996.0
991.0
986.0
979.0
975.0
971.0
970.0
967.0
961.0
963.0
960.0
961.0
960.0
962.0
961.0
963.0
965.0
967.0
969.0
974.0
979.0
986.0
994.0
998.0
1002.0
1005.0
1008.0
1012.0
1014.0
1018.0
1016.0
1012.0
1001.0
990.0
977.0
965.0
957.0
948.0
940.0
933.0
929.0
924.0
926.0
926.0
928.0
930.0
930.0
928.0
924.0
923.0
925.0
926.0
926.0
930.0
927.0
928.0
925.0
922.0
922.0
924.0
927.0
928.0
926.0
922.0
919.0
912.0
917.0
933.0
966.0
1016.0
1079.0
1155.0
1239.0
1325.0
1401.0
1448.0
1452.0
1414.0
1343.0
1253.0
1155.0
1056.0
971.0
900.0
847.0
814.0
805.0
816.0
840.0
868.0
888.0
899.0
901.0
893.0
882.0
872.0
866.0
866.0
868.0
870.0
871.0
870.0
864.0
860.0
856.0
856.0
857.0
856.0
857.0
857.0
852.0
854.0
850.0
849.0
847.0
850.0
848.0
848.0
846.0
847.0
849.0
851.0
856.0
858.0
862.0
863.0
863.0
865.0
868.0
871.0
876.0
882.0
888.0
894.0
905.0
909.0
914.0
922.0
930.0
937.0
946.0
953.0
961.0
970.0
981.0
991.0
1004.0
1016.0
1023.0
1030.0
1034.0
1039.0
1043.0
1050.0
1058.0
1068.0
1076.0
1082.0
1084.0
1088.0
1092.0
1093.0
1095.0
1096.0
1097.0
1092.0
1091.0
1089.0
1092.0
1092.0
1095.0
1095.0
1093.0
1090.0
1087.0
1081.0
1076.0
1072.0
1070.0
1070.0
1069.0
1068.0
1064.0
1059.0
1053.0
1047.0
1041.0
1039.0
1036.0
1030.0
1024.0
1018.0
1014.0
1011.0
1008.0
1007.0
1006.0
1002.0
997.0
992.0
988.0
984.0
979.0
979.0
984.0
985.0
986.0
982.0
979.0
979.0
981.0
986.0
992.0
997.0
1003.0
1009.0
1011.0
1015.0
1019.0
1024.0
1030.0
1032.0
1035.0
1030.0
1026.0
1020.0
1014.0
1009.0
998.0
991.0
980.0
967.0
955.0
945.0
940.0
939.0
939.0
940.0
939.0
939.0
938.0
937.0
938.0
938.0
940.0
941.0
940.0
937.0
936.0
933.0
934.0
939.0
941.0
943.0
946.0
946.0
941.0
934.0
930.0
926.0
926.0
933.0
950.0
979.0
1023.0
1080.0
1151.0
1234.0
1320.0
1394.0
1444.0
1459.0
1430.0
1371.0
1295.0
1212.0
1133.0
1061.0
1000.0
949.0
898.0
857.0
829.0
819.0
831.0
854.0
882.0
902.0
911.0
910.0
903.0
894.0
888.0
881.0
880.0
878.0
874.0
872.0
870.0
872.0
874.0
872.0
873.0
871.0
868.0
862.0
860.0
858.0
854.0
852.0
854.0
853.0
855.0
853.0
855.0
856.0
858.0
858.0
858.0
860.0
859.0
859.0
861.0
866.0
874.0
880.0
887.0
891.0
893.0
896.0
902.0
909.0
918.0
924.0
933.0
942.0
949.0
958.0
967.0
978.0
989.0
998.0
1005.0
1010.0
1017.0
1023.0
1030.0
1039.0
1048.0
1056.0
1065.0
1072.0
1074.0
1078.0
1082.0
1087.0
1092.0
1094.0
1096.0
1097.0
1096.0
1095.0
1097.0
1104.0
1102.0
1101.0
1097.0
1094.0
1090.0
1085.0
1082.0
1078.0
1080.0
1083.0
1081.0
1077.0
1072.0
1065.0
1060.0
1054.0
1049.0
1043.0
1039.0
1029.0
1024.0
1020.0
1016.0
1014.0
1010.0
1006.0
998.0
992.0
987.0
984.0
983.0
985.0
983.0
983.0
984.0
979.0
977.0
975.0
977.0
978.0
981.0
985.0
990.0
995.0
999.0
1004.0
1011.0
1017.0
1021.0
1024.0
1026.0
1025.0
1025.0
1025.0
1025.0
1025.0
1025.0
1021.0
1011.0
999.0
985.0
969.0
956.0
948.0
940.0
937.0
934.0
935.0
934.0
935.0
940.0
942.0
943.0
944.0
941.0
940.0
938.0
937.0
938.0
939.0
942.0
941.0
946.0
945.0
943.0
941.0
942.0
939.0
937.0
933.0
934.0
942.0
958.0
985.0
1025.0
1077.0
1136.0
1205.0
1280.0
1348.0
1404.0
1429.0
1412.0
1358.0
1275.0
1180.0
1078.0
988.0
914.0
860.0
826.0
812.0
815.0
833.0
857.0
882.0
904.0
914.0
916.0
911.0
902.0
899.0
892.0
889.0
887.0
885.0
883.0
887.0
889.0
889.0
889.0
887.0
883.0
881.0
879.0
876.0
875.0
874.0
872.0
870.0
869.0
870.0
872.0
879.0
880.0
887.0
887.0
887.0
885.0
885.0
887.0
892.0
898.0
906.0
916.0
918.0
924.0
931.0
935.0
942.0
950.0
956.0
962.0
969.0
975.0
982.0
988.0
998.0
1005.0
1013.0
1016.0
1023.0
1024.0
1031.0
1034.0
1043.0
1056.0
1068.0
1075.0
1084.0
1088.0
1092.0
1093.0
1099.0
1101.0
1102.0
1100.0
1099.0
1102.0
1101.0
1101.0
1103.0
1104.0
1105.0
1102.0
1101.0
1095.0
1088.0
1083.0
1079.0
1083.0
1084.0
1085.0
1082.0
1074.0
1064.0
1055.0
1049.0
1043.0
1040.0
1035.0
1024.0
1021.0
1014.0
1009.0
1004.0
1002.0
1001.0
998.0
996.0
990.0
980.0
970.0
965.0
957.0
958.0
956.0
954.0
952.0
946.0
946.0
945.0
944.0
947.0
948.0
950.0
949.0
946.0
945.0
944.0
948.0
956.0
963.0
972.0
978.0
982.0
987.0
992.0
998.0
1006.0
1012.0
1017.0
1017.0
1013.0
1007.0
1003.0
996.0
992.0
987.0
980.0
969.0
958.0
948.0
940.0
935.0
935.0
934.0
933.0
930.0
929.0
928.0
926.0
929.0
929.0
931.0
933.0
932.0
933.0
931.0
928.0
928.0
929.0
931.0
933.0
936.0
936.0
934.0
931.0
928.0
923.0
924.0
933.0
957.0
994.0
1049.0
1117.0
1202.0
1289.0
1373.0
1434.0
1460.0
1441.0
1381.0
1294.0
1195.0
1095.0
1005.0
928.0
864.0
812.0
782.0
768.0
778.0
801.0
825.0
851.0
867.0
871.0
869.0
868.0
865.0
865.0
864.0
863.0
859.0
854.0
849.0
847.0
847.0
848.0
851.0
852.0
850.0
847.0
847.0
845.0
845.0
843.0
846.0
846.0
845.0
845.0
845.0
849.0
853.0
855.0
859.0
861.0
865.0
867.0
871.0
876.0
882.0
888.0
893.0
897.0
899.0
904.0
916.0
922.0
929.0
935.0
942.0
946.0
949.0
953.0
959.0
969.0
979.0
987.0
995.0
1001.0
1007.0
1012.0
1020.0
1027.0
1031.0
1037.0
1042.0
1047.0
1052.0
1052.0
1059.0
1067.0
1072.0
1072.0
1074.0
1072.0
1070.0
1067.0
1067.0
1067.0
1068.0
1064.0
1062.0
1057.0
1052.0
1046.0
1043.0
1039.0
1036.0
1031.0
1026.0
1018.0
1012.0
1007.0
1002.0
1003.0
999.0
995.0
989.0
981.0
974.0
964.0
960.0
958.0
957.0
955.0
951.0
947.0
942.0
939.0
935.0
935.0
934.0
932.0
933.0
932.0
928.0
930.0
934.0
937.0
939.0
940.0
945.0
944.0
949.0
954.0
962.0
972.0
978.0
986.0
990.0
993.0
993.0
996.0
996.0
998.0
996.0
993.0
986.0
977.0
966.0
956.0
947.0
938.0
931.0
924.0
917.0
911.0
910.0
906.0
908.0
912.0
912.0
913.0
914.0
912.0
911.0
909.0
907.0
907.0
906.0
906.0
907.0
907.0
906.0
906.0
909.0
906.0
904.0
903.0
900.0
891.0
890.0
893.0
908.0
935.0
975.0
1027.0
1086.0
1151.0
1226.0
1299.0
1364.0
1408.0
1416.0
1382.0
1320.0
1233.0
1140.0
1045.0
964.0
892.0
836.0
795.0
767.0
761.0
771.0
794.0
819.0
845.0
861.0
867.0
871.0
865.0
857.0
848.0
842.0
840.0
837.0
835.0
837.0
839.0
839.0
838.0
834.0
832.0
829.0
828.0
826.0
825.0
822.0
823.0
823.0
821.0
819.0
820.0
822.0
825.0
824.0
824.0
823.0
822.0
820.0
819.0
820.0
825.0
831.0
834.0
839.0
844.0
847.0
849.0
852.0
859.0
864.0
868.0
872.0
876.0
881.0
884.0
891.0
900.0
910.0
919.0
927.0
933.0
937.0
944.0
953.0
963.0
973.0
985.0
993.0
1002.0
1007.0
1013.0
1021.0
1028.0
1036.0
1041.0
1043.0
1049.0
1054.0
1058.0
1062.0
1066.0
1071.0
1073.0
1075.0
1070.0
1067.0
1063.0
1062.0
1061.0
1061.0
1060.0
1059.0
1057.0
1051.0
1047.0
1041.0
1038.0
1036.0
1033.0
1027.0
1023.0
1018.0
1014.0
1012.0
1005.0
1002.0
998.0
996.0
989.0
983.0
974.0
968.0
966.0
966.0
967.0
967.0
965.0
963.0
958.0
956.0
956.0
958.0
956.0
957.0
959.0
958.0
959.0
965.0
971.0
980.0
984.0
991.0
996.0
996.0
998.0
998.0
1001.0
1002.0
1012.0
1014.0
1010.0
1005.0
996.0
983.0
971.0
960.0
952.0
944.0
939.0
931.0
923.0
923.0
918.0
920.0
921.0
920.0
920.0
917.0
916.0
912.0
912.0
914.0
917.0
919.0
921.0
920.0
920.0
918.0
914.0
915.0
917.0
918.0
918.0
916.0
915.0
913.0
914.0
928.0
958.0
1004.0
1063.0
1133.0
1215.0
1300.0
1382.0
1432.0
1444.0
1416.0
1355.0
1278.0
1193.0
1111.0
1034.0
970.0
914.0
865.0
826.0
803.0
800.0
813.0
840.0
866.0
883.0
891.0
886.0
879.0
868.0
858.0
851.0
850.0
853.0
858.0
862.0
864.0
858.0
854.0
849.0
846.0
841.0
841.0
841.0
842.0
839.0
837.0
836.0
834.0
836.0
834.0
834.0
833.0
833.0
830.0
833.0
835.0
840.0
846.0
848.0
848.0
851.0
851.0
853.0
855.0
859.0
868.0
873.0
882.0
888.0
894.0
900.0
907.0
914.0
923.0
933.0
941.0
949.0
954.0
966.0
973.0
985.0
996.0
1006.0
1016.0
1020.0
1023.0
1026.0
1031.0
1037.0
1040.0
1052.0
1060.0
1063.0
1070.0
1073.0
1078.0
1078.0
1083.0
1083.0
1084.0
1082.0
1081.0
1081.0
1078.0
1078.0
1081.0
1081.0
1078.0
1074.0
1068.0
1059.0
1053.0
1048.0
1046.0
1047.0
1047.0
1045.0
1041.0
1037.0
1030.0
1027.0
1023.0
1019.0
1014.0
1006.0
1003.0
996.0
991.0
987.0
986.0
986.0
986.0
981.0
976.0
972.0
970.0
969.0
968.0
968.0
970.0
970.0
968.0
967.0
967.0
966.0
972.0
973.0
982.0
990.0
998.0
1003.0
1007.0
1009.0
1012.0
1014.0
1018.0
1025.0
1030.0
1034.0
1029.0
1025.0
1016.0
1006.0
996.0
986.0
975.0
968.0
961.0
952.0
945.0
945.0
942.0
946.0
947.0
949.0
949.0
947.0
947.0
945.0
946.0
947.0
948.0
949.0
946.0
944.0
941.0
939.0
939.0
941.0
944.0
946.0
946.0
945.0
938.0
935.0
932.0
936.0
950.0
978.0
1012.0
1052.0
1094.0
1143.0
1198.0
1268.0
1340.0
1394.0
1415.0
1388.0
1322.0
1229.0
1127.0
1034.0
954.0
895.0
852.0
819.0
800.0
789.0
797.0
815.0
836.0
860.0
881.0
895.0
899.0
894.0
887.0
879.0
871.0
868.0
867.0
867.0
869.0
871.0
866.0
866.0
863.0
860.0
861.0
859.0
857.0
854.0
855.0
854.0
857.0
859.0
863.0
862.0
862.0
861.0
858.0
855.0
855.0
856.0
858.0
863.0
869.0
876.0
879.0
885.0
890.0
897.0
904.0
911.0
916.0
920.0
925.0
928.0
932.0
938.0
944.0
953.0
961.0
969.0
976.0
982.0
986.0
989.0
993.0
1001.0
1010.0
1020.0
1030.0
1039.0
1048.0
1052.0
1062.0
1066.0
1072.0
1075.0
1075.0
1076.0
1073.0
1073.0
1076.0
1079.0
1081.0
1084.0
1083.0
1083.0
1079.0
1075.0
1075.0
1072.0
1071.0
1067.0
1066.0
1062.0
1057.0
1051.0
1045.0
1042.0
1034.0
1028.0
1020.0
1013.0
1007.0
1005.0
1004.0
1003.0
1004.0
1004.0
998.0
991.0
983.0
974.0
965.0
961.0
958.0
957.0
956.0
953.0
949.0
945.0
941.0
937.0
937.0
940.0
937.0
935.0
930.0
928.0
929.0
930.0
933.0
940.0
941.0
945.0
946.0
947.0
952.0
958.0
967.0
977.0
986.0
994.0
997.0
1001.0
1002.0
1005.0
1004.0
1001.0
994.0
983.0
972.0
957.0
944.0
936.0
932.0
928.0
926.0
925.0
923.0
923.0
922.0
925.0
925.0
926.0
927.0
926.0
924.0
923.0
924.0
926.0
928.0
927.0
925.0
925.0
923.0
924.0
924.0
926.0
925.0
919.0
918.0
923.0
938.0
972.0
1024.0
1090.0
1169.0
1258.0
1341.0
1407.0
1439.0
1424.0
1365.0
1284.0
1190.0
1088.0
1001.0
927.0
870.0
824.0
790.0
767.0
760.0
767.0
791.0
816.0
842.0
857.0
870.0
870.0
862.0
856.0
850.0
847.0
845.0
846.0
848.0
849.0
848.0
844.0
841.0
838.0
840.0
839.0
839.0
841.0
843.0
843.0
841.0
841.0
841.0
839.0
842.0
843.0
846.0
845.0
849.0
852.0
855.0
861.0
868.0
868.0
874.0
875.0
878.0
879.0
884.0
890.0
895.0
902.0
908.0
915.0
922.0
927.0
934.0
940.0
946.0
954.0
959.0
966.0
972.0
980.0
990.0
1000.0
1010.0
1016.0
1023.0
1025.0
1030.0
1034.0
1039.0
1046.0
1053.0
1058.0
1062.0
1064.0
1067.0
1068.0
1066.0
1069.0
1067.0
1067.0
1063.0
1060.0
1058.0
1056.0
1055.0
1054.0
1051.0
1047.0
1041.0
1033.0
1027.0
1022.0
1017.0
1012.0
1009.0
1005.0
999.0
994.0
989.0
987.0
981.0
979.0
973.0
969.0
961.0
956.0
951.0
947.0
948.0
951.0
950.0
949.0
944.0
941.0
939.0
935.0
933.0
933.0
938.0
943.0
941.0
945.0
948.0
951.0
960.0
966.0
972.0
979.0
981.0
987.0
989.0
992.0
996.0
1003.0
1005.0
1008.0
1007.0
1002.0
993.0
980.0
968.0
959.0
950.0
942.0
931.0
927.0
924.0
921.0
918.0
919.0
919.0
918.0
921.0
918.0
917.0
913.0
914.0
918.0
917.0
918.0
919.0
920.0
921.0
917.0
916.0
915.0
916.0
917.0
919.0
916.0
913.0
907.0
906.0
912.0
931.0
969.0
1019.0
1083.0
1153.0
1235.0
1319.0
1393.0
1447.0
1467.0
1447.0
1393.0
1317.0
1232.0
1142.0
1059.0
981.0
911.0
860.0
812.0
783.0
777.0
788.0
810.0
835.0
858.0
872.0
877.0
875.0
867.0
859.0
852.0
851.0
851.0
852.0
852.0
851.0
847.0
843.0
839.0
838.0
838.0
838.0
838.0
836.0
833.0
830.0
829.0
823.0
825.0
823.0
829.0
830.0
826.0
829.0
829.0
830.0
831.0
835.0
837.0
838.0
840.0
842.0
843.0
846.0
852.0
859.0
864.0
874.0
875.0
877.0
882.0
886.0
889.0
899.0
909.0
919.0
928.0
935.0
944.0
950.0
957.0
967.0
977.0
984.0
991.0
995.0
1003.0
1008.0
1016.0
1026.0
1038.0
1046.0
1053.0
1058.0
1061.0
1062.0
1064.0
1067.0
1072.0
1074.0
1077.0
1081.0
1078.0
1078.0
1076.0
1076.0
1070.0
1072.0
1068.0
1065.0
1061.0
1056.0
1052.0
1049.0
1046.0
1046.0
1043.0
1041.0
1033.0
1027.0
1021.0
1016.0
1014.0
1011.0
1009.0
1006.0
1000.0
997.0
992.0
986.0
982.0
980.0
979.0
974.0
974.0
974.0
971.0
972.0
972.0
975.0
975.0
972.0
970.0
968.0
969.0
969.0
976.0
987.0
995.0
1004.0
1008.0
1013.0
1016.0
1018.0
1020.0
1023.0
1023.0
1021.0
1018.0
1011.0
1003.0
994.0
985.0
977.0
969.0
960.0
950.0
942.0
936.0
932.0
932.0
938.0
941.0
941.0
941.0
935.0
934.0
934.0
937.0
937.0
937.0
935.0
935.0
932.0
933.0
935.0
937.0
939.0
941.0
938.0
934.0
928.0
922.0
923.0
934.0
965.0
1007.0
1063.0
1133.0
1211.0
1297.0
1380.0
1438.0
1467.0
1450.0
1400.0
1330.0
1257.0
1185.0
1109.0
1035.0
967.0
901.0
851.0
816.0
805.0
814.0
840.0
869.0
893.0
903.0
902.0
893.0
882.0
873.0
868.0
871.0
873.0
875.0
875.0
873.0
867.0
865.0
863.0
861.0
866.0
862.0
859.0
858.0
853.0
849.0
849.0
849.0
851.0
854.0
853.0
853.0
853.0
851.0
852.0
856.0
858.0
860.0
861.0
865.0
867.0
868.0
872.0
882.0
888.0
895.0
901.0
904.0
908.0
914.0
921.0
933.0
944.0
953.0
963.0
968.0
977.0
986.0
996.0
1006.0
1015.0
1021.0
1025.0
1035.0
1038.0
1049.0
1060.0
1070.0
1073.0
1080.0
1083.0
1086.0
1086.0
1090.0
1090.0
1095.0
1098.0
1099.0
1097.0
1097.0
1096.0
1098.0
1097.0
1095.0
1092.0
1088.0
1083.0
1076.0
1071.0
1069.0
1070.0
1074.0
1070.0
1069.0
1063.0
1057.0
1052.0
1046.0
1042.0
1037.0
1033.0
1028.0
1023.0
1019.0
1011.0
1010.0
1005.0
1002.0
998.0
992.0
985.0
981.0
979.0
980.0
976.0
982.0
984.0
984.0
978.0
975.0
974.0
975.0
976.0
983.0
991.0
999.0
1007.0
1014.0
1019.0
1022.0
1026.0
1031.0
1034.0
1037.0
1038.0
1037.0
1035.0
1032.0
1031.0
1024.0
1013.0
1000.0
987.0
976.0
967.0
960.0
960.0
960.0
960.0
963.0
963.0
964.0
963.0
963.0
963.0
964.0
963.0
962.0
960.0
960.0
961.0
964.0
967.0
964.0
970.0
966.0
963.0
959.0
953.0
952.0
951.0
959.0
974.0
1000.0
1039.0
1090.0
1150.0
1224.0
1302.0
1375.0
1432.0
1448.0
1417.0
1346.0
1253.0
1151.0
1054.0
973.0
914.0
868.0
834.0
812.0
805.0
813.0
831.0
856.0
882.0
902.0
911.0
911.0
907.0
902.0
894.0
891.0
888.0
885.0
882.0
882.0
880.0
880.0
882.0
882.0
884.0
886.0
881.0
877.0
876.0
872.0
867.0
870.0
873.0
874.0
875.0
877.0
878.0
880.0
881.0
880.0
885.0
889.0
889.0
893.0
894.0
901.0
907.0
913.0
921.0
925.0
930.0
928.0
930.0
934.0
935.0
944.0
955.0
968.0
976.0
982.0
987.0
993.0
998.0
1007.0
1016.0
1023.0
1032.0
1040.0
1048.0
1058.0
1066.0
1073.0
1074.0
1083.0
1086.0
1087.0
1084.0
1088.0
1087.0
1091.0
1093.0
1098.0
1101.0
1100.0
1097.0
1096.0
1096.0
1093.0
1094.0
1091.0
1086.0
1081.0
1074.0
1069.0
1066.0
1065.0
1064.0
1058.0
1054.0
1050.0
1045.0
1037.0
1031.0
1024.0
1021.0
1024.0
1020.0
1018.0
1009.0
1002.0
996.0
989.0
984.0
976.0
974.0
969.0
963.0
960.0
959.0
959.0
961.0
961.0
961.0
960.0
957.0
955.0
952.0
949.0
947.0
950.0
951.0
956.0
958.0
962.0
967.0
970.0
978.0
984.0
991.0
997.0
1004.0
1007.0
1014.0
1018.0
1019.0
1022.0
1024.0
1025.0
1022.0
1014.0
999.0
989.0
977.0
964.0
957.0
954.0
949.0
947.0
944.0
942.0
946.0
945.0
944.0
943.0
942.0
940.0
940.0
939.0
941.0
945.0
949.0
950.0
953.0
952.0
947.0
943.0
940.0
946.0
946.0
947.0
945.0
941.0
941.0
947.0
967.0
1004.0
1060.0
1125.0
1203.0
1286.0
1369.0
1436.0
1478.0
1483.0
1453.0
1390.0
1307.0
1214.0
1120.0
1032.0
961.0
899.0
851.0
816.0
797.0
797.0
811.0
828.0
855.0
875.0
886.0
895.0
895.0
889.0
881.0
878.0
874.0
874.0
872.0
871.0
872.0
869.0
866.0
863.0
861.0
859.0
858.0
861.0
865.0
865.0
864.0
861.0
858.0
859.0
860.0
859.0
862.0
865.0
864.0
866.0
868.0
869.0
873.0
876.0
880.0
883.0
885.0
889.0
893.0
899.0
905.0
912.0
920.0
926.0
931.0
933.0
936.0
941.0
945.0
949.0
961.0
969.0
975.0
984.0
990.0
994.0
1002.0
1009.0
1017.0
1024.0
1028.0
1032.0
1038.0
1045.0
1054.0
1060.0
1067.0
1072.0
1075.0
1077.0
1077.0
1080.0
1080.0
1082.0
1083.0
1088.0
1086.0
1088.0
1088.0
1082.0
1080.0
1077.0
1071.0
1070.0
1067.0
1062.0
1057.0
1055.0
1049.0
1047.0
1043.0
1042.0
1036.0
1031.0
1025.0
1014.0
1008.0
1000.0
997.0
996.0
994.0
993.0
987.0
985.0
978.0
971.0
969.0
968.0
967.0
966.0
963.0
963.0
960.0
961.0
960.0
963.0
962.0
963.0
962.0
960.0
962.0
964.0
970.0
977.0
987.0
996.0
1006.0
1012.0
1012.0
1013.0
1016.0
1020.0
1021.0
1023.0
1024.0
1023.0
1013.0
1006.0
993.0
984.0
977.0
968.0
957.0
950.0
944.0
937.0
938.0
940.0
943.0
948.0
947.0
946.0
942.0
939.0
936.0
936.0
939.0
937.0
944.0
943.0
943.0
945.0
943.0
943.0
943.0
944.0
944.0
940.0
936.0
931.0
927.0
935.0
952.0
983.0
1030.0
1089.0
1156.0
1231.0
1306.0
1379.0
1435.0
1458.0
1450.0
1405.0
1337.0
1262.0
1177.0
1095.0
1018.0
947.0
888.0
839.0
809.0
799.0
809.0
835.0
861.0
888.0
903.0
906.0
903.0
893.0
884.0
877.0
871.0
870.0
873.0
876.0
878.0
878.0
876.0
873.0
867.0
867.0
864.0
865.0
862.0
861.0
860.0
858.0
857.0
857.0
860.0
861.0
862.0
860.0
860.0
856.0
852.0
852.0
857.0
861.0
869.0
871.0
876.0
879.0
882.0
885.0
893.0
897.0
900.0
906.0
911.0
918.0
925.0
934.0
941.0
950.0
958.0
964.0
969.0
973.0
977.0
988.0
999.0
1011.0
1023.0
1034.0
1042.0
1050.0
1056.0
1063.0
1070.0
1077.0
1083.0
1089.0
1091.0
1093.0
1096.0
1101.0
1103.0
1109.0
1111.0
1113.0
1110.0
1107.0
1103.0
1100.0
1100.0
1099.0
1099.0
1099.0
1098.0
1091.0
1086.0
1081.0
1076.0
1074.0
1069.0
1067.0
1064.0
1058.0
1055.0
1050.0
1046.0
1045.0
1043.0
1036.0
1033.0
1025.0
1019.0
1012.0
1007.0
1008.0
1006.0
1007.0
1006.0
1004.0
999.0
995.0
993.0
991.0
988.0
988.0
989.0
988.0
989.0
994.0
1000.0
1007.0
1013.0
1021.0
1026.0
1026.0
1027.0
1030.0
1035.0
1041.0
1045.0
1050.0
1050.0
1045.0
1038.0
1025.0
