# Simple Text Format
# Sampling Rate (Hz):= 360.00
# Resolution:= 12
# Labels:= ECG
888.0
892.0
895.0
897.0
896.0
893.0
889.0
886.0
883.0
885.0
888.0
888.0
887.0
886.0
884.0
889.0
898.0
928.0
975.0
1037.0
1113.0
1202.0
1292.0
1367.0
1417.0
1416.0
1371.0
1292.0
1203.0
1110.0
1023.0
948.0
881.0
824.0
780.0
751.0
747.0
758.0
781.0
803.0
824.0
838.0
841.0
841.0
833.0
824.0
818.0
816.0
816.0
819.0
819.0
818.0
817.0
814.0
810.0
807.0
806.0
807.0
808.0
808.0
808.0
808.0
806.0
810.0
807.0
807.0
809.0
809.0
803.0
812.0
814.0
816.0
820.0
827.0
832.0
834.0
837.0
838.0
839.0
843.0
850.0
858.0
865.0
873.0
878.0
882.0
888.0
893.0
898.0
905.0
911.0
917.0
923.0
929.0
936.0
945.0
955.0
964.0
971.0
976.0
980.0
985.0
990.0
994.0
1002.0
1009.0
1014.0
1020.0
1023.0
1024.0
1026.0
1026.0
1027.0
1029.0
1029.0
1024.0
1022.0
1017.0
1016.0
1015.0
1013.0
1011.0
1005.0
997.0
989.0
984.0
978.0
975.0
972.0
971.0
965.0
959.0
952.0
946.0
943.0
935.0
934.0
933.0
924.0
919.0
911.0
907.0
906.0
901.0
902.0
900.0
899.0
895.0
895.0
892.0
888.0
889.0
889.0
893.0
892.0
891.0
894.0
895.0
898.0
905.0
912.0
921.0
925.0
928.0
932.0
935.0
939.0
946.0
957.0
959.0
961.0
960.0
954.0
946.0
940.0
932.0
923.0
912.0
903.0
891.0
880.0
875.0
871.0
869.0
869.0
871.0
869.0
867.0
863.0
862.0
861.0
861.0
864.0
868.0
867.0
864.0
864.0
860.0
857.0
859.0
859.0
862.0
865.0
864.0
864.0
859.0
855.0
852.0
848.0
849.0
858.0
875.0
904.0
943.0
990.0
1046.0
1114.0
1190.0
1274.0
1343.0
1385.0
1386.0
1341.0
1266.0
1176.0
1077.0
986.0
906.0
841.0
787.0
742.0
722.0
721.0
736.0
758.0
780.0
800.0
812.0
812.0
809.0
806.0
795.0
794.0
793.0
794.0
793.0
790.0
790.0
786.0
784.0
782.0
784.0
785.0
784.0
782.0
778.0
777.0
774.0
773.0
772.0
773.0
775.0
772.0
775.0
775.0
776.0
778.0
779.0
782.0
781.0
783.0
783.0
783.0
786.0
792.0
797.0
804.0
810.0
812.0
815.0
819.0
823.0
828.0
836.0
844.0
852.0
860.0
866.0
877.0
884.0
893.0
903.0
906.0
913.0
921.0
926.0
930.0
938.0
946.0
958.0
968.0
977.0
984.0
987.0
991.0
995.0
995.0
999.0
1005.0
1009.0
1012.0
1014.0
1013.0
1013.0
1013.0
1010.0
1011.0
1009.0
1004.0
994.0
989.0
987.0
984.0
984.0
980.0
980.0
974.0
971.0
964.0
957.0
952.0
949.0
946.0
944.0
938.0
932.0
927.0
922.0
919.0
915.0
911.0
908.0
900.0
895.0
892.0
887.0
888.0
886.0
889.0
892.0
891.0
888.0
885.0
883.0
882.0
883.0
886.0
892.0
898.0
905.0
910.0
917.0
921.0
929.0
932.0
933.0
937.0
934.0
933.0
929.0
932.0
930.0
925.0
921.0
908.0
894.0
879.0
869.0
861.0
854.0
852.0
851.0
853.0
854.0
852.0
856.0
856.0
856.0
856.0
853.0
854.0
854.0
854.0
850.0
854.0
855.0
858.0
858.0
860.0
858.0
857.0
852.0
848.0
845.0
842.0
844.0
849.0
865.0
889.0
928.0
981.0
1044.0
1130.0
1216.0
1303.0
1370.0
1406.0
1398.0
1355.0
1288.0
1209.0
1125.0
1040.0
956.0
881.0
819.0
771.0
744.0
738.0
752.0
778.0
803.0
821.0
830.0
828.0
818.0
810.0
802.0
799.0
799.0
798.0
798.0
796.0
797.0
794.0
796.0
796.0
794.0
794.0
788.0
782.0
779.0
778.0
780.0
781.0
783.0
782.0
782.0
780.0
777.0
776.0
778.0
778.0
779.0
781.0
783.0
785.0
785.0
789.0
794.0
800.0
803.0
806.0
807.0
809.0
811.0
814.0
821.0
831.0
841.0
849.0
859.0
868.0
873.0
881.0
888.0
896.0
905.0
914.0
924.0
934.0
940.0
952.0
960.0
971.0
981.0
988.0
992.0
997.0
1001.0
1008.0
1014.0
1021.0
1029.0
1036.0
1038.0
1040.0
1039.0
1038.0
1037.0
1036.0
1036.0
1035.0
1032.0
1029.0
1025.0
1022.0
1022.0
1018.0
1014.0
1011.0
1009.0
1005.0
998.0
989.0
982.0
979.0
976.0
974.0
971.0
967.0
958.0
952.0
947.0
942.0
937.0
933.0
930.0
929.0
924.0
922.0
919.0
915.0
910.0
910.0
906.0
904.0
900.0
896.0
893.0
893.0
892.0
894.0
896.0
897.0
898.0
901.0
903.0
907.0
911.0
920.0
927.0
936.0
941.0
945.0
951.0
955.0
956.0
957.0
958.0
956.0
954.0
946.0
937.0
927.0
915.0
907.0
895.0
889.0
885.0
878.0
872.0
870.0
867.0
866.0
867.0
874.0
876.0
878.0
877.0
877.0
874.0
872.0
871.0
871.0
869.0
869.0
868.0
868.0
867.0
867.0
871.0
872.0
874.0
877.0
872.0
867.0
861.0
862.0
879.0
909.0
958.0
1018.0
1087.0
1164.0
1250.0
1327.0
1379.0
1389.0
1348.0
1270.0
1170.0
1063.0
968.0
890.0
832.0
789.0
759.0
738.0
728.0
732.0
747.0
767.0
788.0
809.0
822.0
827.0
828.0
820.0
811.0
806.0
801.0
802.0
801.0
801.0
797.0
798.0
796.0
793.0
791.0
792.0
792.0
795.0
794.0
794.0
793.0
787.0
787.0
787.0
790.0
791.0
792.0
796.0
797.0
799.0
802.0
801.0
805.0
807.0
812.0
817.0
821.0
820.0
826.0
832.0
838.0
842.0
847.0
851.0
856.0
860.0
866.0
874.0
884.0
892.0
902.0
908.0
913.0
920.0
925.0
931.0
937.0
945.0
951.0
956.0
962.0
969.0
975.0
986.0
994.0
1001.0
1004.0
1005.0
1004.0
1004.0
1008.0
1010.0
1011.0
1011.0
1010.0
1004.0
1000.0
998.0
997.0
994.0
991.0
987.0
983.0
978.0
975.0
969.0
965.0
959.0
958.0
952.0
945.0
939.0
933.0
927.0
922.0
920.0
920.0
918.0
914.0
908.0
902.0
897.0
893.0
887.0
883.0
881.0
882.0
876.0
876.0
868.0
872.0
872.0
874.0
873.0
874.0
874.0
872.0
871.0
871.0
873.0
876.0
879.0
885.0
888.0
892.0
894.0
900.0
907.0
912.0
918.0
921.0
927.0
931.0
937.0
942.0
946.0
945.0
941.0
934.0
924.0
911.0
899.0
890.0
883.0
879.0
876.0
873.0
872.0
868.0
867.0
867.0
865.0
868.0
866.0
864.0
864.0
864.0
863.0
866.0
870.0
872.0
873.0
873.0
869.0
868.0
864.0
863.0
865.0
866.0
864.0
862.0
860.0
860.0
870.0
890.0
926.0
978.0
1041.0
1117.0
1203.0
1289.0
1363.0
1404.0
1404.0
1359.0
1283.0
1189.0
1091.0
996.0
912.0
843.0
785.0
745.0
727.0
729.0
745.0
766.0
791.0
812.0
818.0
821.0
814.0
807.0
801.0
794.0
797.0
797.0
798.0
798.0
797.0
794.0
789.0
786.0
780.0
781.0
781.0
782.0
785.0
785.0
784.0
782.0
780.0
779.0
777.0
779.0
780.0
780.0
782.0
784.0
786.0
787.0
788.0
791.0
796.0
799.0
800.0
802.0
802.0
807.0
812.0
820.0
827.0
834.0
839.0
842.0
846.0
851.0
856.0
863.0
869.0
877.0
883.0
891.0
899.0
909.0
920.0
927.0
934.0
937.0
942.0
944.0
945.0
953.0
964.0
973.0
981.0
987.0
991.0
994.0
998.0
999.0
997.0
1000.0
1000.0
1000.0
999.0
995.0
995.0
995.0
994.0
992.0
989.0
984.0
977.0
971.0
965.0
961.0
956.0
955.0
953.0
951.0
943.0
938.0
931.0
924.0
920.0
917.0
917.0
913.0
911.0
908.0
903.0
900.0
900.0
897.0
896.0
896.0
892.0
887.0
883.0
884.0
884.0
886.0
889.0
891.0
892.0
892.0
894.0
893.0
896.0
902.0
906.0
916.0
921.0
929.0
932.0
934.0
938.0
940.0
943.0
945.0
945.0
943.0
936.0
924.0
916.0
905.0
900.0
894.0
885.0
878.0
870.0
862.0
858.0
854.0
856.0
855.0
856.0
861.0
861.0
861.0
859.0
860.0
862.0
863.0
864.0
862.0
858.0
858.0
860.0
859.0
863.0
865.0
864.0
860.0
858.0
853.0
852.0
864.0
885.0
920.0
968.0
1028.0
1098.0
1184.0
1274.0
1354.0
1407.0
1414.0
1379.0
1306.0
1220.0
1123.0
1030.0
950.0
884.0
832.0
785.0
759.0
747.0
752.0
771.0
794.0
812.0
823.0
826.0
822.0
814.0
807.0
803.0
803.0
802.0
800.0
803.0
802.0
798.0
797.0
793.0
790.0
794.0
794.0
791.0
796.0
791.0
788.0
786.0
786.0
784.0
785.0
783.0
786.0
786.0
785.0
786.0
786.0
788.0
790.0
792.0
793.0
793.0
795.0
798.0
804.0
810.0
817.0
824.0
827.0
833.0
835.0
838.0
842.0
851.0
860.0
869.0
881.0
887.0
897.0
902.0
911.0
922.0
928.0
935.0
943.0
949.0
956.0
964.0
977.0
985.0
995.0
1005.0
1009.0
1011.0
1013.0
1012.0
1014.0
1016.0
1021.0
1025.0
1027.0
1026.0
1025.0
1023.0
1023.0
1020.0
1017.0
1012.0
1008.0
1000.0
995.0
993.0
991.0
990.0
988.0
983.0
978.0
970.0
964.0
960.0
955.0
948.0
945.0
941.0
937.0
930.0
928.0
922.0
923.0
918.0
916.0
910.0
904.0
901.0
895.0
896.0
896.0
902.0
901.0
901.0
898.0
896.0
894.0
896.0
898.0
901.0
906.0
913.0
921.0
929.0
934.0
939.0
941.0
946.0
947.0
946.0
943.0
943.0
939.0
937.0
933.0
926.0
917.0
904.0
895.0
886.0
874.0
872.0
870.0
865.0
867.0
865.0
865.0
863.0
865.0
866.0
867.0
870.0
867.0
865.0
864.0
863.0
863.0
865.0
867.0
871.0
871.0
871.0
869.0
866.0
863.0
861.0
862.0
870.0
888.0
927.0
976.0
1042.0
1121.0
1210.0
1305.0
1379.0
1427.0
1438.0
1408.0
1335.0
1240.0
1133.0
1030.0
939.0
868.0
814.0
780.0
765.0
766.0
780.0
801.0
821.0
836.0
842.0
840.0
838.0
835.0
831.0
830.0
828.0
826.0
822.0
820.0
816.0
816.0
816.0
815.0
815.0
814.0
814.0
813.0
812.0
811.0
810.0
810.0
809.0
806.0
807.0
806.0
807.0
811.0
818.0
821.0
822.0
822.0
821.0
822.0
822.0
826.0
832.0
841.0
846.0
852.0
860.0
864.0
869.0
877.0
886.0
892.0
896.0
900.0
905.0
911.0
920.0
929.0
936.0
947.0
955.0
960.0
963.0
967.0
976.0
986.0
995.0
1003.0
1010.0
1015.0
1016.0
1020.0
1025.0
1028.0
1032.0
1035.0
1035.0
1035.0
1030.0
1029.0
1029.0
1029.0
1030.0
1031.0
1030.0
1027.0
1022.0
1014.0
1008.0
1003.0
1001.0
997.0
994.0
994.0
988.0
982.0
977.0
968.0
964.0
960.0
954.0
951.0
945.0
942.0
936.0
933.0
931.0
926.0
921.0
916.0
908.0
903.0
896.0
890.0
886.0
885.0
886.0
886.0
888.0
884.0
881.0
881.0
880.0
880.0
882.0
883.0
884.0
887.0
886.0
888.0
890.0
893.0
900.0
906.0
913.0
918.0
923.0
927.0
932.0
936.0
943.0
947.0
949.0
947.0
941.0
934.0
926.0
917.0
906.0
896.0
888.0
882.0
876.0
871.0
872.0
874.0
872.0
871.0
866.0
865.0
865.0
867.0
868.0
870.0
875.0
877.0
876.0
874.0
872.0
869.0
868.0
866.0
870.0
872.0
876.0
875.0
871.0
868.0
864.0
864.0
869.0
887.0
915.0
952.0
1002.0
1063.0
1138.0
1224.0
1309.0
1377.0
1414.0
1399.0
1338.0
1248.0
1142.0
1037.0
950.0
878.0
825.0
783.0
753.0
739.0
737.0
749.0
772.0
792.0
812.0
821.0
821.0
818.0
813.0
805.0
803.0
803.0
805.0
804.0
804.0
804.0
800.0
799.0
796.0
798.0
797.0
798.0
796.0
796.0
796.0
797.0
796.0
794.0
798.0
799.0
800.0
798.0
796.0
797.0
800.0
805.0
810.0
813.0
815.0
820.0
820.0
822.0
822.0
827.0
835.0
840.0
844.0
847.0
851.0
855.0
859.0
865.0
872.0
880.0
885.0
890.0
895.0
902.0
911.0
920.0
927.0
936.0
940.0
944.0
950.0
957.0
963.0
968.0
975.0
983.0
987.0
990.0
995.0
998.0
1000.0
1003.0
1005.0
1008.0
1009.0
1005.0
1005.0
1005.0
1004.0
1002.0
1003.0
1003.0
999.0
993.0
987.0
981.0
974.0
971.0
967.0
966.0
963.0
958.0
952.0
946.0
940.0
932.0
926.0
926.0
922.0
916.0
912.0
908.0
903.0
900.0
898.0
897.0
896.0
892.0
890.0
885.0
883.0
878.0
878.0
879.0
881.0
884.0
884.0
883.0
884.0
881.0
879.0
878.0
881.0
885.0
891.0
895.0
902.0
904.0
911.0
917.0
925.0
929.0
933.0
932.0
936.0
937.0
936.0
937.0
938.0
938.0
930.0
922.0
911.0
897.0
885.0
876.0
867.0
863.0
866.0
866.0
863.0
864.0
864.0
865.0
864.0
866.0
868.0
866.0
866.0
862.0
861.0
861.0
865.0
868.0
869.0
871.0
870.0
866.0
863.0
860.0
859.0
857.0
860.0
861.0
866.0
879.0
908.0
949.0
1006.0
1073.0
1153.0
1239.0
1321.0
1386.0
1422.0
1414.0
1366.0
1295.0
1212.0
1124.0
1035.0
952.0
881.0
819.0
772.0
743.0
737.0
748.0
767.0
793.0
811.0
824.0
826.0
822.0
816.0
812.0
807.0
804.0
806.0
805.0
803.0
804.0
805.0
804.0
805.0
802.0
799.0
798.0
795.0
792.0
794.0
793.0
794.0
794.0
796.0
794.0
793.0
790.0
791.0
790.0
792.0
798.0
797.0
800.0
801.0
802.0
802.0
809.0
813.0
815.0
820.0
821.0
821.0
822.0
828.0
836.0
844.0
853.0
860.0
866.0
872.0
874.0
881.0
886.0
895.0
902.0
910.0
915.0
922.0
928.0
933.0
941.0
948.0
957.0
967.0
976.0
979.0
985.0
991.0
997.0
1005.0
1013.0
1020.0
1025.0
1027.0
1028.0
1026.0
1025.0
1026.0
1027.0
1029.0
1030.0
1031.0
1029.0
1025.0
1021.0
1016.0
1013.0
1010.0
1006.0
1000.0
995.0
989.0
986.0
982.0
982.0
980.0
979.0
972.0
966.0
959.0
951.0
944.0
940.0
939.0
939.0
936.0
933.0
930.0
924.0
920.0
916.0
915.0
914.0
911.0
912.0
913.0
914.0
910.0
908.0
909.0
910.0
908.0
907.0
909.0
912.0
911.0
912.0
919.0
927.0
934.0
941.0
946.0
947.0
945.0
949.0
951.0
952.0
954.0
956.0
958.0
955.0
951.0
944.0
933.0
922.0
908.0
900.0
893.0
886.0
880.0
877.0
872.0
874.0
876.0
880.0
885.0
885.0
883.0
879.0
878.0
874.0
873.0
872.0
874.0
879.0
881.0
881.0
882.0
881.0
882.0
881.0
878.0
878.0
875.0
871.0
867.0
869.0
875.0
892.0
922.0
968.0
1023.0
1092.0
1172.0
1260.0
1343.0
1404.0
1429.0
1409.0
1349.0
1263.0
1162.0
1061.0
973.0
901.0
847.0
806.0
779.0
770.0
774.0
790.0
812.0
831.0
847.0
852.0
851.0
843.0
836.0
828.0
822.0
817.0
818.0
822.0
826.0
826.0
827.0
820.0
818.0
815.0
814.0
813.0
811.0
811.0
808.0
808.0
805.0
806.0
808.0
810.0
811.0
808.0
810.0
807.0
803.0
805.0
807.0
814.0
818.0
820.0
823.0
826.0
832.0
836.0
841.0
847.0
851.0
855.0
859.0
864.0
870.0
878.0
893.0
903.0
911.0
917.0
924.0
932.0
940.0
953.0
965.0
973.0
983.0
990.0
995.0
1001.0
1007.0
1014.0
1020.0
1022.0
1026.0
1029.0
1030.0
1035.0
1038.0
1043.0
1045.0
1051.0
1050.0
1047.0
1043.0
1037.0
1034.0
1032.0
1032.0
1033.0
1032.0
1029.0
1026.0
1019.0
1015.0
1010.0
1005.0
1002.0
999.0
992.0
987.0
985.0
981.0
978.0
975.0
972.0
968.0
962.0
953.0
949.0
940.0
937.0
938.0
937.0
936.0
935.0
930.0
928.0
927.0
926.0
925.0
923.0
920.0
918.0
917.0
922.0
927.0
937.0
947.0
954.0
957.0
959.0
957.0
961.0
966.0
970.0
978.0
979.0
982.0
979.0
976.0
969.0
961.0
949.0
936.0
924.0
909.0
902.0
899.0
901.0
907.0
911.0
912.0
912.0
909.0
904.0
901.0
898.0
897.0
896.0
897.0
901.0
902.0
906.0
907.0
912.0
915.0
914.0
912.0
907.0
902.0
894.0
893.0
893.0
903.0
923.0
953.0
997.0
1046.0
1105.0
1179.0
1262.0
1342.0
1398.0
1413.0
1376.0
1298.0
1199.0
1091.0
995.0
913.0
852.0
812.0
781.0
766.0
764.0
773.0
790.0
815.0
836.0
852.0
859.0
858.0
850.0
845.0
840.0
840.0
838.0
839.0
839.0
836.0
835.0
833.0
834.0
835.0
833.0
832.0
824.0
818.0
820.0
823.0
821.0
826.0
831.0
832.0
833.0
830.0
831.0
831.0
833.0
835.0
839.0
841.0
845.0
846.0
850.0
856.0
862.0
868.0
875.0
878.0
878.0
881.0
883.0
889.0
896.0
907.0
915.0
921.0
931.0
934.0
936.0
941.0
947.0
954.0
962.0
970.0
977.0
986.0
990.0
1000.0
1007.0
1012.0
1017.0
1021.0
1027.0
1029.0
1032.0
1036.0
1041.0
1046.0
1051.0
1054.0
1053.0
1051.0
1047.0
1044.0
1041.0
1038.0
1037.0
1036.0
1032.0
1030.0
1025.0
1020.0
1018.0
1016.0
1014.0
1009.0
1007.0
999.0
991.0
985.0
978.0
976.0
973.0
972.0
969.0
963.0
959.0
950.0
944.0
939.0
937.0
936.0
934.0
932.0
930.0
925.0
920.0
918.0
915.0
911.0
912.0
912.0
909.0
909.0
908.0
911.0
913.0
911.0
917.0
918.0
917.0
913.0
911.0
912.0
915.0
924.0
932.0
945.0
950.0
958.0
964.0
969.0
971.0
973.0
979.0
977.0
975.0
970.0
966.0
958.0
954.0
946.0
939.0
931.0
923.0
912.0
905.0
905.0
903.0
903.0
906.0
908.0
910.0
909.0
909.0
906.0
905.0
906.0
908.0
908.0
907.0
905.0
905.0
904.0
906.0
910.0
910.0
911.0
910.0
905.0
900.0
897.0
902.0
919.0
949.0
994.0
1049.0
1115.0
1187.0
1266.0
1342.0
1407.0
1441.0
1435.0
1387.0
1308.0
1215.0
1119.0
1029.0
952.0
888.0
835.0
796.0
771.0
762.0
773.0
794.0
818.0
839.0
857.0
863.0
864.0
859.0
851.0
842.0
839.0
835.0
837.0
834.0
834.0
831.0
833.0
832.0
834.0
833.0
836.0
834.0
832.0
829.0
829.0
826.0
827.0
829.0
830.0
831.0
830.0
833.0
829.0
832.0
833.0
835.0
836.0
837.0
838.0
840.0
843.0
848.0
854.0
860.0
865.0
871.0
874.0
875.0
877.0
882.0
886.0
896.0
905.0
912.0
919.0
925.0
931.0
935.0
943.0
947.0
956.0
961.0
967.0
973.0
981.0
990.0
1001.0
1007.0
1014.0
1022.0
1025.0
1030.0
1031.0
1034.0
1037.0
1047.0
1049.0
1050.0
1051.0
1047.0
1045.0
1043.0
1042.0
1038.0
1034.0
1027.0
1021.0
1016.0
1012.0
1008.0
1006.0
1004.0
1000.0
993.0
985.0
978.0
973.0
966.0
962.0
958.0
954.0
950.0
946.0
944.0
941.0
937.0
934.0
932.0
926.0
923.0
919.0
919.0
921.0
922.0
922.0
922.0
921.0
919.0
919.0
920.0
927.0
932.0
941.0
948.0
953.0
957.0
962.0
968.0
976.0
979.0
983.0
978.0
975.0
970.0
965.0
959.0
953.0
946.0
937.0
928.0
918.0
909.0
900.0
898.0
898.0
898.0
898.0
900.0
898.0
897.0
900.0
902.0
904.0
906.0
902.0
902.0
899.0
898.0
896.0
898.0
902.0
903.0
904.0
903.0
901.0
897.0
892.0
892.0
897.0
915.0
950.0
994.0
1058.0
1135.0
1223.0
1316.0
1401.0
1464.0
1493.0
1480.0
1427.0
1343.0
1245.0
1138.0
1044.0
964.0
897.0
840.0
805.0
785.0
785.0
801.0
826.0
850.0
864.0
872.0
866.0
861.0
855.0
849.0
848.0
847.0
847.0
844.0
843.0
840.0
837.0
834.0
836.0
837.0
835.0
836.0
832.0
830.0
827.0
828.0
829.0
827.0
828.0
826.0
827.0
828.0
828.0
830.0
832.0
832.0
834.0
833.0
832.0
831.0
836.0
843.0
848.0
854.0
860.0
864.0
868.0
871.0
877.0
881.0
887.0
893.0
900.0
906.0
916.0
921.0
932.0
942.0
954.0
960.0
965.0
972.0
979.0
984.0
989.0
997.0
1007.0
1017.0
1025.0
1032.0
1036.0
1042.0
1044.0
1048.0
1051.0
1055.0
1059.0
1060.0
1062.0
1062.0
1062.0
1060.0
1061.0
1059.0
1058.0
1056.0
1051.0
1045.0
1040.0
1036.0
1036.0
1035.0
1036.0
1033.0
1027.0
1021.0
1014.0
1007.0
1003.0
1001.0
994.0
992.0
987.0
980.0
974.0
972.0
969.0
969.0
966.0
962.0
957.0
950.0
945.0
942.0
946.0
945.0
946.0
945.0
945.0
943.0
940.0
937.0
937.0
938.0
943.0
945.0
952.0
956.0
961.0
967.0
972.0
977.0
979.0
979.0
981.0
982.0
980.0
985.0
987.0
987.0
985.0
977.0
967.0
951.0
937.0
926.0
916.0
911.0
906.0
907.0
906.0
908.0
907.0
909.0
909.0
910.0
910.0
907.0
908.0
904.0
900.0
905.0
908.0
907.0
913.0
911.0
909.0
909.0
905.0
901.0
905.0
905.0
907.0
908.0
914.0
931.0
967.0
1017.0
1083.0
1169.0
1257.0
1347.0
1415.0
1444.0
1423.0
1360.0
1268.0
1166.0
1066.0
980.0
916.0
869.0
838.0
818.0
806.0
806.0
816.0
836.0
857.0
875.0
882.0
885.0
881.0
874.0
866.0
862.0
856.0
853.0
856.0
857.0
859.0
861.0
860.0
859.0
856.0
852.0
848.0
846.0
847.0
848.0
848.0
847.0
849.0
849.0
850.0
855.0
854.0
856.0
854.0
857.0
857.0
861.0
864.0
869.0
874.0
879.0
883.0
885.0
892.0
896.0
904.0
909.0
914.0
920.0
927.0
935.0
940.0
947.0
958.0
966.0
974.0
978.0
986.0
990.0
999.0
1008.0
1019.0
1026.0
1036.0
1043.0
1047.0
1051.0
1055.0
1061.0
1065.0
1069.0
1071.0
1071.0
1071.0
1072.0
1071.0
1074.0
1079.0
1077.0
1078.0
1072.0
1063.0
1057.0
1051.0
1048.0
1043.0
1045.0
1040.0
1034.0
1029.0
1021.0
1018.0
1013.0
1012.0
1011.0
1008.0
1001.0
993.0
983.0
977.0
974.0
972.0
968.0
965.0
961.0
954.0
951.0
944.0
938.0
935.0
933.0
929.0
926.0
926.0
923.0
923.0
921.0
920.0
919.0
918.0
918.0
917.0
920.0
923.0
925.0
934.0
941.0
949.0
953.0
957.0
963.0
967.0
970.0
977.0
982.0
986.0
989.0
992.0
988.0
986.0
980.0
972.0
960.0
949.0
939.0
927.0
916.0
915.0
912.0
915.0
919.0
920.0
920.0
918.0
913.0
910.0
910.0
909.0
911.0
913.0
915.0
917.0
918.0
916.0
916.0
916.0
917.0
914.0
913.0
910.0
907.0
905.0
906.0
906.0
907.0
912.0
923.0
943.0
981.0
1028.0
1088.0
1162.0
1248.0
1332.0
1400.0
1441.0
1439.0
1393.0
1314.0
1220.0
1117.0
1020.0
942.0
875.0
823.0
787.0
767.0
762.0
776.0
797.0
820.0
842.0
855.0
862.0
861.0
858.0
855.0
850.0
848.0
850.0
850.0
850.0
847.0
845.0
847.0
846.0
846.0
841.0
843.0
841.0
841.0
843.0
844.0
846.0
845.0
843.0
842.0
842.0
841.0
841.0
842.0
846.0
850.0
854.0
855.0
857.0
858.0
860.0
863.0
867.0
873.0
877.0
882.0
885.0
887.0
890.0
895.0
900.0
904.0
909.0
916.0
923.0
927.0
930.0
938.0
945.0
949.0
963.0
970.0
980.0
985.0
991.0
994.0
1000.0
1007.0
1014.0
1024.0
1025.0
1035.0
1041.0
1041.0
1046.0
1049.0
1054.0
1057.0
1060.0
1060.0
1057.0
1057.0
1056.0
1057.0
1057.0
1056.0
1054.0
1048.0
1042.0
1033.0
1030.0
1027.0
1022.0
1023.0
1019.0
1012.0
1006.0
1002.0
997.0
991.0
988.0
983.0
975.0
970.0
963.0
957.0
953.0
951.0
951.0
950.0
948.0
943.0
937.0
931.0
931.0
931.0
934.0
933.0
934.0
935.0
935.0
937.0
936.0
938.0
938.0
939.0
943.0
947.0
951.0
957.0
968.0
976.0
982.0
987.0
990.0
992.0
994.0
993.0
998.0
995.0
993.0
986.0
976.0
965.0
953.0
941.0
933.0
929.0
924.0
920.0
915.0
915.0
916.0
917.0
918.0
918.0
919.0
918.0
918.0
917.0
917.0
917.0
919.0
919.0
919.0
918.0
917.0
913.0
912.0
912.0
913.0
909.0
904.0
901.0
901.0
916.0
942.0
987.0
1045.0
1116.0
1202.0
1289.0
1370.0
1428.0
1443.0
1412.0
1344.0
1250.0
1144.0
1042.0
952.0
882.0
828.0
793.0
779.0
776.0
788.0
806.0
829.0
847.0
864.0
868.0
871.0
866.0
861.0
857.0
849.0
848.0
849.0
848.0
848.0
845.0
843.0
842.0
840.0
838.0
842.0
842.0
844.0
843.0
838.0
835.0
832.0
830.0
832.0
836.0
838.0
840.0
842.0
842.0
844.0
845.0
848.0
851.0
853.0
856.0
856.0
860.0
865.0
870.0
880.0
887.0
893.0
901.0
902.0
907.0
916.0
922.0
933.0
940.0
948.0
955.0
961.0
969.0
976.0
985.0
994.0
1002.0
1008.0
1015.0
1022.0
1029.0
1038.0
1047.0
1054.0
1058.0
1063.0
1065.0
1065.0
1067.0
1067.0
1069.0
1070.0
1071.0
1072.0
1071.0
1067.0
1066.0
1064.0
1061.0
1057.0
1055.0
1050.0
1042.0
1038.0
1031.0
1025.0
1026.0
1021.0
1020.0
1017.0
1012.0
1005.0
1000.0
991.0
988.0
984.0
983.0
979.0
975.0
972.0
969.0
964.0
960.0
954.0
954.0
949.0
947.0
942.0
943.0
943.0
942.0
947.0
950.0
948.0
948.0
944.0
943.0
945.0
951.0
955.0
965.0
971.0
979.0
985.0
988.0
989.0
992.0
995.0
1000.0
1002.0
998.0
993.0
987.0
981.0
975.0
966.0
958.0
951.0
945.0
937.0
927.0
920.0
914.0
914.0
913.0
916.0
920.0
922.0
920.0
917.0
916.0
916.0
917.0
915.0
914.0
912.0
914.0
915.0
916.0
918.0
921.0
923.0
921.0
919.0
913.0
911.0
907.0
908.0
919.0
940.0
974.0
1016.0
1070.0
1137.0
1212.0
1292.0
1369.0
1425.0
1459.0
1456.0
1419.0
1355.0
1275.0
1192.0
1107.0
1028.0
959.0
902.0
855.0
824.0
811.0
815.0
833.0
855.0
874.0
886.0
890.0
886.0
878.0
868.0
860.0
858.0
857.0
860.0
864.0
864.0
864.0
863.0
862.0
860.0
858.0
857.0
859.0
857.0
855.0
852.0
851.0
853.0
853.0
856.0
858.0
859.0
859.0
859.0
855.0
855.0
855.0
858.0
862.0
865.0
870.0
876.0
876.0
880.0
886.0
893.0
899.0
904.0
914.0
916.0
923.0
928.0
936.0
944.0
953.0
961.0
969.0
976.0
979.0
983.0
989.0
997.0
1010.0
1021.0
1031.0
1038.0
1047.0
1053.0
1057.0
1065.0
1070.0
1077.0
1084.0
1086.0
1090.0
1096.0
1095.0
1097.0
1103.0
1106.0
1107.0
1103.0
1103.0
1097.0
1091.0
1087.0
1085.0
1084.0
1084.0
1080.0
1074.0
1070.0
1065.0
1059.0
1053.0
1050.0
1045.0
1038.0
1034.0
1029.0
1024.0
1023.0
1020.0
1019.0
1016.0
1010.0
1004.0
996.0
988.0
983.0
980.0
978.0
976.0
974.0
970.0
967.0
965.0
962.0
961.0
960.0
957.0
954.0
952.0
950.0
946.0
947.0
952.0
955.0
962.0
968.0
970.0
975.0
980.0
988.0
996.0
1001.0
1007.0
1010.0
1012.0
1014.0
1014.0
1012.0
1012.0
1006.0
1003.0
998.0
987.0
976.0
965.0
956.0
949.0
946.0
945.0
939.0
938.0
936.0
936.0
936.0
937.0
940.0
942.0
942.0
942.0
939.0
941.0
940.0
938.0
938.0
937.0
935.0
939.0
941.0
940.0
941.0
942.0
941.0
941.0
943.0
948.0
962.0
993.0
1036.0
1091.0
1157.0
1227.0
1296.0
1359.0
1401.0
1416.0
1401.0
1353.0
1278.0
1188.0
1101.0
1017.0
943.0
886.0
845.0
822.0
814.0
821.0
836.0
853.0
867.0
878.0
883.0
884.0
883.0
880.0
878.0
874.0
871.0
869.0
868.0
868.0
865.0
866.0
866.0
865.0
864.0
863.0
863.0
861.0
861.0
859.0
860.0
858.0
857.0
857.0
857.0
860.0
866.0
868.0
871.0
874.0
875.0
877.0
876.0
877.0
881.0
887.0
892.0
894.0
899.0
904.0
910.0
914.0
921.0
927.0
931.0
937.0
943.0
947.0
950.0
957.0
963.0
971.0
977.0
984.0
990.0
998.0
1003.0
1009.0
1015.0
1023.0
1025.0
1035.0
1041.0
1046.0
1054.0
1057.0
1063.0
1068.0
1072.0
1073.0
1073.0
1073.0
1072.0
1074.0
1074.0
1077.0
1077.0
1075.0
1071.0
1068.0
1062.0
1052.0
1049.0
1048.0
1047.0
1043.0
1040.0
1034.0
1030.0
1025.0
1021.0
1019.0
1010.0
1007.0
1003.0
995.0
988.0
984.0
983.0
979.0
979.0
975.0
972.0
966.0
961.0
956.0
950.0
950.0
950.0
949.0
951.0
948.0
948.0
945.0
945.0
945.0
944.0
947.0
945.0
945.0
944.0
947.0
953.0
957.0
966.0
974.0
978.0
984.0
985.0
988.0
991.0
996.0
999.0
1004.0
1006.0
1007.0
1005.0
1002.0
998.0
989.0
979.0
969.0
958.0
948.0
940.0
935.0
933.0
934.0
938.0
941.0
941.0
940.0
939.0
936.0
931.0
931.0
930.0
930.0
933.0
935.0
935.0
938.0
936.0
940.0
940.0
939.0
939.0
938.0
937.0
936.0
932.0
931.0
932.0
936.0
947.0
967.0
1002.0
1047.0
1105.0
1172.0
1248.0
1328.0
1390.0
1432.0
1436.0
1404.0
1342.0
1264.0
1183.0
1108.0
1037.0
973.0
918.0
867.0
828.0
805.0
800.0
813.0
837.0
859.0
878.0
887.0
886.0
879.0
871.0
868.0
