# Simple Text Format
# Sampling Rate (Hz):= 360.00
# Resolution:= 12
# Labels:= ECG
976.0
981.0
977.0
972.0
968.0
966.0
969.0
977.0
983.0
985.0
981.0
977.0
975.0
978.0
977.0
973.0
971.0
969.0
971.0
972.0
969.0
966.0
965.0
966.0
971.0
972.0
972.0
973.0
970.0
961.0
953.0
954.0
960.0
962.0
957.0
954.0
951.0
952.0
950.0
950.0
953.0
956.0
958.0
961.0
962.0
963.0
962.0
957.0
950.0
951.0
956.0
956.0
959.0
958.0
959.0
965.0
972.0
975.0
971.0
966.0
955.0
951.0
952.0
955.0
958.0
960.0
959.0
956.0
956.0
958.0
969.0
988.0
1023.0
1061.0
1099.0
1130.0
1160.0
1179.0
1190.0
1187.0
1160.0
1127.0
1089.0
1037.0
975.0
917.0
869.0
845.0
846.0
865.0
889.0
914.0
935.0
946.0
956.0
961.0
963.0
963.0
955.0
947.0
951.0
952.0
959.0
967.0
975.0
974.0
971.0
971.0
973.0
976.0
981.0
986.0
990.0
989.0
988.0
991.0
994.0
994.0
994.0
996.0
1001.0
1013.0
1019.0
1013.0
1006.0
1005.0
1011.0
1024.0
1030.0
1042.0
1044.0
1039.0
1032.0
1034.0
1046.0
1053.0
1057.0
1054.0
1049.0
1047.0
1055.0
1063.0
1065.0
1059.0
1052.0
1052.0
1053.0
1056.0
1052.0
1045.0
1035.0
1030.0
1026.0
1027.0
1028.0
1025.0
1020.0
1014.0
1004.0
995.0
993.0
993.0
994.0
990.0
987.0
983.0
978.0
978.0
979.0
980.0
983.0
981.0
977.0
971.0
967.0
966.0
969.0
969.0
966.0
962.0
960.0
963.0
968.0
969.0
969.0
960.0
960.0
960.0
963.0
962.0
960.0
957.0
960.0
969.0
979.0
979.0
977.0
972.0
969.0
970.0
980.0
988.0
992.0
992.0
993.0
995.0
995.0
989.0
983.0
975.0
972.0
975.0
978.0
980.0
968.0
960.0
957.0
962.0
972.0
977.0
977.0
966.0
957.0
957.0
960.0
962.0
960.0
955.0
959.0
964.0
967.0
966.0
966.0
966.0
970.0
973.0
973.0
968.0
958.0
951.0
959.0
965.0
972.0
975.0
972.0
970.0
973.0
967.0
959.0
948.0
949.0
954.0
962.0
963.0
966.0
960.0
958.0
959.0
963.0
963.0
968.0
970.0
974.0
988.0
1013.0
1045.0
1076.0
1105.0
1133.0
1156.0
1175.0
1184.0
1169.0
1139.0
1109.0
1068.0
1005.0
934.0
875.0
840.0
836.0
854.0
877.0
897.0
916.0
933.0
948.0
956.0
961.0
960.0
964.0
965.0
967.0
967.0
971.0
975.0
978.0
981.0
978.0
975.0
977.0
981.0
982.0
985.0
990.0
991.0
990.0
990.0
990.0
990.0
991.0
992.0
996.0
1001.0
1004.0
999.0
995.0
1000.0
1006.0
1019.0
1025.0
1025.0
1023.0
1027.0
1030.0
1038.0
1044.0
1045.0
1044.0
1044.0
1049.0
1061.0
1071.0
1072.0
1066.0
1060.0
1055.0
1055.0
1065.0
1064.0
1064.0
1058.0
1056.0
1053.0
1052.0
1051.0
1052.0
1053.0
1059.0
1063.0
1064.0
1058.0
1044.0
1025.0
1013.0
1015.0
1020.0
1024.0
1016.0
1008.0
997.0
991.0
992.0
993.0
991.0
985.0
986.0
987.0
991.0
990.0
990.0
990.0
986.0
981.0
976.0
972.0
970.0
974.0
975.0
978.0
979.0
979.0
975.0
973.0
975.0
979.0
983.0
981.0
972.0
962.0
958.0
964.0
973.0
974.0
972.0
969.0
973.0
977.0
979.0
980.0
981.0
979.0
982.0
985.0
990.0
992.0
989.0
989.0
986.0
989.0
996.0
996.0
995.0
994.0
988.0
986.0
989.0
987.0
983.0
979.0
975.0
973.0
964.0
960.0
962.0
972.0
984.0
984.0
980.0
970.0
965.0
961.0
963.0
968.0
971.0
968.0
965.0
962.0
964.0
967.0
966.0
963.0
965.0
965.0
969.0
973.0
972.0
968.0
966.0
971.0
975.0
972.0
971.0
968.0
963.0
961.0
966.0
973.0
980.0
976.0
970.0
965.0
964.0
970.0
974.0
975.0
973.0
976.0
991.0
1014.0
1039.0
1060.0
1082.0
1110.0
1141.0
1166.0
1183.0
1175.0
1145.0
1107.0
1065.0
1006.0
945.0
885.0
852.0
851.0
872.0
898.0
914.0
928.0
939.0
954.0
964.0
972.0
978.0
981.0
980.0
974.0
970.0
977.0
986.0
988.0
991.0
990.0
988.0
982.0
981.0
984.0
986.0
988.0
989.0
995.0
999.0
1007.0
1006.0
1002.0
1003.0
1004.0
1012.0
1021.0
1023.0
1019.0
1017.0
1016.0
1024.0
1025.0
1021.0
1022.0
1030.0
1042.0
1058.0
1059.0
1055.0
1055.0
1055.0
1060.0
1063.0
1061.0
1056.0
1056.0
1058.0
1064.0
1070.0
1068.0
1063.0
1054.0
1060.0
1066.0
1069.0
1063.0
1052.0
1040.0
1034.0
1036.0
1041.0
1042.0
1041.0
1036.0
1026.0
1014.0
1008.0
1000.0
995.0
994.0
992.0
990.0
989.0
982.0
978.0
978.0
978.0
987.0
990.0
987.0
986.0
983.0
983.0
981.0
979.0
975.0
975.0
980.0
985.0
983.0
981.0
980.0
981.0
980.0
979.0
980.0
987.0
988.0
987.0
988.0
989.0
989.0
982.0
979.0
977.0
977.0
981.0
983.0
991.0
998.0
1001.0
1001.0
1003.0
1005.0
1002.0
998.0
991.0
989.0
986.0
987.0
989.0
986.0
983.0
985.0
988.0
986.0
986.0
983.0
984.0
982.0
985.0
982.0
980.0
979.0
977.0
974.0
973.0
971.0
972.0
974.0
976.0
975.0
974.0
977.0
981.0
982.0
978.0
972.0
978.0
986.0
992.0
987.0
978.0
980.0
984.0
983.0
980.0
968.0
965.0
963.0
964.0
970.0
979.0
982.0
984.0
980.0
972.0
973.0
978.0
981.0
978.0
977.0
983.0
996.0
1016.0
1039.0
1057.0
1077.0
1101.0
1128.0
1155.0
1170.0
1176.0
1164.0
1137.0
1100.0
1041.0
973.0
912.0
870.0
857.0
871.0
899.0
915.0
926.0
930.0
935.0
951.0
964.0
975.0
978.0
981.0
982.0
985.0
982.0
979.0
976.0
976.0
981.0
987.0
992.0
992.0
992.0
988.0
990.0
998.0
1003.0
1006.0
1007.0
1002.0
1002.0
1005.0
1011.0
1012.0
1014.0
1018.0
1020.0
1024.0
1028.0
1032.0
1036.0
1038.0
1043.0
1049.0
1049.0
1051.0
1047.0
1049.0
1055.0
1062.0
1067.0
1067.0
1066.0
1065.0
1067.0
1070.0
1076.0
1076.0
1075.0
1077.0
1075.0
1076.0
1073.0
1062.0
1056.0
1052.0
1051.0
1051.0
1051.0
1047.0
1044.0
1035.0
1029.0
1025.0
1021.0
1019.0
1016.0
1009.0
1006.0
1009.0
1009.0
1007.0
1000.0
993.0
990.0
987.0
984.0
978.0
981.0
984.0
991.0
990.0
983.0
981.0
979.0
982.0
986.0
987.0
986.0
983.0
979.0
978.0
978.0
977.0
978.0
983.0
986.0
987.0
989.0
990.0
996.0
994.0
988.0
982.0
984.0
989.0
996.0
999.0
1000.0
1004.0
1004.0
1005.0
1003.0
1000.0
996.0
996.0
994.0
996.0
993.0
990.0
991.0
987.0
984.0
984.0
983.0
983.0
985.0
986.0
985.0
987.0
989.0
989.0
981.0
973.0
973.0
978.0
982.0
982.0
979.0
975.0
972.0
973.0
977.0
982.0
982.0
978.0
976.0
975.0
983.0
984.0
981.0
976.0
976.0
978.0
983.0
985.0
983.0
982.0
983.0
987.0
995.0
995.0
992.0
987.0
984.0
994.0
1013.0
1043.0
1074.0
1102.0
1132.0
1170.0
1195.0
1204.0
1189.0
1155.0
1115.0
1063.0
993.0
923.0
874.0
869.0
886.0
909.0
928.0
941.0
952.0
964.0
971.0
976.0
977.0
978.0
983.0
986.0
995.0
1000.0
1001.0
990.0
983.0
984.0
991.0
996.0
999.0
999.0
999.0
1002.0
1009.0
1017.0
1023.0
1019.0
1006.0
1001.0
1007.0
1014.0
1018.0
1021.0
1027.0
1033.0
1041.0
1042.0
1046.0
1048.0
1054.0
1059.0
1061.0
1063.0
1066.0
1071.0
1072.0
1075.0
1074.0
1076.0
1081.0
1086.0
1084.0
1076.0
1073.0
1074.0
1076.0
1069.0
1061.0
1060.0
1061.0
1062.0
1055.0
1045.0
1036.0
1030.0
1028.0
1026.0
1023.0
1016.0
1013.0
1013.0
1014.0
1012.0
1010.0
1007.0
1000.0
1000.0
996.0
991.0
986.0
983.0
982.0
986.0
988.0
990.0
993.0
991.0
987.0
977.0
972.0
974.0
984.0
992.0
988.0
981.0
981.0
989.0
996.0
996.0
990.0
986.0
988.0
993.0
997.0
998.0
993.0
992.0
999.0
1009.0
1013.0
1009.0
1007.0
1006.0
1005.0
1007.0
1003.0
1007.0
1006.0
998.0
987.0
980.0
989.0
998.0
991.0
978.0
974.0
974.0
979.0
979.0
976.0
974.0
977.0
983.0
989.0
989.0
984.0
975.0
971.0
973.0
979.0
982.0
982.0
981.0
986.0
990.0
991.0
979.0
972.0
972.0
979.0
984.0
987.0
984.0
982.0
982.0
982.0
983.0
986.0
985.0
984.0
980.0
979.0
987.0
1005.0
1033.0
1069.0
1102.0
1134.0
1166.0
1191.0
1205.0
1199.0
1170.0
1138.0
1095.0
1033.0
962.0
904.0
869.0
869.0
890.0
913.0
939.0
958.0
971.0
979.0
982.0
983.0
981.0
979.0
978.0
979.0
984.0
992.0
1000.0
1005.0
1006.0
1007.0
1004.0
998.0
994.0
997.0
1006.0
1016.0
1017.0
1017.0
1006.0
997.0
994.0
1000.0
1013.0
1023.0
1025.0
1020.0
1022.0
1031.0
1044.0
1051.0
1046.0
1040.0
1044.0
1055.0
1068.0
1078.0
1074.0
1070.0
1067.0
1073.0
1077.0
1081.0
1079.0
1076.0
1075.0
1076.0
1086.0
1091.0
1086.0
1068.0
1056.0
1050.0
1052.0
1057.0
1051.0
1048.0
1047.0
1052.0
1055.0
1046.0
1034.0
1018.0
1011.0
1010.0
1012.0
1010.0
1002.0
995.0
992.0
998.0
1000.0
999.0
993.0
986.0
984.0
988.0
990.0
988.0
987.0
983.0
983.0
989.0
991.0
989.0
982.0
978.0
976.0
983.0
987.0
993.0
994.0
991.0
987.0
994.0
1002.0
1005.0
1002.0
992.0
985.0
989.0
999.0
1010.0
1017.0
1010.0
1004.0
1000.0
1000.0
995.0
991.0
992.0
997.0
1001.0
999.0
998.0
998.0
997.0
992.0
992.0
997.0
995.0
985.0
972.0
966.0
974.0
985.0
990.0
988.0
984.0
980.0
977.0
981.0
989.0
990.0
984.0
978.0
977.0
981.0
985.0
984.0
991.0
992.0
988.0
980.0
978.0
983.0
990.0
992.0
990.0
988.0
988.0
983.0
976.0
971.0
975.0
980.0
992.0
1004.0
1027.0
1065.0
1101.0
1133.0
1166.0
1190.0
1205.0
1203.0
1181.0
1145.0
1100.0
1032.0
952.0
885.0
863.0
882.0
911.0
925.0
930.0
942.0
968.0
987.0
992.0
984.0
980.0
977.0
982.0
991.0
996.0
998.0
999.0
993.0
994.0
996.0
1005.0
1007.0
1003.0
1003.0
1006.0
1008.0
1016.0
1018.0
1019.0
1022.0
1017.0
1020.0
1018.0
1019.0
1025.0
1031.0
1040.0
1049.0
1057.0
1065.0
1066.0
1063.0
1065.0
1068.0
1073.0
1068.0
1062.0
1062.0
1067.0
1077.0
1074.0
1069.0
1069.0
1071.0
1076.0
1078.0
1075.0
1072.0
1072.0
1073.0
1072.0
1074.0
1076.0
1068.0
1058.0
1043.0
1035.0
1029.0
1027.0
1025.0
1022.0
1013.0
1003.0
1002.0
1007.0
1006.0
1000.0
996.0
998.0
1001.0
1005.0
1005.0
999.0
988.0
992.0
994.0
997.0
995.0
991.0
987.0
986.0
992.0
988.0
984.0
981.0
979.0
985.0
987.0
990.0
992.0
994.0
996.0
998.0
1004.0
1005.0
1004.0
1000.0
997.0
997.0
1004.0
1009.0
1007.0
1004.0
1006.0
1010.0
1007.0
1006.0
1001.0
998.0
999.0
1002.0
1004.0
999.0
993.0
988.0
989.0
992.0
995.0
993.0
993.0
987.0
974.0
967.0
970.0
973.0
978.0
975.0
975.0
978.0
983.0
988.0
991.0
991.0
991.0
987.0
989.0
990.0
987.0
983.0
978.0
978.0
979.0
985.0
992.0
995.0
994.0
995.0
992.0
981.0
972.0
969.0
974.0
978.0
983.0
993.0
1016.0
1045.0
1066.0
1091.0
1123.0
1156.0
1179.0
1182.0
1167.0
1139.0
1107.0
1062.0
997.0
935.0
887.0
861.0
866.0
890.0
911.0
924.0
936.0
947.0
964.0
976.0
982.0
980.0
982.0
988.0
997.0
999.0
992.0
985.0
986.0
991.0
996.0
1003.0
1008.0
1004.0
998.0
989.0
990.0
997.0
1006.0
1009.0
1010.0
1014.0
1016.0
1019.0
1021.0
1019.0
1027.0
1038.0
1045.0
1050.0
1049.0
1051.0
1052.0
1055.0
1059.0
1061.0
1060.0
1056.0
1057.0
1062.0
1067.0
1071.0
1073.0
1071.0
1071.0
1076.0
1080.0
1076.0
1071.0
1066.0
1064.0
1060.0
1059.0
1051.0
1046.0
1044.0
1040.0
1036.0
1035.0
1029.0
1022.0
1016.0
1008.0
1007.0
1010.0
1013.0
1011.0
1004.0
995.0
987.0
989.0
990.0
987.0
986.0
988.0
987.0
981.0
977.0
973.0
970.0
973.0
984.0
991.0
993.0
992.0
990.0
984.0
982.0
979.0
982.0
983.0
983.0
983.0
988.0
988.0
986.0
986.0
985.0
987.0
991.0
997.0
1002.0
1006.0
1004.0
1001.0
1000.0
1005.0
1003.0
996.0
990.0
990.0
992.0
996.0
993.0
991.0
986.0
979.0
974.0
978.0
988.0
995.0
995.0
987.0
980.0
976.0
972.0
971.0
974.0
979.0
978.0
975.0
974.0
975.0
977.0
976.0
980.0
982.0
985.0
983.0
977.0
966.0
969.0
975.0
980.0
984.0
978.0
973.0
975.0
979.0
980.0
978.0
973.0
974.0
978.0
981.0
981.0
978.0
978.0
981.0
990.0
1008.0
1033.0
1060.0
1077.0
1096.0
1126.0
1159.0
1179.0
1189.0
1176.0
1146.0
1106.0
1047.0
977.0
911.0
863.0
851.0
868.0
893.0
910.0
923.0
936.0
949.0
960.0
972.0
979.0
980.0
978.0
979.0
983.0
989.0
988.0
982.0
977.0
975.0
979.0
983.0
994.0
999.0
999.0
997.0
998.0
1003.0
1004.0
1005.0
1003.0
1008.0
1013.0
1026.0
1032.0
1032.0
1024.0
1022.0
1019.0
1023.0
1034.0
1038.0
1042.0
1043.0
1041.0
1049.0
1055.0
1057.0
1057.0
1057.0
1062.0
1065.0
1071.0
1070.0
1066.0
1064.0
1070.0
1074.0
1072.0
1062.0
1053.0
1052.0
1058.0
1065.0
1067.0
1058.0
1045.0
1035.0
1027.0
1027.0
1026.0
1023.0
1014.0
1003.0
1002.0
1003.0
1001.0
993.0
990.0
984.0
983.0
982.0
981.0
979.0
973.0
968.0
973.0
978.0
983.0
983.0
975.0
973.0
975.0
978.0
985.0
985.0
982.0
980.0
978.0
981.0
981.0
980.0
982.0
979.0
973.0
970.0
974.0
980.0
988.0
990.0
990.0
985.0
982.0
981.0
984.0
985.0
989.0
995.0
1001.0
1003.0
997.0
993.0
989.0
984.0
984.0
987.0
983.0
975.0
976.0
982.0
984.0
985.0
987.0
987.0
987.0
984.0
981.0
975.0
969.0
963.0
965.0
968.0
967.0
971.0
973.0
971.0
970.0
972.0
979.0
981.0
980.0
978.0
975.0
972.0
970.0
968.0
967.0
964.0
965.0
969.0
978.0
989.0
992.0
986.0
979.0
973.0
973.0
976.0
980.0
975.0
974.0
969.0
967.0
971.0
977.0
989.0
1009.0
1043.0
1075.0
1106.0
1134.0
1161.0
1180.0
1193.0
1194.0
1174.0
1139.0
1111.0
1076.0
1032.0
967.0
904.0
861.0
850.0
862.0
885.0
906.0
922.0
932.0
938.0
946.0
950.0
960.0
964.0
967.0
970.0
978.0
982.0
988.0
992.0
993.0
991.0
991.0
990.0
989.0
988.0
986.0
989.0
986.0
987.0
986.0
992.0
995.0
997.0
998.0
1008.0
1017.0
1020.0
1017.0
1012.0
1012.0
1012.0
1020.0
1029.0
1034.0
1034.0
1038.0
1042.0
1047.0
1051.0
1048.0
1042.0
1047.0
1055.0
1064.0
1065.0
1063.0
1064.0
1063.0
1057.0
1056.0
1059.0
1065.0
1068.0
1065.0
1066.0
1061.0
1061.0
1065.0
1064.0
1065.0
1059.0
1052.0
1044.0
1031.0
1025.0
1025.0
1031.0
1030.0
1024.0
1015.0
1010.0
1004.0
999.0
1003.0
1009.0
1008.0
1002.0
991.0
983.0
984.0
985.0
981.0
979.0
979.0
982.0
986.0
978.0
972.0
971.0
980.0
991.0
994.0
983.0
969.0
966.0
967.0
973.0
975.0
975.0
978.0
985.0
984.0
982.0
979.0
981.0
980.0
984.0
990.0
997.0
996.0
991.0
989.0
990.0
992.0
998.0
998.0
998.0
994.0
987.0
988.0
990.0
992.0
989.0
987.0
985.0
981.0
977.0
975.0
974.0
975.0
970.0
964.0
964.0
966.0
967.0
966.0
960.0
958.0
960.0
970.0
972.0
975.0
974.0
979.0
982.0
978.0
975.0
972.0
975.0
977.0
978.0
974.0
971.0
973.0
974.0
975.0
974.0
972.0
969.0
967.0
962.0
961.0
959.0
968.0
964.0
965.0
961.0
967.0
975.0
976.0
974.0
976.0
990.0
1022.0
1063.0
1106.0
1144.0
1175.0
1193.0
1201.0
1192.0
1167.0
1131.0
1089.0
1035.0
970.0
911.0
872.0
862.0
873.0
890.0
903.0
909.0
924.0
938.0
953.0
964.0
969.0
973.0
979.0
983.0
977.0
967.0
962.0
960.0
959.0
965.0
969.0
972.0
976.0
979.0
981.0
987.0
992.0
999.0
1005.0
1009.0
1002.0
1005.0
1008.0
1007.0
999.0
994.0
994.0
1005.0
1016.0
1020.0
1020.0
1021.0
1028.0
1032.0
1035.0
1038.0
1041.0
1042.0
1042.0
1041.0
1044.0
1051.0
1057.0
1055.0
1053.0
1054.0
1055.0
1058.0
1065.0
1072.0
1075.0
1072.0
1062.0
1054.0
1044.0
1042.0
1043.0
1035.0
1026.0
1017.0
1009.0
1007.0
1007.0
1008.0
1008.0
1007.0
1007.0
1003.0
998.0
998.0
996.0
989.0
985.0
978.0
977.0
977.0
978.0
975.0
978.0
979.0
976.0
972.0
971.0
975.0
974.0
973.0
972.0
967.0
965.0
968.0
969.0
968.0
964.0
960.0
957.0
962.0
967.0
973.0
974.0
975.0
976.0
979.0
978.0
978.0
982.0
981.0
980.0
983.0
984.0
983.0
983.0
991.0
1001.0
1002.0
991.0
988.0
982.0
976.0
969.0
970.0
977.0
985.0
986.0
979.0
967.0
958.0
956.0
957.0
960.0
961.0
958.0
962.0
967.0
969.0
969.0
965.0
959.0
963.0
973.0
983.0
982.0
977.0
968.0
962.0
956.0
960.0
957.0
956.0
954.0
956.0
961.0
962.0
964.0
966.0
963.0
965.0
971.0
973.0
972.0
967.0
961.0
955.0
953.0
960.0
967.0
976.0
972.0
969.0
970.0
969.0
970.0
975.0
993.0
1023.0
1060.0
1097.0
1129.0
1152.0
1174.0
1188.0
1198.0
1186.0
1148.0
1103.0
1069.0
1031.0
973.0
916.0
867.0
840.0
842.0
859.0
884.0
902.0
914.0
924.0
936.0
946.0
957.0
965.0
970.0
967.0
970.0
977.0
985.0
981.0
972.0
964.0
966.0
970.0
978.0
983.0
977.0
966.0
961.0
965.0
974.0
981.0
985.0
988.0
990.0
989.0
988.0
993.0
997.0
1003.0
1003.0
1002.0
1013.0
1027.0
1034.0
1033.0
1023.0
1019.0
1024.0
1033.0
1036.0
1036.0
1032.0
1030.0
1032.0
1036.0
1041.0
1047.0
1047.0
1045.0
1046.0
1052.0
1060.0
1062.0
1053.0
1045.0
1042.0
1047.0
1051.0
1052.0
1050.0
1052.0
1051.0
1048.0
1038.0
1029.0
1021.0
1016.0
1017.0
1019.0
1022.0
1012.0
996.0
991.0
997.0
997.0
994.0
986.0
983.0
986.0
991.0
987.0
977.0
970.0
964.0
963.0
969.0
974.0
973.0
962.0
958.0
960.0
965.0
970.0
969.0
964.0
958.0
952.0
951.0
954.0
956.0
958.0
958.0
961.0
962.0
966.0
967.0
966.0
967.0
972.0
977.0
978.0
974.0
968.0
969.0
975.0
983.0
990.0
993.0
997.0
999.0
997.0
987.0
980.0
982.0
982.0
977.0
971.0
966.0
960.0
964.0
963.0
961.0
965.0
966.0
968.0
971.0
961.0
953.0
950.0
955.0
962.0
963.0
961.0
957.0
956.0
958.0
958.0
956.0
957.0
952.0
951.0
959.0
965.0
965.0
962.0
959.0
957.0
961.0
967.0
966.0
956.0
950.0
953.0
956.0
957.0
958.0
961.0
963.0
965.0
963.0
964.0
965.0
964.0
961.0
958.0
965.0
984.0
1005.0
1025.0
1042.0
1063.0
1095.0
1129.0
1153.0
1163.0
1153.0
1127.0
1097.0
1061.0
1005.0
938.0
885.0
852.0
844.0
855.0
870.0
881.0
897.0
916.0
938.0
959.0
970.0
971.0
965.0
955.0
953.0
965.0
980.0
989.0
990.0
978.0
959.0
956.0
959.0
964.0
969.0
970.0
976.0
986.0
989.0
991.0
988.0
992.0
997.0
995.0
990.0
990.0
994.0
1001.0
1008.0
1019.0
1024.0
1022.0
1018.0
1020.0
1027.0
1035.0
1038.0
1037.0
1033.0
1032.0
1038.0
1045.0
1048.0
1046.0
1042.0
1042.0
1049.0
1050.0
1044.0
1031.0
1027.0
1027.0
1036.0
1042.0
1046.0
1039.0
1031.0
1029.0
1027.0
1021.0
1017.0
1007.0
996.0
992.0
989.0
989.0
983.0
977.0
973.0
970.0
968.0
967.0
966.0
967.0
962.0
966.0
968.0
971.0
968.0
961.0
952.0
946.0
948.0
955.0
959.0
957.0
955.0
955.0
959.0
961.0
958.0
951.0
944.0
946.0
956.0
972.0
980.0
983.0
983.0
973.0
956.0
944.0
940.0
944.0
949.0
954.0
961.0
966.0
972.0
974.0
977.0
981.0
989.0
998.0
1002.0
992.0
975.0
956.0
945.0
943.0
947.0
950.0
953.0
955.0
965.0
977.0
977.0
978.0
974.0
968.0
960.0
958.0
957.0
954.0
945.0
934.0
928.0
932.0
938.0
947.0
945.0
950.0
953.0
960.0
956.0
954.0
948.0
947.0
948.0
948.0
952.0
954.0
954.0
954.0
953.0
955.0
956.0
960.0
956.0
957.0
960.0
960.0
960.0
958.0
956.0
954.0
954.0
955.0
957.0
962.0
972.0
987.0
1010.0
1036.0
1062.0
1087.0
1113.0
1137.0
1155.0
1165.0
1149.0
1122.0
1091.0
1049.0
987.0
921.0
864.0
832.0
833.0
853.0
876.0
892.0
903.0
917.0
928.0
939.0
947.0
953.0
956.0
952.0
951.0
953.0
958.0
965.0
968.0
975.0
974.0
969.0
961.0
961.0
962.0
967.0
970.0
972.0
976.0
981.0
985.0
983.0
977.0
975.0
978.0
984.0
990.0
996.0
1004.0
1007.0
1014.0
1014.0
1007.0
1001.0
1002.0
1007.0
1014.0
1024.0
1033.0
1031.0
1030.0
1029.0
1033.0
1036.0
1040.0
1045.0
1046.0
1039.0
1036.0
1041.0
1049.0
1049.0
1043.0
1035.0
1040.0
1046.0
1043.0
1040.0
1037.0
1037.0
1040.0
1031.0
1013.0
992.0
983.0
987.0
989.0
991.0
988.0
983.0
980.0
980.0
981.0
981.0
981.0
976.0
971.0
972.0
972.0
974.0
977.0
984.0
987.0
980.0
965.0
960.0
961.0
959.0
953.0
951.0
951.0
955.0
953.0
950.0
950.0
958.0
970.0
975.0
967.0
953.0
943.0
943.0
951.0
958.0
961.0
955.0
955.0
958.0
962.0
970.0
974.0
978.0
977.0
978.0
985.0
982.0
970.0
960.0
958.0
958.0
965.0
970.0
968.0
959.0
958.0
961.0
961.0
959.0
959.0
956.0
959.0
958.0
959.0
953.0
948.0
944.0
943.0
946.0
951.0
956.0
962.0
967.0
969.0
962.0
957.0
956.0
952.0
949.0
941.0
941.0
949.0
958.0
964.0
966.0
962.0
956.0
951.0
954.0
958.0
955.0
947.0
943.0
951.0
958.0
956.0
957.0
953.0
954.0
959.0
963.0
967.0
983.0
1011.0
1047.0
1081.0
1113.0
1142.0
1164.0
1176.0
1163.0
1129.0
1090.0
1048.0
987.0
921.0
864.0
830.0
834.0
852.0
877.0
892.0
908.0
928.0
943.0
950.0
949.0
942.0
943.0
951.0
955.0
957.0
959.0
960.0
961.0
968.0
971.0
971.0
967.0
969.0
974.0
978.0
975.0
972.0
964.0
959.0
962.0
970.0
981.0
983.0
981.0
983.0
986.0
995.0
1001.0
998.0
998.0
999.0
1001.0
1006.0
1012.0
1016.0
1017.0
1018.0
1023.0
1027.0
1030.0
1029.0
1030.0
1030.0
1037.0
1043.0
1047.0
1046.0
1041.0
1037.0
1038.0
1042.0
1045.0
1049.0
1049.0
1038.0
1030.0
1024.0
1028.0
1028.0
1019.0
1009.0
1010.0
1021.0
1037.0
1035.0
1016.0
987.0
964.0
957.0
956.0
958.0
954.0
956.0
956.0
959.0
960.0
960.0
956.0
951.0
952.0
957.0
963.0
965.0
966.0
967.0
978.0
980.0
972.0
956.0
946.0
943.0
948.0
951.0
955.0
955.0
958.0
957.0
958.0
968.0
978.0
986.0
983.0
972.0
960.0
954.0
959.0
966.0
975.0
978.0
983.0
990.0
992.0
982.0
969.0
962.0
961.0
963.0
966.0
965.0
965.0
963.0
959.0
953.0
947.0
947.0
953.0
952.0
946.0
937.0
934.0
937.0
940.0
940.0
942.0
946.0
951.0
953.0
951.0
944.0
935.0
931.0
938.0
942.0
946.0
943.0
944.0
950.0
954.0
957.0
956.0
953.0
947.0
945.0
947.0
949.0
955.0
955.0
953.0
954.0
957.0
961.0
962.0
960.0
955.0
954.0
958.0
964.0
985.0
1015.0
1046.0
1078.0
1107.0
1139.0
1162.0
1174.0
1168.0
1140.0
1109.0
1072.0
1024.0
955.0
894.0
854.0
840.0
846.0
864.0
884.0
905.0
924.0
938.0
949.0
951.0
946.0
943.0
941.0
949.0
955.0
958.0
954.0
953.0
955.0
963.0
968.0
967.0
970.0
969.0
970.0
975.0
976.0
978.0
979.0
980.0
984.0
990.0
990.0
987.0
986.0
990.0
1000.0
1009.0
1012.0
1015.0
1016.0
1019.0
1019.0
1017.0
1022.0
1026.0
1028.0
1026.0
1027.0
1032.0
1037.0
1035.0
1036.0
1043.0
1052.0
1061.0
1057.0
1054.0
1047.0
1041.0
1042.0
1048.0
1045.0
1042.0
1038.0
1031.0
1024.0
1013.0
999.0
992.0
991.0
994.0
997.0
1003.0
1005.0
999.0
986.0
966.0
956.0
956.0
960.0
959.0
953.0
957.0
964.0
964.0
960.0
956.0
960.0
960.0
957.0
960.0
960.0
954.0
947.0
940.0
945.0
953.0
960.0
959.0
955.0
955.0
958.0
961.0
962.0
963.0
964.0
970.0
966.0
967.0
968.0
969.0
972.0
979.0
980.0
981.0
976.0
968.0
964.0
961.0
963.0
963.0
957.0
954.0
956.0
960.0
960.0
959.0
961.0
956.0
953.0
947.0
948.0
950.0
953.0
952.0
947.0
948.0
955.0
958.0
952.0
943.0
939.0
944.0
950.0
960.0
960.0
954.0
949.0
948.0
953.0
957.0
957.0
952.0
947.0
945.0
952.0
958.0
955.0
950.0
945.0
948.0
958.0
961.0
960.0
959.0
969.0
992.0
1026.0
1065.0
1105.0
1133.0
1149.0
1157.0
1159.0
1144.0
1109.0
1072.0
1022.0
955.0
895.0
848.0
831.0
842.0
858.0
876.0
895.0
915.0
934.0
948.0
952.0
955.0
960.0
964.0
961.0
952.0
947.0
953.0
969.0
981.0
980.0
971.0
960.0
961.0
974.0
988.0
986.0
967.0
955.0
964.0
984.0
998.0
997.0
994.0
990.0
995.0
998.0
1003.0
1002.0
996.0
993.0
993.0
998.0
1003.0
1010.0
1015.0
1021.0
1025.0
1030.0
1034.0
1033.0
1024.0
1020.0
1025.0
1032.0
1041.0
1039.0
1033.0
1027.0
1025.0
1030.0
1039.0
1032.0
1022.0
1015.0
1018.0
1017.0
1015.0
1010.0
1002.0
995.0
993.0
989.0
989.0
985.0
979.0
973.0
973.0
975.0
978.0
977.0
969.0
964.0
961.0
965.0
970.0
967.0
963.0
956.0
957.0
966.0
973.0
968.0
957.0
949.0
944.0
947.0
952.0
958.0
958.0
957.0
958.0
966.0
970.0
973.0
967.0
959.0
952.0
951.0
955.0
960.0
957.0
956.0
958.0
964.0
970.0
975.0
977.0
980.0
982.0
985.0
980.0
973.0
967.0
961.0
957.0
960.0
962.0
960.0
953.0
952.0
953.0
959.0
964.0
966.0
960.0
950.0
945.0
949.0
959.0
962.0
955.0
951.0
951.0
957.0
965.0
965.0
957.0
948.0
944.0
949.0
952.0
949.0
947.0
946.0
948.0
951.0
957.0
953.0
949.0
949.0
954.0
956.0
958.0
958.0
952.0
948.0
951.0
951.0
955.0
949.0
948.0
953.0
966.0
992.0
1030.0
1061.0
1090.0
1116.0
1135.0
1147.0
1151.0
1134.0
1101.0
1066.0
1017.0
957.0
901.0
857.0
831.0
829.0
849.0
875.0
899.0
917.0
928.0
936.0
938.0
944.0
949.0
955.0
956.0
959.0
962.0
965.0
967.0
962.0
959.0
960.0
965.0
972.0
978.0
980.0
976.0
974.0
981.0
994.0
999.0
991.0
975.0
970.0
971.0
978.0
988.0
997.0
1002.0
1010.0
1017.0
1023.0
1032.0
1032.0
1035.0
1039.0
1043.0
1048.0
1038.0
1022.0
1011.0
1017.0
1028.0
1042.0
1053.0
1051.0
1044.0
1041.0
1040.0
1045.0
1046.0
1038.0
1029.0
1023.0
1016.0
1015.0
1017.0
1021.0
1018.0
1012.0
1007.0
1007.0
1004.0
993.0
974.0
960.0
959.0
963.0
971.0
974.0
969.0
969.0
969.0
966.0
966.0
963.0
965.0
965.0
959.0
954.0
952.0
956.0
961.0
963.0
970.0
970.0
963.0
952.0
950.0
949.0
955.0
958.0
962.0
958.0
959.0
960.0
961.0
966.0
967.0
972.0
975.0
978.0
983.0
980.0
980.0
980.0
985.0
988.0
990.0
984.0
976.0
967.0
954.0
954.0
958.0
960.0
952.0
945.0
946.0
953.0
955.0
954.0
954.0
960.0
962.0
959.0
952.0
947.0
952.0
953.0
953.0
951.0
948.0
952.0
958.0
964.0
965.0
961.0
956.0
947.0
941.0
941.0
946.0
953.0
954.0
958.0
960.0
955.0
951.0
945.0
942.0
943.0
950.0
953.0
957.0
956.0
955.0
960.0
965.0
968.0
973.0
987.0
1014.0
1044.0
1071.0
1090.0
1107.0
1123.0
1139.0
1150.0
1139.0
1101.0
1066.0
1025.0
971.0
912.0
864.0
830.0
827.0
851.0
883.0
906.0
919.0
925.0
931.0
938.0
943.0
950.0
960.0
963.0
959.0
957.0
958.0
962.0
972.0
979.0
980.0
972.0
961.0
960.0
964.0
963.0
961.0
963.0
970.0
980.0
982.0
982.0
986.0
990.0
991.0
996.0
1003.0
1008.0
1007.0
1009.0
1010.0
1014.0
1012.0
1010.0
1012.0
1017.0
1023.0
1027.0
1033.0
1036.0
1035.0
1032.0
1034.0
1040.0
1044.0
1044.0
1038.0
1032.0
1036.0
1040.0
1050.0
1050.0
1042.0
1034.0
1027.0
1029.0
1033.0
1031.0
1024.0
1010.0
1002.0
995.0
995.0
996.0
992.0
985.0
979.0
