# Simple Text Format
# Sampling Rate (Hz):= 360.00
# Resolution:= 12
# Labels:= ECG
898.0
897.0
896.0
895.0
897.0
898.0
897.0
897.0
897.0
899.0
900.0
899.0
897.0
896.0
899.0
895.0
895.0
895.0
898.0
896.0
895.0
900.0
900.0
901.0
900.0
898.0
897.0
895.0
896.0
897.0
896.0
898.0
898.0
898.0
900.0
900.0
898.0
897.0
896.0
895.0
897.0
901.0
906.0
907.0
911.0
916.0
918.0
916.0
915.0
917.0
914.0
910.0
905.0
904.0
904.0
904.0
907.0
909.0
911.0
911.0
909.0
908.0
904.0
900.0
899.0
898.0
896.0
898.0
901.0
904.0
907.0
906.0
909.0
910.0
912.0
920.0
933.0
955.0
996.0
1050.0
1121.0
1206.0
1284.0
1340.0
1359.0
1339.0
1273.0
1150.0
1022.0
894.0
766.0
681.0
705.0
766.0
823.0
863.0
881.0
882.0
880.0
872.0
875.0
878.0
884.0
887.0
888.0
889.0
888.0
886.0
883.0
882.0
882.0
881.0
881.0
884.0
885.0
889.0
889.0
892.0
892.0
890.0
893.0
893.0
893.0
894.0
897.0
898.0
897.0
899.0
901.0
905.0
905.0
906.0
907.0
905.0
907.0
905.0
909.0
910.0
911.0
912.0
915.0
916.0
920.0
921.0
924.0
921.0
922.0
921.0
923.0
923.0
922.0
927.0
931.0
935.0
935.0
936.0
936.0
936.0
934.0
932.0
933.0
932.0
935.0
936.0
940.0
939.0
941.0
941.0
937.0
937.0
941.0
937.0
937.0
936.0
939.0
940.0
941.0
945.0
944.0
946.0
944.0
945.0
943.0
944.0
945.0
950.0
951.0
957.0
962.0
963.0
964.0
963.0
959.0
957.0
953.0
950.0
947.0
945.0
939.0
938.0
938.0
941.0
938.0
935.0
931.0
923.0
920.0
915.0
915.0
913.0
913.0
915.0
914.0
917.0
914.0
914.0
911.0
910.0
909.0
908.0
906.0
908.0
909.0
911.0
912.0
914.0
914.0
915.0
915.0
913.0
913.0
915.0
913.0
914.0
919.0
921.0
924.0
926.0
927.0
926.0
922.0
922.0
922.0
923.0
920.0
921.0
929.0
928.0
930.0
931.0
933.0
930.0
928.0
927.0
927.0
924.0
925.0
926.0
926.0
926.0
926.0
929.0
928.0
927.0
925.0
922.0
920.0
918.0
918.0
918.0
919.0
919.0
920.0
920.0
922.0
919.0
916.0
912.0
911.0
910.0
910.0
908.0
909.0
910.0
910.0
912.0
912.0
911.0
907.0
908.0
905.0
904.0
901.0
900.0
899.0
905.0
903.0
905.0
908.0
907.0
903.0
901.0
897.0
898.0
899.0
901.0
900.0
903.0
902.0
902.0
902.0
903.0
901.0
900.0
899.0
897.0
894.0
894.0
895.0
898.0
902.0
903.0
903.0
903.0
899.0
897.0
895.0
898.0
896.0
896.0
896.0
896.0
898.0
900.0
901.0
900.0
901.0
897.0
898.0
898.0
893.0
892.0
894.0
899.0
897.0
899.0
902.0
900.0
899.0
899.0
896.0
895.0
893.0
894.0
894.0
896.0
898.0
899.0
903.0
902.0
902.0
901.0
900.0
898.0
898.0
897.0
899.0
897.0
901.0
902.0
903.0
903.0
903.0
903.0
902.0
900.0
895.0
895.0
896.0
901.0
906.0
906.0
910.0
914.0
917.0
918.0
920.0
920.0
917.0
916.0
914.0
912.0
911.0
911.0
908.0
908.0
912.0
912.0
911.0
910.0
909.0
906.0
906.0
903.0
902.0
903.0
903.0
902.0
903.0
904.0
912.0
915.0
921.0
931.0
947.0
975.0
1019.0
1077.0
1148.0
1229.0
1296.0
1333.0
1330.0
1276.0
1155.0
1027.0
899.0
771.0
658.0
690.0
753.0
815.0
856.0
878.0
883.0
880.0
877.0
876.0
881.0
886.0
890.0
893.0
892.0
892.0
891.0
886.0
885.0
886.0
883.0
884.0
887.0
892.0
892.0
893.0
895.0
895.0
894.0
895.0
893.0
896.0
897.0
899.0
899.0
902.0
903.0
905.0
906.0
901.0
901.0
900.0
905.0
904.0
904.0
908.0
908.0
911.0
912.0
915.0
915.0
917.0
915.0
914.0
912.0
912.0
914.0
916.0
916.0
921.0
925.0
926.0
928.0
928.0
927.0
925.0
923.0
924.0
925.0
928.0
931.0
934.0
933.0
938.0
936.0
938.0
937.0
936.0
932.0
932.0
932.0
931.0
933.0
933.0
937.0
938.0
938.0
937.0
936.0
935.0
931.0
931.0
926.0
928.0
929.0
927.0
932.0
935.0
937.0
938.0
936.0
937.0
938.0
940.0
941.0
943.0
947.0
949.0
953.0
954.0
954.0
951.0
948.0
947.0
946.0
944.0
941.0
939.0
939.0
936.0
933.0
933.0
931.0
929.0
927.0
922.0
920.0
912.0
912.0
909.0
911.0
911.0
910.0
911.0
910.0
906.0
907.0
905.0
903.0
903.0
901.0
905.0
905.0
906.0
908.0
911.0
909.0
912.0
911.0
909.0
910.0
911.0
911.0
912.0
913.0
915.0
918.0
921.0
924.0
925.0
927.0
923.0
922.0
921.0
920.0
924.0
924.0
928.0
928.0
931.0
929.0
931.0
932.0
933.0
931.0
929.0
929.0
927.0
928.0
926.0
926.0
927.0
928.0
927.0
926.0
923.0
922.0
921.0
920.0
920.0
920.0
921.0
919.0
921.0
920.0
915.0
914.0
912.0
914.0
914.0
908.0
906.0
905.0
908.0
911.0
910.0
910.0
911.0
908.0
908.0
907.0
906.0
905.0
903.0
904.0
902.0
904.0
906.0
905.0
902.0
903.0
900.0
901.0
900.0
900.0
899.0
898.0
902.0
902.0
902.0
903.0
903.0
903.0
903.0
898.0
896.0
893.0
892.0
896.0
897.0
901.0
901.0
900.0
899.0
899.0
895.0
895.0
894.0
894.0
894.0
898.0
900.0
900.0
901.0
901.0
902.0
901.0
899.0
896.0
898.0
895.0
894.0
896.0
896.0
896.0
900.0
901.0
900.0
899.0
897.0
898.0
896.0
894.0
894.0
897.0
897.0
897.0
898.0
898.0
900.0
900.0
897.0
898.0
898.0
897.0
898.0
897.0
897.0
900.0
901.0
901.0
901.0
900.0
903.0
901.0
903.0
907.0
913.0
917.0
920.0
923.0
925.0
924.0
922.0
919.0
914.0
911.0
908.0
907.0
905.0
908.0
911.0
909.0
913.0
914.0
914.0
911.0
904.0
902.0
897.0
898.0
899.0
898.0
904.0
909.0
912.0
911.0
912.0
917.0
923.0
932.0
938.0
957.0
993.0
1037.0
1094.0
1163.0
1233.0
1295.0
1330.0
1328.0
1283.0
1173.0
1045.0
917.0
789.0
661.0
681.0
742.0
807.0
855.0
881.0
890.0
887.0
883.0
884.0
885.0
888.0
891.0
893.0
893.0
894.0
890.0
891.0
891.0
890.0
890.0
890.0
890.0
890.0
891.0
893.0
895.0
898.0
898.0
897.0
897.0
897.0
898.0
896.0
895.0
899.0
899.0
902.0
906.0
908.0
908.0
907.0
904.0
906.0
905.0
907.0
908.0
908.0
910.0
913.0
914.0
917.0
916.0
918.0
917.0
917.0
918.0
918.0
919.0
919.0
918.0
922.0
925.0
926.0
928.0
930.0
928.0
930.0
929.0
928.0
929.0
930.0
931.0
934.0
936.0
937.0
937.0
937.0
936.0
933.0
934.0
930.0
931.0
930.0
930.0
931.0
930.0
933.0
933.0
933.0
932.0
929.0
927.0
926.0
926.0
928.0
931.0
933.0
936.0
939.0
939.0
944.0
944.0
944.0
946.0
946.0
946.0
947.0
946.0
946.0
943.0
940.0
941.0
938.0
935.0
931.0
929.0
924.0
921.0
917.0
914.0
915.0
914.0
912.0
911.0
909.0
908.0
905.0
902.0
899.0
900.0
899.0
900.0
902.0
902.0
903.0
902.0
901.0
900.0
900.0
902.0
902.0
903.0
902.0
903.0
906.0
908.0
909.0
913.0
912.0
912.0
912.0
911.0
913.0
913.0
916.0
918.0
922.0
923.0
924.0
923.0
923.0
922.0
922.0
922.0
920.0
921.0
921.0
923.0
924.0
922.0
925.0
925.0
925.0
926.0
925.0
921.0
919.0
917.0
917.0
917.0
914.0
916.0
919.0
918.0
916.0
915.0
911.0
910.0
909.0
908.0
909.0
910.0
910.0
909.0
909.0
909.0
907.0
905.0
904.0
901.0
902.0
901.0
900.0
896.0
899.0
899.0
901.0
902.0
901.0
900.0
897.0
895.0
894.0
894.0
894.0
894.0
896.0
895.0
896.0
899.0
896.0
895.0
893.0
891.0
890.0
894.0
895.0
893.0
894.0
894.0
897.0
897.0
897.0
897.0
894.0
894.0
891.0
893.0
892.0
891.0
894.0
896.0
895.0
898.0
896.0
896.0
895.0
895.0
891.0
890.0
892.0
893.0
894.0
895.0
896.0
896.0
896.0
896.0
896.0
895.0
893.0
892.0
890.0
893.0
894.0
895.0
897.0
897.0
897.0
894.0
893.0
893.0
892.0
890.0
891.0
891.0
894.0
897.0
898.0
897.0
897.0
896.0
896.0
892.0
892.0
892.0
892.0
895.0
896.0
896.0
897.0
897.0
897.0
897.0
897.0
897.0
895.0
894.0
897.0
901.0
906.0
909.0
913.0
914.0
917.0
913.0
914.0
909.0
905.0
902.0
900.0
900.0
903.0
905.0
907.0
908.0
907.0
907.0
907.0
903.0
900.0
898.0
897.0
895.0
894.0
894.0
898.0
898.0
901.0
905.0
904.0
905.0
908.0
911.0
917.0
926.0
943.0
971.0
1012.0
1070.0
1137.0
1214.0
1284.0
1330.0
1345.0
1319.0
1249.0
1126.0
998.0
870.0
742.0
678.0
707.0
762.0
819.0
858.0
873.0
875.0
869.0
867.0
869.0
875.0
881.0
885.0
891.0
890.0
885.0
879.0
874.0
874.0
872.0
873.0
878.0
880.0
883.0
886.0
886.0
884.0
884.0
885.0
885.0
884.0
886.0
888.0
893.0
893.0
893.0
896.0
895.0
898.0
898.0
898.0
898.0
899.0
899.0
899.0
902.0
903.0
905.0
909.0
909.0
909.0
907.0
906.0
909.0
907.0
908.0
911.0
913.0
913.0
915.0
917.0
917.0
921.0
919.0
920.0
919.0
919.0
922.0
924.0
924.0
924.0
926.0
924.0
929.0
929.0
930.0
931.0
930.0
930.0
929.0
931.0
933.0
935.0
934.0
937.0
934.0
935.0
934.0
932.0
932.0
932.0
932.0
934.0
937.0
939.0
938.0
941.0
946.0
946.0
949.0
952.0
952.0
956.0
955.0
954.0
956.0
955.0
954.0
953.0
950.0
947.0
942.0
940.0
933.0
931.0
927.0
924.0
923.0
920.0
917.0
917.0
913.0
914.0
910.0
906.0
904.0
902.0
903.0
902.0
904.0
906.0
906.0
907.0
904.0
906.0
903.0
901.0
901.0
898.0
900.0
901.0
904.0
903.0
907.0
909.0
909.0
909.0
910.0
910.0
909.0
909.0
909.0
909.0
910.0
913.0
917.0
919.0
918.0
920.0
916.0
916.0
917.0
913.0
913.0
914.0
912.0
915.0
917.0
919.0
919.0
919.0
915.0
914.0
915.0
914.0
912.0
910.0
912.0
911.0
913.0
912.0
910.0
911.0
908.0
906.0
904.0
902.0
902.0
902.0
904.0
902.0
905.0
904.0
903.0
901.0
901.0
899.0
898.0
896.0
895.0
895.0
899.0
898.0
898.0
897.0
897.0
896.0
895.0
893.0
894.0
892.0
892.0
892.0
892.0
891.0
895.0
897.0
895.0
893.0
893.0
891.0
889.0
886.0
888.0
888.0
892.0
893.0
896.0
897.0
894.0
891.0
889.0
889.0
890.0
888.0
888.0
890.0
892.0
893.0
893.0
893.0
893.0
892.0
892.0
890.0
892.0
889.0
888.0
891.0
890.0
888.0
891.0
893.0
895.0
893.0
892.0
891.0
892.0
891.0
890.0
891.0
889.0
892.0
894.0
896.0
896.0
894.0
890.0
893.0
891.0
889.0
889.0
890.0
893.0
893.0
896.0
897.0
896.0
895.0
893.0
892.0
892.0
893.0
894.0
896.0
899.0
906.0
910.0
912.0
912.0
913.0
913.0
912.0
910.0
907.0
906.0
902.0
900.0
901.0
901.0
905.0
906.0
907.0
908.0
906.0
903.0
901.0
898.0
897.0
893.0
893.0
894.0
900.0
900.0
902.0
901.0
905.0
907.0
909.0
918.0
930.0
949.0
985.0
1038.0
1107.0
1188.0
1266.0
1322.0
1347.0
1332.0
1268.0
1147.0
1019.0
891.0
763.0
675.0
702.0
760.0
820.0
859.0
880.0
881.0
878.0
873.0
874.0
880.0
881.0
887.0
889.0
888.0
883.0
880.0
879.0
877.0
878.0
876.0
882.0
882.0
884.0
887.0
888.0
888.0
889.0
890.0
886.0
887.0
887.0
888.0
890.0
892.0
895.0
898.0
899.0
897.0
900.0
902.0
903.0
901.0
904.0
905.0
906.0
906.0
907.0
908.0
913.0
913.0
914.0
913.0
913.0
911.0
912.0
911.0
913.0
915.0
917.0
922.0
925.0
924.0
922.0
923.0
923.0
925.0
922.0
923.0
926.0
929.0
929.0
931.0
933.0
933.0
933.0
933.0
933.0
932.0
929.0
931.0
929.0
933.0
933.0
935.0
935.0
937.0
937.0
936.0
935.0
935.0
931.0
936.0
938.0
940.0
941.0
944.0
946.0
946.0
949.0
948.0
952.0
953.0
955.0
953.0
952.0
954.0
955.0
953.0
952.0
952.0
949.0
945.0
941.0
934.0
931.0
929.0
923.0
925.0
924.0
922.0
920.0
915.0
913.0
911.0
909.0
908.0
904.0
903.0
905.0
904.0
905.0
907.0
908.0
910.0
908.0
909.0
908.0
906.0
906.0
905.0
907.0
910.0
909.0
912.0
915.0
914.0
916.0
915.0
915.0
916.0
914.0
916.0
917.0
919.0
921.0
923.0
923.0
924.0
924.0
924.0
923.0
921.0
920.0
920.0
920.0
924.0
924.0
926.0
927.0
925.0
926.0
921.0
919.0
916.0
915.0
917.0
917.0
919.0
918.0
918.0
919.0
915.0
917.0
915.0
914.0
911.0
908.0
910.0
909.0
907.0
908.0
911.0
910.0
910.0
907.0
904.0
905.0
899.0
899.0
897.0
902.0
903.0
903.0
904.0
905.0
905.0
903.0
902.0
901.0
900.0
901.0
899.0
900.0
899.0
899.0
901.0
902.0
901.0
899.0
897.0
898.0
895.0
893.0
892.0
892.0
893.0
894.0
897.0
901.0
899.0
899.0
897.0
898.0
897.0
896.0
897.0
897.0
899.0
900.0
899.0
899.0
899.0
899.0
897.0
897.0
897.0
894.0
896.0
894.0
898.0
897.0
898.0
901.0
903.0
899.0
898.0
896.0
895.0
895.0
895.0
898.0
897.0
899.0
900.0
901.0
900.0
899.0
900.0
900.0
898.0
898.0
899.0
897.0
900.0
901.0
904.0
904.0
902.0
903.0
900.0
898.0
900.0
901.0
905.0
910.0
912.0
916.0
919.0
922.0
922.0
921.0
919.0
915.0
912.0
907.0
907.0
907.0
907.0
910.0
910.0
914.0
912.0
909.0
911.0
908.0
903.0
901.0
899.0
899.0
901.0
900.0
902.0
905.0
908.0
909.0
908.0
911.0
913.0
918.0
928.0
943.0
964.0
996.0
1040.0
1096.0
1162.0
1231.0
1294.0
1330.0
1335.0
1299.0
1214.0
1086.0
958.0
830.0
702.0
678.0
724.0
784.0
835.0
866.0
877.0
877.0
874.0
873.0
878.0
884.0
890.0
894.0
893.0
890.0
883.0
884.0
883.0
881.0
882.0
884.0
887.0
889.0
891.0
892.0
890.0
894.0
893.0
894.0
894.0
893.0
895.0
895.0
897.0
900.0
901.0
904.0
905.0
905.0
902.0
905.0
902.0
902.0
903.0
906.0
909.0
911.0
914.0
916.0
917.0
918.0
915.0
917.0
914.0
913.0
914.0
915.0
920.0
920.0
920.0
924.0
924.0
927.0
926.0
927.0
927.0
926.0
927.0
927.0
929.0
931.0
935.0
934.0
936.0
937.0
936.0
937.0
935.0
934.0
931.0
933.0
933.0
934.0
935.0
934.0
934.0
933.0
935.0
935.0
934.0
934.0
931.0
931.0
931.0
930.0
932.0
937.0
939.0
941.0
941.0
942.0
944.0
945.0
949.0
951.0
950.0
953.0
955.0
953.0
950.0
948.0
946.0
943.0
940.0
937.0
936.0
933.0
931.0
929.0
927.0
923.0
921.0
920.0
917.0
913.0
909.0
908.0
908.0
909.0
908.0
908.0
910.0
910.0
909.0
908.0
907.0
909.0
906.0
908.0
909.0
910.0
912.0
915.0
914.0
915.0
916.0
916.0
916.0
918.0
918.0
920.0
918.0
919.0
919.0
925.0
928.0
928.0
931.0
929.0
927.0
927.0
927.0
924.0
929.0
931.0
933.0
931.0
935.0
932.0
932.0
932.0
930.0
929.0
928.0
926.0
924.0
928.0
928.0
924.0
926.0
929.0
929.0
925.0
921.0
919.0
917.0
915.0
914.0
913.0
919.0
918.0
916.0
919.0
917.0
919.0
918.0
916.0
912.0
910.0
910.0
908.0
910.0
911.0
911.0
910.0
911.0
911.0
911.0
910.0
910.0
905.0
904.0
902.0
904.0
904.0
905.0
907.0
906.0
909.0
906.0
906.0
903.0
902.0
899.0
901.0
905.0
905.0
906.0
905.0
906.0
903.0
899.0
902.0
901.0
901.0
899.0
900.0
901.0
903.0
904.0
907.0
904.0
906.0
901.0
903.0
901.0
899.0
900.0
899.0
902.0
903.0
903.0
904.0
902.0
902.0
901.0
898.0
898.0
896.0
897.0
897.0
899.0
901.0
903.0
903.0
903.0
907.0
903.0
905.0
902.0
902.0
902.0
901.0
903.0
899.0
901.0
906.0
906.0
907.0
905.0
906.0
905.0
904.0
903.0
903.0
904.0
907.0
912.0
915.0
920.0
923.0
924.0
921.0
921.0
921.0
919.0
917.0
915.0
914.0
914.0
913.0
914.0
914.0
911.0
912.0
910.0
912.0
912.0
910.0
909.0
906.0
905.0
906.0
905.0
906.0
906.0
905.0
906.0
907.0
909.0
913.0
922.0
932.0
947.0
965.0
992.0
1029.0
1081.0
1144.0
1214.0
1273.0
1315.0
1324.0
1301.0
1228.0
1101.0
973.0
845.0
717.0
666.0
697.0
755.0
814.0
851.0
868.0
876.0
876.0
877.0
882.0
886.0
891.0
893.0
893.0
891.0
888.0
888.0
885.0
889.0
890.0
891.0
895.0
895.0
896.0
897.0
896.0
895.0
895.0
894.0
894.0
893.0
894.0
900.0
905.0
905.0
905.0
904.0
904.0
903.0
902.0
905.0
905.0
907.0
909.0
910.0
913.0
914.0
917.0
914.0
915.0
916.0
916.0
916.0
917.0
920.0
920.0
920.0
924.0
925.0
929.0
927.0
927.0
929.0
928.0
930.0
931.0
933.0
933.0
936.0
936.0
934.0
938.0
936.0
936.0
935.0
935.0
933.0
932.0
933.0
933.0
932.0
935.0
936.0
935.0
932.0
929.0
930.0
929.0
928.0
928.0
932.0
934.0
937.0
939.0
940.0
942.0
944.0
944.0
946.0
948.0
949.0
949.0
951.0
949.0
951.0
948.0
947.0
943.0
940.0
936.0
932.0
928.0
926.0
922.0
922.0
923.0
921.0
924.0
919.0
916.0
913.0
913.0
911.0
910.0
908.0
908.0
906.0
907.0
906.0
911.0
912.0
910.0
910.0
911.0
909.0
908.0
909.0
907.0
910.0
908.0
912.0
918.0
918.0
918.0
918.0
919.0
918.0
918.0
920.0
923.0
924.0
925.0
928.0
928.0
928.0
927.0
927.0
925.0
926.0
925.0
927.0
926.0
926.0
928.0
929.0
933.0
932.0
931.0
930.0
928.0
925.0
924.0
923.0
923.0
925.0
924.0
926.0
925.0
924.0
926.0
923.0
920.0
919.0
918.0
915.0
916.0
916.0
914.0
916.0
917.0
918.0
914.0
913.0
914.0
910.0
907.0
906.0
907.0
909.0
910.0
910.0
909.0
909.0
911.0
908.0
905.0
902.0
902.0
901.0
901.0
902.0
904.0
902.0
904.0
907.0
902.0
899.0
903.0
900.0
901.0
900.0
900.0
903.0
900.0
902.0
904.0
906.0
903.0
904.0
899.0
900.0
898.0
899.0
900.0
900.0
900.0
901.0
903.0
903.0
903.0
902.0
901.0
901.0
898.0
897.0
901.0
900.0
900.0
902.0
903.0
903.0
903.0
904.0
902.0
901.0
900.0
900.0
896.0
897.0
901.0
903.0
904.0
905.0
905.0
903.0
900.0
900.0
897.0
895.0
897.0
900.0
900.0
901.0
905.0
903.0
902.0
900.0
900.0
900.0
900.0
901.0
900.0
901.0
901.0
903.0
906.0
907.0
908.0
911.0
913.0
916.0
918.0
919.0
920.0
920.0
921.0
921.0
921.0
918.0
913.0
911.0
907.0
908.0
907.0
910.0
910.0
911.0
910.0
911.0
911.0
909.0
903.0
901.0
899.0
899.0
898.0
899.0
904.0
907.0
911.0
914.0
922.0
932.0
947.0
975.0
1017.0
1079.0
1157.0
1234.0
1300.0
1330.0
1312.0
1232.0
1104.0
976.0
848.0
720.0
680.0
727.0
792.0
841.0
871.0
888.0
889.0
887.0
886.0
886.0
890.0
889.0
889.0
884.0
882.0
880.0
884.0
883.0
886.0
886.0
885.0
886.0
887.0
888.0
888.0
890.0
890.0
889.0
889.0
893.0
894.0
899.0
901.0
902.0
901.0
903.0
901.0
900.0
903.0
903.0
903.0
905.0
905.0
909.0
910.0
911.0
913.0
913.0
914.0
910.0
910.0
909.0
912.0
914.0
915.0
919.0
923.0
922.0
924.0
922.0
924.0
921.0
925.0
926.0
926.0
926.0
928.0
933.0
934.0
933.0
935.0
935.0
934.0
933.0
933.0
930.0
934.0
934.0
933.0
934.0
938.0
936.0
938.0
937.0
934.0
934.0
933.0
931.0
935.0
937.0
940.0
943.0
949.0
948.0
952.0
954.0
954.0
954.0
955.0
954.0
954.0
955.0
953.0
955.0
952.0
950.0
950.0
944.0
940.0
936.0
931.0
928.0
925.0
924.0
924.0
923.0
923.0
921.0
918.0
914.0
911.0
909.0
907.0
905.0
905.0
905.0
905.0
904.0
906.0
907.0
907.0
905.0
902.0
903.0
903.0
903.0
903.0
903.0
905.0
906.0
911.0
909.0
912.0
914.0
913.0
908.0
908.0
908.0
913.0
914.0
915.0
918.0
917.0
920.0
916.0
916.0
916.0
916.0
916.0
919.0
916.0
920.0
920.0
923.0
922.0
921.0
921.0
919.0
919.0
917.0
917.0
917.0
916.0
917.0
918.0
919.0
921.0
919.0
919.0
916.0
914.0
909.0
909.0
906.0
908.0
907.0
909.0
907.0
908.0
907.0
906.0
905.0
906.0
903.0
902.0
899.0
901.0
902.0
902.0
902.0
901.0
904.0
901.0
901.0
901.0
900.0
897.0
895.0
896.0
896.0
899.0
897.0
900.0
897.0
899.0
899.0
897.0
896.0
894.0
895.0
894.0
894.0
895.0
895.0
896.0
897.0
897.0
897.0
894.0
896.0
892.0
893.0
893.0
894.0
894.0
896.0
898.0
899.0
898.0
896.0
895.0
896.0
893.0
893.0
894.0
892.0
896.0
896.0
898.0
898.0
898.0
897.0
895.0
894.0
892.0
890.0
892.0
892.0
896.0
897.0
899.0
898.0
898.0
896.0
896.0
894.0
893.0
892.0
893.0
893.0
894.0
896.0
897.0
897.0
898.0
898.0
896.0
894.0
892.0
893.0
892.0
892.0
896.0
901.0
906.0
911.0
912.0
912.0
912.0
913.0
911.0
908.0
909.0
904.0
902.0
901.0
902.0
906.0
907.0
908.0
907.0
906.0
904.0
905.0
903.0
898.0
901.0
901.0
899.0
899.0
896.0
898.0
897.0
897.0
899.0
902.0
908.0
917.0
928.0
945.0
976.0
1019.0
1075.0
1150.0
1224.0
1289.0
1329.0
1335.0
1306.0
1227.0
1106.0
978.0
850.0
722.0
687.0
714.0
765.0
820.0
858.0
873.0
873.0
870.0
866.0
867.0
873.0
880.0
883.0
887.0
886.0
884.0
878.0
876.0
877.0
877.0
879.0
881.0
884.0
885.0
886.0
884.0
888.0
886.0
883.0
881.0
883.0
887.0
889.0
890.0
896.0
895.0
897.0
896.0
896.0
893.0
893.0
894.0
897.0
898.0
902.0
904.0
906.0
908.0
909.0
908.0
904.0
908.0
908.0
907.0
908.0
911.0
913.0
915.0
916.0
919.0
920.0
918.0
916.0
918.0
916.0
918.0
920.0
923.0
925.0
927.0
933.0
931.0
934.0
930.0
932.0
931.0
929.0
929.0
931.0
929.0
931.0
934.0
937.0
938.0
940.0
940.0
939.0
935.0
937.0
935.0
936.0
936.0
938.0
942.0
943.0
944.0
949.0
948.0
949.0
950.0
952.0
955.0
957.0
960.0
962.0
961.0
962.0
960.0
958.0
953.0
948.0
945.0
942.0
938.0
934.0
930.0
929.0
927.0
927.0
925.0
922.0
919.0
915.0
909.0
908.0
907.0
904.0
904.0
905.0
905.0
906.0
903.0
903.0
902.0
901.0
899.0
899.0
898.0
898.0
897.0
900.0
904.0
906.0
906.0
909.0
907.0
909.0
908.0
907.0
909.0
908.0
908.0
911.0
914.0
914.0
916.0
915.0
914.0
915.0
915.0
915.0
913.0
913.0
915.0
917.0
917.0
918.0
920.0
921.0
920.0
917.0
918.0
916.0
916.0
915.0
917.0
915.0
914.0
918.0
919.0
918.0
915.0
913.0
910.0
908.0
908.0
910.0
910.0
911.0
910.0
909.0
908.0
907.0
908.0
908.0
904.0
903.0
902.0
902.0
901.0
904.0
903.0
906.0
906.0
904.0
904.0
900.0
900.0
900.0
898.0
897.0
898.0
900.0
900.0
901.0
901.0
903.0
901.0
896.0
896.0
895.0
894.0
894.0
894.0
898.0
896.0
897.0
897.0
899.0
897.0
892.0
892.0
892.0
892.0
893.0
895.0
894.0
898.0
897.0
898.0
897.0
897.0
897.0
897.0
895.0
896.0
894.0
894.0
895.0
896.0
899.0
899.0
897.0
898.0
896.0
895.0
895.0
894.0
896.0
895.0
897.0
896.0
898.0
897.0
897.0
897.0
893.0
892.0
896.0
894.0
893.0
894.0
897.0
897.0
900.0
899.0
899.0
895.0
894.0
894.0
893.0
892.0
895.0
895.0
898.0
895.0
898.0
899.0
899.0
899.0
896.0
897.0
895.0
895.0
899.0
901.0
905.0
908.0
911.0
913.0
913.0
908.0
911.0
910.0
909.0
908.0
907.0
903.0
905.0
904.0
904.0
906.0
906.0
906.0
905.0
905.0
903.0
901.0
899.0
897.0
898.0
896.0
899.0
900.0
899.0
902.0
904.0
906.0
909.0
913.0
920.0
930.0
950.0
976.0
1019.0
1078.0
1147.0
1221.0
1284.0
1325.0
1339.0
1316.0
1250.0
1139.0
1011.0
883.0
755.0
696.0
711.0
760.0
814.0
854.0
873.0
878.0
876.0
872.0
873.0
877.0
884.0
890.0
890.0
890.0
890.0
885.0
883.0
880.0
880.0
881.0
880.0
885.0
887.0
887.0
888.0
892.0
890.0
888.0
890.0
890.0
892.0
894.0
897.0
899.0
900.0
902.0
903.0
902.0
899.0
901.0
903.0
906.0
905.0
906.0
908.0
911.0
913.0
914.0
914.0
916.0
914.0
914.0
913.0
912.0
912.0
914.0
915.0
917.0
920.0
924.0
922.0
924.0
922.0
922.0
921.0
925.0
930.0
929.0
931.0
929.0
933.0
932.0
935.0
936.0
938.0
936.0
936.0
932.0
931.0
934.0
937.0
936.0
938.0
939.0
942.0
941.0
939.0
936.0
936.0
934.0
936.0
938.0
938.0
938.0
940.0
945.0
944.0
947.0
947.0
949.0
946.0
951.0
954.0
955.0
956.0
958.0
961.0
959.0
955.0
951.0
946.0
941.0
938.0
935.0
926.0
924.0
926.0
924.0
922.0
922.0
917.0
915.0
913.0
908.0
906.0
904.0
903.0
904.0
904.0
906.0
908.0
910.0
908.0
906.0
904.0
905.0
906.0
904.0
906.0
908.0
910.0
909.0
912.0
914.0
914.0
913.0
913.0
912.0
912.0
913.0
917.0
917.0
922.0
923.0
925.0
926.0
926.0
925.0
924.0
923.0
921.0
923.0
926.0
923.0
926.0
925.0
929.0
930.0
928.0
926.0
925.0
923.0
919.0
919.0
920.0
923.0
923.0
925.0
926.0
925.0
922.0
920.0
918.0
915.0
915.0
914.0
914.0
914.0
916.0
914.0
916.0
916.0
913.0
913.0
908.0
906.0
907.0
904.0
905.0
905.0
903.0
906.0
904.0
908.0
907.0
908.0
906.0
905.0
902.0
900.0
900.0
901.0
902.0
904.0
903.0
906.0
902.0
899.0
900.0
898.0
897.0
899.0
899.0
898.0
897.0
900.0
898.0
901.0
903.0
902.0
901.0
900.0
897.0
896.0
895.0
895.0
895.0
896.0
896.0
900.0
900.0
899.0
897.0
895.0
893.0
892.0
892.0
893.0
895.0
897.0
897.0
897.0
896.0
897.0
898.0
895.0
898.0
897.0
897.0
897.0
896.0
897.0
900.0
897.0
899.0
898.0
897.0
894.0
894.0
895.0
897.0
896.0
897.0
899.0
899.0
898.0
897.0
897.0
899.0
897.0
898.0
898.0
899.0
901.0
901.0
902.0
901.0
899.0
900.0
900.0
897.0
897.0
895.0
896.0
894.0
897.0
898.0
899.0
901.0
902.0
903.0
903.0
902.0
904.0
905.0
905.0
909.0
913.0
914.0
917.0
919.0
920.0
918.0
918.0
917.0
913.0
911.0
907.0
906.0
904.0
905.0
906.0
908.0
909.0
909.0
906.0
908.0
904.0
899.0
895.0
895.0
893.0
896.0
900.0
900.0
908.0
909.0
911.0
914.0
919.0
931.0
947.0
977.0
1021.0
1080.0
1149.0
1226.0
1296.0
1338.0
1353.0
1324.0
1246.0
1118.0
990.0
862.0
734.0
657.0
690.0
759.0
818.0
860.0
878.0
880.0
876.0
870.0
872.0
875.0
884.0
887.0
888.0
887.0
889.0
887.0
887.0
886.0
887.0
884.0
884.0
886.0
886.0
888.0
891.0
890.0
894.0
895.0
898.0
896.0
897.0
896.0
894.0
894.0
897.0
898.0
901.0
903.0
906.0
905.0
906.0
906.0
906.0
906.0
907.0
908.0
907.0
909.0
910.0
911.0
913.0
915.0
918.0
917.0
917.0
917.0
916.0
919.0
918.0
921.0
925.0
927.0
929.0
930.0
929.0
930.0
929.0
930.0
929.0
930.0
931.0
934.0
937.0
936.0
934.0
935.0
938.0
935.0
934.0
934.0
932.0
931.0
933.0
934.0
935.0
935.0
936.0
