# Simple Text Format
# Sampling Rate (Hz):= 360.00
# Resolution:= 12
# Labels:= ECG
912.0
912.0
912.0
911.0
910.0
912.0
911.0
913.0
914.0
917.0
919.0
920.0
920.0
923.0
923.0
924.0
925.0
927.0
925.0
924.0
924.0
926.0
927.0
929.0
931.0
934.0
934.0
935.0
937.0
936.0
937.0
934.0
937.0
939.0
940.0
940.0
944.0
945.0
949.0
946.0
945.0
946.0
946.0
945.0
944.0
949.0
949.0
953.0
955.0
956.0
957.0
955.0
954.0
950.0
952.0
950.0
951.0
950.0
951.0
953.0
955.0
955.0
956.0
955.0
952.0
954.0
953.0
952.0
954.0
955.0
956.0
959.0
962.0
967.0
967.0
971.0
969.0
971.0
970.0
970.0
968.0
969.0
967.0
966.0
964.0
965.0
963.0
958.0
951.0
949.0
942.0
938.0
937.0
931.0
932.0
932.0
933.0
934.0
932.0
931.0
929.0
923.0
925.0
923.0
922.0
922.0
924.0
929.0
929.0
931.0
931.0
928.0
926.0
928.0
928.0
930.0
929.0
931.0
933.0
935.0
938.0
936.0
938.0
939.0
938.0
938.0
936.0
937.0
938.0
940.0
941.0
944.0
947.0
947.0
946.0
948.0
946.0
944.0
941.0
942.0
943.0
941.0
944.0
946.0
943.0
947.0
942.0
943.0
943.0
939.0
937.0
936.0
936.0
936.0
937.0
938.0
938.0
939.0
938.0
938.0
935.0
930.0
929.0
928.0
927.0
928.0
928.0
930.0
929.0
931.0
928.0
927.0
923.0
921.0
920.0
920.0
920.0
923.0
919.0
921.0
922.0
922.0
922.0
921.0
920.0
918.0
915.0
914.0
916.0
918.0
920.0
920.0
922.0
922.0
922.0
921.0
919.0
916.0
916.0
912.0
913.0
915.0
917.0
918.0
921.0
922.0
921.0
921.0
917.0
918.0
914.0
913.0
914.0
914.0
916.0
916.0
918.0
920.0
917.0
918.0
917.0
917.0
916.0
914.0
912.0
914.0
915.0
916.0
919.0
918.0
918.0
918.0
916.0
916.0
910.0
912.0
914.0
913.0
915.0
917.0
918.0
920.0
920.0
917.0
917.0
914.0
914.0
915.0
912.0
912.0
913.0
916.0
917.0
921.0
922.0
923.0
920.0
918.0
914.0
917.0
915.0
912.0
916.0
916.0
915.0
916.0
920.0
919.0
919.0
920.0
920.0
920.0
925.0
927.0
930.0
933.0
934.0
937.0
936.0
937.0
938.0
939.0
938.0
935.0
932.0
927.0
927.0
927.0
924.0
927.0
924.0
926.0
927.0
927.0
924.0
918.0
916.0
916.0
916.0
917.0
918.0
923.0
920.0
924.0
927.0
932.0
940.0
951.0
969.0
1002.0
1045.0
1095.0
1160.0
1226.0
1279.0
1312.0
1319.0
1289.0
1217.0
1101.0
973.0
845.0
722.0
697.0
726.0
782.0
833.0
871.0
889.0
895.0
889.0
886.0
888.0
895.0
901.0
909.0
911.0
911.0
912.0
909.0
905.0
903.0
902.0
899.0
901.0
904.0
906.0
908.0
910.0
914.0
910.0
911.0
910.0
912.0
911.0
911.0
911.0
913.0
914.0
915.0
917.0
921.0
922.0
922.0
922.0
917.0
921.0
919.0
921.0
921.0
921.0
924.0
926.0
927.0
929.0
929.0
929.0
929.0
928.0
927.0
930.0
931.0
934.0
935.0
938.0
941.0
941.0
939.0
942.0
941.0
943.0
944.0
943.0
943.0
943.0
949.0
949.0
946.0
952.0
952.0
949.0
952.0
950.0
949.0
949.0
948.0
949.0
948.0
949.0
951.0
950.0
948.0
950.0
951.0
946.0
944.0
945.0
946.0
948.0
948.0
951.0
955.0
956.0
959.0
959.0
961.0
963.0
963.0
965.0
966.0
968.0
966.0
965.0
964.0
962.0
958.0
956.0
953.0
949.0
946.0
945.0
944.0
942.0
939.0
938.0
935.0
935.0
931.0
929.0
928.0
924.0
923.0
923.0
922.0
924.0
924.0
929.0
928.0
927.0
926.0
925.0
927.0
928.0
927.0
926.0
930.0
932.0
931.0
934.0
935.0
937.0
938.0
939.0
937.0
935.0
936.0
936.0
940.0
942.0
944.0
945.0
946.0
950.0
947.0
946.0
947.0
943.0
945.0
943.0
944.0
943.0
946.0
946.0
948.0
949.0
949.0
946.0
945.0
942.0
940.0
940.0
938.0
941.0
941.0
940.0
940.0
940.0
940.0
936.0
935.0
935.0
931.0
929.0
932.0
930.0
932.0
932.0
933.0
932.0
932.0
930.0
930.0
927.0
925.0
923.0
925.0
923.0
923.0
924.0
924.0
925.0
923.0
921.0
921.0
920.0
920.0
920.0
921.0
919.0
919.0
920.0
922.0
921.0
920.0
921.0
921.0
920.0
917.0
917.0
916.0
918.0
915.0
919.0
919.0
920.0
921.0
921.0
920.0
915.0
916.0
914.0
915.0
915.0
917.0
916.0
919.0
919.0
919.0
917.0
916.0
915.0
914.0
916.0
914.0
916.0
915.0
918.0
917.0
919.0
920.0
915.0
915.0
914.0
914.0
916.0
914.0
915.0
916.0
917.0
920.0
920.0
918.0
919.0
917.0
917.0
914.0
912.0
914.0
915.0
917.0
918.0
922.0
921.0
921.0
918.0
918.0
916.0
915.0
917.0
915.0
917.0
918.0
918.0
919.0
920.0
918.0
919.0
917.0
916.0
916.0
919.0
921.0
925.0
930.0
935.0
939.0
936.0
937.0
937.0
937.0
936.0
934.0
937.0
938.0
936.0
934.0
930.0
931.0
930.0
929.0
927.0
927.0
927.0
925.0
923.0
921.0
919.0
917.0
917.0
919.0
918.0
918.0
921.0
921.0
922.0
924.0
926.0
929.0
939.0
948.0
964.0
990.0
1028.0
1079.0
1140.0
1211.0
1275.0
1314.0
1322.0
1279.0
1169.0
1041.0
913.0
785.0
693.0
719.0
774.0
832.0
872.0
893.0
901.0
901.0
897.0
901.0
903.0
905.0
906.0
906.0
908.0
904.0
902.0
902.0
900.0
903.0
902.0
903.0
905.0
909.0
909.0
912.0
911.0
910.0
912.0
910.0
909.0
909.0
910.0
916.0
919.0
918.0
922.0
918.0
919.0
918.0
917.0
918.0
920.0
920.0
920.0
924.0
926.0
928.0
929.0
930.0
929.0
928.0
927.0
927.0
927.0
930.0
930.0
932.0
933.0
936.0
937.0
936.0
937.0
936.0
936.0
937.0
939.0
940.0
941.0
944.0
945.0
948.0
949.0
947.0
946.0
945.0
946.0
946.0
942.0
943.0
944.0
944.0
944.0
947.0
945.0
946.0
944.0
943.0
941.0
941.0
940.0
939.0
942.0
943.0
948.0
950.0
952.0
952.0
953.0
956.0
957.0
957.0
958.0
957.0
962.0
964.0
963.0
962.0
963.0
961.0
958.0
955.0
952.0
949.0
943.0
940.0
941.0
939.0
938.0
940.0
936.0
935.0
931.0
930.0
926.0
924.0
923.0
923.0
924.0
926.0
926.0
926.0
925.0
924.0
921.0
919.0
921.0
919.0
919.0
920.0
921.0
920.0
923.0
926.0
927.0
929.0
927.0
926.0
926.0
923.0
924.0
925.0
925.0
929.0
930.0
934.0
934.0
934.0
933.0
932.0
932.0
932.0
932.0
934.0
934.0
936.0
936.0
938.0
938.0
936.0
935.0
935.0
935.0
933.0
932.0
933.0
933.0
935.0
934.0
933.0
933.0
932.0
927.0
925.0
926.0
924.0
923.0
923.0
925.0
925.0
925.0
926.0
925.0
923.0
921.0
921.0
917.0
916.0
913.0
914.0
916.0
914.0
915.0
917.0
918.0
918.0
916.0
915.0
913.0
913.0
912.0
911.0
911.0
911.0
914.0
915.0
913.0
912.0
910.0
909.0
907.0
907.0
906.0
906.0
908.0
909.0
909.0
911.0
913.0
913.0
911.0
906.0
908.0
905.0
904.0
906.0
906.0
909.0
910.0
911.0
910.0
909.0
909.0
905.0
903.0
905.0
905.0
904.0
906.0
907.0
906.0
912.0
909.0
909.0
907.0
909.0
906.0
907.0
908.0
906.0
905.0
907.0
906.0
907.0
912.0
912.0
909.0
910.0
908.0
905.0
907.0
907.0
907.0
909.0
910.0
913.0
913.0
911.0
910.0
907.0
906.0
907.0
906.0
907.0
907.0
910.0
910.0
912.0
913.0
913.0
911.0
911.0
908.0
907.0
908.0
909.0
911.0
913.0
916.0
921.0
924.0
927.0
925.0
927.0
925.0
927.0
923.0
928.0
929.0
928.0
926.0
927.0
920.0
918.0
916.0
917.0
914.0
915.0
917.0
917.0
916.0
915.0
913.0
913.0
911.0
911.0
912.0
913.0
913.0
912.0
917.0
921.0
926.0
936.0
950.0
973.0
1010.0
1057.0
1120.0
1192.0
1258.0
1306.0
1323.0
1309.0
1253.0
1150.0
1022.0
894.0
766.0
718.0
735.0
778.0
830.0
867.0
886.0
887.0
885.0
887.0
885.0
891.0
892.0
897.0
900.0
901.0
897.0
895.0
891.0
890.0
890.0
891.0
891.0
894.0
898.0
900.0
901.0
901.0
897.0
899.0
897.0
898.0
901.0
902.0
907.0
909.0
907.0
906.0
905.0
908.0
908.0
909.0
908.0
909.0
911.0
913.0
916.0
919.0
920.0
920.0
919.0
920.0
918.0
916.0
916.0
916.0
920.0
922.0
925.0
929.0
930.0
930.0
930.0
931.0
930.0
930.0
931.0
930.0
933.0
937.0
939.0
940.0
940.0
942.0
944.0
944.0
938.0
938.0
940.0
940.0
943.0
944.0
947.0
948.0
951.0
949.0
949.0
949.0
947.0
947.0
944.0
948.0
951.0
953.0
954.0
958.0
958.0
960.0
959.0
961.0
963.0
965.0
966.0
968.0
970.0
972.0
971.0
971.0
969.0
966.0
961.0
958.0
955.0
951.0
946.0
946.0
944.0
942.0
940.0
940.0
937.0
932.0
926.0
922.0
924.0
923.0
921.0
920.0
920.0
919.0
921.0
920.0
920.0
919.0
919.0
918.0
919.0
916.0
916.0
914.0
914.0
916.0
921.0
923.0
925.0
922.0
919.0
919.0
917.0
919.0
918.0
919.0
921.0
925.0
926.0
928.0
930.0
929.0
929.0
929.0
929.0
929.0
929.0
929.0
930.0
932.0
931.0
934.0
933.0
935.0
932.0
931.0
929.0
929.0
928.0
929.0
930.0
931.0
932.0
934.0
930.0
930.0
927.0
923.0
925.0
922.0
925.0
923.0
923.0
923.0
923.0
923.0
920.0
919.0
917.0
916.0
916.0
914.0
914.0
914.0
913.0
915.0
917.0
916.0
915.0
914.0
915.0
911.0
911.0
910.0
910.0
909.0
909.0
910.0
910.0
911.0
911.0
911.0
912.0
910.0
910.0
908.0
909.0
910.0
907.0
906.0
907.0
909.0
911.0
911.0
912.0
908.0
908.0
906.0
904.0
906.0
906.0
907.0
905.0
907.0
907.0
908.0
909.0
906.0
906.0
906.0
906.0
906.0
907.0
907.0
908.0
910.0
908.0
907.0
909.0
908.0
906.0
904.0
904.0
906.0
907.0
907.0
909.0
908.0
910.0
908.0
908.0
906.0
907.0
902.0
905.0
905.0
904.0
904.0
904.0
907.0
906.0
908.0
909.0
911.0
907.0
906.0
906.0
906.0
908.0
910.0
911.0
913.0
912.0
913.0
913.0
908.0
907.0
909.0
909.0
912.0
917.0
920.0
920.0
925.0
926.0
925.0
925.0
924.0
925.0
923.0
922.0
917.0
915.0
916.0
913.0
915.0
917.0
918.0
919.0
916.0
915.0
913.0
910.0
909.0
905.0
907.0
910.0
910.0
914.0
915.0
916.0
915.0
919.0
922.0
931.0
944.0
970.0
1008.0
1058.0
1122.0
1196.0
1265.0
1314.0
1333.0
1314.0
1243.0
1119.0
991.0
863.0
735.0
709.0
741.0
795.0
845.0
880.0
893.0
894.0
890.0
885.0
885.0
888.0
893.0
898.0
899.0
899.0
894.0
892.0
890.0
890.0
886.0
887.0
888.0
890.0
893.0
894.0
897.0
897.0
898.0
896.0
896.0
894.0
898.0
898.0
898.0
901.0
901.0
903.0
905.0
906.0
907.0
906.0
908.0
908.0
908.0
907.0
909.0
911.0
912.0
916.0
918.0
919.0
919.0
919.0
919.0
915.0
918.0
919.0
922.0
922.0
923.0
927.0
931.0
932.0
933.0
932.0
932.0
933.0
931.0
933.0
933.0
934.0
938.0
941.0
942.0
945.0
943.0
943.0
942.0
941.0
940.0
940.0
941.0
942.0
945.0
945.0
947.0
947.0
946.0
949.0
947.0
947.0
946.0
948.0
948.0
950.0
953.0
958.0
960.0
964.0
966.0
968.0
969.0
966.0
968.0
964.0
963.0
960.0
958.0
956.0
955.0
952.0
946.0
946.0
940.0
938.0
933.0
929.0
929.0
927.0
925.0
923.0
923.0
922.0
918.0
918.0
916.0
914.0
913.0
913.0
912.0
912.0
914.0
915.0
916.0
915.0
917.0
915.0
917.0
915.0
914.0
916.0
919.0
917.0
920.0
922.0
923.0
924.0
924.0
924.0
924.0
923.0
923.0
923.0
923.0
922.0
929.0
930.0
933.0
937.0
936.0
935.0
934.0
932.0
931.0
929.0
928.0
930.0
931.0
932.0
934.0
933.0
934.0
934.0
931.0
929.0
929.0
928.0
929.0
928.0
929.0
931.0
929.0
928.0
929.0
925.0
926.0
924.0
921.0
922.0
920.0
919.0
921.0
922.0
922.0
923.0
921.0
919.0
918.0
915.0
914.0
913.0
916.0
914.0
914.0
915.0
918.0
917.0
915.0
916.0
914.0
915.0
910.0
913.0
912.0
910.0
910.0
911.0
910.0
915.0
913.0
911.0
909.0
908.0
909.0
908.0
909.0
908.0
911.0
910.0
913.0
911.0
909.0
907.0
906.0
907.0
908.0
905.0
908.0
908.0
909.0
912.0
911.0
911.0
911.0
912.0
910.0
908.0
909.0
907.0
907.0
909.0
910.0
911.0
913.0
912.0
910.0
914.0
911.0
911.0
909.0
908.0
909.0
908.0
910.0
911.0
913.0
913.0
911.0
911.0
908.0
909.0
911.0
910.0
911.0
909.0
910.0
913.0
913.0
915.0
914.0
913.0
912.0
911.0
911.0
911.0
911.0
913.0
914.0
915.0
916.0
918.0
918.0
920.0
920.0
923.0
925.0
924.0
928.0
932.0
932.0
933.0
932.0
934.0
931.0
930.0
926.0
925.0
920.0
921.0
918.0
917.0
921.0
922.0
924.0
927.0
929.0
927.0
925.0
920.0
916.0
912.0
912.0
913.0
918.0
922.0
924.0
926.0
932.0
936.0
943.0
954.0
974.0
1010.0
1059.0
1123.0
1198.0
1265.0
1313.0
1332.0
1309.0
1240.0
1117.0
989.0
861.0
733.0
703.0
738.0
797.0
851.0
884.0
903.0
907.0
901.0
897.0
899.0
900.0
900.0
904.0
905.0
905.0
906.0
907.0
903.0
908.0
905.0
904.0
905.0
902.0
903.0
902.0
904.0
908.0
910.0
914.0
915.0
915.0
913.0
914.0
915.0
916.0
914.0
917.0
917.0
919.0
921.0
922.0
922.0
921.0
925.0
924.0
919.0
921.0
923.0
927.0
926.0
928.0
930.0
931.0
934.0
934.0
934.0
935.0
933.0
931.0
932.0
933.0
936.0
939.0
940.0
944.0
946.0
944.0
943.0
944.0
944.0
943.0
941.0
942.0
944.0
945.0
947.0
949.0
952.0
952.0
953.0
950.0
952.0
948.0
949.0
947.0
946.0
947.0
948.0
948.0
949.0
950.0
950.0
949.0
947.0
943.0
942.0
943.0
943.0
945.0
948.0
952.0
956.0
960.0
961.0
960.0
962.0
965.0
965.0
968.0
967.0
967.0
968.0
966.0
962.0
959.0
957.0
954.0
953.0
950.0
946.0
946.0
941.0
942.0
938.0
937.0
938.0
935.0
932.0
929.0
926.0
924.0
924.0
923.0
924.0
924.0
927.0
927.0
926.0
925.0
926.0
923.0
922.0
921.0
923.0
924.0
925.0
927.0
929.0
930.0
933.0
934.0
933.0
932.0
933.0
932.0
930.0
933.0
933.0
935.0
940.0
942.0
946.0
946.0
944.0
945.0
943.0
943.0
943.0
945.0
944.0
946.0
946.0
946.0
947.0
947.0
947.0
946.0
946.0
942.0
942.0
939.0
937.0
937.0
940.0
940.0
939.0
939.0
940.0
936.0
931.0
932.0
931.0
933.0
931.0
930.0
930.0
931.0
929.0
928.0
929.0
925.0
925.0
924.0
922.0
924.0
924.0
923.0
922.0
924.0
926.0
921.0
922.0
921.0
919.0
919.0
917.0
916.0
919.0
920.0
920.0
922.0
922.0
919.0
917.0
915.0
916.0
915.0
913.0
911.0
912.0
912.0
913.0
915.0
916.0
916.0
915.0
916.0
914.0
912.0
913.0
913.0
915.0
916.0
916.0
916.0
916.0
916.0
915.0
912.0
913.0
913.0
911.0
912.0
914.0
915.0
916.0
915.0
915.0
917.0
917.0
915.0
913.0
912.0
914.0
912.0
914.0
914.0
912.0
916.0
914.0
914.0
915.0
914.0
914.0
912.0
909.0
912.0
912.0
914.0
916.0
916.0
917.0
917.0
917.0
915.0
914.0
914.0
911.0
915.0
915.0
916.0
921.0
926.0
932.0
934.0
935.0
935.0
933.0
930.0
927.0
926.0
924.0
921.0
925.0
926.0
925.0
926.0
929.0
929.0
927.0
925.0
924.0
919.0
916.0
915.0
914.0
913.0
916.0
919.0
918.0
922.0
925.0
928.0
931.0
937.0
948.0
968.0
995.0
1029.0
1075.0
1133.0
1195.0
1257.0
1303.0
1322.0
1313.0
1264.0
1171.0
1043.0
915.0
787.0
708.0
709.0
751.0
808.0
851.0
878.0
886.0
888.0
887.0
888.0
893.0
900.0
909.0
910.0
910.0
907.0
904.0
901.0
899.0
898.0
898.0
902.0
906.0
907.0
909.0
910.0
910.0
908.0
907.0
905.0
906.0
906.0
909.0
912.0
914.0
915.0
919.0
917.0
917.0
916.0
916.0
915.0
917.0
919.0
915.0
919.0
920.0
922.0
924.0
925.0
926.0
926.0
926.0
927.0
925.0
924.0
925.0
929.0
931.0
932.0
937.0
936.0
936.0
936.0
936.0
936.0
936.0
935.0
938.0
940.0
941.0
947.0
947.0
948.0
944.0
945.0
945.0
947.0
945.0
944.0
945.0
948.0
949.0
949.0
952.0
952.0
951.0
948.0
947.0
946.0
946.0
946.0
947.0
948.0
949.0
949.0
949.0
948.0
948.0
947.0
948.0
949.0
951.0
954.0
958.0
961.0
963.0
967.0
970.0
968.0
970.0
968.0
964.0
961.0
956.0
952.0
953.0
950.0
950.0
949.0
948.0
944.0
940.0
938.0
936.0
931.0
930.0
929.0
927.0
928.0
928.0
929.0
930.0
928.0
925.0
925.0
923.0
918.0
920.0
918.0
924.0
925.0
926.0
927.0
925.0
925.0
926.0
927.0
927.0
926.0
925.0
925.0
927.0
930.0
932.0
938.0
940.0
941.0
938.0
938.0
938.0
936.0
935.0
938.0
941.0
944.0
943.0
945.0
945.0
946.0
942.0
939.0
940.0
940.0
937.0
939.0
939.0
942.0
938.0
940.0
940.0
938.0
938.0
933.0
932.0
930.0
929.0
931.0
929.0
930.0
930.0
930.0
932.0
930.0
929.0
926.0
923.0
923.0
921.0
922.0
923.0
923.0
924.0
924.0
925.0
923.0
922.0
923.0
921.0
918.0
917.0
917.0
916.0
922.0
921.0
925.0
925.0
920.0
919.0
919.0
919.0
918.0
917.0
917.0
917.0
918.0
919.0
919.0
920.0
921.0
921.0
919.0
916.0
915.0
913.0
914.0
917.0
919.0
921.0
921.0
921.0
921.0
918.0
915.0
916.0
913.0
914.0
913.0
916.0
915.0
913.0
914.0
919.0
918.0
919.0
916.0
914.0
917.0
914.0
915.0
914.0
915.0
917.0
918.0
920.0
918.0
913.0
915.0
913.0
914.0
913.0
913.0
915.0
917.0
918.0
918.0
919.0
920.0
919.0
921.0
922.0
924.0
927.0
927.0
930.0
932.0
936.0
939.0
940.0
938.0
935.0
931.0
928.0
925.0
922.0
920.0
925.0
927.0
926.0
929.0
928.0
929.0
928.0
924.0
922.0
918.0
915.0
915.0
914.0
917.0
917.0
920.0
923.0
926.0
928.0
933.0
941.0
948.0
965.0
991.0
1031.0
1084.0
1149.0
1221.0
1284.0
1325.0
1337.0
1315.0
1245.0
1125.0
997.0
869.0
741.0
700.0
728.0
782.0
837.0
873.0
889.0
892.0
890.0
883.0
884.0
888.0
893.0
902.0
905.0
907.0
904.0
903.0
898.0
898.0
896.0
896.0
896.0
897.0
899.0
898.0
901.0
902.0
906.0
903.0
904.0
906.0
906.0
905.0
904.0
904.0
907.0
908.0
911.0
910.0
914.0
916.0
914.0
915.0
915.0
915.0
914.0
915.0
917.0
918.0
921.0
923.0
924.0
927.0
927.0
926.0
927.0
926.0
926.0
928.0
930.0
930.0
934.0
935.0
939.0
940.0
937.0
937.0
937.0
936.0
937.0
936.0
941.0
942.0
943.0
945.0
947.0
947.0
947.0
946.0
943.0
943.0
947.0
946.0
946.0
948.0
948.0
950.0
951.0
951.0
952.0
951.0
951.0
952.0
952.0
955.0
957.0
959.0
962.0
966.0
969.0
970.0
972.0
970.0
969.0
967.0
962.0
962.0
961.0
958.0
955.0
952.0
950.0
947.0
945.0
941.0
940.0
934.0
928.0
926.0
924.0
921.0
923.0
926.0
924.0
920.0
920.0
918.0
917.0
914.0
915.0
913.0
917.0
916.0
917.0
916.0
919.0
917.0
919.0
918.0
918.0
917.0
916.0
917.0
919.0
918.0
922.0
924.0
926.0
927.0
927.0
925.0
923.0
924.0
922.0
925.0
923.0
928.0
930.0
931.0
931.0
935.0
932.0
931.0
930.0
930.0
929.0
929.0
929.0
930.0
931.0
931.0
930.0
929.0
929.0
927.0
926.0
923.0
924.0
925.0
924.0
923.0
924.0
926.0
924.0
925.0
921.0
923.0
918.0
917.0
915.0
914.0
915.0
916.0
917.0
917.0
918.0
915.0
915.0
914.0
913.0
911.0
909.0
909.0
910.0
908.0
910.0
913.0
912.0
913.0
912.0
911.0
911.0
906.0
904.0
906.0
907.0
908.0
911.0
911.0
912.0
910.0
910.0
907.0
906.0
905.0
905.0
904.0
903.0
907.0
904.0
908.0
908.0
908.0
906.0
905.0
905.0
904.0
905.0
905.0
904.0
904.0
905.0
907.0
908.0
909.0
909.0
909.0
907.0
907.0
904.0
904.0
904.0
905.0
905.0
909.0
909.0
909.0
909.0
907.0
905.0
904.0
904.0
904.0
906.0
905.0
905.0
904.0
906.0
908.0
908.0
906.0
906.0
903.0
903.0
904.0
903.0
906.0
905.0
909.0
908.0
912.0
909.0
909.0
909.0
908.0
906.0
905.0
907.0
909.0
910.0
913.0
915.0
918.0
920.0
924.0
925.0
923.0
924.0
922.0
919.0
919.0
918.0
918.0
919.0
919.0
920.0
919.0
920.0
919.0
917.0
917.0
916.0
917.0
916.0
918.0
913.0
911.0
912.0
910.0
912.0
912.0
914.0
918.0
921.0
928.0
936.0
947.0
965.0
999.0
1048.0
1114.0
1191.0
1266.0
1317.0
1324.0
1280.0
1171.0
1043.0
915.0
787.0
718.0
744.0
795.0
847.0
884.0
897.0
902.0
899.0
898.0
897.0
897.0
899.0
896.0
897.0
897.0
895.0
893.0
890.0
895.0
894.0
897.0
897.0
898.0
897.0
898.0
897.0
900.0
898.0
898.0
899.0
899.0
900.0
902.0
903.0
904.0
904.0
907.0
913.0
910.0
910.0
911.0
909.0
911.0
913.0
915.0
918.0
920.0
923.0
922.0
922.0
922.0
921.0
921.0
920.0
920.0
924.0
926.0
926.0
930.0
932.0
934.0
932.0
933.0
933.0
931.0
933.0
934.0
936.0
937.0
940.0
942.0
944.0
945.0
946.0
946.0
941.0
944.0
944.0
941.0
946.0
948.0
947.0
949.0
950.0
951.0
952.0
953.0
951.0
950.0
953.0
956.0
957.0
961.0
964.0
967.0
969.0
970.0
972.0
972.0
971.0
972.0
970.0
968.0
965.0
963.0
962.0
960.0
958.0
955.0
953.0
952.0
947.0
945.0
939.0
939.0
933.0
932.0
933.0
933.0
932.0
928.0
927.0
926.0
923.0
920.0
916.0
918.0
919.0
917.0
917.0
919.0
923.0
922.0
921.0
920.0
920.0
916.0
917.0
917.0
919.0
920.0
921.0
923.0
926.0
927.0
925.0
922.0
923.0
922.0
920.0
922.0
922.0
923.0
926.0
928.0
934.0
933.0
934.0
934.0
934.0
930.0
929.0
929.0
930.0
930.0
932.0
933.0
935.0
936.0
935.0
934.0
932.0
930.0
930.0
929.0
931.0
931.0
932.0
931.0
933.0
927.0
928.0
930.0
928.0
927.0
924.0
923.0
925.0
923.0
924.0
924.0
926.0
925.0
922.0
923.0
920.0
921.0
917.0
917.0
917.0
916.0
919.0
922.0
922.0
922.0
921.0
923.0
918.0
918.0
917.0
916.0
914.0
914.0
916.0
917.0
919.0
919.0
915.0
915.0
915.0
915.0
913.0
914.0
913.0
913.0
914.0
915.0
914.0
915.0
915.0
917.0
912.0
911.0
911.0
912.0
912.0
915.0
915.0
918.0
917.0
920.0
917.0
915.0
915.0
915.0
912.0
913.0
914.0
915.0
915.0
914.0
916.0
913.0
913.0
914.0
914.0
913.0
913.0
912.0
912.0
913.0
914.0
915.0
917.0
917.0
917.0
917.0
915.0
912.0
913.0
910.0
910.0
911.0
913.0
915.0
917.0
916.0
914.0
917.0
914.0
914.0
914.0
913.0
912.0
912.0
914.0
916.0
917.0
923.0
926.0
925.0
928.0
930.0
929.0
929.0
929.0
930.0
930.0
930.0
924.0
925.0
923.0
922.0
921.0
923.0
923.0
920.0
923.0
925.0
925.0
924.0
922.0
921.0
919.0
917.0
914.0
916.0
916.0
920.0
922.0
929.0
936.0
944.0
959.0
980.0
1012.0
1055.0
1111.0
1179.0
1246.0
1303.0
1336.0
1333.0
1299.0
1214.0
1086.0
958.0
830.0
712.0
701.0
740.0
799.0
851.0
883.0
896.0
896.0
892.0
892.0
893.0
900.0
902.0
907.0
909.0
907.0
907.0
905.0
903.0
903.0
903.0
905.0
907.0
908.0
907.0
908.0
906.0
905.0
906.0
906.0
909.0
910.0
912.0
917.0
918.0
916.0
917.0
916.0
917.0
916.0
916.0
919.0
922.0
924.0
925.0
929.0
929.0
929.0
928.0
926.0
927.0
926.0
925.0
927.0
930.0
931.0
935.0
938.0
940.0
940.0
938.0
936.0
934.0
936.0
935.0
938.0
940.0
940.0
944.0
948.0
948.0
950.0
948.0
948.0
947.0
945.0
949.0
946.0
946.0
948.0
953.0
957.0
952.0
954.0
953.0
953.0
951.0
949.0
948.0
950.0
951.0
953.0
954.0
954.0
954.0
955.0
954.0
953.0
954.0
951.0
952.0
953.0
957.0
963.0
966.0
972.0
974.0
975.0
974.0
973.0
972.0
967.0
963.0
964.0
964.0
961.0
961.0
959.0
957.0
954.0
950.0
946.0
944.0
940.0
936.0
935.0
931.0
931.0
931.0
932.0
934.0
932.0
932.0
931.0
928.0
925.0
927.0
926.0
927.0
929.0
929.0
931.0
933.0
931.0
930.0
932.0
931.0
929.0
930.0
931.0
933.0
935.0
935.0
938.0
938.0
939.0
940.0
940.0
941.0
941.0
943.0
944.0
944.0
944.0
945.0
946.0
947.0
948.0
950.0
949.0
946.0
947.0
947.0
945.0
946.0
947.0
949.0
948.0
948.0
947.0
942.0
945.0
943.0
943.0
941.0
943.0
941.0
940.0
940.0
939.0
941.0
940.0
940.0
937.0
935.0
933.0
931.0
934.0
934.0
934.0
935.0
935.0
936.0
933.0
931.0
928.0
929.0
929.0
929.0
926.0
929.0
930.0
928.0
929.0
927.0
927.0
927.0
926.0
926.0
924.0
924.0
923.0
922.0
924.0
925.0
928.0
928.0
926.0
926.0
924.0
923.0
922.0
922.0
922.0
925.0
925.0
925.0
924.0
926.0
924.0
925.0
922.0
921.0
922.0
922.0
922.0
923.0
923.0
925.0
924.0
923.0
923.0
922.0
918.0
917.0
915.0
915.0
919.0
921.0
923.0
924.0
926.0
925.0
923.0
922.0
920.0
920.0
920.0
922.0
920.0
921.0
922.0
925.0
929.0
927.0
927.0
927.0
925.0
923.0
920.0
924.0
923.0
927.0
930.0
933.0
938.0
942.0
943.0
943.0
943.0
937.0
940.0
938.0
938.0
933.0
932.0
932.0
936.0
936.0
939.0
936.0
936.0
935.0
933.0
929.0
926.0
926.0
928.0
929.0
931.0
931.0
930.0
929.0
928.0
933.0
934.0
938.0
944.0
956.0
973.0
1000.0
1043.0
1095.0
1160.0
1231.0
1288.0
1326.0
1327.0
1285.0
1180.0
1052.0
924.0
796.0
706.0
725.0
778.0
836.0
879.0
901.0
907.0
905.0
902.0
904.0
907.0
910.0
918.0
920.0
918.0
918.0
915.0
910.0
911.0
909.0
907.0
910.0
914.0
917.0
920.0
917.0
920.0
920.0
920.0
921.0
920.0
922.0
922.0
923.0
924.0
924.0
927.0
928.0
930.0
928.0
927.0
927.0
930.0
929.0
929.0
933.0
935.0
935.0
938.0
939.0
939.0
939.0
939.0
938.0
935.0
935.0
937.0
940.0
945.0
946.0
948.0
949.0
951.0
950.0
950.0
950.0
949.0
952.0
952.0
953.0
955.0
953.0
959.0
959.0
958.0
959.0
955.0
955.0
955.0
953.0
955.0
955.0
956.0
956.0
958.0
960.0
960.0
958.0
956.0
953.0
954.0
955.0
954.0
956.0
957.0
958.0
961.0
962.0
963.0
965.0
965.0
966.0
968.0
970.0
971.0
972.0
974.0
975.0
976.0
978.0
973.0
969.0
970.0
966.0
963.0
956.0
954.0
951.0
950.0
949.0
949.0
948.0
948.0
943.0
941.0
938.0
937.0
932.0
932.0
932.0
933.0
930.0
932.0
934.0
934.0
933.0
930.0
932.0
932.0
930.0
929.0
932.0
934.0
935.0
934.0
939.0
939.0
939.0
938.0
938.0
937.0
936.0
940.0
942.0
942.0
946.0
948.0
947.0
949.0
947.0
948.0
949.0
947.0
950.0
950.0
951.0
951.0
954.0
954.0
955.0
955.0
952.0
948.0
949.0
947.0
948.0
947.0
949.0
949.0
951.0
951.0
951.0
949.0
948.0
944.0
942.0
940.0
939.0
940.0
939.0
941.0
941.0
943.0
938.0
940.0
940.0
936.0
935.0
931.0
932.0
930.0
932.0
