# Simple Text Format
# Sampling Rate (Hz):= 360.00
# Resolution:= 12
# Labels:= ECG
898.0
899.0
899.0
899.0
902.0
903.0
903.0
905.0
905.0
904.0
903.0
903.0
902.0
901.0
900.0
898.0
901.0
901.0
902.0
903.0
904.0
902.0
902.0
903.0
900.0
901.0
897.0
897.0
899.0
901.0
901.0
906.0
904.0
905.0
903.0
903.0
902.0
901.0
901.0
901.0
903.0
905.0
907.0
911.0
912.0
918.0
921.0
920.0
921.0
920.0
917.0
918.0
919.0
915.0
913.0
911.0
915.0
913.0
911.0
910.0
910.0
910.0
909.0
909.0
913.0
912.0
909.0
907.0
904.0
904.0
904.0
903.0
903.0
906.0
908.0
910.0
915.0
923.0
936.0
957.0
987.0
1033.0
1092.0
1161.0
1238.0
1300.0
1341.0
1349.0
1315.0
1228.0
1100.0
972.0
844.0
716.0
666.0
710.0
774.0
828.0
863.0
877.0
878.0
876.0
871.0
876.0
882.0
889.0
895.0
896.0
894.0
893.0
890.0
888.0
887.0
890.0
890.0
895.0
895.0
896.0
896.0
894.0
893.0
891.0
892.0
895.0
896.0
901.0
904.0
904.0
903.0
903.0
900.0
900.0
900.0
901.0
903.0
904.0
906.0
906.0
908.0
911.0
915.0
913.0
914.0
912.0
912.0
911.0
912.0
914.0
916.0
921.0
923.0
927.0
927.0
926.0
926.0
924.0
923.0
923.0
927.0
927.0
930.0
933.0
936.0
937.0
937.0
938.0
937.0
936.0
937.0
935.0
931.0
934.0
933.0
934.0
936.0
937.0
936.0
938.0
938.0
936.0
935.0
934.0
932.0
934.0
934.0
937.0
940.0
944.0
944.0
946.0
950.0
950.0
954.0
952.0
955.0
955.0
957.0
958.0
956.0
953.0
950.0
946.0
947.0
939.0
936.0
933.0
932.0
930.0
927.0
926.0
921.0
920.0
917.0
915.0
915.0
911.0
905.0
903.0
904.0
903.0
904.0
905.0
906.0
905.0
907.0
905.0
902.0
902.0
901.0
904.0
904.0
903.0
904.0
908.0
909.0
910.0
912.0
912.0
914.0
913.0
915.0
916.0
916.0
918.0
919.0
922.0
922.0
927.0
926.0
925.0
926.0
924.0
924.0
925.0
924.0
927.0
927.0
929.0
929.0
931.0
933.0
930.0
928.0
927.0
928.0
926.0
925.0
925.0
922.0
923.0
923.0
925.0
923.0
922.0
921.0
918.0
916.0
914.0
913.0
912.0
911.0
911.0
913.0
915.0
913.0
913.0
910.0
908.0
905.0
905.0
905.0
904.0
905.0
904.0
907.0
908.0
908.0
907.0
905.0
903.0
902.0
900.0
898.0
897.0
897.0
899.0
900.0
903.0
905.0
902.0
902.0
900.0
900.0
897.0
895.0
894.0
897.0
898.0
901.0
902.0
900.0
901.0
898.0
896.0
895.0
893.0
895.0
895.0
893.0
893.0
896.0
894.0
894.0
895.0
895.0
892.0
894.0
893.0
891.0
893.0
894.0
894.0
896.0
899.0
899.0
899.0
896.0
895.0
893.0
893.0
893.0
893.0
895.0
896.0
895.0
896.0
898.0
895.0
895.0
896.0
897.0
894.0
897.0
892.0
893.0
893.0
894.0
896.0
898.0
897.0
895.0
892.0
891.0
892.0
891.0
893.0
894.0
895.0
897.0
897.0
896.0
897.0
895.0
895.0
893.0
893.0
893.0
891.0
891.0
892.0
895.0
896.0
897.0
897.0
896.0
896.0
894.0
893.0
892.0
892.0
894.0
896.0
895.0
897.0
897.0
896.0
895.0
893.0
894.0
893.0
891.0
893.0
897.0
899.0
898.0
904.0
908.0
911.0
915.0
915.0
913.0
911.0
909.0
910.0
908.0
906.0
903.0
906.0
909.0
908.0
905.0
905.0
905.0
903.0
903.0
903.0
899.0
898.0
898.0
895.0
895.0
894.0
899.0
901.0
903.0
904.0
909.0
914.0
924.0
944.0
977.0
1027.0
1094.0
1172.0
1255.0
1319.0
1351.0
1342.0
1281.0
1155.0
1027.0
899.0
771.0
683.0
708.0
766.0
824.0
864.0
880.0
884.0
879.0
877.0
877.0
881.0
883.0
889.0
890.0
890.0
886.0
882.0
880.0
880.0
882.0
881.0
883.0
885.0
888.0
889.0
891.0
890.0
889.0
886.0
888.0
893.0
890.0
889.0
891.0
895.0
893.0
897.0
898.0
902.0
904.0
903.0
904.0
902.0
903.0
905.0
906.0
907.0
911.0
913.0
913.0
914.0
914.0
914.0
915.0
915.0
916.0
916.0
919.0
919.0
921.0
926.0
927.0
928.0
927.0
927.0
927.0
927.0
929.0
930.0
934.0
934.0
936.0
938.0
935.0
937.0
937.0
938.0
937.0
936.0
940.0
939.0
939.0
938.0
941.0
940.0
942.0
943.0
943.0
944.0
943.0
941.0
942.0
945.0
946.0
949.0
953.0
956.0
957.0
960.0
963.0
962.0
963.0
962.0
962.0
960.0
958.0
957.0
951.0
949.0
945.0
943.0
941.0
937.0
932.0
927.0
922.0
921.0
918.0
919.0
917.0
916.0
913.0
911.0
911.0
906.0
904.0
902.0
902.0
901.0
901.0
903.0
906.0
906.0
906.0
907.0
907.0
907.0
907.0
906.0
907.0
906.0
908.0
910.0
912.0
914.0
915.0
915.0
916.0
916.0
916.0
916.0
915.0
918.0
920.0
924.0
924.0
923.0
927.0
925.0
927.0
925.0
925.0
925.0
923.0
924.0
925.0
925.0
924.0
927.0
927.0
927.0
927.0
924.0
924.0
920.0
919.0
917.0
919.0
920.0
919.0
921.0
919.0
917.0
916.0
916.0
912.0
912.0
910.0
912.0
912.0
913.0
911.0
912.0
911.0
910.0
910.0
910.0
906.0
906.0
904.0
901.0
904.0
905.0
906.0
904.0
906.0
905.0
905.0
903.0
903.0
900.0
898.0
899.0
899.0
901.0
903.0
901.0
903.0
902.0
902.0
900.0
897.0
898.0
897.0
898.0
900.0
901.0
899.0
900.0
900.0
902.0
901.0
900.0
898.0
899.0
898.0
896.0
899.0
899.0
899.0
901.0
902.0
902.0
900.0
899.0
898.0
897.0
896.0
898.0
899.0
900.0
900.0
901.0
903.0
899.0
901.0
898.0
898.0
898.0
896.0
899.0
897.0
898.0
898.0
901.0
900.0
899.0
901.0
901.0
899.0
897.0
897.0
896.0
897.0
898.0
900.0
904.0
903.0
902.0
901.0
900.0
899.0
899.0
898.0
899.0
901.0
900.0
900.0
900.0
899.0
901.0
900.0
900.0
901.0
899.0
901.0
899.0
899.0
899.0
898.0
901.0
904.0
902.0
903.0
902.0
897.0
895.0
898.0
898.0
900.0
901.0
902.0
903.0
906.0
903.0
904.0
903.0
901.0
902.0
903.0
902.0
902.0
901.0
904.0
906.0
908.0
912.0
917.0
918.0
921.0
922.0
920.0
921.0
920.0
919.0
919.0
917.0
920.0
917.0
915.0
914.0
911.0
913.0
915.0
914.0
914.0
916.0
915.0
914.0
909.0
906.0
905.0
905.0
904.0
906.0
907.0
906.0
910.0
913.0
915.0
919.0
928.0
934.0
948.0
973.0
1010.0
1061.0
1124.0
1199.0
1276.0
1334.0
1366.0
1366.0
1335.0
1260.0
1137.0
1009.0
881.0
753.0
688.0
713.0
768.0
824.0
864.0
882.0
887.0
880.0
876.0
874.0
878.0
886.0
891.0
894.0
893.0
893.0
892.0
891.0
887.0
888.0
888.0
890.0
892.0
889.0
888.0
891.0
890.0
892.0
895.0
897.0
899.0
899.0
901.0
902.0
900.0
901.0
900.0
903.0
904.0
905.0
909.0
909.0
912.0
911.0
911.0
910.0
912.0
911.0
912.0
913.0
914.0
915.0
917.0
920.0
919.0
922.0
923.0
925.0
924.0
924.0
925.0
926.0
925.0
928.0
931.0
933.0
937.0
935.0
935.0
934.0
933.0
934.0
935.0
937.0
938.0
940.0
941.0
944.0
946.0
944.0
944.0
944.0
943.0
940.0
939.0
942.0
943.0
944.0
945.0
947.0
947.0
948.0
947.0
947.0
946.0
944.0
944.0
943.0
943.0
948.0
949.0
952.0
955.0
957.0
957.0
956.0
961.0
962.0
963.0
968.0
968.0
968.0
966.0
969.0
966.0
964.0
961.0
958.0
955.0
950.0
949.0
946.0
944.0
942.0
938.0
936.0
935.0
932.0
930.0
930.0
924.0
919.0
916.0
914.0
913.0
914.0
914.0
919.0
918.0
919.0
919.0
917.0
916.0
914.0
912.0
911.0
912.0
916.0
918.0
919.0
920.0
919.0
922.0
925.0
922.0
924.0
922.0
923.0
925.0
929.0
928.0
930.0
934.0
933.0
932.0
934.0
932.0
933.0
932.0
932.0
932.0
936.0
938.0
938.0
940.0
939.0
941.0
939.0
938.0
933.0
933.0
935.0
936.0
931.0
930.0
934.0
936.0
935.0
933.0
933.0
932.0
928.0
925.0
925.0
924.0
925.0
926.0
926.0
927.0
925.0
925.0
921.0
919.0
915.0
915.0
913.0
911.0
916.0
917.0
920.0
919.0
917.0
916.0
916.0
913.0
913.0
909.0
907.0
910.0
910.0
912.0
913.0
916.0
915.0
913.0
911.0
910.0
907.0
905.0
903.0
906.0
907.0
912.0
911.0
911.0
910.0
907.0
907.0
905.0
904.0
905.0
905.0
905.0
907.0
908.0
911.0
910.0
910.0
909.0
907.0
905.0
903.0
902.0
904.0
903.0
906.0
908.0
909.0
907.0
906.0
906.0
906.0
904.0
902.0
903.0
903.0
906.0
905.0
905.0
906.0
908.0
906.0
905.0
903.0
903.0
901.0
899.0
901.0
905.0
905.0
908.0
910.0
911.0
909.0
908.0
905.0
905.0
902.0
902.0
903.0
906.0
907.0
909.0
910.0
911.0
910.0
909.0
908.0
907.0
903.0
900.0
904.0
905.0
907.0
908.0
912.0
913.0
911.0
912.0
909.0
908.0
903.0
906.0
908.0
910.0
915.0
920.0
924.0
929.0
929.0
932.0
929.0
928.0
925.0
922.0
918.0
917.0
915.0
916.0
918.0
922.0
924.0
923.0
921.0
920.0
915.0
914.0
909.0
907.0
906.0
909.0
912.0
914.0
915.0
919.0
916.0
920.0
927.0
934.0
946.0
967.0
1006.0
1054.0
1116.0
1190.0
1265.0
1323.0
1352.0
1344.0
1304.0
1206.0
1078.0
950.0
822.0
694.0
681.0
729.0
789.0
845.0
876.0
887.0
884.0
882.0
880.0
883.0
889.0
896.0
902.0
904.0
902.0
901.0
897.0
895.0
895.0
894.0
894.0
893.0
896.0
900.0
901.0
903.0
904.0
904.0
905.0
904.0
905.0
903.0
904.0
907.0
908.0
908.0
910.0
914.0
914.0
914.0
913.0
911.0
912.0
912.0
913.0
914.0
915.0
915.0
918.0
920.0
919.0
921.0
920.0
922.0
921.0
921.0
922.0
923.0
926.0
930.0
933.0
933.0
935.0
935.0
934.0
933.0
934.0
938.0
938.0
939.0
941.0
944.0
945.0
943.0
942.0
942.0
942.0
942.0
942.0
941.0
942.0
943.0
943.0
943.0
945.0
945.0
940.0
942.0
938.0
936.0
936.0
938.0
936.0
938.0
942.0
944.0
946.0
947.0
946.0
949.0
949.0
951.0
952.0
953.0
956.0
958.0
960.0
959.0
963.0
962.0
958.0
957.0
952.0
947.0
944.0
938.0
937.0
935.0
933.0
930.0
932.0
928.0
927.0
925.0
922.0
915.0
915.0
912.0
912.0
910.0
912.0
911.0
910.0
911.0
913.0
911.0
910.0
910.0
910.0
910.0
910.0
913.0
916.0
916.0
919.0
920.0
923.0
924.0
922.0
925.0
922.0
926.0
926.0
929.0
929.0
931.0
933.0
934.0
933.0
935.0
936.0
935.0
937.0
937.0
936.0
936.0
936.0
936.0
938.0
937.0
938.0
937.0
934.0
932.0
931.0
931.0
930.0
928.0
930.0
929.0
929.0
929.0
930.0
927.0
924.0
924.0
922.0
920.0
921.0
920.0
922.0
920.0
920.0
921.0
920.0
916.0
915.0
913.0
908.0
910.0
914.0
914.0
914.0
913.0
915.0
916.0
913.0
911.0
909.0
910.0
907.0
906.0
906.0
907.0
908.0
908.0
909.0
912.0
908.0
906.0
907.0
904.0
903.0
903.0
903.0
903.0
906.0
904.0
908.0
906.0
907.0
906.0
903.0
903.0
903.0
903.0
902.0
903.0
902.0
905.0
905.0
907.0
906.0
903.0
904.0
902.0
899.0
897.0
897.0
899.0
902.0
901.0
903.0
905.0
903.0
903.0
904.0
902.0
901.0
900.0
900.0
899.0
901.0
903.0
904.0
907.0
908.0
909.0
907.0
903.0
903.0
900.0
900.0
901.0
902.0
903.0
906.0
905.0
906.0
907.0
906.0
905.0
903.0
902.0
902.0
903.0
904.0
906.0
907.0
909.0
908.0
909.0
908.0
905.0
903.0
902.0
905.0
904.0
906.0
905.0
908.0
912.0
912.0
913.0
915.0
918.0
923.0
924.0
925.0
926.0
927.0
927.0
925.0
923.0
922.0
917.0
917.0
916.0
913.0
916.0
916.0
919.0
919.0
918.0
919.0
915.0
914.0
909.0
908.0
904.0
903.0
905.0
908.0
909.0
915.0
918.0
924.0
932.0
942.0
959.0
983.0
1018.0
1068.0
1127.0
1200.0
1271.0
1325.0
1349.0
1348.0
1301.0
1202.0
1074.0
946.0
818.0
690.0
669.0
719.0
782.0
839.0
869.0
880.0
882.0
879.0
879.0
880.0
886.0
891.0
895.0
895.0
895.0
893.0
891.0
889.0
893.0
892.0
894.0
891.0
892.0
893.0
895.0
895.0
898.0
900.0
898.0
902.0
904.0
905.0
905.0
904.0
904.0
904.0
905.0
906.0
908.0
911.0
912.0
913.0
914.0
913.0
915.0
914.0
914.0
916.0
915.0
915.0
917.0
921.0
923.0
925.0
927.0
927.0
928.0
929.0
928.0
928.0
928.0
930.0
931.0
932.0
937.0
938.0
939.0
940.0
942.0
940.0
938.0
937.0
939.0
939.0
938.0
939.0
937.0
942.0
942.0
942.0
939.0
940.0
940.0
941.0
936.0
933.0
935.0
934.0
937.0
940.0
940.0
941.0
939.0
938.0
939.0
942.0
941.0
944.0
946.0
952.0
953.0
954.0
957.0
960.0
960.0
958.0
956.0
952.0
949.0
946.0
943.0
941.0
940.0
939.0
938.0
935.0
931.0
925.0
921.0
917.0
916.0
913.0
914.0
910.0
911.0
913.0
915.0
915.0
915.0
912.0
910.0
909.0
908.0
907.0
908.0
909.0
912.0
911.0
915.0
916.0
917.0
917.0
917.0
915.0
917.0
918.0
920.0
922.0
922.0
925.0
926.0
927.0
929.0
927.0
927.0
928.0
926.0
930.0
931.0
931.0
933.0
933.0
936.0
936.0
938.0
936.0
931.0
934.0
932.0
932.0
932.0
934.0
937.0
936.0
937.0
936.0
936.0
934.0
931.0
929.0
925.0
926.0
926.0
926.0
924.0
928.0
926.0
925.0
925.0
923.0
922.0
919.0
918.0
917.0
915.0
914.0
914.0
914.0
914.0
916.0
916.0
914.0
913.0
909.0
907.0
909.0
907.0
908.0
909.0
910.0
909.0
909.0
910.0
911.0
908.0
905.0
905.0
905.0
905.0
906.0
905.0
906.0
908.0
908.0
907.0
909.0
906.0
904.0
902.0
899.0
900.0
899.0
902.0
903.0
907.0
906.0
904.0
903.0
904.0
900.0
900.0
901.0
902.0
902.0
903.0
905.0
904.0
905.0
905.0
902.0
900.0
902.0
899.0
900.0
898.0
899.0
898.0
901.0
904.0
904.0
904.0
903.0
901.0
900.0
899.0
898.0
899.0
899.0
902.0
903.0
906.0
904.0
900.0
900.0
899.0
898.0
898.0
898.0
901.0
898.0
901.0
898.0
899.0
899.0
900.0
900.0
899.0
900.0
899.0
897.0
898.0
897.0
901.0
901.0
903.0
904.0
904.0
901.0
899.0
896.0
899.0
897.0
897.0
902.0
905.0
903.0
902.0
905.0
902.0
902.0
903.0
903.0
904.0
907.0
909.0
912.0
915.0
919.0
922.0
924.0
926.0
924.0
921.0
918.0
914.0
910.0
908.0
909.0
912.0
914.0
917.0
916.0
913.0
915.0
911.0
909.0
904.0
901.0
897.0
901.0
902.0
906.0
909.0
914.0
913.0
916.0
922.0
929.0
943.0
975.0
1023.0
1089.0
1175.0
1258.0
1326.0
1363.0
1355.0
1297.0
1175.0
1047.0
919.0
791.0
675.0
699.0
757.0
818.0
861.0
881.0
889.0
886.0
882.0
879.0
879.0
882.0
886.0
889.0
891.0
890.0
890.0
889.0
887.0
886.0
886.0
886.0
888.0
888.0
889.0
889.0
892.0
893.0
896.0
894.0
899.0
899.0
898.0
899.0
898.0
899.0
897.0
900.0
903.0
908.0
908.0
910.0
911.0
910.0
909.0
910.0
910.0
910.0
912.0
914.0
915.0
917.0
919.0
921.0
921.0
921.0
922.0
921.0
922.0
922.0
923.0
924.0
927.0
926.0
930.0
936.0
936.0
935.0
934.0
935.0
937.0
933.0
934.0
937.0
940.0
939.0
941.0
941.0
943.0
942.0
943.0
944.0
941.0
941.0
942.0
943.0
943.0
946.0
948.0
949.0
949.0
949.0
947.0
947.0
948.0
950.0
952.0
955.0
959.0
964.0
968.0
970.0
971.0
971.0
968.0
967.0
964.0
960.0
959.0
956.0
954.0
951.0
949.0
946.0
943.0
937.0
933.0
931.0
926.0
923.0
920.0
917.0
917.0
918.0
917.0
915.0
918.0
916.0
913.0
912.0
908.0
911.0
910.0
910.0
913.0
914.0
915.0
916.0
916.0
914.0
913.0
910.0
911.0
913.0
913.0
915.0
916.0
919.0
922.0
922.0
924.0
922.0
923.0
922.0
922.0
924.0
923.0
926.0
927.0
927.0
931.0
930.0
930.0
929.0
928.0
928.0
928.0
927.0
928.0
929.0
930.0
929.0
930.0
929.0
932.0
929.0
928.0
923.0
922.0
923.0
919.0
920.0
921.0
922.0
924.0
922.0
921.0
919.0
918.0
916.0
915.0
916.0
914.0
911.0
910.0
916.0
914.0
915.0
912.0
912.0
910.0
911.0
910.0
908.0
907.0
906.0
908.0
907.0
911.0
909.0
911.0
908.0
907.0
905.0
905.0
903.0
903.0
904.0
905.0
907.0
908.0
905.0
904.0
904.0
904.0
902.0
900.0
900.0
902.0
904.0
901.0
902.0
904.0
903.0
905.0
906.0
901.0
898.0
900.0
899.0
900.0
899.0
897.0
900.0
905.0
905.0
904.0
904.0
901.0
902.0
898.0
898.0
897.0
900.0
901.0
903.0
903.0
904.0
904.0
902.0
898.0
898.0
899.0
899.0
897.0
899.0
901.0
901.0
904.0
905.0
904.0
905.0
900.0
900.0
897.0
898.0
899.0
900.0
902.0
903.0
905.0
905.0
903.0
903.0
901.0
902.0
899.0
897.0
899.0
901.0
901.0
903.0
905.0
902.0
904.0
902.0
902.0
902.0
899.0
899.0
899.0
899.0
904.0
906.0
907.0
903.0
903.0
903.0
901.0
902.0
909.0
912.0
914.0
918.0
920.0
920.0
919.0
921.0
922.0
921.0
913.0
908.0
908.0
906.0
906.0
908.0
912.0
914.0
917.0
917.0
914.0
911.0
909.0
904.0
900.0
898.0
899.0
903.0
904.0
907.0
911.0
914.0
920.0
922.0
931.0
941.0
961.0
994.0
1045.0
1112.0
1189.0
1266.0
1329.0
1358.0
1354.0
1308.0
1210.0
1082.0
954.0
826.0
698.0
690.0
737.0
800.0
849.0
878.0
889.0
884.0
879.0
875.0
879.0
882.0
888.0
892.0
896.0
893.0
891.0
891.0
891.0
888.0
887.0
887.0
887.0
886.0
885.0
889.0
890.0
892.0
896.0
896.0
896.0
893.0
894.0
892.0
892.0
895.0
894.0
897.0
902.0
903.0
907.0
907.0
908.0
908.0
908.0
907.0
909.0
908.0
909.0
910.0
913.0
916.0
918.0
919.0
917.0
918.0
919.0
919.0
918.0
917.0
921.0
922.0
925.0
927.0
928.0
930.0
933.0
931.0
930.0
933.0
932.0
932.0
933.0
935.0
936.0
937.0
939.0
941.0
940.0
941.0
941.0
939.0
937.0
938.0
939.0
940.0
941.0
943.0
945.0
945.0
943.0
940.0
941.0
939.0
937.0
939.0
942.0
942.0
946.0
949.0
949.0
951.0
949.0
954.0
954.0
956.0
959.0
960.0
962.0
964.0
965.0
968.0
967.0
965.0
961.0
958.0
955.0
951.0
945.0
940.0
939.0
939.0
939.0
937.0
938.0
934.0
931.0
926.0
923.0
918.0
914.0
913.0
910.0
912.0
913.0
913.0
914.0
913.0
912.0
913.0
909.0
910.0
912.0
912.0
913.0
913.0
913.0
914.0
917.0
918.0
919.0
918.0
920.0
921.0
921.0
919.0
923.0
925.0
926.0
928.0
932.0
932.0
928.0
932.0
931.0
931.0
932.0
932.0
931.0
932.0
933.0
932.0
933.0
935.0
934.0
935.0
935.0
934.0
931.0
931.0
929.0
929.0
929.0
927.0
932.0
932.0
932.0
930.0
929.0
929.0
927.0
923.0
922.0
921.0
919.0
920.0
921.0
921.0
919.0
921.0
921.0
917.0
916.0
912.0
913.0
913.0
914.0
917.0
917.0
920.0
916.0
916.0
914.0
913.0
910.0
909.0
910.0
911.0
911.0
914.0
915.0
915.0
915.0
914.0
912.0
910.0
909.0
908.0
907.0
907.0
910.0
911.0
914.0
915.0
914.0
911.0
910.0
909.0
905.0
907.0
907.0
905.0
909.0
911.0
912.0
913.0
912.0
911.0
910.0
910.0
906.0
907.0
907.0
906.0
909.0
912.0
912.0
914.0
912.0
912.0
909.0
905.0
904.0
904.0
908.0
910.0
911.0
911.0
914.0
912.0
912.0
913.0
910.0
909.0
909.0
906.0
906.0
906.0
907.0
910.0
913.0
913.0
913.0
911.0
910.0
909.0
907.0
908.0
910.0
909.0
911.0
911.0
913.0
912.0
912.0
910.0
910.0
911.0
911.0
909.0
908.0
912.0
913.0
915.0
917.0
920.0
922.0
924.0
926.0
927.0
926.0
928.0
929.0
930.0
930.0
933.0
930.0
926.0
923.0
923.0
921.0
918.0
919.0
918.0
922.0
921.0
924.0
922.0
923.0
921.0
919.0
916.0
915.0
915.0
915.0
917.0
919.0
923.0
930.0
938.0
951.0
967.0
992.0
1032.0
1082.0
1147.0
1219.0
1285.0
1333.0
1352.0
1336.0
1272.0
1152.0
1024.0
896.0
768.0
673.0
697.0
756.0
816.0
862.0
881.0
889.0
891.0
890.0
890.0
897.0
902.0
904.0
906.0
903.0
899.0
898.0
900.0
899.0
899.0
903.0
904.0
907.0
905.0
905.0
907.0
907.0
907.0
905.0
906.0
911.0
911.0
915.0
918.0
917.0
922.0
921.0
919.0
917.0
915.0
918.0
918.0
922.0
925.0
928.0
929.0
930.0
930.0
928.0
928.0
929.0
928.0
930.0
931.0
933.0
933.0
936.0
937.0
936.0
934.0
935.0
938.0
939.0
938.0
941.0
941.0
944.0
943.0
946.0
946.0
947.0
947.0
950.0
947.0
949.0
949.0
949.0
948.0
950.0
952.0
954.0
952.0
950.0
947.0
946.0
946.0
945.0
945.0
944.0
944.0
942.0
943.0
946.0
946.0
944.0
945.0
945.0
949.0
947.0
950.0
953.0
957.0
960.0
964.0
967.0
967.0
966.0
962.0
961.0
960.0
956.0
954.0
952.0
949.0
946.0
948.0
948.0
947.0
942.0
937.0
934.0
928.0
926.0
922.0
920.0
921.0
920.0
924.0
923.0
924.0
923.0
919.0
919.0
917.0
917.0
917.0
918.0
919.0
921.0
926.0
927.0
928.0
928.0
927.0
927.0
926.0
927.0
927.0
930.0
931.0
933.0
937.0
940.0
942.0
941.0
941.0
943.0
942.0
940.0
938.0
937.0
940.0
941.0
943.0
945.0
945.0
946.0
945.0
941.0
939.0
937.0
937.0
938.0
935.0
940.0
938.0
938.0
938.0
935.0
934.0
934.0
932.0
932.0
928.0
926.0
927.0
924.0
927.0
926.0
928.0
927.0
927.0
923.0
921.0
920.0
919.0
917.0
915.0
916.0
918.0
919.0
914.0
916.0
916.0
916.0
916.0
915.0
914.0
912.0
914.0
912.0
913.0
915.0
912.0
914.0
913.0
912.0
910.0
907.0
907.0
906.0
908.0
909.0
911.0
912.0
911.0
911.0
910.0
910.0
910.0
904.0
906.0
906.0
908.0
911.0
910.0
909.0
911.0
910.0
913.0
910.0
908.0
907.0
906.0
906.0
908.0
910.0
911.0
911.0
910.0
910.0
908.0
907.0
904.0
903.0
902.0
904.0
909.0
909.0
912.0
913.0
913.0
912.0
912.0
910.0
910.0
908.0
907.0
905.0
905.0
909.0
912.0
912.0
915.0
916.0
915.0
910.0
907.0
906.0
904.0
905.0
906.0
910.0
910.0
911.0
914.0
914.0
918.0
919.0
923.0
925.0
928.0
928.0
928.0
929.0
928.0
929.0
931.0
929.0
924.0
922.0
920.0
920.0
920.0
918.0
920.0
923.0
924.0
922.0
918.0
919.0
914.0
913.0
912.0
911.0
912.0
915.0
916.0
919.0
924.0
929.0
937.0
947.0
959.0
981.0
1013.0
1057.0
1112.0
1175.0
1246.0
1304.0
1336.0
1338.0
1304.0
1215.0
1087.0
959.0
831.0
703.0
680.0
728.0
790.0
846.0
881.0
898.0
902.0
900.0
899.0
897.0
899.0
900.0
898.0
901.0
898.0
899.0
900.0
904.0
905.0
906.0
904.0
905.0
901.0
902.0
902.0
905.0
907.0
911.0
911.0
912.0
914.0
913.0
912.0
912.0
913.0
915.0
915.0
916.0
915.0
917.0
919.0
922.0
924.0
923.0
924.0
924.0
925.0
925.0
925.0
922.0
927.0
929.0
929.0
932.0
934.0
934.0
934.0
936.0
935.0
933.0
937.0
939.0
938.0
941.0
941.0
942.0
945.0
946.0
945.0
946.0
944.0
943.0
942.0
941.0
943.0
945.0
947.0
946.0
946.0
944.0
946.0
942.0
943.0
940.0
940.0
939.0
941.0
942.0
942.0
945.0
945.0
946.0
945.0
947.0
948.0
946.0
946.0
950.0
952.0
955.0
960.0
964.0
964.0
962.0
961.0
959.0
953.0
951.0
945.0
947.0
947.0
945.0
943.0
944.0
943.0
938.0
935.0
933.0
929.0
926.0
922.0
922.0
917.0
915.0
916.0
918.0
918.0
918.0
918.0
915.0
912.0
910.0
913.0
916.0
914.0
917.0
918.0
918.0
922.0
918.0
920.0
917.0
918.0
918.0
918.0
918.0
918.0
921.0
923.0
926.0
928.0
928.0
931.0
933.0
933.0
928.0
933.0
932.0
933.0
935.0
938.0
939.0
939.0
941.0
942.0
940.0
940.0
936.0
934.0
937.0
936.0
938.0
936.0
939.0
939.0
936.0
937.0
937.0
933.0
932.0
930.0
928.0
930.0
930.0
928.0
930.0
931.0
930.0
927.0
926.0
923.0
922.0
921.0
922.0
920.0
922.0
922.0
925.0
924.0
923.0
920.0
919.0
919.0
916.0
915.0
915.0
914.0
916.0
915.0
917.0
917.0
918.0
915.0
916.0
913.0
911.0
909.0
910.0
909.0
909.0
911.0
912.0
914.0
913.0
912.0
909.0
908.0
909.0
908.0
908.0
908.0
909.0
911.0
913.0
914.0
912.0
912.0
911.0
910.0
907.0
907.0
909.0
908.0
909.0
909.0
909.0
911.0
912.0
909.0
910.0
908.0
906.0
906.0
905.0
906.0
906.0
907.0
909.0
910.0
911.0
909.0
907.0
907.0
906.0
904.0
905.0
906.0
907.0
908.0
909.0
908.0
908.0
908.0
907.0
907.0
905.0
904.0
905.0
905.0
906.0
906.0
909.0
908.0
910.0
911.0
907.0
906.0
905.0
903.0
902.0
901.0
899.0
904.0
906.0
907.0
906.0
905.0
906.0
904.0
905.0
905.0
909.0
911.0
914.0
922.0
924.0
927.0
926.0
924.0
922.0
920.0
917.0
915.0
909.0
908.0
908.0
908.0
914.0
917.0
916.0
915.0
911.0
913.0
911.0
908.0
903.0
902.0
902.0
906.0
908.0
910.0
910.0
913.0
913.0
914.0
915.0
922.0
928.0
945.0
973.0
1014.0
1071.0
1141.0
1214.0
1286.0
1332.0
1349.0
1327.0
1264.0
1142.0
1014.0
886.0
758.0
685.0
710.0
767.0
823.0
866.0
884.0
886.0
882.0
880.0
881.0
886.0
892.0
895.0
898.0
894.0
892.0
890.0
887.0
888.0
887.0
887.0
889.0
889.0
892.0
895.0
897.0
897.0
896.0
897.0
896.0
897.0
894.0
896.0
896.0
899.0
903.0
906.0
906.0
909.0
906.0
906.0
904.0
905.0
903.0
906.0
910.0
912.0
914.0
916.0
917.0
915.0
918.0
920.0
920.0
919.0
917.0
918.0
918.0
919.0
925.0
926.0
931.0
931.0
933.0
931.0
931.0
930.0
929.0
931.0
935.0
937.0
939.0
939.0
941.0
940.0
939.0
940.0
939.0
940.0
939.0
939.0
941.0
939.0
942.0
944.0
944.0
946.0
946.0
946.0
943.0
942.0
942.0
943.0
946.0
949.0
952.0
954.0
960.0
960.0
962.0
963.0
963.0
964.0
964.0
961.0
962.0
960.0
957.0
956.0
954.0
954.0
949.0
948.0
943.0
936.0
936.0
931.0
928.0
927.0
925.0
925.0
922.0
920.0
918.0
913.0
913.0
910.0
907.0
909.0
905.0
904.0
908.0
910.0
910.0
912.0
912.0
909.0
911.0
909.0
907.0
906.0
906.0
908.0
910.0
913.0
914.0
917.0
916.0
915.0
916.0
914.0
915.0
918.0
920.0
922.0
923.0
924.0
925.0
925.0
926.0
927.0
927.0
924.0
923.0
922.0
925.0
925.0
926.0
927.0
926.0
927.0
923.0
920.0
922.0
922.0
920.0
918.0
916.0
918.0
917.0
916.0
920.0
918.0
915.0
915.0
914.0
911.0
909.0
910.0
909.0
912.0
911.0
911.0
911.0
911.0
911.0
908.0
906.0
904.0
900.0
900.0
901.0
903.0
905.0
905.0
907.0
904.0
904.0
902.0
902.0
901.0
899.0
899.0
901.0
901.0
900.0
902.0
902.0
902.0
902.0
901.0
901.0
899.0
897.0
897.0
897.0
896.0
898.0
898.0
900.0
901.0
901.0
901.0
897.0
897.0
895.0
892.0
896.0
897.0
896.0
898.0
900.0
899.0
900.0
897.0
900.0
896.0
897.0
896.0
895.0
894.0
894.0
898.0
898.0
899.0
896.0
896.0
895.0
894.0
893.0
893.0
892.0
897.0
897.0
900.0
902.0
900.0
899.0
