# Simple Text Format
# Sampling Rate (Hz):= 360.00
# Resolution:= 12
# Labels:= ECG
935.0
934.0
933.0
934.0
935.0
933.0
935.0
939.0
943.0
944.0
948.0
953.0
954.0
955.0
953.0
952.0
950.0
946.0
943.0
941.0
940.0
935.0
937.0
936.0
931.0
929.0
923.0
921.0
917.0
914.0
913.0
909.0
907.0
909.0
910.0
910.0
909.0
910.0
908.0
907.0
904.0
904.0
903.0
904.0
908.0
908.0
909.0
910.0
912.0
911.0
910.0
913.0
911.0
912.0
912.0
915.0
916.0
919.0
922.0
925.0
922.0
924.0
922.0
919.0
921.0
920.0
921.0
922.0
925.0
927.0
929.0
929.0
930.0
930.0
927.0
927.0
924.0
922.0
922.0
925.0
926.0
924.0
927.0
927.0
925.0
923.0
921.0
918.0
915.0
914.0
915.0
916.0
918.0
915.0
916.0
918.0
917.0
915.0
913.0
912.0
909.0
908.0
907.0
905.0
907.0
907.0
907.0
908.0
906.0
906.0
902.0
903.0
902.0
899.0
903.0
899.0
900.0
899.0
900.0
903.0
901.0
902.0
903.0
899.0
899.0
898.0
898.0
894.0
896.0
898.0
899.0
899.0
898.0
901.0
899.0
898.0
896.0
895.0
896.0
898.0
900.0
897.0
898.0
899.0
901.0
899.0
897.0
898.0
896.0
894.0
894.0
895.0
895.0
898.0
899.0
901.0
901.0
899.0
896.0
895.0
892.0
892.0
893.0
894.0
897.0
895.0
899.0
899.0
898.0
896.0
896.0
895.0
891.0
892.0
894.0
893.0
896.0
894.0
899.0
901.0
899.0
899.0
896.0
896.0
894.0
894.0
894.0
894.0
897.0
899.0
901.0
901.0
901.0
901.0
900.0
899.0
898.0
898.0
899.0
898.0
899.0
896.0
900.0
904.0
905.0
903.0
900.0
899.0
899.0
900.0
901.0
904.0
910.0
916.0
918.0
920.0
919.0
918.0
916.0
914.0
911.0
908.0
903.0
904.0
907.0
908.0
911.0
913.0
913.0
910.0
910.0
909.0
904.0
901.0
897.0
897.0
897.0
901.0
902.0
905.0
907.0
910.0
910.0
913.0
919.0
927.0
946.0
974.0
1019.0
1077.0
1152.0
1231.0
1295.0
1330.0
1331.0
1284.0
1175.0
1047.0
919.0
791.0
663.0
680.0
739.0
806.0
853.0
880.0
886.0
884.0
879.0
877.0
881.0
885.0
890.0
893.0
894.0
893.0
890.0
889.0
890.0
887.0
886.0
887.0
888.0
887.0
889.0
893.0
894.0
897.0
898.0
900.0
899.0
899.0
897.0
897.0
898.0
898.0
899.0
903.0
908.0
909.0
908.0
910.0
909.0
908.0
911.0
911.0
909.0
911.0
912.0
916.0
914.0
919.0
920.0
920.0
919.0
918.0
917.0
917.0
919.0
921.0
923.0
923.0
926.0
929.0
931.0
932.0
932.0
931.0
931.0
931.0
931.0
933.0
936.0
938.0
939.0
940.0
938.0
938.0
941.0
941.0
936.0
936.0
935.0
935.0
936.0
939.0
940.0
940.0
940.0
939.0
939.0
936.0
936.0
938.0
939.0
941.0
945.0
947.0
950.0
953.0
956.0
955.0
954.0
957.0
953.0
949.0
946.0
942.0
942.0
942.0
943.0
943.0
940.0
936.0
934.0
929.0
925.0
920.0
916.0
915.0
915.0
914.0
911.0
912.0
911.0
909.0
909.0
908.0
906.0
905.0
903.0
906.0
907.0
908.0
908.0
910.0
910.0
911.0
911.0
909.0
908.0
908.0
908.0
910.0
911.0
914.0
916.0
917.0
919.0
917.0
918.0
919.0
920.0
920.0
918.0
918.0
919.0
923.0
923.0
925.0
927.0
928.0
927.0
924.0
924.0
921.0
922.0
922.0
923.0
924.0
924.0
924.0
924.0
923.0
923.0
920.0
919.0
917.0
916.0
916.0
917.0
917.0
916.0
916.0
914.0
914.0
909.0
911.0
910.0
905.0
904.0
903.0
906.0
907.0
910.0
911.0
910.0
907.0
907.0
903.0
902.0
901.0
902.0
902.0
902.0
903.0
904.0
905.0
903.0
902.0
901.0
900.0
900.0
899.0
897.0
899.0
897.0
898.0
901.0
900.0
902.0
901.0
900.0
896.0
897.0
896.0
897.0
897.0
899.0
902.0
901.0
904.0
902.0
902.0
902.0
899.0
899.0
897.0
894.0
894.0
898.0
896.0
900.0
900.0
899.0
898.0
899.0
898.0
897.0
894.0
895.0
894.0
896.0
898.0
899.0
900.0
899.0
899.0
896.0
893.0
895.0
895.0
897.0
895.0
898.0
896.0
900.0
899.0
902.0
900.0
899.0
897.0
900.0
897.0
897.0
897.0
896.0
899.0
900.0
903.0
903.0
900.0
902.0
901.0
900.0
899.0
900.0
899.0
901.0
900.0
903.0
904.0
903.0
902.0
903.0
903.0
901.0
900.0
899.0
900.0
903.0
903.0
905.0
906.0
906.0
906.0
905.0
902.0
902.0
900.0
899.0
901.0
901.0
901.0
907.0
913.0
914.0
919.0
915.0
915.0
914.0
914.0
915.0
915.0
916.0
914.0
910.0
911.0
911.0
911.0
912.0
911.0
910.0
908.0
910.0
909.0
908.0
906.0
904.0
903.0
902.0
903.0
902.0
902.0
902.0
902.0
905.0
906.0
911.0
917.0
927.0
943.0
968.0
1010.0
1070.0
1149.0
1231.0
1301.0
1339.0
1346.0
1304.0
1207.0
1079.0
951.0
823.0
695.0
699.0
745.0
807.0
852.0
879.0
887.0
882.0
879.0
881.0
884.0
889.0
894.0
894.0
891.0
890.0
886.0
886.0
885.0
886.0
886.0
890.0
892.0
892.0
892.0
893.0
893.0
893.0
892.0
892.0
893.0
897.0
899.0
899.0
902.0
903.0
905.0
902.0
902.0
903.0
901.0
903.0
905.0
907.0
910.0
913.0
915.0
914.0
914.0
913.0
914.0
913.0
913.0
915.0
915.0
917.0
919.0
919.0
922.0
922.0
923.0
923.0
926.0
924.0
926.0
925.0
928.0
928.0
934.0
933.0
938.0
937.0
937.0
936.0
938.0
935.0
935.0
938.0
938.0
939.0
941.0
939.0
939.0
939.0
939.0
942.0
941.0
943.0
942.0
943.0
941.0
944.0
943.0
946.0
947.0
946.0
948.0
948.0
951.0
948.0
949.0
951.0
957.0
960.0
964.0
966.0
972.0
971.0
970.0
968.0
964.0
963.0
960.0
957.0
956.0
955.0
952.0
949.0
949.0
945.0
942.0
939.0
935.0
933.0
930.0
928.0
924.0
923.0
921.0
921.0
921.0
920.0
918.0
918.0
914.0
911.0
908.0
908.0
907.0
910.0
914.0
913.0
917.0
917.0
916.0
916.0
914.0
915.0
914.0
917.0
916.0
918.0
919.0
919.0
921.0
920.0
922.0
924.0
924.0
923.0
923.0
924.0
923.0
928.0
928.0
930.0
932.0
932.0
932.0
933.0
931.0
929.0
929.0
927.0
928.0
928.0
932.0
930.0
932.0
930.0
930.0
926.0
926.0
922.0
924.0
923.0
923.0
926.0
926.0
926.0
926.0
924.0
923.0
924.0
923.0
921.0
923.0
920.0
920.0
920.0
919.0
920.0
922.0
921.0
919.0
918.0
916.0
915.0
910.0
909.0
911.0
910.0
914.0
914.0
916.0
915.0
914.0
913.0
910.0
908.0
907.0
907.0
909.0
908.0
911.0
910.0
911.0
911.0
911.0
912.0
910.0
908.0
906.0
905.0
905.0
909.0
908.0
912.0
913.0
914.0
912.0
912.0
908.0
909.0
907.0
907.0
908.0
907.0
908.0
908.0
911.0
914.0
909.0
911.0
909.0
910.0
910.0
909.0
908.0
910.0
911.0
913.0
915.0
915.0
914.0
912.0
912.0
909.0
907.0
908.0
908.0
910.0
913.0
913.0
913.0
914.0
913.0
913.0
910.0
911.0
911.0
910.0
907.0
910.0
913.0
913.0
916.0
918.0
916.0
914.0
914.0
913.0
910.0
912.0
914.0
913.0
913.0
915.0
915.0
917.0
915.0
915.0
913.0
911.0
913.0
913.0
912.0
913.0
916.0
915.0
917.0
916.0
915.0
914.0
915.0
914.0
914.0
913.0
915.0
918.0
919.0
923.0
924.0
927.0
931.0
934.0
933.0
933.0
933.0
933.0
932.0
929.0
929.0
927.0
928.0
929.0
929.0
930.0
927.0
927.0
925.0
923.0
922.0
922.0
919.0
919.0
919.0
918.0
918.0
920.0
920.0
923.0
924.0
928.0
934.0
943.0
959.0
983.0
1023.0
1076.0
1139.0
1213.0
1281.0
1332.0
1349.0
1333.0
1270.0
1147.0
1019.0
891.0
763.0
684.0
717.0
778.0
839.0
876.0
898.0
902.0
900.0
898.0
901.0
903.0
908.0
911.0
911.0
911.0
907.0
905.0
903.0
902.0
905.0
907.0
909.0
911.0
912.0
914.0
915.0
912.0
911.0
914.0
913.0
914.0
919.0
920.0
921.0
921.0
923.0
923.0
924.0
925.0
925.0
924.0
923.0
923.0
923.0
925.0
928.0
932.0
932.0
935.0
935.0
936.0
936.0
933.0
933.0
932.0
933.0
936.0
937.0
938.0
944.0
946.0
946.0
944.0
943.0
943.0
943.0
946.0
946.0
948.0
948.0
952.0
953.0
955.0
957.0
953.0
954.0
951.0
952.0
949.0
951.0
951.0
955.0
955.0
958.0
957.0
956.0
955.0
953.0
950.0
952.0
950.0
950.0
949.0
951.0
953.0
955.0
956.0
954.0
956.0
955.0
957.0
961.0
961.0
964.0
967.0
970.0
972.0
974.0
973.0
972.0
969.0
969.0
968.0
962.0
961.0
958.0
956.0
954.0
953.0
950.0
947.0
945.0
941.0
939.0
936.0
934.0
931.0
929.0
928.0
926.0
924.0
926.0
926.0
927.0
928.0
924.0
924.0
925.0
924.0
925.0
926.0
929.0
932.0
931.0
932.0
932.0
933.0
932.0
932.0
933.0
934.0
938.0
939.0
941.0
943.0
946.0
946.0
947.0
946.0
946.0
946.0
944.0
945.0
947.0
946.0
948.0
949.0
952.0
951.0
950.0
945.0
946.0
945.0
945.0
943.0
944.0
946.0
946.0
944.0
944.0
943.0
942.0
940.0
938.0
938.0
937.0
936.0
936.0
935.0
934.0
935.0
935.0
933.0
933.0
930.0
929.0
926.0
923.0
924.0
923.0
927.0
928.0
930.0
931.0
931.0
928.0
927.0
925.0
919.0
919.0
917.0
921.0
919.0
920.0
920.0
925.0
925.0
925.0
923.0
923.0
919.0
920.0
916.0
918.0
917.0
921.0
919.0
923.0
922.0
923.0
924.0
922.0
919.0
916.0
918.0
916.0
917.0
916.0
918.0
922.0
921.0
920.0
922.0
919.0
918.0
916.0
914.0
918.0
916.0
917.0
919.0
919.0
921.0
922.0
919.0
920.0
920.0
918.0
916.0
915.0
917.0
916.0
916.0
920.0
922.0
918.0
922.0
920.0
918.0
918.0
915.0
916.0
919.0
918.0
918.0
919.0
919.0
920.0
917.0
917.0
916.0
915.0
916.0
916.0
917.0
918.0
917.0
919.0
919.0
918.0
918.0
916.0
916.0
914.0
912.0
913.0
915.0
916.0
919.0
921.0
921.0
921.0
920.0
915.0
916.0
915.0
912.0
912.0
915.0
920.0
925.0
926.0
930.0
934.0
935.0
936.0
936.0
935.0
936.0
935.0
935.0
932.0
933.0
931.0
931.0
928.0
929.0
930.0
929.0
928.0
929.0
927.0
928.0
927.0
923.0
921.0
922.0
918.0
918.0
917.0
918.0
918.0
920.0
923.0
927.0
932.0
940.0
950.0
969.0
998.0
1040.0
1093.0
1162.0
1233.0
1295.0
1337.0
1343.0
1309.0
1226.0
1098.0
970.0
842.0
714.0
681.0
725.0
788.0
844.0
879.0
896.0
895.0
894.0
894.0
899.0
903.0
907.0
912.0
910.0
908.0
907.0
906.0
904.0
905.0
905.0
908.0
910.0
912.0
912.0
913.0
910.0
910.0
911.0
911.0
916.0
916.0
919.0
919.0
921.0
921.0
919.0
919.0
920.0
919.0
921.0
924.0
925.0
927.0
927.0
929.0
930.0
929.0
930.0
930.0
932.0
931.0
931.0
930.0
929.0
935.0
936.0
941.0
941.0
942.0
941.0
942.0
944.0
943.0
942.0
946.0
947.0
948.0
949.0
950.0
953.0
955.0
955.0
954.0
953.0
954.0
950.0
951.0
953.0
951.0
952.0
954.0
953.0
951.0
950.0
948.0
946.0
946.0
947.0
949.0
950.0
951.0
953.0
955.0
954.0
954.0
959.0
960.0
962.0
962.0
963.0
967.0
967.0
969.0
970.0
970.0
967.0
965.0
963.0
959.0
956.0
951.0
949.0
950.0
947.0
948.0
946.0
942.0
936.0
937.0
934.0
932.0
928.0
925.0
925.0
923.0
923.0
924.0
924.0
927.0
928.0
927.0
926.0
926.0
924.0
922.0
923.0
925.0
926.0
927.0
928.0
931.0
932.0
933.0
932.0
931.0
931.0
934.0
932.0
935.0
934.0
938.0
942.0
941.0
939.0
941.0
944.0
944.0
944.0
941.0
941.0
942.0
942.0
943.0
946.0
948.0
949.0
947.0
944.0
944.0
943.0
941.0
942.0
943.0
941.0
939.0
938.0
939.0
939.0
936.0
938.0
937.0
935.0
933.0
931.0
931.0
931.0
932.0
930.0
931.0
933.0
933.0
930.0
929.0
927.0
923.0
923.0
922.0
922.0
921.0
922.0
924.0
926.0
922.0
923.0
921.0
920.0
918.0
917.0
916.0
912.0
915.0
916.0
916.0
917.0
916.0
918.0
916.0
917.0
912.0
909.0
908.0
908.0
908.0
911.0
914.0
915.0
913.0
909.0
910.0
911.0
910.0
909.0
909.0
910.0
910.0
912.0
913.0
913.0
912.0
914.0
912.0
909.0
909.0
907.0
908.0
908.0
906.0
910.0
910.0
913.0
912.0
912.0
910.0
911.0
907.0
907.0
907.0
906.0
909.0
911.0
911.0
911.0
909.0
908.0
908.0
906.0
906.0
904.0
905.0
906.0
907.0
908.0
910.0
909.0
910.0
909.0
910.0
909.0
906.0
905.0
904.0
906.0
904.0
906.0
908.0
910.0
911.0
910.0
909.0
906.0
906.0
905.0
906.0
905.0
907.0
907.0
910.0
911.0
911.0
912.0
912.0
909.0
910.0
910.0
910.0
909.0
911.0
911.0
912.0
916.0
914.0
914.0
914.0
909.0
910.0
910.0
910.0
908.0
910.0
914.0
915.0
916.0
916.0
918.0
919.0
920.0
925.0
924.0
928.0
929.0
929.0
930.0
928.0
928.0
924.0
922.0
920.0
920.0
919.0
919.0
919.0
920.0
921.0
920.0
920.0
920.0
916.0
914.0
911.0
911.0
914.0
914.0
918.0
923.0
930.0
941.0
958.0
989.0
1037.0
1101.0
1180.0
1258.0
1314.0
1338.0
1318.0
1240.0
1112.0
984.0
856.0
728.0
713.0
754.0
809.0
858.0
886.0
900.0
902.0
897.0
895.0
896.0
903.0
905.0
904.0
902.0
902.0
898.0
895.0
893.0
894.0
894.0
897.0
899.0
901.0
904.0
904.0
903.0
901.0
901.0
901.0
903.0
904.0
905.0
906.0
910.0
911.0
914.0
914.0
917.0
915.0
914.0
913.0
912.0
915.0
918.0
920.0
923.0
926.0
928.0
928.0
928.0
927.0
927.0
926.0
923.0
927.0
931.0
931.0
934.0
937.0
938.0
937.0
938.0
936.0
935.0
935.0
937.0
937.0
940.0
942.0
944.0
945.0
947.0
950.0
951.0
949.0
949.0
949.0
947.0
948.0
952.0
951.0
951.0
955.0
950.0
952.0
953.0
953.0
952.0
951.0
948.0
949.0
952.0
952.0
956.0
959.0
963.0
965.0
964.0
969.0
969.0
969.0
969.0
970.0
973.0
974.0
977.0
977.0
975.0
971.0
969.0
969.0
964.0
960.0
959.0
955.0
952.0
950.0
948.0
947.0
941.0
939.0
936.0
934.0
930.0
927.0
923.0
921.0
919.0
922.0
923.0
923.0
922.0
925.0
924.0
921.0
919.0
920.0
918.0
917.0
919.0
919.0
921.0
924.0
926.0
927.0
926.0
927.0
924.0
924.0
924.0
927.0
928.0
929.0
932.0
932.0
935.0
936.0
934.0
935.0
935.0
933.0
930.0
931.0
934.0
932.0
934.0
937.0
937.0
935.0
936.0
934.0
932.0
931.0
932.0
933.0
934.0
934.0
935.0
935.0
937.0
934.0
934.0
931.0
930.0
928.0
926.0
927.0
929.0
925.0
928.0
926.0
926.0
927.0
925.0
924.0
919.0
918.0
917.0
915.0
914.0
917.0
916.0
918.0
919.0
916.0
916.0
918.0
917.0
915.0
913.0
913.0
912.0
913.0
914.0
911.0
914.0
915.0
916.0
914.0
914.0
910.0
909.0
910.0
912.0
910.0
912.0
913.0
916.0
914.0
915.0
911.0
910.0
909.0
908.0
909.0
910.0
909.0
909.0
910.0
910.0
909.0
910.0
909.0
908.0
908.0
907.0
907.0
907.0
907.0
906.0
906.0
909.0
909.0
910.0
909.0
908.0
907.0
902.0
906.0
906.0
909.0
908.0
910.0
911.0
909.0
911.0
906.0
905.0
905.0
906.0
904.0
908.0
907.0
906.0
910.0
911.0
910.0
911.0
909.0
909.0
906.0
906.0
905.0
905.0
907.0
909.0
911.0
912.0
910.0
910.0
909.0
907.0
905.0
908.0
905.0
906.0
909.0
906.0
908.0
907.0
909.0
909.0
911.0
909.0
909.0
910.0
907.0
911.0
909.0
911.0
912.0
913.0
915.0
915.0
914.0
912.0
912.0
909.0
911.0
910.0
912.0
914.0
917.0
917.0
919.0
922.0
923.0
922.0
925.0
927.0
929.0
929.0
931.0
928.0
929.0
926.0
923.0
921.0
918.0
918.0
918.0
918.0
917.0
918.0
920.0
921.0
922.0
920.0
918.0
912.0
911.0
908.0
910.0
912.0
915.0
917.0
919.0
924.0
930.0
935.0
944.0
958.0
988.0
1023.0
1076.0
1140.0
1213.0
1275.0
1322.0
1342.0
1333.0
1283.0
1188.0
1060.0
932.0
804.0
706.0
705.0
748.0
806.0
857.0
884.0
896.0
895.0
890.0
885.0
885.0
891.0
898.0
898.0
901.0
901.0
899.0
897.0
896.0
894.0
894.0
896.0
896.0
897.0
894.0
895.0
897.0
897.0
899.0
899.0
901.0
903.0
905.0
906.0
906.0
906.0
905.0
903.0
904.0
905.0
908.0
910.0
913.0
915.0
916.0
913.0
912.0
914.0
912.0
913.0
912.0
916.0
918.0
920.0
922.0
924.0
926.0
927.0
927.0
926.0
926.0
927.0
927.0
928.0
933.0
933.0
938.0
940.0
939.0
942.0
942.0
940.0
938.0
941.0
940.0
940.0
945.0
947.0
949.0
950.0
950.0
951.0
950.0
951.0
947.0
947.0
946.0
947.0
948.0
948.0
950.0
951.0
955.0
954.0
954.0
953.0
953.0
951.0
950.0
950.0
953.0
953.0
957.0
962.0
962.0
965.0
966.0
968.0
967.0
967.0
969.0
971.0
974.0
973.0
973.0
973.0
972.0
966.0
962.0
957.0
952.0
948.0
945.0
945.0
942.0
943.0
942.0
943.0
940.0
934.0
933.0
932.0
927.0
923.0
923.0
923.0
927.0
928.0
927.0
929.0
929.0
926.0
925.0
922.0
923.0
921.0
927.0
927.0
928.0
931.0
930.0
932.0
932.0
932.0
935.0
935.0
934.0
933.0
936.0
937.0
940.0
941.0
944.0
945.0
943.0
943.0
945.0
942.0
943.0
944.0
944.0
945.0
944.0
944.0
946.0
945.0
945.0
945.0
945.0
943.0
940.0
940.0
941.0
938.0
936.0
936.0
938.0
938.0
934.0
937.0
935.0
931.0
930.0
929.0
929.0
929.0
929.0
929.0
929.0
930.0
927.0
928.0
925.0
925.0
924.0
924.0
919.0
921.0
919.0
920.0
921.0
921.0
925.0
923.0
922.0
922.0
916.0
916.0
915.0
917.0
917.0
917.0
918.0
918.0
921.0
921.0
921.0
920.0
918.0
917.0
916.0
915.0
914.0
916.0
918.0
919.0
920.0
920.0
919.0
918.0
916.0
914.0
915.0
914.0
914.0
914.0
916.0
919.0
917.0
916.0
916.0
916.0
914.0
914.0
912.0
912.0
915.0
913.0
914.0
917.0
918.0
919.0
917.0
914.0
913.0
911.0
909.0
908.0
913.0
914.0
915.0
916.0
919.0
918.0
915.0
915.0
913.0
913.0
913.0
912.0
911.0
912.0
914.0
914.0
918.0
917.0
918.0
916.0
915.0
914.0
915.0
913.0
913.0
914.0
918.0
918.0
920.0
920.0
920.0
918.0
915.0
915.0
913.0
911.0
913.0
916.0
917.0
921.0
919.0
919.0
916.0
916.0
915.0
915.0
910.0
912.0
911.0
913.0
917.0
918.0
921.0
919.0
919.0
917.0
917.0
920.0
926.0
928.0
933.0
935.0
935.0
938.0
934.0
937.0
932.0
927.0
925.0
922.0
923.0
923.0
924.0
927.0
925.0
925.0
924.0
924.0
923.0
916.0
916.0
916.0
913.0
916.0
916.0
921.0
925.0
931.0
935.0
943.0
953.0
968.0
996.0
1037.0
1088.0
1149.0
1219.0
1282.0
1328.0
1351.0
1337.0
1289.0
1188.0
1060.0
932.0
804.0
681.0
682.0
735.0
797.0
849.0
883.0
898.0
897.0
892.0
890.0
892.0
897.0
903.0
907.0
908.0
907.0
908.0
906.0
905.0
903.0
901.0
903.0
904.0
903.0
905.0
907.0
909.0
911.0
910.0
913.0
913.0
913.0
913.0
912.0
915.0
911.0
915.0
914.0
915.0
919.0
919.0
922.0
922.0
924.0
922.0
920.0
918.0
921.0
923.0
924.0
927.0
927.0
931.0
934.0
931.0
931.0
929.0
932.0
932.0
929.0
931.0
932.0
934.0
937.0
942.0
945.0
947.0
945.0
946.0
944.0
944.0
942.0
943.0
945.0
946.0
948.0
949.0
950.0
950.0
949.0
950.0
949.0
947.0
944.0
942.0
938.0
941.0
943.0
941.0
946.0
946.0
948.0
946.0
944.0
943.0
943.0
944.0
945.0
948.0
954.0
957.0
960.0
963.0
964.0
962.0
963.0
960.0
958.0
951.0
951.0
952.0
951.0
950.0
949.0
947.0
944.0
943.0
938.0
933.0
930.0
928.0
925.0
923.0
924.0
924.0
925.0
926.0
924.0
924.0
922.0
921.0
920.0
918.0
919.0
920.0
922.0
923.0
924.0
925.0
926.0
927.0
927.0
928.0
927.0
926.0
926.0
928.0
931.0
935.0
937.0
937.0
937.0
938.0
937.0
936.0
936.0
935.0
936.0
938.0
939.0
942.0
944.0
945.0
944.0
946.0
944.0
942.0
939.0
939.0
938.0
939.0
941.0
941.0
944.0
944.0
940.0
938.0
935.0
933.0
930.0
931.0
929.0
933.0
934.0
932.0
932.0
930.0
930.0
927.0
929.0
927.0
925.0
925.0
922.0
923.0
923.0
924.0
927.0
926.0
924.0
923.0
921.0
919.0
916.0
917.0
915.0
918.0
918.0
918.0
919.0
919.0
919.0
920.0
919.0
917.0
916.0
915.0
912.0
915.0
914.0
914.0
917.0
916.0
918.0
918.0
915.0
914.0
914.0
912.0
914.0
915.0
916.0
917.0
917.0
917.0
914.0
915.0
916.0
915.0
914.0
912.0
911.0
910.0
913.0
914.0
915.0
917.0
916.0
915.0
913.0
912.0
913.0
911.0
911.0
912.0
913.0
912.0
914.0
914.0
913.0
915.0
913.0
911.0
912.0
911.0
912.0
914.0
914.0
915.0
915.0
918.0
917.0
916.0
913.0
911.0
912.0
913.0
913.0
915.0
917.0
918.0
920.0
920.0
917.0
917.0
915.0
913.0
913.0
912.0
911.0
915.0
918.0
917.0
919.0
917.0
918.0
917.0
917.0
917.0
917.0
917.0
915.0
917.0
918.0
921.0
923.0
921.0
918.0
919.0
917.0
917.0
917.0
920.0
924.0
928.0
934.0
938.0
937.0
936.0
937.0
936.0
933.0
929.0
926.0
924.0
923.0
922.0
927.0
929.0
933.0
934.0
933.0
928.0
924.0
920.0
916.0
913.0
914.0
915.0
921.0
923.0
929.0
931.0
931.0
935.0
942.0
950.0
965.0
990.0
1026.0
1075.0
1136.0
1201.0
1266.0
1315.0
1338.0
1328.0
1279.0
1182.0
1054.0
926.0
798.0
691.0
690.0
736.0
801.0
850.0
880.0
892.0
893.0
887.0
882.0
884.0
893.0
902.0
908.0
909.0
911.0
909.0
908.0
903.0
902.0
900.0
899.0
903.0
906.0
906.0
907.0
907.0
912.0
913.0
913.0
912.0
913.0
911.0
911.0
910.0
912.0
913.0
915.0
915.0
921.0
922.0
921.0
919.0
923.0
919.0
920.0
920.0
923.0
924.0
924.0
925.0
927.0
929.0
930.0
927.0
930.0
931.0
930.0
930.0
932.0
933.0
933.0
937.0
938.0
940.0
941.0
941.0
940.0
941.0
941.0
941.0
941.0
943.0
945.0
949.0
949.0
948.0
948.0
950.0
945.0
945.0
945.0
944.0
945.0
947.0
949.0
947.0
947.0
949.0
946.0
946.0
945.0
946.0
943.0
940.0
940.0
943.0
944.0
946.0
948.0
948.0
952.0
951.0
952.0
955.0
953.0
955.0
956.0
959.0
964.0
966.0
967.0
966.0
963.0
959.0
956.0
953.0
950.0
948.0
944.0
942.0
940.0
939.0
938.0
936.0
933.0
931.0
926.0
923.0
922.0
918.0
918.0
917.0
918.0
920.0
922.0
922.0
920.0
920.0
919.0
917.0
918.0
918.0
917.0
916.0
916.0
921.0
923.0
923.0
922.0
923.0
925.0
926.0
923.0
924.0
922.0
926.0
928.0
931.0
934.0
937.0
937.0
936.0
936.0
934.0
935.0
935.0
935.0
937.0
939.0
939.0
941.0
940.0
940.0
937.0
937.0
936.0
936.0
933.0
935.0
936.0
936.0
935.0
938.0
935.0
935.0
936.0
933.0
929.0
928.0
928.0
926.0
925.0
927.0
926.0
930.0
927.0
926.0
926.0
922.0
918.0
918.0
920.0
918.0
919.0
921.0
920.0
922.0
922.0
919.0
920.0
919.0
916.0
915.0
915.0
914.0
911.0
912.0
917.0
918.0
917.0
916.0
915.0
915.0
911.0
910.0
910.0
911.0
908.0
912.0
914.0
914.0
913.0
911.0
912.0
910.0
909.0
911.0
909.0
910.0
910.0
912.0
912.0
915.0
912.0
911.0
908.0
907.0
908.0
909.0
908.0
908.0
909.0
910.0
912.0
912.0
913.0
913.0
912.0
908.0
910.0
910.0
906.0
903.0
905.0
909.0
910.0
911.0
913.0
910.0
910.0
908.0
909.0
906.0
907.0
905.0
905.0
908.0
907.0
909.0
908.0
907.0
908.0
908.0
909.0
910.0
905.0
905.0
904.0
908.0
909.0
912.0
912.0
913.0
912.0
912.0
909.0
908.0
908.0
906.0
908.0
907.0
911.0
911.0
913.0
913.0
911.0
911.0
910.0
909.0
911.0
910.0
911.0
912.0
914.0
913.0
915.0
915.0
915.0
914.0
915.0
914.0
914.0
916.0
921.0
925.0
928.0
931.0
935.0
932.0
933.0
931.0
930.0
929.0
928.0
926.0
924.0
923.0
920.0
923.0
926.0
924.0
925.0
922.0
922.0
919.0
917.0
912.0
911.0
913.0
914.0
919.0
922.0
923.0
924.0
923.0
928.0
933.0
938.0
954.0
983.0
1024.0
1081.0
1154.0
1232.0
1299.0
1339.0
1345.0
1313.0
1232.0
1104.0
976.0
848.0
724.0
711.0
750.0
809.0
856.0
884.0
897.0
897.0
893.0
888.0
890.0
894.0
902.0
906.0
909.0
906.0
904.0
901.0
900.0
898.0
896.0
895.0
895.0
899.0
900.0
902.0
902.0
903.0
904.0
904.0
906.0
902.0
902.0
901.0
903.0
904.0
907.0
909.0
914.0
915.0
915.0
914.0
915.0
915.0
914.0
915.0
916.0
919.0
922.0
921.0
927.0
926.0
927.0
929.0
927.0
928.0
928.0
927.0
930.0
928.0
931.0
934.0
934.0
939.0
939.0
941.0
938.0
940.0
939.0
938.0
941.0
943.0
947.0
947.0
948.0
949.0
951.0
950.0
951.0
948.0
949.0
949.0
949.0
952.0
953.0
953.0
954.0
956.0
955.0
955.0
955.0
954.0
953.0
954.0
957.0
956.0
959.0
961.0
965.0
968.0
968.0
970.0
971.0
973.0
974.0
975.0
975.0
975.0
974.0
972.0
972.0
968.0
968.0
963.0
960.0
955.0
950.0
946.0
944.0
941.0
939.0
937.0
935.0
934.0
931.0
928.0
925.0
924.0
920.0
920.0
918.0
919.0
920.0
920.0
921.0
921.0
920.0
921.0
920.0
918.0
916.0
916.0
918.0
919.0
922.0
923.0
928.0
930.0
926.0
926.0
924.0
925.0
925.0
923.0
926.0
927.0
930.0
933.0
934.0
935.0
935.0
935.0
932.0
934.0
934.0
932.0
933.0
935.0
936.0
936.0
937.0
939.0
938.0
936.0
936.0
936.0
935.0
933.0
934.0
931.0
934.0
932.0
935.0
936.0
933.0
933.0
930.0
927.0
924.0
924.0
925.0
926.0
925.0
928.0
927.0
928.0
924.0
925.0
924.0
923.0
922.0
919.0
918.0
918.0
918.0
920.0
922.0
922.0
921.0
919.0
919.0
917.0
916.0
913.0
914.0
916.0
912.0
913.0
915.0
917.0
914.0
915.0
915.0
912.0
913.0
912.0
913.0
912.0
912.0
914.0
914.0
913.0
914.0
915.0
913.0
912.0
910.0
909.0
908.0
908.0
911.0
912.0
911.0
913.0
912.0
914.0
912.0
912.0
912.0
909.0
910.0
910.0
912.0
913.0
913.0
914.0
914.0
912.0
910.0
909.0
905.0
905.0
905.0
907.0
911.0
914.0
915.0
918.0
915.0
913.0
913.0
912.0
910.0
909.0
910.0
910.0
912.0
913.0
915.0
916.0
916.0
915.0
911.0
911.0
909.0
907.0
906.0
911.0
911.0
912.0
914.0
916.0
913.0
913.0
913.0
913.0
911.0
910.0
912.0
912.0
913.0
912.0
914.0
914.0
914.0
913.0
913.0
910.0
911.0
913.0
916.0
922.0
923.0
928.0
933.0
935.0
934.0
934.0
933.0
934.0
930.0
930.0
929.0
926.0
922.0
921.0
920.0
922.0
923.0
923.0
923.0
921.0
917.0
914.0
909.0
913.0
913.0
917.0
919.0
921.0
923.0
928.0
935.0
940.0
959.0
983.0
1024.0
1080.0
1150.0
1230.0
1297.0
1341.0
1349.0
1313.0
1224.0
1096.0
968.0
840.0
716.0
714.0
759.0
817.0
867.0
895.0
900.0
903.0
898.0
898.0
896.0
899.0
902.0
902.0
903.0
902.0
902.0
905.0
904.0
904.0
903.0
902.0
901.0
901.0
903.0
902.0
905.0
908.0
