# Simple Text Format
# Sampling Rate (Hz):= 360.00
# Resolution:= 12
# Labels:= ECG
933.0
933.0
935.0
936.0
934.0
933.0
931.0
928.0
926.0
927.0
926.0
928.0
927.0
928.0
932.0
930.0
932.0
933.0
926.0
927.0
927.0
923.0
919.0
925.0
926.0
927.0
931.0
929.0
929.0
928.0
926.0
925.0
926.0
923.0
925.0
925.0
926.0
924.0
925.0
926.0
927.0
926.0
924.0
926.0
925.0
922.0
922.0
922.0
923.0
926.0
928.0
929.0
926.0
927.0
926.0
925.0
925.0
924.0
923.0
925.0
927.0
927.0
926.0
926.0
926.0
927.0
925.0
924.0
925.0
923.0
926.0
925.0
926.0
924.0
928.0
930.0
929.0
927.0
927.0
927.0
925.0
925.0
925.0
930.0
934.0
938.0
940.0
944.0
945.0
944.0
945.0
945.0
943.0
940.0
939.0
939.0
937.0
938.0
938.0
940.0
938.0
940.0
936.0
936.0
935.0
931.0
930.0
929.0
924.0
926.0
926.0
930.0
930.0
932.0
933.0
935.0
936.0
940.0
948.0
960.0
974.0
998.0
1031.0
1078.0
1137.0
1205.0
1272.0
1318.0
1339.0
1325.0
1266.0
1158.0
1030.0
902.0
774.0
709.0
730.0
785.0
838.0
879.0
901.0
905.0
907.0
905.0
909.0
912.0
918.0
922.0
922.0
919.0
916.0
915.0
915.0
912.0
914.0
915.0
919.0
920.0
924.0
925.0
925.0
924.0
923.0
922.0
922.0
920.0
924.0
925.0
927.0
929.0
930.0
931.0
933.0
932.0
932.0
932.0
932.0
930.0
933.0
935.0
937.0
940.0
944.0
944.0
946.0
944.0
942.0
942.0
941.0
942.0
941.0
943.0
948.0
950.0
951.0
953.0
953.0
954.0
952.0
952.0
951.0
949.0
953.0
953.0
955.0
957.0
957.0
958.0
960.0
958.0
956.0
954.0
954.0
952.0
953.0
953.0
954.0
955.0
954.0
955.0
954.0
955.0
954.0
954.0
952.0
954.0
954.0
955.0
955.0
960.0
963.0
966.0
969.0
970.0
972.0
973.0
973.0
971.0
970.0
967.0
969.0
967.0
968.0
965.0
964.0
961.0
957.0
956.0
949.0
949.0
947.0
944.0
944.0
944.0
943.0
942.0
938.0
936.0
935.0
933.0
931.0
928.0
930.0
929.0
928.0
930.0
933.0
934.0
934.0
933.0
931.0
931.0
930.0
928.0
928.0
931.0
934.0
935.0
937.0
938.0
937.0
938.0
937.0
934.0
936.0
937.0
938.0
937.0
941.0
943.0
943.0
947.0
945.0
946.0
944.0
944.0
945.0
943.0
942.0
943.0
946.0
946.0
948.0
948.0
948.0
948.0
946.0
943.0
941.0
940.0
940.0
939.0
940.0
939.0
939.0
940.0
941.0
938.0
938.0
937.0
934.0
933.0
930.0
930.0
931.0
929.0
931.0
930.0
931.0
930.0
927.0
925.0
924.0
925.0
925.0
924.0
926.0
927.0
927.0
928.0
929.0
925.0
924.0
922.0
924.0
922.0
918.0
921.0
924.0
922.0
923.0
925.0
919.0
922.0
921.0
920.0
920.0
918.0
918.0
917.0
918.0
919.0
920.0
920.0
920.0
918.0
918.0
917.0
915.0
915.0
913.0
915.0
917.0
918.0
920.0
921.0
919.0
919.0
917.0
914.0
915.0
915.0
915.0
915.0
915.0
916.0
918.0
918.0
916.0
918.0
916.0
915.0
916.0
914.0
914.0
914.0
916.0
916.0
917.0
918.0
919.0
918.0
914.0
916.0
913.0
912.0
914.0
914.0
912.0
918.0
918.0
919.0
918.0
919.0
916.0
916.0
915.0
914.0
913.0
915.0
917.0
918.0
917.0
921.0
917.0
918.0
918.0
916.0
915.0
913.0
915.0
914.0
916.0
920.0
919.0
919.0
922.0
923.0
922.0
925.0
926.0
931.0
931.0
933.0
933.0
933.0
933.0
933.0
927.0
924.0
923.0
926.0
925.0
924.0
924.0
925.0
922.0
926.0
925.0
927.0
926.0
923.0
918.0
916.0
915.0
916.0
918.0
920.0
924.0
926.0
931.0
933.0
936.0
941.0
947.0
961.0
984.0
1019.0
1073.0
1138.0
1212.0
1278.0
1329.0
1351.0
1344.0
1302.0
1217.0
1092.0
964.0
836.0
739.0
724.0
758.0
815.0
863.0
894.0
905.0
903.0
896.0
889.0
889.0
894.0
898.0
906.0
911.0
907.0
909.0
907.0
904.0
903.0
902.0
901.0
900.0
899.0
902.0
900.0
905.0
905.0
906.0
907.0
909.0
910.0
907.0
908.0
908.0
906.0
911.0
911.0
911.0
917.0
918.0
920.0
919.0
922.0
922.0
921.0
917.0
922.0
924.0
923.0
925.0
927.0
929.0
931.0
929.0
931.0
929.0
929.0
929.0
930.0
931.0
933.0
934.0
935.0
938.0
939.0
941.0
943.0
943.0
942.0
941.0
942.0
943.0
946.0
947.0
949.0
949.0
952.0
953.0
951.0
951.0
951.0
950.0
950.0
950.0
953.0
952.0
953.0
955.0
956.0
957.0
957.0
956.0
957.0
957.0
957.0
956.0
959.0
961.0
963.0
968.0
972.0
973.0
975.0
974.0
974.0
977.0
978.0
978.0
977.0
978.0
973.0
970.0
969.0
964.0
961.0
957.0
953.0
952.0
947.0
946.0
941.0
939.0
939.0
936.0
935.0
934.0
931.0
929.0
926.0
924.0
922.0
923.0
923.0
925.0
924.0
925.0
926.0
924.0
927.0
924.0
925.0
923.0
924.0
923.0
924.0
926.0
926.0
929.0
933.0
931.0
931.0
932.0
931.0
929.0
930.0
932.0
931.0
936.0
935.0
936.0
939.0
939.0
939.0
939.0
939.0
937.0
935.0
934.0
935.0
932.0
934.0
937.0
939.0
939.0
936.0
936.0
932.0
931.0
929.0
930.0
929.0
932.0
931.0
931.0
928.0
929.0
926.0
925.0
923.0
922.0
920.0
919.0
920.0
920.0
919.0
920.0
925.0
922.0
920.0
918.0
915.0
918.0
916.0
915.0
913.0
917.0
917.0
919.0
918.0
920.0
920.0
919.0
917.0
916.0
916.0
916.0
915.0
916.0
918.0
917.0
918.0
916.0
917.0
916.0
915.0
913.0
911.0
910.0
914.0
915.0
915.0
918.0
919.0
919.0
917.0
915.0
915.0
911.0
912.0
913.0
910.0
915.0
915.0
916.0
916.0
917.0
915.0
917.0
915.0
914.0
912.0
912.0
912.0
913.0
916.0
914.0
917.0
916.0
916.0
915.0
914.0
913.0
912.0
915.0
915.0
914.0
917.0
919.0
918.0
918.0
917.0
916.0
915.0
917.0
916.0
914.0
917.0
915.0
919.0
919.0
920.0
920.0
922.0
921.0
919.0
915.0
914.0
914.0
915.0
918.0
920.0
921.0
922.0
920.0
921.0
920.0
922.0
921.0
926.0
928.0
932.0
933.0
933.0
935.0
938.0
937.0
934.0
931.0
927.0
925.0
922.0
920.0
921.0
923.0
928.0
930.0
931.0
935.0
933.0
929.0
926.0
921.0
918.0
918.0
918.0
919.0
920.0
923.0
927.0
929.0
932.0
935.0
936.0
944.0
955.0
974.0
1008.0
1058.0
1123.0
1195.0
1269.0
1325.0
1352.0
1347.0
1299.0
1201.0
1073.0
945.0
817.0
728.0
729.0
775.0
832.0
878.0
905.0
910.0
906.0
898.0
896.0
898.0
902.0
909.0
915.0
915.0
916.0
913.0
907.0
905.0
904.0
904.0
906.0
907.0
907.0
910.0
911.0
912.0
915.0
917.0
918.0
917.0
916.0
915.0
913.0
914.0
917.0
920.0
921.0
924.0
924.0
925.0
925.0
925.0
926.0
926.0
925.0
928.0
928.0
931.0
932.0
935.0
937.0
937.0
938.0
937.0
938.0
937.0
937.0
939.0
942.0
942.0
945.0
948.0
950.0
948.0
950.0
948.0
947.0
946.0
946.0
952.0
953.0
954.0
957.0
957.0
960.0
960.0
960.0
960.0
959.0
959.0
959.0
959.0
959.0
960.0
962.0
962.0
964.0
963.0
965.0
961.0
961.0
959.0
960.0
963.0
965.0
967.0
970.0
973.0
977.0
977.0
979.0
982.0
980.0
980.0
981.0
981.0
981.0
980.0
979.0
975.0
976.0
971.0
967.0
964.0
961.0
956.0
954.0
950.0
948.0
946.0
944.0
943.0
943.0
943.0
939.0
939.0
936.0
936.0
933.0
935.0
933.0
933.0
933.0
933.0
935.0
937.0
936.0
935.0
934.0
935.0
938.0
936.0
937.0
940.0
940.0
944.0
946.0
946.0
949.0
948.0
947.0
949.0
947.0
945.0
949.0
950.0
951.0
953.0
955.0
955.0
954.0
954.0
951.0
947.0
948.0
947.0
948.0
951.0
952.0
954.0
955.0
954.0
953.0
949.0
948.0
946.0
944.0
943.0
944.0
945.0
945.0
944.0
945.0
945.0
944.0
942.0
938.0
938.0
937.0
935.0
936.0
936.0
938.0
939.0
938.0
935.0
935.0
936.0
932.0
933.0
933.0
934.0
932.0
933.0
934.0
935.0
935.0
933.0
933.0
930.0
932.0
930.0
929.0
931.0
930.0
932.0
932.0
931.0
934.0
934.0
933.0
928.0
929.0
927.0
927.0
925.0
927.0
927.0
932.0
933.0
934.0
933.0
930.0
930.0
927.0
927.0
927.0
928.0
930.0
930.0
932.0
931.0
933.0
931.0
931.0
929.0
929.0
926.0
925.0
926.0
926.0
929.0
932.0
932.0
934.0
933.0
934.0
932.0
928.0
927.0
928.0
928.0
928.0
930.0
929.0
931.0
932.0
931.0
932.0
931.0
931.0
930.0
928.0
927.0
927.0
928.0
928.0
931.0
932.0
932.0
931.0
930.0
930.0
928.0
931.0
932.0
931.0
933.0
930.0
933.0
930.0
930.0
932.0
931.0
931.0
933.0
936.0
939.0
942.0
948.0
948.0
952.0
953.0
949.0
949.0
945.0
944.0
940.0
940.0
940.0
941.0
942.0
942.0
944.0
944.0
945.0
944.0
940.0
937.0
934.0
932.0
933.0
933.0
936.0
940.0
944.0
946.0
951.0
958.0
968.0
987.0
1018.0
1062.0
1126.0
1197.0
1269.0
1319.0
1345.0
1331.0
1269.0
1154.0
1026.0
898.0
770.0
715.0
743.0
799.0
856.0
897.0
916.0
920.0
919.0
915.0
914.0
916.0
919.0
922.0
921.0
922.0
922.0
920.0
920.0
921.0
922.0
922.0
924.0
921.0
922.0
924.0
924.0
925.0
925.0
927.0
928.0
929.0
930.0
931.0
932.0
929.0
929.0
928.0
931.0
933.0
936.0
937.0
937.0
940.0
937.0
939.0
937.0
935.0
937.0
938.0
938.0
937.0
940.0
943.0
945.0
946.0
947.0
948.0
948.0
945.0
946.0
947.0
948.0
948.0
951.0
954.0
957.0
959.0
957.0
958.0
954.0
954.0
954.0
954.0
957.0
957.0
959.0
959.0
961.0
962.0
962.0
960.0
959.0
958.0
957.0
956.0
954.0
955.0
958.0
958.0
961.0
962.0
964.0
963.0
962.0
959.0
960.0
960.0
960.0
964.0
966.0
970.0
973.0
975.0
979.0
979.0
976.0
977.0
976.0
976.0
974.0
972.0
971.0
967.0
968.0
967.0
964.0
963.0
958.0
954.0
955.0
950.0
949.0
946.0
945.0
944.0
944.0
944.0
943.0
943.0
940.0
940.0
935.0
934.0
935.0
935.0
935.0
935.0
936.0
939.0
940.0
943.0
942.0
942.0
941.0
942.0
943.0
942.0
943.0
946.0
947.0
949.0
950.0
952.0
952.0
954.0
951.0
952.0
951.0
951.0
954.0
958.0
957.0
959.0
960.0
957.0
958.0
959.0
957.0
954.0
956.0
957.0
957.0
958.0
961.0
964.0
963.0
958.0
960.0
955.0
955.0
953.0
949.0
947.0
948.0
949.0
951.0
952.0
952.0
950.0
952.0
949.0
946.0
944.0
941.0
943.0
943.0
945.0
944.0
941.0
942.0
939.0
939.0
939.0
938.0
937.0
934.0
934.0
934.0
935.0
936.0
937.0
937.0
937.0
936.0
936.0
934.0
932.0
931.0
928.0
931.0
932.0
933.0
934.0
933.0
934.0
931.0
931.0
929.0
928.0
928.0
927.0
928.0
927.0
930.0
931.0
931.0
930.0
931.0
930.0
929.0
928.0
928.0
928.0
926.0
930.0
930.0
932.0
931.0
930.0
930.0
929.0
927.0
924.0
929.0
925.0
926.0
927.0
927.0
930.0
932.0
933.0
932.0
929.0
929.0
928.0
928.0
928.0
928.0
930.0
931.0
933.0
932.0
931.0
931.0
930.0
929.0
930.0
928.0
929.0
927.0
931.0
931.0
935.0
935.0
937.0
934.0
933.0
934.0
932.0
929.0
930.0
930.0
933.0
933.0
937.0
936.0
938.0
938.0
939.0
943.0
945.0
948.0
946.0
946.0
950.0
948.0
947.0
945.0
941.0
939.0
937.0
936.0
938.0
939.0
940.0
942.0
943.0
941.0
942.0
939.0
935.0
933.0
930.0
936.0
937.0
937.0
940.0
944.0
951.0
958.0
971.0
988.0
1013.0
1051.0
1096.0
1155.0
1220.0
1280.0
1320.0
1329.0
1303.0
1222.0
1094.0
966.0
838.0
718.0
719.0
766.0
825.0
876.0
907.0
920.0
922.0
921.0
920.0
920.0
922.0
920.0
919.0
918.0
917.0
917.0
918.0
920.0
920.0
923.0
926.0
927.0
927.0
928.0
927.0
929.0
928.0
927.0
927.0
928.0
930.0
933.0
935.0
935.0
936.0
935.0
935.0
935.0
933.0
932.0
933.0
937.0
938.0
941.0
942.0
944.0
944.0
941.0
941.0
941.0
942.0
942.0
942.0
944.0
947.0
949.0
950.0
954.0
950.0
953.0
952.0
953.0
951.0
953.0
953.0
952.0
954.0
956.0
959.0
961.0
960.0
960.0
960.0
956.0
955.0
953.0
957.0
957.0
960.0
961.0
961.0
962.0
960.0
959.0
958.0
956.0
954.0
954.0
955.0
955.0
954.0
954.0
959.0
960.0
960.0
959.0
961.0
960.0
960.0
961.0
963.0
966.0
971.0
975.0
978.0
979.0
977.0
978.0
976.0
971.0
966.0
963.0
964.0
962.0
963.0
961.0
962.0
959.0
956.0
951.0
948.0
945.0
941.0
941.0
939.0
939.0
941.0
939.0
939.0
939.0
937.0
938.0
938.0
936.0
934.0
933.0
933.0
933.0
935.0
937.0
938.0
942.0
939.0
939.0
937.0
937.0
937.0
938.0
941.0
940.0
944.0
948.0
949.0
950.0
950.0
950.0
951.0
951.0
949.0
949.0
951.0
954.0
955.0
956.0
957.0
956.0
958.0
958.0
958.0
955.0
955.0
954.0
955.0
953.0
956.0
955.0
957.0
956.0
954.0
954.0
952.0
949.0
947.0
947.0
945.0
946.0
943.0
946.0
949.0
948.0
946.0
946.0
943.0
943.0
939.0
938.0
938.0
938.0
938.0
938.0
940.0
938.0
939.0
937.0
937.0
933.0
931.0
930.0
931.0
929.0
933.0
934.0
934.0
933.0
931.0
931.0
930.0
928.0
927.0
928.0
925.0
926.0
926.0
929.0
929.0
933.0
932.0
930.0
930.0
927.0
926.0
923.0
924.0
925.0
927.0
929.0
930.0
931.0
929.0
930.0
927.0
924.0
923.0
924.0
926.0
925.0
926.0
927.0
928.0
929.0
929.0
930.0
929.0
925.0
926.0
923.0
924.0
925.0
924.0
927.0
927.0
927.0
927.0
926.0
926.0
925.0
925.0
925.0
923.0
923.0
925.0
927.0
927.0
929.0
927.0
924.0
926.0
925.0
922.0
924.0
925.0
924.0
927.0
928.0
931.0
930.0
931.0
929.0
927.0
927.0
925.0
924.0
926.0
927.0
929.0
931.0
932.0
934.0
931.0
930.0
930.0
929.0
925.0
929.0
930.0
929.0
934.0
939.0
943.0
943.0
947.0
948.0
944.0
940.0
936.0
934.0
932.0
932.0
935.0
937.0
938.0
941.0
942.0
939.0
939.0
935.0
934.0
930.0
927.0
931.0
927.0
929.0
931.0
933.0
937.0
937.0
937.0
940.0
941.0
945.0
955.0
967.0
991.0
1027.0
1081.0
1143.0
1212.0
1277.0
1321.0
1339.0
1330.0
1279.0
1182.0
1054.0
926.0
798.0
737.0
747.0
789.0
845.0
885.0
907.0
909.0
908.0
905.0
901.0
907.0
914.0
922.0
926.0
925.0
922.0
916.0
916.0
913.0
911.0
913.0
912.0
916.0
918.0
920.0
922.0
920.0
923.0
919.0
919.0
918.0
915.0
915.0
918.0
923.0
925.0
929.0
930.0
928.0
931.0
930.0
929.0
928.0
928.0
929.0
931.0
933.0
935.0
935.0
937.0
937.0
937.0
937.0
937.0
937.0
939.0
939.0
940.0
943.0
946.0
947.0
948.0
949.0
948.0
949.0
949.0
945.0
946.0
947.0
949.0
954.0
956.0
959.0
961.0
959.0
958.0
958.0
960.0
960.0
958.0
961.0
963.0
963.0
964.0
966.0
967.0
967.0
967.0
967.0
965.0
964.0
962.0
963.0
962.0
965.0
966.0
970.0
971.0
969.0
973.0
972.0
975.0
977.0
980.0
984.0
986.0
989.0
989.0
990.0
991.0
988.0
981.0
978.0
974.0
967.0
964.0
963.0
962.0
961.0
958.0
958.0
955.0
952.0
947.0
945.0
941.0
938.0
938.0
935.0
935.0
933.0
934.0
935.0
935.0
937.0
936.0
936.0
935.0
932.0
933.0
931.0
932.0
933.0
935.0
938.0
937.0
941.0
940.0
937.0
939.0
936.0
937.0
935.0
939.0
942.0
943.0
947.0
947.0
948.0
948.0
947.0
948.0
947.0
946.0
947.0
946.0
949.0
950.0
949.0
950.0
951.0
951.0
950.0
946.0
946.0
943.0
944.0
943.0
945.0
943.0
944.0
945.0
942.0
942.0
941.0
938.0
937.0
936.0
935.0
935.0
935.0
936.0
937.0
937.0
934.0
933.0
932.0
932.0
929.0
929.0
930.0
930.0
932.0
928.0
931.0
932.0
929.0
931.0
929.0
928.0
927.0
926.0
926.0
924.0
925.0
926.0
929.0
928.0
927.0
928.0
927.0
924.0
923.0
923.0
921.0
921.0
923.0
926.0
927.0
928.0
926.0
926.0
923.0
924.0
922.0
923.0
921.0
922.0
924.0
923.0
924.0
925.0
922.0
928.0
923.0
923.0
918.0
920.0
921.0
922.0
920.0
920.0
924.0
924.0
926.0
921.0
922.0
924.0
922.0
918.0
921.0
923.0
925.0
924.0
924.0
925.0
922.0
922.0
922.0
920.0
920.0
921.0
921.0
921.0
924.0
925.0
925.0
928.0
924.0
923.0
925.0
920.0
919.0
918.0
920.0
920.0
923.0
924.0
925.0
927.0
924.0
925.0
925.0
923.0
922.0
921.0
921.0
924.0
924.0
926.0
930.0
933.0
934.0
937.0
940.0
941.0
941.0
939.0
940.0
939.0
939.0
937.0
936.0
933.0
932.0
933.0
932.0
932.0
931.0
931.0
932.0
930.0
933.0
931.0
931.0
929.0
928.0
927.0
927.0
927.0
930.0
929.0
932.0
935.0
944.0
953.0
970.0
1002.0
1049.0
1111.0
1185.0
1259.0
1314.0
1341.0
1331.0
1274.0
1163.0
1035.0
907.0
779.0
724.0
748.0
803.0
855.0
889.0
907.0
909.0
906.0
901.0
902.0
909.0
913.0
917.0
917.0
915.0
911.0
908.0
906.0
904.0
908.0
911.0
912.0
914.0
915.0
917.0
916.0
914.0
914.0
910.0
911.0
912.0
914.0
918.0
920.0
922.0
923.0
923.0
925.0
925.0
925.0
924.0
923.0
924.0
926.0
927.0
930.0
931.0
935.0
933.0
935.0
933.0
935.0
934.0
937.0
938.0
940.0
941.0
943.0
942.0
946.0
946.0
948.0
946.0
947.0
947.0
946.0
944.0
947.0
951.0
952.0
956.0
956.0
957.0
955.0
955.0
955.0
951.0
953.0
952.0
954.0
956.0
955.0
957.0
960.0
961.0
959.0
959.0
959.0
959.0
957.0
956.0
959.0
960.0
963.0
967.0
968.0
969.0
972.0
974.0
976.0
974.0
977.0
978.0
978.0
979.0
978.0
978.0
970.0
969.0
967.0
963.0
960.0
956.0
953.0
950.0
946.0
945.0
940.0
942.0
939.0
939.0
935.0
933.0
933.0
932.0
930.0
930.0
930.0
931.0
932.0
936.0
936.0
935.0
934.0
933.0
933.0
937.0
935.0
935.0
934.0
937.0
937.0
942.0
946.0
946.0
948.0
948.0
947.0
944.0
947.0
945.0
947.0
949.0
948.0
949.0
952.0
952.0
951.0
949.0
951.0
949.0
948.0
948.0
947.0
948.0
948.0
950.0
951.0
952.0
951.0
948.0
947.0
944.0
940.0
942.0
941.0
942.0
941.0
941.0
942.0
941.0
939.0
935.0
935.0
935.0
932.0
933.0
931.0
934.0
934.0
935.0
935.0
934.0
934.0
931.0
930.0
927.0
925.0
924.0
926.0
928.0
930.0
932.0
930.0
928.0
926.0
924.0
922.0
921.0
922.0
922.0
924.0
926.0
922.0
924.0
924.0
927.0
928.0
928.0
923.0
924.0
920.0
922.0
925.0
925.0
925.0
929.0
930.0
927.0
928.0
923.0
921.0
921.0
921.0
919.0
920.0
922.0
925.0
926.0
924.0
927.0
925.0
924.0
923.0
922.0
920.0
921.0
922.0
922.0
924.0
926.0
927.0
927.0
926.0
925.0
922.0
920.0
920.0
921.0
921.0
924.0
925.0
927.0
927.0
927.0
925.0
925.0
923.0
922.0
921.0
922.0
922.0
921.0
926.0
927.0
928.0
926.0
924.0
927.0
925.0
924.0
922.0
921.0
924.0
926.0
927.0
934.0
937.0
940.0
943.0
942.0
942.0
941.0
939.0
940.0
940.0
935.0
933.0
931.0
933.0
933.0
931.0
932.0
931.0
932.0
931.0
931.0
930.0
930.0
931.0
931.0
928.0
926.0
926.0
928.0
928.0
926.0
929.0
930.0
937.0
948.0
962.0
986.0
1023.0
1069.0
1129.0
1197.0
1261.0
1308.0
1323.0
1305.0
1248.0
1138.0
1010.0
882.0
754.0
703.0
729.0
785.0
837.0
877.0
899.0
904.0
903.0
903.0
902.0
908.0
913.0
917.0
919.0
917.0
915.0
909.0
906.0
909.0
910.0
911.0
915.0
917.0
919.0
920.0
921.0
919.0
919.0
918.0
918.0
917.0
918.0
919.0
923.0
924.0
924.0
927.0
925.0
926.0
925.0
925.0
925.0
926.0
924.0
927.0
929.0
932.0
933.0
934.0
933.0
934.0
934.0
934.0
933.0
935.0
937.0
936.0
936.0
938.0
939.0
941.0
937.0
942.0
943.0
943.0
943.0
942.0
945.0
945.0
946.0
949.0
950.0
949.0
952.0
952.0
950.0
948.0
948.0
948.0
951.0
950.0
950.0
952.0
951.0
949.0
949.0
948.0
948.0
947.0
948.0
949.0
950.0
949.0
948.0
950.0
953.0
948.0
951.0
954.0
951.0
951.0
953.0
954.0
956.0
958.0
962.0
965.0
966.0
971.0
968.0
968.0
968.0
965.0
961.0
961.0
959.0
961.0
959.0
958.0
956.0
951.0
951.0
946.0
945.0
941.0
938.0
936.0
934.0
933.0
932.0
932.0
932.0
933.0
931.0
930.0
928.0
927.0
925.0
926.0
926.0
929.0
929.0
930.0
932.0
933.0
936.0
934.0
933.0
933.0
933.0
935.0
937.0
938.0
940.0
941.0
945.0
945.0
946.0
945.0
944.0
945.0
944.0
943.0
941.0
947.0
948.0
949.0
955.0
951.0
953.0
951.0
951.0
949.0
949.0
950.0
947.0
949.0
950.0
950.0
949.0
948.0
947.0
946.0
944.0
943.0
942.0
942.0
941.0
941.0
942.0
941.0
940.0
943.0
938.0
937.0
936.0
935.0
933.0
932.0
934.0
933.0
934.0
933.0
934.0
933.0
931.0
931.0
928.0
927.0
926.0
924.0
924.0
927.0
926.0
928.0
928.0
928.0
927.0
924.0
925.0
924.0
923.0
924.0
922.0
923.0
924.0
925.0
927.0
925.0
924.0
922.0
920.0
921.0
919.0
918.0
922.0
921.0
921.0
925.0
925.0
924.0
923.0
922.0
919.0
918.0
920.0
918.0
917.0
919.0
922.0
921.0
924.0
924.0
923.0
922.0
922.0
923.0
922.0
924.0
922.0
921.0
922.0
921.0
923.0
925.0
924.0
925.0
923.0
921.0
918.0
917.0
917.0
918.0
919.0
924.0
926.0
924.0
923.0
925.0
922.0
922.0
919.0
920.0
921.0
921.0
922.0
925.0
926.0
924.0
925.0
922.0
920.0
922.0
921.0
920.0
923.0
923.0
921.0
924.0
928.0
931.0
933.0
933.0
935.0
936.0
938.0
939.0
942.0
941.0
942.0
940.0
938.0
934.0
933.0
932.0
931.0
928.0
930.0
931.0
931.0
929.0
933.0
928.0
931.0
928.0
928.0
926.0
925.0
924.0
924.0
926.0
929.0
934.0
938.0
946.0
957.0
968.0
986.0
1018.0
1059.0
1114.0
1178.0
1243.0
1297.0
1325.0
1322.0
1278.0
1186.0
1058.0
930.0
802.0
708.0
716.0
764.0
819.0
864.0
892.0
905.0
908.0
908.0
909.0
911.0
914.0
916.0
917.0
914.0
914.0
913.0
914.0
911.0
913.0
914.0
918.0
917.0
919.0
917.0
916.0
917.0
920.0
917.0
920.0
922.0
923.0
926.0
927.0
927.0
926.0
924.0
924.0
924.0
924.0
925.0
927.0
930.0
931.0
932.0
933.0
932.0
931.0
930.0
928.0
931.0
932.0
933.0
936.0
936.0
940.0
941.0
942.0
943.0
942.0
942.0
941.0
940.0
941.0
943.0
945.0
948.0
951.0
951.0
949.0
950.0
950.0
947.0
947.0
946.0
946.0
948.0
948.0
948.0
949.0
950.0
951.0
950.0
950.0
946.0
945.0
944.0
943.0
944.0
945.0
947.0
946.0
950.0
950.0
951.0
952.0
956.0
956.0
954.0
959.0
959.0
962.0
964.0
965.0
966.0
964.0
965.0
961.0
959.0
955.0
953.0
951.0
946.0
946.0
944.0
944.0
943.0
940.0
938.0
934.0
932.0
930.0
927.0
928.0
928.0
927.0
929.0
929.0
929.0
929.0
928.0
927.0
927.0
926.0
925.0
925.0
927.0
927.0
928.0
930.0
930.0
932.0
932.0
935.0
934.0
931.0
930.0
931.0
932.0
935.0
938.0
939.0
942.0
943.0
943.0
942.0
942.0
942.0
943.0
943.0
945.0
947.0
946.0
947.0
949.0
949.0
949.0
947.0
947.0
945.0
943.0
941.0
941.0
939.0
943.0
943.0
946.0
946.0
943.0
942.0
940.0
938.0
936.0
937.0
936.0
936.0
937.0
937.0
937.0
936.0
935.0
933.0
930.0
930.0
928.0
926.0
927.0
927.0
929.0
930.0
930.0
930.0
929.0
928.0
925.0
925.0
922.0
921.0
922.0
922.0
925.0
924.0
924.0
922.0
922.0
922.0
920.0
917.0
918.0
917.0
919.0
919.0
918.0
917.0
920.0
920.0
922.0
921.0
918.0
916.0
914.0
915.0
916.0
917.0
918.0
921.0
920.0
916.0
916.0
916.0
914.0
913.0
915.0
915.0
915.0
916.0
916.0
918.0
918.0
919.0
920.0
918.0
916.0
914.0
913.0
913.0
912.0
913.0
915.0
915.0
918.0
917.0
917.0
914.0
912.0
913.0
911.0
911.0
910.0
912.0
914.0
913.0
916.0
915.0
916.0
915.0
913.0
913.0
911.0
911.0
911.0
913.0
914.0
915.0
918.0
922.0
922.0
925.0
928.0
925.0
925.0
927.0
924.0
927.0
927.0
925.0
926.0
922.0
924.0
923.0
923.0
922.0
923.0
923.0
920.0
923.0
921.0
920.0
917.0
917.0
916.0
915.0
917.0
916.0
918.0
918.0
922.0
925.0
930.0
940.0
953.0
978.0
1012.0
1063.0
1130.0
1203.0
1273.0
1316.0
1334.0
1319.0
1257.0
1146.0
1018.0
890.0
762.0
715.0
738.0
791.0
843.0
879.0
895.0
901.0
899.0
898.0
899.0
902.0
904.0
907.0
904.0
903.0
901.0
900.0
897.0
897.0
899.0
901.0
903.0
903.0
905.0
905.0
904.0
903.0
904.0
902.0
902.0
903.0
905.0
911.0
912.0
913.0
915.0
914.0
913.0
912.0
913.0
912.0
913.0
915.0
918.0
920.0
923.0
922.0
921.0
924.0
921.0
921.0
922.0
922.0
923.0
926.0
926.0
928.0
933.0
935.0
932.0
935.0
934.0
934.0
935.0
934.0
934.0
938.0
939.0
943.0
944.0
944.0
944.0
943.0
946.0
945.0
944.0
942.0
943.0
944.0
947.0
948.0
951.0
952.0
950.0
950.0
949.0
948.0
947.0
946.0
948.0
949.0
952.0
954.0
957.0
959.0
961.0
960.0
960.0
961.0
962.0
963.0
966.0
969.0
971.0
972.0
970.0
970.0
967.0
964.0
957.0
955.0
950.0
948.0
945.0
945.0
944.0
941.0
941.0
936.0
933.0
930.0
927.0
924.0
922.0
922.0
922.0
920.0
921.0
920.0
921.0
921.0
919.0
920.0
920.0
919.0
919.0
918.0
920.0
921.0
922.0
924.0
925.0
926.0
925.0
924.0
924.0
923.0
923.0
924.0
925.0
924.0
929.0
928.0
930.0
933.0
934.0
933.0
933.0
933.0
932.0
930.0
931.0
931.0
931.0
931.0
934.0
936.0
935.0
935.0
934.0
933.0
929.0
929.0
930.0
929.0
931.0
930.0
932.0
930.0
931.0
929.0
925.0
924.0
924.0
921.0
918.0
920.0
920.0
919.0
920.0
922.0
922.0
920.0
918.0
917.0
914.0
915.0
913.0
915.0
916.0
917.0
918.0
918.0
918.0
916.0
913.0
913.0
911.0
912.0
911.0
910.0
911.0
912.0
915.0
912.0
912.0
911.0
910.0
910.0
910.0
908.0
906.0
908.0
910.0
911.0
912.0
913.0
911.0
911.0
909.0
911.0
906.0
907.0
906.0
907.0
911.0
912.0
912.0
912.0
911.0
910.0
910.0
908.0
906.0
905.0
905.0
906.0
906.0
907.0
909.0
909.0
909.0
909.0
908.0
907.0
907.0
907.0
908.0
909.0
910.0
911.0
912.0
912.0
911.0
910.0
908.0
907.0
908.0
909.0
907.0
909.0
910.0
911.0
912.0
912.0
913.0
913.0
910.0
910.0
907.0
909.0
908.0
912.0
913.0
914.0
918.0
922.0
923.0
924.0
925.0
925.0
925.0
923.0
924.0
923.0
922.0
922.0
920.0
917.0
918.0
918.0
918.0
916.0
916.0
914.0
915.0
914.0
916.0
914.0
913.0
912.0
913.0
913.0
912.0
912.0
912.0
913.0
916.0
921.0
926.0
933.0
942.0
961.0
996.0
1045.0
1113.0
1192.0
1266.0
1317.0
1331.0
1301.0
1217.0
1089.0
961.0
833.0
729.0
725.0
767.0
820.0
862.0
890.0
