# Simple Text Format
# Sampling Rate (Hz):= 360.00
# Resolution:= 12
# Labels:= ECG
975.0
976.0
975.0
978.0
978.0
976.0
975.0
976.0
977.0
979.0
978.0
979.0
977.0
979.0
978.0
981.0
983.0
981.0
979.0
977.0
981.0
982.0
981.0
981.0
978.0
977.0
980.0
984.0
986.0
984.0
982.0
981.0
983.0
985.0
983.0
983.0
981.0
983.0
985.0
989.0
987.0
987.0
982.0
980.0
982.0
985.0
985.0
986.0
988.0
993.0
994.0
1001.0
1000.0
996.0
994.0
991.0
993.0
995.0
997.0
996.0
992.0
991.0
989.0
986.0
984.0
984.0
984.0
982.0
986.0
989.0
988.0
986.0
983.0
979.0
978.0
977.0
976.0
973.0
971.0
972.0
972.0
972.0
973.0
972.0
968.0
969.0
971.0
975.0
976.0
976.0
976.0
975.0
979.0
984.0
986.0
986.0
983.0
987.0
988.0
993.0
994.0
992.0
987.0
987.0
991.0
994.0
996.0
994.0
993.0
995.0
998.0
998.0
1003.0
1001.0
1000.0
1002.0
1002.0
1004.0
1004.0
1000.0
998.0
995.0
995.0
998.0
999.0
998.0
995.0
994.0
991.0
983.0
971.0
959.0
953.0
952.0
961.0
973.0
983.0
994.0
995.0
1000.0
1005.0
1016.0
1025.0
1039.0
1066.0
1099.0
1135.0
1161.0
1163.0
1153.0
1140.0
1117.0
1097.0
1076.0
1059.0
1042.0
1028.0
1022.0
1017.0
1016.0
1011.0
1006.0
1003.0
1003.0
1006.0
1009.0
1011.0
1011.0
1006.0
1004.0
1005.0
1007.0
1008.0
1005.0
1008.0
1007.0
1010.0
1015.0
1014.0
1014.0
1013.0
1010.0
1014.0
1014.0
1016.0
1016.0
1018.0
1018.0
1016.0
1020.0
1020.0
1020.0
1014.0
1016.0
1020.0
1023.0
1022.0
1021.0
1018.0
1020.0
1023.0
1026.0
1030.0
1029.0
1026.0
1028.0
1028.0
1030.0
1030.0
1029.0
1031.0
1034.0
1036.0
1037.0
1037.0
1035.0
1032.0
1034.0
1037.0
1043.0
1046.0
1046.0
1043.0
1040.0
1041.0
1043.0
1043.0
1043.0
1046.0
1050.0
1054.0
1057.0
1057.0
1053.0
1048.0
1046.0
1050.0
1053.0
1053.0
1057.0
1054.0
1053.0
1052.0
1051.0
1049.0
1044.0
1045.0
1045.0
1048.0
1052.0
1048.0
1040.0
1037.0
1033.0
1028.0
1030.0
1029.0
1029.0
1026.0
1023.0
1019.0
1019.0
1016.0
1016.0
1012.0
1011.0
1011.0
1009.0
1009.0
1005.0
1004.0
999.0
996.0
999.0
999.0
998.0
996.0
996.0
995.0
996.0
998.0
993.0
990.0
986.0
990.0
990.0
992.0
991.0
987.0
986.0
988.0
989.0
985.0
986.0
982.0
983.0
985.0
988.0
990.0
987.0
982.0
976.0
977.0
979.0
981.0
981.0
980.0
980.0
978.0
980.0
976.0
973.0
974.0
973.0
976.0
982.0
984.0
985.0
981.0
976.0
978.0
976.0
977.0
977.0
977.0
983.0
986.0
990.0
988.0
985.0
982.0
979.0
979.0
982.0
986.0
988.0
989.0
988.0
987.0
985.0
984.0
981.0
979.0
984.0
986.0
990.0
993.0
989.0
986.0
983.0
983.0
983.0
985.0
988.0
990.0
989.0
993.0
996.0
994.0
996.0
997.0
994.0
993.0
994.0
995.0
991.0
991.0
988.0
989.0
990.0
990.0
987.0
983.0
983.0
986.0
987.0
984.0
982.0
979.0
975.0
975.0
976.0
976.0
974.0
970.0
968.0
971.0
973.0
975.0
974.0
974.0
968.0
974.0
975.0
973.0
974.0
970.0
971.0
978.0
982.0
986.0
989.0
987.0
985.0
988.0
988.0
992.0
988.0
983.0
986.0
991.0
994.0
991.0
993.0
991.0
989.0
989.0
995.0
999.0
1002.0
1002.0
1001.0
998.0
997.0
991.0
997.0
994.0
994.0
999.0
1000.0
1002.0
998.0
994.0
983.0
976.0
966.0
959.0
954.0
956.0
966.0
977.0
987.0
995.0
999.0
1003.0
1005.0
1010.0
1021.0
1033.0
1055.0
1088.0
1123.0
1149.0
1160.0
1158.0
1146.0
1127.0
1103.0
1078.0
1058.0
1039.0
1025.0
1016.0
1010.0
1009.0
1008.0
1007.0
1008.0
1003.0
1005.0
1005.0
1008.0
1006.0
1005.0
1001.0
1002.0
1009.0
1009.0
1010.0
1008.0
1004.0
1006.0
1007.0
1011.0
1012.0
1013.0
1012.0
1012.0
1011.0
1013.0
1009.0
1008.0
1007.0
1008.0
1011.0
1015.0
1019.0
1019.0
1019.0
1019.0
1016.0
1014.0
1017.0
1017.0
1014.0
1024.0
1025.0
1029.0
1029.0
1028.0
1024.0
1021.0
1022.0
1023.0
1023.0
1024.0
1026.0
1029.0
1032.0
1029.0
1031.0
1030.0
1027.0
1027.0
1028.0
1034.0
1036.0
1039.0
1041.0
1040.0
1040.0
1038.0
1039.0
1036.0
1038.0
1039.0
1040.0
1047.0
1049.0
1049.0
1043.0
1044.0
1046.0
1048.0
1050.0
1049.0
1049.0
1050.0
1052.0
1055.0
1054.0
1052.0
1051.0
1047.0
1050.0
1049.0
1050.0
1047.0
1045.0
1043.0
1045.0
1045.0
1043.0
1040.0
1035.0
1032.0
1031.0
1029.0
1027.0
1025.0
1018.0
1017.0
1015.0
1018.0
1011.0
1009.0
1006.0
1002.0
1001.0
1003.0
1003.0
1002.0
1000.0
1001.0
1000.0
1001.0
999.0
995.0
992.0
992.0
992.0
992.0
995.0
996.0
993.0
991.0
993.0
991.0
991.0
987.0
982.0
983.0
984.0
989.0
991.0
990.0
987.0
982.0
982.0
979.0
982.0
981.0
981.0
981.0
980.0
983.0
982.0
978.0
971.0
969.0
970.0
974.0
976.0
977.0
977.0
978.0
976.0
975.0
976.0
972.0
971.0
970.0
972.0
977.0
975.0
979.0
974.0
976.0
975.0
976.0
975.0
975.0
976.0
974.0
975.0
977.0
977.0
977.0
976.0
972.0
975.0
978.0
980.0
981.0
977.0
976.0
979.0
981.0
981.0
982.0
981.0
978.0
978.0
981.0
982.0
982.0
978.0
980.0
982.0
983.0
987.0
986.0
986.0
983.0
989.0
993.0
994.0
995.0
996.0
992.0
987.0
987.0
988.0
986.0
985.0
985.0
987.0
989.0
990.0
987.0
984.0
982.0
980.0
980.0
980.0
979.0
978.0
975.0
977.0
975.0
970.0
967.0
962.0
960.0
963.0
970.0
974.0
972.0
968.0
966.0
964.0
967.0
969.0
969.0
971.0
971.0
975.0
978.0
980.0
983.0
980.0
976.0
977.0
981.0
980.0
982.0
982.0
983.0
986.0
990.0
990.0
990.0
990.0
992.0
994.0
999.0
999.0
998.0
992.0
991.0
991.0
991.0
990.0
988.0
985.0
983.0
983.0
981.0
974.0
963.0
951.0
944.0
948.0
963.0
971.0
978.0
986.0
994.0
1004.0
1011.0
1014.0
1027.0
1049.0
1087.0
1128.0
1150.0
1154.0
1141.0
1122.0
1096.0
1068.0
1043.0
1023.0
1011.0
1004.0
1003.0
1007.0
1008.0
1004.0
1000.0
996.0
992.0
994.0
994.0
1000.0
1003.0
1003.0
1002.0
1003.0
1003.0
1003.0
1002.0
1003.0
1007.0
1011.0
1012.0
1012.0
1009.0
1007.0
1007.0
1008.0
1011.0
1015.0
1014.0
1014.0
1016.0
1015.0
1013.0
1013.0
1015.0
1013.0
1016.0
1018.0
1022.0
1021.0
1023.0
1021.0
1021.0
1017.0
1022.0
1020.0
1022.0
1023.0
1021.0
1023.0
1028.0
1027.0
1027.0
1027.0
1026.0
1027.0
1029.0
1030.0
1032.0
1032.0
1033.0
1037.0
1040.0
1041.0
1040.0
1038.0
1036.0
1039.0
1043.0
1045.0
1046.0
1042.0
1042.0
1043.0
1044.0
1043.0
1042.0
1038.0
1039.0
1045.0
1047.0
1048.0
1043.0
1035.0
1032.0
1033.0
1035.0
1038.0
1039.0
1033.0
1024.0
1020.0
1019.0
1016.0
1010.0
1010.0
1010.0
1011.0
1010.0
1003.0
1002.0
994.0
993.0
995.0
998.0
997.0
995.0
993.0
988.0
986.0
985.0
984.0
985.0
984.0
986.0
986.0
986.0
989.0
985.0
982.0
980.0
980.0
982.0
983.0
981.0
982.0
978.0
981.0
979.0
976.0
974.0
974.0
974.0
973.0
976.0
971.0
975.0
972.0
973.0
971.0
973.0
973.0
970.0
967.0
966.0
967.0
971.0
973.0
974.0
973.0
971.0
970.0
970.0
968.0
967.0
967.0
969.0
971.0
972.0
973.0
969.0
969.0
966.0
967.0
969.0
971.0
974.0
975.0
974.0
978.0
979.0
975.0
970.0
967.0
965.0
969.0
975.0
980.0
977.0
976.0
973.0
972.0
972.0
975.0
972.0
974.0
976.0
975.0
978.0
980.0
975.0
973.0
976.0
978.0
983.0
986.0
987.0
985.0
985.0
986.0
984.0
982.0
981.0
981.0
985.0
985.0
984.0
983.0
978.0
975.0
970.0
966.0
970.0
975.0
971.0
968.0
968.0
968.0
968.0
968.0
963.0
960.0
959.0
960.0
961.0
960.0
959.0
958.0
957.0
960.0
965.0
966.0
964.0
961.0
960.0
963.0
969.0
973.0
978.0
980.0
984.0
980.0
976.0
973.0
971.0
969.0
976.0
984.0
989.0
989.0
985.0
981.0
980.0
981.0
987.0
991.0
994.0
989.0
988.0
987.0
986.0
983.0
981.0
981.0
981.0
983.0
978.0
968.0
954.0
942.0
941.0
951.0
967.0
980.0
991.0
998.0
1001.0
1008.0
1017.0
1033.0
1065.0
1106.0
1144.0
1160.0
1163.0
1151.0
1126.0
1093.0
1061.0
1033.0
1018.0
1010.0
1007.0
1004.0
1003.0
1001.0
1001.0
998.0
1000.0
999.0
999.0
998.0
1001.0
1004.0
1004.0
1005.0
1002.0
1006.0
1010.0
1007.0
1005.0
1003.0
1005.0
1008.0
1014.0
1016.0
1012.0
1010.0
1008.0
1010.0
1013.0
1016.0
1017.0
1014.0
1016.0
1014.0
1016.0
1016.0
1016.0
1016.0
1016.0
1022.0
1024.0
1023.0
1025.0
1020.0
1018.0
1018.0
1023.0
1027.0
1029.0
1032.0
1032.0
1030.0
1026.0
1027.0
1029.0
1028.0
1032.0
1038.0
1042.0
1046.0
1044.0
1041.0
1040.0
1040.0
1044.0
1047.0
1048.0
1050.0
1051.0
1050.0
1051.0
1048.0
1045.0
1045.0
1047.0
1049.0
1050.0
1052.0
1052.0
1047.0
1043.0
1043.0
1042.0
1042.0
1041.0
1038.0
1035.0
1031.0
1030.0
1028.0
1024.0
1018.0
1017.0
1019.0
1018.0
1014.0
1013.0
1009.0
1007.0
1006.0
1005.0
1004.0
1002.0
998.0
995.0
994.0
997.0
994.0
993.0
991.0
987.0
990.0
989.0
989.0
989.0
987.0
988.0
990.0
990.0
989.0
987.0
984.0
980.0
981.0
981.0
984.0
985.0
982.0
976.0
976.0
976.0
977.0
973.0
977.0
977.0
980.0
980.0
979.0
973.0
973.0
971.0
974.0
977.0
977.0
979.0
980.0
976.0
974.0
972.0
973.0
971.0
972.0
972.0
974.0
978.0
980.0
978.0
972.0
974.0
978.0
979.0
980.0
974.0
977.0
973.0
976.0
979.0
977.0
976.0
974.0
974.0
977.0
983.0
985.0
980.0
979.0
979.0
980.0
981.0
981.0
980.0
978.0
979.0
979.0
982.0
983.0
988.0
985.0
987.0
989.0
989.0
994.0
995.0
993.0
991.0
990.0
987.0
989.0
987.0
983.0
981.0
982.0
983.0
986.0
986.0
983.0
982.0
978.0
979.0
975.0
975.0
973.0
969.0
973.0
972.0
969.0
967.0
965.0
961.0
966.0
965.0
966.0
968.0
972.0
971.0
970.0
973.0
973.0
971.0
975.0
978.0
981.0
988.0
991.0
989.0
984.0
980.0
980.0
983.0
989.0
991.0
994.0
996.0
994.0
994.0
995.0
995.0
990.0
993.0
995.0
999.0
1001.0
1001.0
999.0
996.0
998.0
999.0
999.0
998.0
989.0
988.0
980.0
973.0
963.0
959.0
961.0
971.0
982.0
995.0
1004.0
1011.0
1015.0
1018.0
1029.0
1049.0
1074.0
1105.0
1135.0
1156.0
1166.0
1157.0
1143.0
1116.0
1083.0
1059.0
1041.0
1028.0
1014.0
1010.0
1007.0
1007.0
1009.0
1015.0
1017.0
1018.0
1017.0
1009.0
1007.0
1010.0
1005.0
1008.0
1008.0
1012.0
1018.0
1021.0
1020.0
1018.0
1015.0
1011.0
1015.0
1017.0
1021.0
1022.0
1026.0
1024.0
1024.0
1026.0
1025.0
1020.0
1014.0
1016.0
1023.0
1027.0
1027.0
1029.0
1026.0
1023.0
1021.0
1023.0
1028.0
1030.0
1029.0
1030.0
1033.0
1036.0
1035.0
1033.0
1030.0
1029.0
1032.0
1039.0
1039.0
1040.0
1038.0
1038.0
1038.0
1041.0
1043.0
1043.0
1044.0
1043.0
1047.0
1050.0
1051.0
1052.0
1050.0
1051.0
1052.0
1053.0
1054.0
1052.0
1051.0
1051.0
1056.0
1058.0
1058.0
1060.0
1055.0
1051.0
1054.0
1054.0
1056.0
1055.0
1056.0
1055.0
1056.0
1054.0
1053.0
1048.0
1043.0
1038.0
1038.0
1040.0
1040.0
1033.0
1032.0
1028.0
1025.0
1023.0
1020.0
1019.0
1019.0
1020.0
1020.0
1020.0
1017.0
1011.0
1006.0
1000.0
1004.0
1008.0
1009.0
1008.0
1006.0
1002.0
1001.0
999.0
997.0
997.0
997.0
998.0
997.0
1002.0
1002.0
1001.0
996.0
993.0
990.0
994.0
992.0
991.0
991.0
993.0
993.0
994.0
993.0
988.0
984.0
984.0
984.0
987.0
989.0
992.0
990.0
986.0
986.0
988.0
987.0
984.0
982.0
983.0
981.0
988.0
986.0
989.0
986.0
984.0
983.0
984.0
986.0
984.0
981.0
981.0
984.0
988.0
987.0
988.0
985.0
981.0
982.0
984.0
984.0
986.0
983.0
984.0
988.0
990.0
988.0
986.0
984.0
980.0
987.0
994.0
996.0
993.0
990.0
991.0
989.0
989.0
986.0
983.0
981.0
986.0
994.0
999.0
1002.0
1001.0
999.0
997.0
996.0
999.0
1001.0
1001.0
1000.0
1000.0
998.0
996.0
996.0
991.0
986.0
987.0
993.0
997.0
997.0
998.0
993.0
994.0
986.0
983.0
981.0
979.0
979.0
979.0
977.0
978.0
977.0
973.0
968.0
967.0
971.0
976.0
973.0
972.0
970.0
970.0
970.0
970.0
975.0
979.0
979.0
980.0
986.0
989.0
992.0
993.0
988.0
989.0
990.0
992.0
992.0
993.0
990.0
988.0
992.0
997.0
999.0
1002.0
995.0
998.0
996.0
997.0
998.0
998.0
998.0
997.0
1000.0
1002.0
999.0
995.0
988.0
980.0
971.0
963.0
958.0
956.0
960.0
966.0
974.0
985.0
992.0
1000.0
1005.0
1012.0
1024.0
1042.0
1070.0
1101.0
1136.0
1158.0
1168.0
1165.0
1157.0
1142.0
1122.0
1093.0
1068.0
1050.0
1033.0
1016.0
1005.0
1002.0
1006.0
1009.0
1011.0
1008.0
1007.0
1002.0
1002.0
1005.0
1008.0
1009.0
1009.0
1011.0
1015.0
1018.0
1016.0
1013.0
1009.0
1010.0
1010.0
1013.0
1014.0
1015.0
1013.0
1011.0
1013.0
1018.0
1019.0
1020.0
1016.0
1019.0
1021.0
1021.0
1023.0
1021.0
1020.0
1017.0
1022.0
1024.0
1025.0
1024.0
1023.0
1024.0
1027.0
1032.0
1037.0
1030.0
1029.0
1026.0
1028.0
1027.0
1028.0
1027.0
1029.0
1032.0
1034.0
1037.0
1036.0
1038.0
1036.0
1034.0
1037.0
1036.0
1040.0
1043.0
1044.0
1047.0
1049.0
1053.0
1050.0
1046.0
1042.0
1038.0
1041.0
1049.0
1051.0
1049.0
1047.0
1047.0
1042.0
1044.0
1043.0
1046.0
1051.0
1053.0
1054.0
1053.0
1050.0
1044.0
1038.0
1033.0
1032.0
1031.0
1033.0
1030.0
1028.0
1022.0
1021.0
1018.0
1012.0
1010.0
1008.0
1005.0
1004.0
1008.0
1008.0
1005.0
1001.0
997.0
997.0
997.0
995.0
990.0
990.0
990.0
991.0
993.0
992.0
992.0
991.0
987.0
987.0
987.0
986.0
985.0
983.0
979.0
983.0
980.0
984.0
982.0
980.0
979.0
977.0
979.0
980.0
977.0
977.0
976.0
976.0
978.0
977.0
976.0
974.0
970.0
971.0
970.0
970.0
972.0
971.0
971.0
969.0
967.0
967.0
966.0
968.0
968.0
972.0
973.0
971.0
971.0
966.0
964.0
964.0
965.0
965.0
969.0
969.0
970.0
972.0
975.0
973.0
971.0
966.0
967.0
967.0
972.0
974.0
974.0
973.0
971.0
970.0
973.0
968.0
970.0
970.0
974.0
978.0
981.0
979.0
977.0
973.0
970.0
972.0
975.0
977.0
975.0
974.0
974.0
977.0
984.0
980.0
980.0
979.0
978.0
983.0
987.0
989.0
987.0
985.0
982.0
980.0
980.0
978.0
977.0
974.0
972.0
974.0
975.0
973.0
973.0
971.0
970.0
972.0
972.0
971.0
967.0
966.0
959.0
961.0
963.0
964.0
962.0
962.0
958.0
957.0
958.0
958.0
955.0
954.0
952.0
959.0
962.0
964.0
964.0
961.0
963.0
964.0
966.0
968.0
969.0
973.0
971.0
973.0
976.0
975.0
972.0
971.0
969.0
971.0
977.0
980.0
984.0
982.0
985.0
982.0
984.0
982.0
983.0
978.0
981.0
980.0
986.0
987.0
981.0
982.0
977.0
976.0
975.0
974.0
968.0
962.0
954.0
949.0
944.0
940.0
937.0
936.0
941.0
947.0
957.0
965.0
975.0
983.0
994.0
1004.0
1019.0
1043.0
1075.0
1108.0
1131.0
1138.0
1134.0
1124.0
1111.0
1090.0
1066.0
1050.0
1033.0
1018.0
1006.0
995.0
992.0
992.0
994.0
993.0
989.0
991.0
991.0
990.0
996.0
995.0
993.0
987.0
988.0
991.0
994.0
996.0
995.0
994.0
994.0
995.0
997.0
999.0
999.0
998.0
998.0
998.0
1000.0
1003.0
1001.0
1000.0
1001.0
1001.0
1003.0
1005.0
1005.0
1006.0
1005.0
1008.0
1014.0
1016.0
1013.0
1010.0
1007.0
1005.0
1007.0
1008.0
1006.0
1007.0
1006.0
1012.0
1015.0
1016.0
1016.0
1012.0
1011.0
1012.0
1015.0
1019.0
1018.0
1017.0
1018.0
1021.0
1024.0
1023.0
1023.0
1022.0
1021.0
1026.0
1031.0
1031.0
1030.0
1030.0
1030.0
1030.0
1031.0
1034.0
1034.0
1033.0
1031.0
1036.0
1039.0
1041.0
1041.0
1039.0
1035.0
1033.0
1035.0
1035.0
1034.0
1032.0
1032.0
1033.0
1031.0
1029.0
1028.0
1026.0
1026.0
1023.0
1025.0
1023.0
1021.0
1018.0
1016.0
1014.0
1010.0
1009.0
1008.0
1003.0
998.0
997.0
996.0
996.0
994.0
991.0
991.0
995.0
995.0
994.0
992.0
988.0
986.0
985.0
984.0
984.0
986.0
982.0
981.0
982.0
985.0
980.0
979.0
974.0
971.0
976.0
979.0
980.0
979.0
978.0
974.0
974.0
973.0
971.0
970.0
969.0
965.0
968.0
972.0
970.0
971.0
967.0
966.0
963.0
966.0
969.0
969.0
969.0
966.0
969.0
970.0
970.0
968.0
964.0
962.0
960.0
964.0
969.0
968.0
967.0
968.0
969.0
966.0
969.0
969.0
963.0
962.0
965.0
968.0
971.0
968.0
968.0
967.0
967.0
970.0
970.0
971.0
967.0
969.0
971.0
972.0
973.0
971.0
970.0
967.0
971.0
973.0
974.0
973.0
969.0
971.0
973.0
974.0
975.0
975.0
976.0
977.0
976.0
978.0
976.0
972.0
969.0
970.0
973.0
975.0
977.0
980.0
983.0
979.0
982.0
982.0
986.0
987.0
987.0
987.0
988.0
989.0
990.0
989.0
984.0
982.0
979.0
979.0
977.0
978.0
975.0
973.0
977.0
979.0
978.0
978.0
977.0
968.0
965.0
967.0
968.0
966.0
966.0
968.0
967.0
968.0
965.0
963.0
960.0
958.0
957.0
959.0
962.0
964.0
967.0
965.0
963.0
965.0
966.0
967.0
967.0
967.0
971.0
977.0
976.0
979.0
981.0
981.0
982.0
982.0
977.0
978.0
978.0
982.0
986.0
983.0
988.0
988.0
986.0
985.0
989.0
991.0
990.0
991.0
991.0
989.0
990.0
992.0
995.0
995.0
991.0
989.0
990.0
991.0
989.0
986.0
980.0
970.0
958.0
954.0
955.0
958.0
965.0
971.0
977.0
988.0
991.0
1000.0
1003.0
1008.0
1017.0
1029.0
1053.0
1083.0
1119.0
1146.0
1158.0
1154.0
1144.0
1129.0
1105.0
1079.0
1058.0
1045.0
1032.0
1020.0
1010.0
1003.0
1001.0
1005.0
1005.0
1005.0
1004.0
1005.0
1007.0
1009.0
1008.0
1005.0
1003.0
996.0
1002.0
1004.0
1008.0
1009.0
1012.0
1010.0
1012.0
1014.0
1010.0
1012.0
1006.0
1008.0
1010.0
1016.0
1019.0
1021.0
1016.0
1015.0
1017.0
1017.0
1015.0
1015.0
1013.0
1014.0
1016.0
1020.0
1023.0
1023.0
1020.0
1019.0
1018.0
1022.0
1023.0
1025.0
1023.0
1024.0
1027.0
1028.0
1031.0
1030.0
1027.0
1026.0
1028.0
1033.0
1036.0
1035.0
1032.0
1034.0
1037.0
1039.0
1040.0
1042.0
1041.0
1040.0
1040.0
1040.0
1042.0
1043.0
1039.0
1041.0
1043.0
1047.0
1051.0
1051.0
1050.0
1047.0
1049.0
1052.0
1054.0
1053.0
1051.0
1051.0
1051.0
1052.0
1055.0
1050.0
1048.0
1046.0
1049.0
1051.0
1051.0
1051.0
1047.0
1045.0
1040.0
1038.0
1036.0
1034.0
1033.0
1032.0
1031.0
1030.0
1025.0
1022.0
1016.0
1012.0
1011.0
1014.0
1015.0
1013.0
1013.0
1011.0
1010.0
1007.0
1000.0
996.0
995.0
994.0
994.0
996.0
997.0
999.0
996.0
991.0
991.0
992.0
993.0
990.0
989.0
986.0
993.0
992.0
991.0
988.0
985.0
983.0
983.0
989.0
988.0
984.0
983.0
982.0
983.0
983.0
985.0
981.0
978.0
977.0
980.0
981.0
982.0
979.0
977.0
976.0
977.0
978.0
978.0
978.0
974.0
974.0
974.0
977.0
977.0
975.0
973.0
971.0
972.0
970.0
975.0
972.0
971.0
972.0
974.0
977.0
979.0
977.0
973.0
971.0
971.0
977.0
977.0
978.0
979.0
976.0
980.0
980.0
981.0
979.0
974.0
974.0
979.0
984.0
983.0
981.0
978.0
977.0
975.0
976.0
977.0
976.0
978.0
982.0
986.0
988.0
988.0
988.0
982.0
982.0
987.0
992.0
992.0
992.0
987.0
982.0
982.0
982.0
980.0
976.0
979.0
980.0
982.0
982.0
980.0
976.0
972.0
970.0
970.0
972.0
972.0
968.0
964.0
962.0
962.0
959.0
960.0
959.0
957.0
956.0
960.0
961.0
961.0
962.0
957.0
961.0
963.0
966.0
968.0
971.0
971.0
968.0
970.0
973.0
975.0
980.0
981.0
982.0
982.0
983.0
982.0
985.0
981.0
976.0
980.0
980.0
987.0
989.0
990.0
988.0
990.0
990.0
986.0
987.0
984.0
981.0
985.0
989.0
992.0
992.0
991.0
987.0
986.0
983.0
981.0
975.0
965.0
956.0
949.0
946.0
948.0
952.0
956.0
962.0
969.0
979.0
990.0
998.0
1004.0
1010.0
1027.0
1045.0
1075.0
1108.0
1139.0
1153.0
1156.0
1149.0
1139.0
1124.0
1100.0
1075.0
1053.0
1036.0
1020.0
1005.0
993.0
993.0
996.0
1000.0
1002.0
1002.0
1003.0
1000.0
999.0
999.0
1000.0
1002.0
1001.0
997.0
997.0
1001.0
1003.0
1008.0
1004.0
1003.0
1004.0
1007.0
1007.0
1005.0
1006.0
1003.0
1004.0
1006.0
1009.0
1011.0
1008.0
1007.0
1012.0
1013.0
1013.0
1015.0
1013.0
1010.0
1012.0
1014.0
1019.0
1018.0
1018.0
1015.0
1017.0
1019.0
1019.0
1017.0
1016.0
1016.0
1021.0
1024.0
1027.0
1026.0
1025.0
1021.0
1022.0
1026.0
1026.0
1025.0
1027.0
1028.0
1029.0
1033.0
1034.0
1034.0
1030.0
1028.0
1033.0
1036.0
1039.0
1040.0
1039.0
1041.0
1042.0
1042.0
1046.0
1039.0
1039.0
1039.0
1042.0
1048.0
1052.0
1053.0
1045.0
1045.0
1045.0
1045.0
1043.0
1045.0
1043.0
1046.0
1046.0
1049.0
1047.0
1043.0
1040.0
1037.0
1037.0
1038.0
1037.0
1035.0
1032.0
1027.0
1029.0
1027.0
1023.0
1019.0
1015.0
1013.0
1015.0
1015.0
1011.0
1010.0
1007.0
1005.0
1004.0
1005.0
1004.0
1001.0
996.0
996.0
996.0
999.0
997.0
995.0
997.0
995.0
997.0
997.0
997.0
995.0
989.0
982.0
985.0
986.0
990.0
990.0
989.0
988.0
988.0
988.0
989.0
983.0
984.0
981.0
983.0
985.0
985.0
985.0
982.0
980.0
977.0
977.0
976.0
977.0
975.0
975.0
978.0
983.0
982.0
978.0
976.0
973.0
972.0
973.0
974.0
976.0
979.0
980.0
977.0
980.0
979.0
975.0
971.0
971.0
971.0
976.0
980.0
984.0
978.0
980.0
978.0
978.0
977.0
976.0
978.0
978.0
979.0
983.0
982.0
982.0
979.0
980.0
979.0
982.0
984.0
985.0
983.0
986.0
986.0
985.0
986.0
985.0
981.0
979.0
978.0
983.0
986.0
988.0
989.0
992.0
992.0
995.0
993.0
994.0
995.0
989.0
995.0
994.0
994.0
994.0
990.0
989.0
986.0
984.0
983.0
982.0
983.0
981.0
980.0
984.0
983.0
982.0
976.0
970.0
970.0
970.0
972.0
970.0
967.0
969.0
971.0
970.0
965.0
964.0
959.0
961.0
964.0
969.0
970.0
971.0
970.0
969.0
970.0
975.0
980.0
986.0
987.0
984.0
984.0
987.0
985.0
984.0
980.0
982.0
984.0
992.0
998.0
997.0
995.0
992.0
990.0
992.0
996.0
997.0
999.0
999.0
1000.0
998.0
992.0
988.0
985.0
981.0
973.0
963.0
954.0
951.0
955.0
964.0
974.0
990.0
998.0
1005.0
1010.0
1022.0
1052.0
1098.0
1145.0
1170.0
1167.0
1147.0
1125.0
1097.0
1066.0
1042.0
1023.0
1011.0
1004.0
1003.0
1005.0
1004.0
1002.0
1003.0
1001.0
1008.0
1004.0
1004.0
1001.0
999.0
1001.0
1003.0
1010.0
1008.0
1007.0
1007.0
1004.0
1005.0
1005.0
1008.0
1010.0
1014.0
1016.0
1019.0
1015.0
1011.0
1009.0
1011.0
1010.0
1015.0
1021.0
1022.0
1019.0
1019.0
1019.0
1021.0
1023.0
1024.0
1021.0
1022.0
1023.0
1022.0
1027.0
1024.0
1024.0
1025.0
1028.0
1034.0
1034.0
1034.0
1033.0
1031.0
1036.0
1035.0
1040.0
1043.0
1042.0
1042.0
1047.0
1048.0
1049.0
1048.0
1045.0
1048.0
1050.0
1051.0
1052.0
1051.0
1050.0
1048.0
1049.0
1053.0
1053.0
1051.0
1050.0
1045.0
1045.0
1050.0
1049.0
1047.0
1044.0
1041.0
1038.0
1033.0
1033.0
1028.0
1028.0
1026.0
1026.0
1028.0
1024.0
1017.0
1013.0
1008.0
1004.0
1008.0
1009.0
1009.0
1005.0
1002.0
1001.0
1001.0
999.0
996.0
991.0
992.0
995.0
996.0
998.0
990.0
986.0
983.0
983.0
985.0
985.0
988.0
986.0
985.0
988.0
986.0
983.0
981.0
982.0
980.0
984.0
988.0
987.0
983.0
979.0
975.0
974.0
981.0
981.0
981.0
980.0
978.0
977.0
977.0
979.0
978.0
978.0
975.0
970.0
971.0
972.0
974.0
974.0
972.0
973.0
972.0
974.0
976.0
972.0
974.0
975.0
977.0
977.0
976.0
976.0
974.0
973.0
975.0
977.0
973.0
978.0
979.0
980.0
980.0
977.0
978.0
975.0
975.0
976.0
978.0
985.0
982.0
979.0
978.0
975.0
976.0
978.0
982.0
984.0
989.0
991.0
990.0
989.0
986.0
986.0
986.0
989.0
992.0
995.0
993.0
989.0
984.0
979.0
975.0
976.0
980.0
980.0
981.0
981.0
980.0
975.0
968.0
967.0
962.0
965.0
967.0
971.0
969.0
964.0
961.0
965.0
967.0
968.0
967.0
965.0
966.0
968.0
969.0
972.0
974.0
975.0
977.0
982.0
984.0
985.0
981.0
980.0
976.0
981.0
985.0
989.0
989.0
986.0
984.0
989.0
993.0
996.0
994.0
993.0
991.0
991.0
991.0
994.0
997.0
997.0
993.0
989.0
988.0
984.0
971.0
956.0
947.0
950.0
961.0
972.0
982.0
989.0
991.0
997.0
1007.0
1017.0
1037.0
1070.0
1112.0
1148.0
1160.0
1151.0
1134.0
1108.0
1079.0
1054.0
1031.0
1019.0
1008.0
1002.0
999.0
997.0
999.0
1007.0
1009.0
1007.0
1002.0
998.0
1000.0
1002.0
1003.0
1004.0
1007.0
1009.0
1012.0
1012.0
1011.0
1008.0
1005.0
1006.0
1011.0
1015.0
1017.0
1012.0
1011.0
1014.0
1014.0
1016.0
1015.0
1014.0
1016.0
1020.0
1022.0
1025.0
1025.0
1022.0
1019.0
1022.0
1025.0
1026.0
1027.0
1027.0
1025.0
1029.0
1034.0
1035.0
1033.0
1030.0
1030.0
1035.0
1039.0
1044.0
1043.0
1039.0
1033.0
1036.0
1040.0
1042.0
1043.0
1045.0
1047.0
1049.0
1054.0
1051.0
1052.0
1048.0
1045.0
1048.0
1057.0
1057.0
1058.0
1056.0
1050.0
1049.0
1050.0
1049.0
1051.0
1051.0
1049.0
1051.0
1048.0
1049.0
1044.0
1040.0
1034.0
1030.0
1028.0
1028.0
1028.0
1024.0
1020.0
1017.0
1017.0
1013.0
1011.0
1005.0
1007.0
1006.0
1009.0
1004.0
1002.0
998.0
998.0
997.0
998.0
999.0
998.0
996.0
996.0
994.0
993.0
995.0
994.0
994.0
992.0
990.0
992.0
991.0
990.0
987.0
986.0
987.0
990.0
987.0
985.0
983.0
984.0
984.0
986.0
987.0
985.0
983.0
980.0
980.0
979.0
977.0
975.0
976.0
977.0
977.0
979.0
978.0
978.0
973.0
970.0
971.0
977.0
980.0
983.0
982.0
978.0
981.0
978.0
975.0
970.0
969.0
967.0
974.0
981.0
982.0
979.0
976.0
971.0
970.0
971.0
974.0
976.0
974.0
979.0
980.0
981.0
980.0
978.0
973.0
973.0
974.0
979.0
984.0
985.0
982.0
980.0
977.0
976.0
977.0
978.0
980.0
982.0
987.0
991.0
991.0
989.0
988.0
987.0
989.0
992.0
992.0
990.0
986.0
987.0
988.0
991.0
990.0
986.0
982.0
980.0
981.0
983.0
983.0
977.0
976.0
973.0
976.0
976.0
974.0
971.0
966.0
962.0
965.0
965.0
968.0
968.0
965.0
964.0
966.0
966.0
965.0
965.0
961.0
961.0
966.0
971.0
973.0
972.0
972.0
973.0
975.0
979.0
981.0
983.0
983.0
978.0
981.0
984.0
986.0
981.0
981.0
982.0
986.0
993.0
997.0
996.0
992.0
989.0
988.0
985.0
986.0
988.0
985.0
986.0
986.0
990.0
990.0
982.0
974.0
962.0
952.0
945.0
942.0
939.0
945.0
953.0
962.0
972.0
983.0
990.0
996.0
1007.0
1019.0
1042.0
1075.0
1111.0
1143.0
1159.0
1158.0
1147.0
1135.0
1113.0
1080.0
1048.0
1031.0
1014.0
1005.0
1000.0
995.0
993.0
994.0
998.0
1001.0
997.0
998.0
998.0
1000.0
1002.0
1004.0
1001.0
998.0
996.0
1001.0
1006.0
1008.0
1005.0
1003.0
1000.0
1000.0
1001.0
1000.0
1003.0
1003.0
1003.0
1006.0
1011.0
1010.0
1009.0
1008.0
1006.0
1008.0
1006.0
1011.0
1017.0
1012.0
1012.0
1010.0
1008.0
1010.0
1010.0
1011.0
1009.0
1015.0
1022.0
1027.0
1022.0
1019.0
1014.0
1014.0
1021.0
1025.0
1031.0
1029.0
1028.0
1032.0
1031.0
1029.0
1027.0
1027.0
1028.0
1033.0
1038.0
1041.0
1043.0
1040.0
1033.0
1031.0
1038.0
1040.0
1040.0
1040.0
1039.0
1040.0
1041.0
1043.0
1045.0
1042.0
1040.0
1039.0
1039.0
1037.0
1034.0
1029.0
1025.0
1022.0
1024.0
1019.0
1014.0
1012.0
1010.0
1010.0
1009.0
1010.0
1006.0
1000.0
999.0
998.0
996.0
993.0
990.0
