# Simple Text Format
# Sampling Rate (Hz):= 360.00
# Resolution:= 12
# Labels:= ECG
933.0
934.0
934.0
933.0
930.0
929.0
930.0
933.0
935.0
931.0
930.0
931.0
931.0
935.0
935.0
934.0
934.0
931.0
935.0
935.0
937.0
935.0
932.0
930.0
933.0
935.0
936.0
932.0
930.0
928.0
932.0
933.0
932.0
932.0
930.0
931.0
932.0
932.0
931.0
930.0
929.0
927.0
927.0
930.0
929.0
928.0
926.0
924.0
923.0
925.0
924.0
922.0
922.0
923.0
923.0
926.0
924.0
923.0
924.0
924.0
930.0
932.0
932.0
935.0
936.0
937.0
941.0
945.0
949.0
950.0
949.0
949.0
953.0
956.0
957.0
962.0
958.0
957.0
959.0
961.0
966.0
963.0
961.0
960.0
961.0
965.0
964.0
964.0
961.0
960.0
962.0
963.0
965.0
965.0
964.0
962.0
963.0
964.0
965.0
964.0
962.0
961.0
964.0
966.0
963.0
966.0
961.0
960.0
960.0
962.0
963.0
962.0
957.0
959.0
961.0
960.0
962.0
961.0
960.0
960.0
960.0
963.0
965.0
962.0
960.0
959.0
960.0
962.0
965.0
962.0
958.0
960.0
961.0
962.0
964.0
963.0
961.0
957.0
958.0
960.0
961.0
958.0
961.0
959.0
960.0
963.0
964.0
962.0
960.0
957.0
963.0
964.0
965.0
962.0
961.0
961.0
963.0
963.0
964.0
964.0
962.0
961.0
962.0
962.0
964.0
963.0
963.0
962.0
964.0
967.0
968.0
967.0
967.0
970.0
973.0
977.0
979.0
979.0
979.0
981.0
981.0
984.0
988.0
987.0
988.0
986.0
986.0
988.0
992.0
990.0
986.0
984.0
986.0
986.0
985.0
985.0
983.0
983.0
985.0
984.0
983.0
986.0
990.0
989.0
987.0
982.0
980.0
974.0
970.0
966.0
965.0
964.0
967.0
962.0
960.0
959.0
961.0
962.0
960.0
960.0
959.0
955.0
959.0
962.0
960.0
960.0
959.0
960.0
959.0
961.0
963.0
959.0
957.0
953.0
948.0
940.0
933.0
926.0
919.0
913.0
920.0
944.0
980.0
1019.0
1061.0
1115.0
1181.0
1233.0
1269.0
1276.0
1245.0
1170.0
1067.0
983.0
939.0
933.0
943.0
951.0
959.0
961.0
958.0
956.0
954.0
954.0
955.0
956.0
956.0
952.0
951.0
950.0
953.0
953.0
953.0
952.0
951.0
951.0
953.0
956.0
954.0
954.0
950.0
949.0
951.0
951.0
952.0
950.0
949.0
949.0
950.0
952.0
950.0
951.0
951.0
951.0
953.0
954.0
955.0
953.0
953.0
951.0
955.0
955.0
956.0
955.0
954.0
953.0
954.0
955.0
954.0
954.0
952.0
951.0
952.0
953.0
954.0
953.0
952.0
951.0
955.0
956.0
956.0
956.0
954.0
954.0
953.0
955.0
955.0
954.0
953.0
952.0
955.0
955.0
955.0
953.0
950.0
950.0
950.0
951.0
949.0
949.0
945.0
946.0
950.0
950.0
950.0
952.0
946.0
947.0
949.0
951.0
953.0
953.0
953.0
954.0
956.0
958.0
965.0
966.0
966.0
967.0
971.0
974.0
977.0
975.0
977.0
975.0
978.0
979.0
979.0
979.0
977.0
976.0
978.0
980.0
981.0
980.0
980.0
977.0
979.0
980.0
980.0
979.0
977.0
975.0
978.0
981.0
979.0
978.0
979.0
978.0
981.0
981.0
983.0
980.0
976.0
976.0
979.0
978.0
978.0
977.0
975.0
973.0
972.0
974.0
974.0
972.0
971.0
970.0
973.0
973.0
971.0
972.0
970.0
968.0
969.0
968.0
971.0
971.0
969.0
967.0
967.0
970.0
970.0
969.0
967.0
967.0
967.0
968.0
967.0
967.0
966.0
964.0
966.0
967.0
969.0
970.0
967.0
966.0
968.0
970.0
970.0
969.0
967.0
965.0
967.0
971.0
973.0
969.0
968.0
965.0
971.0
972.0
972.0
971.0
967.0
968.0
968.0
968.0
970.0
970.0
967.0
966.0
971.0
971.0
971.0
972.0
970.0
970.0
973.0
977.0
979.0
980.0
981.0
982.0
981.0
985.0
986.0
985.0
988.0
987.0
990.0
992.0
993.0
992.0
990.0
988.0
988.0
987.0
986.0
986.0
987.0
986.0
986.0
985.0
987.0
988.0
992.0
989.0
989.0
982.0
980.0
976.0
973.0
970.0
967.0
968.0
966.0
965.0
962.0
960.0
961.0
962.0
963.0
961.0
960.0
958.0
959.0
961.0
958.0
958.0
957.0
954.0
958.0
960.0
961.0
962.0
961.0
960.0
959.0
962.0
961.0
959.0
959.0
956.0
955.0
951.0
944.0
934.0
930.0
924.0
918.0
915.0
922.0
940.0
969.0
1001.0
1042.0
1091.0
1151.0
1207.0
1244.0
1256.0
1249.0
1200.0
1114.0
1019.0
959.0
941.0
942.0
954.0
958.0
961.0
958.0
956.0
957.0
958.0
958.0
957.0
954.0
949.0
954.0
952.0
954.0
952.0
950.0
951.0
950.0
953.0
955.0
954.0
954.0
950.0
953.0
953.0
954.0
953.0
953.0
953.0
956.0
956.0
957.0
953.0
954.0
953.0
954.0
954.0
957.0
956.0
955.0
954.0
955.0
957.0
955.0
953.0
953.0
951.0
954.0
955.0
957.0
956.0
954.0
953.0
958.0
957.0
957.0
958.0
955.0
954.0
957.0
958.0
956.0
955.0
954.0
957.0
955.0
959.0
959.0
955.0
955.0
953.0
955.0
958.0
956.0
955.0
954.0
952.0
954.0
954.0
954.0
954.0
951.0
951.0
952.0
953.0
951.0
951.0
951.0
954.0
954.0
955.0
956.0
955.0
952.0
952.0
953.0
952.0
952.0
953.0
954.0
952.0
954.0
958.0
957.0
959.0
959.0
960.0
965.0
967.0
968.0
969.0
971.0
971.0
975.0
976.0
979.0
977.0
978.0
977.0
980.0
981.0
983.0
981.0
979.0
976.0
980.0
981.0
979.0
979.0
976.0
975.0
976.0
976.0
980.0
979.0
977.0
976.0
977.0
978.0
980.0
980.0
977.0
976.0
975.0
980.0
979.0
978.0
975.0
974.0
975.0
977.0
976.0
976.0
973.0
970.0
972.0
974.0
972.0
971.0
969.0
967.0
969.0
969.0
969.0
969.0
969.0
967.0
969.0
970.0
970.0
969.0
969.0
967.0
968.0
971.0
970.0
968.0
968.0
967.0
970.0
969.0
971.0
971.0
969.0
969.0
969.0
970.0
972.0
968.0
968.0
966.0
966.0
968.0
968.0
969.0
968.0
966.0
970.0
971.0
972.0
971.0
970.0
970.0
969.0
971.0
973.0
971.0
972.0
970.0
972.0
975.0
974.0
973.0
972.0
971.0
974.0
974.0
976.0
973.0
972.0
970.0
973.0
974.0
977.0
978.0
978.0
980.0
983.0
986.0
985.0
987.0
983.0
985.0
987.0
992.0
993.0
994.0
995.0
993.0
995.0
995.0
995.0
992.0
991.0
988.0
991.0
991.0
989.0
987.0
985.0
982.0
990.0
996.0
999.0
994.0
986.0
978.0
978.0
978.0
973.0
973.0
969.0
966.0
964.0
966.0
968.0
966.0
968.0
965.0
969.0
967.0
965.0
964.0
964.0
962.0
962.0
965.0
965.0
965.0
964.0
963.0
964.0
964.0
963.0
962.0
960.0
958.0
959.0
959.0
954.0
944.0
936.0
931.0
924.0
921.0
924.0
943.0
971.0
1003.0
1040.0
1090.0
1145.0
1196.0
1228.0
1238.0
1223.0
1172.0
1086.0
1005.0
954.0
935.0
934.0
942.0
948.0
953.0
958.0
956.0
957.0
958.0
960.0
959.0
956.0
953.0
956.0
958.0
958.0
957.0
953.0
953.0
954.0
954.0
955.0
954.0
952.0
952.0
952.0
956.0
956.0
956.0
955.0
952.0
952.0
956.0
955.0
955.0
955.0
954.0
955.0
954.0
954.0
957.0
956.0
953.0
956.0
957.0
956.0
955.0
955.0
954.0
957.0
953.0
954.0
955.0
953.0
952.0
951.0
951.0
955.0
953.0
954.0
953.0
951.0
954.0
955.0
955.0
952.0
949.0
952.0
954.0
956.0
954.0
955.0
952.0
953.0
954.0
956.0
954.0
951.0
949.0
952.0
949.0
950.0
947.0
945.0
946.0
947.0
948.0
950.0
946.0
943.0
940.0
943.0
944.0
946.0
945.0
945.0
945.0
947.0
951.0
950.0
949.0
950.0
949.0
955.0
955.0
958.0
956.0
954.0
957.0
957.0
959.0
963.0
964.0
961.0
963.0
965.0
969.0
968.0
970.0
967.0
968.0
971.0
971.0
971.0
970.0
970.0
968.0
969.0
969.0
968.0
967.0
966.0
962.0
963.0
968.0
967.0
965.0
963.0
961.0
962.0
963.0
966.0
964.0
964.0
963.0
964.0
964.0
964.0
963.0
962.0
963.0
962.0
966.0
967.0
963.0
963.0
960.0
960.0
960.0
962.0
960.0
958.0
958.0
957.0
959.0
959.0
957.0
957.0
955.0
958.0
959.0
960.0
959.0
957.0
953.0
954.0
958.0
958.0
957.0
955.0
955.0
955.0
957.0
959.0
957.0
957.0
956.0
955.0
958.0
959.0
957.0
953.0
955.0
956.0
958.0
956.0
956.0
955.0
957.0
958.0
959.0
959.0
958.0
957.0
958.0
959.0
959.0
960.0
958.0
957.0
955.0
960.0
961.0
966.0
967.0
967.0
967.0
968.0
971.0
971.0
969.0
971.0
973.0
975.0
978.0
980.0
983.0
982.0
979.0
977.0
980.0
978.0
975.0
973.0
971.0
975.0
975.0
975.0
975.0
975.0
976.0
975.0
973.0
969.0
965.0
961.0
956.0
954.0
955.0
953.0
954.0
952.0
952.0
954.0
956.0
956.0
954.0
949.0
950.0
951.0
952.0
952.0
952.0
950.0
948.0
949.0
949.0
950.0
948.0
946.0
946.0
947.0
948.0
949.0
950.0
946.0
945.0
946.0
941.0
938.0
929.0
922.0
917.0
909.0
909.0
922.0
943.0
969.0
999.0
1037.0
1081.0
1132.0
1178.0
1208.0
1216.0
1196.0
1135.0
1055.0
985.0
942.0
925.0
922.0
924.0
929.0
936.0
936.0
936.0
941.0
945.0
945.0
945.0
943.0
940.0
941.0
941.0
940.0
943.0
942.0
940.0
940.0
941.0
941.0
939.0
935.0
936.0
939.0
939.0
939.0
942.0
940.0
938.0
940.0
940.0
937.0
936.0
935.0
936.0
939.0
945.0
944.0
942.0
938.0
935.0
937.0
938.0
939.0
941.0
940.0
938.0
938.0
939.0
937.0
933.0
933.0
934.0
935.0
937.0
937.0
935.0
934.0
936.0
937.0
939.0
939.0
941.0
940.0
937.0
938.0
940.0
941.0
942.0
939.0
939.0
942.0
944.0
942.0
942.0
939.0
936.0
935.0
935.0
936.0
933.0
928.0
925.0
924.0
926.0
922.0
924.0
920.0
923.0
924.0
925.0
926.0
926.0
925.0
922.0
929.0
929.0
928.0
931.0
932.0
937.0
939.0
941.0
945.0
949.0
950.0
950.0
951.0
954.0
956.0
958.0
958.0
956.0
959.0
958.0
961.0
960.0
958.0
957.0
957.0
960.0
961.0
962.0
961.0
959.0
960.0
962.0
962.0
960.0
958.0
956.0
960.0
961.0
963.0
960.0
958.0
955.0
957.0
957.0
957.0
956.0
954.0
953.0
954.0
956.0
958.0
957.0
954.0
953.0
955.0
956.0
956.0
956.0
953.0
954.0
955.0
956.0
957.0
954.0
954.0
952.0
951.0
955.0
953.0
955.0
953.0
951.0
953.0
954.0
953.0
951.0
954.0
951.0
953.0
955.0
956.0
955.0
954.0
955.0
955.0
957.0
959.0
957.0
955.0
953.0
958.0
959.0
959.0
956.0
955.0
954.0
955.0
956.0
956.0
953.0
953.0
954.0
954.0
956.0
956.0
958.0
956.0
950.0
957.0
962.0
964.0
965.0
965.0
967.0
970.0
971.0
971.0
973.0
975.0
976.0
975.0
979.0
983.0
982.0
978.0
978.0
977.0
978.0
978.0
975.0
973.0
971.0
972.0
975.0
971.0
973.0
972.0
975.0
980.0
981.0
976.0
968.0
965.0
962.0
959.0
956.0
958.0
954.0
955.0
953.0
951.0
953.0
956.0
954.0
950.0
950.0
949.0
952.0
954.0
953.0
951.0
950.0
951.0
954.0
954.0
954.0
954.0
951.0
952.0
955.0
954.0
952.0
943.0
937.0
931.0
931.0
930.0
929.0
924.0
913.0
907.0
907.0
924.0
949.0
980.0
1010.0
1056.0
1111.0
1167.0
1213.0
1235.0
1229.0
1180.0
1094.0
1006.0
941.0
923.0
928.0
939.0
947.0
951.0
950.0
947.0
948.0
950.0
951.0
948.0
948.0
946.0
946.0
945.0
946.0
946.0
948.0
945.0
943.0
946.0
946.0
947.0
946.0
946.0
945.0
944.0
947.0
948.0
948.0
950.0
944.0
947.0
949.0
948.0
948.0
948.0
945.0
946.0
948.0
948.0
947.0
946.0
945.0
943.0
946.0
946.0
948.0
947.0
946.0
947.0
949.0
948.0
946.0
949.0
946.0
947.0
948.0
949.0
947.0
949.0
947.0
946.0
946.0
946.0
947.0
945.0
942.0
945.0
946.0
944.0
945.0
942.0
940.0
942.0
943.0
943.0
942.0
940.0
938.0
938.0
940.0
942.0
941.0
938.0
936.0
936.0
941.0
942.0
942.0
940.0
940.0
943.0
947.0
949.0
955.0
954.0
955.0
958.0
962.0
962.0
964.0
965.0
964.0
968.0
966.0
969.0
971.0
969.0
970.0
971.0
972.0
974.0
975.0
973.0
970.0
971.0
973.0
972.0
972.0
970.0
969.0
969.0
971.0
973.0
972.0
971.0
968.0
971.0
972.0
971.0
973.0
971.0
968.0
971.0
970.0
970.0
970.0
965.0
966.0
965.0
966.0
965.0
966.0
963.0
965.0
965.0
967.0
967.0
965.0
962.0
963.0
963.0
964.0
966.0
966.0
964.0
963.0
962.0
964.0
966.0
964.0
963.0
961.0
963.0
963.0
964.0
962.0
960.0
959.0
962.0
962.0
963.0
961.0
961.0
958.0
962.0
963.0
963.0
964.0
961.0
960.0
964.0
965.0
967.0
965.0
961.0
961.0
963.0
965.0
963.0
965.0
962.0
961.0
964.0
963.0
966.0
964.0
962.0
963.0
964.0
969.0
970.0
970.0
973.0
976.0
976.0
978.0
978.0
979.0
977.0
976.0
981.0
980.0
983.0
985.0
985.0
984.0
984.0
985.0
985.0
983.0
980.0
978.0
981.0
981.0
979.0
977.0
975.0
978.0
984.0
985.0
980.0
972.0
968.0
963.0
961.0
963.0
962.0
960.0
957.0
956.0
955.0
958.0
960.0
959.0
959.0
955.0
956.0
959.0
957.0
958.0
958.0
956.0
956.0
955.0
955.0
954.0
953.0
952.0
952.0
953.0
953.0
952.0
945.0
933.0
928.0
925.0
921.0
910.0
912.0
925.0
956.0
995.0
1037.0
1086.0
1141.0
1199.0
1241.0
1258.0
1239.0
1171.0
1072.0
982.0
934.0
928.0
942.0
953.0
955.0
951.0
950.0
950.0
950.0
950.0
945.0
944.0
943.0
946.0
946.0
947.0
943.0
941.0
940.0
943.0
944.0
944.0
941.0
941.0
941.0
942.0
942.0
943.0
940.0
941.0
942.0
943.0
944.0
944.0
944.0
942.0
942.0
942.0
946.0
946.0
944.0
942.0
944.0
948.0
947.0
947.0
944.0
940.0
942.0
944.0
943.0
944.0
942.0
941.0
942.0
943.0
944.0
945.0
943.0
943.0
943.0
944.0
948.0
945.0
943.0
943.0
944.0
945.0
945.0
945.0
945.0
942.0
941.0
941.0
942.0
940.0
939.0
939.0
937.0
938.0
942.0
941.0
939.0
936.0
938.0
938.0
940.0
940.0
940.0
940.0
941.0
942.0
944.0
943.0
943.0
941.0
945.0
948.0
951.0
953.0
952.0
952.0
955.0
957.0
960.0
962.0
960.0
960.0
963.0
964.0
966.0
964.0
964.0
964.0
967.0
968.0
967.0
967.0
966.0
965.0
965.0
967.0
968.0
967.0
965.0
964.0
963.0
964.0
965.0
964.0
962.0
960.0
961.0
962.0
962.0
960.0
961.0
958.0
961.0
961.0
963.0
959.0
959.0
957.0
957.0
961.0
961.0
958.0
958.0
954.0
957.0
957.0
958.0
957.0
955.0
954.0
955.0
955.0
955.0
954.0
953.0
950.0
952.0
954.0
955.0
955.0
954.0
953.0
954.0
954.0
957.0
956.0
955.0
954.0
955.0
955.0
957.0
957.0
954.0
953.0
952.0
956.0
956.0
956.0
956.0
953.0
955.0
957.0
957.0
957.0
956.0
952.0
954.0
957.0
960.0
958.0
957.0
954.0
960.0
963.0
965.0
966.0
967.0
967.0
969.0
973.0
973.0
975.0
973.0
971.0
974.0
976.0
979.0
979.0
980.0
978.0
979.0
981.0
981.0
977.0
973.0
971.0
972.0
974.0
974.0
971.0
972.0
972.0
979.0
980.0
977.0
972.0
968.0
964.0
961.0
959.0
960.0
957.0
956.0
954.0
955.0
956.0
958.0
955.0
951.0
948.0
950.0
952.0
953.0
951.0
951.0
948.0
949.0
953.0
951.0
950.0
946.0
949.0
949.0
948.0
949.0
943.0
933.0
924.0
923.0
920.0
917.0
906.0
897.0
896.0
906.0
929.0
956.0
985.0
1017.0
1057.0
1114.0
1172.0
1216.0
1236.0
1228.0
1177.0
1093.0
1006.0
947.0
928.0
929.0
938.0
948.0
950.0
951.0
946.0
946.0
945.0
944.0
945.0
946.0
945.0
945.0
941.0
939.0
943.0
944.0
946.0
944.0
942.0
940.0
943.0
944.0
945.0
944.0
942.0
943.0
942.0
946.0
945.0
942.0
945.0
944.0
943.0
944.0
947.0
944.0
940.0
941.0
943.0
945.0
944.0
943.0
941.0
945.0
946.0
946.0
944.0
945.0
945.0
945.0
947.0
948.0
947.0
947.0
947.0
947.0
947.0
946.0
948.0
945.0
943.0
946.0
947.0
948.0
945.0
944.0
944.0
943.0
945.0
944.0
945.0
942.0
939.0
941.0
944.0
942.0
943.0
940.0
939.0
941.0
941.0
943.0
942.0
939.0
934.0
938.0
939.0
943.0
942.0
944.0
938.0
938.0
943.0
944.0
946.0
946.0
945.0
945.0
945.0
947.0
948.0
948.0
947.0
950.0
951.0
957.0
956.0
958.0
952.0
955.0
959.0
961.0
959.0
959.0
959.0
961.0
963.0
965.0
963.0
960.0
956.0
955.0
957.0
961.0
961.0
962.0
959.0
956.0
957.0
957.0
958.0
955.0
954.0
955.0
956.0
957.0
955.0
955.0
955.0
954.0
954.0
953.0
953.0
952.0
950.0
951.0
953.0
954.0
954.0
949.0
948.0
949.0
948.0
948.0
943.0
943.0
942.0
943.0
945.0
948.0
945.0
945.0
944.0
946.0
945.0
947.0
945.0
945.0
945.0
945.0
949.0
949.0
946.0
941.0
944.0
941.0
946.0
945.0
945.0
943.0
944.0
946.0
945.0
947.0
946.0
944.0
941.0
944.0
948.0
950.0
951.0
950.0
948.0
949.0
949.0
949.0
949.0
949.0
947.0
947.0
949.0
957.0
959.0
960.0
959.0
958.0
960.0
961.0
962.0
962.0
962.0
965.0
967.0
972.0
971.0
969.0
964.0
965.0
964.0
966.0
969.0
968.0
967.0
961.0
961.0
962.0
964.0
967.0
968.0
968.0
963.0
960.0
953.0
950.0
943.0
943.0
944.0
944.0
944.0
943.0
942.0
942.0
944.0
944.0
944.0
940.0
938.0
938.0
941.0
942.0
942.0
940.0
939.0
939.0
939.0
942.0
942.0
938.0
934.0
933.0
930.0
930.0
925.0
919.0
913.0
907.0
896.0
894.0
902.0
919.0
938.0
963.0
991.0
1026.0
1073.0
1124.0
1167.0
1200.0
1211.0
1192.0
1131.0
1049.0
975.0
932.0
918.0
920.0
926.0
932.0
931.0
933.0
935.0
935.0
938.0
936.0
934.0
933.0
932.0
934.0
933.0
932.0
931.0
932.0
934.0
937.0
938.0
936.0
934.0
935.0
937.0
939.0
938.0
939.0
935.0
935.0
935.0
934.0
936.0
936.0
934.0
934.0
935.0
933.0
930.0
931.0
932.0
934.0
938.0
938.0
938.0
937.0
933.0
933.0
935.0
934.0
934.0
931.0
932.0
935.0
938.0
940.0
940.0
939.0
937.0
937.0
934.0
933.0
935.0
935.0
932.0
933.0
936.0
941.0
938.0
936.0
932.0
933.0
937.0
941.0
938.0
936.0
933.0
928.0
930.0
930.0
930.0
930.0
926.0
928.0
928.0
927.0
926.0
922.0
920.0
922.0
922.0
925.0
924.0
922.0
921.0
924.0
929.0
932.0
931.0
932.0
932.0
935.0
937.0
938.0
940.0
944.0
945.0
948.0
951.0
951.0
953.0
952.0
951.0
955.0
958.0
962.0
962.0
957.0
955.0
956.0
956.0
959.0
957.0
959.0
958.0
959.0
961.0
964.0
963.0
960.0
957.0
958.0
959.0
960.0
959.0
958.0
958.0
955.0
957.0
959.0
960.0
960.0
957.0
956.0
957.0
958.0
957.0
953.0
954.0
955.0
955.0
957.0
956.0
955.0
952.0
952.0
952.0
954.0
954.0
954.0
953.0
953.0
957.0
954.0
956.0
953.0
951.0
953.0
952.0
954.0
953.0
952.0
949.0
950.0
950.0
953.0
952.0
952.0
949.0
952.0
955.0
955.0
955.0
954.0
952.0
953.0
956.0
955.0
958.0
954.0
955.0
952.0
955.0
956.0
955.0
956.0
954.0
955.0
955.0
959.0
957.0
955.0
955.0
955.0
958.0
958.0
959.0
961.0
958.0
962.0
966.0
969.0
969.0
968.0
966.0
971.0
974.0
978.0
976.0
978.0
977.0
977.0
978.0
979.0
976.0
972.0
971.0
973.0
972.0
971.0
972.0
972.0
973.0
977.0
978.0
973.0
970.0
962.0
960.0
958.0
958.0
958.0
954.0
954.0
950.0
953.0
952.0
953.0
954.0
952.0
951.0
951.0
953.0
951.0
952.0
949.0
948.0
950.0
950.0
952.0
952.0
953.0
948.0
951.0
952.0
948.0
940.0
933.0
928.0
922.0
915.0
914.0
924.0
941.0
964.0
987.0
1012.0
1033.0
1056.0
1083.0
1119.0
1161.0
1198.0
1224.0
1241.0
1231.0
1185.0
1097.0
1011.0
955.0
934.0
933.0
935.0
945.0
952.0
953.0
951.0
950.0
948.0
951.0
954.0
953.0
953.0
952.0
948.0
949.0
951.0
953.0
953.0
952.0
950.0
949.0
952.0
952.0
952.0
949.0
946.0
948.0
949.0
952.0
949.0
948.0
947.0
951.0
950.0
952.0
953.0
953.0
950.0
949.0
951.0
953.0
950.0
950.0
948.0
951.0
951.0
953.0
952.0
952.0
949.0
946.0
949.0
952.0
949.0
947.0
947.0
947.0
951.0
952.0
952.0
951.0
948.0
950.0
952.0
954.0
951.0
951.0
950.0
952.0
952.0
955.0
953.0
949.0
947.0
948.0
946.0
948.0
945.0
945.0
942.0
942.0
944.0
946.0
945.0
943.0
942.0
940.0
941.0
944.0
944.0
942.0
939.0
941.0
941.0
944.0
943.0
943.0
942.0
944.0
949.0
952.0
954.0
955.0
956.0
958.0
963.0
966.0
966.0
966.0
962.0
966.0
971.0
973.0
974.0
974.0
972.0
973.0
977.0
977.0
977.0
976.0
975.0
978.0
980.0
980.0
980.0
976.0
976.0
977.0
979.0
980.0
981.0
978.0
976.0
979.0
979.0
978.0
977.0
975.0
974.0
974.0
976.0
977.0
976.0
974.0
972.0
974.0
975.0
976.0
976.0
978.0
973.0
976.0
976.0
978.0
975.0
976.0
976.0
974.0
975.0
975.0
976.0
974.0
974.0
973.0
973.0
975.0
975.0
970.0
970.0
971.0
972.0
973.0
971.0
975.0
970.0
972.0
976.0
974.0
976.0
974.0
974.0
975.0
975.0
975.0
976.0
976.0
970.0
972.0
974.0
975.0
974.0
971.0
970.0
972.0
970.0
974.0
974.0
974.0
971.0
972.0
974.0
975.0
975.0
973.0
972.0
973.0
977.0
976.0
977.0
975.0
973.0
975.0
977.0
979.0
981.0
982.0
981.0
987.0
988.0
988.0
989.0
988.0
987.0
985.0
988.0
992.0
994.0
995.0
993.0
996.0
998.0
997.0
997.0
994.0
990.0
991.0
989.0
990.0
991.0
990.0
985.0
987.0
990.0
995.0
998.0
998.0
992.0
985.0
986.0
984.0
980.0
976.0
972.0
970.0
969.0
969.0
972.0
969.0
964.0
964.0
965.0
965.0
965.0
966.0
964.0
966.0
967.0
968.0
967.0
965.0
963.0
965.0
966.0
968.0
967.0
962.0
958.0
951.0
944.0
937.0
934.0
928.0
920.0
919.0
935.0
966.0
1003.0
1040.0
1082.0
1141.0
1202.0
1248.0
1272.0
1272.0
1233.0
1148.0
1049.0
976.0
942.0
939.0
946.0
952.0
958.0
966.0
967.0
965.0
960.0
959.0
961.0
962.0
961.0
959.0
956.0
955.0
957.0
958.0
958.0
957.0
954.0
954.0
953.0
958.0
956.0
956.0
955.0
955.0
955.0
957.0
958.0
956.0
955.0
956.0
957.0
959.0
958.0
955.0
953.0
955.0
958.0
961.0
959.0
955.0
956.0
956.0
956.0
957.0
957.0
956.0
954.0
955.0
957.0
958.0
957.0
957.0
955.0
955.0
958.0
959.0
958.0
958.0
956.0
957.0
957.0
958.0
956.0
957.0
955.0
955.0
955.0
958.0
958.0
957.0
953.0
956.0
959.0
957.0
958.0
955.0
954.0
955.0
954.0
954.0
956.0
953.0
952.0
955.0
956.0
957.0
957.0
954.0
953.0
952.0
951.0
954.0
952.0
951.0
950.0
952.0
953.0
956.0
959.0
956.0
958.0
962.0
965.0
969.0
969.0
969.0
969.0
971.0
972.0
975.0
976.0
975.0
975.0
977.0
979.0
979.0
982.0
979.0
978.0
977.0
978.0
980.0
979.0
977.0
976.0
976.0
979.0
977.0
979.0
978.0
974.0
976.0
977.0
979.0
978.0
975.0
973.0
975.0
977.0
978.0
977.0
977.0
975.0
975.0
977.0
975.0
976.0
976.0
972.0
973.0
973.0
972.0
971.0
972.0
969.0
968.0
970.0
974.0
973.0
971.0
967.0
967.0
969.0
972.0
969.0
967.0
965.0
966.0
966.0
968.0
968.0
968.0
965.0
967.0
967.0
968.0
966.0
963.0
962.0
960.0
960.0
964.0
964.0
962.0
959.0
963.0
964.0
967.0
967.0
964.0
962.0
963.0
967.0
967.0
965.0
962.0
965.0
965.0
966.0
966.0
967.0
966.0
964.0
964.0
967.0
968.0
968.0
965.0
963.0
965.0
965.0
967.0
969.0
971.0
968.0
973.0
978.0
979.0
978.0
979.0
979.0
983.0
981.0
985.0
986.0
988.0
985.0
985.0
987.0
988.0
987.0
985.0
982.0
982.0
982.0
985.0
986.0
984.0
980.0
979.0
977.0
981.0
983.0
987.0
986.0
986.0
980.0
977.0
974.0
971.0
967.0
964.0
964.0
965.0
961.0
960.0
958.0
960.0
961.0
962.0
962.0
960.0
958.0
958.0
960.0
963.0
962.0
956.0
955.0
958.0
959.0
961.0
961.0
958.0
957.0
957.0
958.0
956.0
947.0
937.0
929.0
926.0
920.0
917.0
918.0
930.0
957.0
990.0
1030.0
1071.0
1123.0
1178.0
1217.0
1243.0
1248.0
1222.0
1158.0
1076.0
1004.0
954.0
934.0
927.0
928.0
931.0
934.0
941.0
951.0
956.0
955.0
953.0
948.0
949.0
951.0
954.0
952.0
952.0
949.0
948.0
952.0
951.0
951.0
948.0
946.0
949.0
950.0
950.0
952.0
952.0
948.0
948.0
950.0
952.0
949.0
950.0
945.0
947.0
949.0
950.0
952.0
950.0
947.0
951.0
951.0
954.0
952.0
950.0
949.0
952.0
952.0
952.0
951.0
951.0
948.0
951.0
952.0
952.0
953.0
950.0
949.0
952.0
952.0
953.0
953.0
952.0
950.0
952.0
953.0
954.0
953.0
952.0
950.0
950.0
951.0
952.0
953.0
951.0
948.0
948.0
950.0
953.0
950.0
949.0
948.0
948.0
948.0
950.0
947.0
946.0
942.0
945.0
946.0
947.0
947.0
947.0
943.0
944.0
946.0
947.0
947.0
946.0
945.0
946.0
950.0
951.0
951.0
951.0
950.0
957.0
958.0
963.0
964.0
964.0
964.0
965.0
967.0
972.0
971.0
970.0
967.0
968.0
969.0
972.0
971.0
970.0
967.0
968.0
969.0
972.0
973.0
970.0
970.0
968.0
970.0
971.0
971.0
969.0
968.0
969.0
969.0
970.0
967.0
968.0
966.0
966.0
969.0
969.0
968.0
967.0
962.0
964.0
966.0
965.0
965.0
961.0
960.0
962.0
964.0
965.0
967.0
965.0
965.0
968.0
973.0
975.0
976.0
975.0
975.0
978.0
979.0
980.0
978.0
980.0
979.0
977.0
977.0
981.0
983.0
984.0
983.0
980.0
977.0
978.0
974.0
972.0
967.0
965.0
965.0
966.0
965.0
963.0
959.0
957.0
957.0
958.0
956.0
955.0
954.0
951.0
955.0
954.0
956.0
953.0
953.0
952.0
954.0
954.0
952.0
952.0
948.0
948.0
952.0
952.0
952.0
952.0
949.0
949.0
950.0
953.0
954.0
953.0
948.0
949.0
947.0
939.0
929.0
922.0
913.0
908.0
909.0
924.0
955.0
990.0
1026.0
1070.0
1124.0
1174.0
1210.0
1225.0
1213.0
1168.0
1093.0
1011.0
953.0
930.0
929.0
939.0
946.0
950.0
949.0
948.0
945.0
948.0
949.0
949.0
947.0
944.0
940.0
942.0
949.0
947.0
944.0
945.0
942.0
941.0
945.0
945.0
946.0
943.0
941.0
941.0
941.0
943.0
941.0
941.0
938.0
939.0
938.0
940.0
939.0
939.0
939.0
939.0
941.0
944.0
944.0
944.0
940.0
943.0
942.0
942.0
942.0
938.0
936.0
936.0
937.0
941.0
937.0
935.0
935.0
934.0
939.0
941.0
940.0
939.0
936.0
934.0
937.0
942.0
941.0
941.0
939.0
940.0
940.0
943.0
943.0
940.0
937.0
939.0
939.0
939.0
937.0
933.0
933.0
933.0
933.0
933.0
932.0
931.0
930.0
930.0
931.0
930.0
927.0
927.0
927.0
928.0
930.0
934.0
935.0
932.0
929.0
932.0
936.0
941.0
944.0
944.0
943.0
946.0
949.0
949.0
950.0
952.0
950.0
951.0
954.0
955.0
953.0
950.0
949.0
951.0
952.0
953.0
951.0
949.0
950.0
953.0
955.0
957.0
954.0
949.0
948.0
949.0
950.0
953.0
950.0
949.0
946.0
949.0
949.0
946.0
945.0
943.0
944.0
944.0
948.0
950.0
948.0
945.0
942.0
