# Simple Text Format
# Sampling Rate (Hz):= 360.00
# Resolution:= 12
# Labels:= ECG
965.0
963.0
964.0
962.0
961.0
959.0
957.0
954.0
951.0
948.0
945.0
941.0
942.0
940.0
939.0
939.0
940.0
944.0
944.0
941.0
941.0
939.0
937.0
937.0
936.0
938.0
941.0
943.0
943.0
944.0
941.0
940.0
940.0
942.0
940.0
946.0
952.0
965.0
981.0
1002.0
1024.0
1052.0
1078.0
1097.0
1106.0
1098.0
1078.0
1048.0
1019.0
992.0
968.0
936.0
906.0
881.0
868.0
864.0
867.0
871.0
874.0
880.0
885.0
892.0
901.0
906.0
911.0
917.0
917.0
918.0
917.0
914.0
913.0
911.0
910.0
910.0
912.0
913.0
914.0
915.0
913.0
910.0
910.0
909.0
907.0
908.0
907.0
909.0
909.0
908.0
906.0
910.0
909.0
906.0
903.0
901.0
896.0
896.0
896.0
896.0
896.0
899.0
898.0
900.0
901.0
899.0
896.0
894.0
891.0
888.0
887.0
887.0
889.0
888.0
888.0
888.0
888.0
887.0
885.0
885.0
883.0
882.0
881.0
879.0
880.0
882.0
881.0
882.0
881.0
879.0
877.0
877.0
876.0
872.0
872.0
876.0
875.0
880.0
882.0
886.0
887.0
887.0
890.0
891.0
892.0
893.0
897.0
899.0
902.0
907.0
911.0
917.0
919.0
922.0
925.0
929.0
930.0
931.0
933.0
935.0
938.0
944.0
943.0
946.0
944.0
943.0
944.0
942.0
940.0
940.0
935.0
938.0
938.0
940.0
938.0
943.0
940.0
939.0
937.0
938.0
933.0
933.0
931.0
932.0
931.0
933.0
936.0
934.0
936.0
935.0
932.0
929.0
927.0
925.0
925.0
923.0
925.0
925.0
925.0
926.0
928.0
927.0
924.0
922.0
923.0
921.0
919.0
922.0
922.0
924.0
924.0
920.0
918.0
916.0
916.0
917.0
915.0
919.0
920.0
921.0
922.0
923.0
924.0
921.0
919.0
918.0
919.0
916.0
916.0
914.0
913.0
914.0
916.0
914.0
915.0
916.0
915.0
915.0
917.0
919.0
923.0
925.0
924.0
925.0
927.0
930.0
929.0
930.0
930.0
932.0
930.0
930.0
932.0
928.0
933.0
932.0
938.0
937.0
938.0
940.0
937.0
936.0
933.0
930.0
926.0
924.0
921.0
919.0
918.0
917.0
916.0
916.0
913.0
911.0
907.0
904.0
900.0
900.0
898.0
897.0
899.0
900.0
902.0
903.0
904.0
906.0
904.0
903.0
903.0
898.0
899.0
901.0
903.0
905.0
906.0
907.0
909.0
909.0
915.0
930.0
946.0
968.0
991.0
1019.0
1043.0
1059.0
1064.0
1058.0
1034.0
1005.0
974.0
945.0
911.0
877.0
841.0
812.0
801.0
802.0
810.0
821.0
825.0
828.0
831.0
836.0
843.0
849.0
857.0
866.0
874.0
876.0
879.0
880.0
875.0
871.0
870.0
868.0
868.0
867.0
865.0
867.0
865.0
864.0
866.0
867.0
867.0
868.0
866.0
866.0
866.0
863.0
862.0
860.0
864.0
867.0
867.0
868.0
865.0
864.0
864.0
861.0
859.0
857.0
857.0
855.0
855.0
853.0
853.0
854.0
856.0
854.0
855.0
852.0
851.0
851.0
848.0
847.0
848.0
848.0
846.0
848.0
846.0
845.0
845.0
843.0
841.0
841.0
839.0
838.0
841.0
842.0
844.0
846.0
846.0
844.0
840.0
842.0
837.0
839.0
842.0
845.0
846.0
851.0
851.0
854.0
855.0
856.0
859.0
862.0
864.0
868.0
871.0
873.0
877.0
886.0
892.0
897.0
900.0
901.0
904.0
905.0
905.0
906.0
904.0
909.0
910.0
910.0
910.0
916.0
915.0
912.0
912.0
909.0
908.0
904.0
903.0
901.0
902.0
905.0
906.0
910.0
909.0
908.0
906.0
904.0
902.0
898.0
896.0
898.0
897.0
903.0
904.0
903.0
901.0
900.0
898.0
896.0
894.0
897.0
898.0
898.0
899.0
901.0
902.0
902.0
901.0
899.0
896.0
897.0
896.0
894.0
896.0
896.0
897.0
897.0
898.0
901.0
900.0
899.0
898.0
898.0
899.0
896.0
896.0
897.0
897.0
896.0
897.0
898.0
896.0
895.0
891.0
895.0
897.0
896.0
896.0
896.0
896.0
895.0
897.0
901.0
904.0
904.0
907.0
905.0
906.0
904.0
905.0
908.0
908.0
911.0
915.0
918.0
921.0
921.0
922.0
917.0
913.0
911.0
910.0
909.0
907.0
907.0
908.0
909.0
906.0
903.0
902.0
897.0
892.0
887.0
885.0
887.0
885.0
886.0
886.0
888.0
887.0
888.0
886.0
886.0
886.0
887.0
885.0
885.0
887.0
888.0
890.0
889.0
889.0
887.0
884.0
886.0
888.0
890.0
894.0
901.0
914.0
931.0
949.0
972.0
996.0
1020.0
1042.0
1056.0
1055.0
1044.0
1017.0
981.0
944.0
905.0
864.0
821.0
791.0
781.0
784.0
792.0
799.0
807.0
815.0
825.0
837.0
850.0
858.0
867.0
871.0
870.0
869.0
864.0
864.0
864.0
863.0
865.0
866.0
867.0
868.0
870.0
871.0
867.0
867.0
865.0
864.0
864.0
861.0
860.0
861.0
864.0
863.0
864.0
863.0
865.0
865.0
865.0
864.0
864.0
862.0
860.0
862.0
860.0
859.0
860.0
859.0
861.0
858.0
853.0
852.0
850.0
849.0
851.0
852.0
853.0
854.0
857.0
857.0
856.0
854.0
854.0
853.0
849.0
849.0
848.0
847.0
845.0
847.0
849.0
846.0
847.0
848.0
844.0
844.0
842.0
841.0
845.0
845.0
845.0
849.0
848.0
850.0
852.0
852.0
850.0
851.0
852.0
853.0
855.0
861.0
863.0
869.0
874.0
877.0
879.0
881.0
885.0
887.0
887.0
893.0
896.0
900.0
905.0
911.0
914.0
918.0
917.0
918.0
918.0
917.0
913.0
912.0
915.0
916.0
919.0
921.0
922.0
922.0
920.0
920.0
918.0
917.0
913.0
912.0
912.0
913.0
914.0
917.0
918.0
916.0
915.0
916.0
913.0
914.0
911.0
913.0
912.0
912.0
915.0
915.0
916.0
916.0
915.0
913.0
910.0
909.0
907.0
908.0
907.0
908.0
907.0
910.0
911.0
911.0
911.0
908.0
908.0
904.0
905.0
904.0
907.0
907.0
909.0
907.0
908.0
910.0
909.0
909.0
908.0
908.0
906.0
906.0
905.0
907.0
907.0
907.0
906.0
910.0
907.0
906.0
907.0
906.0
903.0
904.0
904.0
908.0
907.0
906.0
913.0
913.0
913.0
912.0
911.0
910.0
911.0
912.0
913.0
913.0
917.0
921.0
925.0
925.0
925.0
925.0
924.0
921.0
918.0
923.0
923.0
924.0
927.0
929.0
927.0
926.0
924.0
922.0
921.0
918.0
914.0
914.0
912.0
910.0
908.0
907.0
905.0
903.0
900.0
898.0
895.0
895.0
894.0
893.0
890.0
894.0
895.0
895.0
897.0
897.0
896.0
895.0
893.0
894.0
892.0
891.0
891.0
893.0
893.0
898.0
899.0
903.0
912.0
922.0
937.0
959.0
983.0
1007.0
1033.0
1053.0
1064.0
1060.0
1042.0
1016.0
985.0
955.0
921.0
885.0
851.0
820.0
800.0
795.0
798.0
803.0
815.0
824.0
837.0
846.0
853.0
859.0
861.0
864.0
868.0
873.0
872.0
873.0
874.0
876.0
875.0
872.0
872.0
871.0
871.0
870.0
871.0
869.0
872.0
873.0
872.0
871.0
871.0
870.0
869.0
867.0
864.0
866.0
866.0
867.0
866.0
866.0
865.0
865.0
864.0
862.0
860.0
859.0
858.0
858.0
856.0
855.0
856.0
857.0
857.0
857.0
856.0
854.0
851.0
851.0
848.0
846.0
845.0
846.0
847.0
850.0
849.0
847.0
846.0
843.0
840.0
839.0
838.0
836.0
837.0
838.0
838.0
843.0
842.0
842.0
842.0
840.0
839.0
838.0
839.0
841.0
841.0
843.0
845.0
847.0
850.0
854.0
857.0
857.0
860.0
865.0
869.0
870.0
874.0
879.0
886.0
891.0
895.0
901.0
903.0
905.0
905.0
907.0
908.0
909.0
910.0
912.0
914.0
915.0
916.0
916.0
916.0
915.0
912.0
912.0
911.0
909.0
911.0
908.0
911.0
911.0
912.0
911.0
913.0
909.0
908.0
908.0
904.0
901.0
903.0
905.0
905.0
906.0
905.0
906.0
905.0
900.0
901.0
901.0
900.0
899.0
899.0
898.0
899.0
900.0
901.0
902.0
902.0
900.0
898.0
896.0
895.0
897.0
897.0
897.0
898.0
899.0
898.0
899.0
899.0
896.0
895.0
893.0
893.0
894.0
896.0
895.0
897.0
899.0
897.0
899.0
896.0
896.0
894.0
895.0
894.0
893.0
892.0
895.0
894.0
897.0
899.0
898.0
899.0
899.0
898.0
898.0
900.0
901.0
903.0
905.0
908.0
908.0
909.0
912.0
911.0
909.0
910.0
908.0
908.0
908.0
909.0
911.0
913.0
916.0
915.0
917.0
914.0
914.0
907.0
908.0
906.0
903.0
900.0
898.0
899.0
898.0
896.0
896.0
891.0
890.0
887.0
883.0
881.0
880.0
879.0
880.0
880.0
881.0
882.0
878.0
879.0
878.0
878.0
878.0
878.0
876.0
877.0
879.0
877.0
881.0
883.0
883.0
883.0
881.0
888.0
891.0
902.0
915.0
938.0
964.0
993.0
1018.0
1042.0
1056.0
1053.0
1035.0
1005.0
973.0
942.0
910.0
878.0
841.0
810.0
792.0
786.0
792.0
799.0
812.0
821.0
832.0
838.0
845.0
847.0
850.0
852.0
855.0
858.0
858.0
858.0
858.0
858.0
856.0
855.0
853.0
853.0
852.0
855.0
854.0
856.0
856.0
856.0
856.0
852.0
849.0
849.0
850.0
848.0
849.0
849.0
850.0
849.0
851.0
850.0
847.0
846.0
845.0
845.0
845.0
843.0
844.0
846.0
844.0
844.0
846.0
843.0
839.0
838.0
837.0
837.0
837.0
835.0
835.0
835.0
834.0
835.0
833.0
834.0
832.0
827.0
826.0
826.0
824.0
824.0
825.0
824.0
826.0
824.0
826.0
826.0
826.0
823.0
823.0
820.0
821.0
823.0
824.0
824.0
826.0
829.0
831.0
830.0
830.0
831.0
831.0
829.0
831.0
834.0
841.0
843.0
847.0
851.0
857.0
858.0
862.0
866.0
869.0
874.0
876.0
879.0
882.0
886.0
889.0
894.0
895.0
897.0
898.0
898.0
897.0
897.0
896.0
897.0
895.0
899.0
900.0
900.0
901.0
901.0
899.0
896.0
893.0
892.0
890.0
889.0
891.0
892.0
892.0
892.0
892.0
891.0
891.0
889.0
889.0
887.0
885.0
885.0
887.0
888.0
889.0
889.0
890.0
889.0
887.0
884.0
884.0
884.0
884.0
884.0
884.0
884.0
887.0
888.0
892.0
890.0
888.0
886.0
884.0
884.0
882.0
882.0
885.0
884.0
887.0
888.0
887.0
887.0
887.0
888.0
886.0
885.0
884.0
884.0
886.0
888.0
887.0
884.0
888.0
888.0
889.0
888.0
888.0
885.0
886.0
881.0
884.0
888.0
888.0
888.0
889.0
891.0
890.0
892.0
891.0
891.0
892.0
893.0
893.0
897.0
899.0
901.0
903.0
904.0
904.0
903.0
902.0
902.0
905.0
904.0
905.0
905.0
908.0
907.0
905.0
904.0
900.0
896.0
894.0
891.0
889.0
889.0
886.0
884.0
882.0
881.0
878.0
876.0
875.0
873.0
871.0
871.0
870.0
869.0
869.0
872.0
872.0
870.0
870.0
870.0
871.0
872.0
870.0
867.0
867.0
867.0
867.0
869.0
871.0
875.0
876.0
879.0
884.0
893.0
906.0
923.0
949.0
978.0
1007.0
1032.0
1044.0
1038.0
1013.0
983.0
949.0
913.0
875.0
836.0
802.0
784.0
777.0
782.0
793.0
808.0
824.0
834.0
840.0
843.0
842.0
845.0
845.0
846.0
843.0
848.0
850.0
851.0
849.0
848.0
849.0
847.0
847.0
846.0
846.0
842.0
845.0
847.0
848.0
848.0
850.0
847.0
847.0
845.0
842.0
843.0
841.0
840.0
843.0
844.0
842.0
846.0
846.0
846.0
843.0
839.0
839.0
839.0
838.0
837.0
837.0
836.0
838.0
837.0
837.0
837.0
835.0
831.0
833.0
829.0
826.0
828.0
828.0
824.0
823.0
825.0
824.0
828.0
826.0
825.0
823.0
821.0
819.0
820.0
818.0
820.0
822.0
821.0
824.0
825.0
822.0
821.0
819.0
818.0
819.0
820.0
825.0
829.0
835.0
837.0
836.0
833.0
834.0
839.0
841.0
847.0
849.0
850.0
851.0
852.0
854.0
859.0
866.0
868.0
872.0
874.0
875.0
878.0
877.0
878.0
880.0
882.0
884.0
888.0
892.0
888.0
888.0
890.0
891.0
892.0
890.0
888.0
886.0
884.0
882.0
880.0
880.0
876.0
874.0
871.0
868.0
868.0
867.0
869.0
868.0
869.0
871.0
872.0
874.0
872.0
869.0
864.0
862.0
860.0
860.0
859.0
858.0
858.0
859.0
858.0
856.0
858.0
855.0
856.0
858.0
856.0
858.0
859.0
860.0
862.0
862.0
866.0
868.0
869.0
869.0
869.0
869.0
872.0
875.0
877.0
880.0
883.0
883.0
883.0
883.0
884.0
881.0
880.0
873.0
872.0
869.0
866.0
864.0
866.0
864.0
865.0
862.0
861.0
858.0
858.0
857.0
856.0
855.0
854.0
856.0
857.0
859.0
860.0
863.0
862.0
862.0
861.0
861.0
861.0
862.0
861.0
862.0
863.0
864.0
867.0
872.0
877.0
886.0
902.0
917.0
936.0
961.0
979.0
997.0
1007.0
1000.0
983.0
960.0
930.0
895.0
856.0
822.0
802.0
800.0
814.0
828.0
839.0
839.0
836.0
837.0
836.0
836.0
839.0
840.0
841.0
843.0
842.0
843.0
844.0
844.0
846.0
845.0
843.0
843.0
840.0
840.0
840.0
840.0
839.0
839.0
838.0
841.0
841.0
842.0
842.0
839.0
839.0
836.0
836.0
836.0
835.0
835.0
835.0
835.0
836.0
838.0
838.0
835.0
836.0
831.0
830.0
830.0
831.0
829.0
830.0
833.0
830.0
835.0
832.0
831.0
828.0
824.0
824.0
824.0
821.0
822.0
820.0
820.0
817.0
820.0
817.0
814.0
814.0
812.0
812.0
810.0
807.0
807.0
811.0
812.0
811.0
815.0
814.0
815.0
814.0
813.0
815.0
817.0
816.0
817.0
820.0
822.0
828.0
831.0
832.0
832.0
833.0
836.0
838.0
843.0
844.0
852.0
857.0
863.0
867.0
872.0
874.0
878.0
879.0
882.0
881.0
884.0
885.0
886.0
891.0
892.0
892.0
894.0
895.0
894.0
892.0
893.0
893.0
891.0
889.0
890.0
891.0
894.0
894.0
895.0
893.0
891.0
890.0
887.0
888.0
887.0
882.0
884.0
884.0
885.0
884.0
886.0
887.0
887.0
884.0
885.0
883.0
882.0
882.0
879.0
881.0
881.0
884.0
887.0
886.0
886.0
884.0
883.0
880.0
880.0
880.0
880.0
882.0
883.0
883.0
884.0
884.0
883.0
880.0
881.0
880.0
880.0
881.0
880.0
883.0
882.0
884.0
886.0
886.0
883.0
882.0
883.0
882.0
883.0
881.0
881.0
882.0
883.0
883.0
884.0
886.0
883.0
882.0
881.0
882.0
881.0
879.0
880.0
882.0
882.0
885.0
884.0
885.0
884.0
883.0
883.0
880.0
878.0
879.0
878.0
880.0
881.0
883.0
884.0
885.0
883.0
882.0
880.0
881.0
882.0
881.0
882.0
882.0
884.0
884.0
884.0
885.0
883.0
882.0
881.0
880.0
880.0
878.0
878.0
878.0
880.0
881.0
883.0
882.0
882.0
877.0
878.0
879.0
877.0
880.0
879.0
879.0
882.0
883.0
885.0
884.0
883.0
882.0
880.0
880.0
877.0
879.0
878.0
880.0
881.0
883.0
885.0
882.0
881.0
878.0
878.0
876.0
875.0
877.0
878.0
879.0
880.0
881.0
883.0
883.0
885.0
885.0
882.0
883.0
883.0
884.0
882.0
883.0
884.0
884.0
887.0
885.0
880.0
880.0
881.0
880.0
884.0
884.0
885.0
884.0
886.0
884.0
882.0
882.0
880.0
879.0
879.0
879.0
879.0
878.0
881.0
880.0
880.0
880.0
879.0
876.0
873.0
871.0
869.0
869.0
868.0
870.0
870.0
872.0
872.0
873.0
874.0
875.0
873.0
870.0
870.0
871.0
869.0
868.0
869.0
873.0
879.0
889.0
903.0
918.0
938.0
961.0
986.0
1010.0
1030.0
1046.0
1047.0
1035.0
1011.0
983.0
955.0
923.0
888.0
852.0
819.0
796.0
791.0
796.0
815.0
836.0
857.0
866.0
870.0
865.0
854.0
848.0
842.0
839.0
841.0
841.0
844.0
845.0
848.0
848.0
849.0
848.0
848.0
845.0
844.0
842.0
842.0
842.0
841.0
840.0
844.0
844.0
846.0
843.0
844.0
839.0
839.0
839.0
837.0
834.0
831.0
832.0
837.0
836.0
837.0
839.0
837.0
834.0
834.0
832.0
832.0
831.0
830.0
829.0
829.0
831.0
833.0
832.0
831.0
830.0
830.0
828.0
826.0
827.0
826.0
828.0
828.0
829.0
831.0
829.0
829.0
830.0
827.0
824.0
824.0
824.0
825.0
826.0
831.0
832.0
832.0
834.0
836.0
835.0
834.0
835.0
837.0
839.0
841.0
842.0
847.0
849.0
850.0
853.0
855.0
857.0
858.0
864.0
866.0
868.0
873.0
875.0
881.0
886.0
891.0
892.0
892.0
896.0
897.0
896.0
896.0
898.0
900.0
898.0
901.0
902.0
902.0
902.0
903.0
901.0
901.0
900.0
896.0
897.0
894.0
893.0
894.0
894.0
896.0
894.0
892.0
893.0
890.0
888.0
886.0
887.0
888.0
889.0
890.0
888.0
887.0
882.0
883.0
884.0
883.0
881.0
876.0
874.0
873.0
876.0
877.0
878.0
879.0
877.0
876.0
874.0
874.0
870.0
869.0
871.0
870.0
872.0
872.0
876.0
875.0
875.0
875.0
874.0
873.0
871.0
869.0
868.0
869.0
870.0
873.0
872.0
871.0
873.0
870.0
870.0
871.0
866.0
864.0
865.0
866.0
868.0
868.0
868.0
871.0
873.0
870.0
869.0
872.0
869.0
868.0
866.0
868.0
870.0
871.0
872.0
873.0
873.0
872.0
871.0
868.0
868.0
866.0
865.0
863.0
864.0
866.0
868.0
873.0
873.0
872.0
873.0
871.0
869.0
870.0
871.0
869.0
870.0
873.0
875.0
879.0
880.0
879.0
877.0
875.0
873.0
869.0
868.0
871.0
873.0
875.0
876.0
877.0
876.0
874.0
873.0
873.0
868.0
866.0
865.0
863.0
865.0
866.0
867.0
868.0
868.0
869.0
868.0
866.0
860.0
858.0
854.0
852.0
854.0
854.0
854.0
857.0
858.0
857.0
861.0
858.0
859.0
855.0
856.0
856.0
858.0
857.0
858.0
860.0
863.0
862.0
869.0
881.0
893.0
910.0
933.0
957.0
982.0
1005.0
1021.0
1027.0
1012.0
985.0
954.0
920.0
889.0
853.0
817.0
787.0
776.0
776.0
785.0
796.0
813.0
822.0
831.0
833.0
835.0
833.0
829.0
831.0
832.0
834.0
834.0
835.0
835.0
833.0
833.0
833.0
831.0
831.0
829.0
830.0
830.0
830.0
832.0
835.0
834.0
835.0
831.0
831.0
825.0
823.0
824.0
824.0
828.0
829.0
830.0
830.0
829.0
826.0
826.0
821.0
821.0
817.0
817.0
817.0
816.0
818.0
817.0
816.0
816.0
818.0
816.0
815.0
814.0
810.0
811.0
808.0
808.0
808.0
811.0
810.0
809.0
807.0
806.0
802.0
802.0
802.0
800.0
801.0
801.0
802.0
801.0
802.0
804.0
800.0
799.0
800.0
799.0
798.0
797.0
798.0
800.0
797.0
799.0
802.0
803.0
806.0
810.0
811.0
814.0
818.0
820.0
825.0
829.0
831.0
837.0
840.0
847.0
848.0
854.0
858.0
862.0
865.0
865.0
870.0
874.0
875.0
876.0
880.0
882.0
881.0
879.0
878.0
875.0
876.0
876.0
877.0
877.0
879.0
879.0
882.0
882.0
881.0
881.0
877.0
877.0
874.0
871.0
871.0
871.0
872.0
874.0
876.0
876.0
875.0
874.0
873.0
869.0
871.0
871.0
870.0
870.0
874.0
874.0
875.0
872.0
873.0
869.0
867.0
868.0
865.0
867.0
865.0
868.0
870.0
871.0
874.0
875.0
874.0
871.0
868.0
867.0
865.0
867.0
870.0
870.0
873.0
873.0
874.0
873.0
872.0
872.0
872.0
871.0
871.0
868.0
870.0
867.0
868.0
869.0
869.0
869.0
871.0
871.0
871.0
871.0
870.0
868.0
870.0
869.0
872.0
873.0
875.0
876.0
873.0
873.0
872.0
873.0
870.0
870.0
869.0
869.0
869.0
871.0
874.0
874.0
875.0
874.0
872.0
872.0
869.0
870.0
867.0
867.0
869.0
868.0
867.0
867.0
867.0
868.0
867.0
868.0
868.0
870.0
872.0
875.0
877.0
879.0
880.0
883.0
882.0
880.0
877.0
877.0
873.0
872.0
869.0
868.0
869.0
872.0
879.0
879.0
882.0
880.0
878.0
874.0
869.0
864.0
866.0
867.0
871.0
872.0
874.0
874.0
873.0
868.0
860.0
858.0
857.0
855.0
857.0
859.0
858.0
860.0
858.0
861.0
860.0
860.0
860.0
857.0
851.0
854.0
857.0
860.0
861.0
863.0
864.0
864.0
868.0
867.0
869.0
878.0
888.0
902.0
920.0
944.0
971.0
999.0
1022.0
1035.0
1035.0
1019.0
986.0
953.0
923.0
887.0
852.0
817.0
783.0
762.0
759.0
770.0
779.0
787.0
793.0
800.0
810.0
817.0
823.0
828.0
834.0
835.0
838.0
835.0
835.0
834.0
833.0
831.0
832.0
831.0
832.0
834.0
834.0
835.0
834.0
834.0
833.0
832.0
829.0
830.0
827.0
826.0
825.0
824.0
827.0
828.0
829.0
829.0
827.0
827.0
825.0
824.0
824.0
822.0
821.0
821.0
822.0
822.0
820.0
821.0
820.0
822.0
821.0
818.0
816.0
817.0
815.0
813.0
812.0
812.0
809.0
810.0
809.0
810.0
811.0
809.0
809.0
808.0
808.0
809.0
807.0
810.0
808.0
811.0
810.0
810.0
808.0
804.0
806.0
803.0
807.0
809.0
810.0
815.0
816.0
819.0
817.0
821.0
821.0
822.0
822.0
825.0
828.0
831.0
832.0
840.0
846.0
851.0
854.0
855.0
858.0
862.0
864.0
865.0
866.0
873.0
875.0
876.0
879.0
882.0
880.0
879.0
877.0
878.0
877.0
875.0
878.0
877.0
877.0
876.0
875.0
875.0
877.0
875.0
875.0
875.0
875.0
872.0
873.0
872.0
871.0
872.0
869.0
871.0
869.0
868.0
867.0
868.0
866.0
865.0
867.0
864.0
866.0
864.0
866.0
865.0
865.0
867.0
866.0
866.0
864.0
862.0
862.0
862.0
862.0
864.0
866.0
868.0
868.0
866.0
863.0
862.0
862.0
862.0
862.0
862.0
862.0
861.0
864.0
865.0
865.0
864.0
863.0
863.0
861.0
861.0
860.0
863.0
863.0
865.0
865.0
869.0
867.0
868.0
867.0
865.0
864.0
863.0
864.0
865.0
866.0
868.0
867.0
870.0
870.0
868.0
867.0
867.0
866.0
867.0
866.0
868.0
870.0
871.0
870.0
870.0
871.0
871.0
871.0
873.0
874.0
875.0
875.0
878.0
879.0
882.0
883.0
882.0
884.0
882.0
883.0
880.0
883.0
882.0
882.0
882.0
882.0
880.0
879.0
881.0
880.0
879.0
874.0
873.0
869.0
867.0
865.0
864.0
865.0
862.0
862.0
862.0
860.0
858.0
854.0
851.0
850.0
848.0
848.0
850.0
853.0
855.0
856.0
856.0
855.0
854.0
851.0
856.0
856.0
854.0
853.0
855.0
858.0
859.0
861.0
869.0
878.0
887.0
902.0
919.0
943.0
969.0
996.0
1021.0
1037.0
1037.0
1024.0
999.0
962.0
928.0
895.0
864.0
829.0
791.0
764.0
752.0
754.0
764.0
775.0
785.0
789.0
795.0
803.0
814.0
823.0
832.0
833.0
838.0
841.0
841.0
840.0
842.0
839.0
837.0
839.0
838.0
839.0
838.0
838.0
838.0
839.0
840.0
843.0
840.0
840.0
841.0
840.0
838.0
838.0
836.0
835.0
835.0
835.0
838.0
840.0
840.0
841.0
838.0
838.0
836.0
835.0
832.0
832.0
833.0
834.0
836.0
835.0
837.0
836.0
834.0
833.0
831.0
829.0
829.0
828.0
826.0
826.0
827.0
827.0
830.0
828.0
828.0
826.0
823.0
822.0
822.0
821.0
821.0
822.0
824.0
826.0
825.0
827.0
823.0
824.0
824.0
823.0
822.0
822.0
824.0
829.0
832.0
833.0
838.0
843.0
843.0
841.0
841.0
843.0
846.0
849.0
853.0
858.0
863.0
868.0
873.0
878.0
879.0
882.0
883.0
884.0
885.0
889.0
892.0
897.0
900.0
901.0
905.0
904.0
901.0
902.0
901.0
902.0
901.0
900.0
902.0
903.0
903.0
904.0
902.0
900.0
901.0
901.0
899.0
898.0
896.0
895.0
895.0
897.0
896.0
899.0
899.0
897.0
897.0
899.0
896.0
894.0
895.0
895.0
890.0
890.0
887.0
888.0
889.0
889.0
888.0
887.0
889.0
888.0
886.0
887.0
884.0
889.0
890.0
891.0
894.0
893.0
893.0
892.0
888.0
888.0
889.0
889.0
887.0
889.0
893.0
893.0
893.0
892.0
893.0
891.0
887.0
889.0
889.0
889.0
887.0
887.0
891.0
890.0
893.0
894.0
895.0
893.0
891.0
890.0
894.0
893.0
892.0
894.0
895.0
897.0
899.0
901.0
903.0
900.0
903.0
902.0
903.0
903.0
905.0
905.0
907.0
909.0
910.0
911.0
912.0
916.0
916.0
914.0
912.0
910.0
909.0
909.0
908.0
907.0
908.0
906.0
905.0
897.0
895.0
892.0
889.0
887.0
885.0
885.0
884.0
884.0
883.0
881.0
879.0
880.0
879.0
878.0
878.0
876.0
880.0
882.0
881.0
883.0
886.0
885.0
886.0
884.0
885.0
888.0
894.0
905.0
920.0
941.0
968.0
999.0
1030.0
1055.0
1068.0
1068.0
1050.0
1017.0
980.0
943.0
904.0
865.0
824.0
792.0
776.0
771.0
775.0
787.0
797.0
813.0
823.0
834.0
842.0
850.0
856.0
861.0
864.0
866.0
861.0
862.0
860.0
860.0
858.0
859.0
858.0
859.0
862.0
860.0
861.0
862.0
860.0
861.0
859.0
857.0
854.0
853.0
854.0
853.0
854.0
855.0
856.0
855.0
855.0
852.0
851.0
849.0
849.0
849.0
847.0
847.0
847.0
852.0
853.0
851.0
847.0
846.0
842.0
841.0
836.0
837.0
837.0
838.0
841.0
839.0
840.0
839.0
835.0
835.0
833.0
832.0
830.0
828.0
831.0
829.0
830.0
832.0
833.0
829.0
826.0
824.0
823.0
820.0
820.0
822.0
824.0
825.0
826.0
828.0
830.0
832.0
831.0
830.0
830.0
831.0
832.0
834.0
838.0
840.0
848.0
855.0
859.0
863.0
866.0
873.0
878.0
881.0
884.0
889.0
893.0
895.0
900.0
904.0
905.0
905.0
905.0
904.0
906.0
908.0
906.0
907.0
906.0
906.0
907.0
908.0
909.0
905.0
904.0
902.0
901.0
899.0
899.0
898.0
897.0
898.0
898.0
897.0
899.0
897.0
898.0
899.0
897.0
895.0
894.0
895.0
892.0
895.0
896.0
897.0
900.0
899.0
899.0
898.0
897.0
893.0
890.0
892.0
891.0
892.0
893.0
894.0
896.0
891.0
893.0
893.0
893.0
890.0
889.0
889.0
890.0
890.0
891.0
892.0
893.0
893.0
892.0
893.0
889.0
889.0
889.0
890.0
890.0
891.0
893.0
893.0
895.0
894.0
894.0
895.0
889.0
890.0
891.0
889.0
890.0
892.0
896.0
896.0
898.0
900.0
898.0
904.0
903.0
902.0
903.0
903.0
904.0
903.0
907.0
908.0
910.0
913.0
915.0
915.0
914.0
912.0
911.0
911.0
908.0
907.0
908.0
908.0
906.0
904.0
900.0
895.0
891.0
889.0
885.0
883.0
884.0
884.0
884.0
884.0
883.0
882.0
879.0
880.0
878.0
878.0
878.0
878.0
878.0
878.0
881.0
882.0
883.0
882.0
883.0
884.0
881.0
881.0
880.0
878.0
877.0
882.0
887.0
892.0
902.0
912.0
930.0
953.0
981.0
1009.0
1035.0
1053.0
1060.0
1047.0
1023.0
986.0
958.0
924.0
890.0
852.0
816.0
786.0
772.0
771.0
777.0
789.0
805.0
818.0
832.0
840.0
845.0
843.0
850.0
851.0
854.0
856.0
857.0
856.0
857.0
859.0
859.0
858.0
857.0
856.0
856.0
852.0
852.0
850.0
849.0
853.0
852.0
851.0
853.0
856.0
855.0
853.0
854.0
852.0
851.0
848.0
847.0
848.0
847.0
850.0
852.0
851.0
851.0
848.0
846.0
843.0
841.0
838.0
839.0
838.0
838.0
838.0
839.0
840.0
839.0
836.0
832.0
829.0
829.0
828.0
830.0
827.0
827.0
828.0
829.0
830.0
826.0
829.0
823.0
821.0
820.0
821.0
822.0
822.0
823.0
822.0
824.0
824.0
821.0
821.0
822.0
820.0
821.0
823.0
823.0
827.0
831.0
833.0
837.0
842.0
846.0
848.0
850.0
852.0
854.0
858.0
862.0
868.0
873.0
880.0
883.0
887.0
891.0
892.0
894.0
895.0
895.0
895.0
897.0
898.0
900.0
901.0
899.0
902.0
898.0
900.0
897.0
895.0
893.0
893.0
892.0
892.0
893.0
894.0
896.0
895.0
894.0
892.0
890.0
887.0
885.0
887.0
886.0
889.0
890.0
890.0
893.0
891.0
889.0
889.0
886.0
882.0
884.0
883.0
882.0
881.0
885.0
885.0
886.0
884.0
882.0
881.0
880.0
880.0
877.0
880.0
880.0
880.0
881.0
883.0
880.0
884.0
884.0
885.0
885.0
886.0
883.0
883.0
881.0
883.0
883.0
885.0
884.0
887.0
886.0
886.0
884.0
880.0
881.0
878.0
880.0
881.0
881.0
884.0
886.0
887.0
887.0
891.0
891.0
891.0
894.0
891.0
893.0
895.0
894.0
896.0
898.0
898.0
899.0
901.0
901.0
899.0
899.0
897.0
897.0
896.0
896.0
891.0
891.0
888.0
887.0
884.0
880.0
877.0
875.0
873.0
869.0
871.0
869.0
868.0
870.0
871.0
866.0
867.0
867.0
