# Simple Text Format
# Sampling Rate (Hz):= 360.00
# Resolution:= 12
# Labels:= ECG
887.0
885.0
883.0
883.0
886.0
889.0
893.0
895.0
896.0
890.0
887.0
885.0
880.0
879.0
878.0
877.0
879.0
880.0
883.0
886.0
890.0
891.0
887.0
883.0
879.0
873.0
873.0
875.0
879.0
881.0
884.0
886.0
887.0
884.0
882.0
880.0
878.0
884.0
888.0
892.0
893.0
892.0
887.0
878.0
869.0
862.0
859.0
863.0
869.0
877.0
886.0
891.0
891.0
886.0
885.0
882.0
879.0
883.0
888.0
897.0
902.0
904.0
907.0
903.0
901.0
895.0
892.0
891.0
891.0
892.0
894.0
897.0
898.0
900.0
902.0
902.0
901.0
898.0
897.0
890.0
882.0
875.0
877.0
881.0
888.0
891.0
890.0
883.0
877.0
871.0
870.0
873.0
875.0
875.0
874.0
874.0
873.0
873.0
872.0
872.0
871.0
869.0
867.0
867.0
867.0
869.0
874.0
881.0
880.0
880.0
879.0
881.0
886.0
901.0
922.0
953.0
986.0
1019.0
1049.0
1063.0
1053.0
1026.0
982.0
935.0
890.0
844.0
803.0
775.0
761.0
763.0
775.0
786.0
794.0
804.0
816.0
831.0
848.0
859.0
858.0
849.0
838.0
830.0
827.0
831.0
837.0
847.0
856.0
862.0
859.0
856.0
850.0
843.0
842.0
849.0
851.0
856.0
857.0
856.0
854.0
855.0
856.0
867.0
870.0
873.0
869.0
856.0
847.0
840.0
836.0
836.0
838.0
842.0
845.0
852.0
856.0
861.0
866.0
868.0
864.0
853.0
843.0
834.0
830.0
836.0
847.0
858.0
864.0
860.0
845.0
829.0
818.0
819.0
826.0
839.0
844.0
842.0
833.0
826.0
821.0
823.0
830.0
836.0
843.0
847.0
844.0
839.0
832.0
823.0
821.0
823.0
831.0
848.0
863.0
871.0
870.0
861.0
849.0
835.0
829.0
831.0
840.0
850.0
863.0
874.0
881.0
892.0
897.0
901.0
902.0
901.0
887.0
874.0
865.0
861.0
862.0
871.0
886.0
901.0
913.0
920.0
926.0
933.0
940.0
938.0
932.0
919.0
902.0
886.0
885.0
893.0
899.0
905.0
906.0
908.0
910.0
906.0
902.0
894.0
891.0
888.0
894.0
898.0
905.0
909.0
908.0
904.0
899.0
892.0
888.0
885.0
879.0
879.0
878.0
880.0
884.0
894.0
902.0
913.0
918.0
914.0
906.0
898.0
891.0
887.0
887.0
884.0
883.0
880.0
881.0
887.0
893.0
902.0
909.0
914.0
909.0
896.0
883.0
874.0
873.0
881.0
896.0
907.0
916.0
924.0
925.0
925.0
920.0
909.0
909.0
904.0
903.0
898.0
890.0
884.0
887.0
898.0
913.0
918.0
924.0
921.0
911.0
902.0
898.0
893.0
890.0
893.0
894.0
896.0
894.0
892.0
892.0
899.0
910.0
919.0
923.0
915.0
899.0
880.0
867.0
867.0
873.0
877.0
884.0
885.0
880.0
880.0
887.0
892.0
898.0
901.0
899.0
894.0
889.0
883.0
878.0
874.0
878.0
883.0
895.0
907.0
924.0
945.0
971.0
998.0
1023.0
1035.0
1032.0
1016.0
989.0
960.0
935.0
911.0
882.0
851.0
830.0
821.0
829.0
842.0
850.0
852.0
843.0
827.0
814.0
810.0
810.0
822.0
842.0
859.0
871.0
873.0
869.0
856.0
846.0
840.0
841.0
848.0
860.0
868.0
877.0
880.0
875.0
869.0
868.0
865.0
859.0
853.0
845.0
836.0
835.0
841.0
843.0
850.0
854.0
862.0
862.0
864.0
861.0
856.0
849.0
845.0
844.0
845.0
852.0
861.0
864.0
865.0
858.0
848.0
843.0
838.0
831.0
832.0
829.0
828.0
827.0
828.0
829.0
832.0
836.0
840.0
848.0
856.0
866.0
870.0
867.0
859.0
847.0
832.0
822.0
818.0
824.0
831.0
842.0
849.0
851.0
849.0
848.0
850.0
851.0
853.0
852.0
853.0
861.0
869.0
879.0
886.0
883.0
877.0
866.0
858.0
857.0
863.0
869.0
876.0
882.0
886.0
890.0
888.0
889.0
893.0
895.0
896.0
896.0
897.0
898.0
900.0
903.0
906.0
908.0
904.0
895.0
887.0
882.0
882.0
885.0
892.0
902.0
913.0
915.0
908.0
894.0
872.0
858.0
855.0
860.0
871.0
882.0
889.0
885.0
877.0
868.0
857.0
853.0
852.0
856.0
863.0
871.0
876.0
880.0
882.0
883.0
882.0
886.0
891.0
893.0
892.0
885.0
878.0
871.0
865.0
860.0
858.0
860.0
861.0
868.0
877.0
882.0
886.0
884.0
882.0
877.0
873.0
872.0
871.0
874.0
879.0
882.0
889.0
893.0
891.0
888.0
882.0
871.0
866.0
867.0
870.0
876.0
884.0
888.0
885.0
882.0
878.0
876.0
877.0
878.0
881.0
879.0
875.0
873.0
873.0
873.0
870.0
867.0
867.0
868.0
870.0
877.0
881.0
875.0
867.0
860.0
857.0
861.0
863.0
859.0
854.0
852.0
852.0
857.0
857.0
854.0
845.0
838.0
835.0
834.0
840.0
848.0
857.0
869.0
880.0
891.0
905.0
923.0
944.0
966.0
992.0
1011.0
1024.0
1024.0
1012.0
990.0
971.0
944.0
914.0
877.0
831.0
790.0
764.0
760.0
776.0
796.0
812.0
815.0
809.0
798.0
793.0
800.0
808.0
817.0
828.0
839.0
846.0
853.0
851.0
852.0
850.0
842.0
839.0
838.0
844.0
853.0
852.0
840.0
827.0
815.0
811.0
815.0
821.0
829.0
833.0
835.0
832.0
834.0
832.0
830.0
831.0
834.0
837.0
843.0
842.0
840.0
829.0
823.0
819.0
816.0
818.0
824.0
831.0
837.0
839.0
838.0
837.0
834.0
837.0
839.0
836.0
831.0
821.0
816.0
811.0
814.0
815.0
821.0
824.0
829.0
829.0
827.0
820.0
811.0
805.0
801.0
803.0
811.0
817.0
820.0
819.0
815.0
813.0
816.0
820.0
822.0
826.0
827.0
832.0
834.0
839.0
842.0
848.0
847.0
851.0
857.0
862.0
871.0
881.0
887.0
890.0
887.0
886.0
880.0
877.0
873.0
874.0
880.0
883.0
888.0
890.0
891.0
888.0
884.0
881.0
878.0
876.0
876.0
875.0
873.0
869.0
866.0
864.0
863.0
864.0
866.0
869.0
875.0
878.0
882.0
886.0
885.0
889.0
891.0
891.0
887.0
886.0
885.0
891.0
893.0
891.0
883.0
869.0
855.0
846.0
849.0
856.0
868.0
875.0
878.0
875.0
871.0
871.0
871.0
872.0
867.0
860.0
858.0
858.0
860.0
867.0
871.0
875.0
879.0
880.0
880.0
880.0
882.0
882.0
887.0
887.0
887.0
885.0
883.0
883.0
885.0
891.0
892.0
895.0
894.0
886.0
879.0
875.0
875.0
880.0
889.0
894.0
898.0
900.0
899.0
896.0
895.0
894.0
891.0
889.0
890.0
888.0
885.0
880.0
870.0
858.0
843.0
835.0
839.0
845.0
858.0
871.0
877.0
879.0
875.0
866.0
856.0
855.0
856.0
861.0
865.0
863.0
859.0
859.0
857.0
859.0
863.0
868.0
873.0
879.0
891.0
906.0
924.0
939.0
955.0
974.0
989.0
1009.0
1022.0
1030.0
1021.0
1004.0
973.0
932.0
884.0
831.0
786.0
759.0
756.0
772.0
790.0
805.0
815.0
820.0
826.0
831.0
837.0
845.0
847.0
846.0
844.0
841.0
843.0
847.0
852.0
855.0
854.0
850.0
846.0
843.0
842.0
843.0
852.0
866.0
873.0
870.0
862.0
850.0
846.0
852.0
863.0
873.0
874.0
863.0
842.0
824.0
811.0
807.0
814.0
826.0
836.0
843.0
851.0
853.0
854.0
853.0
849.0
841.0
835.0
830.0
829.0
834.0
836.0
838.0
841.0
839.0
841.0
840.0
841.0
845.0
853.0
852.0
846.0
833.0
822.0
807.0
799.0
799.0
807.0
818.0
826.0
831.0
831.0
826.0
820.0
818.0
822.0
828.0
837.0
838.0
835.0
823.0
816.0
811.0
816.0
826.0
836.0
850.0
855.0
854.0
851.0
852.0
849.0
849.0
850.0
854.0
859.0
866.0
872.0
879.0
887.0
893.0
898.0
898.0
894.0
888.0
881.0
875.0
877.0
883.0
891.0
907.0
922.0
932.0
926.0
911.0
892.0
875.0
870.0
877.0
889.0
899.0
904.0
904.0
896.0
888.0
878.0
873.0
872.0
875.0
877.0
881.0
882.0
888.0
891.0
891.0
891.0
888.0
884.0
882.0
877.0
874.0
872.0
876.0
879.0
885.0
886.0
891.0
894.0
892.0
887.0
880.0
879.0
877.0
881.0
888.0
898.0
901.0
901.0
892.0
882.0
877.0
874.0
876.0
878.0
877.0
878.0
881.0
884.0
883.0
883.0
881.0
880.0
875.0
872.0
875.0
879.0
884.0
888.0
892.0
895.0
894.0
892.0
891.0
885.0
883.0
882.0
887.0
891.0
897.0
903.0
909.0
916.0
919.0
921.0
916.0
903.0
887.0
872.0
862.0
863.0
872.0
887.0
900.0
905.0
895.0
878.0
863.0
851.0
845.0
847.0
850.0
854.0
856.0
861.0
863.0
864.0
866.0
865.0
867.0
865.0
864.0
863.0
864.0
865.0
864.0
865.0
866.0
872.0
878.0
884.0
882.0
887.0
892.0
905.0
921.0
937.0
951.0
965.0
979.0
988.0
1000.0
1007.0
1007.0
988.0
962.0
935.0
905.0
879.0
851.0
819.0
789.0
770.0
767.0
772.0
782.0
789.0
797.0
802.0
809.0
821.0
831.0
841.0
849.0
849.0
851.0
853.0
853.0
852.0
849.0
850.0
845.0
840.0
836.0
839.0
845.0
857.0
868.0
874.0
866.0
849.0
827.0
812.0
811.0
820.0
835.0
848.0
853.0
856.0
852.0
847.0
840.0
833.0
829.0
834.0
843.0
853.0
855.0
845.0
826.0
815.0
805.0
801.0
806.0
814.0
826.0
837.0
842.0
841.0
833.0
821.0
812.0
807.0
811.0
820.0
831.0
839.0
845.0
846.0
839.0
826.0
816.0
807.0
804.0
805.0
810.0
813.0
819.0
824.0
828.0
827.0
825.0
824.0
822.0
820.0
819.0
815.0
814.0
811.0
815.0
821.0
826.0
830.0
836.0
841.0
848.0
853.0
860.0
866.0
867.0
863.0
861.0
864.0
866.0
871.0
875.0
878.0
875.0
874.0
874.0
879.0
889.0
904.0
914.0
910.0
897.0
880.0
864.0
857.0
855.0
858.0
867.0
878.0
888.0
896.0
898.0
891.0
884.0
874.0
867.0
866.0
865.0
865.0
870.0
875.0
880.0
883.0
885.0
880.0
876.0
871.0
862.0
861.0
857.0
862.0
872.0
877.0
882.0
877.0
868.0
854.0
850.0
851.0
860.0
871.0
877.0
876.0
869.0
863.0
857.0
856.0
858.0
867.0
875.0
880.0
879.0
877.0
868.0
861.0
856.0
856.0
860.0
867.0
875.0
884.0
888.0
895.0
900.0
911.0
929.0
954.0
981.0
1009.0
1026.0
1031.0
1016.0
986.0
943.0
894.0
841.0
792.0
759.0
743.0
739.0
749.0
766.0
780.0
793.0
812.0
821.0
830.0
835.0
841.0
843.0
848.0
851.0
854.0
862.0
866.0
870.0
867.0
860.0
848.0
841.0
837.0
838.0
841.0
845.0
845.0
843.0
838.0
836.0
834.0
834.0
837.0
837.0
844.0
850.0
855.0
857.0
853.0
846.0
838.0
829.0
830.0
836.0
843.0
846.0
847.0
842.0
838.0
831.0
831.0
831.0
834.0
836.0
835.0
829.0
824.0
817.0
815.0
817.0
816.0
813.0
811.0
805.0
801.0
800.0
804.0
806.0
807.0
808.0
806.0
803.0
800.0
791.0
789.0
791.0
793.0
800.0
805.0
807.0
803.0
798.0
792.0
788.0
790.0
798.0
809.0
818.0
826.0
825.0
824.0
821.0
817.0
817.0
824.0
832.0
843.0
849.0
850.0
848.0
846.0
847.0
851.0
857.0
862.0
862.0
864.0
860.0
857.0
859.0
863.0
870.0
874.0
878.0
879.0
877.0
872.0
867.0
861.0
861.0
861.0
866.0
874.0
881.0
884.0
886.0
892.0
890.0
884.0
874.0
861.0
850.0
846.0
848.0
860.0
875.0
884.0
885.0
879.0
864.0
849.0
838.0
839.0
844.0
850.0
858.0
864.0
864.0
864.0
861.0
859.0
857.0
859.0
864.0
870.0
873.0
874.0
873.0
870.0
868.0
862.0
864.0
869.0
873.0
877.0
879.0
881.0
879.0
874.0
868.0
857.0
847.0
841.0
840.0
846.0
853.0
862.0
871.0
876.0
879.0
877.0
874.0
870.0
869.0
868.0
873.0
880.0
883.0
880.0
873.0
866.0
865.0
865.0
873.0
880.0
881.0
876.0
866.0
855.0
849.0
846.0
851.0
853.0
853.0
854.0
854.0
857.0
862.0
866.0
867.0
867.0
869.0
869.0
869.0
868.0
866.0
869.0
868.0
871.0
874.0
878.0
882.0
883.0
885.0
885.0
883.0
884.0
883.0
884.0
888.0
892.0
897.0
903.0
908.0
911.0
908.0
903.0
891.0
878.0
867.0
857.0
853.0
850.0
856.0
859.0
864.0
868.0
866.0
866.0
862.0
861.0
858.0
856.0
853.0
856.0
854.0
852.0
857.0
857.0
855.0
854.0
854.0
852.0
855.0
854.0
852.0
854.0
857.0
859.0
862.0
863.0
869.0
872.0
874.0
874.0
875.0
873.0
871.0
872.0
880.0
893.0
914.0
938.0
963.0
993.0
1017.0
1035.0
1032.0
1009.0
971.0
922.0
878.0
832.0
794.0
764.0
752.0
751.0
755.0
760.0
769.0
777.0
789.0
803.0
811.0
822.0
828.0
832.0
831.0
833.0
834.0
835.0
836.0
839.0
840.0
836.0
836.0
829.0
829.0
830.0
830.0
833.0
833.0
832.0
828.0
824.0
828.0
835.0
842.0
843.0
840.0
832.0
819.0
809.0
802.0
803.0
807.0
810.0
816.0
819.0
822.0
829.0
833.0
833.0
834.0
832.0
826.0
821.0
815.0
811.0
809.0
810.0
815.0
817.0
821.0
821.0
815.0
810.0
803.0
805.0
807.0
806.0
809.0
809.0
814.0
818.0
822.0
824.0
822.0
819.0
819.0
821.0
822.0
824.0
826.0
829.0
832.0
830.0
835.0
836.0
834.0
831.0
832.0
833.0
837.0
844.0
848.0
850.0
845.0
846.0
846.0
849.0
859.0
868.0
876.0
883.0
888.0
891.0
892.0
888.0
886.0
884.0
885.0
888.0
891.0
898.0
905.0
911.0
911.0
906.0
895.0
882.0
872.0
866.0
869.0
876.0
883.0
889.0
890.0
888.0
883.0
877.0
870.0
869.0
866.0
864.0
864.0
867.0
869.0
872.0
873.0
870.0
871.0
873.0
870.0
867.0
863.0
858.0
857.0
858.0
861.0
865.0
866.0
868.0
868.0
866.0
867.0
868.0
868.0
864.0
862.0
862.0
867.0
870.0
874.0
880.0
879.0
874.0
866.0
860.0
852.0
849.0
850.0
855.0
863.0
871.0
876.0
875.0
874.0
871.0
865.0
864.0
868.0
870.0
875.0
883.0
884.0
887.0
886.0
884.0
884.0
878.0
876.0
875.0
874.0
873.0
874.0
878.0
879.0
883.0
882.0
880.0
872.0
868.0
868.0
868.0
864.0
859.0
850.0
840.0
831.0
826.0
825.0
828.0
833.0
841.0
849.0
850.0
852.0
851.0
855.0
856.0
853.0
849.0
843.0
839.0
837.0
839.0
841.0
851.0
865.0
875.0
894.0
914.0
939.0
962.0
989.0
1009.0
1021.0
1026.0
1013.0
991.0
964.0
938.0
913.0
878.0
835.0
793.0
764.0
757.0
758.0
766.0
772.0
775.0
780.0
787.0
791.0
798.0
803.0
810.0
819.0
823.0
823.0
823.0
820.0
817.0
819.0
822.0
824.0
829.0
827.0
825.0
824.0
823.0
822.0
819.0
823.0
826.0
831.0
835.0
842.0
841.0
835.0
826.0
824.0
821.0
822.0
826.0
834.0
837.0
833.0
826.0
821.0
817.0
806.0
796.0
790.0
787.0
792.0
796.0
805.0
810.0
813.0
814.0
817.0
811.0
811.0
808.0
807.0
804.0
803.0
805.0
808.0
815.0
816.0
818.0
814.0
812.0
807.0
800.0
797.0
792.0
787.0
788.0
791.0
792.0
798.0
801.0
806.0
808.0
809.0
805.0
796.0
785.0
778.0
773.0
770.0
772.0
778.0
786.0
794.0
803.0
807.0
803.0
805.0
804.0
806.0
809.0
814.0
820.0
828.0
834.0
843.0
850.0
857.0
859.0
857.0
855.0
855.0
865.0
873.0
884.0
890.0
894.0
891.0
883.0
872.0
854.0
846.0
842.0
848.0
859.0
867.0
871.0
874.0
874.0
870.0
868.0
866.0
869.0
871.0
870.0
869.0
867.0
865.0
863.0
863.0
861.0
863.0
864.0
867.0
868.0
871.0
872.0
870.0
861.0
855.0
852.0
848.0
852.0
861.0
865.0
868.0
866.0
864.0
862.0
859.0
858.0
858.0
861.0
863.0
872.0
880.0
891.0
899.0
898.0
891.0
877.0
857.0
840.0
830.0
829.0
836.0
849.0
863.0
875.0
881.0
882.0
884.0
879.0
875.0
871.0
869.0
869.0
869.0
871.0
875.0
882.0
882.0
884.0
884.0
880.0
879.0
880.0
880.0
884.0
886.0
886.0
887.0
883.0
877.0
872.0
867.0
864.0
860.0
860.0
861.0
865.0
866.0
863.0
856.0
850.0
843.0
840.0
845.0
848.0
851.0
851.0
852.0
851.0
850.0
851.0
850.0
854.0
855.0
857.0
858.0
854.0
854.0
853.0
857.0
864.0
875.0
887.0
900.0
919.0
941.0
969.0
994.0
1016.0
1030.0
1033.0
1017.0
989.0
954.0
918.0
882.0
836.0
798.0
771.0
758.0
756.0
761.0
775.0
794.0
809.0
818.0
823.0
825.0
828.0
831.0
834.0
841.0
844.0
847.0
843.0
833.0
826.0
820.0
817.0
818.0
822.0
824.0
829.0
831.0
832.0
832.0
828.0
828.0
831.0
835.0
841.0
839.0
833.0
821.0
815.0
814.0
819.0
828.0
833.0
833.0
829.0
827.0
828.0
826.0
825.0
827.0
826.0
825.0
821.0
816.0
808.0
801.0
796.0
796.0
800.0
809.0
818.0
823.0
825.0
820.0
811.0
804.0
792.0
791.0
793.0
799.0
811.0
821.0
827.0
824.0
817.0
805.0
791.0
787.0
790.0
794.0
801.0
809.0
814.0
815.0
812.0
809.0
810.0
804.0
801.0
800.0
804.0
811.0
821.0
830.0
837.0
843.0
848.0
851.0
852.0
859.0
861.0
864.0
870.0
874.0
878.0
886.0
891.0
895.0
902.0
902.0
898.0
893.0
882.0
880.0
882.0
884.0
884.0
880.0
871.0
864.0
861.0
864.0
868.0
870.0
876.0
871.0
870.0
870.0
868.0
869.0
869.0
869.0
871.0
872.0
873.0
873.0
873.0
874.0
873.0
877.0
882.0
887.0
894.0
894.0
892.0
884.0
876.0
870.0
863.0
859.0
858.0
861.0
865.0
865.0
863.0
861.0
862.0
861.0
865.0
869.0
867.0
870.0
871.0
877.0
879.0
879.0
874.0
871.0
868.0
865.0
866.0
870.0
874.0
875.0
878.0
875.0
880.0
882.0
883.0
887.0
893.0
899.0
900.0
901.0
897.0
893.0
886.0
884.0
880.0
881.0
885.0
891.0
899.0
903.0
909.0
906.0
893.0
880.0
865.0
854.0
850.0
852.0
859.0
868.0
870.0
871.0
870.0
869.0
863.0
863.0
863.0
861.0
859.0
858.0
857.0
854.0
854.0
855.0
858.0
862.0
865.0
865.0
866.0
867.0
867.0
866.0
863.0
859.0
857.0
857.0
864.0
880.0
901.0
930.0
964.0
997.0
1026.0
1047.0
1058.0
1052.0
1031.0
999.0
958.0
915.0
870.0
823.0
784.0
753.0
742.0
744.0
758.0
775.0
787.0
802.0
809.0
816.0
819.0
821.0
826.0
828.0
831.0
836.0
838.0
838.0
841.0
842.0
844.0
849.0
847.0
845.0
841.0
835.0
832.0
833.0
836.0
837.0
833.0
832.0
830.0
830.0
825.0
830.0
832.0
836.0
840.0
848.0
852.0
847.0
840.0
829.0
820.0
819.0
819.0
821.0
822.0
826.0
825.0
828.0
826.0
825.0
825.0
824.0
824.0
825.0
825.0
822.0
818.0
813.0
812.0
812.0
815.0
820.0
824.0
824.0
818.0
811.0
804.0
798.0
798.0
802.0
808.0
807.0
811.0
810.0
811.0
807.0
803.0
805.0
806.0
807.0
810.0
813.0
817.0
818.0
817.0
809.0
809.0
803.0
804.0
806.0
813.0
821.0
826.0
831.0
840.0
847.0
854.0
857.0
859.0
856.0
856.0
860.0
862.0
866.0
867.0
874.0
881.0
886.0
891.0
892.0
897.0
898.0
895.0
891.0
889.0
885.0
882.0
880.0
876.0
879.0
883.0
882.0
884.0
881.0
877.0
877.0
875.0
877.0
877.0
877.0
878.0
877.0
877.0
876.0
877.0
873.0
871.0
871.0
870.0
871.0
873.0
879.0
886.0
890.0
891.0
889.0
885.0
879.0
871.0
867.0
866.0
865.0
868.0
868.0
874.0
876.0
877.0
874.0
876.0
880.0
879.0
881.0
882.0
884.0
883.0
882.0
875.0
871.0
869.0
866.0
869.0
872.0
877.0
884.0
890.0
891.0
888.0
883.0
878.0
874.0
875.0
877.0
885.0
891.0
893.0
893.0
891.0
890.0
891.0
894.0
902.0
909.0
913.0
912.0
908.0
900.0
891.0
886.0
883.0
883.0
880.0
873.0
868.0
860.0
858.0
860.0
867.0
873.0
876.0
880.0
882.0
878.0
871.0
870.0
863.0
861.0
859.0
861.0
867.0
867.0
870.0
874.0
878.0
880.0
879.0
875.0
872.0
871.0
870.0
866.0
862.0
858.0
852.0
855.0
866.0
881.0
903.0
924.0
951.0
980.0
1010.0
1035.0
1055.0
1057.0
1042.0
1017.0
981.0
948.0
917.0
887.0
850.0
813.0
779.0
760.0
760.0
767.0
780.0
795.0
806.0
820.0
833.0
845.0
853.0
858.0
853.0
843.0
839.0
828.0
827.0
829.0
836.0
842.0
850.0
850.0
852.0
848.0
843.0
838.0
835.0
831.0
832.0
832.0
834.0
836.0
836.0
839.0
838.0
841.0
841.0
840.0
836.0
834.0
833.0
832.0
832.0
833.0
831.0
829.0
830.0
829.0
831.0
833.0
837.0
837.0
835.0
835.0
834.0
834.0
832.0
827.0
826.0
824.0
828.0
831.0
835.0
838.0
837.0
831.0
823.0
815.0
811.0
812.0
814.0
817.0
818.0
821.0
819.0
819.0
819.0
815.0
813.0
811.0
810.0
815.0
817.0
820.0
816.0
812.0
811.0
810.0
811.0
816.0
820.0
830.0
839.0
848.0
854.0
859.0
859.0
860.0
860.0
865.0
871.0
877.0
880.0
883.0
884.0
886.0
892.0
893.0
896.0
900.0
907.0
915.0
920.0
923.0
919.0
914.0
907.0
897.0
890.0
887.0
889.0
888.0
887.0
886.0
878.0
875.0
874.0
879.0
882.0
888.0
894.0
894.0
894.0
892.0
893.0
894.0
891.0
889.0
886.0
882.0
884.0
884.0
887.0
889.0
890.0
890.0
892.0
889.0
890.0
891.0
891.0
888.0
887.0
884.0
884.0
887.0
891.0
891.0
897.0
898.0
900.0
896.0
895.0
893.0
891.0
887.0
879.0
873.0
870.0
873.0
880.0
888.0
891.0
895.0
896.0
892.0
892.0
893.0
895.0
897.0
895.0
897.0
896.0
897.0
895.0
898.0
899.0
898.0
900.0
899.0
899.0
901.0
904.0
909.0
911.0
912.0
912.0
909.0
910.0
909.0
910.0
911.0
911.0
910.0
908.0
903.0
898.0
895.0
891.0
885.0
878.0
874.0
872.0
867.0
865.0
866.0
868.0
876.0
881.0
883.0
883.0
882.0
879.0
874.0
870.0
869.0
871.0
875.0
880.0
878.0
876.0
875.0
875.0
876.0
876.0
877.0
881.0
886.0
898.0
915.0
937.0
961.0
989.0
1017.0
1037.0
1051.0
1051.0
1039.0
1012.0
983.0
952.0
922.0
885.0
843.0
806.0
778.0
764.0
758.0
764.0
776.0
792.0
810.0
826.0
837.0
843.0
847.0
852.0
852.0
852.0
849.0
847.0
846.0
847.0
849.0
850.0
851.0
853.0
857.0
860.0
861.0
860.0
858.0
857.0
857.0
854.0
852.0
852.0
849.0
846.0
841.0
836.0
832.0
831.0
834.0
842.0
850.0
852.0
852.0
848.0
841.0
836.0
832.0
831.0
836.0
839.0
841.0
840.0
839.0
841.0
839.0
837.0
833.0
833.0
837.0
837.0
837.0
832.0
830.0
831.0
829.0
823.0
822.0
821.0
824.0
824.0
825.0
827.0
833.0
839.0
845.0
849.0
846.0
834.0
816.0
798.0
789.0
786.0
793.0
804.0
813.0
819.0
823.0
819.0
815.0
813.0
812.0
810.0
814.0
817.0
821.0
827.0
831.0
839.0
843.0
848.0
853.0
859.0
864.0
865.0
871.0
872.0
877.0
880.0
884.0
890.0
892.0
892.0
894.0
895.0
897.0
902.0
908.0
910.0
909.0
905.0
897.0
890.0
888.0
889.0
890.0
894.0
898.0
899.0
895.0
892.0
890.0
891.0
894.0
897.0
897.0
898.0
901.0
896.0
890.0
885.0
879.0
876.0
875.0
878.0
876.0
880.0
885.0
890.0
893.0
898.0
901.0
897.0
893.0
891.0
890.0
891.0
897.0
896.0
892.0
887.0
877.0
865.0
861.0
859.0
865.0
873.0
883.0
890.0
894.0
896.0
897.0
895.0
891.0
887.0
883.0
884.0
890.0
891.0
897.0
898.0
904.0
909.0
913.0
914.0
910.0
902.0
901.0
899.0
903.0
907.0
909.0
910.0
907.0
904.0
901.0
900.0
897.0
896.0
896.0
895.0
898.0
896.0
901.0
901.0
899.0
896.0
892.0
887.0
885.0
883.0
885.0
884.0
884.0
880.0
879.0
877.0
883.0
888.0
892.0
888.0
878.0
872.0
863.0
862.0
868.0
874.0
880.0
882.0
878.0
872.0
870.0
872.0
870.0
875.0
880.0
886.0
894.0
904.0
921.0
941.0
969.0
999.0
1026.0
1049.0
1061.0
1056.0
1039.0
1013.0
977.0
947.0
909.0
869.0
827.0
793.0
777.0
777.0
782.0
789.0
795.0
803.0
813.0
824.0
833.0
840.0
843.0
840.0
844.0
844.0
844.0
845.0
845.0
846.0
850.0
851.0
854.0
857.0
857.0
857.0
854.0
853.0
851.0
850.0
845.0
848.0
848.0
848.0
849.0
852.0
858.0
864.0
869.0
870.0
869.0
861.0
855.0
856.0
857.0
856.0
850.0
840.0
835.0
832.0
835.0
835.0
835.0
830.0
818.0
815.0
817.0
819.0
824.0
830.0
835.0
841.0
843.0
845.0
842.0
837.0
835.0
831.0
826.0
820.0
819.0
822.0
824.0
826.0
827.0
831.0
830.0
833.0
837.0
843.0
849.0
856.0
853.0
844.0
838.0
830.0
829.0
831.0
832.0
830.0
828.0
826.0
825.0
824.0
827.0
830.0
838.0
847.0
858.0
869.0
877.0
880.0
883.0
888.0
887.0
888.0
891.0
899.0
903.0
908.0
911.0
908.0
907.0
906.0
903.0
905.0
906.0
910.0
911.0
914.0
919.0
924.0
929.0
929.0
922.0
909.0
896.0
889.0
887.0
892.0
896.0
901.0
906.0
904.0
900.0
895.0
889.0
886.0
882.0
881.0
878.0
881.0
883.0
889.0
893.0
893.0
895.0
893.0
891.0
891.0
887.0
888.0
890.0
891.0
893.0
894.0
898.0
899.0
900.0
900.0
899.0
900.0
896.0
896.0
896.0
895.0
898.0
895.0
893.0
889.0
881.0
871.0
870.0
874.0
883.0
892.0
903.0
906.0
910.0
906.0
900.0
898.0
898.0
898.0
896.0
899.0
899.0
899.0
899.0
898.0
900.0
903.0
909.0
918.0
928.0
928.0
927.0
920.0
914.0
908.0
905.0
900.0
897.0
899.0
903.0
901.0
898.0
895.0
891.0
888.0
887.0
886.0
890.0
897.0
900.0
902.0
899.0
892.0
885.0
880.0
876.0
876.0
877.0
882.0
884.0
888.0
891.0
894.0
899.0
901.0
897.0
892.0
890.0
888.0
888.0
884.0
883.0
880.0
880.0
890.0
907.0
932.0
957.0
989.0
1021.0
1046.0
1064.0
1071.0
1057.0
1027.0
991.0
958.0
922.0
890.0
855.0
820.0
791.0
779.0
777.0
785.0
800.0
815.0
828.0
838.0
852.0
856.0
861.0
866.0
868.0
870.0
872.0
873.0
875.0
877.0
877.0
878.0
875.0
869.0
868.0
862.0
851.0
844.0
840.0
840.0
848.0
856.0
863.0
871.0
874.0
872.0
868.0
863.0
851.0
847.0
847.0
851.0
854.0
860.0
864.0
866.0
866.0
864.0
860.0
854.0
851.0
850.0
853.0
857.0
861.0
862.0
860.0
860.0
860.0
858.0
860.0
856.0
853.0
846.0
834.0
823.0
817.0
816.0
821.0
828.0
838.0
842.0
845.0
842.0
840.0
834.0
833.0
831.0
832.0
836.0
843.0
848.0
849.0
852.0
850.0
849.0
846.0
840.0
839.0
837.0
842.0
851.0
865.0
879.0
890.0
890.0
882.0
869.0
860.0
855.0
852.0
860.0
876.0
890.0
902.0
912.0
921.0
926.0
927.0
925.0
918.0
909.0
907.0
903.0
902.0
907.0
909.0
913.0
915.0
918.0
917.0
913.0
907.0
903.0
899.0
901.0
907.0
916.0
923.0
923.0
920.0
911.0
904.0
896.0
893.0
896.0
903.0
909.0
919.0
937.0
954.0
962.0
961.0
950.0
931.0
912.0
897.0
889.0
888.0
889.0
886.0
884.0
882.0
882.0
887.0
893.0
898.0
902.0
899.0
895.0
888.0
885.0
889.0
890.0
894.0
899.0
900.0
900.0
900.0
895.0
894.0
893.0
899.0
902.0
908.0
910.0
914.0
912.0
920.0
923.0
933.0
935.0
934.0
927.0
911.0
897.0
887.0
881.0
881.0
884.0
891.0
898.0
906.0
910.0
912.0
914.0
915.0
919.0
922.0
923.0
920.0
918.0
918.0
918.0
918.0
920.0
920.0
924.0
928.0
922.0
915.0
904.0
889.0
880.0
874.0
873.0
872.0
875.0
874.0
869.0
866.0
858.0
860.0
866.0
875.0
885.0
893.0
896.0
893.0
888.0
880.0
874.0
874.0
877.0
878.0
879.0
882.0
886.0
889.0
896.0
908.0
923.0
943.0
968.0
995.0
1028.0
1054.0
1071.0
1079.0
