# Simple Text Format
# Sampling Rate (Hz):= 360.00
# Resolution:= 12
# Labels:= ECG
1065.0
1066.0
1060.0
1059.0
1058.0
1058.0
1059.0
1055.0
1054.0
1049.0
1048.0
1051.0
1051.0
1051.0
1047.0
1043.0
1043.0
1043.0
1045.0
1045.0
1041.0
1040.0
1040.0
1040.0
1041.0
1040.0
1037.0
1034.0
1034.0
1037.0
1038.0
1038.0
1031.0
1032.0
1029.0
1031.0
1033.0
1033.0
1030.0
1025.0
1025.0
1025.0
1026.0
1024.0
1024.0
1021.0
1019.0
1022.0
1024.0
1023.0
1022.0
1021.0
1017.0
1021.0
1023.0
1022.0
1021.0
1018.0
1020.0
1020.0
1023.0
1023.0
1020.0
1018.0
1021.0
1020.0
1024.0
1025.0
1022.0
1018.0
1020.0
1023.0
1023.0
1024.0
1023.0
1020.0
1019.0
1023.0
1024.0
1024.0
1021.0
1019.0
1020.0
1023.0
1026.0
1024.0
1022.0
1018.0
1020.0
1022.0
1026.0
1024.0
1024.0
1020.0
1020.0
1020.0
1025.0
1022.0
1024.0
1022.0
1017.0
1022.0
1024.0
1024.0
1022.0
1022.0
1023.0
1026.0
1026.0
1024.0
1023.0
1019.0
1017.0
1021.0
1024.0
1023.0
1023.0
1022.0
1021.0
1025.0
1026.0
1029.0
1026.0
1023.0
1024.0
1023.0
1028.0
1027.0
1026.0
1026.0
1027.0
1029.0
1031.0
1029.0
1029.0
1027.0
1026.0
1031.0
1034.0
1037.0
1037.0
1033.0
1035.0
1036.0
1039.0
1041.0
1039.0
1036.0
1040.0
1043.0
1045.0
1044.0
1040.0
1037.0
1036.0
1039.0
1042.0
1041.0
1040.0
1040.0
1041.0
1043.0
1046.0
1047.0
1044.0
1040.0
1039.0
1038.0
1037.0
1037.0
1030.0
1029.0
1030.0
1030.0
1032.0
1032.0
1031.0
1028.0
1028.0
1028.0
1033.0
1030.0
1028.0
1025.0
1026.0
1029.0
1032.0
1030.0
1029.0
1023.0
1025.0
1025.0
1029.0
1028.0
1029.0
1025.0
1025.0
1031.0
1028.0
1030.0
1033.0
1034.0
1041.0
1054.0
1067.0
1082.0
1095.0
1107.0
1132.0
1164.0
1200.0
1236.0
1265.0
1292.0
1317.0
1348.0
1385.0
1429.0
1467.0
1486.0
1483.0
1447.0
1361.0
1248.0
1149.0
1091.0
1065.0
1051.0
1041.0
1037.0
1033.0
1028.0
1025.0
1026.0
1024.0
1023.0
1016.0
1011.0
1008.0
1008.0
1010.0
1009.0
1008.0
1005.0
1004.0
1008.0
1007.0
1007.0
1005.0
1002.0
1006.0
1008.0
1011.0
1008.0
1008.0
1006.0
1007.0
1007.0
1013.0
1014.0
1010.0
1009.0
1009.0
1010.0
1007.0
1006.0
1008.0
1004.0
1008.0
1008.0
1011.0
1010.0
1007.0
1001.0
1002.0
1005.0
1007.0
1008.0
1007.0
1001.0
1000.0
999.0
1001.0
1001.0
1000.0
1000.0
999.0
999.0
1001.0
998.0
996.0
994.0
994.0
997.0
1000.0
999.0
998.0
994.0
996.0
996.0
1003.0
1002.0
1000.0
1003.0
1001.0
1004.0
1010.0
1010.0
1013.0
1013.0
1018.0
1022.0
1028.0
1029.0
1034.0
1033.0
1041.0
1044.0
1053.0
1054.0
1053.0
1055.0
1058.0
1061.0
1061.0
1063.0
1061.0
1059.0
1059.0
1060.0
1061.0
1060.0
1057.0
1051.0
1052.0
1053.0
1054.0
1053.0
1049.0
1046.0
1047.0
1045.0
1046.0
1049.0
1046.0
1044.0
1042.0
1044.0
1046.0
1045.0
1042.0
1041.0
1039.0
1042.0
1047.0
1046.0
1040.0
1040.0
1037.0
1041.0
1041.0
1041.0
1041.0
1037.0
1035.0
1038.0
1039.0
1037.0
1033.0
1031.0
1031.0
1034.0
1037.0
1033.0
1035.0
1028.0
1029.0
1031.0
1037.0
1035.0
1034.0
1031.0
1029.0
1027.0
1031.0
1032.0
1030.0
1028.0
1029.0
1031.0
1032.0
1031.0
1029.0
1028.0
1028.0
1031.0
1036.0
1033.0
1033.0
1029.0
1029.0
1031.0
1035.0
1034.0
1033.0
1028.0
1027.0
1033.0
1033.0
1033.0
1031.0
1028.0
1027.0
1028.0
1029.0
1027.0
1025.0
1025.0
1024.0
1026.0
1029.0
1028.0
1026.0
1022.0
1021.0
1023.0
1029.0
1028.0
1029.0
1027.0
1025.0
1025.0
1029.0
1026.0
1023.0
1022.0
1023.0
1023.0
1027.0
1027.0
1025.0
1023.0
1025.0
1029.0
1032.0
1033.0
1032.0
1033.0
1032.0
1030.0
1036.0
1035.0
1033.0
1032.0
1034.0
1039.0
1040.0
1040.0
1038.0
1034.0
1034.0
1038.0
1039.0
1038.0
1035.0
1034.0
1034.0
1038.0
1043.0
1044.0
1042.0
1042.0
1041.0
1042.0
1043.0
1039.0
1033.0
1031.0
1031.0
1033.0
1035.0
1036.0
1031.0
1029.0
1028.0
1034.0
1037.0
1032.0
1028.0
1026.0
1026.0
1031.0
1032.0
1031.0
1029.0
1027.0
1026.0
1030.0
1031.0
1030.0
1029.0
1028.0
1027.0
1030.0
1033.0
1033.0
1034.0
1031.0
1037.0
1044.0
1056.0
1064.0
1073.0
1086.0
1102.0
1120.0
1144.0
1176.0
1211.0
1241.0
1272.0
1304.0
1329.0
1351.0
1378.0
1408.0
1445.0
1472.0
1479.0
1456.0
1392.0
1289.0
1185.0
1123.0
1096.0
1072.0
1050.0
1033.0
1030.0
1029.0
1028.0
1023.0
1019.0
1016.0
1012.0
1013.0
1009.0
1006.0
1001.0
997.0
997.0
1000.0
1002.0
999.0
998.0
996.0
996.0
999.0
1000.0
999.0
997.0
996.0
996.0
999.0
1003.0
1001.0
1000.0
996.0
998.0
1001.0
1002.0
998.0
999.0
998.0
997.0
998.0
1000.0
997.0
996.0
995.0
995.0
997.0
1000.0
997.0
994.0
994.0
993.0
995.0
1000.0
999.0
993.0
990.0
989.0
993.0
996.0
994.0
990.0
988.0
987.0
989.0
989.0
989.0
989.0
986.0
987.0
992.0
992.0
992.0
988.0
987.0
989.0
992.0
996.0
999.0
998.0
998.0
1000.0
1004.0
1011.0
1011.0
1016.0
1016.0
1021.0
1026.0
1035.0
1038.0
1041.0
1042.0
1044.0
1053.0
1059.0
1060.0
1059.0
1059.0
1060.0
1064.0
1066.0
1065.0
1063.0
1058.0
1058.0
1062.0
1064.0
1060.0
1059.0
1057.0
1055.0
1050.0
1052.0
1052.0
1051.0
1044.0
1047.0
1049.0
1052.0
1052.0
1051.0
1049.0
1051.0
1053.0
1056.0
1056.0
1056.0
1051.0
1048.0
1051.0
1051.0
1049.0
1046.0
1045.0
1045.0
1048.0
1050.0
1050.0
1050.0
1046.0
1047.0
1049.0
1048.0
1045.0
1040.0
1037.0
1043.0
1046.0
1048.0
1048.0
1046.0
1041.0
1040.0
1042.0
1043.0
1043.0
1042.0
1039.0
1039.0
1042.0
1045.0
1043.0
1044.0
1042.0
1039.0
1043.0
1045.0
1046.0
1045.0
1038.0
1037.0
1039.0
1042.0
1044.0
1040.0
1038.0
1037.0
1038.0
1040.0
1038.0
1034.0
1029.0
1028.0
1032.0
1034.0
1033.0
1029.0
1025.0
1025.0
1031.0
1031.0
1029.0
1022.0
1018.0
1018.0
1021.0
1024.0
1026.0
1022.0
1017.0
1018.0
1019.0
1020.0
1021.0
1020.0
1018.0
1022.0
1025.0
1026.0
1024.0
1021.0
1020.0
1020.0
1027.0
1028.0
1029.0
1027.0
1025.0
1027.0
1031.0
1035.0
1034.0
1033.0
1031.0
1032.0
1039.0
1038.0
1038.0
1033.0
1033.0
1035.0
1032.0
1031.0
1029.0
1028.0
1028.0
1031.0
1036.0
1043.0
1040.0
1040.0
1036.0
1032.0
1033.0
1033.0
1029.0
1027.0
1021.0
1021.0
1024.0
1028.0
1027.0
1026.0
1024.0
1023.0
1023.0
1027.0
1025.0
1023.0
1021.0
1020.0
1020.0
1022.0
1024.0
1024.0
1023.0
1021.0
1026.0
1030.0
1030.0
1029.0
1027.0
1027.0
1030.0
1035.0
1035.0
1040.0
1043.0
1052.0
1063.0
1081.0
1095.0
1109.0
1124.0
1149.0
1186.0
1222.0
1252.0
1275.0
1298.0
1323.0
1356.0
1394.0
1427.0
1441.0
1427.0
1376.0
1285.0
1183.0
1115.0
1081.0
1059.0
1037.0
1023.0
1022.0
1021.0
1013.0
1011.0
1011.0
1007.0
1006.0
1005.0
1004.0
1001.0
1001.0
1002.0
1002.0
999.0
996.0
993.0
996.0
998.0
1001.0
1000.0
996.0
993.0
994.0
996.0
995.0
994.0
992.0
989.0
990.0
990.0
994.0
996.0
994.0
991.0
993.0
993.0
994.0
994.0
985.0
984.0
984.0
986.0
989.0
987.0
984.0
981.0
981.0
986.0
985.0
985.0
981.0
979.0
985.0
988.0
987.0
983.0
979.0
977.0
979.0
983.0
986.0
989.0
991.0
992.0
995.0
997.0
1004.0
1004.0
1008.0
1011.0
1015.0
1022.0
1029.0
1030.0
1036.0
1037.0
1042.0
1048.0
1050.0
1050.0
1045.0
1044.0
1048.0
1052.0
1055.0
1053.0
1050.0
1045.0
1045.0
1050.0
1052.0
1052.0
1047.0
1045.0
1046.0
1047.0
1046.0
1046.0
1042.0
1038.0
1039.0
1043.0
1046.0
1043.0
1043.0
1041.0
1040.0
1038.0
1040.0
1038.0
1037.0
1036.0
1033.0
1032.0
1032.0
1032.0
1030.0
1029.0
1030.0
1031.0
1032.0
1030.0
1029.0
1029.0
1029.0
1027.0
1030.0
1028.0
1025.0
1025.0
1029.0
1033.0
1035.0
1036.0
1031.0
1027.0
1025.0
1025.0
1022.0
1023.0
1022.0
1024.0
1024.0
1028.0
1030.0
1027.0
1028.0
1030.0
1027.0
1030.0
1031.0
1028.0
1027.0
1028.0
1029.0
1029.0
1030.0
1029.0
1028.0
1027.0
1028.0
1028.0
1033.0
1030.0
1026.0
1022.0
1025.0
1026.0
1025.0
1020.0
1015.0
1016.0
1021.0
1021.0
1024.0
1023.0
1023.0
1020.0
1017.0
1024.0
1027.0
1024.0
1022.0
1022.0
1020.0
1022.0
1022.0
1023.0
1022.0
1020.0
1021.0
1026.0
1024.0
1021.0
1020.0
1019.0
1019.0
1024.0
1028.0
1024.0
1027.0
1028.0
1028.0
1035.0
1038.0
1035.0
1034.0
1030.0
1029.0
1030.0
1032.0
1030.0
1025.0
1020.0
1021.0
1027.0
1030.0
1026.0
1029.0
1030.0
1031.0
1033.0
1036.0
1033.0
1031.0
1029.0
1025.0
1026.0
1026.0
1024.0
1020.0
1018.0
1020.0
1021.0
1024.0
1020.0
1017.0
1015.0
1012.0
1014.0
1016.0
1014.0
1011.0
1010.0
1013.0
1016.0
1018.0
1016.0
1016.0
1014.0
1018.0
1020.0
1022.0
1018.0
1019.0
1014.0
1014.0
1019.0
1025.0
1027.0
1024.0
1027.0
1033.0
1043.0
1058.0
1068.0
1079.0
1088.0
1102.0
1120.0
1146.0
1171.0
1198.0
1221.0
1245.0
1270.0
1291.0
1317.0
1346.0
1379.0
1404.0
1419.0
1402.0
1342.0
1249.0
1153.0
1093.0
1067.0
1050.0
1029.0
1010.0
1004.0
1008.0
1008.0
1006.0
1004.0
999.0
994.0
995.0
992.0
994.0
991.0
989.0
988.0
986.0
988.0
992.0
989.0
988.0
987.0
991.0
994.0
995.0
997.0
991.0
984.0
981.0
981.0
984.0
983.0
986.0
985.0
985.0
987.0
991.0
988.0
983.0
980.0
979.0
982.0
984.0
984.0
981.0
979.0
982.0
984.0
984.0
983.0
980.0
982.0
986.0
985.0
987.0
985.0
984.0
980.0
981.0
982.0
982.0
977.0
970.0
969.0
971.0
971.0
975.0
971.0
969.0
966.0
965.0
971.0
974.0
972.0
968.0
967.0
969.0
971.0
974.0
974.0
972.0
971.0
971.0
977.0
981.0
982.0
980.0
979.0
980.0
986.0
993.0
996.0
998.0
1000.0
1008.0
1015.0
1022.0
1024.0
1022.0
1018.0
1020.0
1021.0
1028.0
1031.0
1032.0
1033.0
1034.0
1037.0
1037.0
1033.0
1032.0
1031.0
1035.0
1037.0
1037.0
1037.0
1031.0
1027.0
1025.0
1028.0
1030.0
1029.0
1024.0
1019.0
1018.0
1022.0
1026.0
1024.0
1022.0
1018.0
1018.0
1022.0
1024.0
1026.0
1023.0
1018.0
1017.0
1019.0
1023.0
1020.0
1017.0
1018.0
1016.0
1018.0
1022.0
1019.0
1016.0
1015.0
1016.0
1020.0
1023.0
1024.0
1021.0
1015.0
1014.0
1014.0
1017.0
1013.0
1006.0
1005.0
1007.0
1013.0
1015.0
1015.0
1014.0
1014.0
1017.0
1020.0
1020.0
1015.0
1010.0
1007.0
1011.0
1014.0
1016.0
1014.0
1012.0
1007.0
1008.0
1008.0
1010.0
1008.0
1006.0
1007.0
1008.0
1009.0
1012.0
1010.0
1008.0
1006.0
1007.0
1008.0
1010.0
1010.0
1007.0
1005.0
1004.0
1007.0
1012.0
1009.0
1007.0
1003.0
1006.0
1006.0
1005.0
1005.0
999.0
998.0
997.0
998.0
1001.0
1000.0
1001.0
998.0
1001.0
1004.0
1005.0
1002.0
999.0
998.0
998.0
999.0
999.0
997.0
995.0
995.0
997.0
1004.0
1004.0
1000.0
1000.0
998.0
997.0
1002.0
1004.0
1004.0
1004.0
1003.0
1007.0
1009.0
1013.0
1015.0
1008.0
1005.0
1004.0
1007.0
1012.0
1012.0
1010.0
1005.0
1008.0
1011.0
1016.0
1016.0
1010.0
1009.0
1008.0
1007.0
1009.0
1012.0
1009.0
1008.0
1012.0
1017.0
1017.0
1016.0
1011.0
1009.0
1013.0
1009.0
1011.0
1007.0
1001.0
997.0
996.0
997.0
998.0
999.0
993.0
994.0
998.0
1001.0
1001.0
999.0
995.0
994.0
995.0
997.0
1001.0
1002.0
999.0
993.0
992.0
995.0
998.0
999.0
999.0
996.0
996.0
1000.0
1002.0
1006.0
1001.0
1000.0
1000.0
1006.0
1014.0
1022.0
1028.0
1038.0
1054.0
1066.0
1083.0
1096.0
1114.0
1138.0
1165.0
1188.0
1209.0
1227.0
1244.0
1258.0
1279.0
1309.0
1338.0
1361.0
1372.0
1362.0
1327.0
1264.0
1185.0
1110.0
1063.0
1039.0
1024.0
1005.0
990.0
979.0
976.0
978.0
978.0
984.0
983.0
981.0
979.0
976.0
976.0
974.0
975.0
974.0
974.0
973.0
974.0
974.0
973.0
970.0
964.0
962.0
962.0
966.0
969.0
971.0
965.0
964.0
962.0
970.0
973.0
975.0
970.0
965.0
966.0
967.0
966.0
968.0
967.0
965.0
963.0
962.0
966.0
965.0
964.0
964.0
967.0
966.0
969.0
969.0
967.0
966.0
963.0
961.0
959.0
956.0
952.0
953.0
960.0
963.0
961.0
958.0
953.0
952.0
953.0
959.0
960.0
959.0
955.0
953.0
953.0
955.0
957.0
955.0
950.0
948.0
947.0
948.0
950.0
949.0
952.0
950.0
949.0
952.0
955.0
956.0
958.0
955.0
957.0
960.0
964.0
965.0
964.0
967.0
973.0
979.0
987.0
989.0
991.0
994.0
998.0
1006.0
1010.0
1009.0
1009.0
1008.0
1011.0
1012.0
1013.0
1013.0
1013.0
1013.0
1013.0
1015.0
1012.0
1009.0
1006.0
1006.0
1007.0
1010.0
1010.0
1009.0
1008.0
1005.0
1007.0
1009.0
1012.0
1011.0
1009.0
1007.0
1007.0
1006.0
1007.0
1008.0
1005.0
1004.0
1004.0
1004.0
1006.0
1006.0
1002.0
999.0
998.0
1002.0
1004.0
1004.0
1001.0
1001.0
1003.0
1009.0
1011.0
1005.0
1001.0
1000.0
1004.0
1007.0
1012.0
1011.0
1007.0
1003.0
999.0
1008.0
1011.0
1011.0
1007.0
1004.0
1009.0
1009.0
1013.0
1013.0
1008.0
1004.0
1004.0
1006.0
1009.0
1010.0
1011.0
1010.0
1014.0
1014.0
1010.0
1007.0
1004.0
1006.0
1016.0
1021.0
1021.0
1016.0
1012.0
1006.0
1006.0
1011.0
1014.0
1011.0
1003.0
1000.0
1002.0
1005.0
1011.0
1009.0
1009.0
1006.0
1005.0
1008.0
1010.0
1014.0
1012.0
1010.0
1009.0
1004.0
1005.0
998.0
992.0
991.0
995.0
999.0
1001.0
998.0
994.0
995.0
999.0
1001.0
999.0
998.0
996.0
996.0
1003.0
1007.0
1007.0
1000.0
996.0
991.0
993.0
998.0
1004.0
1005.0
998.0
996.0
994.0
997.0
1000.0
1004.0
1002.0
1002.0
1002.0
1010.0
1020.0
1023.0
1031.0
1044.0
1062.0
1082.0
1099.0
1119.0
1147.0
1175.0
1198.0
1220.0
1239.0
1250.0
1267.0
1289.0
1316.0
1345.0
1362.0
1348.0
1297.0
1223.0
1143.0
1084.0
1053.0
1028.0
1005.0
988.0
985.0
989.0
994.0
993.0
989.0
987.0
986.0
986.0
988.0
985.0
981.0
978.0
978.0
980.0
981.0
977.0
978.0
977.0
979.0
981.0
981.0
977.0
977.0
976.0
974.0
979.0
980.0
980.0
975.0
971.0
974.0
979.0
976.0
977.0
973.0
971.0
975.0
980.0
983.0
980.0
974.0
970.0
971.0
974.0
978.0
979.0
975.0
974.0
971.0
973.0
977.0
975.0
974.0
969.0
969.0
970.0
973.0
969.0
969.0
963.0
963.0
967.0
965.0
968.0
965.0
966.0
965.0
967.0
968.0
963.0
955.0
949.0
950.0
954.0
956.0
956.0
954.0
953.0
958.0
962.0
968.0
969.0
971.0
967.0
974.0
979.0
985.0
987.0
990.0
990.0
994.0
999.0
1005.0
1008.0
1006.0
1009.0
1013.0
1018.0
1027.0
1029.0
1024.0
1020.0
1021.0
1027.0
1029.0
1029.0
1029.0
1024.0
1028.0
1027.0
1030.0
1027.0
1024.0
1020.0
1014.0
1016.0
1012.0
1014.0
1015.0
1016.0
1018.0
1020.0
1020.0
1019.0
1017.0
1016.0
1016.0
1016.0
1016.0
1017.0
1012.0
1012.0
1012.0
1016.0
1018.0
1019.0
1016.0
1016.0
1015.0
1019.0
1020.0
1018.0
1013.0
1017.0
1016.0
1018.0
1018.0
1018.0
1015.0
1014.0
1016.0
1019.0
1022.0
1018.0
1015.0
1016.0
1016.0
1020.0
1019.0
1015.0
1014.0
1017.0
1024.0
1027.0
1028.0
1022.0
1018.0
1018.0
1018.0
1021.0
1022.0
1020.0
1016.0
1015.0
1016.0
1019.0
1017.0
1015.0
1013.0
1015.0
1018.0
1018.0
1017.0
1011.0
1011.0
1013.0
1018.0
1022.0
1018.0
1013.0
1014.0
1014.0
1014.0
1015.0
1011.0
1011.0
1011.0
1012.0
1012.0
1012.0
1016.0
1016.0
1016.0
1013.0
1013.0
1016.0
1012.0
1008.0
1012.0
1012.0
1016.0
1017.0
1017.0
1014.0
1013.0
1013.0
1012.0
1014.0
1010.0
1007.0
1006.0
1008.0
1013.0
1016.0
1018.0
1020.0
1019.0
1017.0
1015.0
1013.0
1012.0
1011.0
1009.0
1008.0
1010.0
1014.0
1017.0
1020.0
1018.0
1013.0
1010.0
1013.0
1020.0
1022.0
1020.0
1015.0
1016.0
1019.0
1021.0
1018.0
1016.0
1016.0
1020.0
1028.0
1032.0
1027.0
1016.0
1013.0
1016.0
1024.0
1030.0
1029.0
1023.0
1023.0
1026.0
1033.0
1028.0
1025.0
1024.0
1027.0
1027.0
1025.0
1024.0
1024.0
1020.0
1019.0
1020.0
1021.0
1019.0
1019.0
1015.0
1009.0
1009.0
1016.0
1019.0
1020.0
1016.0
1012.0
1011.0
1012.0
1015.0
1015.0
1015.0
1014.0
1017.0
1016.0
1017.0
1017.0
1010.0
1009.0
1009.0
1014.0
1018.0
1013.0
1011.0
1013.0
1014.0
1017.0
1021.0
1028.0
1036.0
1044.0
1051.0
1061.0
1074.0
1084.0
1093.0
1114.0
1144.0
1175.0
1201.0
1221.0
1242.0
1259.0
1286.0
1318.0
1353.0
1374.0
1361.0
1317.0
1253.0
1186.0
1128.0
1086.0
1053.0
1030.0
1010.0
996.0
996.0
1001.0
1005.0
1008.0
1006.0
1007.0
1003.0
998.0
994.0
992.0
995.0
998.0
996.0
995.0
994.0
992.0
991.0
993.0
994.0
995.0
991.0
989.0
992.0
992.0
993.0
994.0
990.0
990.0
990.0
987.0
989.0
987.0
985.0
986.0
985.0
987.0
990.0
990.0
985.0
985.0
985.0
991.0
994.0
989.0
986.0
989.0
990.0
991.0
993.0
992.0
986.0
986.0
985.0
989.0
988.0
986.0
983.0
981.0
986.0
987.0
986.0
990.0
987.0
983.0
983.0
986.0
989.0
990.0
988.0
985.0
987.0
987.0
992.0
990.0
987.0
985.0
985.0
986.0
988.0
989.0
989.0
997.0
1003.0
1010.0
1013.0
1016.0
1015.0
1020.0
1027.0
1031.0
1034.0
1034.0
1032.0
1033.0
1037.0
1042.0
1046.0
1048.0
1049.0
1047.0
1047.0
1049.0
1050.0
1049.0
1044.0
1042.0
1043.0
1044.0
1045.0
1040.0
1040.0
1038.0
1044.0
1046.0
1045.0
1042.0
1035.0
1037.0
1037.0
1040.0
1040.0
1037.0
1036.0
1035.0
1035.0
1037.0
1043.0
1042.0
1036.0
1037.0
1037.0
1040.0
1042.0
1039.0
1037.0
1036.0
1039.0
1040.0
1043.0
1039.0
1040.0
1037.0
1039.0
1044.0
1043.0
1041.0
1041.0
1038.0
1037.0
1043.0
1040.0
1038.0
1035.0
1032.0
1037.0
1041.0
1043.0
1041.0
1039.0
1036.0
1038.0
1041.0
1041.0
1041.0
1039.0
1037.0
1038.0
1039.0
1041.0
1041.0
1038.0
1037.0
1037.0
1036.0
1036.0
1036.0
1036.0
1033.0
1031.0
1034.0
1036.0
1034.0
1033.0
1033.0
1032.0
1035.0
1040.0
1040.0
1039.0
1039.0
1040.0
1036.0
1029.0
1025.0
1025.0
1030.0
1033.0
1030.0
1031.0
1032.0
1033.0
1032.0
1035.0
1034.0
1036.0
1036.0
1031.0
1031.0
1033.0
1038.0
1038.0
1034.0
1033.0
1034.0
1035.0
1034.0
1038.0
1036.0
1038.0
1039.0
1041.0
1046.0
1045.0
1046.0
1042.0
1042.0
1046.0
1049.0
1049.0
1045.0
1044.0
1042.0
1047.0
1050.0
1053.0
1052.0
1048.0
1042.0
1043.0
1043.0
1048.0
1047.0
1046.0
1045.0
1046.0
1052.0
1054.0
1054.0
1047.0
1043.0
1041.0
1039.0
1038.0
1037.0
1040.0
1040.0
1041.0
1041.0
1040.0
1037.0
1037.0
1036.0
1037.0
1039.0
1040.0
1038.0
1036.0
1035.0
1035.0
1036.0
1037.0
1036.0
1037.0
1037.0
1041.0
1041.0
1043.0
1037.0
1034.0
1036.0
1038.0
1042.0
1043.0
1047.0
1049.0
1053.0
1064.0
1076.0
1089.0
1102.0
1116.0
1134.0
1159.0
1190.0
1216.0
1234.0
1253.0
1274.0
1300.0
1335.0
1363.0
1372.0
1344.0
1289.0
1214.0
1145.0
1096.0
1063.0
1040.0
1028.0
1027.0
1030.0
1032.0
1026.0
1023.0
1024.0
1028.0
1032.0
1029.0
1022.0
1016.0
1015.0
1019.0
1021.0
1018.0
1016.0
1013.0
1012.0
1015.0
1022.0
1023.0
1022.0
1018.0
1016.0
1018.0
1022.0
1024.0
1021.0
1016.0
1010.0
1009.0
1010.0
1010.0
1012.0
1011.0
1007.0
1012.0
1016.0
1017.0
1017.0
1013.0
1010.0
1011.0
1014.0
1016.0
1013.0
1010.0
1005.0
1007.0
1007.0
1008.0
1008.0
1003.0
1001.0
1000.0
1002.0
1002.0
1002.0
998.0
996.0
996.0
998.0
997.0
996.0
994.0
995.0
995.0
996.0
994.0
993.0
992.0
993.0
999.0
1005.0
1007.0
1015.0
1015.0
1017.0
1014.0
1017.0
1021.0
1023.0
1029.0
1031.0
1036.0
1040.0
1046.0
1044.0
1046.0
1048.0
1052.0
1055.0
1057.0
1057.0
1055.0
1055.0
1056.0
1056.0
1057.0
1056.0
1051.0
1052.0
1051.0
1051.0
1055.0
1050.0
1051.0
1048.0
1050.0
1049.0
1052.0
1046.0
1045.0
1045.0
1046.0
1049.0
1052.0
1049.0
1046.0
1043.0
1046.0
1049.0
1050.0
1047.0
1045.0
1045.0
1044.0
1045.0
1044.0
1047.0
1045.0
1048.0
1051.0
1051.0
1049.0
1047.0
1042.0
1045.0
1051.0
1052.0
1051.0
1047.0
1043.0
1039.0
1044.0
1049.0
1047.0
1045.0
1043.0
1043.0
1046.0
1047.0
1048.0
1046.0
1042.0
1042.0
1043.0
1049.0
1049.0
1047.0
1046.0
1042.0
1043.0
1047.0
1048.0
1046.0
1044.0
1042.0
1041.0
1044.0
1046.0
1042.0
1042.0
1038.0
1040.0
1044.0
1043.0
1043.0
1039.0
1037.0
1038.0
1039.0
1042.0
1040.0
1036.0
1032.0
1037.0
1038.0
1041.0
1039.0
1038.0
1039.0
1040.0
1041.0
1043.0
1042.0
1038.0
1036.0
1037.0
1038.0
1036.0
1037.0
1038.0
1040.0
1043.0
1045.0
1046.0
1047.0
1041.0
1044.0
1044.0
1047.0
1049.0
1048.0
1048.0
1046.0
1045.0
1045.0
1045.0
1043.0
1042.0
1042.0
1043.0
1043.0
1043.0
1043.0
1045.0
1044.0
1045.0
1048.0
1045.0
1041.0
1036.0
1035.0
1035.0
1037.0
1034.0
1036.0
1033.0
1034.0
1037.0
1037.0
1036.0
1032.0
1032.0
1031.0
1033.0
1033.0
1034.0
1030.0
1029.0
1027.0
1033.0
1036.0
1034.0
1034.0
1031.0
1031.0
1034.0
1037.0
1036.0
1035.0
1034.0
1036.0
1041.0
1052.0
1057.0
1067.0
1077.0
1091.0
1106.0
1127.0
1150.0
1179.0
1203.0
1227.0
1256.0
1278.0
1302.0
1332.0
1368.0
1387.0
1383.0
1345.0
1274.0
1193.0
1125.0
1086.0
1059.0
1038.0
1021.0
1018.0
1020.0
1023.0
1022.0
1020.0
1022.0
1019.0
1016.0
1014.0
1013.0
1012.0
1011.0
1010.0
1006.0
1006.0
1011.0
1013.0
1012.0
1008.0
1004.0
1005.0
1006.0
1010.0
1012.0
1009.0
1005.0
1001.0
1003.0
1007.0
1007.0
1005.0
1002.0
1002.0
1004.0
1005.0
1004.0
1003.0
999.0
999.0
1001.0
1004.0
1000.0
1001.0
1000.0
997.0
999.0
1003.0
1001.0
999.0
996.0
995.0
996.0
999.0
997.0
995.0
992.0
992.0
993.0
997.0
997.0
989.0
986.0
983.0
985.0
988.0
986.0
987.0
983.0
981.0
982.0
985.0
985.0
984.0
980.0
981.0
987.0
992.0
994.0
996.0
997.0
1000.0
1002.0
1008.0
1010.0
1013.0
1015.0
1018.0
1024.0
1032.0
1036.0
1039.0
1039.0
1041.0
1043.0
1050.0
1051.0
1053.0
1052.0
1050.0
1051.0
1053.0
1055.0
1053.0
1049.0
1049.0
1051.0
1052.0
1054.0
1049.0
1047.0
1046.0
1047.0
1050.0
1048.0
1046.0
1043.0
1045.0
1045.0
1046.0
1047.0
1043.0
1042.0
1039.0
1042.0
1046.0
1047.0
1046.0
1042.0
1039.0
1040.0
1043.0
1045.0
1042.0
1040.0
1043.0
1045.0
1047.0
1046.0
1042.0
1042.0
1042.0
1044.0
1045.0
1046.0
1042.0
1039.0
1042.0
1040.0
1046.0
1045.0
1043.0
1042.0
1043.0
1041.0
1040.0
1040.0
1040.0
1041.0
1043.0
1045.0
1044.0
1040.0
1039.0
1034.0
1037.0
1040.0
1042.0
1044.0
1039.0
1038.0
1038.0
1040.0
1041.0
1038.0
1039.0
1037.0
1036.0
1039.0
1043.0
1040.0
1040.0
1038.0
1039.0
1042.0
1045.0
1046.0
1043.0
1038.0
1036.0
1034.0
1038.0
1038.0
1038.0
1034.0
1036.0
1037.0
1039.0
1038.0
1036.0
1031.0
1032.0
1036.0
1039.0
1039.0
1039.0
1037.0
1036.0
1038.0
1042.0
1046.0
1044.0
1044.0
1045.0
1047.0
1049.0
1051.0
1048.0
1045.0
1042.0
1042.0
1048.0
1045.0
1042.0
1038.0
1039.0
1041.0
1044.0
1043.0
1044.0
1043.0
1043.0
1045.0
1048.0
1046.0
1044.0
1042.0
1042.0
1040.0
1040.0
1034.0
1031.0
1027.0
1027.0
1027.0
1033.0
1035.0
1036.0
1033.0
1030.0
1031.0
1035.0
1034.0
1034.0
1031.0
1027.0
1034.0
1035.0
1037.0
1034.0
1035.0
1034.0
1036.0
1037.0
1035.0
1033.0
1034.0
1039.0
1044.0
1047.0
1053.0
1061.0
1071.0
1087.0
1103.0
1122.0
1150.0
1177.0
1203.0
1229.0
1253.0
1273.0
1296.0
1321.0
1352.0
1373.0
1374.0
1342.0
1279.0
1201.0
1131.0
1086.0
1057.0
1038.0
1024.0
1016.0
1012.0
1016.0
1017.0
1018.0
1019.0
1019.0
1012.0
1011.0
1009.0
1009.0
1014.0
1012.0
1010.0
1007.0
1007.0
1008.0
1008.0
1005.0
1004.0
1003.0
1009.0
1012.0
1016.0
1013.0
1012.0
1008.0
1003.0
1005.0
1007.0
1006.0
1003.0
1005.0
1007.0
1008.0
1006.0
1003.0
998.0
999.0
1001.0
1003.0
1005.0
1004.0
997.0
997.0
994.0
996.0
997.0
996.0
988.0
986.0
985.0
992.0
993.0
991.0
985.0
984.0
981.0
988.0
986.0
982.0
983.0
979.0
986.0
990.0
993.0
993.0
994.0
998.0
1001.0
1007.0
1009.0
1012.0
1015.0
1024.0
1031.0
1037.0
1038.0
1039.0
1040.0
1042.0
1047.0
1048.0
1051.0
1051.0
1047.0
1046.0
1048.0
1051.0
1049.0
1046.0
1042.0
1043.0
1048.0
1052.0
1051.0
1047.0
1045.0
1043.0
1044.0
1044.0
1046.0
1043.0
1043.0
1042.0
1045.0
1044.0
1042.0
1039.0
1036.0
1040.0
1042.0
1046.0
1045.0
1046.0
1044.0
1044.0
1041.0
1045.0
1043.0
1041.0
1040.0
1039.0
1044.0
1048.0
1049.0
1048.0
1048.0
1047.0
1044.0
1047.0
1044.0
1047.0
1042.0
1041.0
1046.0
1052.0
1050.0
1049.0
1047.0
1046.0
1049.0
1053.0
1049.0
1048.0
1045.0
1043.0
1044.0
1047.0
1049.0
1047.0
1046.0
1048.0
1047.0
1051.0
1049.0
1047.0
1041.0
1043.0
1047.0
1049.0
1048.0
1045.0
1041.0
1043.0
1041.0
1046.0
1048.0
1046.0
1043.0
1044.0
1045.0
1048.0
1047.0
1047.0
1045.0
1043.0
1049.0
1048.0
1047.0
1043.0
1038.0
1040.0
1044.0
1042.0
1039.0
1038.0
1039.0
1040.0
1043.0
1044.0
1047.0
1045.0
1042.0
1045.0
1046.0
1051.0
1052.0
1050.0
1048.0
1050.0
1052.0
1055.0
1052.0
1049.0
1045.0
1045.0
1046.0
1051.0
1052.0
1049.0
1047.0
1047.0
1052.0
1056.0
1056.0
1052.0
1048.0
1048.0
1050.0
1049.0
1048.0
1042.0
1038.0
1041.0
1041.0
1045.0
1045.0
1043.0
1039.0
1040.0
1041.0
1043.0
1043.0
1039.0
1037.0
1034.0
1039.0
1043.0
1041.0
1038.0
1036.0
1037.0
1039.0
1043.0
1044.0
1041.0
1038.0
1040.0
1040.0
1043.0
1048.0
1049.0
1047.0
1053.0
1063.0
1073.0
1076.0
1085.0
1094.0
1106.0
1125.0
1148.0
1173.0
1199.0
1213.0
1236.0
1257.0
1278.0
1301.0
1324.0
1352.0
1370.0
1362.0
1325.0
1257.0
1183.0
1120.0
1083.0
1060.0
1041.0
1027.0
1030.0
1035.0
1039.0
1039.0
1037.0
1033.0
1033.0
1026.0
1022.0
1019.0
1018.0
1019.0
1017.0
1017.0
1015.0
1020.0
1022.0
1020.0
1020.0
1017.0
1015.0
1020.0
1020.0
1019.0
1017.0
1015.0
1016.0
1017.0
1021.0
1021.0
1018.0
1015.0
1012.0
1013.0
1014.0
1015.0
1015.0
1011.0
1010.0
1011.0
1013.0
1010.0
1008.0
1007.0
1007.0
1011.0
1014.0
1013.0
1011.0
1009.0
1006.0
1009.0
1011.0
1009.0
1007.0
1003.0
1005.0
1005.0
1008.0
1004.0
1001.0
1000.0
1001.0
1002.0
1003.0
1003.0
999.0
999.0
1001.0
1006.0
1007.0
1008.0
1003.0
998.0
996.0
1004.0
1007.0
1008.0
1007.0
1004.0
1007.0
1011.0
1012.0
1018.0
1021.0
1023.0
1023.0
1032.0
1039.0
1043.0
1046.0
1046.0
1049.0
1055.0
1060.0
1060.0
1064.0
1059.0
1062.0
1067.0
1068.0
1067.0
1066.0
1062.0
1063.0
1060.0
1063.0
1062.0
1061.0
1058.0
1059.0
1061.0
1064.0
1063.0
1060.0
1057.0
1058.0
1060.0
1062.0
1060.0
1057.0
1056.0
1056.0
1058.0
1062.0
1060.0
1058.0
1057.0
1055.0
1061.0
1062.0
1064.0
1061.0
1059.0
1057.0
1059.0
1060.0
1062.0
1059.0
1054.0
1051.0
1055.0
1059.0
1059.0
1058.0
1056.0
1056.0
1058.0
1062.0
1057.0
1059.0
1056.0
1053.0
1057.0
1062.0
1063.0
1062.0
1058.0
1059.0
1062.0
1062.0
1062.0
1060.0
1058.0
1060.0
1061.0
1062.0
1061.0
1059.0
1055.0
1056.0
1058.0
1062.0
1060.0
1059.0
1056.0
1058.0
1058.0
1061.0
1058.0
1055.0
1054.0
1053.0
1055.0
1058.0
1060.0
1053.0
1051.0
1049.0
1051.0
1056.0
1057.0
1058.0
1056.0
1058.0
1059.0
1059.0
1053.0
1050.0
1049.0
1049.0
1053.0
1053.0
1047.0
1048.0
1044.0
1044.0
1047.0
1052.0
1055.0
1057.0
1057.0
1056.0
1060.0
1063.0
1058.0
1055.0
1052.0
1055.0
1059.0
1065.0
1063.0
1065.0
1060.0
1058.0
1058.0
1065.0
1067.0
1066.0
1061.0
1063.0
1062.0
1060.0
1059.0
1056.0
1056.0
1059.0
1064.0
1066.0
1061.0
1056.0
1053.0
1051.0
1053.0
1054.0
1052.0
1052.0
1052.0
1050.0
1054.0
1055.0
1054.0
1050.0
1049.0
1046.0
1048.0
1052.0
1052.0
1051.0
1048.0
1050.0
1051.0
1054.0
1052.0
1052.0
1051.0
1051.0
1053.0
1053.0
1053.0
1047.0
1047.0
1049.0
1054.0
1059.0
1058.0
1055.0
1054.0
1060.0
1067.0
1075.0
1084.0
1092.0
1100.0
1107.0
1122.0
1138.0
1159.0
1185.0
1207.0
1229.0
1250.0
1269.0
1285.0
1302.0
1325.0
1351.0
1377.0
1383.0
1360.0
1315.0
1256.0
1194.0
1145.0
1115.0
1092.0
1068.0
1047.0
1036.0
1032.0
1040.0
1046.0
1045.0
1040.0
1039.0
1038.0
1038.0
1035.0
1034.0
1028.0
1031.0
1029.0
1033.0
1030.0
1025.0
1023.0
1025.0
1026.0
1030.0
1029.0
1026.0
1024.0
1023.0
1026.0
1028.0
1030.0
1027.0
1025.0
1025.0
1026.0
1029.0
1029.0
1025.0
1022.0
1022.0
1024.0
1028.0
