# Simple Text Format
# Sampling Rate (Hz):= 360.00
# Resolution:= 12
# Labels:= ECG
982.0
982.0
980.0
974.0
973.0
973.0
975.0
975.0
977.0
972.0
970.0
972.0
974.0
976.0
974.0
970.0
969.0
968.0
969.0
974.0
971.0
970.0
969.0
968.0
973.0
976.0
976.0
973.0
970.0
971.0
972.0
974.0
973.0
973.0
973.0
976.0
980.0
981.0
981.0
976.0
975.0
976.0
982.0
984.0
982.0
982.0
981.0
983.0
983.0
989.0
989.0
986.0
985.0
986.0
987.0
991.0
995.0
994.0
996.0
999.0
1003.0
1005.0
1006.0
1005.0
1004.0
1011.0
1017.0
1017.0
1019.0
1021.0
1020.0
1024.0
1027.0
1027.0
1023.0
1020.0
1014.0
1011.0
1011.0
1008.0
1006.0
1003.0
1000.0
999.0
999.0
999.0
1000.0
992.0
992.0
989.0
989.0
989.0
987.0
982.0
979.0
978.0
980.0
983.0
981.0
978.0
975.0
976.0
974.0
975.0
976.0
970.0
969.0
971.0
973.0
974.0
970.0
967.0
968.0
968.0
969.0
973.0
975.0
971.0
969.0
966.0
970.0
975.0
972.0
970.0
968.0
969.0
972.0
974.0
973.0
971.0
969.0
971.0
974.0
976.0
975.0
973.0
972.0
974.0
974.0
977.0
979.0
975.0
978.0
981.0
981.0
986.0
987.0
986.0
990.0
996.0
1004.0
1015.0
1025.0
1042.0
1067.0
1094.0
1128.0
1156.0
1191.0
1220.0
1251.0
1283.0
1311.0
1337.0
1344.0
1336.0
1309.0
1271.0
1218.0
1169.0
1123.0
1086.0
1056.0
1033.0
1017.0
1013.0
1010.0
1008.0
1002.0
998.0
997.0
994.0
987.0
981.0
974.0
974.0
974.0
974.0
966.0
962.0
960.0
960.0
960.0
958.0
957.0
956.0
953.0
955.0
958.0
960.0
958.0
958.0
958.0
957.0
958.0
960.0
958.0
957.0
955.0
958.0
957.0
961.0
957.0
956.0
953.0
959.0
957.0
960.0
958.0
956.0
954.0
956.0
960.0
959.0
960.0
957.0
956.0
960.0
965.0
966.0
966.0
963.0
964.0
963.0
969.0
971.0
972.0
969.0
969.0
972.0
977.0
980.0
978.0
978.0
976.0
979.0
983.0
987.0
986.0
984.0
984.0
986.0
993.0
997.0
996.0
996.0
994.0
994.0
997.0
998.0
997.0
992.0
988.0
989.0
988.0
988.0
985.0
981.0
979.0
976.0
977.0
977.0
973.0
970.0
966.0
966.0
965.0
967.0
965.0
962.0
960.0
960.0
962.0
961.0
961.0
960.0
958.0
960.0
963.0
964.0
965.0
962.0
959.0
962.0
966.0
965.0
963.0
962.0
964.0
965.0
966.0
968.0
970.0
970.0
968.0
973.0
977.0
982.0
985.0
986.0
990.0
998.0
1010.0
1027.0
1052.0
1083.0
1109.0
1142.0
1173.0
1208.0
1243.0
1275.0
1306.0
1335.0
1353.0
1360.0
1347.0
1321.0
1275.0
1221.0
1166.0
1120.0
1085.0
1056.0
1029.0
1007.0
996.0
993.0
990.0
980.0
971.0
968.0
966.0
965.0
956.0
954.0
947.0
948.0
949.0
949.0
945.0
943.0
938.0
939.0
938.0
938.0
936.0
937.0
933.0
935.0
936.0
937.0
937.0
932.0
935.0
933.0
935.0
935.0
932.0
931.0
930.0
931.0
932.0
937.0
936.0
932.0
929.0
933.0
937.0
937.0
937.0
938.0
937.0
938.0
940.0
940.0
938.0
938.0
935.0
940.0
944.0
944.0
942.0
942.0
942.0
943.0
946.0
947.0
946.0
946.0
944.0
946.0
953.0
953.0
952.0
950.0
948.0
949.0
956.0
959.0
960.0
957.0
956.0
959.0
965.0
969.0
970.0
969.0
967.0
971.0
973.0
975.0
981.0
977.0
974.0
974.0
975.0
972.0
975.0
970.0
967.0
966.0
966.0
967.0
964.0
963.0
956.0
956.0
959.0
961.0
959.0
956.0
955.0
958.0
958.0
957.0
956.0
954.0
950.0
954.0
953.0
958.0
955.0
951.0
950.0
953.0
954.0
959.0
957.0
954.0
954.0
955.0
959.0
959.0
958.0
953.0
954.0
954.0
958.0
959.0
956.0
955.0
953.0
954.0
955.0
956.0
956.0
955.0
954.0
953.0
954.0
960.0
956.0
955.0
954.0
952.0
956.0
954.0
953.0
948.0
948.0
948.0
953.0
953.0
956.0
950.0
948.0
951.0
955.0
955.0
951.0
950.0
949.0
949.0
953.0
954.0
954.0
953.0
952.0
949.0
955.0
957.0
956.0
952.0
953.0
952.0
952.0
954.0
955.0
954.0
952.0
954.0
955.0
958.0
954.0
954.0
953.0
954.0
956.0
959.0
958.0
956.0
954.0
956.0
957.0
958.0
956.0
954.0
955.0
957.0
960.0
959.0
958.0
955.0
952.0
951.0
957.0
959.0
958.0
953.0
952.0
951.0
957.0
956.0
959.0
957.0
954.0
958.0
960.0
961.0
960.0
956.0
956.0
956.0
962.0
965.0
961.0
956.0
956.0
958.0
961.0
960.0
958.0
956.0
955.0
958.0
962.0
963.0
959.0
956.0
957.0
959.0
961.0
965.0
960.0
959.0
955.0
957.0
962.0
963.0
962.0
957.0
958.0
959.0
963.0
967.0
963.0
960.0
958.0
959.0
960.0
963.0
961.0
960.0
959.0
958.0
963.0
966.0
965.0
962.0
959.0
961.0
961.0
967.0
966.0
961.0
961.0
960.0
963.0
966.0
967.0
963.0
962.0
965.0
966.0
971.0
970.0
965.0
963.0
964.0
968.0
969.0
965.0
964.0
963.0
965.0
969.0
969.0
970.0
967.0
964.0
963.0
968.0
970.0
969.0
970.0
968.0
967.0
974.0
976.0
974.0
970.0
968.0
968.0
970.0
972.0
974.0
971.0
971.0
975.0
976.0
978.0
978.0
973.0
975.0
977.0
979.0
983.0
982.0
981.0
979.0
981.0
986.0
988.0
990.0
986.0
984.0
986.0
986.0
992.0
992.0
989.0
988.0
991.0
993.0
991.0
991.0
987.0
984.0
984.0
987.0
993.0
991.0
988.0
985.0
985.0
985.0
988.0
985.0
982.0
980.0
978.0
981.0
983.0
981.0
978.0
975.0
975.0
975.0
975.0
975.0
974.0
976.0
976.0
978.0
977.0
978.0
973.0
975.0
976.0
978.0
980.0
981.0
978.0
975.0
975.0
982.0
985.0
984.0
981.0
980.0
981.0
981.0
988.0
988.0
990.0
987.0
992.0
1000.0
1006.0
1012.0
1021.0
1031.0
1058.0
1083.0
1118.0
1153.0
1186.0
1219.0
1255.0
1291.0
1328.0
1355.0
1366.0
1355.0
1326.0
1289.0
1237.0
1178.0
1130.0
1085.0
1046.0
1016.0
1006.0
998.0
1000.0
997.0
996.0
997.0
995.0
991.0
985.0
979.0
978.0
979.0
979.0
976.0
973.0
971.0
971.0
970.0
973.0
970.0
967.0
963.0
966.0
967.0
968.0
969.0
965.0
964.0
964.0
966.0
966.0
966.0
966.0
964.0
967.0
970.0
972.0
968.0
967.0
967.0
969.0
970.0
973.0
971.0
969.0
969.0
967.0
971.0
975.0
974.0
972.0
971.0
974.0
976.0
979.0
979.0
977.0
978.0
979.0
982.0
984.0
984.0
982.0
983.0
986.0
991.0
994.0
992.0
991.0
990.0
994.0
1000.0
1002.0
1003.0
1007.0
1006.0
1012.0
1015.0
1020.0
1022.0
1021.0
1023.0
1025.0
1030.0
1034.0
1033.0
1034.0
1032.0
1037.0
1036.0
1039.0
1036.0
1030.0
1027.0
1024.0
1023.0
1023.0
1018.0
1015.0
1014.0
1014.0
1013.0
1015.0
1014.0
1008.0
1006.0
1007.0
1005.0
1002.0
1001.0
999.0
995.0
994.0
996.0
996.0
995.0
992.0
987.0
985.0
988.0
990.0
989.0
984.0
980.0
978.0
984.0
987.0
986.0
979.0
982.0
981.0
986.0
988.0
986.0
983.0
982.0
985.0
986.0
991.0
988.0
984.0
984.0
985.0
989.0
990.0
992.0
988.0
985.0
987.0
992.0
991.0
993.0
991.0
989.0
992.0
993.0
995.0
995.0
993.0
993.0
995.0
1000.0
1004.0
1009.0
1012.0
1017.0
1026.0
1043.0
1065.0
1097.0
1130.0
1168.0
1212.0
1255.0
1296.0
1330.0
1352.0
1363.0
1362.0
1342.0
1294.0
1228.0
1165.0
1111.0
1065.0
1024.0
999.0
983.0
978.0
985.0
994.0
998.0
998.0
996.0
992.0
988.0
985.0
987.0
987.0
985.0
979.0
973.0
972.0
974.0
972.0
971.0
965.0
965.0
965.0
965.0
967.0
969.0
968.0
967.0
967.0
971.0
971.0
966.0
964.0
965.0
966.0
967.0
970.0
969.0
968.0
964.0
970.0
969.0
974.0
973.0
969.0
967.0
967.0
971.0
972.0
975.0
971.0
970.0
972.0
970.0
976.0
979.0
975.0
975.0
978.0
981.0
984.0
983.0
984.0
982.0
986.0
990.0
994.0
993.0
992.0
988.0
990.0
994.0
999.0
998.0
1000.0
999.0
1003.0
1006.0
1009.0
1006.0
1005.0
1002.0
1003.0
1004.0
1005.0
1000.0
996.0
991.0
990.0
989.0
990.0
986.0
981.0
980.0
979.0
979.0
979.0
976.0
977.0
973.0
974.0
975.0
975.0
974.0
968.0
967.0
971.0
973.0
973.0
975.0
969.0
968.0
970.0
974.0
977.0
976.0
974.0
975.0
975.0
981.0
981.0
980.0
978.0
979.0
977.0
981.0
984.0
985.0
983.0
984.0
988.0
991.0
997.0
1007.0
1018.0
1033.0
1063.0
1098.0
1131.0
1162.0
1196.0
1239.0
1281.0
1321.0
1346.0
1362.0
1368.0
1359.0
1335.0
1293.0
1234.0
1168.0
1120.0
1082.0
1050.0
1023.0
1001.0
991.0
986.0
983.0
973.0
970.0
967.0
963.0
956.0
952.0
954.0
954.0
953.0
952.0
947.0
947.0
946.0
948.0
946.0
945.0
945.0
943.0
942.0
944.0
946.0
942.0
940.0
936.0
940.0
940.0
942.0
939.0
938.0
936.0
937.0
939.0
942.0
939.0
938.0
937.0
936.0
937.0
940.0
937.0
936.0
934.0
931.0
937.0
936.0
934.0
933.0
931.0
931.0
934.0
934.0
931.0
929.0
930.0
929.0
932.0
933.0
934.0
931.0
928.0
932.0
935.0
936.0
935.0
934.0
932.0
938.0
940.0
947.0
950.0
952.0
953.0
954.0
958.0
962.0
961.0
960.0
963.0
962.0
965.0
964.0
964.0
963.0
960.0
960.0
959.0
961.0
959.0
957.0
956.0
957.0
959.0
962.0
960.0
958.0
955.0
955.0
959.0
960.0
960.0
956.0
955.0
956.0
959.0
962.0
960.0
957.0
952.0
952.0
956.0
957.0
956.0
958.0
956.0
955.0
958.0
960.0
960.0
957.0
954.0
952.0
958.0
957.0
959.0
957.0
952.0
953.0
956.0
958.0
956.0
954.0
951.0
951.0
953.0
956.0
957.0
951.0
949.0
953.0
956.0
958.0
955.0
953.0
951.0
952.0
954.0
954.0
956.0
950.0
945.0
949.0
951.0
953.0
953.0
948.0
949.0
950.0
948.0
954.0
953.0
950.0
947.0
945.0
951.0
950.0
950.0
948.0
947.0
949.0
952.0
954.0
952.0
948.0
948.0
949.0
951.0
954.0
953.0
952.0
949.0
949.0
954.0
954.0
952.0
953.0
949.0
949.0
950.0
956.0
954.0
950.0
948.0
951.0
953.0
956.0
954.0
951.0
951.0
952.0
954.0
958.0
954.0
952.0
949.0
951.0
956.0
957.0
957.0
954.0
951.0
954.0
957.0
961.0
957.0
956.0
953.0
956.0
956.0
960.0
958.0
957.0
955.0
956.0
958.0
959.0
958.0
955.0
955.0
955.0
959.0
961.0
961.0
956.0
955.0
954.0
960.0
962.0
961.0
958.0
958.0
960.0
962.0
962.0
961.0
961.0
960.0
960.0
962.0
962.0
963.0
959.0
958.0
961.0
963.0
963.0
962.0
957.0
961.0
959.0
966.0
966.0
961.0
960.0
960.0
960.0
962.0
962.0
964.0
962.0
959.0
960.0
961.0
967.0
964.0
964.0
961.0
962.0
964.0
965.0
966.0
963.0
962.0
965.0
965.0
966.0
962.0
965.0
965.0
963.0
969.0
970.0
971.0
972.0
968.0
973.0
974.0
976.0
978.0
976.0
975.0
973.0
976.0
977.0
980.0
977.0
974.0
975.0
980.0
981.0
978.0
978.0
975.0
974.0
976.0
979.0
977.0
972.0
968.0
967.0
968.0
970.0
968.0
963.0
962.0
964.0
965.0
966.0
965.0
962.0
959.0
961.0
965.0
966.0
967.0
963.0
964.0
965.0
963.0
968.0
967.0
962.0
963.0
964.0
968.0
968.0
968.0
966.0
965.0
968.0
969.0
971.0
973.0
970.0
968.0
974.0
978.0
985.0
988.0
991.0
996.0
1010.0
1032.0
1060.0
1089.0
1115.0
1153.0
1188.0
1228.0
1261.0
1295.0
1325.0
1343.0
1343.0
1323.0
1283.0
1226.0
1168.0
1115.0
1071.0
1038.0
1010.0
994.0
988.0
987.0
985.0
983.0
979.0
973.0
966.0
962.0
960.0
959.0
960.0
955.0
953.0
953.0
950.0
951.0
954.0
954.0
949.0
949.0
950.0
952.0
955.0
952.0
951.0
949.0
949.0
951.0
952.0
949.0
949.0
947.0
949.0
955.0
955.0
951.0
951.0
949.0
953.0
954.0
957.0
958.0
957.0
952.0
953.0
960.0
961.0
961.0
960.0
960.0
961.0
963.0
966.0
968.0
964.0
964.0
965.0
970.0
974.0
976.0
975.0
975.0
978.0
982.0
992.0
993.0
996.0
995.0
997.0
999.0
1007.0
1009.0
1010.0
1014.0
1018.0
1025.0
1031.0
1033.0
1034.0
1031.0
1030.0
1027.0
1027.0
1023.0
1018.0
1014.0
1011.0
1010.0
1010.0
1007.0
1005.0
998.0
998.0
998.0
997.0
994.0
987.0
983.0
981.0
979.0
978.0
976.0
973.0
970.0
969.0
970.0
968.0
965.0
964.0
958.0
957.0
958.0
962.0
959.0
955.0
958.0
958.0
961.0
960.0
960.0
958.0
957.0
957.0
962.0
963.0
961.0
957.0
956.0
956.0
959.0
960.0
959.0
957.0
955.0
959.0
963.0
965.0
961.0
959.0
957.0
959.0
963.0
965.0
966.0
964.0
964.0
967.0
970.0
972.0
972.0
974.0
979.0
993.0
1005.0
1029.0
1055.0
1084.0
1118.0
1156.0
1199.0
1238.0
1273.0
1306.0
1330.0
1342.0
1339.0
1311.0
1258.0
1195.0
1129.0
1076.0
1034.0
1001.0
975.0
964.0
967.0
978.0
985.0
985.0
980.0
972.0
969.0
964.0
963.0
961.0
955.0
948.0
946.0
944.0
945.0
945.0
945.0
943.0
942.0
943.0
946.0
949.0
948.0
943.0
944.0
945.0
946.0
950.0
947.0
946.0
942.0
944.0
947.0
948.0
947.0
946.0
943.0
944.0
944.0
945.0
945.0
944.0
944.0
947.0
948.0
951.0
952.0
951.0
949.0
950.0
953.0
955.0
958.0
957.0
956.0
958.0
960.0
964.0
964.0
964.0
964.0
967.0
969.0
974.0
974.0
975.0
974.0
977.0
980.0
987.0
987.0
987.0
983.0
988.0
989.0
995.0
993.0
989.0
986.0
984.0
986.0
987.0
985.0
977.0
973.0
975.0
973.0
972.0
970.0
967.0
962.0
962.0
963.0
965.0
961.0
957.0
955.0
955.0
959.0
960.0
963.0
957.0
959.0
958.0
960.0
961.0
963.0
961.0
959.0
963.0
967.0
965.0
966.0
965.0
967.0
964.0
968.0
973.0
973.0
974.0
973.0
982.0
988.0
1002.0
1016.0
1045.0
1080.0
1114.0
1154.0
1193.0
1235.0
1278.0
1318.0
1353.0
1371.0
1382.0
1374.0
1339.0
1287.0
1217.0
1150.0
1099.0
1061.0
1028.0
1001.0
987.0
981.0
980.0
970.0
966.0
957.0
953.0
950.0
951.0
948.0
944.0
939.0
937.0
940.0
942.0
938.0
933.0
931.0
928.0
933.0
937.0
937.0
933.0
928.0
932.0
932.0
933.0
933.0
932.0
930.0
931.0
932.0
932.0
931.0
924.0
927.0
929.0
932.0
932.0
935.0
930.0
929.0
930.0
933.0
932.0
931.0
927.0
927.0
930.0
932.0
933.0
931.0
927.0
925.0
930.0
931.0
932.0
933.0
933.0
930.0
930.0
934.0
937.0
933.0
933.0
929.0
931.0
938.0
941.0
946.0
948.0
949.0
952.0
956.0
961.0
961.0
958.0
955.0
957.0
962.0
963.0
961.0
955.0
955.0
954.0
957.0
959.0
954.0
952.0
952.0
950.0
953.0
953.0
954.0
951.0
950.0
951.0
953.0
957.0
954.0
951.0
950.0
947.0
952.0
954.0
954.0
953.0
948.0
952.0
953.0
956.0
955.0
951.0
952.0
953.0
955.0
952.0
955.0
953.0
950.0
952.0
952.0
956.0
958.0
953.0
952.0
952.0
953.0
956.0
955.0
952.0
947.0
950.0
955.0
957.0
955.0
953.0
950.0
948.0
950.0
953.0
955.0
948.0
948.0
949.0
952.0
953.0
952.0
949.0
947.0
948.0
948.0
953.0
952.0
949.0
945.0
950.0
950.0
953.0
952.0
949.0
947.0
947.0
952.0
953.0
951.0
949.0
950.0
948.0
953.0
954.0
955.0
952.0
950.0
947.0
947.0
952.0
952.0
949.0
947.0
949.0
952.0
954.0
954.0
950.0
945.0
945.0
952.0
954.0
953.0
951.0
946.0
947.0
952.0
950.0
952.0
950.0
950.0
952.0
956.0
954.0
957.0
951.0
950.0
949.0
952.0
954.0
952.0
950.0
945.0
949.0
949.0
954.0
952.0
950.0
947.0
948.0
953.0
958.0
955.0
951.0
950.0
949.0
953.0
955.0
950.0
949.0
950.0
950.0
951.0
954.0
951.0
946.0
947.0
949.0
946.0
951.0
950.0
948.0
949.0
951.0
957.0
957.0
955.0
949.0
949.0
949.0
952.0
952.0
950.0
950.0
949.0
951.0
952.0
955.0
955.0
950.0
952.0
952.0
954.0
956.0
955.0
953.0
952.0
951.0
956.0
959.0
957.0
951.0
950.0
953.0
956.0
958.0
957.0
951.0
951.0
951.0
955.0
956.0
957.0
954.0
951.0
955.0
955.0
960.0
961.0
957.0
957.0
957.0
959.0
962.0
963.0
959.0
956.0
959.0
963.0
966.0
965.0
965.0
963.0
965.0
967.0
969.0
969.0
965.0
965.0
966.0
971.0
971.0
971.0
967.0
965.0
966.0
970.0
970.0
969.0
966.0
964.0
963.0
965.0
967.0
962.0
957.0
953.0
954.0
956.0
959.0
954.0
953.0
951.0
951.0
954.0
955.0
956.0
951.0
948.0
950.0
956.0
956.0
956.0
954.0
952.0
953.0
957.0
959.0
955.0
955.0
954.0
952.0
957.0
962.0
959.0
957.0
955.0
956.0
958.0
961.0
961.0
957.0
958.0
963.0
969.0
975.0
982.0
986.0
999.0
1022.0
1049.0
1081.0
1113.0
1152.0
1185.0
1223.0
1258.0
1292.0
1326.0
1342.0
1339.0
1318.0
1282.0
1228.0
1169.0
1117.0
1067.0
1025.0
996.0
980.0
971.0
968.0
969.0
969.0
968.0
963.0
957.0
951.0
949.0
947.0
948.0
946.0
942.0
936.0
939.0
941.0
939.0
940.0
939.0
937.0
935.0
934.0
940.0
939.0
939.0
934.0
928.0
931.0
936.0
941.0
939.0
935.0
932.0
936.0
938.0
940.0
941.0
937.0
936.0
939.0
941.0
941.0
939.0
939.0
936.0
939.0
940.0
944.0
942.0
944.0
943.0
944.0
949.0
953.0
950.0
949.0
951.0
955.0
958.0
961.0
959.0
959.0
958.0
961.0
965.0
967.0
972.0
972.0
974.0
981.0
987.0
991.0
987.0
991.0
988.0
994.0
999.0
1005.0
1006.0
1006.0
1010.0
1016.0
1020.0
1021.0
1023.0
1016.0
1014.0
1012.0
1010.0
1012.0
1009.0
1003.0
996.0
994.0
992.0
995.0
992.0
988.0
981.0
981.0
982.0
979.0
978.0
971.0
970.0
965.0
965.0
967.0
964.0
961.0
957.0
957.0
958.0
958.0
955.0
950.0
949.0
946.0
948.0
952.0
951.0
949.0
947.0
948.0
950.0
951.0
951.0
948.0
945.0
945.0
948.0
950.0
951.0
948.0
944.0
947.0
950.0
953.0
950.0
947.0
948.0
948.0
948.0
954.0
953.0
951.0
952.0
952.0
952.0
955.0
954.0
953.0
954.0
956.0
957.0
959.0
960.0
960.0
957.0
959.0
963.0
967.0
970.0
973.0
982.0
997.0
1017.0
1046.0
1079.0
1111.0
1141.0
1178.0
1213.0
1248.0
1277.0
1303.0
1320.0
1320.0
1306.0
1271.0
1217.0
1156.0
1104.0
1062.0
1034.0
1006.0
982.0
967.0
965.0
970.0
975.0
979.0
974.0
964.0
960.0
956.0
953.0
954.0
945.0
939.0
936.0
935.0
934.0
937.0
935.0
932.0
927.0
931.0
932.0
936.0
937.0
934.0
933.0
931.0
935.0
938.0
938.0
934.0
928.0
932.0
933.0
935.0
936.0
934.0
930.0
929.0
932.0
936.0
932.0
931.0
929.0
930.0
933.0
935.0
933.0
932.0
934.0
935.0
937.0
943.0
942.0
939.0
939.0
941.0
943.0
949.0
947.0
947.0
946.0
947.0
948.0
954.0
956.0
952.0
954.0
957.0
961.0
963.0
963.0
959.0
959.0
963.0
967.0
972.0
973.0
971.0
972.0
976.0
979.0
982.0
981.0
979.0
978.0
978.0
980.0
981.0
979.0
974.0
971.0
970.0
969.0
968.0
965.0
959.0
959.0
956.0
956.0
957.0
955.0
947.0
948.0
946.0
947.0
947.0
944.0
945.0
945.0
943.0
949.0
948.0
947.0
945.0
943.0
942.0
946.0
949.0
949.0
945.0
946.0
945.0
946.0
953.0
953.0
949.0
949.0
949.0
952.0
956.0
953.0
951.0
950.0
950.0
953.0
956.0
955.0
953.0
955.0
957.0
959.0
962.0
964.0
967.0
970.0
980.0
990.0
1011.0
1035.0
1064.0
1097.0
1131.0
1164.0
1201.0
1244.0
1277.0
1307.0
1332.0
1345.0
1344.0
1327.0
1290.0
1231.0
1167.0
1110.0
1067.0
1037.0
1010.0
988.0
971.0
968.0
967.0
965.0
957.0
951.0
944.0
942.0
943.0
934.0
931.0
928.0
930.0
930.0
931.0
928.0
921.0
921.0
926.0
926.0
928.0
926.0
926.0
921.0
928.0
929.0
930.0
928.0
926.0
925.0
926.0
928.0
928.0
926.0
921.0
919.0
922.0
926.0
927.0
928.0
927.0
920.0
923.0
927.0
931.0
928.0
926.0
923.0
927.0
929.0
933.0
931.0
928.0
927.0
926.0
928.0
931.0
931.0
929.0
925.0
927.0
931.0
933.0
933.0
929.0
928.0
931.0
931.0
933.0
932.0
929.0
928.0
931.0
936.0
939.0
941.0
940.0
943.0
946.0
950.0
955.0
957.0
955.0
955.0
956.0
959.0
959.0
960.0
957.0
952.0
954.0
952.0
955.0
957.0
953.0
950.0
951.0
951.0
955.0
949.0
946.0
947.0
946.0
946.0
948.0
948.0
943.0
942.0
946.0
948.0
950.0
947.0
943.0
940.0
939.0
947.0
948.0
945.0
946.0
944.0
943.0
943.0
948.0
946.0
944.0
942.0
942.0
946.0
950.0
946.0
942.0
942.0
944.0
947.0
950.0
949.0
944.0
943.0
944.0
947.0
950.0
949.0
944.0
943.0
941.0
947.0
950.0
949.0
948.0
942.0
944.0
945.0
948.0
944.0
943.0
941.0
942.0
946.0
946.0
946.0
944.0
940.0
940.0
943.0
944.0
946.0
944.0
939.0
942.0
946.0
950.0
944.0
944.0
942.0
943.0
944.0
950.0
946.0
943.0
940.0
941.0
945.0
946.0
950.0
947.0
947.0
945.0
947.0
948.0
946.0
945.0
944.0
945.0
949.0
950.0
950.0
947.0
946.0
948.0
948.0
948.0
951.0
947.0
942.0
945.0
947.0
950.0
951.0
949.0
943.0
949.0
950.0
952.0
951.0
949.0
947.0
946.0
952.0
953.0
952.0
952.0
951.0
948.0
950.0
950.0
949.0
948.0
948.0
949.0
952.0
955.0
953.0
951.0
947.0
947.0
953.0
955.0
954.0
951.0
951.0
952.0
953.0
958.0
954.0
952.0
949.0
954.0
954.0
958.0
957.0
954.0
951.0
954.0
955.0
957.0
952.0
953.0
951.0
953.0
957.0
959.0
955.0
953.0
950.0
953.0
955.0
956.0
957.0
953.0
951.0
953.0
953.0
955.0
955.0
954.0
949.0
954.0
955.0
953.0
953.0
950.0
950.0
951.0
954.0
954.0
956.0
952.0
950.0
953.0
957.0
958.0
959.0
953.0
951.0
953.0
958.0
959.0
960.0
958.0
959.0
963.0
967.0
968.0
964.0
961.0
962.0
965.0
970.0
972.0
974.0
973.0
969.0
970.0
971.0
973.0
971.0
966.0
965.0
965.0
969.0
970.0
966.0
961.0
961.0
958.0
960.0
960.0
960.0
956.0
954.0
954.0
957.0
960.0
958.0
953.0
952.0
951.0
952.0
955.0
955.0
954.0
951.0
952.0
956.0
957.0
958.0
953.0
954.0
954.0
957.0
958.0
960.0
957.0
955.0
957.0
958.0
959.0
957.0
955.0
952.0
953.0
960.0
965.0
964.0
964.0
960.0
963.0
968.0
972.0
976.0
978.0
982.0
988.0
1002.0
1029.0
1053.0
1081.0
1118.0
1156.0
1196.0
1232.0
1266.0
1299.0
1330.0
1355.0
1365.0
1352.0
1320.0
1271.0
1211.0
1157.0
1103.0
1058.0
1017.0
985.0
966.0
964.0
968.0
973.0
968.0
965.0
959.0
958.0
956.0
954.0
951.0
946.0
944.0
940.0
943.0
945.0
943.0
940.0
938.0
938.0
942.0
942.0
942.0
938.0
936.0
937.0
940.0
941.0
940.0
937.0
935.0
937.0
939.0
942.0
940.0
935.0
935.0
939.0
944.0
946.0
945.0
940.0
939.0
942.0
944.0
949.0
947.0
944.0
941.0
948.0
951.0
949.0
949.0
945.0
945.0
948.0
952.0
957.0
957.0
957.0
954.0
957.0
963.0
967.0
965.0
965.0
969.0
975.0
981.0
983.0
981.0
977.0
980.0
987.0
993.0
997.0
998.0
997.0
999.0
1004.0
1009.0
1008.0
1006.0
1002.0
999.0
997.0
996.0
996.0
992.0
990.0
988.0
989.0
992.0
993.0
990.0
985.0
981.0
982.0
982.0
985.0
980.0
974.0
969.0
971.0
972.0
971.0
968.0
964.0
960.0
960.0
961.0
961.0
958.0
954.0
952.0
952.0
953.0
955.0
952.0
950.0
948.0
949.0
952.0
953.0
953.0
949.0
947.0
950.0
955.0
954.0
952.0
950.0
950.0
954.0
958.0
959.0
958.0
957.0
954.0
952.0
960.0
961.0
961.0
961.0
957.0
960.0
964.0
960.0
963.0
961.0
961.0
962.0
964.0
970.0
967.0
970.0
971.0
980.0
987.0
1001.0
1015.0
1032.0
1055.0
1093.0
1131.0
1174.0
1211.0
1246.0
1277.0
1306.0
1329.0
1329.0
1303.0
1258.0
1192.0
1129.0
1075.0
1034.0
999.0
977.0
965.0
967.0
972.0
970.0
964.0
957.0
950.0
949.0
949.0
949.0
943.0
939.0
937.0
936.0
939.0
941.0
940.0
934.0
932.0
935.0
939.0
940.0
938.0
935.0
932.0
932.0
937.0
938.0
939.0
936.0
933.0
935.0
936.0
941.0
940.0
938.0
936.0
940.0
944.0
947.0
945.0
944.0
938.0
944.0
946.0
951.0
950.0
948.0
948.0
950.0
953.0
955.0
955.0
953.0
957.0
959.0
963.0
967.0
965.0
964.0
964.0
968.0
972.0
975.0
975.0
974.0
972.0
975.0
982.0
984.0
980.0
980.0
981.0
986.0
991.0
996.0
995.0
996.0
995.0
997.0
997.0
995.0
991.0
987.0
979.0
977.0
980.0
977.0
972.0
970.0
965.0
965.0
967.0
966.0
961.0
957.0
956.0
955.0
956.0
955.0
953.0
950.0
948.0
950.0
953.0
954.0
951.0
950.0
947.0
947.0
949.0
953.0
951.0
946.0
946.0
950.0
951.0
951.0
952.0
949.0
946.0
951.0
950.0
952.0
952.0
950.0
949.0
948.0
950.0
950.0
950.0
947.0
949.0
946.0
951.0
956.0
954.0
952.0
949.0
949.0
950.0
955.0
953.0
951.0
949.0
952.0
955.0
953.0
951.0
950.0
947.0
947.0
950.0
950.0
952.0
947.0
946.0
949.0
948.0
953.0
952.0
950.0
948.0
947.0
951.0
950.0
952.0
948.0
944.0
946.0
948.0
949.0
949.0
947.0
947.0
946.0
950.0
952.0
951.0
946.0
946.0
948.0
950.0
950.0
950.0
950.0
949.0
951.0
952.0
950.0
951.0
951.0
951.0
949.0
951.0
954.0
954.0
951.0
949.0
948.0
953.0
955.0
955.0
952.0
951.0
949.0
949.0
952.0
951.0
948.0
949.0
950.0
952.0
953.0
956.0
953.0
951.0
953.0
954.0
958.0
958.0
954.0
952.0
950.0
955.0
956.0
954.0
951.0
951.0
952.0
955.0
956.0
956.0
954.0
954.0
949.0
952.0
957.0
955.0
955.0
950.0
952.0
955.0
957.0
958.0
955.0
951.0
953.0
956.0
959.0
957.0
955.0
950.0
952.0
955.0
958.0
959.0
956.0
953.0
952.0
956.0
957.0
957.0
955.0
953.0
956.0
956.0
960.0
958.0
956.0
955.0
956.0
958.0
961.0
960.0
958.0
956.0
958.0
959.0
962.0
960.0
957.0
955.0
955.0
960.0
960.0
962.0
957.0
953.0
954.0
958.0
960.0
960.0
956.0
956.0
958.0
960.0
961.0
963.0
959.0
956.0
957.0
962.0
962.0
959.0
955.0
955.0
959.0
961.0
964.0
963.0
957.0
957.0
956.0
962.0
965.0
965.0
962.0
958.0
959.0
962.0
964.0
963.0
960.0
959.0
960.0
963.0
965.0
965.0
961.0
960.0
961.0
966.0
966.0
966.0
962.0
959.0
959.0
962.0
965.0
958.0
958.0
957.0
961.0
966.0
967.0
965.0
961.0
958.0
959.0
966.0
967.0
965.0
959.0
960.0
961.0
964.0
963.0
965.0
961.0
957.0
964.0
967.0
968.0
966.0
964.0
963.0
964.0
965.0
968.0
966.0
964.0
963.0
963.0
962.0
964.0
963.0
963.0
963.0
965.0
967.0
964.0
966.0
963.0
963.0
965.0
968.0
968.0
967.0
965.0
965.0
966.0
967.0
969.0
971.0
968.0
963.0
966.0
969.0
971.0
969.0
968.0
966.0
968.0
970.0
974.0
971.0
968.0
966.0
968.0
972.0
973.0
971.0
970.0
967.0
969.0
972.0
975.0
971.0
974.0
971.0
975.0
977.0
976.0
974.0
971.0
974.0
977.0
977.0
981.0
984.0
982.0
982.0
982.0
986.0
985.0
988.0
983.0
983.0
990.0
991.0
992.0
991.0
985.0
983.0
985.0
990.0
989.0
989.0
985.0
985.0
982.0
986.0
986.0
984.0
980.0
977.0
977.0
976.0
980.0
977.0
976.0
973.0
970.0
972.0
975.0
975.0
973.0
971.0
973.0
