# Simple Text Format
# Sampling Rate (Hz):= 360.00
# Resolution:= 12
# Labels:= ECG
967.0
969.0
972.0
976.0
977.0
970.0
970.0
972.0
972.0
974.0
973.0
972.0
971.0
972.0
974.0
976.0
975.0
974.0
972.0
975.0
976.0
981.0
977.0
977.0
975.0
974.0
975.0
982.0
979.0
977.0
973.0
976.0
978.0
978.0
980.0
976.0
971.0
972.0
980.0
983.0
979.0
982.0
978.0
978.0
982.0
985.0
984.0
980.0
982.0
981.0
985.0
989.0
987.0
984.0
986.0
989.0
991.0
993.0
994.0
993.0
992.0
990.0
994.0
1000.0
997.0
994.0
988.0
990.0
996.0
999.0
995.0
993.0
991.0
987.0
986.0
989.0
989.0
987.0
983.0
985.0
986.0
987.0
985.0
986.0
981.0
980.0
983.0
984.0
980.0
979.0
977.0
978.0
978.0
980.0
979.0
975.0
973.0
975.0
977.0
979.0
979.0
978.0
972.0
974.0
977.0
982.0
979.0
978.0
975.0
977.0
978.0
981.0
982.0
979.0
980.0
979.0
985.0
991.0
994.0
994.0
1000.0
1006.0
1012.0
1023.0
1038.0
1057.0
1076.0
1098.0
1121.0
1151.0
1172.0
1190.0
1210.0
1233.0
1252.0
1248.0
1226.0
1187.0
1143.0
1099.0
1062.0
1033.0
1008.0
987.0
979.0
979.0
985.0
991.0
991.0
988.0
982.0
981.0
981.0
982.0
980.0
978.0
973.0
973.0
977.0
979.0
978.0
975.0
972.0
975.0
977.0
982.0
981.0
980.0
977.0
978.0
982.0
983.0
981.0
979.0
977.0
977.0
981.0
984.0
982.0
982.0
979.0
980.0
982.0
985.0
986.0
983.0
980.0
976.0
980.0
987.0
985.0
986.0
983.0
981.0
983.0
988.0
991.0
989.0
986.0
988.0
993.0
996.0
996.0
995.0
996.0
1000.0
1001.0
1008.0
1012.0
1009.0
1007.0
1012.0
1017.0
1023.0
1021.0
1023.0
1020.0
1026.0
1029.0
1034.0
1034.0
1036.0
1034.0
1038.0
1043.0
1046.0
1046.0
1048.0
1045.0
1045.0
1046.0
1047.0
1046.0
1052.0
1048.0
1045.0
1043.0
1041.0
1036.0
1030.0
1030.0
1022.0
1024.0
1021.0
1017.0
1012.0
1005.0
1000.0
1000.0
998.0
997.0
993.0
987.0
984.0
985.0
988.0
986.0
983.0
979.0
976.0
980.0
984.0
984.0
979.0
975.0
977.0
975.0
978.0
978.0
976.0
973.0
975.0
978.0
981.0
979.0
979.0
975.0
974.0
979.0
980.0
981.0
980.0
978.0
979.0
980.0
983.0
983.0
984.0
982.0
983.0
985.0
987.0
987.0
984.0
980.0
981.0
984.0
986.0
986.0
983.0
983.0
981.0
984.0
989.0
987.0
983.0
981.0
981.0
983.0
986.0
983.0
981.0
981.0
981.0
982.0
984.0
983.0
980.0
978.0
978.0
979.0
982.0
980.0
977.0
973.0
973.0
975.0
978.0
975.0
972.0
971.0
971.0
971.0
973.0
972.0
969.0
968.0
967.0
968.0
972.0
973.0
971.0
970.0
971.0
973.0
974.0
973.0
970.0
970.0
969.0
972.0
972.0
973.0
970.0
968.0
969.0
974.0
970.0
970.0
967.0
969.0
969.0
973.0
972.0
974.0
970.0
968.0
967.0
971.0
970.0
971.0
970.0
968.0
968.0
969.0
972.0
971.0
970.0
966.0
968.0
973.0
974.0
972.0
972.0
968.0
967.0
970.0
972.0
970.0
969.0
967.0
964.0
965.0
968.0
967.0
964.0
964.0
964.0
966.0
965.0
969.0
967.0
967.0
964.0
966.0
967.0
965.0
964.0
961.0
960.0
966.0
967.0
967.0
963.0
962.0
963.0
965.0
967.0
967.0
962.0
956.0
960.0
964.0
966.0
962.0
959.0
958.0
959.0
962.0
965.0
963.0
963.0
962.0
959.0
964.0
964.0
964.0
962.0
962.0
962.0
964.0
968.0
969.0
969.0
969.0
970.0
973.0
978.0
976.0
974.0
977.0
976.0
977.0
978.0
976.0
973.0
973.0
972.0
975.0
981.0
974.0
973.0
971.0
970.0
973.0
974.0
972.0
967.0
966.0
968.0
970.0
972.0
969.0
963.0
963.0
964.0
966.0
966.0
965.0
959.0
959.0
958.0
960.0
963.0
960.0
959.0
956.0
957.0
960.0
962.0
960.0
958.0
956.0
959.0
959.0
962.0
964.0
962.0
958.0
955.0
960.0
963.0
966.0
965.0
966.0
973.0
977.0
990.0
1000.0
1011.0
1034.0
1061.0
1087.0
1118.0
1147.0
1173.0
1195.0
1220.0
1247.0
1263.0
1262.0
1235.0
1193.0
1146.0
1099.0
1059.0
1020.0
989.0
968.0
960.0
962.0
967.0
966.0
962.0
958.0
955.0
955.0
954.0
953.0
949.0
947.0
949.0
948.0
949.0
948.0
946.0
942.0
942.0
942.0
947.0
943.0
943.0
941.0
942.0
944.0
947.0
944.0
942.0
938.0
942.0
942.0
948.0
946.0
944.0
942.0
943.0
948.0
948.0
949.0
948.0
946.0
947.0
950.0
951.0
951.0
951.0
949.0
952.0
954.0
957.0
959.0
960.0
956.0
958.0
960.0
966.0
968.0
964.0
962.0
965.0
968.0
976.0
976.0
975.0
974.0
974.0
980.0
985.0
985.0
982.0
980.0
985.0
991.0
998.0
995.0
990.0
992.0
994.0
1000.0
1004.0
1002.0
999.0
996.0
999.0
999.0
999.0
1000.0
990.0
986.0
981.0
982.0
979.0
976.0
969.0
962.0
961.0
960.0
962.0
957.0
949.0
945.0
944.0
943.0
942.0
939.0
934.0
931.0
932.0
933.0
933.0
928.0
928.0
927.0
926.0
927.0
929.0
931.0
925.0
924.0
925.0
930.0
931.0
933.0
928.0
928.0
931.0
932.0
935.0
936.0
931.0
929.0
931.0
931.0
934.0
937.0
937.0
934.0
937.0
939.0
943.0
941.0
939.0
935.0
936.0
940.0
944.0
946.0
944.0
940.0
940.0
942.0
943.0
940.0
936.0
932.0
933.0
933.0
932.0
931.0
929.0
923.0
922.0
923.0
922.0
920.0
918.0
917.0
916.0
916.0
924.0
922.0
919.0
917.0
922.0
923.0
925.0
922.0
920.0
919.0
921.0
924.0
927.0
924.0
920.0
918.0
919.0
920.0
925.0
919.0
918.0
916.0
915.0
920.0
924.0
919.0
917.0
913.0
914.0
917.0
918.0
922.0
914.0
913.0
913.0
917.0
921.0
920.0
918.0
915.0
916.0
921.0
922.0
922.0
918.0
914.0
915.0
918.0
924.0
923.0
918.0
918.0
919.0
923.0
925.0
924.0
923.0
921.0
923.0
924.0
930.0
927.0
926.0
923.0
925.0
926.0
932.0
931.0
928.0
923.0
926.0
929.0
928.0
925.0
925.0
923.0
924.0
927.0
929.0
928.0
926.0
921.0
926.0
924.0
931.0
932.0
929.0
926.0
928.0
929.0
933.0
932.0
928.0
927.0
928.0
930.0
932.0
933.0
932.0
932.0
930.0
934.0
937.0
935.0
932.0
931.0
931.0
935.0
939.0
936.0
936.0
939.0
939.0
940.0
945.0
945.0
944.0
945.0
948.0
952.0
956.0
954.0
951.0
951.0
951.0
951.0
952.0
950.0
951.0
951.0
951.0
947.0
949.0
947.0
944.0
942.0
941.0
946.0
947.0
945.0
944.0
939.0
934.0
937.0
942.0
939.0
934.0
933.0
931.0
934.0
937.0
934.0
933.0
931.0
931.0
932.0
937.0
935.0
936.0
931.0
932.0
936.0
938.0
938.0
937.0
937.0
938.0
942.0
943.0
944.0
946.0
945.0
948.0
955.0
960.0
963.0
967.0
973.0
987.0
1008.0
1035.0
1057.0
1085.0
1112.0
1137.0
1162.0
1192.0
1220.0
1231.0
1223.0
1188.0
1149.0
1103.0
1058.0
1017.0
980.0
954.0
943.0
943.0
946.0
952.0
947.0
946.0
944.0
944.0
940.0
935.0
933.0
932.0
936.0
937.0
935.0
935.0
932.0
932.0
934.0
935.0
935.0
934.0
932.0
933.0
935.0
935.0
933.0
929.0
928.0
928.0
932.0
936.0
935.0
934.0
928.0
932.0
936.0
937.0
939.0
938.0
938.0
939.0
945.0
949.0
947.0
946.0
944.0
945.0
948.0
947.0
950.0
950.0
950.0
953.0
953.0
959.0
957.0
956.0
957.0
955.0
963.0
967.0
969.0
968.0
972.0
975.0
979.0
984.0
988.0
989.0
988.0
991.0
995.0
997.0
1000.0
999.0
1000.0
1004.0
1008.0
1013.0
1015.0
1014.0
1011.0
1011.0
1013.0
1014.0
1016.0
1011.0
1005.0
1002.0
1000.0
1002.0
997.0
990.0
983.0
979.0
978.0
978.0
973.0
966.0
962.0
959.0
962.0
958.0
959.0
960.0
955.0
954.0
955.0
958.0
955.0
952.0
948.0
950.0
949.0
955.0
953.0
949.0
944.0
943.0
949.0
950.0
949.0
944.0
942.0
946.0
951.0
954.0
954.0
952.0
950.0
949.0
952.0
957.0
955.0
954.0
951.0
949.0
952.0
955.0
955.0
957.0
956.0
957.0
956.0
957.0
957.0
954.0
954.0
956.0
960.0
960.0
959.0
958.0
956.0
955.0
957.0
961.0
959.0
956.0
951.0
953.0
958.0
960.0
956.0
952.0
950.0
947.0
949.0
951.0
949.0
948.0
947.0
949.0
950.0
955.0
950.0
951.0
950.0
948.0
948.0
954.0
954.0
950.0
946.0
948.0
949.0
953.0
951.0
948.0
945.0
948.0
947.0
951.0
951.0
948.0
948.0
946.0
948.0
953.0
953.0
948.0
947.0
945.0
951.0
954.0
953.0
951.0
950.0
949.0
951.0
952.0
951.0
946.0
949.0
948.0
948.0
951.0
949.0
949.0
948.0
948.0
951.0
954.0
953.0
949.0
947.0
948.0
946.0
954.0
956.0
950.0
947.0
944.0
951.0
955.0
952.0
952.0
948.0
948.0
950.0
955.0
952.0
950.0
949.0
951.0
953.0
955.0
956.0
952.0
949.0
951.0
954.0
957.0
959.0
958.0
955.0
954.0
955.0
961.0
958.0
957.0
955.0
955.0
957.0
961.0
959.0
956.0
955.0
955.0
956.0
959.0
959.0
957.0
952.0
955.0
959.0
963.0
961.0
962.0
961.0
963.0
965.0
968.0
971.0
966.0
964.0
965.0
968.0
972.0
975.0
974.0
971.0
973.0
975.0
978.0
979.0
975.0
970.0
969.0
973.0
974.0
971.0
966.0
963.0
960.0
962.0
964.0
964.0
961.0
957.0
957.0
957.0
957.0
954.0
951.0
947.0
949.0
953.0
956.0
952.0
947.0
948.0
951.0
954.0
957.0
955.0
953.0
952.0
952.0
955.0
956.0
955.0
953.0
952.0
955.0
956.0
962.0
962.0
959.0
957.0
960.0
964.0
971.0
977.0
982.0
985.0
994.0
1016.0
1041.0
1068.0
1096.0
1123.0
1156.0
1185.0
1215.0
1244.0
1267.0
1285.0
1277.0
1255.0
1213.0
1160.0
1108.0
1062.0
1028.0
995.0
976.0
965.0
960.0
965.0
970.0
973.0
972.0
969.0
964.0
961.0
957.0
960.0
961.0
959.0
958.0
955.0
952.0
954.0
958.0
958.0
954.0
952.0
954.0
956.0
957.0
955.0
954.0
952.0
951.0
957.0
956.0
956.0
955.0
954.0
954.0
955.0
958.0
952.0
949.0
950.0
952.0
953.0
957.0
959.0
960.0
957.0
961.0
966.0
968.0
966.0
967.0
967.0
970.0
974.0
980.0
980.0
978.0
982.0
983.0
985.0
991.0
992.0
991.0
992.0
994.0
998.0
1005.0
1006.0
1007.0
1006.0
1010.0
1012.0
1020.0
1020.0
1024.0
1024.0
1025.0
1029.0
1034.0
1035.0
1035.0
1034.0
1033.0
1035.0
1042.0
1038.0
1035.0
1029.0
1026.0
1027.0
1026.0
1023.0
1014.0
1008.0
1002.0
1001.0
999.0
994.0
988.0
978.0
975.0
970.0
973.0
969.0
960.0
955.0
955.0
955.0
959.0
954.0
949.0
947.0
944.0
950.0
951.0
950.0
949.0
944.0
942.0
947.0
953.0
949.0
947.0
945.0
944.0
949.0
952.0
952.0
951.0
948.0
949.0
951.0
955.0
953.0
950.0
949.0
952.0
954.0
959.0
959.0
961.0
957.0
958.0
960.0
961.0
961.0
960.0
959.0
960.0
958.0
965.0
967.0
963.0
958.0
964.0
967.0
967.0
967.0
960.0
958.0
959.0
961.0
962.0
962.0
958.0
958.0
958.0
962.0
962.0
959.0
960.0
958.0
957.0
958.0
956.0
957.0
957.0
950.0
952.0
955.0
955.0
956.0
953.0
955.0
954.0
953.0
953.0
956.0
952.0
949.0
949.0
953.0
955.0
951.0
952.0
949.0
949.0
951.0
956.0
954.0
952.0
947.0
950.0
954.0
956.0
955.0
951.0
950.0
952.0
954.0
954.0
951.0
951.0
950.0
951.0
951.0
953.0
953.0
949.0
946.0
949.0
951.0
952.0
950.0
949.0
948.0
948.0
953.0
955.0
953.0
952.0
951.0
948.0
951.0
951.0
954.0
952.0
949.0
949.0
951.0
953.0
951.0
950.0
949.0
951.0
954.0
953.0
954.0
952.0
950.0
952.0
956.0
960.0
959.0
958.0
958.0
959.0
959.0
959.0
958.0
957.0
953.0
951.0
955.0
954.0
954.0
949.0
949.0
949.0
952.0
954.0
958.0
952.0
951.0
949.0
953.0
955.0
953.0
950.0
950.0
952.0
956.0
958.0
958.0
952.0
954.0
954.0
957.0
958.0
958.0
959.0
958.0
960.0
966.0
970.0
967.0
968.0
963.0
971.0
975.0
979.0
978.0
978.0
978.0
979.0
982.0
984.0
984.0
981.0
978.0
979.0
981.0
983.0
979.0
976.0
973.0
969.0
974.0
976.0
971.0
967.0
963.0
962.0
970.0
969.0
966.0
961.0
957.0
958.0
961.0
963.0
962.0
959.0
957.0
959.0
963.0
965.0
966.0
964.0
958.0
963.0
965.0
968.0
969.0
965.0
959.0
965.0
967.0
970.0
971.0
969.0
965.0
967.0
968.0
974.0
977.0
975.0
977.0
980.0
986.0
994.0
999.0
1007.0
1020.0
1039.0
1066.0
1092.0
1118.0
1146.0
1168.0
1193.0
1218.0
1246.0
1270.0
1278.0
1269.0
1245.0
1212.0
1173.0
1124.0
1080.0
1042.0
1010.0
986.0
973.0
970.0
972.0
975.0
975.0
974.0
975.0
970.0
966.0
964.0
962.0
962.0
965.0
964.0
961.0
959.0
958.0
957.0
959.0
958.0
955.0
953.0
955.0
956.0
962.0
960.0
957.0
957.0
959.0
960.0
962.0
960.0
960.0
956.0
959.0
963.0
966.0
964.0
960.0
960.0
962.0
965.0
967.0
967.0
962.0
957.0
965.0
966.0
972.0
973.0
970.0
970.0
971.0
973.0
979.0
980.0
977.0
975.0
979.0
983.0
991.0
990.0
986.0
983.0
986.0
992.0
998.0
999.0
995.0
993.0
993.0
998.0
1007.0
1008.0
1006.0
1007.0
1006.0
1011.0
1016.0
1021.0
1017.0
1016.0
1017.0
1023.0
1029.0
1028.0
1031.0
1025.0
1025.0
1030.0
1034.0
1034.0
1030.0
1029.0
1029.0
1025.0
1028.0
1025.0
1022.0
1018.0
1013.0
1011.0
1015.0
1006.0
1004.0
995.0
992.0
991.0
991.0
988.0
984.0
978.0
975.0
972.0
974.0
972.0
970.0
967.0
966.0
966.0
967.0
969.0
964.0
962.0
962.0
962.0
965.0
967.0
964.0
962.0
960.0
962.0
964.0
965.0
963.0
961.0
959.0
962.0
963.0
960.0
962.0
960.0
958.0
959.0
963.0
959.0
959.0
959.0
957.0
961.0
964.0
962.0
961.0
958.0
956.0
959.0
962.0
964.0
965.0
958.0
959.0
962.0
963.0
965.0
965.0
959.0
962.0
967.0
969.0
965.0
963.0
963.0
967.0
968.0
970.0
970.0
967.0
967.0
965.0
966.0
966.0
966.0
964.0
963.0
964.0
963.0
964.0
963.0
962.0
962.0
960.0
964.0
964.0
963.0
963.0
961.0
963.0
964.0
966.0
962.0
961.0
963.0
960.0
962.0
965.0
962.0
960.0
958.0
957.0
962.0
963.0
962.0
959.0
960.0
957.0
963.0
968.0
964.0
961.0
957.0
962.0
964.0
968.0
967.0
963.0
961.0
962.0
966.0
968.0
964.0
960.0
959.0
960.0
963.0
967.0
969.0
965.0
960.0
962.0
964.0
967.0
966.0
961.0
956.0
960.0
962.0
967.0
966.0
964.0
961.0
960.0
960.0
965.0
964.0
963.0
961.0
961.0
964.0
969.0
969.0
966.0
962.0
964.0
968.0
972.0
967.0
967.0
968.0
965.0
965.0
972.0
972.0
970.0
963.0
965.0
968.0
969.0
969.0
967.0
966.0
967.0
970.0
973.0
974.0
974.0
975.0
976.0
980.0
982.0
978.0
977.0
978.0
979.0
981.0
985.0
983.0
982.0
981.0
984.0
986.0
987.0
983.0
982.0
982.0
985.0
992.0
994.0
993.0
992.0
993.0
998.0
1005.0
1011.0
1008.0
1006.0
1004.0
1007.0
1011.0
1012.0
1014.0
1011.0
1010.0
1012.0
1019.0
1024.0
1023.0
1019.0
1014.0
1011.0
1013.0
1016.0
1015.0
1010.0
1005.0
1003.0
1004.0
1007.0
1006.0
1002.0
996.0
996.0
996.0
999.0
997.0
994.0
991.0
987.0
989.0
991.0
988.0
987.0
984.0
983.0
984.0
987.0
985.0
985.0
980.0
984.0
984.0
986.0
983.0
980.0
979.0
979.0
983.0
983.0
980.0
977.0
980.0
982.0
982.0
983.0
981.0
984.0
984.0
991.0
1000.0
1007.0
1012.0
1019.0
1033.0
1057.0
1082.0
1109.0
1135.0
1159.0
1185.0
1210.0
1234.0
1264.0
1283.0
1292.0
1282.0
1255.0
1221.0
1178.0
1127.0
1080.0
1046.0
1017.0
997.0
987.0
979.0
975.0
977.0
982.0
985.0
989.0
984.0
979.0
975.0
973.0
977.0
979.0
977.0
971.0
967.0
972.0
975.0
981.0
977.0
976.0
971.0
974.0
979.0
983.0
984.0
979.0
976.0
977.0
982.0
985.0
985.0
980.0
977.0
978.0
981.0
986.0
984.0
984.0
980.0
978.0
980.0
983.0
983.0
980.0
981.0
980.0
984.0
990.0
996.0
999.0
999.0
1004.0
1011.0
1018.0
1027.0
1031.0
1034.0
1033.0
1038.0
1047.0
1046.0
1049.0
1044.0
1042.0
1043.0
1048.0
1048.0
1050.0
1049.0
1049.0
1051.0
1054.0
1056.0
1059.0
1056.0
1054.0
1057.0
1062.0
1065.0
1069.0
1068.0
1071.0
1078.0
1084.0
1088.0
1091.0
1093.0
1095.0
1097.0
1095.0
1095.0
1087.0
1082.0
1078.0
1077.0
1074.0
1072.0
1067.0
1060.0
1052.0
1043.0
1040.0
1031.0
1022.0
1015.0
1006.0
998.0
990.0
982.0
976.0
972.0
971.0
967.0
964.0
960.0
957.0
954.0
951.0
951.0
949.0
950.0
946.0
944.0
943.0
945.0
949.0
947.0
945.0
944.0
946.0
945.0
946.0
947.0
946.0
946.0
947.0
947.0
947.0
948.0
945.0
942.0
941.0
945.0
944.0
946.0
946.0
947.0
949.0
949.0
950.0
954.0
956.0
961.0
964.0
970.0
978.0
986.0
1003.0
1029.0
1059.0
1088.0
1117.0
1146.0
1177.0
1206.0
1232.0
1249.0
1255.0
1246.0
1225.0
1191.0
1152.0
1104.0
1065.0
1032.0
1010.0
992.0
979.0
971.0
974.0
970.0
969.0
965.0
963.0
957.0
956.0
955.0
953.0
952.0
954.0
953.0
954.0
953.0
944.0
933.0
919.0
908.0
904.0
901.0
896.0
891.0
885.0
886.0
888.0
882.0
878.0
877.0
878.0
877.0
877.0
870.0
864.0
857.0
855.0
857.0
855.0
848.0
846.0
840.0
837.0
834.0
835.0
830.0
824.0
822.0
820.0
823.0
823.0
824.0
821.0
825.0
832.0
838.0
841.0
842.0
841.0
842.0
847.0
853.0
857.0
856.0
855.0
858.0
865.0
872.0
875.0
878.0
881.0
882.0
889.0
893.0
901.0
902.0
902.0
903.0
908.0
913.0
919.0
922.0
922.0
921.0
924.0
924.0
923.0
919.0
914.0
911.0
916.0
915.0
911.0
904.0
898.0
891.0
891.0
888.0
882.0
874.0
870.0
866.0
866.0
862.0
863.0
858.0
853.0
851.0
849.0
848.0
851.0
849.0
846.0
842.0
841.0
840.0
840.0
837.0
834.0
833.0
837.0
840.0
849.0
865.0
889.0
921.0
962.0
993.0
1026.0
1060.0
1096.0
1123.0
1140.0
1141.0
1127.0
1091.0
1042.0
982.0
914.0
862.0
826.0
795.0
770.0
748.0
735.0
730.0
723.0
713.0
702.0
694.0
687.0
687.0
680.0
673.0
667.0
664.0
663.0
662.0
661.0
653.0
646.0
639.0
637.0
634.0
631.0
626.0
623.0
613.0
608.0
607.0
608.0
606.0
597.0
594.0
585.0
584.0
581.0
572.0
563.0
558.0
561.0
564.0
564.0
558.0
552.0
552.0
552.0
551.0
551.0
545.0
541.0
531.0
530.0
532.0
530.0
529.0
524.0
517.0
516.0
518.0
521.0
516.0
510.0
507.0
507.0
510.0
512.0
509.0
506.0
504.0
501.0
503.0
505.0
503.0
499.0
497.0
499.0
497.0
497.0
502.0
498.0
496.0
496.0
499.0
500.0
498.0
494.0
493.0
494.0
493.0
495.0
494.0
490.0
486.0
486.0
488.0
493.0
489.0
486.0
482.0
481.0
484.0
483.0
483.0
481.0
479.0
476.0
480.0
483.0
481.0
477.0
475.0
473.0
480.0
480.0
479.0
476.0
476.0
476.0
481.0
483.0
482.0
482.0
480.0
479.0
484.0
487.0
486.0
485.0
483.0
486.0
486.0
490.0
489.0
487.0
487.0
487.0
490.0
494.0
493.0
492.0
488.0
491.0
495.0
497.0
498.0
497.0
495.0
495.0
499.0
502.0
504.0
502.0
501.0
503.0
506.0
511.0
510.0
509.0
506.0
508.0
512.0
516.0
514.0
511.0
509.0
514.0
512.0
517.0
519.0
517.0
515.0
521.0
523.0
522.0
526.0
523.0
523.0
524.0
529.0
531.0
532.0
530.0
531.0
529.0
531.0
536.0
530.0
525.0
521.0
521.0
521.0
530.0
538.0
548.0
566.0
588.0
600.0
594.0
580.0
566.0
556.0
553.0
554.0
557.0
555.0
553.0
551.0
554.0
557.0
560.0
559.0
556.0
559.0
557.0
561.0
565.0
561.0
562.0
562.0
563.0
567.0
567.0
569.0
568.0
564.0
568.0
572.0
575.0
573.0
573.0
570.0
569.0
576.0
580.0
581.0
578.0
577.0
579.0
583.0
585.0
586.0
583.0
581.0
580.0
585.0
588.0
589.0
589.0
587.0
587.0
594.0
596.0
593.0
595.0
591.0
594.0
597.0
598.0
600.0
602.0
599.0
599.0
602.0
607.0
607.0
605.0
600.0
602.0
608.0
609.0
610.0
607.0
606.0
606.0
611.0
615.0
615.0
610.0
609.0
612.0
617.0
621.0
620.0
619.0
615.0
617.0
619.0
623.0
626.0
622.0
620.0
620.0
626.0
631.0
628.0
627.0
625.0
627.0
628.0
631.0
631.0
630.0
631.0
633.0
636.0
638.0
638.0
636.0
631.0
633.0
634.0
638.0
638.0
638.0
638.0
640.0
647.0
650.0
648.0
648.0
646.0
647.0
648.0
649.0
651.0
650.0
649.0
652.0
652.0
657.0
655.0
655.0
653.0
653.0
656.0
659.0
661.0
657.0
655.0
658.0
663.0
664.0
666.0
663.0
662.0
665.0
667.0
673.0
672.0
671.0
669.0
669.0
671.0
676.0
675.0
677.0
673.0
673.0
678.0
681.0
680.0
677.0
675.0
675.0
681.0
684.0
685.0
684.0
681.0
684.0
686.0
687.0
688.0
686.0
685.0
687.0
691.0
693.0
694.0
693.0
690.0
692.0
693.0
696.0
696.0
695.0
694.0
697.0
702.0
703.0
702.0
702.0
697.0
703.0
704.0
708.0
708.0
708.0
705.0
708.0
708.0
713.0
712.0
710.0
708.0
711.0
714.0
715.0
717.0
716.0
714.0
713.0
716.0
718.0
718.0
714.0
713.0
717.0
717.0
723.0
724.0
722.0
719.0
719.0
724.0
726.0
728.0
723.0
723.0
725.0
729.0
731.0
729.0
728.0
727.0
728.0
730.0
734.0
734.0
729.0
732.0
731.0
736.0
737.0
739.0
736.0
734.0
737.0
740.0
743.0
742.0
738.0
739.0
742.0
744.0
746.0
748.0
747.0
743.0
746.0
749.0
752.0
753.0
749.0
751.0
751.0
754.0
756.0
757.0
757.0
755.0
757.0
758.0
761.0
760.0
761.0
760.0
760.0
761.0
765.0
768.0
764.0
760.0
762.0
763.0
768.0
768.0
765.0
764.0
766.0
769.0
776.0
771.0
773.0
772.0
774.0
777.0
779.0
779.0
779.0
776.0
779.0
781.0
786.0
786.0
784.0
783.0
784.0
788.0
791.0
792.0
790.0
789.0
793.0
798.0
800.0
800.0
797.0
796.0
798.0
803.0
808.0
805.0
803.0
802.0
808.0
811.0
816.0
815.0
814.0
813.0
814.0
817.0
817.0
820.0
819.0
818.0
821.0
828.0
831.0
833.0
834.0
832.0
834.0
837.0
842.0
841.0
840.0
839.0
840.0
847.0
852.0
854.0
852.0
852.0
854.0
857.0
866.0
869.0
870.0
866.0
871.0
873.0
876.0
880.0
881.0
881.0
885.0
888.0
889.0
890.0
889.0
890.0
890.0
892.0
900.0
904.0
906.0
903.0
908.0
912.0
914.0
917.0
916.0
914.0
917.0
925.0
930.0
932.0
927.0
925.0
923.0
935.0
943.0
945.0
947.0
954.0
960.0
963.0
962.0
959.0
960.0
969.0
972.0
979.0
981.0
978.0
975.0
973.0
980.0
983.0
983.0
976.0
978.0
981.0
987.0
990.0
992.0
993.0
989.0
985.0
986.0
992.0
992.0
995.0
989.0
986.0
990.0
1001.0
1009.0
1006.0
1003.0
1003.0
1007.0
1020.0
1025.0
1029.0
1026.0
1024.0
1031.0
1041.0
1052.0
1053.0
1050.0
1046.0
1049.0
1051.0
1058.0
1060.0
1063.0
1073.0
1082.0
1095.0
1107.0
1118.0
1137.0
1157.0
1184.0
1222.0
1262.0
1299.0
1330.0
1364.0
1399.0
1431.0
1442.0
1422.0
1382.0
1328.0
1278.0
1237.0
1202.0
1166.0
1134.0
1113.0
1114.0
1125.0
1134.0
1130.0
1125.0
1125.0
1133.0
1142.0
1137.0
1132.0
1128.0
1130.0
1132.0
1139.0
1145.0
1144.0
1139.0
1135.0
1135.0
1141.0
1147.0
1145.0
1138.0
1135.0
1142.0
1151.0
1158.0
1154.0
1149.0
1146.0
1147.0
1151.0
1154.0
1163.0
1169.0
1170.0
1173.0
1172.0
1173.0
1169.0
1163.0
1160.0
1173.0
1188.0
1194.0
1189.0
1184.0
1182.0
1187.0
1194.0
1197.0
1194.0
1196.0
1196.0
1200.0
1203.0
1205.0
1205.0
1209.0
1216.0
1217.0
1219.0
1221.0
1222.0
1220.0
1219.0
1221.0
1229.0
1240.0
1240.0
1231.0
1229.0
1234.0
1242.0
1253.0
1251.0
1246.0
1245.0
1246.0
1249.0
1253.0
1258.0
1259.0
1261.0
1266.0
1266.0
1268.0
1273.0
1274.0
1276.0
1274.0
1273.0
1272.0
1268.0
1268.0
1270.0
1274.0
1274.0
1270.0
1262.0
1260.0
1261.0
1265.0
1270.0
1269.0
1262.0
1253.0
1248.0
1250.0
1252.0
1254.0
1252.0
1248.0
1245.0
1242.0
1239.0
1247.0
1249.0
1251.0
1248.0
1247.0
1241.0
1243.0
1243.0
1242.0
1244.0
1248.0
1252.0
1252.0
1254.0
1251.0
1251.0
1248.0
1249.0
1250.0
1255.0
1259.0
1261.0
1262.0
1260.0
1257.0
1259.0
1257.0
1253.0
1255.0
1264.0
1271.0
1270.0
1267.0
1262.0
1262.0
1262.0
1265.0
1265.0
1265.0
1262.0
1265.0
1266.0
1266.0
1263.0
1259.0
1253.0
1254.0
1263.0
1270.0
1269.0
1265.0
1262.0
1262.0
1264.0
1266.0
1265.0
1260.0
1259.0
1259.0
1262.0
1265.0
1264.0
1262.0
1255.0
1255.0
1260.0
1265.0
1263.0
1263.0
1259.0
1262.0
1260.0
1265.0
1261.0
1258.0
1258.0
1256.0
1259.0
1262.0
1269.0
1266.0
1263.0
1260.0
1262.0
1262.0
1260.0
1262.0
1264.0
1269.0
1266.0
1267.0
1261.0
1260.0
1256.0
1256.0
1262.0
1267.0
1269.0
1265.0
1262.0
1258.0
1262.0
1264.0
1266.0
1270.0
1265.0
1265.0
1266.0
1267.0
1267.0
1262.0
1260.0
1261.0
1263.0
1265.0
1266.0
1265.0
1260.0
1261.0
1262.0
1263.0
1265.0
1262.0
1263.0
1263.0
1266.0
1267.0
1270.0
1269.0
1267.0
1266.0
1272.0
1273.0
1271.0
1269.0
1266.0
1262.0
1265.0
1268.0
1266.0
1267.0
1264.0
1265.0
1269.0
1273.0
1272.0
1266.0
1259.0
1262.0
1265.0
1266.0
1268.0
1266.0
1264.0
1267.0
1269.0
1269.0
1267.0
1266.0
1263.0
1264.0
1266.0
1271.0
1273.0
1275.0
1280.0
1283.0
1279.0
1284.0
1281.0
1284.0
1282.0
1281.0
1284.0
1286.0
1284.0
1287.0
1292.0
1296.0
1293.0
1288.0
1287.0
1284.0
1284.0
1284.0
1282.0
1279.0
1274.0
1270.0
1270.0
1268.0
1273.0
1269.0
1262.0
1254.0
1251.0
1256.0
1258.0
1261.0
1262.0
1262.0
1259.0
1257.0
1260.0
1263.0
1264.0
1262.0
1256.0
1259.0
1260.0
1259.0
1262.0
1260.0
1258.0
1258.0
1259.0
1262.0
1263.0
1259.0
1257.0
1263.0
1265.0
1267.0
1269.0
1275.0
1282.0
1289.0
1305.0
1330.0
1359.0
1386.0
1415.0
1444.0
1476.0
1508.0
1534.0
1561.0
1587.0
1608.0
1608.0
1585.0
1545.0
1485.0
1426.0
1383.0
1348.0
1321.0
1293.0
1277.0
1273.0
1271.0
1276.0
1277.0
1275.0
1270.0
1266.0
1263.0
1261.0
1257.0
1255.0
1254.0
1254.0
1249.0
1244.0
1250.0
1249.0
1247.0
1245.0
1245.0
1250.0
1253.0
1254.0
1250.0
1245.0
1240.0
1243.0
1248.0
1250.0
1250.0
1249.0
1248.0
1252.0
1257.0
1253.0
1251.0
1250.0
1250.0
1250.0
1254.0
1254.0
1256.0
1252.0
1248.0
1248.0
1254.0
1261.0
1262.0
1260.0
1251.0
1255.0
1263.0
1263.0
1260.0
1257.0
1262.0
1268.0
1274.0
1273.0
1268.0
1268.0
1272.0
1274.0
1278.0
1277.0
1277.0
1276.0
1278.0
1282.0
1287.0
1287.0
1286.0
1285.0
1287.0
1288.0
1294.0
1296.0
1294.0
1289.0
1289.0
1289.0
1293.0
1289.0
1288.0
1285.0
1287.0
1290.0
1292.0
1291.0
1287.0
1277.0
1276.0
1274.0
1271.0
1269.0
1262.0
1260.0
1263.0
1261.0
1261.0
1256.0
1256.0
1250.0
1246.0
1244.0
1243.0
1241.0
1235.0
1233.0
1234.0
1236.0
1238.0
1240.0
1236.0
1230.0
1230.0
1233.0
1239.0
1236.0
1231.0
1225.0
1227.0
1230.0
1233.0
1227.0
1229.0
1231.0
1233.0
1235.0
1234.0
1235.0
1235.0
1229.0
1231.0
1232.0
1232.0
1233.0
1230.0
1233.0
1238.0
1238.0
1238.0
1238.0
1236.0
1233.0
1235.0
1235.0
1234.0
1232.0
1232.0
1230.0
1234.0
1232.0
1233.0
1229.0
1229.0
1226.0
1225.0
1228.0
1236.0
1239.0
1230.0
1222.0
1219.0
1222.0
1225.0
1223.0
1219.0
1218.0
1221.0
1224.0
1229.0
1224.0
1223.0
1219.0
1218.0
1222.0
1224.0
1221.0
1217.0
1214.0
1213.0
1216.0
1219.0
1218.0
1216.0
1211.0
1212.0
1213.0
1214.0
1214.0
1210.0
