# Simple Text Format
# Sampling Rate (Hz):= 360.00
# Resolution:= 12
# Labels:= ECG
961.0
965.0
961.0
963.0
962.0
959.0
949.0
952.0
963.0
979.0
989.0
988.0
977.0
966.0
952.0
942.0
936.0
934.0
936.0
935.0
935.0
939.0
946.0
948.0
944.0
944.0
941.0
944.0
942.0
941.0
939.0
934.0
936.0
941.0
943.0
944.0
939.0
934.0
929.0
932.0
936.0
947.0
969.0
1001.0
1040.0
1084.0
1131.0
1175.0
1208.0
1218.0
1198.0
1155.0
1084.0
1002.0
919.0
866.0
849.0
852.0
863.0
874.0
886.0
896.0
914.0
923.0
924.0
929.0
929.0
936.0
939.0
944.0
944.0
946.0
944.0
943.0
943.0
948.0
945.0
943.0
941.0
940.0
941.0
941.0
943.0
946.0
946.0
950.0
959.0
966.0
969.0
965.0
952.0
942.0
946.0
952.0
955.0
956.0
956.0
953.0
954.0
950.0
955.0
960.0
966.0
968.0
974.0
980.0
984.0
984.0
986.0
985.0
990.0
995.0
999.0
1001.0
1001.0
999.0
997.0
1003.0
1005.0
1007.0
1005.0
1009.0
1014.0
1019.0
1020.0
1021.0
1018.0
1018.0
1022.0
1026.0
1030.0
1026.0
1016.0
1006.0
1000.0
1000.0
997.0
996.0
991.0
988.0
991.0
995.0
997.0
992.0
986.0
975.0
964.0
963.0
963.0
960.0
958.0
953.0
954.0
956.0
960.0
962.0
962.0
964.0
968.0
969.0
971.0
971.0
974.0
970.0
965.0
961.0
962.0
965.0
970.0
972.0
981.0
980.0
973.0
965.0
961.0
966.0
971.0
978.0
983.0
983.0
970.0
960.0
959.0
968.0
977.0
973.0
967.0
970.0
971.0
971.0
974.0
975.0
976.0
976.0
973.0
976.0
985.0
988.0
991.0
990.0
989.0
987.0
990.0
996.0
1000.0
997.0
988.0
984.0
981.0
983.0
981.0
979.0
979.0
980.0
984.0
988.0
985.0
986.0
989.0
992.0
992.0
985.0
978.0
977.0
983.0
986.0
988.0
986.0
983.0
978.0
979.0
977.0
968.0
962.0
954.0
954.0
963.0
972.0
977.0
977.0
975.0
975.0
973.0
972.0
970.0
968.0
966.0
966.0
972.0
982.0
988.0
989.0
985.0
981.0
970.0
958.0
963.0
989.0
1022.0
1058.0
1102.0
1156.0
1206.0
1248.0
1262.0
1238.0
1175.0
1096.0
1011.0
925.0
871.0
859.0
873.0
891.0
912.0
929.0
939.0
948.0
957.0
965.0
970.0
973.0
971.0
978.0
982.0
985.0
993.0
999.0
1004.0
1009.0
1000.0
987.0
976.0
971.0
970.0
971.0
983.0
991.0
991.0
984.0
974.0
972.0
979.0
984.0
992.0
995.0
990.0
988.0
994.0
1000.0
1006.0
1011.0
1018.0
1020.0
1019.0
1013.0
1011.0
1011.0
1022.0
1033.0
1049.0
1056.0
1048.0
1034.0
1021.0
1012.0
1015.0
1031.0
1047.0
1056.0
1057.0
1055.0
1053.0
1055.0
1056.0
1055.0
1051.0
1047.0
1051.0
1057.0
1064.0
1064.0
1065.0
1063.0
1064.0
1064.0
1064.0
1062.0
1058.0
1053.0
1046.0
1046.0
1052.0
1056.0
1049.0
1044.0
1038.0
1030.0
1024.0
1021.0
1015.0
1004.0
1002.0
1003.0
999.0
995.0
997.0
991.0
986.0
984.0
989.0
990.0
990.0
991.0
991.0
995.0
997.0
996.0
995.0
997.0
1003.0
1006.0
1003.0
1002.0
998.0
998.0
1002.0
1007.0
1015.0
1016.0
1009.0
1002.0
996.0
994.0
999.0
1006.0
1010.0
1013.0
1015.0
1011.0
1009.0
1002.0
993.0
986.0
984.0
993.0
1004.0
1012.0
1012.0
1011.0
1015.0
1019.0
1022.0
1018.0
1015.0
1014.0
1019.0
1026.0
1027.0
1025.0
1026.0
1025.0
1029.0
1032.0
1026.0
1010.0
1009.0
1010.0
1021.0
1025.0
1019.0
1011.0
1009.0
1009.0
1013.0
1022.0
1024.0
1009.0
986.0
971.0
978.0
991.0
1002.0
1001.0
999.0
999.0
1006.0
1015.0
1025.0
1025.0
1012.0
996.0
989.0
995.0
1002.0
999.0
996.0
995.0
1008.0
1043.0
1075.0
1095.0
1134.0
1202.0
1265.0
1282.0
1230.0
1135.0
1029.0
944.0
912.0
913.0
914.0
925.0
949.0
973.0
988.0
997.0
1007.0
1012.0
1024.0
1037.0
1056.0
1061.0
1050.0
1018.0
987.0
978.0
997.0
1020.0
1030.0
1024.0
1010.0
1006.0
1014.0
1021.0
1025.0
1023.0
1025.0
1027.0
1033.0
1039.0
1042.0
1045.0
1044.0
1044.0
1048.0
1051.0
1057.0
1055.0
1054.0
1060.0
1071.0
1085.0
1084.0
1072.0
1062.0
1066.0
1078.0
1078.0
1059.0
1037.0
1021.0
1029.0
1047.0
1064.0
1068.0
1071.0
1071.0
1077.0
1086.0
1094.0
1093.0
1091.0
1093.0
1093.0
1091.0
1097.0
1100.0
1100.0
1095.0
1092.0
1100.0
1113.0
1118.0
1121.0
1112.0
1100.0
1075.0
1046.0
1031.0
1038.0
1049.0
1054.0
1057.0
1059.0
1061.0
1049.0
1036.0
1025.0
1014.0
1011.0
1021.0
1028.0
1030.0
1032.0
1035.0
1037.0
1038.0
1035.0
1032.0
1026.0
1026.0
1029.0
1030.0
1031.0
1039.0
1056.0
1075.0
1075.0
1044.0
1002.0
987.0
1000.0
1014.0
1024.0
1017.0
1006.0
998.0
1007.0
1019.0
1030.0
1027.0
1018.0
1012.0
1018.0
1023.0
1026.0
1028.0
1027.0
1024.0
1024.0
1029.0
1038.0
1040.0
1038.0
1035.0
1041.0
1048.0
1042.0
1029.0
1017.0
1018.0
1021.0
1027.0
1030.0
1030.0
1035.0
1047.0
1056.0
1053.0
1039.0
1014.0
1003.0
1009.0
1025.0
1041.0
1048.0
1055.0
1053.0
1057.0
1050.0
1035.0
1029.0
1029.0
1031.0
1034.0
1040.0
1044.0
1048.0
1043.0
1035.0
1032.0
1036.0
1043.0
1040.0
1036.0
1034.0
1037.0
1038.0
1038.0
1038.0
1033.0
1037.0
1038.0
1032.0
1025.0
1024.0
1025.0
1021.0
1019.0
1019.0
1023.0
1020.0
1022.0
1026.0
1022.0
1014.0
1010.0
1017.0
1023.0
1034.0
1047.0
1041.0
1023.0
1003.0
994.0
975.0
960.0
967.0
986.0
1009.0
1034.0
1068.0
1117.0
1168.0
1224.0
1271.0
1291.0
1275.0
1231.0
1173.0
1097.0
1006.0
932.0
902.0
902.0
913.0
930.0
950.0
975.0
991.0
999.0
999.0
1007.0
1019.0
1016.0
1006.0
1011.0
1023.0
1025.0
1018.0
1004.0
996.0
995.0
996.0
1005.0
1010.0
1010.0
1008.0
1011.0
1013.0
1010.0
1010.0
1013.0
1019.0
1025.0
1020.0
1015.0
1018.0
1030.0
1037.0
1035.0
1025.0
1020.0
1022.0
1034.0
1049.0
1058.0
1055.0
1048.0
1040.0
1033.0
1026.0
1020.0
1019.0
1023.0
1031.0
1043.0
1053.0
1055.0
1059.0
1063.0
1069.0
1076.0
1078.0
1075.0
1073.0
1076.0
1081.0
1079.0
1077.0
1074.0
1076.0
1079.0
1084.0
1086.0
1094.0
1097.0
1099.0
1104.0
1112.0
1121.0
1121.0
1098.0
1064.0
1036.0
1037.0
1052.0
1065.0
1073.0
1078.0
1065.0
1055.0
1043.0
1036.0
1036.0
1039.0
1037.0
1030.0
1023.0
1020.0
1022.0
1025.0
1024.0
1021.0
1019.0
1025.0
1031.0
1029.0
1023.0
1029.0
1029.0
1029.0
1028.0
1033.0
1041.0
1044.0
1036.0
1020.0
1012.0
1017.0
1021.0
1010.0
995.0
990.0
989.0
997.0
1009.0
1020.0
1027.0
1025.0
1023.0
1027.0
1041.0
1048.0
1051.0
1051.0
1046.0
1039.0
1033.0
1033.0
1031.0
1022.0
1021.0
1020.0
1024.0
1032.0
1036.0
1039.0
1037.0
1045.0
1057.0
1063.0
1059.0
1037.0
1017.0
1014.0
1027.0
1038.0
1038.0
1038.0
1040.0
1037.0
1038.0
1038.0
1044.0
1043.0
1037.0
1030.0
1031.0
1034.0
1035.0
1029.0
1025.0
1027.0
1026.0
1028.0
1035.0
1038.0
1038.0
1041.0
1053.0
1064.0
1067.0
1051.0
1022.0
998.0
994.0
1006.0
1013.0
1006.0
997.0
998.0
1004.0
1011.0
1017.0
1014.0
1009.0
1006.0
1003.0
1007.0
1005.0
1006.0
1009.0
1007.0
1001.0
1003.0
1010.0
1008.0
996.0
987.0
990.0
999.0
1015.0
1038.0
1064.0
1092.0
1137.0
1187.0
1235.0
1276.0
1297.0
1280.0
1244.0
1185.0
1112.0
1025.0
945.0
904.0
904.0
922.0
941.0
951.0
965.0
979.0
989.0
998.0
1004.0
1008.0
1009.0
1011.0
1017.0
1022.0
1021.0
1021.0
1019.0
1020.0
1023.0
1023.0
1029.0
1039.0
1045.0
1039.0
1026.0
1018.0
1016.0
1020.0
1017.0
1014.0
1016.0
1022.0
1018.0
1020.0
1026.0
1036.0
1038.0
1039.0
1039.0
1037.0
1035.0
1036.0
1041.0
1046.0
1050.0
1054.0
1054.0
1054.0
1055.0
1058.0
1061.0
1064.0
1065.0
1061.0
1066.0
1073.0
1084.0
1092.0
1100.0
1102.0
1089.0
1076.0
1071.0
1068.0
1066.0
1068.0
1069.0
1067.0
1065.0
1068.0
1073.0
1077.0
1081.0
1085.0
1084.0
1081.0
1076.0
1076.0
1073.0
1074.0
1073.0
1067.0
1063.0
1058.0
1057.0
1058.0
1058.0
1057.0
1058.0
1056.0
1051.0
1041.0
1042.0
1044.0
1036.0
1017.0
1001.0
1004.0
1013.0
1022.0
1020.0
1017.0
1013.0
1016.0
1017.0
1018.0
1019.0
1014.0
1014.0
1015.0
1022.0
1022.0
1022.0
1019.0
1027.0
1034.0
1043.0
1038.0
1028.0
1019.0
1021.0
1031.0
1033.0
1027.0
1021.0
1016.0
1014.0
1012.0
1014.0
1018.0
1020.0
1018.0
1013.0
1013.0
1022.0
1030.0
1028.0
1024.0
1026.0
1030.0
1042.0
1038.0
1033.0
1031.0
1036.0
1046.0
1058.0
1065.0
1063.0
1047.0
1032.0
1021.0
1018.0
1019.0
1020.0
1026.0
1031.0
1041.0
1046.0
1044.0
1031.0
1024.0
1018.0
1014.0
1013.0
1013.0
1014.0
1016.0
1021.0
1028.0
1026.0
1016.0
1006.0
1003.0
1000.0
1004.0
1012.0
1011.0
1014.0
1015.0
1018.0
1020.0
1023.0
1018.0
1004.0
992.0
986.0
991.0
1000.0
1003.0
1004.0
1006.0
1010.0
1012.0
1008.0
1002.0
989.0
980.0
976.0
971.0
973.0
979.0
989.0
1011.0
1042.0
1086.0
1142.0
1195.0
1238.0
1264.0
1272.0
1255.0
1220.0
1154.0
1056.0
954.0
894.0
889.0
901.0
905.0
913.0
920.0
931.0
940.0
945.0
948.0
950.0
954.0
958.0
967.0
971.0
974.0
972.0
970.0
969.0
965.0
971.0
974.0
975.0
975.0
977.0
981.0
984.0
987.0
989.0
986.0
981.0
984.0
985.0
977.0
966.0
964.0
973.0
980.0
991.0
999.0
998.0
989.0
970.0
961.0
964.0
973.0
984.0
992.0
996.0
997.0
1003.0
1004.0
1007.0
1010.0
1010.0
1007.0
1001.0
997.0
994.0
995.0
1003.0
1011.0
1020.0
1021.0
1021.0
1023.0
1025.0
1032.0
1034.0
1038.0
1040.0
1051.0
1053.0
1044.0
1024.0
1005.0
999.0
1004.0
1012.0
1017.0
1024.0
1024.0
1022.0
1021.0
1019.0
1017.0
1013.0
1009.0
1008.0
1003.0
1001.0
999.0
998.0
1001.0
997.0
990.0
990.0
993.0
981.0
954.0
947.0
953.0
962.0
967.0
961.0
952.0
945.0
935.0
928.0
927.0
931.0
930.0
917.0
914.0
922.0
928.0
929.0
925.0
918.0
914.0
911.0
915.0
923.0
922.0
928.0
932.0
938.0
940.0
936.0
932.0
934.0
935.0
932.0
927.0
926.0
924.0
916.0
909.0
905.0
911.0
924.0
929.0
931.0
924.0
914.0
905.0
905.0
906.0
906.0
909.0
914.0
914.0
913.0
908.0
908.0
911.0
918.0
920.0
920.0
920.0
912.0
902.0
895.0
891.0
893.0
884.0
887.0
907.0
943.0
996.0
1056.0
1116.0
1172.0
1204.0
1200.0
1164.0
1105.0
1022.0
929.0
841.0
793.0
794.0
820.0
841.0
859.0
877.0
886.0
892.0
896.0
899.0
903.0
909.0
912.0
903.0
895.0
888.0
879.0
875.0
873.0
883.0
895.0
904.0
906.0
908.0
906.0
901.0
894.0
892.0
890.0
892.0
895.0
895.0
893.0
889.0
891.0
891.0
895.0
903.0
910.0
912.0
912.0
915.0
911.0
910.0
907.0
908.0
911.0
919.0
922.0
924.0
932.0
939.0
944.0
943.0
932.0
919.0
909.0
907.0
908.0
911.0
920.0
932.0
939.0
940.0
936.0
939.0
946.0
949.0
951.0
948.0
941.0
936.0
942.0
957.0
961.0
959.0
949.0
939.0
933.0
933.0
936.0
940.0
939.0
939.0
937.0
930.0
924.0
921.0
921.0
916.0
906.0
899.0
900.0
903.0
898.0
885.0
876.0
879.0
886.0
889.0
887.0
886.0
890.0
894.0
896.0
903.0
904.0
900.0
885.0
872.0
870.0
877.0
884.0
886.0
892.0
896.0
904.0
914.0
919.0
921.0
915.0
907.0
900.0
899.0
900.0
905.0
909.0
908.0
896.0
876.0
865.0
864.0
875.0
887.0
899.0
899.0
889.0
875.0
873.0
878.0
882.0
887.0
891.0
891.0
888.0
878.0
874.0
877.0
879.0
878.0
879.0
881.0
884.0
885.0
888.0
892.0
903.0
915.0
919.0
911.0
893.0
880.0
874.0
883.0
899.0
914.0
917.0
919.0
927.0
926.0
926.0
918.0
914.0
917.0
915.0
919.0
925.0
932.0
934.0
933.0
934.0
939.0
939.0
929.0
920.0
925.0
935.0
939.0
932.0
927.0
932.0
936.0
932.0
932.0
935.0
939.0
941.0
942.0
935.0
925.0
924.0
929.0
931.0
932.0
940.0
945.0
943.0
925.0
916.0
912.0
914.0
911.0
915.0
923.0
921.0
918.0
919.0
918.0
917.0
913.0
907.0
907.0
908.0
912.0
916.0
922.0
930.0
929.0
929.0
926.0
926.0
929.0
928.0
923.0
921.0
931.0
952.0
985.0
1020.0
1053.0
1097.0
1149.0
1195.0
1229.0
1225.0
1184.0
1115.0
1015.0
903.0
823.0
799.0
822.0
850.0
866.0
874.0
887.0
898.0
908.0
917.0
921.0
921.0
922.0
917.0
916.0
913.0
918.0
926.0
934.0
937.0
933.0
931.0
937.0
934.0
929.0
927.0
929.0
933.0
937.0
946.0
948.0
941.0
938.0
948.0
962.0
961.0
951.0
938.0
936.0
937.0
941.0
945.0
949.0
948.0
948.0
953.0
954.0
957.0
962.0
966.0
963.0
962.0
967.0
970.0
976.0
977.0
977.0
974.0
982.0
988.0
997.0
998.0
999.0
1004.0
1007.0
1011.0
1012.0
1008.0
1011.0
1018.0
1026.0
1029.0
1037.0
1054.0
1057.0
1041.0
1012.0
989.0
977.0
983.0
994.0
1008.0
1022.0
1030.0
1020.0
994.0
969.0
956.0
961.0
968.0
967.0
969.0
968.0
964.0
965.0
967.0
968.0
961.0
959.0
958.0
966.0
971.0
971.0
962.0
950.0
945.0
948.0
959.0
968.0
979.0
981.0
966.0
949.0
945.0
945.0
949.0
951.0
955.0
957.0
958.0
959.0
959.0
964.0
965.0
965.0
965.0
958.0
952.0
948.0
950.0
954.0
958.0
960.0
963.0
971.0
977.0
981.0
979.0
972.0
963.0
956.0
954.0
953.0
957.0
960.0
969.0
977.0
982.0
978.0
973.0
976.0
982.0
981.0
975.0
968.0
964.0
968.0
971.0
977.0
979.0
984.0
986.0
985.0
982.0
982.0
981.0
986.0
994.0
995.0
985.0
967.0
950.0
947.0
950.0
958.0
960.0
964.0
966.0
973.0
982.0
973.0
957.0
947.0
945.0
953.0
965.0
968.0
974.0
976.0
982.0
985.0
989.0
987.0
980.0
971.0
958.0
957.0
964.0
976.0
984.0
980.0
965.0
954.0
954.0
960.0
971.0
987.0
1016.0
1049.0
1088.0
1137.0
1194.0
1237.0
1258.0
1250.0
1215.0
1163.0
1091.0
1009.0
923.0
871.0
862.0
872.0
886.0
902.0
925.0
947.0
959.0
957.0
959.0
965.0
970.0
972.0
975.0
978.0
978.0
978.0
984.0
999.0
1014.0
1009.0
978.0
949.0
952.0
967.0
979.0
984.0
982.0
987.0
986.0
988.0
987.0
991.0
994.0
993.0
988.0
993.0
996.0
1001.0
1002.0
1001.0
1001.0
1004.0
1011.0
1021.0
1032.0
1039.0
1038.0
1030.0
1022.0
1013.0
1005.0
997.0
1002.0
1015.0
1028.0
1039.0
1046.0
1050.0
1049.0
1038.0
1035.0
1036.0
1041.0
1043.0
1044.0
1048.0
1053.0
1052.0
1050.0
1045.0
1051.0
1059.0
1067.0
1069.0
1062.0
1063.0
1068.0
1073.0
1080.0
1073.0
1055.0
1040.0
1032.0
1031.0
1030.0
1024.0
1009.0
1005.0
1009.0
1016.0
1022.0
1023.0
1014.0
1004.0
993.0
990.0
990.0
994.0
997.0
998.0
1000.0
999.0
998.0
996.0
998.0
1001.0
1008.0
1014.0
1019.0
1020.0
1017.0
1005.0
1004.0
1002.0
999.0
1000.0
997.0
999.0
1006.0
1018.0
1027.0
1030.0
1034.0
1033.0
1022.0
1002.0
987.0
984.0
987.0
984.0
982.0
988.0
996.0
998.0
1002.0
1009.0
1013.0
1017.0
1018.0
1017.0
1013.0
1009.0
1010.0
1006.0
1008.0
1010.0
1016.0
1022.0
1030.0
1043.0
1057.0
1059.0
1049.0
1035.0
1022.0
1018.0
1020.0
1023.0
1022.0
1021.0
1027.0
1035.0
1037.0
1030.0
1027.0
1029.0
1030.0
1037.0
1041.0
1038.0
1026.0
1019.0
1021.0
1024.0
1029.0
1028.0
1023.0
1019.0
1018.0
1020.0
1022.0
1020.0
1012.0
1005.0
998.0
1000.0
1005.0
1007.0
1007.0
1006.0
1005.0
1008.0
1007.0
1006.0
1004.0
1003.0
1003.0
1004.0
999.0
1001.0
1006.0
1006.0
1008.0
1008.0
1008.0
1003.0
995.0
997.0
1009.0
1036.0
1072.0
1112.0
1166.0
1225.0
1277.0
1301.0
1284.0
1231.0
1145.0
1045.0
949.0
909.0
914.0
928.0
934.0
948.0
971.0
992.0
1001.0
1002.0
1001.0
1006.0
1018.0
1026.0
1023.0
1020.0
1021.0
1019.0
1021.0
1026.0
1030.0
1024.0
1018.0
1012.0
1012.0
1012.0
1018.0
1016.0
1014.0
1009.0
1007.0
1014.0
1017.0
1018.0
1019.0
1020.0
1030.0
1035.0
1035.0
1031.0
1025.0
1023.0
1028.0
1035.0
1035.0
1040.0
1040.0
1042.0
1046.0
1051.0
1051.0
1049.0
1051.0
1055.0
1058.0
1057.0
1061.0
1067.0
1072.0
1074.0
1079.0
1077.0
1074.0
1069.0
1071.0
1080.0
1082.0
1090.0
1097.0
1097.0
1086.0
1084.0
1086.0
1081.0
1071.0
1066.0
1072.0
1074.0
1075.0
1077.0
1077.0
1072.0
1068.0
1065.0
1065.0
1070.0
1065.0
1057.0
1048.0
1045.0
1048.0
1049.0
1048.0
1043.0
1036.0
1031.0
1033.0
1038.0
1043.0
1048.0
1046.0
1036.0
1025.0
1016.0
1020.0
1018.0
1013.0
1007.0
1013.0
1021.0
1025.0
1019.0
1019.0
1017.0
1014.0
1013.0
1011.0
1013.0
1020.0
1022.0
1033.0
1046.0
1053.0
1051.0
1040.0
1018.0
1000.0
999.0
1004.0
1013.0
1010.0
1008.0
1005.0
1009.0
1018.0
1022.0
1020.0
1024.0
1026.0
1025.0
1023.0
1019.0
1022.0
1029.0
1033.0
1041.0
1054.0
1057.0
1057.0
1047.0
1036.0
1029.0
1025.0
1024.0
1024.0
1041.0
1057.0
1064.0
1057.0
1033.0
1016.0
1016.0
1017.0
1017.0
1021.0
1024.0
1022.0
1020.0
1024.0
1023.0
1026.0
1025.0
1024.0
1017.0
1012.0
1014.0
1021.0
1026.0
1021.0
1017.0
1018.0
1026.0
1030.0
1027.0
1024.0
1025.0
1024.0
1021.0
1005.0
977.0
957.0
959.0
978.0
991.0
997.0
1000.0
1001.0
998.0
1005.0
1004.0
1001.0
1004.0
1008.0
1002.0
999.0
995.0
988.0
986.0
987.0
993.0
1012.0
1046.0
1092.0
1139.0
1190.0
1245.0
1284.0
1292.0
1268.0
1211.0
1127.0
1028.0
932.0
880.0
874.0
887.0
899.0
918.0
944.0
963.0
975.0
979.0
981.0
984.0
990.0
993.0
993.0
991.0
986.0
988.0
991.0
994.0
997.0
996.0
995.0
994.0
991.0
994.0
999.0
999.0
996.0
994.0
996.0
1010.0
1026.0
1027.0
1016.0
1000.0
988.0
981.0
983.0
990.0
998.0
1002.0
1004.0
1009.0
1017.0
1013.0
1007.0
999.0
1001.0
1013.0
1019.0
1014.0
1013.0
1013.0
1014.0
1020.0
1029.0
1033.0
1032.0
1034.0
1040.0
1045.0
1049.0
1046.0
1039.0
1042.0
1048.0
1052.0
1058.0
1058.0
1060.0
1058.0
1059.0
1059.0
1062.0
1057.0
1046.0
1034.0
1030.0
1032.0
1029.0
1028.0
1024.0
1023.0
1019.0
1018.0
1018.0
1017.0
1012.0
1004.0
1000.0
1001.0
999.0
998.0
995.0
994.0
990.0
987.0
994.0
991.0
987.0
988.0
988.0
990.0
987.0
985.0
984.0
984.0
979.0
978.0
984.0
986.0
988.0
987.0
984.0
986.0
989.0
992.0
1001.0
1009.0
1015.0
1007.0
985.0
964.0
957.0
963.0
974.0
986.0
990.0
993.0
989.0
983.0
977.0
966.0
962.0
967.0
977.0
982.0
983.0
987.0
984.0
985.0
987.0
986.0
981.0
978.0
983.0
989.0
990.0
995.0
1001.0
1004.0
1000.0
1004.0
1007.0
1010.0
1004.0
999.0
1001.0
1005.0
1011.0
1018.0
1026.0
1025.0
1014.0
1001.0
978.0
962.0
966.0
977.0
985.0
984.0
981.0
978.0
972.0
977.0
986.0
999.0
1000.0
994.0
986.0
986.0
987.0
983.0
973.0
966.0
963.0
966.0
974.0
977.0
974.0
972.0
979.0
994.0
1009.0
1001.0
982.0
971.0
978.0
986.0
986.0
973.0
968.0
971.0
969.0
968.0
965.0
955.0
949.0
958.0
984.0
1028.0
1074.0
1126.0
1179.0
1231.0
1267.0
1271.0
1229.0
1157.0
1067.0
970.0
892.0
857.0
870.0
891.0
916.0
939.0
955.0
977.0
992.0
992.0
982.0
972.0
971.0
976.0
985.0
988.0
994.0
992.0
982.0
970.0
970.0
972.0
973.0
976.0
977.0
982.0
986.0
986.0
985.0
982.0
977.0
981.0
989.0
990.0
991.0
990.0
993.0
998.0
1003.0
1008.0
1013.0
1020.0
1024.0
1022.0
1010.0
998.0
994.0
995.0
1005.0
1013.0
1017.0
1023.0
1027.0
1031.0
1025.0
1023.0
1029.0
1033.0
1032.0
1031.0
1033.0
1036.0
1042.0
1044.0
1039.0
1038.0
1040.0
1052.0
1057.0
1054.0
1049.0
1049.0
1049.0
1048.0
1047.0
1046.0
1046.0
1047.0
1042.0
1042.0
1038.0
1028.0
1015.0
992.0
975.0
976.0
983.0
982.0
983.0
980.0
975.0
982.0
985.0
983.0
980.0
975.0
973.0
973.0
976.0
978.0
975.0
973.0
973.0
974.0
978.0
978.0
975.0
971.0
970.0
973.0
975.0
973.0
966.0
958.0
957.0
960.0
963.0
967.0
964.0
961.0
957.0
966.0
970.0
969.0
968.0
968.0
970.0
969.0
968.0
962.0
960.0
959.0
957.0
960.0
960.0
960.0
957.0
960.0
962.0
966.0
969.0
972.0
973.0
976.0
974.0
974.0
975.0
975.0
978.0
977.0
973.0
983.0
990.0
990.0
988.0
989.0
991.0
974.0
947.0
933.0
934.0
944.0
945.0
943.0
944.0
947.0
950.0
951.0
951.0
955.0
964.0
965.0
956.0
944.0
941.0
943.0
942.0
938.0
939.0
942.0
946.0
955.0
964.0
955.0
934.0
919.0
916.0
927.0
937.0
937.0
931.0
920.0
918.0
925.0
930.0
922.0
906.0
903.0
917.0
945.0
979.0
1015.0
1060.0
1116.0
1172.0
1213.0
1215.0
1175.0
1096.0
1010.0
913.0
837.0
807.0
814.0
837.0
857.0
874.0
892.0
903.0
907.0
911.0
915.0
920.0
928.0
930.0
932.0
929.0
927.0
927.0
923.0
922.0
919.0
918.0
920.0
922.0
922.0
920.0
912.0
905.0
903.0
904.0
910.0
916.0
922.0
925.0
930.0
933.0
931.0
929.0
923.0
919.0
922.0
929.0
934.0
934.0
934.0
935.0
935.0
940.0
948.0
953.0
952.0
953.0
957.0
957.0
958.0
955.0
952.0
955.0
958.0
963.0
966.0
966.0
966.0
965.0
970.0
977.0
981.0
984.0
980.0
975.0
971.0
964.0
963.0
972.0
973.0
970.0
968.0
968.0
970.0
967.0
963.0
958.0
949.0
943.0
942.0
941.0
939.0
936.0
933.0
927.0
928.0
932.0
930.0
933.0
941.0
942.0
933.0
919.0
906.0
901.0
901.0
901.0
906.0
908.0
910.0
910.0
911.0
909.0
909.0
907.0
911.0
910.0
911.0
910.0
911.0
914.0
916.0
917.0
912.0
911.0
912.0
916.0
914.0
915.0
915.0
911.0
908.0
913.0
921.0
922.0
921.0
920.0
923.0
925.0
922.0
921.0
918.0
916.0
916.0
913.0
908.0
907.0
907.0
913.0
922.0
926.0
927.0
924.0
922.0
920.0
923.0
921.0
921.0
919.0
918.0
913.0
912.0
914.0
913.0
911.0
908.0
907.0
911.0
909.0
909.0
908.0
906.0
906.0
908.0
910.0
913.0
912.0
915.0
918.0
923.0
931.0
932.0
935.0
936.0
942.0
949.0
950.0
953.0
955.0
956.0
957.0
957.0
957.0
956.0
953.0
956.0
955.0
952.0
952.0
949.0
943.0
943.0
942.0
944.0
944.0
938.0
930.0
927.0
926.0
936.0
955.0
988.0
1035.0
1089.0
1143.0
1190.0
1219.0
1210.0
1169.0
1110.0
1030.0
931.0
851.0
820.0
820.0
822.0
831.0
850.0
872.0
884.0
895.0
896.0
895.0
898.0
900.0
907.0
909.0
913.0
914.0
910.0
906.0
909.0
914.0
917.0
919.0
921.0
921.0
922.0
928.0
931.0
935.0
937.0
934.0
931.0
929.0
926.0
931.0
931.0
937.0
937.0
932.0
930.0
929.0
938.0
944.0
945.0
948.0
949.0
954.0
964.0
969.0
975.0
974.0
975.0
978.0
980.0
989.0
995.0
994.0
989.0
988.0
991.0
996.0
996.0
996.0
996.0
1000.0
1008.0
1013.0
1019.0
1024.0
1023.0
1019.0
1022.0
1025.0
1023.0
1015.0
1013.0
1018.0
1030.0
1032.0
1032.0
1032.0
1028.0
1024.0
1020.0
1011.0
1003.0
995.0
984.0
980.0
978.0
977.0
975.0
968.0
966.0
964.0
961.0
963.0
961.0
954.0
950.0
949.0
950.0
952.0
959.0
957.0
952.0
945.0
944.0
945.0
938.0
934.0
930.0
931.0
942.0
948.0
946.0
939.0
934.0
941.0
949.0
956.0
961.0
965.0
969.0
969.0
964.0
955.0
948.0
943.0
941.0
947.0
955.0
960.0
960.0
966.0
962.0
961.0
956.0
951.0
952.0
949.0
948.0
947.0
956.0
962.0
960.0
956.0
957.0
957.0
959.0
962.0
961.0
959.0
961.0
963.0
963.0
969.0
977.0
980.0
985.0
981.0
979.0
974.0
972.0
972.0
966.0
960.0
965.0
974.0
980.0
977.0
973.0
965.0
960.0
959.0
958.0
960.0
957.0
957.0
958.0
961.0
961.0
956.0
954.0
955.0
959.0
960.0
953.0
949.0
947.0
950.0
948.0
943.0
944.0
940.0
942.0
944.0
949.0
949.0
951.0
948.0
947.0
949.0
952.0
957.0
956.0
948.0
946.0
946.0
947.0
941.0
931.0
924.0
925.0
939.0
959.0
988.0
1018.0
1063.0
1108.0
1158.0
1204.0
1234.0
1228.0
1192.0
1134.0
1059.0
975.0
900.0
860.0
851.0
850.0
860.0
878.0
906.0
933.0
945.0
943.0
939.0
940.0
948.0
954.0
953.0
950.0
952.0
958.0
961.0
960.0
954.0
951.0
953.0
960.0
962.0
960.0
957.0
953.0
952.0
956.0
957.0
955.0
952.0
950.0
949.0
952.0
956.0
959.0
961.0
958.0
960.0
966.0
977.0
983.0
982.0
980.0
979.0
980.0
985.0
991.0
989.0
987.0
992.0
1001.0
1008.0
1011.0
1012.0
1013.0
1014.0
1017.0
1021.0
1022.0
1022.0
1023.0
1020.0
1019.0
1019.0
1018.0
1019.0
1021.0
1023.0
1025.0
1031.0
1034.0
1039.0
1039.0
1043.0
1041.0
1045.0
1050.0
1050.0
1046.0
1041.0
1042.0
1042.0
1041.0
1039.0
1035.0
1030.0
1029.0
1025.0
1021.0
1011.0
1004.0
1006.0
1006.0
1008.0
1007.0
1003.0
999.0
1000.0
1003.0
1004.0
1003.0
1003.0
1004.0
1001.0
1003.0
1006.0
1007.0
1006.0
1008.0
1010.0
1017.0
1019.0
1022.0
1020.0
1020.0
1016.0
1016.0
1021.0
1022.0
1025.0
1027.0
1027.0
1032.0
1035.0
1037.0
1036.0
1037.0
1038.0
1041.0
1041.0
1039.0
1041.0
1041.0
1044.0
1048.0
1056.0
1059.0
1057.0
1054.0
1054.0
1051.0
1051.0
1051.0
1046.0
1043.0
1042.0
1044.0
1041.0
1041.0
1042.0
1036.0
1035.0
1036.0
1036.0
1037.0
1036.0
1037.0
1040.0
1042.0
1041.0
1037.0
1032.0
1030.0
1030.0
1035.0
1034.0
1029.0
1023.0
1016.0
1009.0
1010.0
1014.0
1022.0
1036.0
1061.0
1100.0
1154.0
1207.0
1254.0
1294.0
1313.0
1312.0
1285.0
1231.0
1158.0
1065.0
983.0
936.0
929.0
940.0
953.0
961.0
975.0
992.0
1007.0
1017.0
1020.0
1020.0
1015.0
1012.0
1008.0
1003.0
1002.0
1002.0
999.0
1002.0
1014.0
1023.0
1027.0
1024.0
1022.0
1019.0
1021.0
1026.0
1026.0
1025.0
1023.0
1022.0
1022.0
1023.0
1024.0
1022.0
1026.0
1023.0
1026.0
1029.0
1031.0
1028.0
1024.0
1025.0
1025.0
1032.0
1033.0
1029.0
1028.0
1029.0
1033.0
1035.0
1033.0
1027.0
1028.0
1028.0
1034.0
1035.0
1038.0
1043.0
1044.0
1044.0
1049.0
1051.0
1054.0
1055.0
1054.0
1055.0
1054.0
1055.0
1059.0
1058.0
1059.0
1057.0
1056.0
1055.0
1059.0
1055.0
1052.0
1051.0
1049.0
1056.0
1058.0
1059.0
1058.0
1049.0
1042.0
1043.0
1041.0
1040.0
1036.0
1037.0
1037.0
1036.0
1033.0
1031.0
1027.0
1023.0
1022.0
1020.0
1016.0
1011.0
1008.0
1003.0
1004.0
1007.0
1007.0
1004.0
1001.0
1003.0
1004.0
1008.0
1004.0
1003.0
1002.0
997.0
1002.0
1001.0
998.0
998.0
996.0
999.0
1003.0
1005.0
1002.0
1005.0
1007.0
1007.0
1007.0
1008.0
1010.0
1010.0
1009.0
1006.0
1011.0
1012.0
1011.0
1011.0
1012.0
1015.0
1018.0
1024.0
1028.0
1028.0
1025.0
1022.0
1027.0
1027.0
1028.0
1027.0
1021.0
1022.0
1026.0
1030.0
1027.0
1025.0
1023.0
1018.0
1026.0
1025.0
1027.0
1025.0
1021.0
1024.0
1025.0
1028.0
1027.0
1026.0
1026.0
1024.0
1025.0
1024.0
1025.0
1023.0
1020.0
1021.0
1019.0
1018.0
1016.0
1014.0
1015.0
1011.0
1018.0
1020.0
1021.0
1021.0
1020.0
1020.0
1022.0
1023.0
1023.0
1022.0
1022.0
1022.0
1026.0
1028.0
1029.0
1027.0
1023.0
1025.0
1026.0
1029.0
1031.0
1032.0
1030.0
1029.0
1028.0
1027.0
1024.0
1022.0
1023.0
1022.0
1027.0
1028.0
1027.0
1024.0
1023.0
1020.0
1018.0
1018.0
1017.0
1012.0
1012.0
1013.0
1012.0
1015.0
1014.0
1010.0
1007.0
1005.0
1006.0
1007.0
1006.0
999.0
994.0
994.0
995.0
997.0
996.0
994.0
992.0
994.0
995.0
999.0
998.0
994.0
996.0
995.0
998.0
1000.0
998.0
994.0
988.0
985.0
992.0
1003.0
1022.0
1046.0
1079.0
1119.0
1170.0
1227.0
1273.0
1304.0
1300.0
1258.0
1193.0
1110.0
1021.0
936.0
889.0
890.0
912.0
937.0
958.0
973.0
981.0
987.0
993.0
998.0
1003.0
1001.0
1003.0
999.0
1000.0
1002.0
1001.0
1001.0
996.0
994.0
994.0
994.0
994.0
992.0
990.0
997.0
1002.0
1009.0
1012.0
1011.0
1006.0
1003.0
1005.0
1009.0
1010.0
