# Simple Text Format
# Sampling Rate (Hz):= 360.00
# Resolution:= 12
# Labels:= ECG
1015.0
1017.0
1022.0
1026.0
1027.0
1027.0
1030.0
1032.0
1038.0
1040.0
1043.0
1043.0
1044.0
1044.0
1049.0
1051.0
1050.0
1048.0
1049.0
1050.0
1054.0
1056.0
1053.0
1046.0
1041.0
1040.0
1042.0
1041.0
1039.0
1034.0
1029.0
1022.0
1024.0
1024.0
1019.0
1016.0
1013.0
1010.0
1010.0
1009.0
1004.0
998.0
993.0
992.0
993.0
994.0
993.0
990.0
984.0
987.0
991.0
991.0
988.0
984.0
984.0
987.0
991.0
991.0
990.0
990.0
991.0
988.0
989.0
993.0
995.0
993.0
989.0
986.0
986.0
986.0
984.0
982.0
981.0
981.0
986.0
990.0
990.0
987.0
986.0
988.0
988.0
990.0
988.0
987.0
988.0
987.0
991.0
993.0
990.0
988.0
989.0
990.0
992.0
998.0
997.0
994.0
993.0
993.0
996.0
998.0
999.0
997.0
997.0
1001.0
1003.0
1009.0
1011.0
1011.0
1013.0
1011.0
1011.0
1014.0
1014.0
1014.0
1015.0
1016.0
1016.0
1013.0
1008.0
1005.0
1002.0
1004.0
1005.0
1006.0
1006.0
1001.0
998.0
996.0
995.0
992.0
992.0
991.0
990.0
990.0
994.0
997.0
997.0
998.0
995.0
995.0
993.0
991.0
990.0
987.0
980.0
982.0
981.0
982.0
983.0
982.0
984.0
984.0
987.0
988.0
989.0
984.0
983.0
981.0
983.0
986.0
986.0
985.0
984.0
983.0
987.0
985.0
984.0
982.0
976.0
971.0
969.0
977.0
989.0
1010.0
1038.0
1078.0
1125.0
1173.0
1223.0
1259.0
1272.0
1261.0
1220.0
1163.0
1087.0
1002.0
922.0
878.0
869.0
881.0
893.0
906.0
926.0
946.0
960.0
964.0
966.0
968.0
967.0
971.0
974.0
975.0
978.0
978.0
977.0
978.0
980.0
981.0
981.0
980.0
980.0
982.0
985.0
986.0
985.0
983.0
982.0
981.0
985.0
985.0
987.0
985.0
984.0
986.0
992.0
993.0
991.0
990.0
992.0
995.0
999.0
1000.0
1000.0
1001.0
1003.0
1006.0
1006.0
1011.0
1011.0
1014.0
1016.0
1018.0
1023.0
1023.0
1025.0
1026.0
1026.0
1035.0
1039.0
1038.0
1041.0
1044.0
1043.0
1046.0
1048.0
1052.0
1053.0
1052.0
1053.0
1053.0
1057.0
1059.0
1059.0
1055.0
1055.0
1057.0
1055.0
1056.0
1053.0
1050.0
1047.0
1048.0
1047.0
1043.0
1039.0
1035.0
1032.0
1029.0
1029.0
1030.0
1024.0
1018.0
1017.0
1013.0
1013.0
1012.0
1004.0
1001.0
997.0
998.0
1000.0
1000.0
999.0
996.0
998.0
997.0
996.0
994.0
992.0
991.0
992.0
989.0
994.0
995.0
998.0
994.0
995.0
995.0
996.0
998.0
997.0
996.0
994.0
996.0
995.0
997.0
997.0
996.0
995.0
997.0
1001.0
1000.0
999.0
998.0
999.0
1000.0
1000.0
1002.0
1000.0
1000.0
1000.0
1003.0
1003.0
1004.0
1005.0
1006.0
1003.0
1004.0
1003.0
1007.0
1005.0
1004.0
1001.0
1008.0
1011.0
1012.0
1012.0
1011.0
1014.0
1017.0
1015.0
1017.0
1014.0
1014.0
1015.0
1016.0
1021.0
1015.0
1013.0
1011.0
1012.0
1013.0
1017.0
1017.0
1014.0
1012.0
1007.0
1010.0
1011.0
1008.0
1006.0
1005.0
1004.0
1006.0
1007.0
1008.0
1012.0
1008.0
1007.0
1007.0
1007.0
1006.0
998.0
990.0
987.0
987.0
989.0
992.0
991.0
989.0
988.0
991.0
996.0
993.0
992.0
993.0
992.0
992.0
996.0
996.0
992.0
989.0
989.0
990.0
992.0
993.0
992.0
987.0
980.0
975.0
980.0
988.0
1007.0
1034.0
1066.0
1107.0
1156.0
1206.0
1254.0
1286.0
1289.0
1260.0
1201.0
1128.0
1037.0
944.0
885.0
873.0
886.0
901.0
918.0
932.0
947.0
958.0
972.0
978.0
981.0
982.0
983.0
982.0
983.0
985.0
982.0
982.0
985.0
983.0
985.0
988.0
990.0
984.0
980.0
981.0
983.0
989.0
988.0
988.0
985.0
983.0
984.0
984.0
984.0
980.0
983.0
986.0
986.0
987.0
987.0
986.0
985.0
987.0
991.0
995.0
999.0
997.0
999.0
1003.0
1002.0
1003.0
1002.0
1003.0
1008.0
1009.0
1016.0
1018.0
1017.0
1020.0
1025.0
1024.0
1028.0
1034.0
1037.0
1037.0
1034.0
1037.0
1038.0
1041.0
1041.0
1041.0
1040.0
1039.0
1042.0
1044.0
1046.0
1045.0
1044.0
1047.0
1051.0
1050.0
1043.0
1039.0
1036.0
1031.0
1028.0
1027.0
1022.0
1019.0
1015.0
1013.0
1012.0
1009.0
1007.0
1003.0
999.0
996.0
995.0
995.0
993.0
989.0
985.0
983.0
986.0
992.0
988.0
989.0
986.0
982.0
982.0
981.0
975.0
973.0
969.0
974.0
979.0
981.0
977.0
976.0
977.0
975.0
978.0
980.0
980.0
976.0
977.0
976.0
978.0
978.0
978.0
975.0
973.0
975.0
979.0
977.0
973.0
970.0
967.0
969.0
972.0
973.0
974.0
971.0
965.0
967.0
970.0
971.0
971.0
966.0
966.0
966.0
969.0
969.0
973.0
970.0
971.0
972.0
979.0
983.0
984.0
985.0
987.0
986.0
988.0
991.0
993.0
993.0
990.0
993.0
995.0
995.0
993.0
990.0
991.0
990.0
994.0
995.0
994.0
994.0
994.0
994.0
992.0
991.0
988.0
987.0
990.0
991.0
994.0
994.0
993.0
992.0
991.0
991.0
993.0
990.0
985.0
981.0
976.0
975.0
977.0
978.0
981.0
979.0
977.0
975.0
976.0
979.0
979.0
977.0
978.0
981.0
979.0
984.0
983.0
982.0
978.0
975.0
974.0
978.0
970.0
962.0
960.0
972.0
992.0
1024.0
1059.0
1099.0
1143.0
1194.0
1245.0
1272.0
1263.0
1211.0
1136.0
1040.0
951.0
891.0
876.0
885.0
899.0
916.0
941.0
959.0
968.0
970.0
972.0
977.0
979.0
983.0
979.0
975.0
975.0
970.0
973.0
976.0
975.0
973.0
973.0
975.0
980.0
984.0
986.0
981.0
980.0
981.0
982.0
978.0
979.0
981.0
979.0
979.0
982.0
985.0
984.0
987.0
986.0
991.0
996.0
1001.0
1001.0
999.0
996.0
1001.0
1002.0
1007.0
1008.0
1007.0
1008.0
1013.0
1023.0
1029.0
1033.0
1036.0
1043.0
1050.0
1055.0
1058.0
1054.0
1047.0
1043.0
1038.0
1035.0
1039.0
1038.0
1041.0
1040.0
1040.0
1042.0
1046.0
1049.0
1050.0
1046.0
1045.0
1042.0
1037.0
1034.0
1032.0
1032.0
1034.0
1034.0
1029.0
1026.0
1020.0
1018.0
1018.0
1017.0
1014.0
1008.0
999.0
999.0
1002.0
1005.0
1013.0
1015.0
1007.0
996.0
987.0
991.0
991.0
992.0
986.0
986.0
989.0
996.0
997.0
992.0
988.0
988.0
984.0
988.0
985.0
985.0
983.0
989.0
992.0
993.0
990.0
990.0
986.0
987.0
987.0
991.0
997.0
1002.0
999.0
1000.0
997.0
992.0
997.0
995.0
995.0
996.0
999.0
998.0
1002.0
1004.0
1003.0
1006.0
1007.0
1006.0
1004.0
1003.0
998.0
1001.0
1002.0
1006.0
1002.0
999.0
994.0
994.0
994.0
1000.0
1004.0
1005.0
998.0
993.0
988.0
985.0
986.0
986.0
984.0
986.0
983.0
983.0
982.0
982.0
980.0
981.0
981.0
982.0
984.0
983.0
984.0
984.0
986.0
987.0
987.0
984.0
979.0
972.0
971.0
966.0
962.0
962.0
965.0
976.0
996.0
1025.0
1060.0
1103.0
1153.0
1201.0
1234.0
1240.0
1213.0
1161.0
1093.0
1010.0
931.0
891.0
889.0
888.0
891.0
897.0
916.0
937.0
956.0
962.0
962.0
960.0
964.0
972.0
975.0
969.0
968.0
966.0
969.0
970.0
970.0
970.0
971.0
968.0
968.0
970.0
970.0
969.0
966.0
970.0
973.0
980.0
978.0
972.0
965.0
965.0
971.0
980.0
986.0
984.0
981.0
980.0
982.0
983.0
988.0
986.0
984.0
978.0
977.0
980.0
992.0
993.0
993.0
997.0
995.0
998.0
999.0
999.0
1001.0
1005.0
1007.0
1006.0
1008.0
1015.0
1017.0
1019.0
1022.0
1021.0
1025.0
1027.0
1032.0
1030.0
1031.0
1033.0
1028.0
1027.0
1024.0
1023.0
1027.0
1033.0
1035.0
1028.0
1018.0
1007.0
1002.0
1003.0
1005.0
999.0
990.0
983.0
982.0
983.0
980.0
976.0
969.0
963.0
959.0
956.0
958.0
956.0
956.0
952.0
951.0
949.0
949.0
950.0
950.0
949.0
950.0
949.0
953.0
952.0
950.0
949.0
950.0
953.0
952.0
951.0
946.0
947.0
948.0
950.0
948.0
942.0
943.0
941.0
943.0
944.0
944.0
944.0
940.0
935.0
933.0
938.0
940.0
942.0
939.0
942.0
942.0
943.0
944.0
943.0
941.0
937.0
936.0
938.0
940.0
939.0
939.0
940.0
942.0
942.0
946.0
941.0
934.0
933.0
931.0
932.0
935.0
934.0
933.0
930.0
932.0
932.0
935.0
938.0
936.0
936.0
934.0
932.0
937.0
937.0
937.0
936.0
935.0
939.0
941.0
943.0
943.0
940.0
936.0
937.0
937.0
937.0
934.0
935.0
935.0
937.0
941.0
939.0
939.0
934.0
933.0
930.0
928.0
925.0
923.0
921.0
923.0
925.0
926.0
931.0
927.0
924.0
922.0
925.0
924.0
919.0
914.0
913.0
914.0
911.0
910.0
910.0
908.0
909.0
907.0
904.0
905.0
903.0
902.0
904.0
905.0
906.0
905.0
905.0
901.0
901.0
899.0
896.0
896.0
898.0
904.0
920.0
951.0
993.0
1035.0
1082.0
1129.0
1173.0
1196.0
1187.0
1145.0
1079.0
997.0
906.0
828.0
794.0
797.0
803.0
805.0
813.0
833.0
853.0
868.0
871.0
870.0
871.0
880.0
882.0
890.0
889.0
882.0
882.0
881.0
884.0
888.0
891.0
889.0
887.0
881.0
882.0
884.0
886.0
885.0
884.0
885.0
891.0
893.0
889.0
888.0
887.0
889.0
892.0
894.0
895.0
895.0
894.0
896.0
903.0
904.0
902.0
898.0
899.0
902.0
904.0
909.0
910.0
914.0
914.0
916.0
920.0
925.0
928.0
926.0
922.0
923.0
931.0
939.0
944.0
944.0
945.0
944.0
944.0
955.0
958.0
959.0
957.0
956.0
957.0
962.0
960.0
958.0
954.0
955.0
957.0
960.0
956.0
956.0
952.0
948.0
945.0
945.0
941.0
935.0
931.0
928.0
929.0
924.0
922.0
917.0
917.0
914.0
915.0
915.0
914.0
907.0
902.0
900.0
904.0
906.0
905.0
899.0
895.0
891.0
903.0
904.0
900.0
901.0
900.0
899.0
899.0
903.0
903.0
901.0
898.0
899.0
900.0
904.0
906.0
904.0
902.0
904.0
907.0
906.0
905.0
903.0
903.0
904.0
906.0
907.0
910.0
910.0
910.0
906.0
907.0
908.0
908.0
906.0
906.0
906.0
908.0
911.0
912.0
911.0
914.0
913.0
918.0
921.0
924.0
924.0
924.0
925.0
928.0
933.0
932.0
931.0
934.0
933.0
932.0
932.0
930.0
929.0
929.0
932.0
933.0
938.0
939.0
935.0
930.0
929.0
924.0
926.0
924.0
922.0
922.0
920.0
917.0
924.0
926.0
924.0
924.0
921.0
920.0
917.0
915.0
909.0
909.0
910.0
912.0
916.0
915.0
914.0
914.0
915.0
918.0
919.0
919.0
920.0
920.0
924.0
928.0
929.0
929.0
924.0
919.0
919.0
922.0
923.0
921.0
918.0
920.0
935.0
963.0
998.0
1044.0
1093.0
1144.0
1185.0
1217.0
1225.0
1192.0
1128.0
1048.0
960.0
872.0
828.0
827.0
837.0
849.0
866.0
887.0
910.0
916.0
919.0
921.0
924.0
927.0
928.0
927.0
926.0
927.0
926.0
928.0
932.0
937.0
937.0
937.0
938.0
941.0
945.0
949.0
949.0
949.0
952.0
953.0
954.0
953.0
950.0
949.0
948.0
955.0
956.0
957.0
956.0
954.0
954.0
962.0
963.0
962.0
963.0
965.0
967.0
970.0
973.0
979.0
979.0
980.0
984.0
989.0
996.0
999.0
1000.0
1004.0
1005.0
1012.0
1017.0
1018.0
1018.0
1017.0
1023.0
1029.0
1034.0
1034.0
1031.0
1029.0
1032.0
1034.0
1032.0
1031.0
1024.0
1023.0
1021.0
1020.0
1021.0
1020.0
1011.0
1007.0
1003.0
1002.0
1003.0
999.0
994.0
987.0
984.0
983.0
984.0
985.0
984.0
980.0
978.0
978.0
979.0
982.0
981.0
981.0
982.0
983.0
985.0
984.0
981.0
981.0
982.0
985.0
988.0
988.0
986.0
984.0
984.0
989.0
992.0
991.0
986.0
983.0
980.0
985.0
986.0
986.0
980.0
983.0
982.0
985.0
990.0
990.0
989.0
988.0
987.0
991.0
992.0
990.0
990.0
989.0
987.0
989.0
991.0
990.0
991.0
987.0
985.0
987.0
990.0
991.0
991.0
994.0
995.0
1003.0
1005.0
1006.0
1007.0
1005.0
1004.0
1006.0
1010.0
1013.0
1011.0
1005.0
1003.0
1004.0
1007.0
1007.0
1007.0
1005.0
1002.0
1005.0
1006.0
1009.0
1007.0
1002.0
999.0
1001.0
1004.0
1006.0
1005.0
1003.0
1003.0
1003.0
1005.0
1003.0
1002.0
996.0
989.0
989.0
992.0
995.0
997.0
995.0
996.0
992.0
987.0
987.0
989.0
987.0
985.0
986.0
993.0
993.0
989.0
986.0
984.0
985.0
983.0
978.0
972.0
974.0
984.0
1010.0
1041.0
1081.0
1128.0
1179.0
1229.0
1269.0
1290.0
1269.0
1217.0
1139.0
1048.0
952.0
884.0
868.0
876.0
892.0
910.0
934.0
953.0
964.0
969.0
970.0
974.0
980.0
984.0
984.0
981.0
979.0
981.0
985.0
986.0
985.0
984.0
984.0
985.0
988.0
989.0
988.0
988.0
987.0
986.0
990.0
992.0
992.0
989.0
989.0
989.0
994.0
993.0
995.0
993.0
994.0
996.0
999.0
1000.0
1000.0
999.0
999.0
1002.0
1007.0
1009.0
1009.0
1010.0
1013.0
1014.0
1018.0
1021.0
1025.0
1030.0
1030.0
1032.0
1033.0
1039.0
1044.0
1044.0
1048.0
1047.0
1051.0
1053.0
1056.0
1057.0
1058.0
1059.0
1061.0
1062.0
1061.0
1059.0
1061.0
1057.0
1056.0
1053.0
1050.0
1049.0
1043.0
1034.0
1036.0
1036.0
1033.0
1025.0
1024.0
1019.0
1015.0
1012.0
1014.0
1006.0
1005.0
1003.0
1002.0
1000.0
998.0
995.0
995.0
992.0
992.0
996.0
995.0
994.0
992.0
988.0
987.0
988.0
991.0
991.0
989.0
987.0
991.0
990.0
993.0
992.0
989.0
988.0
987.0
992.0
992.0
989.0
986.0
984.0
983.0
985.0
987.0
985.0
984.0
983.0
983.0
988.0
988.0
986.0
982.0
984.0
987.0
988.0
990.0
990.0
987.0
985.0
986.0
992.0
990.0
989.0
986.0
985.0
989.0
992.0
994.0
990.0
988.0
991.0
995.0
998.0
1000.0
997.0
996.0
994.0
997.0
1001.0
1001.0
996.0
996.0
994.0
997.0
999.0
1000.0
999.0
995.0
993.0
994.0
993.0
993.0
990.0
985.0
983.0
986.0
990.0
989.0
986.0
981.0
984.0
988.0
987.0
985.0
982.0
978.0
977.0
975.0
977.0
979.0
978.0
976.0
976.0
977.0
973.0
972.0
973.0
972.0
972.0
975.0
974.0
974.0
973.0
969.0
965.0
969.0
967.0
963.0
960.0
957.0
962.0
980.0
1009.0
1046.0
1093.0
1142.0
1199.0
1249.0
1272.0
1249.0
1179.0
1087.0
983.0
897.0
860.0
866.0
885.0
901.0
919.0
938.0
948.0
954.0
954.0
958.0
959.0
964.0
961.0
961.0
962.0
959.0
959.0
956.0
963.0
964.0
965.0
964.0
965.0
965.0
968.0
969.0
969.0
969.0
966.0
971.0
971.0
976.0
975.0
973.0
975.0
980.0
984.0
984.0
984.0
984.0
983.0
987.0
989.0
992.0
993.0
993.0
995.0
1000.0
1006.0
1008.0
1013.0
1015.0
1017.0
1026.0
1035.0
1045.0
1049.0
1049.0
1051.0
1051.0
1053.0
1055.0
1055.0
1055.0
1055.0
1055.0
1051.0
1053.0
1046.0
1042.0
1038.0
1040.0
1035.0
1030.0
1023.0
1016.0
1008.0
1004.0
1001.0
997.0
995.0
992.0
990.0
988.0
990.0
988.0
986.0
981.0
983.0
979.0
982.0
983.0
980.0
978.0
974.0
974.0
975.0
977.0
976.0
975.0
972.0
973.0
974.0
975.0
975.0
973.0
971.0
975.0
977.0
977.0
975.0
968.0
966.0
967.0
967.0
971.0
970.0
967.0
966.0
970.0
972.0
976.0
974.0
971.0
970.0
974.0
976.0
977.0
978.0
975.0
972.0
968.0
967.0
966.0
969.0
987.0
1019.0
1065.0
1123.0
1183.0
1244.0
1288.0
1301.0
1267.0
1186.0
1086.0
983.0
898.0
860.0
880.0
914.0
942.0
959.0
969.0
974.0
978.0
978.0
970.0
964.0
962.0
966.0
967.0
967.0
969.0
968.0
967.0
966.0
966.0
971.0
970.0
970.0
967.0
969.0
970.0
971.0
974.0
976.0
975.0
975.0
977.0
981.0
984.0
984.0
982.0
979.0
975.0
978.0
979.0
983.0
981.0
977.0
980.0
981.0
983.0
988.0
988.0
991.0
991.0
992.0
993.0
994.0
999.0
1000.0
1004.0
1006.0
1008.0
1010.0
1012.0
1014.0
1018.0
1016.0
1016.0
1014.0
1014.0
1017.0
1022.0
1021.0
1023.0
1022.0
1015.0
1013.0
1014.0
1015.0
1016.0
1014.0
1010.0
1009.0
1005.0
1004.0
997.0
991.0
990.0
988.0
988.0
985.0
981.0
975.0
969.0
964.0
964.0
964.0
964.0
959.0
963.0
965.0
966.0
964.0
960.0
958.0
956.0
956.0
957.0
960.0
960.0
955.0
949.0
950.0
952.0
954.0
953.0
953.0
950.0
948.0
950.0
953.0
955.0
956.0
951.0
951.0
948.0
952.0
956.0
957.0
958.0
960.0
960.0
958.0
953.0
952.0
949.0
951.0
951.0
954.0
960.0
961.0
956.0
949.0
946.0
945.0
948.0
949.0
945.0
947.0
944.0
950.0
949.0
953.0
948.0
943.0
944.0
947.0
949.0
948.0
944.0
942.0
943.0
948.0
948.0
949.0
945.0
943.0
943.0
947.0
948.0
946.0
943.0
941.0
940.0
941.0
941.0
942.0
940.0
939.0
940.0
937.0
941.0
942.0
946.0
946.0
945.0
945.0
941.0
936.0
933.0
929.0
932.0
934.0
938.0
937.0
937.0
938.0
940.0
940.0
940.0
946.0
949.0
950.0
955.0
961.0
962.0
960.0
950.0
949.0
951.0
953.0
951.0
949.0
949.0
948.0
947.0
948.0
949.0
949.0
948.0
947.0
948.0
952.0
955.0
952.0
947.0
939.0
935.0
939.0
943.0
946.0
942.0
938.0
937.0
938.0
939.0
940.0
935.0
928.0
926.0
926.0
925.0
928.0
930.0
930.0
932.0
925.0
924.0
927.0
924.0
927.0
925.0
927.0
927.0
928.0
929.0
929.0
931.0
927.0
924.0
918.0
915.0
920.0
931.0
947.0
971.0
998.0
1037.0
1083.0
1136.0
1183.0
1216.0
1215.0
1181.0
1121.0
1047.0
967.0
892.0
846.0
835.0
837.0
838.0
838.0
850.0
869.0
886.0
892.0
900.0
905.0
910.0
914.0
916.0
917.0
922.0
924.0
924.0
920.0
915.0
915.0
920.0
923.0
925.0
926.0
927.0
928.0
931.0
935.0
936.0
932.0
927.0
926.0
930.0
931.0
934.0
932.0
930.0
926.0
929.0
933.0
940.0
941.0
942.0
938.0
939.0
941.0
945.0
944.0
941.0
944.0
950.0
956.0
954.0
950.0
951.0
957.0
963.0
967.0
968.0
969.0
972.0
972.0
977.0
982.0
986.0
986.0
984.0
981.0
983.0
987.0
987.0
992.0
993.0
992.0
993.0
990.0
995.0
996.0
993.0
991.0
992.0
995.0
998.0
997.0
992.0
987.0
988.0
986.0
983.0
982.0
977.0
975.0
976.0
973.0
975.0
972.0
964.0
960.0
961.0
962.0
964.0
963.0
964.0
957.0
953.0
951.0
949.0
948.0
949.0
947.0
945.0
950.0
954.0
949.0
946.0
945.0
949.0
952.0
955.0
952.0
943.0
942.0
941.0
943.0
947.0
945.0
945.0
945.0
948.0
949.0
951.0
947.0
943.0
942.0
948.0
952.0
955.0
955.0
954.0
952.0
951.0
951.0
954.0
953.0
953.0
951.0
953.0
958.0
959.0
958.0
955.0
954.0
953.0
957.0
957.0
955.0
953.0
955.0
958.0
961.0
958.0
957.0
955.0
952.0
952.0
952.0
953.0
951.0
949.0
949.0
948.0
951.0
951.0
956.0
958.0
959.0
962.0
964.0
966.0
965.0
961.0
960.0
962.0
966.0
967.0
962.0
963.0
963.0
965.0
962.0
964.0
960.0
960.0
964.0
964.0
966.0
964.0
962.0
961.0
956.0
959.0
962.0
966.0
963.0
962.0
958.0
958.0
962.0
961.0
953.0
950.0
944.0
944.0
943.0
941.0
938.0
938.0
940.0
941.0
944.0
941.0
937.0
936.0
940.0
942.0
946.0
946.0
945.0
941.0
937.0
938.0
939.0
943.0
945.0
942.0
944.0
947.0
942.0
939.0
935.0
927.0
935.0
943.0
965.0
993.0
1028.0
1063.0
1107.0
1155.0
1201.0
1224.0
1221.0
1185.0
1133.0
1067.0
988.0
909.0
856.0
843.0
849.0
855.0
866.0
887.0
903.0
914.0
919.0
924.0
925.0
929.0
928.0
930.0
932.0
935.0
939.0
936.0
935.0
931.0
933.0
936.0
939.0
940.0
943.0
942.0
947.0
950.0
956.0
956.0
946.0
939.0
936.0
940.0
947.0
953.0
959.0
959.0
957.0
956.0
955.0
956.0
953.0
952.0
954.0
957.0
962.0
963.0
965.0
964.0
970.0
982.0
996.0
1000.0
997.0
991.0
982.0
983.0
988.0
996.0
1000.0
999.0
1001.0
1008.0
1015.0
1017.0
1009.0
1001.0
996.0
999.0
1003.0
1009.0
1010.0
1005.0
1000.0
1000.0
1000.0
1004.0
998.0
993.0
991.0
995.0
997.0
1001.0
1000.0
997.0
993.0
992.0
986.0
982.0
975.0
967.0
964.0
962.0
964.0
962.0
960.0
959.0
958.0
958.0
959.0
958.0
956.0
955.0
956.0
956.0
956.0
960.0
957.0
954.0
950.0
951.0
954.0
962.0
964.0
960.0
957.0
959.0
965.0
969.0
968.0
962.0
959.0
959.0
963.0
966.0
965.0
959.0
960.0
963.0
967.0
972.0
973.0
976.0
977.0
968.0
959.0
957.0
960.0
963.0
966.0
966.0
973.0
970.0
969.0
969.0
973.0
976.0
977.0
975.0
974.0
973.0
972.0
969.0
966.0
967.0
972.0
970.0
964.0
963.0
962.0
966.0
969.0
971.0
973.0
976.0
986.0
996.0
1003.0
1000.0
988.0
970.0
966.0
965.0
971.0
972.0
972.0
972.0
979.0
982.0
976.0
972.0
968.0
972.0
972.0
973.0
972.0
974.0
981.0
990.0
993.0
982.0
973.0
966.0
965.0
965.0
961.0
954.0
953.0
958.0
961.0
965.0
962.0
961.0
959.0
960.0
962.0
961.0
963.0
967.0
962.0
958.0
959.0
962.0
965.0
959.0
952.0
955.0
953.0
960.0
958.0
961.0
958.0
953.0
948.0
946.0
950.0
957.0
964.0
985.0
1019.0
1063.0
1111.0
1157.0
1200.0
1236.0
1251.0
1245.0
1206.0
1145.0
1071.0
985.0
900.0
854.0
847.0
857.0
862.0
875.0
897.0
914.0
926.0
935.0
938.0
941.0
942.0
942.0
945.0
944.0
943.0
945.0
943.0
947.0
947.0
946.0
946.0
945.0
947.0
948.0
951.0
950.0
950.0
950.0
945.0
941.0
950.0
955.0
955.0
953.0
951.0
956.0
960.0
963.0
963.0
958.0
956.0
954.0
957.0
960.0
962.0
961.0
961.0
964.0
969.0
973.0
977.0
980.0
982.0
992.0
999.0
1002.0
998.0
1000.0
999.0
999.0
997.0
996.0
997.0
996.0
992.0
997.0
1005.0
1008.0
1008.0
1007.0
1009.0
1012.0
1013.0
1013.0
1014.0
1015.0
1014.0
1017.0
1023.0
1027.0
1028.0
1029.0
1024.0
1024.0
1026.0
1029.0
1024.0
1010.0
997.0
989.0
989.0
990.0
986.0
985.0
980.0
980.0
977.0
978.0
976.0
975.0
968.0
968.0
972.0
975.0
975.0
970.0
967.0
966.0
962.0
957.0
949.0
945.0
945.0
942.0
940.0
941.0
946.0
950.0
953.0
949.0
949.0
950.0
946.0
941.0
941.0
939.0
943.0
943.0
943.0
946.0
947.0
947.0
947.0
947.0
943.0
941.0
942.0
942.0
943.0
944.0
944.0
939.0
939.0
941.0
948.0
952.0
952.0
951.0
953.0
958.0
957.0
948.0
941.0
938.0
942.0
945.0
946.0
950.0
952.0
950.0
945.0
943.0
943.0
946.0
945.0
942.0
930.0
921.0
926.0
942.0
966.0
999.0
1046.0
1103.0
1164.0
1219.0
1255.0
1262.0
1237.0
1177.0
1095.0
1006.0
918.0
856.0
855.0
874.0
897.0
911.0
919.0
925.0
932.0
938.0
942.0
939.0
936.0
934.0
938.0
940.0
941.0
941.0
941.0
941.0
940.0
940.0
940.0
942.0
943.0
942.0
940.0
942.0
945.0
946.0
946.0
946.0
943.0
945.0
952.0
954.0
955.0
948.0
948.0
951.0
955.0
956.0
958.0
960.0
960.0
963.0
970.0
974.0
975.0
975.0
975.0
977.0
978.0
975.0
974.0
975.0
978.0
981.0
987.0
992.0
997.0
993.0
995.0
1000.0
1003.0
1008.0
1006.0
1004.0
998.0
999.0
1005.0
1005.0
1006.0
1003.0
999.0
997.0
997.0
994.0
987.0
983.0
985.0
986.0
982.0
976.0
972.0
965.0
961.0
960.0
960.0
958.0
952.0
951.0
949.0
952.0
955.0
956.0
950.0
949.0
957.0
957.0
950.0
942.0
944.0
952.0
951.0
944.0
936.0
939.0
943.0
947.0
945.0
944.0
943.0
942.0
942.0
946.0
951.0
952.0
952.0
947.0
948.0
947.0
950.0
953.0
956.0
952.0
950.0
947.0
951.0
954.0
955.0
954.0
951.0
949.0
947.0
941.0
939.0
943.0
950.0
948.0
944.0
944.0
948.0
949.0
946.0
944.0
942.0
943.0
945.0
947.0
947.0
941.0
940.0
941.0
943.0
949.0
946.0
944.0
945.0
946.0
948.0
947.0
947.0
949.0
947.0
946.0
947.0
951.0
952.0
952.0
951.0
953.0
952.0
953.0
949.0
946.0
945.0
948.0
958.0
967.0
968.0
963.0
960.0
960.0
965.0
966.0
970.0
968.0
967.0
964.0
970.0
966.0
960.0
955.0
953.0
957.0
958.0
958.0
957.0
957.0
958.0
957.0
956.0
955.0
955.0
953.0
950.0
950.0
951.0
954.0
952.0
953.0
951.0
951.0
950.0
946.0
944.0
941.0
944.0
950.0
951.0
945.0
939.0
939.0
938.0
936.0
941.0
947.0
948.0
944.0
939.0
939.0
940.0
941.0
938.0
930.0
928.0
932.0
942.0
961.0
982.0
1013.0
1051.0
1103.0
1156.0
1201.0
1241.0
1262.0
1254.0
1200.0
1123.0
1035.0
942.0
865.0
838.0
844.0
861.0
878.0
900.0
910.0
916.0
922.0
927.0
929.0
929.0
927.0
932.0
934.0
935.0
935.0
935.0
933.0
934.0
932.0
934.0
936.0
935.0
936.0
938.0
938.0
943.0
945.0
940.0
937.0
937.0
940.0
944.0
944.0
945.0
946.0
949.0
949.0
948.0
946.0
948.0
949.0
950.0
957.0
959.0
961.0
957.0
960.0
962.0
966.0
971.0
976.0
978.0
977.0
976.0
983.0
993.0
999.0
999.0
999.0
1001.0
1003.0
1007.0
1008.0
1009.0
1009.0
1010.0
1015.0
1019.0
1023.0
1022.0
1021.0
1023.0
1025.0
1026.0
1029.0
1027.0
1022.0
1019.0
1020.0
1017.0
1014.0
1014.0
1015.0
1017.0
1009.0
1005.0
1003.0
999.0
996.0
992.0
985.0
985.0
985.0
984.0
979.0
971.0
970.0
972.0
974.0
978.0
973.0
971.0
971.0
974.0
974.0
971.0
965.0
962.0
967.0
971.0
973.0
974.0
971.0
971.0
968.0
972.0
974.0
972.0
969.0
970.0
968.0
970.0
968.0
970.0
972.0
968.0
965.0
963.0
961.0
965.0
965.0
967.0
967.0
969.0
973.0
971.0
972.0
971.0
970.0
968.0
967.0
966.0
966.0
965.0
965.0
970.0
973.0
973.0
970.0
968.0
970.0
973.0
974.0
973.0
972.0
972.0
975.0
978.0
980.0
979.0
981.0
981.0
979.0
974.0
977.0
984.0
985.0
977.0
969.0
969.0
975.0
979.0
978.0
975.0
977.0
975.0
976.0
974.0
969.0
965.0
964.0
965.0
967.0
967.0
968.0
971.0
974.0
974.0
971.0
967.0
963.0
957.0
955.0
951.0
956.0
959.0
955.0
949.0
948.0
951.0
956.0
955.0
951.0
949.0
954.0
958.0
959.0
957.0
953.0
950.0
951.0
955.0
956.0
950.0
944.0
937.0
935.0
943.0
958.0
983.0
1014.0
1051.0
1096.0
1150.0
1201.0
1239.0
1243.0
1210.0
1152.0
1080.0
995.0
908.0
856.0
851.0
865.0
877.0
887.0
900.0
918.0
930.0
937.0
942.0
943.0
944.0
946.0
945.0
945.0
947.0
950.0
954.0
952.0
949.0
950.0
956.0
957.0
954.0
952.0
961.0
973.0
987.0
985.0
972.0
955.0
946.0
945.0
948.0
951.0
953.0
955.0
956.0
963.0
970.0
970.0
969.0
967.0
968.0
966.0
969.0
975.0
979.0
980.0
976.0
980.0
983.0
988.0
989.0
989.0
993.0
999.0
1005.0
1010.0
1013.0
1011.0
1014.0
1017.0
1018.0
1023.0
1027.0
1029.0
1030.0
1035.0
1040.0
1041.0
1038.0
1032.0
1029.0
1027.0
1027.0
1031.0
1030.0
1029.0
1033.0
1042.0
1045.0
1030.0
1008.0
990.0
980.0
982.0
985.0
985.0
981.0
978.0
980.0
980.0
978.0
977.0
974.0
971.0
972.0
972.0
972.0
974.0
975.0
975.0
975.0
978.0
972.0
964.0
961.0
966.0
969.0
970.0
966.0
963.0
962.0
960.0
959.0
957.0
957.0
959.0
962.0
961.0
958.0
962.0
970.0
978.0
985.0
994.0
1005.0
1011.0
1003.0
984.0
962.0
945.0
935.0
943.0
957.0
960.0
960.0
960.0
964.0
966.0
963.0
964.0
965.0
964.0
961.0
968.0
972.0
984.0
991.0
993.0
985.0
981.0
977.0
969.0
967.0
972.0
978.0
985.0
988.0
985.0
976.0
969.0
966.0
971.0
974.0
981.0
982.0
981.0
981.0
983.0
984.0
987.0
991.0
994.0
995.0
995.0
1000.0
1004.0
1009.0
1006.0
1006.0
1000.0
988.0
974.0
963.0
962.0
969.0
980.0
986.0
985.0
982.0
979.0
973.0
970.0
967.0
970.0
962.0
954.0
950.0
946.0
945.0
947.0
948.0
955.0
961.0
967.0
974.0
976.0
979.0
980.0
980.0
975.0
971.0
972.0
981.0
