# Simple Text Format
# Sampling Rate (Hz):= 360.00
# Resolution:= 12
# Labels:= ECG
938.0
943.0
944.0
944.0
944.0
945.0
949.0
949.0
947.0
944.0
944.0
947.0
950.0
950.0
947.0
947.0
948.0
948.0
956.0
956.0
958.0
958.0
960.0
963.0
961.0
963.0
961.0
960.0
960.0
959.0
963.0
963.0
964.0
962.0
964.0
968.0
973.0
974.0
974.0
972.0
972.0
976.0
984.0
986.0
984.0
984.0
988.0
995.0
1000.0
999.0
1004.0
1008.0
1011.0
1011.0
1015.0
1018.0
1021.0
1022.0
1022.0
1026.0
1029.0
1031.0
1034.0
1035.0
1032.0
1032.0
1034.0
1034.0
1034.0
1034.0
1030.0
1034.0
1033.0
1030.0
1025.0
1019.0
1019.0
1019.0
1019.0
1013.0
1007.0
1001.0
998.0
995.0
990.0
988.0
985.0
983.0
984.0
982.0
982.0
981.0
977.0
977.0
976.0
975.0
979.0
978.0
978.0
973.0
974.0
975.0
976.0
975.0
971.0
968.0
967.0
970.0
970.0
973.0
973.0
971.0
969.0
971.0
972.0
969.0
967.0
962.0
966.0
968.0
973.0
975.0
972.0
970.0
970.0
972.0
976.0
979.0
977.0
978.0
978.0
979.0
983.0
982.0
982.0
983.0
981.0
981.0
980.0
977.0
976.0
976.0
975.0
975.0
977.0
974.0
973.0
972.0
971.0
978.0
981.0
982.0
984.0
987.0
986.0
987.0
987.0
990.0
988.0
988.0
987.0
989.0
993.0
994.0
992.0
991.0
994.0
995.0
1000.0
996.0
992.0
987.0
988.0
987.0
987.0
988.0
985.0
984.0
981.0
986.0
989.0
987.0
983.0
978.0
979.0
980.0
977.0
977.0
971.0
970.0
971.0
973.0
972.0
966.0
964.0
963.0
964.0
968.0
970.0
971.0
969.0
966.0
966.0
968.0
976.0
974.0
974.0
972.0
968.0
968.0
965.0
962.0
959.0
969.0
984.0
1007.0
1035.0
1076.0
1126.0
1180.0
1223.0
1244.0
1232.0
1191.0
1136.0
1065.0
982.0
909.0
874.0
877.0
886.0
895.0
906.0
926.0
942.0
955.0
960.0
959.0
961.0
963.0
973.0
978.0
974.0
971.0
973.0
977.0
979.0
977.0
977.0
973.0
974.0
976.0
977.0
973.0
969.0
970.0
970.0
971.0
974.0
975.0
973.0
974.0
973.0
979.0
984.0
985.0
984.0
984.0
984.0
984.0
989.0
991.0
988.0
990.0
993.0
998.0
1001.0
999.0
998.0
998.0
1002.0
1009.0
1013.0
1013.0
1011.0
1010.0
1012.0
1018.0
1023.0
1028.0
1030.0
1033.0
1034.0
1035.0
1039.0
1041.0
1038.0
1038.0
1038.0
1039.0
1042.0
1045.0
1045.0
1043.0
1041.0
1044.0
1047.0
1045.0
1046.0
1043.0
1042.0
1043.0
1043.0
1040.0
1035.0
1030.0
1027.0
1026.0
1025.0
1020.0
1015.0
1009.0
1004.0
999.0
1000.0
998.0
994.0
994.0
990.0
989.0
991.0
990.0
986.0
983.0
982.0
985.0
989.0
986.0
984.0
981.0
980.0
986.0
989.0
989.0
984.0
982.0
980.0
978.0
978.0
979.0
978.0
979.0
980.0
985.0
986.0
987.0
985.0
983.0
983.0
982.0
986.0
987.0
985.0
981.0
980.0
984.0
987.0
987.0
985.0
983.0
979.0
982.0
982.0
984.0
984.0
982.0
981.0
983.0
987.0
982.0
983.0
984.0
984.0
984.0
984.0
985.0
984.0
989.0
987.0
986.0
987.0
991.0
990.0
991.0
994.0
998.0
1000.0
999.0
1000.0
1001.0
998.0
1001.0
1002.0
1000.0
994.0
995.0
991.0
994.0
997.0
997.0
995.0
990.0
988.0
990.0
988.0
985.0
983.0
981.0
981.0
983.0
985.0
985.0
984.0
980.0
980.0
984.0
985.0
987.0
979.0
971.0
970.0
972.0
975.0
970.0
967.0
966.0
968.0
970.0
974.0
975.0
973.0
971.0
967.0
971.0
974.0
972.0
970.0
969.0
966.0
967.0
969.0
971.0
969.0
963.0
957.0
955.0
961.0
973.0
987.0
1010.0
1042.0
1085.0
1134.0
1183.0
1228.0
1251.0
1246.0
1213.0
1167.0
1103.0
1021.0
934.0
876.0
860.0
870.0
882.0
890.0
908.0
923.0
942.0
952.0
952.0
951.0
954.0
956.0
958.0
958.0
963.0
963.0
963.0
963.0
964.0
965.0
965.0
966.0
965.0
966.0
966.0
970.0
970.0
969.0
967.0
967.0
971.0
973.0
973.0
974.0
973.0
977.0
977.0
980.0
976.0
974.0
977.0
980.0
984.0
983.0
985.0
984.0
988.0
990.0
994.0
997.0
998.0
997.0
999.0
1001.0
1003.0
1010.0
1014.0
1015.0
1018.0
1020.0
1024.0
1030.0
1028.0
1028.0
1030.0
1031.0
1036.0
1038.0
1039.0
1036.0
1036.0
1039.0
1041.0
1042.0
1044.0
1040.0
1037.0
1036.0
1039.0
1041.0
1039.0
1036.0
1034.0
1030.0
1030.0
1031.0
1029.0
1026.0
1020.0
1015.0
1015.0
1013.0
1006.0
1001.0
999.0
998.0
996.0
994.0
989.0
988.0
984.0
982.0
983.0
981.0
982.0
979.0
978.0
977.0
978.0
977.0
978.0
975.0
976.0
974.0
976.0
978.0
981.0
983.0
983.0
985.0
985.0
988.0
984.0
981.0
978.0
981.0
986.0
991.0
994.0
992.0
991.0
987.0
984.0
985.0
988.0
987.0
983.0
985.0
983.0
988.0
990.0
990.0
986.0
984.0
984.0
983.0
977.0
972.0
972.0
972.0
972.0
973.0
973.0
972.0
970.0
972.0
973.0
979.0
976.0
973.0
973.0
971.0
973.0
973.0
974.0
971.0
970.0
971.0
971.0
969.0
970.0
966.0
965.0
966.0
966.0
968.0
963.0
955.0
945.0
940.0
947.0
959.0
979.0
1007.0
1041.0
1087.0
1141.0
1199.0
1241.0
1258.0
1241.0
1192.0
1125.0
1048.0
961.0
887.0
856.0
863.0
886.0
912.0
928.0
945.0
952.0
956.0
962.0
967.0
968.0
969.0
967.0
966.0
972.0
971.0
971.0
968.0
969.0
968.0
970.0
972.0
971.0
970.0
969.0
966.0
972.0
975.0
975.0
973.0
972.0
970.0
975.0
977.0
977.0
976.0
978.0
978.0
980.0
983.0
986.0
986.0
985.0
985.0
991.0
996.0
997.0
995.0
994.0
994.0
998.0
1000.0
1004.0
1004.0
1007.0
1008.0
1012.0
1012.0
1015.0
1017.0
1023.0
1024.0
1027.0
1033.0
1030.0
1032.0
1031.0
1031.0
1033.0
1037.0
1037.0
1035.0
1035.0
1034.0
1036.0
1037.0
1036.0
1034.0
1033.0
1031.0
1034.0
1032.0
1027.0
1022.0
1019.0
1016.0
1019.0
1015.0
1010.0
1005.0
1001.0
995.0
994.0
990.0
988.0
985.0
979.0
978.0
978.0
979.0
975.0
973.0
972.0
969.0
972.0
973.0
971.0
969.0
970.0
971.0
978.0
982.0
980.0
978.0
974.0
973.0
974.0
977.0
978.0
978.0
976.0
977.0
977.0
979.0
978.0
977.0
976.0
974.0
974.0
974.0
975.0
973.0
972.0
972.0
974.0
974.0
971.0
971.0
969.0
969.0
974.0
976.0
974.0
972.0
972.0
971.0
972.0
973.0
976.0
976.0
977.0
974.0
975.0
977.0
976.0
973.0
972.0
969.0
975.0
976.0
976.0
975.0
971.0
971.0
970.0
972.0
975.0
973.0
970.0
968.0
970.0
971.0
971.0
969.0
968.0
968.0
971.0
970.0
970.0
968.0
967.0
966.0
970.0
966.0
970.0
972.0
972.0
968.0
972.0
975.0
981.0
977.0
979.0
982.0
985.0
987.0
988.0
986.0
987.0
985.0
990.0
992.0
993.0
990.0
989.0
988.0
986.0
990.0
986.0
985.0
982.0
979.0
984.0
986.0
984.0
981.0
978.0
975.0
978.0
982.0
983.0
983.0
983.0
983.0
982.0
984.0
982.0
979.0
972.0
970.0
967.0
970.0
971.0
969.0
965.0
966.0
970.0
972.0
974.0
972.0
970.0
970.0
972.0
972.0
973.0
972.0
970.0
969.0
970.0
964.0
962.0
962.0
970.0
988.0
1018.0
1052.0
1093.0
1144.0
1196.0
1244.0
1273.0
1263.0
1213.0
1142.0
1063.0
978.0
900.0
864.0
864.0
881.0
899.0
917.0
937.0
953.0
962.0
961.0
963.0
963.0
964.0
966.0
966.0
968.0
966.0
967.0
967.0
970.0
967.0
966.0
966.0
967.0
966.0
969.0
976.0
974.0
973.0
970.0
971.0
977.0
976.0
977.0
977.0
975.0
980.0
980.0
980.0
981.0
982.0
980.0
979.0
984.0
987.0
988.0
988.0
986.0
988.0
992.0
998.0
999.0
1002.0
1002.0
1004.0
1004.0
1010.0
1010.0
1013.0
1016.0
1021.0
1024.0
1025.0
1026.0
1025.0
1027.0
1032.0
1039.0
1038.0
1037.0
1035.0
1036.0
1044.0
1047.0
1048.0
1045.0
1041.0
1047.0
1048.0
1050.0
1050.0
1046.0
1045.0
1043.0
1040.0
1041.0
1039.0
1034.0
1030.0
1028.0
1027.0
1021.0
1018.0
1014.0
1011.0
1006.0
1004.0
1004.0
1001.0
996.0
990.0
986.0
985.0
984.0
982.0
978.0
973.0
975.0
977.0
977.0
978.0
977.0
976.0
974.0
974.0
975.0
972.0
973.0
969.0
968.0
972.0
974.0
976.0
975.0
971.0
973.0
977.0
977.0
972.0
974.0
970.0
970.0
973.0
972.0
972.0
968.0
967.0
967.0
970.0
969.0
971.0
970.0
970.0
972.0
970.0
976.0
973.0
968.0
968.0
969.0
971.0
970.0
969.0
964.0
961.0
959.0
965.0
969.0
970.0
970.0
968.0
972.0
975.0
977.0
979.0
974.0
975.0
975.0
978.0
979.0
981.0
977.0
972.0
969.0
971.0
974.0
974.0
971.0
972.0
970.0
970.0
970.0
967.0
962.0
958.0
954.0
960.0
962.0
963.0
960.0
957.0
959.0
957.0
957.0
953.0
953.0
949.0
944.0
944.0
943.0
942.0
940.0
939.0
938.0
937.0
935.0
935.0
933.0
931.0
932.0
936.0
938.0
936.0
931.0
931.0
929.0
932.0
938.0
940.0
937.0
932.0
928.0
931.0
936.0
943.0
953.0
975.0
1012.0
1064.0
1122.0
1176.0
1207.0
1197.0
1153.0
1093.0
1019.0
928.0
849.0
818.0
825.0
846.0
862.0
884.0
900.0
909.0
912.0
914.0
917.0
919.0
921.0
920.0
919.0
920.0
921.0
919.0
914.0
916.0
918.0
921.0
922.0
921.0
921.0
921.0
927.0
928.0
927.0
924.0
925.0
923.0
926.0
929.0
932.0
932.0
933.0
932.0
935.0
941.0
942.0
942.0
938.0
940.0
943.0
948.0
950.0
947.0
944.0
942.0
942.0
946.0
953.0
955.0
956.0
957.0
957.0
966.0
968.0
971.0
974.0
973.0
971.0
975.0
975.0
974.0
975.0
977.0
977.0
979.0
979.0
977.0
974.0
967.0
964.0
965.0
965.0
967.0
970.0
968.0
965.0
964.0
962.0
958.0
957.0
954.0
948.0
945.0
939.0
937.0
934.0
930.0
925.0
924.0
928.0
927.0
922.0
916.0
914.0
915.0
914.0
913.0
912.0
911.0
911.0
910.0
914.0
918.0
917.0
913.0
911.0
911.0
913.0
914.0
911.0
911.0
909.0
914.0
917.0
914.0
911.0
909.0
913.0
917.0
920.0
919.0
915.0
917.0
917.0
915.0
917.0
916.0
916.0
916.0
917.0
922.0
923.0
916.0
916.0
915.0
915.0
920.0
924.0
923.0
922.0
918.0
919.0
926.0
933.0
939.0
936.0
933.0
932.0
935.0
940.0
943.0
939.0
938.0
937.0
934.0
936.0
937.0
933.0
935.0
936.0
939.0
939.0
937.0
936.0
933.0
931.0
931.0
934.0
932.0
932.0
933.0
935.0
939.0
942.0
944.0
942.0
938.0
937.0
936.0
933.0
930.0
929.0
928.0
929.0
930.0
932.0
933.0
932.0
928.0
929.0
930.0
931.0
929.0
928.0
926.0
924.0
929.0
931.0
931.0
929.0
927.0
926.0
927.0
926.0
928.0
936.0
952.0
976.0
1012.0
1061.0
1117.0
1172.0
1214.0
1229.0
1208.0
1166.0
1103.0
1020.0
930.0
862.0
842.0
849.0
859.0
868.0
881.0
903.0
923.0
933.0
938.0
933.0
932.0
939.0
947.0
947.0
950.0
944.0
947.0
948.0
952.0
955.0
955.0
956.0
955.0
955.0
959.0
959.0
961.0
958.0
959.0
960.0
962.0
965.0
971.0
969.0
973.0
973.0
975.0
976.0
977.0
974.0
975.0
978.0
980.0
984.0
987.0
984.0
985.0
987.0
993.0
998.0
996.0
999.0
1001.0
1004.0
1009.0
1015.0
1019.0
1018.0
1020.0
1023.0
1030.0
1032.0
1036.0
1035.0
1034.0
1035.0
1038.0
1042.0
1038.0
1039.0
1039.0
1040.0
1044.0
1045.0
1044.0
1042.0
1036.0
1032.0
1030.0
1033.0
1032.0
1028.0
1025.0
1019.0
1016.0
1016.0
1014.0
1009.0
1003.0
1002.0
1004.0
1004.0
1005.0
999.0
996.0
994.0
993.0
995.0
997.0
995.0
993.0
992.0
992.0
992.0
993.0
991.0
987.0
988.0
990.0
992.0
992.0
992.0
990.0
988.0
988.0
991.0
993.0
994.0
992.0
994.0
995.0
1001.0
1002.0
1003.0
1005.0
1006.0
1008.0
1008.0
1010.0
1012.0
1009.0
1009.0
1011.0
1013.0
1012.0
1010.0
1005.0
1007.0
1011.0
1010.0
1008.0
1007.0
1007.0
1008.0
1012.0
1013.0
1014.0
1015.0
1018.0
1018.0
1021.0
1024.0
1024.0
1022.0
1017.0
1023.0
1030.0
1031.0
1031.0
1029.0
1024.0
1026.0
1026.0
1028.0
1029.0
1026.0
1023.0
1023.0
1025.0
1024.0
1024.0
1023.0
1022.0
1022.0
1022.0
1025.0
1028.0
1026.0
1023.0
1020.0
1022.0
1023.0
1019.0
1012.0
1012.0
1010.0
1010.0
1012.0
1012.0
1006.0
1006.0
1009.0
1008.0
1012.0
1010.0
1009.0
1006.0
1005.0
1009.0
1014.0
1015.0
1014.0
1013.0
1012.0
1009.0
1007.0
1003.0
1004.0
1014.0
1035.0
1066.0
1107.0
1159.0
1216.0
1271.0
1304.0
1297.0
1244.0
1157.0
1057.0
963.0
906.0
902.0
923.0
948.0
965.0
980.0
992.0
998.0
1004.0
1009.0
1009.0
1009.0
1007.0
1010.0
1012.0
1015.0
1012.0
1012.0
1012.0
1011.0
1012.0
1015.0
1014.0
1016.0
1012.0
1018.0
1019.0
1022.0
1021.0
1019.0
1020.0
1021.0
1022.0
1026.0
1024.0
1022.0
1023.0
1026.0
1030.0
1034.0
1031.0
1030.0
1033.0
1037.0
1039.0
1041.0
1038.0
1041.0
1043.0
1048.0
1052.0
1051.0
1050.0
1051.0
1056.0
1060.0
1065.0
1068.0
1067.0
1069.0
1067.0
1070.0
1076.0
1080.0
1079.0
1080.0
1077.0
1079.0
1086.0
1086.0
1085.0
1083.0
1084.0
1084.0
1090.0
1088.0
1084.0
1080.0
1077.0
1076.0
1079.0
1074.0
1071.0
1066.0
1062.0
1061.0
1061.0
1058.0
1052.0
1044.0
1040.0
1039.0
1035.0
1037.0
1032.0
1031.0
1029.0
1026.0
1028.0
1027.0
1023.0
1019.0
1020.0
1023.0
1025.0
1025.0
1019.0
1020.0
1018.0
1021.0
1024.0
1024.0
1021.0
1019.0
1019.0
1020.0
1022.0
1023.0
1021.0
1023.0
1022.0
1023.0
1028.0
1029.0
1025.0
1021.0
1023.0
1020.0
1023.0
1023.0
1020.0
1016.0
1018.0
1019.0
1022.0
1021.0
1019.0
1017.0
1012.0
1015.0
1019.0
1018.0
1019.0
1013.0
1012.0
1017.0
1020.0
1021.0
1020.0
1018.0
1016.0
1020.0
1026.0
1026.0
1029.0
1031.0
1030.0
1029.0
1037.0
1037.0
1038.0
1034.0
1035.0
1035.0
1039.0
1040.0
1034.0
1031.0
1028.0
1033.0
1034.0
1037.0
1035.0
1030.0
1029.0
1028.0
1028.0
1024.0
1022.0
1016.0
1016.0
1021.0
1024.0
1023.0
1020.0
1016.0
1013.0
1011.0
1009.0
1009.0
1004.0
999.0
1000.0
1002.0
1004.0
1004.0
1004.0
1002.0
1005.0
1008.0
1012.0
1010.0
1008.0
1010.0
1009.0
1011.0
1013.0
1013.0
1007.0
1002.0
1000.0
1000.0
1008.0
1024.0
1049.0
1086.0
1134.0
1191.0
1248.0
1288.0
1290.0
1248.0
1174.0
1085.0
990.0
917.0
892.0
903.0
928.0
955.0
977.0
990.0
996.0
995.0
998.0
999.0
998.0
999.0
998.0
996.0
997.0
1003.0
1004.0
1008.0
1004.0
1001.0
1002.0
1005.0
1007.0
1007.0
1005.0
1007.0
1009.0
1010.0
1015.0
1015.0
1012.0
1010.0
1011.0
1016.0
1021.0
1025.0
1027.0
1024.0
1026.0
1028.0
1036.0
1040.0
1042.0
1038.0
1042.0
1044.0
1047.0
1052.0
1052.0
1053.0
1057.0
1061.0
1062.0
1061.0
1059.0
1059.0
1061.0
1067.0
1071.0
1070.0
1068.0
1066.0
1067.0
1072.0
1076.0
1075.0
1074.0
1072.0
1069.0
1065.0
1061.0
1056.0
1046.0
1041.0
1034.0
1035.0
1032.0
1028.0
1023.0
1017.0
1014.0
1015.0
1013.0
1012.0
1010.0
1007.0
1005.0
1007.0
1010.0
1008.0
1006.0
1004.0
1002.0
1002.0
1001.0
999.0
998.0
993.0
994.0
995.0
1001.0
1004.0
1002.0
1000.0
1002.0
1003.0
1001.0
998.0
998.0
997.0
999.0
999.0
1002.0
1002.0
999.0
999.0
997.0
996.0
996.0
995.0
991.0
988.0
986.0
989.0
993.0
995.0
997.0
994.0
998.0
998.0
1005.0
1005.0
1002.0
999.0
997.0
997.0
999.0
1001.0
999.0
998.0
1002.0
1004.0
1011.0
1012.0
1011.0
1003.0
1005.0
1004.0
1009.0
1010.0
1009.0
1005.0
1001.0
999.0
1002.0
1003.0
1004.0
1000.0
999.0
1001.0
1003.0
1005.0
997.0
992.0
989.0
990.0
992.0
994.0
994.0
993.0
992.0
991.0
992.0
988.0
987.0
982.0
976.0
975.0
974.0
976.0
978.0
976.0
972.0
971.0
972.0
973.0
968.0
967.0
968.0
970.0
975.0
973.0
974.0
968.0
967.0
967.0
969.0
970.0
966.0
961.0
957.0
960.0
974.0
994.0
1015.0
1043.0
1087.0
1146.0
1202.0
1243.0
1255.0
1239.0
1199.0
1146.0
1077.0
996.0
921.0
883.0
880.0
887.0
895.0
906.0
921.0
935.0
947.0
955.0
960.0
958.0
961.0
961.0
963.0
961.0
964.0
963.0
963.0
964.0
963.0
965.0
969.0
967.0
964.0
964.0
966.0
971.0
973.0
975.0
972.0
975.0
976.0
979.0
981.0
980.0
977.0
974.0
971.0
974.0
976.0
978.0
980.0
980.0
981.0
984.0
985.0
989.0
992.0
994.0
994.0
998.0
1000.0
996.0
996.0
998.0
999.0
1003.0
1004.0
1006.0
1008.0
1011.0
1014.0
1020.0
1024.0
1027.0
1027.0
1028.0
1028.0
1032.0
1036.0
1037.0
1036.0
1031.0
1033.0
1036.0
1039.0
1036.0
1034.0
1030.0
1030.0
1034.0
1034.0
1028.0
1023.0
1020.0
1018.0
1016.0
1015.0
1016.0
1014.0
1011.0
1007.0
1004.0
1000.0
998.0
993.0
990.0
984.0
985.0
983.0
980.0
978.0
975.0
972.0
971.0
971.0
969.0
966.0
962.0
957.0
962.0
965.0
966.0
964.0
963.0
962.0
963.0
962.0
962.0
963.0
961.0
962.0
960.0
961.0
960.0
958.0
955.0
953.0
956.0
960.0
963.0
959.0
957.0
958.0
958.0
963.0
964.0
963.0
960.0
959.0
960.0
964.0
964.0
959.0
954.0
955.0
958.0
961.0
959.0
960.0
957.0
956.0
957.0
962.0
959.0
961.0
963.0
965.0
968.0
971.0
972.0
967.0
965.0
966.0
968.0
972.0
974.0
973.0
968.0
967.0
969.0
970.0
970.0
968.0
964.0
961.0
961.0
957.0
956.0
951.0
949.0
952.0
953.0
957.0
954.0
953.0
952.0
948.0
952.0
957.0
957.0
957.0
952.0
948.0
941.0
940.0
941.0
938.0
937.0
937.0
940.0
943.0
940.0
938.0
936.0
934.0
935.0
938.0
937.0
936.0
936.0
934.0
935.0
935.0
935.0
933.0
928.0
923.0
923.0
924.0
929.0
941.0
957.0
988.0
1029.0
1075.0
1130.0
1180.0
1214.0
1221.0
1195.0
1145.0
1078.0
997.0
909.0
847.0
826.0
833.0
843.0
852.0
865.0
884.0
902.0
912.0
914.0
912.0
919.0
922.0
925.0
927.0
929.0
927.0
925.0
925.0
930.0
933.0
932.0
928.0
927.0
924.0
927.0
929.0
930.0
930.0
927.0
926.0
930.0
935.0
936.0
936.0
935.0
932.0
938.0
946.0
946.0
944.0
941.0
940.0
944.0
946.0
950.0
945.0
946.0
949.0
949.0
952.0
954.0
954.0
957.0
957.0
960.0
966.0
969.0
970.0
969.0
974.0
976.0
981.0
987.0
987.0
985.0
984.0
990.0
996.0
997.0
993.0
990.0
990.0
992.0
999.0
1001.0
1001.0
999.0
996.0
999.0
1005.0
1005.0
1001.0
998.0
997.0
997.0
994.0
992.0
986.0
980.0
978.0
976.0
976.0
970.0
964.0
961.0
958.0
956.0
957.0
955.0
951.0
946.0
946.0
946.0
947.0
948.0
944.0
939.0
941.0
939.0
944.0
945.0
943.0
940.0
940.0
941.0
943.0
941.0
940.0
940.0
940.0
939.0
940.0
940.0
943.0
941.0
942.0
946.0
949.0
949.0
945.0
943.0
941.0
943.0
946.0
946.0
947.0
943.0
943.0
944.0
948.0
948.0
945.0
943.0
944.0
945.0
950.0
949.0
948.0
946.0
945.0
946.0
949.0
949.0
948.0
944.0
944.0
947.0
950.0
948.0
944.0
945.0
946.0
956.0
961.0
961.0
959.0
954.0
958.0
962.0
966.0
964.0
963.0
962.0
961.0
965.0
964.0
965.0
961.0
961.0
959.0
962.0
963.0
962.0
957.0
953.0
951.0
954.0
953.0
956.0
953.0
951.0
951.0
951.0
956.0
954.0
952.0
948.0
946.0
943.0
939.0
939.0
934.0
935.0
932.0
933.0
934.0
934.0
932.0
934.0
936.0
939.0
942.0
944.0
938.0
941.0
941.0
946.0
947.0
944.0
942.0
941.0
938.0
938.0
937.0
936.0
939.0
948.0
963.0
989.0
1016.0
1059.0
1103.0
1152.0
1198.0
1240.0
1256.0
1228.0
1174.0
1102.0
1021.0
931.0
865.0
837.0
837.0
850.0
867.0
888.0
908.0
922.0
925.0
929.0
931.0
938.0
942.0
945.0
942.0
942.0
944.0
950.0
953.0
954.0
952.0
949.0
949.0
951.0
953.0
953.0
955.0
953.0
952.0
952.0
958.0
957.0
958.0
957.0
958.0
962.0
964.0
964.0
964.0
964.0
965.0
967.0
972.0
973.0
972.0
975.0
975.0
978.0
984.0
989.0
984.0
980.0
982.0
988.0
994.0
999.0
999.0
999.0
1004.0
1008.0
1015.0
1019.0
1018.0
1019.0
1018.0
1022.0
1026.0
1028.0
1029.0
1028.0
1027.0
1030.0
1033.0
1036.0
1033.0
1033.0
1032.0
1032.0
1037.0
1032.0
1033.0
1029.0
1025.0
1025.0
1023.0
1024.0
1020.0
1013.0
1010.0
1007.0
1004.0
1000.0
994.0
992.0
988.0
986.0
987.0
983.0
978.0
979.0
979.0
981.0
982.0
982.0
978.0
974.0
974.0
975.0
976.0
978.0
976.0
972.0
972.0
975.0
975.0
976.0
974.0
971.0
970.0
971.0
979.0
976.0
975.0
972.0
973.0
975.0
974.0
976.0
974.0
971.0
973.0
973.0
973.0
975.0
976.0
973.0
970.0
974.0
974.0
971.0
975.0
977.0
979.0
983.0
985.0
988.0
991.0
990.0
992.0
993.0
996.0
992.0
994.0
991.0
992.0
996.0
1000.0
993.0
993.0
988.0
984.0
986.0
987.0
986.0
983.0
984.0
986.0
987.0
988.0
985.0
982.0
976.0
973.0
973.0
974.0
976.0
974.0
971.0
972.0
978.0
982.0
981.0
980.0
980.0
977.0
977.0
976.0
977.0
978.0
973.0
972.0
973.0
976.0
978.0
976.0
973.0
968.0
967.0
960.0
961.0
964.0
973.0
992.0
1022.0
1063.0
1119.0
1175.0
1223.0
1255.0
1250.0
1210.0
1142.0
1056.0
962.0
889.0
868.0
885.0
908.0
924.0
941.0
954.0
963.0
970.0
974.0
975.0
975.0
976.0
976.0
980.0
978.0
979.0
977.0
976.0
978.0
982.0
981.0
978.0
977.0
975.0
977.0
979.0
976.0
978.0
977.0
973.0
975.0
980.0
984.0
983.0
984.0
986.0
992.0
995.0
996.0
992.0
996.0
996.0
999.0
1003.0
1004.0
1002.0
1003.0
1006.0
1010.0
1013.0
1016.0
1017.0
1016.0
1018.0
1023.0
1026.0
1027.0
1030.0
1030.0
1033.0
1035.0
1041.0
1042.0
1043.0
1044.0
1045.0
1045.0
1045.0
1045.0
1046.0
1043.0
1045.0
1050.0
1048.0
1053.0
1053.0
1051.0
1049.0
1051.0
1054.0
1055.0
1053.0
1049.0
1044.0
1045.0
1044.0
1042.0
1039.0
1033.0
1028.0
1024.0
1023.0
1021.0
1019.0
1012.0
1008.0
1008.0
1008.0
1008.0
1005.0
1004.0
999.0
998.0
999.0
999.0
998.0
998.0
997.0
999.0
1002.0
1001.0
999.0
997.0
997.0
996.0
995.0
999.0
1002.0
1002.0
1000.0
998.0
1001.0
1002.0
1001.0
999.0
1000.0
1006.0
1008.0
1005.0
1006.0
1005.0
1003.0
1007.0
1007.0
1008.0
1007.0
1004.0
1002.0
1007.0
1006.0
1006.0
1005.0
1003.0
1004.0
1005.0
1005.0
1002.0
999.0
999.0
999.0
1000.0
1000.0
1006.0
1003.0
1001.0
998.0
1004.0
1003.0
1004.0
1003.0
1005.0
1004.0
1003.0
1005.0
1006.0
1008.0
1005.0
1005.0
1005.0
1010.0
1014.0
1012.0
1008.0
1014.0
1017.0
1022.0
1024.0
1022.0
1020.0
1018.0
1022.0
1022.0
1027.0
1024.0
1022.0
1021.0
1023.0
1022.0
1022.0
1024.0
1022.0
1022.0
1026.0
1028.0
1025.0
1021.0
1014.0
1014.0
1016.0
1019.0
1019.0
1020.0
1020.0
1020.0
1020.0
1021.0
1020.0
1020.0
1018.0
1009.0
1009.0
1008.0
1011.0
1008.0
1007.0
1006.0
1007.0
1007.0
1008.0
1005.0
1003.0
1006.0
1006.0
1008.0
1011.0
1008.0
1009.0
1010.0
1010.0
1009.0
1003.0
999.0
997.0
1005.0
1021.0
1045.0
1078.0
1125.0
1181.0
1238.0
1281.0
1295.0
1265.0
1203.0
1122.0
1031.0
943.0
899.0
898.0
913.0
927.0
942.0
961.0
978.0
988.0
989.0
992.0
997.0
1002.0
1004.0
1003.0
1004.0
1004.0
1009.0
1010.0
1013.0
1009.0
1011.0
1008.0
1012.0
1013.0
1016.0
1019.0
1017.0
1015.0
1014.0
1016.0
1018.0
1015.0
1015.0
1016.0
1017.0
1017.0
1019.0
1020.0
1020.0
1016.0
1017.0
1022.0
1026.0
1029.0
1031.0
1032.0
1034.0
1040.0
1046.0
1051.0
1053.0
1050.0
1051.0
1056.0
1062.0
1066.0
1068.0
1070.0
1071.0
1075.0
1077.0
1080.0
1078.0
1074.0
1077.0
1077.0
1079.0
1084.0
1083.0
1082.0
1082.0
1085.0
1085.0
1085.0
1079.0
1077.0
1074.0
1072.0
1073.0
1073.0
1068.0
1062.0
1059.0
1058.0
1057.0
1054.0
1049.0
1043.0
1041.0
1039.0
1041.0
1037.0
1029.0
1023.0
1020.0
1022.0
1024.0
1020.0
1016.0
1013.0
1012.0
1015.0
1015.0
1014.0
1014.0
1013.0
1015.0
1019.0
1020.0
1021.0
1021.0
1018.0
1019.0
1023.0
1024.0
1024.0
1022.0
1021.0
1019.0
1020.0
1020.0
1023.0
1020.0
1019.0
1018.0
1013.0
1016.0
1018.0
1018.0
1012.0
1014.0
1015.0
1018.0
1018.0
1021.0
1015.0
1014.0
1013.0
1015.0
1015.0
1017.0
1019.0
1023.0
1023.0
1023.0
1022.0
1022.0
1022.0
1025.0
1030.0
1038.0
1038.0
1034.0
1029.0
1029.0
1031.0
1035.0
1034.0
1032.0
1028.0
1025.0
1023.0
1028.0
1029.0
1027.0
1023.0
1022.0
1022.0
1027.0
1027.0
1025.0
1022.0
1025.0
1023.0
1023.0
1026.0
1029.0
1027.0
1025.0
1021.0
1019.0
1015.0
1009.0
1004.0
1002.0
1002.0
1004.0
1005.0
1000.0
1001.0
1001.0
1002.0
1003.0
1004.0
1001.0
1000.0
1001.0
1002.0
1002.0
1004.0
1000.0
999.0
1000.0
1001.0
998.0
995.0
987.0
985.0
989.0
1001.0
1025.0
1055.0
1095.0
1145.0
1199.0
1254.0
1284.0
1273.0
1222.0
1146.0
1054.0
958.0
898.0
887.0
903.0
925.0
943.0
963.0
977.0
988.0
993.0
994.0
994.0
1000.0
1001.0
998.0
998.0
996.0
997.0
998.0
998.0
997.0
995.0
997.0
998.0
1002.0
1003.0
1002.0
1003.0
1006.0
1007.0
1011.0
1012.0
1013.0
1013.0
1010.0
1013.0
1012.0
1017.0
1011.0
1012.0
1013.0
1010.0
1012.0
1014.0
1016.0
1018.0
1016.0
1014.0
1018.0
1020.0
1023.0
1021.0
1024.0
1024.0
1026.0
1031.0
1032.0
1034.0
1035.0
1040.0
1047.0
1052.0
1052.0
1054.0
1056.0
1057.0
1059.0
1061.0
1063.0
1062.0
1058.0
1059.0
1059.0
1062.0
1068.0
1069.0
1066.0
1066.0
1065.0
1066.0
1062.0
1060.0
1054.0
1052.0
1050.0
1048.0
1044.0
1044.0
1041.0
1036.0
1033.0
1030.0
1026.0
1021.0
1017.0
1014.0
1014.0
1013.0
1013.0
1013.0
1011.0
1008.0
1008.0
1011.0
1011.0
1008.0
1008.0
1006.0
1006.0
1008.0
1010.0
1007.0
1003.0
1002.0
1001.0
1003.0
1004.0
1001.0
997.0
994.0
996.0
1000.0
1000.0
1001.0
994.0
991.0
993.0
994.0
994.0
995.0
990.0
994.0
998.0
1001.0
1002.0
1001.0
998.0
999.0
1001.0
1002.0
1000.0
999.0
999.0
997.0
995.0
1000.0
1002.0
1004.0
1004.0
1004.0
1007.0
1011.0
1013.0
1011.0
1009.0
1007.0
1009.0
1011.0
1013.0
1012.0
1011.0
1007.0
1009.0
1010.0
1011.0
1006.0
1007.0
1006.0
1007.0
1002.0
1000.0
997.0
998.0
998.0
1001.0
1004.0
1007.0
1004.0
1000.0
999.0
1002.0
1004.0
1006.0
999.0
996.0
991.0
988.0
988.0
988.0
984.0
981.0
980.0
981.0
983.0
984.0
980.0
977.0
977.0
978.0
980.0
979.0
977.0
974.0
973.0
973.0
978.0
975.0
973.0
964.0
962.0
962.0
970.0
981.0
997.0
1021.0
1058.0
1104.0
1160.0
1213.0
1253.0
1260.0
1233.0
1175.0
1099.0
1015.0
925.0
869.0
866.0
881.0
899.0
916.0
934.0
949.0
956.0
963.0
965.0
967.0
967.0
967.0
966.0
965.0
966.0
967.0
966.0
963.0
961.0
964.0
960.0
961.0
962.0
963.0
965.0
963.0
968.0
967.0
966.0
965.0
969.0
970.0
975.0
976.0
976.0
975.0
977.0
976.0
978.0
981.0
981.0
979.0
979.0
981.0
985.0
988.0
988.0
987.0
990.0
996.0
1001.0
1004.0
1006.0
1002.0
1001.0
1005.0
1009.0
1014.0
1016.0
1016.0
1017.0
1019.0
1024.0
1025.0
1027.0
1028.0
1028.0
1027.0
1028.0
1028.0
1030.0
1028.0
1029.0
1029.0
1029.0
1029.0
1024.0
1026.0
1022.0
1018.0
1017.0
1016.0
1011.0
1006.0
1001.0
999.0
998.0
993.0
988.0
981.0
978.0
975.0
976.0
971.0
970.0
965.0
965.0
966.0
966.0
965.0
962.0
959.0
958.0
958.0
956.0
957.0
954.0
955.0
953.0
955.0
955.0
956.0
955.0
953.0
953.0
956.0
957.0
955.0
951.0
951.0
946.0
948.0
951.0
956.0
961.0
958.0
956.0
953.0
952.0
953.0
952.0
950.0
949.0
947.0
952.0
952.0
949.0
949.0
949.0
950.0
950.0
950.0
946.0
947.0
946.0
949.0
953.0
955.0
954.0
954.0
956.0
960.0
