# Simple Text Format
# Sampling Rate (Hz):= 360.00
# Resolution:= 12
# Labels:= ECG
1174.0
1217.0
1239.0
1224.0
1178.0
1111.0
1031.0
940.0
870.0
850.0
869.0
896.0
919.0
937.0
947.0
953.0
958.0
967.0
972.0
971.0
972.0
969.0
968.0
971.0
976.0
974.0
972.0
973.0
971.0
972.0
973.0
970.0
973.0
973.0
975.0
977.0
980.0
977.0
975.0
974.0
977.0
978.0
980.0
980.0
981.0
983.0
984.0
987.0
990.0
992.0
989.0
991.0
997.0
1002.0
1005.0
1007.0
1005.0
1004.0
1004.0
1010.0
1014.0
1016.0
1019.0
1019.0
1018.0
1021.0
1020.0
1023.0
1022.0
1023.0
1025.0
1031.0
1033.0
1037.0
1033.0
1028.0
1034.0
1041.0
1046.0
1042.0
1037.0
1035.0
1033.0
1039.0
1043.0
1042.0
1044.0
1041.0
1037.0
1033.0
1031.0
1027.0
1018.0
1015.0
1015.0
1020.0
1020.0
1015.0
1009.0
1004.0
1003.0
1004.0
1003.0
1000.0
996.0
997.0
991.0
991.0
991.0
989.0
982.0
980.0
977.0
978.0
979.0
977.0
974.0
972.0
972.0
975.0
974.0
971.0
967.0
969.0
971.0
975.0
976.0
976.0
974.0
971.0
969.0
970.0
969.0
966.0
965.0
965.0
967.0
968.0
971.0
972.0
971.0
973.0
974.0
975.0
977.0
973.0
969.0
971.0
969.0
973.0
972.0
974.0
970.0
969.0
969.0
970.0
970.0
968.0
965.0
964.0
962.0
960.0
962.0
965.0
975.0
999.0
1035.0
1085.0
1141.0
1193.0
1229.0
1231.0
1199.0
1137.0
1063.0
979.0
898.0
855.0
855.0
879.0
902.0
925.0
943.0
953.0
954.0
958.0
961.0
964.0
964.0
966.0
965.0
969.0
972.0
968.0
966.0
961.0
962.0
965.0
967.0
968.0
967.0
964.0
965.0
969.0
973.0
975.0
974.0
972.0
969.0
971.0
972.0
974.0
975.0
973.0
978.0
981.0
982.0
979.0
979.0
979.0
984.0
986.0
990.0
991.0
994.0
995.0
998.0
1000.0
1004.0
1007.0
1005.0
1003.0
1005.0
1008.0
1014.0
1019.0
1019.0
1015.0
1017.0
1020.0
1023.0
1026.0
1028.0
1025.0
1026.0
1026.0
1031.0
1031.0
1030.0
1024.0
1025.0
1025.0
1024.0
1023.0
1021.0
1018.0
1012.0
1012.0
1008.0
1006.0
997.0
990.0
989.0
990.0
990.0
989.0
985.0
983.0
978.0
981.0
977.0
974.0
971.0
967.0
966.0
967.0
971.0
972.0
968.0
960.0
957.0
963.0
970.0
969.0
964.0
966.0
966.0
969.0
973.0
970.0
969.0
966.0
966.0
969.0
977.0
977.0
976.0
975.0
976.0
976.0
976.0
978.0
977.0
978.0
974.0
977.0
978.0
982.0
979.0
974.0
976.0
978.0
982.0
978.0
975.0
971.0
970.0
972.0
973.0
972.0
972.0
967.0
967.0
968.0
968.0
971.0
967.0
968.0
969.0
971.0
974.0
977.0
971.0
968.0
962.0
963.0
970.0
970.0
970.0
966.0
962.0
965.0
972.0
976.0
975.0
972.0
974.0
980.0
985.0
984.0
979.0
978.0
978.0
983.0
987.0
984.0
979.0
977.0
980.0
981.0
983.0
981.0
978.0
972.0
968.0
967.0
974.0
977.0
976.0
977.0
977.0
977.0
977.0
975.0
971.0
965.0
962.0
961.0
964.0
963.0
960.0
960.0
960.0
964.0
965.0
964.0
965.0
962.0
960.0
963.0
967.0
968.0
964.0
964.0
965.0
965.0
967.0
964.0
959.0
957.0
965.0
981.0
1006.0
1036.0
1071.0
1116.0
1164.0
1211.0
1238.0
1232.0
1193.0
1126.0
1040.0
942.0
874.0
852.0
866.0
881.0
897.0
920.0
936.0
946.0
944.0
946.0
952.0
955.0
961.0
961.0
963.0
961.0
957.0
960.0
962.0
964.0
960.0
955.0
953.0
957.0
961.0
961.0
961.0
961.0
960.0
963.0
966.0
966.0
964.0
963.0
966.0
970.0
977.0
977.0
977.0
974.0
974.0
978.0
980.0
985.0
988.0
986.0
987.0
989.0
993.0
994.0
992.0
995.0
998.0
1000.0
1004.0
1008.0
1012.0
1011.0
1011.0
1013.0
1018.0
1017.0
1018.0
1020.0
1017.0
1023.0
1025.0
1024.0
1026.0
1026.0
1026.0
1029.0
1030.0
1029.0
1027.0
1025.0
1027.0
1032.0
1030.0
1029.0
1026.0
1024.0
1022.0
1021.0
1021.0
1018.0
1012.0
1008.0
1003.0
1001.0
1000.0
999.0
997.0
992.0
988.0
988.0
988.0
986.0
981.0
975.0
978.0
980.0
978.0
978.0
981.0
979.0
978.0
984.0
984.0
982.0
978.0
979.0
980.0
984.0
985.0
986.0
984.0
983.0
981.0
984.0
984.0
985.0
986.0
984.0
983.0
983.0
987.0
985.0
985.0
980.0
979.0
982.0
984.0
987.0
984.0
983.0
986.0
987.0
987.0
988.0
986.0
985.0
986.0
988.0
990.0
988.0
984.0
983.0
982.0
982.0
984.0
984.0
983.0
984.0
987.0
989.0
994.0
993.0
991.0
987.0
989.0
992.0
995.0
995.0
993.0
993.0
991.0
994.0
992.0
994.0
989.0
987.0
987.0
989.0
992.0
991.0
989.0
982.0
977.0
979.0
983.0
982.0
981.0
977.0
977.0
983.0
987.0
986.0
981.0
975.0
973.0
968.0
971.0
970.0
968.0
967.0
965.0
967.0
971.0
972.0
970.0
969.0
967.0
969.0
970.0
970.0
969.0
969.0
966.0
968.0
969.0
970.0
967.0
964.0
964.0
964.0
962.0
955.0
955.0
957.0
965.0
985.0
1012.0
1047.0
1092.0
1137.0
1188.0
1235.0
1260.0
1242.0
1187.0
1107.0
1017.0
925.0
867.0
855.0
872.0
893.0
910.0
931.0
947.0
955.0
958.0
961.0
963.0
970.0
975.0
973.0
971.0
968.0
967.0
966.0
967.0
969.0
966.0
967.0
967.0
972.0
973.0
974.0
973.0
971.0
973.0
971.0
976.0
978.0
979.0
980.0
979.0
980.0
984.0
982.0
983.0
983.0
982.0
986.0
988.0
993.0
994.0
991.0
990.0
992.0
998.0
1000.0
996.0
996.0
999.0
1001.0
1004.0
1005.0
1008.0
1009.0
1013.0
1017.0
1019.0
1022.0
1025.0
1023.0
1023.0
1026.0
1030.0
1031.0
1032.0
1033.0
1032.0
1035.0
1038.0
1039.0
1038.0
1036.0
1032.0
1033.0
1033.0
1036.0
1033.0
1032.0
1031.0
1033.0
1033.0
1031.0
1028.0
1024.0
1024.0
1023.0
1023.0
1020.0
1016.0
1010.0
1007.0
1004.0
1001.0
999.0
996.0
994.0
993.0
992.0
991.0
990.0
991.0
989.0
985.0
989.0
990.0
992.0
989.0
988.0
985.0
984.0
986.0
988.0
984.0
985.0
984.0
988.0
990.0
988.0
986.0
985.0
984.0
985.0
989.0
989.0
985.0
983.0
982.0
983.0
985.0
984.0
983.0
982.0
980.0
982.0
982.0
984.0
981.0
980.0
977.0
983.0
986.0
981.0
984.0
981.0
980.0
984.0
986.0
984.0
987.0
984.0
984.0
988.0
992.0
995.0
994.0
993.0
990.0
992.0
995.0
997.0
995.0
995.0
995.0
995.0
997.0
997.0
995.0
993.0
992.0
995.0
997.0
994.0
995.0
995.0
994.0
992.0
990.0
990.0
989.0
985.0
985.0
985.0
990.0
991.0
989.0
987.0
984.0
983.0
983.0
977.0
975.0
974.0
974.0
975.0
975.0
976.0
975.0
972.0
971.0
972.0
977.0
977.0
973.0
974.0
974.0
975.0
975.0
974.0
974.0
974.0
974.0
974.0
971.0
967.0
960.0
955.0
958.0
969.0
987.0
1009.0
1036.0
1070.0
1114.0
1163.0
1214.0
1251.0
1262.0
1231.0
1168.0
1094.0
1012.0
924.0
867.0
857.0
872.0
897.0
918.0
936.0
948.0
956.0
958.0
965.0
969.0
970.0
967.0
966.0
968.0
972.0
974.0
973.0
969.0
967.0
968.0
971.0
974.0
975.0
972.0
973.0
974.0
979.0
981.0
978.0
977.0
975.0
976.0
979.0
980.0
982.0
981.0
979.0
981.0
984.0
982.0
984.0
984.0
986.0
986.0
990.0
992.0
998.0
999.0
1000.0
999.0
1003.0
1007.0
1009.0
1009.0
1011.0
1012.0
1015.0
1021.0
1026.0
1026.0
1027.0
1026.0
1030.0
1034.0
1037.0
1039.0
1036.0
1038.0
1038.0
1041.0
1041.0
1042.0
1042.0
1039.0
1045.0
1047.0
1047.0
1046.0
1043.0
1043.0
1044.0
1044.0
1042.0
1043.0
1041.0
1039.0
1036.0
1037.0
1033.0
1026.0
1023.0
1017.0
1019.0
1015.0
1012.0
1008.0
1004.0
1001.0
1004.0
1003.0
1002.0
995.0
992.0
990.0
992.0
999.0
994.0
995.0
990.0
990.0
993.0
991.0
991.0
987.0
986.0
986.0
987.0
987.0
986.0
986.0
984.0
982.0
989.0
990.0
990.0
987.0
985.0
985.0
988.0
990.0
991.0
989.0
985.0
984.0
984.0
989.0
987.0
989.0
989.0
986.0
982.0
986.0
986.0
987.0
990.0
987.0
989.0
990.0
992.0
987.0
986.0
986.0
987.0
994.0
994.0
989.0
987.0
988.0
991.0
996.0
1000.0
1003.0
1002.0
998.0
997.0
999.0
997.0
998.0
998.0
997.0
998.0
1002.0
1000.0
997.0
994.0
994.0
995.0
997.0
998.0
997.0
993.0
992.0
990.0
992.0
989.0
988.0
985.0
984.0
983.0
987.0
993.0
990.0
994.0
990.0
989.0
985.0
982.0
974.0
971.0
970.0
971.0
975.0
974.0
972.0
972.0
971.0
970.0
975.0
973.0
974.0
974.0
970.0
974.0
972.0
974.0
972.0
969.0
971.0
971.0
967.0
965.0
957.0
959.0
967.0
982.0
1002.0
1028.0
1060.0
1103.0
1150.0
1200.0
1238.0
1252.0
1223.0
1169.0
1097.0
1013.0
927.0
864.0
848.0
860.0
881.0
908.0
931.0
945.0
953.0
955.0
960.0
968.0
972.0
970.0
966.0
966.0
966.0
972.0
971.0
973.0
970.0
972.0
972.0
970.0
972.0
970.0
971.0
971.0
970.0
972.0
977.0
980.0
979.0
979.0
978.0
979.0
981.0
977.0
979.0
981.0
982.0
983.0
988.0
989.0
988.0
990.0
989.0
992.0
996.0
999.0
1002.0
1003.0
1004.0
1005.0
1007.0
1009.0
1010.0
1012.0
1012.0
1017.0
1019.0
1024.0
1024.0
1028.0
1029.0
1033.0
1038.0
1040.0
1039.0
1038.0
1038.0
1041.0
1045.0
1044.0
1044.0
1043.0
1042.0
1041.0
1039.0
1040.0
1037.0
1039.0
1036.0
1035.0
1039.0
1035.0
1035.0
1032.0
1027.0
1025.0
1023.0
1019.0
1011.0
1009.0
1003.0
1005.0
1003.0
1000.0
995.0
994.0
991.0
994.0
995.0
991.0
987.0
986.0
987.0
987.0
988.0
986.0
982.0
977.0
979.0
982.0
981.0
984.0
983.0
983.0
983.0
982.0
983.0
984.0
982.0
981.0
982.0
983.0
982.0
981.0
981.0
980.0
980.0
982.0
979.0
979.0
980.0
980.0
978.0
982.0
982.0
982.0
978.0
979.0
978.0
983.0
984.0
983.0
982.0
982.0
983.0
986.0
987.0
990.0
986.0
985.0
987.0
993.0
998.0
1003.0
999.0
994.0
990.0
991.0
994.0
994.0
992.0
989.0
989.0
992.0
991.0
986.0
983.0
977.0
978.0
978.0
982.0
983.0
984.0
986.0
986.0
987.0
987.0
984.0
979.0
974.0
971.0
971.0
969.0
969.0
965.0
963.0
964.0
966.0
970.0
969.0
966.0
963.0
961.0
963.0
967.0
968.0
967.0
964.0
967.0
967.0
967.0
968.0
963.0
957.0
952.0
949.0
951.0
957.0
966.0
983.0
1009.0
1049.0
1094.0
1140.0
1185.0
1219.0
1230.0
1206.0
1159.0
1095.0
1014.0
922.0
858.0
837.0
853.0
876.0
893.0
909.0
927.0
938.0
946.0
948.0
948.0
954.0
956.0
959.0
961.0
962.0
960.0
960.0
960.0
958.0
958.0
958.0
955.0
957.0
957.0
959.0
960.0
961.0
961.0
961.0
962.0
967.0
970.0
969.0
968.0
967.0
967.0
971.0
970.0
976.0
977.0
976.0
976.0
975.0
977.0
982.0
984.0
986.0
984.0
989.0
993.0
994.0
998.0
995.0
997.0
1001.0
1006.0
1007.0
1006.0
1007.0
1011.0
1018.0
1023.0
1022.0
1021.0
1020.0
1023.0
1028.0
1033.0
1030.0
1031.0
1029.0
1031.0
1034.0
1033.0
1032.0
1027.0
1026.0
1023.0
1024.0
1024.0
1025.0
1023.0
1019.0
1015.0
1014.0
1012.0
1005.0
998.0
993.0
992.0
993.0
990.0
987.0
983.0
979.0
979.0
980.0
978.0
972.0
972.0
970.0
970.0
968.0
971.0
970.0
966.0
965.0
966.0
968.0
966.0
963.0
962.0
963.0
962.0
963.0
965.0
965.0
965.0
965.0
963.0
966.0
967.0
964.0
960.0
959.0
961.0
961.0
967.0
966.0
964.0
962.0
962.0
965.0
967.0
964.0
961.0
962.0
960.0
962.0
964.0
965.0
964.0
965.0
967.0
971.0
975.0
970.0
966.0
963.0
960.0
966.0
968.0
969.0
967.0
965.0
967.0
973.0
981.0
982.0
979.0
976.0
976.0
978.0
980.0
980.0
976.0
976.0
976.0
979.0
980.0
981.0
980.0
978.0
979.0
980.0
979.0
974.0
970.0
965.0
965.0
963.0
966.0
963.0
965.0
969.0
969.0
972.0
970.0
964.0
957.0
954.0
953.0
953.0
954.0
954.0
955.0
952.0
952.0
954.0
958.0
957.0
952.0
952.0
951.0
954.0
956.0
959.0
955.0
955.0
955.0
960.0
964.0
962.0
949.0
942.0
939.0
947.0
959.0
979.0
1009.0
1047.0
1093.0
1145.0
1189.0
1213.0
1205.0
1172.0
1118.0
1048.0
967.0
882.0
839.0
840.0
857.0
874.0
895.0
912.0
925.0
934.0
938.0
942.0
948.0
953.0
953.0
951.0
951.0
955.0
960.0
962.0
954.0
955.0
949.0
952.0
956.0
956.0
954.0
951.0
955.0
956.0
958.0
961.0
959.0
960.0
958.0
963.0
967.0
969.0
969.0
968.0
968.0
973.0
976.0
979.0
978.0
978.0
978.0
981.0
983.0
986.0
984.0
984.0
988.0
992.0
997.0
1000.0
1001.0
1002.0
1005.0
1008.0
1014.0
1012.0
1013.0
1014.0
1014.0
1018.0
1024.0
1026.0
1027.0
1025.0
1025.0
1026.0
1027.0
1026.0
1025.0
1022.0
1020.0
1021.0
1021.0
1022.0
1022.0
1019.0
1013.0
1011.0
1012.0
1009.0
1002.0
999.0
996.0
996.0
994.0
991.0
983.0
981.0
977.0
977.0
978.0
979.0
975.0
971.0
967.0
967.0
970.0
969.0
967.0
965.0
966.0
967.0
968.0
970.0
968.0
966.0
963.0
963.0
965.0
965.0
965.0
965.0
964.0
965.0
967.0
965.0
961.0
962.0
966.0
969.0
969.0
965.0
965.0
963.0
963.0
967.0
972.0
973.0
968.0
964.0
965.0
967.0
967.0
965.0
963.0
964.0
968.0
970.0
972.0
973.0
972.0
974.0
975.0
979.0
980.0
977.0
973.0
970.0
973.0
978.0
981.0
982.0
978.0
978.0
979.0
980.0
984.0
981.0
978.0
976.0
977.0
975.0
977.0
980.0
975.0
970.0
968.0
975.0
977.0
977.0
968.0
965.0
968.0
968.0
970.0
970.0
966.0
961.0
958.0
960.0
963.0
961.0
960.0
955.0
953.0
954.0
958.0
960.0
961.0
962.0
959.0
960.0
960.0
960.0
961.0
960.0
957.0
959.0
961.0
958.0
947.0
942.0
944.0
949.0
962.0
989.0
1018.0
1055.0
1103.0
1157.0
1204.0
1224.0
1214.0
1174.0
1115.0
1039.0
951.0
873.0
843.0
850.0
864.0
885.0
911.0
933.0
943.0
949.0
948.0
952.0
955.0
958.0
957.0
954.0
953.0
957.0
958.0
956.0
955.0
952.0
950.0
959.0
962.0
960.0
960.0
957.0
956.0
962.0
967.0
966.0
963.0
965.0
966.0
967.0
972.0
972.0
967.0
965.0
966.0
971.0
974.0
981.0
982.0
983.0
980.0
986.0
990.0
990.0
992.0
992.0
991.0
999.0
1004.0
1005.0
1007.0
1009.0
1007.0
1008.0
1015.0
1018.0
1018.0
1021.0
1018.0
1021.0
1022.0
1024.0
1027.0
1028.0
1025.0
1028.0
1030.0
1029.0
1030.0
1030.0
1028.0
1027.0
1028.0
1030.0
1028.0
1021.0
1017.0
1014.0
1014.0
1011.0
1006.0
1004.0
999.0
999.0
996.0
988.0
984.0
980.0
980.0
980.0
983.0
980.0
976.0
974.0
973.0
976.0
977.0
975.0
975.0
973.0
971.0
969.0
971.0
971.0
970.0
968.0
968.0
969.0
969.0
970.0
972.0
970.0
965.0
970.0
974.0
973.0
974.0
972.0
971.0
974.0
977.0
975.0
973.0
972.0
975.0
975.0
976.0
978.0
978.0
977.0
973.0
972.0
975.0
977.0
978.0
976.0
977.0
979.0
976.0
975.0
976.0
979.0
983.0
987.0
989.0
987.0
991.0
987.0
987.0
985.0
988.0
995.0
992.0
988.0
986.0
987.0
989.0
991.0
990.0
989.0
987.0
984.0
981.0
981.0
979.0
977.0
977.0
977.0
981.0
982.0
980.0
977.0
977.0
979.0
977.0
976.0
971.0
964.0
963.0
962.0
967.0
969.0
967.0
966.0
967.0
967.0
968.0
968.0
966.0
966.0
967.0
971.0
972.0
971.0
969.0
968.0
967.0
965.0
964.0
961.0
954.0
950.0
955.0
967.0
984.0
1011.0
1043.0
1083.0
1131.0
1185.0
1230.0
1258.0
1254.0
1213.0
1143.0
1061.0
971.0
889.0
842.0
849.0
871.0
894.0
917.0
933.0
943.0
950.0
954.0
959.0
963.0
965.0
964.0
969.0
968.0
968.0
971.0
972.0
969.0
969.0
970.0
970.0
971.0
972.0
969.0
968.0
969.0
975.0
977.0
972.0
970.0
969.0
969.0
974.0
981.0
982.0
981.0
981.0
978.0
985.0
990.0
989.0
987.0
989.0
991.0
996.0
999.0
1001.0
1000.0
1002.0
1001.0
1007.0
1011.0
1016.0
1015.0
1016.0
1017.0
1022.0
1026.0
1029.0
1030.0
1027.0
1032.0
1036.0
1037.0
1039.0
1036.0
1035.0
1038.0
1039.0
1043.0
1046.0
1042.0
1041.0
1039.0
1042.0
1047.0
1045.0
1041.0
1038.0
1036.0
1035.0
1036.0
1032.0
1028.0
1021.0
1020.0
1019.0
1018.0
1015.0
1010.0
1005.0
1000.0
997.0
1001.0
998.0
996.0
993.0
989.0
992.0
995.0
994.0
991.0
987.0
986.0
987.0
991.0
991.0
988.0
986.0
987.0
989.0
989.0
988.0
986.0
985.0
985.0
983.0
987.0
988.0
984.0
985.0
986.0
988.0
986.0
985.0
987.0
987.0
983.0
987.0
990.0
991.0
989.0
985.0
985.0
988.0
988.0
987.0
986.0
988.0
985.0
988.0
991.0
988.0
982.0
983.0
987.0
991.0
997.0
999.0
999.0
997.0
995.0
998.0
1002.0
1005.0
1004.0
1003.0
1002.0
1004.0
1003.0
1004.0
1004.0
1002.0
999.0
997.0
999.0
998.0
998.0
994.0
993.0
995.0
992.0
993.0
991.0
989.0
990.0
995.0
1001.0
1001.0
999.0
991.0
987.0
986.0
987.0
983.0
977.0
978.0
977.0
978.0
983.0
986.0
983.0
979.0
974.0
978.0
981.0
980.0
980.0
975.0
973.0
977.0
980.0
979.0
978.0
978.0
975.0
975.0
971.0
962.0
962.0
966.0
978.0
1002.0
1030.0
1068.0
1112.0
1163.0
1213.0
1254.0
1262.0
1222.0
1155.0
1070.0
973.0
889.0
859.0
869.0
891.0
917.0
935.0
952.0
961.0
965.0
965.0
967.0
972.0
976.0
978.0
975.0
975.0
972.0
971.0
972.0
974.0
978.0
975.0
977.0
975.0
982.0
983.0
984.0
984.0
983.0
982.0
985.0
988.0
991.0
988.0
987.0
987.0
986.0
989.0
989.0
988.0
988.0
991.0
997.0
1000.0
998.0
999.0
1000.0
1001.0
1004.0
1007.0
1009.0
1010.0
1011.0
1014.0
1016.0
1021.0
1025.0
1027.0
1027.0
1030.0
1035.0
1036.0
1036.0
1036.0
1037.0
1038.0
1042.0
1045.0
1045.0
1045.0
1044.0
1044.0
1046.0
1051.0
1051.0
1048.0
1047.0
1046.0
1047.0
1048.0
1046.0
1044.0
1041.0
1038.0
1038.0
1036.0
1035.0
1030.0
1023.0
1021.0
1022.0
1017.0
1016.0
1009.0
1008.0
1002.0
1001.0
1001.0
1002.0
1002.0
998.0
995.0
995.0
997.0
996.0
992.0
992.0
987.0
992.0
998.0
996.0
994.0
990.0
991.0
995.0
997.0
999.0
996.0
992.0
987.0
989.0
996.0
995.0
990.0
988.0
991.0
995.0
993.0
995.0
992.0
991.0
990.0
991.0
992.0
992.0
992.0
991.0
991.0
994.0
993.0
993.0
995.0
992.0
991.0
997.0
1004.0
1004.0
1004.0
1003.0
1001.0
1002.0
1005.0
1007.0
1008.0
1006.0
1009.0
1011.0
1012.0
1010.0
1008.0
1005.0
1003.0
1008.0
1008.0
1004.0
1001.0
998.0
997.0
997.0
998.0
1000.0
998.0
995.0
997.0
999.0
1000.0
995.0
992.0
989.0
986.0
985.0
985.0
982.0
980.0
981.0
980.0
982.0
984.0
984.0
982.0
978.0
977.0
979.0
981.0
980.0
978.0
979.0
978.0
980.0
981.0
979.0
973.0
966.0
965.0
966.0
972.0
983.0
1005.0
1031.0
1070.0
1123.0
1178.0
1222.0
1243.0
1227.0
1175.0
1103.0
1020.0
931.0
867.0
857.0
879.0
905.0
929.0
947.0
956.0
964.0
969.0
975.0
978.0
975.0
976.0
973.0
974.0
980.0
980.0
981.0
977.0
977.0
973.0
979.0
982.0
983.0
979.0
979.0
979.0
981.0
981.0
985.0
981.0
981.0
983.0
985.0
990.0
991.0
992.0
991.0
991.0
995.0
1003.0
1005.0
1006.0
1007.0
1008.0
1013.0
1020.0
1019.0
1023.0
1024.0
1025.0
1031.0
1033.0
1035.0
1036.0
1034.0
1036.0
1039.0
1045.0
1045.0
1045.0
1042.0
1043.0
1048.0
1050.0
1049.0
1046.0
1043.0
1040.0
1041.0
1042.0
1043.0
1036.0
1032.0
1026.0
1025.0
1024.0
1021.0
1016.0
1011.0
1009.0
1008.0
1008.0
1006.0
1001.0
997.0
995.0
993.0
994.0
992.0
987.0
984.0
985.0
989.0
991.0
988.0
984.0
981.0
980.0
984.0
986.0
985.0
984.0
983.0
981.0
985.0
987.0
986.0
985.0
982.0
981.0
983.0
987.0
984.0
986.0
982.0
983.0
985.0
989.0
988.0
985.0
982.0
983.0
984.0
985.0
984.0
981.0
979.0
974.0
980.0
981.0
981.0
985.0
984.0
982.0
983.0
983.0
988.0
987.0
989.0
991.0
995.0
999.0
999.0
998.0
999.0
995.0
1000.0
1004.0
1002.0
1000.0
996.0
993.0
994.0
995.0
993.0
990.0
989.0
992.0
993.0
992.0
989.0
984.0
980.0
978.0
982.0
986.0
989.0
988.0
988.0
984.0
981.0
979.0
979.0
974.0
969.0
965.0
968.0
970.0
971.0
971.0
970.0
967.0
969.0
971.0
973.0
970.0
965.0
963.0
969.0
971.0
970.0
970.0
969.0
964.0
964.0
967.0
963.0
956.0
954.0
956.0
974.0
996.0
1023.0
1061.0
1104.0
1152.0
1193.0
1215.0
1209.0
1167.0
1103.0
1020.0
931.0
870.0
851.0
862.0
880.0
901.0
924.0
943.0
952.0
954.0
954.0
956.0
963.0
967.0
968.0
966.0
963.0
964.0
969.0
972.0
973.0
970.0
969.0
967.0
969.0
971.0
972.0
969.0
968.0
967.0
971.0
973.0
975.0
974.0
975.0
975.0
975.0
979.0
983.0
980.0
984.0
982.0
985.0
988.0
989.0
989.0
991.0
994.0
999.0
1001.0
1001.0
1006.0
1006.0
1006.0
1007.0
1013.0
1018.0
1017.0
1018.0
1020.0
1026.0
1031.0
1032.0
1031.0
1030.0
1028.0
1033.0
1039.0
1041.0
1037.0
1036.0
1034.0
1035.0
1040.0
1040.0
1037.0
1037.0
1036.0
1036.0
1036.0
1033.0
1029.0
1023.0
1018.0
1019.0
1019.0
1019.0
1009.0
1006.0
1003.0
1000.0
1001.0
998.0
993.0
987.0
984.0
985.0
985.0
984.0
980.0
978.0
979.0
981.0
983.0
986.0
981.0
979.0
979.0
984.0
985.0
983.0
979.0
977.0
975.0
978.0
982.0
983.0
981.0
978.0
980.0
981.0
986.0
986.0
983.0
980.0
976.0
977.0
980.0
984.0
983.0
980.0
977.0
981.0
986.0
988.0
983.0
981.0
983.0
983.0
987.0
985.0
985.0
981.0
985.0
990.0
993.0
992.0
992.0
991.0
992.0
993.0
996.0
994.0
993.0
994.0
996.0
998.0
1000.0
1001.0
998.0
996.0
996.0
1000.0
1000.0
999.0
996.0
992.0
985.0
981.0
980.0
975.0
974.0
976.0
976.0
976.0
980.0
984.0
982.0
980.0
978.0
978.0
982.0
977.0
973.0
969.0
969.0
973.0
977.0
976.0
976.0
979.0
982.0
985.0
977.0
967.0
964.0
960.0
962.0
964.0
967.0
968.0
964.0
962.0
962.0
962.0
960.0
954.0
950.0
946.0
953.0
972.0
999.0
1028.0
1066.0
1111.0
1162.0
1207.0
1227.0
1214.0
1169.0
1106.0
1025.0
937.0
871.0
852.0
859.0
876.0
893.0
915.0
935.0
948.0
953.0
955.0
956.0
960.0
965.0
964.0
963.0
961.0
964.0
963.0
968.0
970.0
969.0
967.0
966.0
969.0
973.0
976.0
975.0
974.0
974.0
975.0
979.0
981.0
981.0
980.0
980.0
984.0
980.0
986.0
986.0
985.0
988.0
990.0
992.0
993.0
994.0
994.0
995.0
999.0
1001.0
1006.0
1003.0
1003.0
1008.0
1013.0
1015.0
1018.0
1014.0
1018.0
1017.0
1027.0
1035.0
1039.0
1037.0
1035.0
1029.0
1031.0
1037.0
1044.0
1048.0
1054.0
1059.0
1061.0
1049.0
1035.0
1024.0
1029.0
1039.0
1043.0
1043.0
1042.0
1040.0
1038.0
1038.0
1040.0
1040.0
1039.0
1037.0
1033.0
1031.0
1034.0
1032.0
1029.0
1023.0
1019.0
1015.0
1013.0
1014.0
1013.0
1007.0
1004.0
1003.0
1005.0
1007.0
1008.0
1006.0
998.0
992.0
992.0
997.0
997.0
995.0
992.0
997.0
1005.0
1008.0
1004.0
994.0
983.0
983.0
986.0
989.0
989.0
987.0
985.0
985.0
988.0
989.0
992.0
992.0
991.0
991.0
992.0
993.0
997.0
997.0
993.0
992.0
992.0
995.0
996.0
995.0
993.0
992.0
993.0
995.0
994.0
993.0
994.0
993.0
995.0
998.0
997.0
996.0
997.0
999.0
1006.0
1011.0
1012.0
1018.0
1016.0
1021.0
1018.0
1010.0
1007.0
1000.0
1000.0
1000.0
1003.0
1007.0
1007.0
1006.0
1002.0
1002.0
1004.0
1006.0
1010.0
1006.0
1006.0
1009.0
1010.0
1013.0
1005.0
990.0
981.0
986.0
994.0
999.0
997.0
991.0
990.0
988.0
987.0
989.0
988.0
986.0
984.0
983.0
984.0
984.0
985.0
983.0
981.0
983.0
986.0
988.0
989.0
983.0
980.0
982.0
987.0
989.0
989.0
989.0
985.0
980.0
971.0
965.0
966.0
974.0
988.0
1011.0
1037.0
1080.0
1130.0
1184.0
1233.0
1265.0
1258.0
1214.0
1147.0
1066.0
978.0
899.0
858.0
861.0
879.0
901.0
920.0
939.0
953.0
965.0
972.0
975.0
976.0
979.0
983.0
989.0
998.0
1000.0
993.0
984.0
979.0
972.0
969.0
968.0
967.0
970.0
974.0
979.0
981.0
981.0
981.0
982.0
984.0
985.0
986.0
984.0
986.0
989.0
990.0
996.0
995.0
999.0
999.0
998.0
999.0
1003.0
1004.0
1006.0
1014.0
1019.0
1024.0
1025.0
1019.0
1013.0
1007.0
1005.0
1009.0
1014.0
1018.0
1022.0
1025.0
1031.0
1037.0
1037.0
1039.0
1040.0
1041.0
1039.0
1043.0
1048.0
1050.0
1054.0
1055.0
1060.0
1055.0
1050.0
1047.0
1048.0
1049.0
1050.0
1057.0
1061.0
1065.0
1065.0
1065.0
1060.0
1050.0
1038.0
1025.0
1019.0
1024.0
1029.0
1031.0
1032.0
1031.0
1025.0
1017.0
1011.0
1010.0
1010.0
1008.0
1004.0
1002.0
1002.0
1004.0
1009.0
1009.0
1009.0
1007.0
1005.0
1004.0
1002.0
1000.0
995.0
989.0
988.0
989.0
996.0
1000.0
1000.0
1001.0
1007.0
1015.0
1013.0
1003.0
990.0
982.0
986.0
997.0
1008.0
1018.0
1026.0
1021.0
1001.0
980.0
973.0
977.0
984.0
986.0
988.0
991.0
992.0
996.0
996.0
997.0
1000.0
1006.0
1011.0
1012.0
1009.0
1005.0
1002.0
1000.0
996.0
992.0
991.0
998.0
1005.0
1019.0
1027.0
1024.0
1010.0
990.0
981.0
989.0
997.0
1003.0
1004.0
1002.0
1003.0
1005.0
1006.0
1009.0
1008.0
1005.0
1004.0
1006.0
1007.0
1008.0
1003.0
999.0
1002.0
1011.0
1016.0
1008.0
992.0
985.0
987.0
994.0
998.0
995.0
995.0
990.0
990.0
989.0
989.0
990.0
987.0
984.0
986.0
988.0
998.0
994.0
984.0
976.0
971.0
976.0
981.0
984.0
985.0
982.0
983.0
983.0
986.0
982.0
979.0
973.0
973.0
968.0
966.0
967.0
974.0
984.0
1003.0
1030.0
1066.0
1110.0
1161.0
1205.0
1240.0
1248.0
1218.0
1161.0
1084.0
996.0
914.0
867.0
865.0
883.0
909.0
925.0
940.0
954.0
964.0
969.0
971.0
977.0
976.0
977.0
981.0
984.0
980.0
977.0
975.0
980.0
986.0
984.0
978.0
973.0
972.0
972.0
975.0
978.0
978.0
976.0
975.0
978.0
981.0
981.0
984.0
985.0
988.0
990.0
991.0
994.0
993.0
991.0
995.0
996.0
999.0
1000.0
1001.0
1003.0
1005.0
1010.0
1015.0
1014.0
1012.0
1013.0
1018.0
1022.0
1023.0
1021.0
1024.0
1025.0
1030.0
1035.0
1038.0
1040.0
1041.0
1040.0
1038.0
1037.0
1039.0
1042.0
1044.0
1042.0
1040.0
1043.0
1046.0
1046.0
1042.0
1034.0
1037.0
1038.0
1040.0
1040.0
1037.0
1036.0
1034.0
1036.0
1033.0
1040.0
1036.0
1030.0
1020.0
1012.0
1009.0
1008.0
1007.0
1005.0
1002.0
990.0
980.0
976.0
978.0
978.0
979.0
977.0
979.0
982.0
983.0
984.0
983.0
984.0
984.0
985.0
988.0
988.0
986.0
990.0
990.0
991.0
990.0
987.0
986.0
987.0
990.0
991.0
988.0
987.0
989.0
988.0
989.0
991.0
989.0
986.0
986.0
992.0
994.0
990.0
983.0
987.0
996.0
1001.0
988.0
966.0
955.0
960.0
969.0
978.0
986.0
986.0
988.0
987.0
986.0
985.0
987.0
988.0
988.0
986.0
990.0
993.0
996.0
1000.0
994.0
995.0
993.0
997.0
999.0
1001.0
1002.0
1000.0
995.0
993.0
989.0
985.0
981.0
980.0
979.0
977.0
975.0
979.0
981.0
982.0
980.0
983.0
984.0
983.0
977.0
967.0
964.0
966.0
968.0
975.0
977.0
974.0
974.0
978.0
976.0
975.0
968.0
962.0
962.0
965.0
969.0
971.0
970.0
966.0
966.0
960.0
957.0
952.0
952.0
958.0
974.0
1002.0
1038.0
1080.0
1129.0
1176.0
1209.0
1217.0
1196.0
1149.0
1080.0
999.0
922.0
871.0
858.0
870.0
884.0
897.0
916.0
937.0
