# Simple Text Format
# Sampling Rate (Hz):= 360.00
# Resolution:= 12
# Labels:= ECG
1014.0
1016.0
1014.0
1014.0
1010.0
1009.0
1010.0
1012.0
1013.0
1012.0
1011.0
1009.0
1011.0
1012.0
1009.0
1006.0
1000.0
999.0
1003.0
1005.0
1004.0
1003.0
999.0
1000.0
1001.0
1003.0
1004.0
1000.0
994.0
990.0
989.0
990.0
991.0
989.0
987.0
985.0
986.0
986.0
988.0
984.0
983.0
984.0
983.0
983.0
986.0
987.0
987.0
985.0
985.0
986.0
988.0
981.0
975.0
971.0
970.0
979.0
991.0
1014.0
1039.0
1072.0
1114.0
1166.0
1208.0
1239.0
1245.0
1222.0
1173.0
1111.0
1031.0
945.0
893.0
885.0
896.0
908.0
924.0
942.0
960.0
968.0
974.0
974.0
975.0
980.0
980.0
982.0
984.0
983.0
982.0
978.0
975.0
973.0
975.0
980.0
984.0
983.0
981.0
980.0
982.0
982.0
986.0
985.0
983.0
982.0
983.0
988.0
989.0
988.0
987.0
988.0
991.0
994.0
993.0
994.0
992.0
992.0
999.0
1002.0
1006.0
1007.0
1006.0
1011.0
1012.0
1016.0
1019.0
1022.0
1018.0
1021.0
1024.0
1026.0
1032.0
1037.0
1038.0
1037.0
1039.0
1041.0
1045.0
1044.0
1043.0
1046.0
1046.0
1050.0
1050.0
1049.0
1047.0
1046.0
1046.0
1046.0
1046.0
1040.0
1039.0
1035.0
1033.0
1032.0
1031.0
1026.0
1019.0
1015.0
1013.0
1012.0
1010.0
1007.0
1003.0
1002.0
999.0
1003.0
1001.0
999.0
997.0
992.0
989.0
993.0
994.0
991.0
988.0
988.0
989.0
990.0
989.0
990.0
987.0
989.0
991.0
991.0
993.0
989.0
986.0
982.0
988.0
992.0
989.0
988.0
989.0
989.0
988.0
989.0
991.0
992.0
991.0
992.0
993.0
992.0
993.0
991.0
987.0
986.0
989.0
989.0
990.0
992.0
991.0
990.0
989.0
994.0
994.0
993.0
992.0
988.0
992.0
999.0
1003.0
1003.0
1003.0
1002.0
1003.0
1003.0
1005.0
1004.0
1004.0
1004.0
1004.0
1005.0
1005.0
1005.0
1000.0
997.0
1001.0
1003.0
1004.0
1003.0
1002.0
1002.0
999.0
998.0
995.0
991.0
988.0
989.0
992.0
995.0
996.0
996.0
994.0
990.0
987.0
987.0
988.0
982.0
977.0
974.0
972.0
980.0
978.0
978.0
977.0
978.0
978.0
979.0
981.0
981.0
978.0
977.0
976.0
978.0
980.0
982.0
983.0
980.0
980.0
979.0
971.0
962.0
958.0
960.0
970.0
989.0
1016.0
1050.0
1091.0
1135.0
1187.0
1231.0
1259.0
1250.0
1204.0
1137.0
1056.0
967.0
900.0
872.0
879.0
894.0
909.0
927.0
944.0
953.0
960.0
963.0
967.0
970.0
971.0
973.0
972.0
969.0
968.0
970.0
971.0
972.0
970.0
972.0
973.0
973.0
975.0
971.0
972.0
973.0
974.0
976.0
980.0
978.0
975.0
976.0
979.0
983.0
984.0
982.0
982.0
981.0
982.0
987.0
990.0
988.0
988.0
989.0
992.0
995.0
1000.0
1002.0
1000.0
999.0
1004.0
1011.0
1012.0
1016.0
1017.0
1016.0
1022.0
1026.0
1029.0
1029.0
1027.0
1028.0
1032.0
1039.0
1041.0
1041.0
1039.0
1035.0
1037.0
1041.0
1042.0
1042.0
1039.0
1037.0
1040.0
1040.0
1041.0
1037.0
1032.0
1029.0
1033.0
1032.0
1032.0
1029.0
1023.0
1018.0
1017.0
1016.0
1013.0
1010.0
1004.0
999.0
997.0
998.0
999.0
995.0
994.0
991.0
990.0
990.0
991.0
991.0
989.0
987.0
986.0
987.0
986.0
986.0
987.0
985.0
985.0
988.0
986.0
986.0
983.0
981.0
982.0
985.0
985.0
983.0
980.0
980.0
981.0
982.0
986.0
984.0
982.0
980.0
981.0
982.0
984.0
985.0
982.0
982.0
981.0
983.0
986.0
986.0
983.0
980.0
983.0
983.0
985.0
986.0
984.0
986.0
990.0
997.0
999.0
997.0
994.0
989.0
988.0
994.0
994.0
996.0
995.0
993.0
991.0
990.0
988.0
985.0
986.0
984.0
988.0
987.0
992.0
991.0
984.0
979.0
980.0
979.0
976.0
973.0
972.0
971.0
972.0
975.0
976.0
972.0
971.0
969.0
971.0
976.0
975.0
973.0
970.0
970.0
973.0
973.0
971.0
972.0
972.0
967.0
964.0
963.0
958.0
952.0
955.0
970.0
998.0
1031.0
1070.0
1116.0
1163.0
1209.0
1241.0
1237.0
1193.0
1117.0
1021.0
926.0
865.0
861.0
880.0
902.0
921.0
935.0
945.0
957.0
964.0
966.0
965.0
964.0
964.0
965.0
967.0
966.0
963.0
962.0
961.0
966.0
969.0
966.0
962.0
965.0
963.0
966.0
969.0
971.0
968.0
969.0
969.0
974.0
975.0
972.0
975.0
971.0
971.0
975.0
975.0
977.0
977.0
979.0
977.0
983.0
984.0
987.0
988.0
986.0
990.0
994.0
997.0
1000.0
1000.0
1004.0
1009.0
1013.0
1019.0
1021.0
1018.0
1020.0
1019.0
1025.0
1026.0
1028.0
1026.0
1028.0
1030.0
1032.0
1034.0
1034.0
1030.0
1028.0
1028.0
1029.0
1026.0
1024.0
1020.0
1014.0
1013.0
1013.0
1010.0
1006.0
998.0
996.0
995.0
994.0
992.0
986.0
984.0
978.0
979.0
981.0
981.0
982.0
981.0
981.0
979.0
977.0
977.0
975.0
974.0
971.0
972.0
973.0
976.0
976.0
976.0
974.0
972.0
973.0
972.0
970.0
970.0
968.0
971.0
974.0
977.0
973.0
972.0
971.0
972.0
971.0
973.0
969.0
971.0
971.0
970.0
974.0
975.0
975.0
973.0
972.0
975.0
977.0
977.0
975.0
965.0
967.0
972.0
974.0
973.0
974.0
974.0
975.0
974.0
977.0
979.0
977.0
976.0
975.0
975.0
982.0
984.0
985.0
976.0
974.0
974.0
976.0
976.0
977.0
972.0
973.0
978.0
980.0
986.0
987.0
987.0
983.0
983.0
987.0
989.0
990.0
986.0
987.0
988.0
987.0
989.0
990.0
993.0
990.0
989.0
988.0
989.0
985.0
981.0
978.0
977.0
983.0
987.0
984.0
983.0
982.0
981.0
983.0
981.0
976.0
974.0
972.0
969.0
970.0
971.0
968.0
968.0
966.0
969.0
970.0
971.0
969.0
965.0
963.0
967.0
971.0
974.0
975.0
974.0
971.0
971.0
972.0
972.0
972.0
960.0
953.0
958.0
965.0
983.0
1006.0
1033.0
1067.0
1108.0
1161.0
1203.0
1228.0
1225.0
1193.0
1135.0
1066.0
986.0
909.0
870.0
871.0
884.0
898.0
917.0
933.0
942.0
950.0
957.0
960.0
963.0
965.0
962.0
965.0
965.0
968.0
967.0
968.0
963.0
965.0
966.0
966.0
970.0
970.0
970.0
970.0
969.0
971.0
974.0
973.0
971.0
970.0
970.0
975.0
977.0
975.0
977.0
977.0
979.0
982.0
983.0
980.0
984.0
987.0
990.0
994.0
998.0
998.0
993.0
995.0
997.0
999.0
1004.0
1007.0
1011.0
1014.0
1020.0
1026.0
1029.0
1028.0
1028.0
1028.0
1030.0
1039.0
1040.0
1038.0
1038.0
1039.0
1038.0
1041.0
1044.0
1043.0
1043.0
1041.0
1042.0
1039.0
1037.0
1034.0
1027.0
1022.0
1021.0
1024.0
1023.0
1019.0
1012.0
1007.0
1004.0
1000.0
1001.0
998.0
995.0
990.0
990.0
992.0
992.0
989.0
984.0
980.0
984.0
987.0
991.0
991.0
990.0
986.0
984.0
987.0
991.0
989.0
989.0
988.0
989.0
985.0
987.0
988.0
986.0
986.0
985.0
987.0
989.0
988.0
985.0
989.0
990.0
994.0
996.0
992.0
988.0
984.0
985.0
987.0
989.0
991.0
988.0
989.0
992.0
998.0
1000.0
998.0
995.0
992.0
992.0
994.0
994.0
993.0
992.0
996.0
997.0
1003.0
1002.0
1004.0
1001.0
1000.0
1001.0
1004.0
1004.0
1009.0
1003.0
1003.0
1004.0
1004.0
1009.0
1007.0
1003.0
1002.0
1004.0
1006.0
1004.0
1000.0
996.0
996.0
995.0
999.0
1000.0
996.0
992.0
993.0
996.0
998.0
996.0
992.0
988.0
982.0
983.0
983.0
985.0
984.0
982.0
980.0
981.0
983.0
984.0
981.0
980.0
980.0
981.0
980.0
980.0
982.0
980.0
978.0
981.0
983.0
983.0
983.0
981.0
972.0
967.0
966.0
970.0
986.0
1005.0
1031.0
1068.0
1114.0
1161.0
1208.0
1240.0
1241.0
1208.0
1152.0
1081.0
998.0
919.0
883.0
882.0
894.0
907.0
922.0
939.0
951.0
958.0
962.0
963.0
967.0
972.0
972.0
972.0
974.0
974.0
976.0
975.0
971.0
975.0
977.0
978.0
975.0
978.0
975.0
978.0
980.0
982.0
984.0
982.0
979.0
980.0
982.0
985.0
984.0
980.0
984.0
986.0
988.0
990.0
990.0
984.0
989.0
993.0
997.0
1000.0
1000.0
1001.0
1001.0
1004.0
1012.0
1016.0
1017.0
1017.0
1019.0
1021.0
1027.0
1031.0
1033.0
1031.0
1032.0
1034.0
1038.0
1039.0
1044.0
1041.0
1043.0
1043.0
1044.0
1044.0
1041.0
1040.0
1042.0
1042.0
1042.0
1040.0
1035.0
1032.0
1029.0
1027.0
1027.0
1026.0
1021.0
1013.0
1007.0
1007.0
1007.0
1004.0
1001.0
997.0
992.0
991.0
992.0
993.0
991.0
989.0
987.0
986.0
989.0
991.0
989.0
984.0
983.0
982.0
986.0
986.0
986.0
984.0
982.0
982.0
984.0
984.0
985.0
980.0
981.0
981.0
983.0
984.0
983.0
983.0
982.0
982.0
982.0
986.0
985.0
983.0
981.0
982.0
983.0
987.0
988.0
990.0
983.0
981.0
986.0
991.0
990.0
986.0
986.0
987.0
986.0
986.0
988.0
989.0
989.0
984.0
987.0
988.0
990.0
990.0
990.0
993.0
997.0
999.0
999.0
997.0
996.0
999.0
999.0
1003.0
998.0
995.0
996.0
997.0
1000.0
999.0
997.0
992.0
988.0
984.0
986.0
990.0
993.0
989.0
990.0
990.0
992.0
992.0
990.0
991.0
984.0
983.0
986.0
986.0
986.0
981.0
984.0
983.0
986.0
988.0
988.0
986.0
984.0
984.0
987.0
988.0
986.0
980.0
975.0
972.0
972.0
973.0
966.0
963.0
962.0
969.0
994.0
1023.0
1061.0
1103.0
1149.0
1201.0
1245.0
1268.0
1247.0
1185.0
1105.0
1016.0
929.0
880.0
868.0
879.0
897.0
917.0
936.0
949.0
954.0
961.0
965.0
966.0
966.0
968.0
971.0
970.0
971.0
971.0
972.0
971.0
972.0
972.0
970.0
972.0
971.0
973.0
974.0
974.0
971.0
972.0
976.0
980.0
979.0
974.0
973.0
976.0
979.0
984.0
986.0
983.0
982.0
980.0
984.0
989.0
991.0
992.0
989.0
990.0
994.0
999.0
1001.0
1001.0
1002.0
1002.0
1010.0
1013.0
1013.0
1021.0
1021.0
1025.0
1025.0
1027.0
1030.0
1029.0
1032.0
1035.0
1037.0
1040.0
1039.0
1040.0
1043.0
1044.0
1046.0
1045.0
1043.0
1038.0
1035.0
1035.0
1035.0
1037.0
1033.0
1025.0
1019.0
1017.0
1021.0
1018.0
1011.0
999.0
998.0
997.0
994.0
991.0
988.0
987.0
985.0
981.0
981.0
983.0
982.0
985.0
983.0
982.0
984.0
987.0
986.0
981.0
979.0
981.0
983.0
984.0
981.0
979.0
981.0
981.0
982.0
983.0
982.0
982.0
981.0
981.0
982.0
985.0
981.0
976.0
978.0
976.0
977.0
975.0
976.0
973.0
970.0
973.0
977.0
981.0
982.0
979.0
978.0
979.0
980.0
982.0
979.0
978.0
981.0
981.0
986.0
987.0
984.0
980.0
979.0
979.0
981.0
986.0
983.0
987.0
986.0
987.0
989.0
992.0
995.0
994.0
992.0
992.0
994.0
998.0
998.0
993.0
988.0
986.0
988.0
993.0
996.0
993.0
987.0
980.0
980.0
984.0
986.0
985.0
983.0
979.0
980.0
984.0
988.0
984.0
981.0
978.0
977.0
978.0
978.0
975.0
973.0
970.0
970.0
969.0
969.0
967.0
965.0
966.0
967.0
969.0
969.0
964.0
961.0
963.0
967.0
970.0
969.0
966.0
962.0
962.0
966.0
966.0
966.0
962.0
955.0
950.0
953.0
962.0
975.0
997.0
1023.0
1062.0
1108.0
1154.0
1198.0
1230.0
1235.0
1205.0
1153.0
1081.0
991.0
905.0
865.0
865.0
878.0
889.0
903.0
915.0
931.0
944.0
949.0
950.0
953.0
954.0
954.0
958.0
962.0
963.0
964.0
965.0
960.0
960.0
964.0
962.0
962.0
961.0
962.0
963.0
967.0
966.0
963.0
964.0
964.0
963.0
968.0
971.0
974.0
974.0
970.0
966.0
967.0
968.0
970.0
970.0
968.0
970.0
973.0
976.0
981.0
979.0
981.0
982.0
986.0
986.0
992.0
992.0
995.0
998.0
1002.0
1004.0
1006.0
1006.0
1003.0
1008.0
1014.0
1019.0
1023.0
1023.0
1022.0
1024.0
1024.0
1025.0
1025.0
1024.0
1024.0
1027.0
1030.0
1032.0
1027.0
1027.0
1026.0
1026.0
1024.0
1024.0
1026.0
1023.0
1021.0
1019.0
1016.0
1015.0
1009.0
1003.0
1000.0
997.0
993.0
991.0
985.0
982.0
979.0
979.0
979.0
976.0
973.0
969.0
968.0
969.0
968.0
973.0
975.0
970.0
970.0
974.0
975.0
977.0
974.0
971.0
965.0
963.0
969.0
970.0
973.0
968.0
966.0
966.0
964.0
966.0
967.0
963.0
962.0
959.0
960.0
963.0
960.0
959.0
955.0
956.0
958.0
956.0
952.0
953.0
948.0
948.0
951.0
951.0
951.0
947.0
944.0
944.0
946.0
947.0
946.0
944.0
940.0
938.0
940.0
941.0
945.0
938.0
936.0
935.0
936.0
940.0
937.0
938.0
939.0
936.0
940.0
938.0
936.0
927.0
919.0
910.0
909.0
911.0
922.0
939.0
970.0
1007.0
1055.0
1108.0
1155.0
1185.0
1190.0
1167.0
1110.0
1041.0
956.0
874.0
831.0
829.0
845.0
862.0
879.0
894.0
902.0
908.0
911.0
913.0
914.0
911.0
911.0
909.0
913.0
913.0
911.0
910.0
907.0
910.0
915.0
915.0
913.0
911.0
912.0
911.0
913.0
914.0
911.0
909.0
910.0
912.0
915.0
914.0
912.0
910.0
912.0
913.0
914.0
915.0
917.0
916.0
914.0
916.0
920.0
920.0
923.0
923.0
924.0
925.0
929.0
933.0
934.0
934.0
934.0
937.0
941.0
947.0
948.0
945.0
949.0
951.0
955.0
956.0
956.0
957.0
957.0
960.0
964.0
966.0
965.0
961.0
958.0
956.0
960.0
961.0
962.0
959.0
956.0
956.0
956.0
955.0
953.0
949.0
942.0
942.0
940.0
941.0
937.0
929.0
924.0
921.0
919.0
917.0
911.0
911.0
904.0
902.0
903.0
905.0
903.0
901.0
898.0
896.0
897.0
898.0
896.0
892.0
892.0
890.0
892.0
895.0
895.0
892.0
886.0
886.0
890.0
891.0
892.0
893.0
888.0
887.0
887.0
889.0
888.0
889.0
886.0
887.0
889.0
893.0
894.0
890.0
887.0
887.0
888.0
888.0
890.0
887.0
885.0
885.0
890.0
893.0
893.0
888.0
886.0
884.0
887.0
891.0
892.0
888.0
885.0
885.0
889.0
891.0
889.0
888.0
885.0
884.0
885.0
887.0
889.0
883.0
882.0
880.0
884.0
886.0
885.0
886.0
883.0
882.0
882.0
884.0
884.0
882.0
880.0
880.0
882.0
884.0
882.0
881.0
879.0
880.0
880.0
882.0
881.0
880.0
880.0
880.0
881.0
886.0
884.0
881.0
878.0
879.0
880.0
881.0
881.0
878.0
878.0
877.0
881.0
884.0
883.0
881.0
881.0
881.0
883.0
883.0
886.0
882.0
881.0
882.0
883.0
884.0
884.0
884.0
883.0
887.0
892.0
899.0
900.0
898.0
895.0
893.0
898.0
905.0
905.0
900.0
899.0
898.0
899.0
901.0
901.0
897.0
895.0
894.0
896.0
899.0
899.0
897.0
891.0
887.0
889.0
890.0
892.0
890.0
891.0
892.0
894.0
899.0
897.0
896.0
894.0
892.0
895.0
896.0
892.0
885.0
883.0
882.0
884.0
885.0
886.0
883.0
879.0
880.0
883.0
887.0
887.0
881.0
880.0
884.0
886.0
889.0
888.0
884.0
882.0
876.0
876.0
877.0
881.0
890.0
904.0
933.0
972.0
1017.0
1066.0
1118.0
1164.0
1201.0
1206.0
1172.0
1099.0
1005.0
907.0
824.0
789.0
799.0
817.0
831.0
842.0
854.0
865.0
875.0
877.0
879.0
879.0
880.0
881.0
885.0
884.0
885.0
884.0
883.0
888.0
890.0
892.0
889.0
886.0
886.0
891.0
894.0
896.0
893.0
892.0
889.0
893.0
896.0
898.0
898.0
896.0
896.0
901.0
905.0
906.0
905.0
904.0
903.0
909.0
915.0
917.0
912.0
912.0
916.0
920.0
928.0
928.0
929.0
931.0
932.0
939.0
945.0
948.0
949.0
950.0
958.0
961.0
965.0
969.0
971.0
973.0
977.0
981.0
980.0
982.0
983.0
986.0
988.0
992.0
993.0
997.0
996.0
996.0
993.0
995.0
996.0
992.0
992.0
989.0
989.0
987.0
989.0
986.0
980.0
978.0
973.0
975.0
970.0
969.0
959.0
956.0
955.0
955.0
954.0
951.0
949.0
948.0
946.0
948.0
949.0
948.0
946.0
943.0
941.0
947.0
950.0
949.0
947.0
944.0
944.0
948.0
951.0
950.0
946.0
947.0
946.0
950.0
951.0
950.0
950.0
951.0
949.0
953.0
955.0
955.0
951.0
950.0
949.0
953.0
957.0
955.0
955.0
955.0
954.0
959.0
962.0
962.0
961.0
960.0
963.0
962.0
964.0
961.0
958.0
957.0
956.0
958.0
964.0
964.0
962.0
960.0
959.0
963.0
966.0
964.0
960.0
958.0
960.0
964.0
964.0
968.0
967.0
969.0
969.0
974.0
976.0
972.0
971.0
972.0
975.0
976.0
979.0
978.0
975.0
971.0
969.0
975.0
979.0
979.0
978.0
975.0
973.0
975.0
973.0
972.0
966.0
967.0
968.0
969.0
974.0
971.0
968.0
967.0
967.0
969.0
970.0
967.0
966.0
959.0
956.0
956.0
959.0
958.0
955.0
953.0
955.0
957.0
961.0
963.0
961.0
960.0
960.0
964.0
965.0
964.0
959.0
957.0
955.0
961.0
964.0
960.0
957.0
957.0
950.0
948.0
949.0
953.0
963.0
986.0
1019.0
1062.0
1113.0
1165.0
1213.0
1242.0
1238.0
1202.0
1139.0
1055.0
962.0
887.0
858.0
865.0
882.0
896.0
913.0
929.0
939.0
947.0
952.0
957.0
958.0
958.0
959.0
958.0
959.0
957.0
955.0
956.0
957.0
962.0
964.0
963.0
959.0
960.0
960.0
961.0
966.0
967.0
966.0
967.0
968.0
975.0
977.0
975.0
971.0
970.0
973.0
975.0
978.0
981.0
979.0
981.0
981.0
987.0
989.0
990.0
989.0
988.0
992.0
996.0
1002.0
1002.0
1003.0
1001.0
1004.0
1010.0
1012.0
1017.0
1018.0
1020.0
1022.0
1026.0
1030.0
1031.0
1029.0
1029.0
1032.0
1036.0
1036.0
1036.0
1037.0
1039.0
1041.0
1045.0
1045.0
1042.0
1040.0
1036.0
1032.0
1031.0
1033.0
1031.0
1026.0
1021.0
1017.0
1014.0
1016.0
1012.0
1006.0
1000.0
999.0
999.0
998.0
996.0
988.0
984.0
980.0
979.0
984.0
986.0
983.0
980.0
982.0
984.0
983.0
979.0
977.0
977.0
978.0
979.0
977.0
976.0
974.0
969.0
972.0
980.0
983.0
984.0
983.0
980.0
977.0
974.0
970.0
971.0
971.0
973.0
970.0
969.0
973.0
971.0
974.0
973.0
974.0
974.0
980.0
982.0
981.0
977.0
976.0
978.0
977.0
976.0
973.0
970.0
968.0
974.0
979.0
982.0
981.0
978.0
974.0
976.0
980.0
981.0
984.0
980.0
979.0
979.0
978.0
981.0
981.0
985.0
984.0
988.0
989.0
987.0
988.0
988.0
991.0
996.0
999.0
1002.0
998.0
995.0
989.0
988.0
991.0
990.0
988.0
987.0
985.0
986.0
985.0
985.0
980.0
980.0
980.0
984.0
987.0
990.0
989.0
985.0
980.0
980.0
981.0
980.0
973.0
967.0
966.0
966.0
970.0
969.0
965.0
962.0
965.0
969.0
973.0
973.0
967.0
967.0
965.0
967.0
970.0
972.0
970.0
968.0
963.0
964.0
966.0
963.0
958.0
949.0
943.0
952.0
968.0
993.0
1023.0
1060.0
1106.0
1155.0
1204.0
1235.0
1239.0
1208.0
1147.0
1069.0
981.0
903.0
869.0
872.0
879.0
891.0
909.0
925.0
936.0
943.0
941.0
945.0
948.0
953.0
956.0
956.0
953.0
955.0
955.0
961.0
959.0
959.0
958.0
961.0
965.0
965.0
965.0
962.0
962.0
966.0
969.0
970.0
967.0
965.0
965.0
971.0
976.0
980.0
978.0
975.0
978.0
981.0
984.0
983.0
982.0
983.0
981.0
984.0
988.0
990.0
989.0
989.0
991.0
997.0
1004.0
1004.0
1006.0
1006.0
1008.0
1014.0
1017.0
1021.0
1020.0
1018.0
1022.0
1027.0
1031.0
1034.0
1035.0
1034.0
1033.0
1035.0
1037.0
1038.0
1035.0
1033.0
1035.0
1034.0
1031.0
1030.0
1021.0
1018.0
1017.0
1018.0
1015.0
1010.0
1004.0
998.0
995.0
992.0
991.0
988.0
984.0
980.0
976.0
977.0
975.0
974.0
971.0
967.0
965.0
970.0
972.0
972.0
970.0
968.0
968.0
972.0
973.0
969.0
965.0
964.0
964.0
965.0
968.0
972.0
968.0
964.0
967.0
969.0
966.0
965.0
965.0
966.0
967.0
969.0
970.0
970.0
968.0
965.0
962.0
964.0
965.0
965.0
963.0
959.0
961.0
965.0
967.0
969.0
965.0
965.0
964.0
969.0
970.0
969.0
969.0
968.0
967.0
966.0
968.0
970.0
968.0
969.0
969.0
973.0
981.0
984.0
983.0
983.0
985.0
988.0
991.0
990.0
986.0
988.0
984.0
986.0
983.0
980.0
979.0
976.0
973.0
973.0
977.0
977.0
972.0
964.0
959.0
960.0
965.0
971.0
970.0
964.0
960.0
960.0
964.0
960.0
958.0
954.0
953.0
953.0
950.0
948.0
951.0
949.0
951.0
952.0
956.0
955.0
955.0
948.0
948.0
953.0
955.0
956.0
955.0
955.0
954.0
956.0
959.0
958.0
955.0
949.0
946.0
942.0
943.0
947.0
958.0
978.0
1010.0
1055.0
1104.0
1155.0
1202.0
1238.0
1244.0
1217.0
1162.0
1093.0
1007.0
916.0
863.0
851.0
861.0
874.0
888.0
902.0
917.0
931.0
938.0
940.0
939.0
941.0
944.0
944.0
945.0
947.0
945.0
942.0
943.0
946.0
949.0
950.0
950.0
947.0
944.0
949.0
953.0
955.0
953.0
947.0
950.0
952.0
957.0
957.0
957.0
957.0
957.0
959.0
962.0
959.0
959.0
959.0
959.0
963.0
965.0
968.0
968.0
966.0
967.0
975.0
979.0
980.0
985.0
986.0
989.0
993.0
993.0
994.0
999.0
1005.0
1004.0
1010.0
1015.0
1018.0
1017.0
1016.0
1015.0
1016.0
1021.0
1023.0
1021.0
1020.0
1021.0
1023.0
1023.0
1022.0
1021.0
1018.0
1014.0
1013.0
1013.0
1010.0
1008.0
1002.0
998.0
995.0
993.0
991.0
988.0
984.0
979.0
975.0
975.0
973.0
970.0
969.0
967.0
967.0
967.0
966.0
963.0
959.0
958.0
959.0
959.0
958.0
958.0
954.0
953.0
952.0
958.0
960.0
956.0
953.0
951.0
953.0
956.0
958.0
956.0
957.0
956.0
957.0
959.0
961.0
960.0
961.0
955.0
960.0
963.0
963.0
960.0
957.0
959.0
960.0
966.0
967.0
967.0
962.0
961.0
964.0
967.0
965.0
965.0
962.0
960.0
961.0
966.0
971.0
972.0
967.0
967.0
967.0
970.0
970.0
967.0
969.0
968.0
968.0
975.0
975.0
974.0
976.0
971.0
972.0
977.0
978.0
977.0
976.0
974.0
974.0
975.0
974.0
970.0
969.0
969.0
973.0
976.0
977.0
975.0
971.0
968.0
967.0
967.0
969.0
968.0
968.0
968.0
966.0
970.0
971.0
969.0
964.0
962.0
961.0
959.0
958.0
956.0
953.0
953.0
954.0
957.0
957.0
957.0
955.0
954.0
954.0
957.0
957.0
956.0
952.0
952.0
956.0
958.0
958.0
959.0
953.0
950.0
951.0
947.0
943.0
946.0
951.0
967.0
999.0
1041.0
1084.0
1137.0
1191.0
1240.0
1274.0
1266.0
1211.0
1122.0
1018.0
923.0
864.0
856.0
867.0
886.0
904.0
920.0
934.0
945.0
946.0
949.0
949.0
946.0
946.0
950.0
950.0
951.0
945.0
948.0
952.0
953.0
951.0
949.0
947.0
950.0
953.0
958.0
957.0
954.0
956.0
955.0
958.0
961.0
960.0
958.0
959.0
960.0
962.0
963.0
964.0
967.0
965.0
968.0
971.0
974.0
976.0
977.0
977.0
980.0
983.0
987.0
988.0
987.0
989.0
987.0
993.0
997.0
1001.0
1000.0
1002.0
1006.0
1013.0
1016.0
1018.0
1017.0
1018.0
1022.0
1025.0
1026.0
1028.0
1029.0
1026.0
1025.0
1025.0
1029.0
1027.0
1027.0
1024.0
1024.0
1025.0
1023.0
1021.0
1017.0
1014.0
1014.0
1016.0
1011.0
1007.0
1001.0
995.0
992.0
992.0
992.0
988.0
981.0
976.0
977.0
977.0
978.0
975.0
973.0
967.0
967.0
968.0
969.0
970.0
966.0
967.0
967.0
969.0
971.0
969.0
967.0
965.0
965.0
966.0
968.0
967.0
966.0
964.0
966.0
968.0
969.0
967.0
966.0
963.0
964.0
966.0
968.0
967.0
964.0
960.0
963.0
964.0
967.0
966.0
964.0
965.0
967.0
965.0
966.0
965.0
963.0
964.0
963.0
965.0
965.0
967.0
967.0
966.0
963.0
964.0
965.0
966.0
966.0
960.0
961.0
964.0
965.0
964.0
966.0
965.0
969.0
970.0
973.0
973.0
974.0
977.0
977.0
976.0
979.0
981.0
980.0
979.0
981.0
980.0
980.0
977.0
977.0
975.0
975.0
978.0
979.0
979.0
975.0
972.0
972.0
971.0
972.0
973.0
972.0
969.0
969.0
970.0
974.0
975.0
973.0
969.0
966.0
960.0
961.0
959.0
957.0
957.0
957.0
957.0
958.0
955.0
952.0
952.0
952.0
956.0
961.0
958.0
953.0
952.0
953.0
954.0
959.0
960.0
957.0
955.0
951.0
945.0
942.0
942.0
947.0
964.0
988.0
1025.0
1071.0
1120.0
1170.0
1219.0
1258.0
1271.0
1238.0
1164.0
1069.0
960.0
875.0
843.0
857.0
874.0
896.0
912.0
927.0
937.0
942.0
949.0
948.0
945.0
942.0
946.0
949.0
954.0
951.0
947.0
944.0
948.0
951.0
953.0
953.0
952.0
949.0
952.0
954.0
956.0
958.0
955.0
955.0
957.0
960.0
964.0
963.0
962.0
961.0
961.0
966.0
966.0
967.0
966.0
969.0
970.0
975.0
978.0
975.0
976.0
978.0
984.0
990.0
994.0
996.0
993.0
993.0
1000.0
1004.0
1008.0
1011.0
1012.0
1016.0
1020.0
1022.0
1024.0
1022.0
1021.0
1025.0
1026.0
1030.0
1030.0
1028.0
1026.0
1027.0
1027.0
1025.0
1025.0
1026.0
1022.0
1016.0
1012.0
1010.0
1007.0
1000.0
998.0
991.0
990.0
990.0
988.0
985.0
982.0
979.0
978.0
976.0
976.0
974.0
969.0
971.0
971.0
971.0
973.0
973.0
970.0
969.0
970.0
971.0
970.0
970.0
968.0
966.0
968.0
970.0
970.0
967.0
965.0
964.0
967.0
969.0
972.0
966.0
967.0
966.0
965.0
970.0
972.0
968.0
966.0
966.0
967.0
970.0
970.0
969.0
967.0
967.0
972.0
974.0
974.0
971.0
970.0
971.0
973.0
979.0
980.0
975.0
977.0
980.0
982.0
983.0
980.0
978.0
977.0
976.0
977.0
979.0
985.0
983.0
983.0
987.0
991.0
991.0
990.0
987.0
983.0
984.0
987.0
985.0
987.0
986.0
984.0
981.0
988.0
992.0
992.0
990.0
987.0
984.0
986.0
988.0
988.0
982.0
980.0
980.0
980.0
983.0
980.0
977.0
973.0
973.0
972.0
977.0
980.0
979.0
972.0
968.0
963.0
963.0
967.0
971.0
972.0
967.0
962.0
961.0
961.0
964.0
963.0
964.0
967.0
969.0
970.0
969.0
966.0
961.0
956.0
959.0
973.0
999.0
1036.0
1087.0
1147.0
1206.0
1247.0
1248.0
1211.0
1139.0
1055.0
963.0
892.0
867.0
874.0
890.0
903.0
922.0
938.0
944.0
947.0
949.0
956.0
964.0
969.0
969.0
963.0
961.0
958.0
959.0
960.0
959.0
962.0
961.0
962.0
967.0
969.0
970.0
966.0
963.0
963.0
968.0
968.0
970.0
972.0
975.0
981.0
983.0
978.0
967.0
966.0
970.0
977.0
983.0
984.0
985.0
984.0
986.0
991.0
994.0
991.0
992.0
993.0
995.0
1001.0
1006.0
1006.0
1009.0
1011.0
1017.0
1023.0
1027.0
1033.0
1035.0
1036.0
1036.0
1036.0
1034.0
1039.0
1040.0
1041.0
1045.0
1051.0
1055.0
1049.0
1044.0
1037.0
1039.0
1041.0
1046.0
1044.0
1037.0
1026.0
1023.0
1023.0
1026.0
1026.0
1020.0
1010.0
1003.0
1001.0
1002.0
1000.0
993.0
988.0
985.0
987.0
990.0
989.0
990.0
986.0
983.0
983.0
983.0
981.0
979.0
977.0
981.0
983.0
984.0
987.0
979.0
977.0
973.0
976.0
979.0
983.0
984.0
982.0
979.0
981.0
984.0
987.0
986.0
982.0
983.0
982.0
983.0
981.0
981.0
980.0
980.0
983.0
986.0
986.0
984.0
981.0
982.0
986.0
988.0
989.0
987.0
985.0
987.0
988.0
989.0
987.0
985.0
985.0
986.0
989.0
993.0
992.0
994.0
990.0
994.0
997.0
997.0
998.0
999.0
1001.0
1001.0
1000.0
1000.0
1000.0
1001.0
1002.0
999.0
1002.0
1001.0
1002.0
1000.0
998.0
999.0
999.0
1003.0
1007.0
1006.0
1000.0
994.0
994.0
992.0
993.0
994.0
993.0
991.0
989.0
993.0
991.0
993.0
989.0
986.0
984.0
984.0
982.0
979.0
974.0
974.0
978.0
980.0
983.0
978.0
978.0
978.0
978.0
979.0
982.0
983.0
986.0
984.0
986.0
986.0
988.0
985.0
984.0
982.0
980.0
976.0
973.0
972.0
978.0
990.0
1017.0
1053.0
1095.0
1147.0
1195.0
1236.0
1248.0
1226.0
1174.0
1103.0
1018.0
933.0
884.0
878.0
884.0
896.0
907.0
924.0
945.0
958.0
965.0
966.0
965.0
966.0
971.0
973.0
973.0
974.0
975.0
975.0
978.0
980.0
979.0
980.0
978.0
980.0
977.0
982.0
986.0
985.0
987.0
986.0
987.0
991.0
993.0
994.0
992.0
986.0
987.0
990.0
996.0
995.0
992.0
991.0
989.0
992.0
998.0
1000.0
999.0
1002.0
1004.0
1010.0
1011.0
1010.0
1013.0
