# Simple Text Format
# Sampling Rate (Hz):= 360.00
# Resolution:= 12
# Labels:= ECG
963.0
963.0
961.0
958.0
955.0
960.0
964.0
960.0
955.0
954.0
954.0
956.0
959.0
958.0
955.0
954.0
954.0
954.0
957.0
955.0
950.0
950.0
949.0
952.0
952.0
950.0
949.0
948.0
947.0
947.0
945.0
942.0
938.0
930.0
927.0
930.0
934.0
937.0
935.0
932.0
929.0
929.0
932.0
931.0
927.0
925.0
925.0
929.0
933.0
931.0
933.0
928.0
928.0
930.0
933.0
928.0
918.0
909.0
912.0
919.0
934.0
951.0
972.0
1009.0
1059.0
1119.0
1175.0
1213.0
1218.0
1192.0
1143.0
1083.0
1006.0
915.0
851.0
833.0
844.0
855.0
866.0
877.0
893.0
906.0
911.0
911.0
913.0
916.0
923.0
924.0
925.0
924.0
924.0
927.0
926.0
925.0
922.0
923.0
924.0
927.0
930.0
931.0
930.0
928.0
927.0
925.0
926.0
929.0
930.0
933.0
939.0
944.0
944.0
944.0
944.0
947.0
952.0
948.0
952.0
952.0
954.0
956.0
955.0
957.0
961.0
962.0
961.0
958.0
962.0
962.0
965.0
968.0
972.0
979.0
986.0
987.0
992.0
991.0
994.0
995.0
997.0
996.0
992.0
990.0
990.0
999.0
1003.0
1005.0
1006.0
1005.0
1004.0
1001.0
1003.0
1003.0
1000.0
995.0
986.0
988.0
988.0
988.0
982.0
975.0
968.0
967.0
967.0
963.0
959.0
956.0
953.0
952.0
951.0
950.0
950.0
947.0
944.0
946.0
949.0
947.0
946.0
941.0
936.0
937.0
943.0
945.0
942.0
942.0
940.0
942.0
944.0
946.0
939.0
940.0
942.0
941.0
945.0
946.0
946.0
945.0
944.0
943.0
947.0
948.0
948.0
944.0
942.0
946.0
948.0
949.0
948.0
947.0
949.0
950.0
949.0
949.0
948.0
946.0
947.0
950.0
954.0
956.0
957.0
955.0
953.0
955.0
959.0
964.0
965.0
967.0
963.0
964.0
967.0
969.0
970.0
967.0
967.0
969.0
970.0
972.0
968.0
963.0
965.0
965.0
968.0
970.0
966.0
962.0
959.0
962.0
960.0
962.0
963.0
963.0
965.0
966.0
969.0
967.0
965.0
963.0
961.0
961.0
958.0
956.0
955.0
956.0
955.0
955.0
957.0
954.0
956.0
950.0
952.0
953.0
954.0
955.0
955.0
954.0
956.0
959.0
961.0
960.0
955.0
948.0
946.0
950.0
964.0
987.0
1019.0
1057.0
1109.0
1171.0
1224.0
1250.0
1233.0
1182.0
1107.0
1012.0
918.0
866.0
861.0
874.0
883.0
900.0
922.0
940.0
948.0
948.0
948.0
952.0
955.0
959.0
960.0
958.0
955.0
955.0
959.0
958.0
956.0
957.0
957.0
958.0
960.0
960.0
961.0
959.0
956.0
956.0
962.0
967.0
967.0
964.0
964.0
966.0
971.0
974.0
977.0
977.0
979.0
980.0
982.0
984.0
987.0
986.0
984.0
987.0
990.0
993.0
995.0
995.0
997.0
1003.0
1004.0
1006.0
1008.0
1008.0
1011.0
1014.0
1018.0
1017.0
1023.0
1022.0
1022.0
1025.0
1032.0
1035.0
1038.0
1038.0
1038.0
1042.0
1044.0
1045.0
1045.0
1042.0
1038.0
1036.0
1040.0
1037.0
1037.0
1033.0
1027.0
1024.0
1023.0
1021.0
1019.0
1012.0
1006.0
1004.0
1004.0
1002.0
998.0
993.0
989.0
990.0
990.0
991.0
991.0
987.0
984.0
984.0
985.0
987.0
987.0
982.0
983.0
983.0
984.0
987.0
987.0
983.0
980.0
986.0
990.0
993.0
993.0
988.0
986.0
985.0
988.0
989.0
988.0
985.0
983.0
988.0
991.0
988.0
989.0
987.0
984.0
988.0
990.0
987.0
988.0
991.0
989.0
991.0
993.0
994.0
994.0
992.0
985.0
986.0
989.0
991.0
996.0
995.0
998.0
1001.0
1002.0
1004.0
1005.0
1006.0
1006.0
1007.0
1012.0
1015.0
1012.0
1008.0
1006.0
1006.0
1007.0
1008.0
1005.0
1003.0
1002.0
999.0
999.0
1002.0
1003.0
1001.0
1000.0
1002.0
1005.0
1004.0
1000.0
996.0
993.0
991.0
988.0
986.0
987.0
984.0
985.0
987.0
987.0
987.0
986.0
986.0
984.0
987.0
989.0
993.0
992.0
992.0
991.0
992.0
994.0
996.0
993.0
987.0
981.0
979.0
984.0
994.0
1016.0
1048.0
1088.0
1141.0
1203.0
1257.0
1296.0
1303.0
1270.0
1202.0
1122.0
1031.0
940.0
886.0
883.0
905.0
930.0
955.0
971.0
980.0
985.0
989.0
991.0
996.0
996.0
992.0
989.0
990.0
992.0
992.0
993.0
993.0
991.0
993.0
996.0
997.0
997.0
998.0
999.0
1001.0
1003.0
1004.0
1004.0
1000.0
1001.0
1002.0
1003.0
1011.0
1012.0
1010.0
1009.0
1010.0
1016.0
1019.0
1016.0
1017.0
1018.0
1021.0
1026.0
1030.0
1034.0
1031.0
1034.0
1035.0
1039.0
1043.0
1043.0
1047.0
1047.0
1054.0
1060.0
1064.0
1064.0
1064.0
1063.0
1063.0
1069.0
1070.0
1070.0
1068.0
1066.0
1074.0
1077.0
1078.0
1077.0
1073.0
1072.0
1072.0
1072.0
1073.0
1065.0
1059.0
1056.0
1055.0
1054.0
1052.0
1047.0
1039.0
1037.0
1036.0
1035.0
1033.0
1027.0
1022.0
1018.0
1019.0
1020.0
1022.0
1018.0
1014.0
1014.0
1013.0
1016.0
1019.0
1015.0
1014.0
1012.0
1016.0
1020.0
1018.0
1018.0
1016.0
1014.0
1017.0
1019.0
1020.0
1018.0
1010.0
1010.0
1012.0
1014.0
1013.0
1013.0
1013.0
1008.0
1009.0
1012.0
1015.0
1015.0
1011.0
1011.0
1008.0
1015.0
1014.0
1014.0
1012.0
1011.0
1014.0
1017.0
1016.0
1016.0
1013.0
1015.0
1015.0
1019.0
1018.0
1016.0
1016.0
1013.0
1018.0
1016.0
1019.0
1019.0
1021.0
1023.0
1026.0
1030.0
1033.0
1031.0
1030.0
1034.0
1032.0
1035.0
1036.0
1034.0
1035.0
1031.0
1033.0
1034.0
1036.0
1035.0
1032.0
1030.0
1029.0
1030.0
1031.0
1027.0
1024.0
1023.0
1025.0
1025.0
1025.0
1024.0
1025.0
1025.0
1027.0
1024.0
1023.0
1019.0
1014.0
1010.0
1012.0
1011.0
1012.0
1006.0
1003.0
1004.0
1007.0
1010.0
1011.0
1007.0
1007.0
1008.0
1006.0
1011.0
1013.0
1012.0
1005.0
1004.0
1005.0
1005.0
1008.0
1003.0
995.0
994.0
1003.0
1017.0
1038.0
1065.0
1097.0
1139.0
1197.0
1252.0
1296.0
1313.0
1285.0
1226.0
1147.0
1062.0
974.0
914.0
896.0
911.0
931.0
952.0
970.0
980.0
988.0
991.0
994.0
999.0
1003.0
1001.0
1001.0
1001.0
1005.0
1007.0
1010.0
1009.0
1009.0
1007.0
1008.0
1012.0
1012.0
1010.0
1010.0
1010.0
1013.0
1016.0
1021.0
1019.0
1016.0
1016.0
1016.0
1019.0
1022.0
1023.0
1021.0
1018.0
1020.0
1023.0
1026.0
1025.0
1023.0
1022.0
1022.0
1026.0
1028.0
1030.0
1028.0
1026.0
1029.0
1035.0
1037.0
1036.0
1040.0
1042.0
1048.0
1053.0
1057.0
1059.0
1063.0
1064.0
1067.0
1072.0
1074.0
1073.0
1074.0
1075.0
1077.0
1081.0
1083.0
1080.0
1078.0
1082.0
1083.0
1081.0
1083.0
1079.0
1080.0
1078.0
1077.0
1076.0
1074.0
1072.0
1066.0
1062.0
1058.0
1062.0
1063.0
1063.0
1051.0
1047.0
1045.0
1046.0
1044.0
1042.0
1032.0
1029.0
1026.0
1026.0
1025.0
1023.0
1017.0
1013.0
1016.0
1018.0
1020.0
1021.0
1017.0
1016.0
1017.0
1019.0
1019.0
1016.0
1013.0
1011.0
1014.0
1016.0
1014.0
1011.0
1011.0
1011.0
1009.0
1012.0
1015.0
1012.0
1010.0
1009.0
1008.0
1009.0
1011.0
1012.0
1010.0
1008.0
1010.0
1013.0
1016.0
1012.0
1009.0
1008.0
1010.0
1012.0
1015.0
1014.0
1011.0
1008.0
1009.0
1012.0
1013.0
1012.0
1009.0
1012.0
1014.0
1019.0
1019.0
1019.0
1019.0
1017.0
1019.0
1018.0
1022.0
1026.0
1026.0
1026.0
1029.0
1031.0
1033.0
1030.0
1031.0
1030.0
1030.0
1030.0
1030.0
1024.0
1022.0
1016.0
1020.0
1024.0
1027.0
1025.0
1025.0
1022.0
1026.0
1026.0
1028.0
1023.0
1018.0
1020.0
1022.0
1022.0
1022.0
1019.0
1019.0
1017.0
1016.0
1016.0
1014.0
1011.0
1006.0
1004.0
1004.0
1005.0
1004.0
1004.0
1002.0
996.0
997.0
997.0
998.0
1000.0
998.0
997.0
999.0
1000.0
1002.0
999.0
998.0
995.0
996.0
995.0
995.0
988.0
984.0
986.0
997.0
1014.0
1040.0
1071.0
1112.0
1162.0
1216.0
1261.0
1277.0
1255.0
1208.0
1145.0
1062.0
975.0
915.0
896.0
902.0
910.0
925.0
946.0
968.0
979.0
987.0
988.0
988.0
990.0
995.0
998.0
996.0
992.0
993.0
993.0
994.0
990.0
989.0
990.0
995.0
998.0
1000.0
997.0
999.0
998.0
997.0
1002.0
1004.0
1001.0
996.0
995.0
996.0
998.0
1004.0
1006.0
1007.0
1007.0
1004.0
1009.0
1011.0
1012.0
1007.0
1006.0
1009.0
1014.0
1019.0
1019.0
1020.0
1020.0
1019.0
1023.0
1024.0
1026.0
1026.0
1027.0
1029.0
1032.0
1033.0
1037.0
1039.0
1041.0
1043.0
1049.0
1055.0
1055.0
1051.0
1049.0
1052.0
1053.0
1055.0
1054.0
1053.0
1057.0
1059.0
1061.0
1062.0
1060.0
1057.0
1056.0
1055.0
1057.0
1058.0
1060.0
1055.0
1053.0
1052.0
1046.0
1046.0
1041.0
1033.0
1030.0
1030.0
1030.0
1026.0
1018.0
1009.0
1007.0
1007.0
1009.0
1009.0
1003.0
999.0
994.0
996.0
996.0
995.0
992.0
988.0
987.0
990.0
992.0
994.0
991.0
989.0
984.0
988.0
992.0
995.0
993.0
992.0
990.0
990.0
993.0
996.0
995.0
994.0
992.0
994.0
996.0
996.0
990.0
989.0
988.0
987.0
995.0
997.0
994.0
992.0
990.0
993.0
994.0
997.0
994.0
988.0
989.0
986.0
989.0
989.0
992.0
989.0
986.0
988.0
991.0
992.0
992.0
988.0
990.0
993.0
994.0
997.0
999.0
997.0
999.0
999.0
1001.0
1005.0
1003.0
1002.0
1002.0
1008.0
1010.0
1012.0
1013.0
1006.0
1006.0
1002.0
1005.0
1007.0
1004.0
1005.0
1005.0
1002.0
999.0
1001.0
1000.0
1000.0
998.0
1000.0
1002.0
1004.0
1002.0
1000.0
998.0
1001.0
1002.0
1000.0
995.0
990.0
985.0
982.0
984.0
985.0
982.0
978.0
978.0
979.0
984.0
985.0
984.0
981.0
978.0
977.0
982.0
984.0
981.0
978.0
976.0
975.0
979.0
980.0
982.0
979.0
977.0
975.0
973.0
972.0
972.0
977.0
984.0
1005.0
1035.0
1072.0
1121.0
1172.0
1223.0
1258.0
1260.0
1231.0
1173.0
1097.0
1007.0
921.0
879.0
875.0
886.0
896.0
906.0
927.0
943.0
953.0
958.0
958.0
955.0
963.0
965.0
965.0
963.0
964.0
961.0
964.0
966.0
968.0
968.0
968.0
967.0
969.0
971.0
973.0
975.0
974.0
972.0
972.0
975.0
977.0
977.0
976.0
974.0
977.0
979.0
983.0
982.0
986.0
982.0
982.0
989.0
991.0
991.0
987.0
986.0
990.0
990.0
994.0
993.0
997.0
998.0
1003.0
1008.0
1011.0
1012.0
1014.0
1015.0
1015.0
1017.0
1021.0
1021.0
1023.0
1024.0
1027.0
1030.0
1033.0
1032.0
1030.0
1030.0
1033.0
1036.0
1035.0
1032.0
1030.0
1026.0
1025.0
1025.0
1023.0
1020.0
1014.0
1010.0
1006.0
1006.0
1006.0
1004.0
998.0
990.0
987.0
988.0
987.0
987.0
983.0
982.0
977.0
978.0
978.0
975.0
973.0
971.0
970.0
973.0
973.0
969.0
967.0
965.0
966.0
968.0
968.0
966.0
966.0
966.0
967.0
967.0
972.0
966.0
966.0
965.0
967.0
968.0
970.0
970.0
967.0
964.0
967.0
970.0
970.0
971.0
966.0
966.0
964.0
963.0
969.0
969.0
970.0
967.0
968.0
969.0
971.0
970.0
968.0
965.0
965.0
967.0
970.0
968.0
967.0
967.0
965.0
967.0
972.0
974.0
971.0
971.0
971.0
974.0
979.0
978.0
979.0
976.0
976.0
978.0
982.0
981.0
979.0
977.0
978.0
979.0
978.0
978.0
973.0
972.0
971.0
973.0
975.0
971.0
968.0
969.0
969.0
969.0
972.0
970.0
966.0
965.0
965.0
970.0
974.0
973.0
971.0
966.0
962.0
959.0
957.0
953.0
949.0
947.0
951.0
953.0
953.0
955.0
955.0
955.0
958.0
956.0
957.0
958.0
955.0
954.0
954.0
957.0
960.0
959.0
957.0
950.0
947.0
944.0
943.0
943.0
949.0
968.0
994.0
1030.0
1073.0
1122.0
1180.0
1227.0
1259.0
1252.0
1206.0
1128.0
1041.0
952.0
877.0
841.0
849.0
866.0
881.0
899.0
917.0
929.0
937.0
939.0
940.0
941.0
940.0
943.0
944.0
944.0
944.0
942.0
944.0
951.0
955.0
954.0
952.0
953.0
955.0
960.0
960.0
958.0
959.0
956.0
958.0
957.0
960.0
962.0
961.0
957.0
960.0
963.0
966.0
967.0
967.0
966.0
970.0
971.0
975.0
974.0
974.0
972.0
975.0
977.0
980.0
981.0
982.0
984.0
991.0
995.0
998.0
1002.0
1004.0
999.0
1003.0
1009.0
1014.0
1013.0
1010.0
1009.0
1011.0
1018.0
1024.0
1024.0
1022.0
1020.0
1023.0
1026.0
1028.0
1027.0
1026.0
1024.0
1024.0
1029.0
1029.0
1026.0
1023.0
1018.0
1019.0
1018.0
1016.0
1007.0
1003.0
997.0
998.0
999.0
1001.0
996.0
991.0
988.0
990.0
991.0
992.0
992.0
987.0
985.0
984.0
987.0
987.0
984.0
983.0
981.0
983.0
993.0
993.0
985.0
978.0
982.0
984.0
984.0
985.0
985.0
981.0
979.0
979.0
982.0
984.0
981.0
976.0
972.0
967.0
967.0
967.0
966.0
962.0
962.0
964.0
966.0
967.0
965.0
961.0
956.0
960.0
962.0
965.0
967.0
967.0
965.0
962.0
962.0
965.0
964.0
962.0
960.0
964.0
967.0
966.0
967.0
964.0
964.0
961.0
962.0
961.0
955.0
946.0
945.0
951.0
967.0
987.0
1020.0
1063.0
1113.0
1174.0
1227.0
1255.0
1241.0
1190.0
1113.0
1024.0
934.0
868.0
852.0
869.0
894.0
920.0
938.0
952.0
958.0
959.0
959.0
963.0
967.0
970.0
969.0
966.0
965.0
965.0
969.0
970.0
970.0
969.0
967.0
970.0
971.0
976.0
974.0
972.0
970.0
970.0
972.0
980.0
978.0
978.0
978.0
978.0
980.0
984.0
982.0
982.0
980.0
983.0
991.0
995.0
997.0
994.0
997.0
999.0
1002.0
1005.0
1007.0
1006.0
1006.0
1010.0
1014.0
1017.0
1020.0
1018.0
1019.0
1021.0
1028.0
1028.0
1032.0
1033.0
1030.0
1032.0
1036.0
1038.0
1036.0
1034.0
1034.0
1035.0
1038.0
1040.0
1038.0
1038.0
1034.0
1031.0
1032.0
1033.0
1029.0
1021.0
1018.0
1017.0
1016.0
1016.0
1010.0
1004.0
998.0
994.0
994.0
996.0
996.0
992.0
994.0
993.0
992.0
991.0
990.0
989.0
986.0
986.0
988.0
987.0
988.0
984.0
984.0
983.0
987.0
988.0
988.0
987.0
982.0
985.0
988.0
988.0
987.0
984.0
982.0
984.0
987.0
988.0
986.0
987.0
984.0
984.0
985.0
991.0
987.0
986.0
984.0
984.0
988.0
992.0
988.0
984.0
982.0
982.0
987.0
989.0
987.0
986.0
988.0
986.0
988.0
990.0
989.0
988.0
985.0
983.0
985.0
984.0
985.0
982.0
982.0
981.0
983.0
985.0
983.0
982.0
981.0
983.0
987.0
988.0
986.0
985.0
981.0
982.0
987.0
991.0
992.0
989.0
987.0
987.0
989.0
990.0
990.0
988.0
989.0
989.0
990.0
992.0
990.0
987.0
985.0
985.0
990.0
989.0
985.0
988.0
986.0
989.0
989.0
988.0
988.0
984.0
985.0
985.0
991.0
993.0
992.0
992.0
992.0
996.0
997.0
1000.0
1002.0
1003.0
1003.0
1008.0
1009.0
1012.0
1012.0
1010.0
1011.0
1008.0
1005.0
1008.0
1007.0
1004.0
1004.0
1003.0
1005.0
1007.0
1008.0
1004.0
1002.0
1005.0
1003.0
1005.0
1005.0
1003.0
1001.0
997.0
1002.0
1006.0
1005.0
1002.0
998.0
995.0
994.0
992.0
990.0
983.0
981.0
983.0
985.0
985.0
985.0
982.0
983.0
982.0
986.0
988.0
985.0
982.0
981.0
985.0
990.0
988.0
988.0
985.0
980.0
977.0
987.0
998.0
1017.0
1041.0
1077.0
1128.0
1183.0
1241.0
1276.0
1278.0
1239.0
1173.0
1093.0
1008.0
920.0
882.0
880.0
899.0
915.0
931.0
946.0
959.0
967.0
973.0
978.0
984.0
983.0
981.0
981.0
983.0
984.0
988.0
986.0
983.0
985.0
986.0
987.0
988.0
988.0
985.0
985.0
989.0
991.0
996.0
994.0
990.0
993.0
993.0
995.0
996.0
994.0
990.0
988.0
992.0
1001.0
1004.0
1007.0
1003.0
1006.0
1013.0
1017.0
1020.0
1018.0
1017.0
1018.0
1022.0
1026.0
1034.0
1035.0
1034.0
1036.0
1036.0
1042.0
1045.0
1046.0
1047.0
1047.0
1050.0
1054.0
1058.0
1054.0
1057.0
1054.0
1060.0
1069.0
1074.0
1075.0
1070.0
1069.0
1072.0
1073.0
1073.0
1070.0
1069.0
1065.0
1067.0
1071.0
1071.0
1064.0
1062.0
1056.0
1056.0
1052.0
1052.0
1047.0
1040.0
1035.0
1033.0
1031.0
1031.0
1026.0
1022.0
1020.0
1020.0
1020.0
1021.0
1016.0
1012.0
1010.0
1014.0
1016.0
1015.0
1013.0
1010.0
1011.0
1009.0
1008.0
1011.0
1012.0
1011.0
1010.0
1014.0
1014.0
1016.0
1016.0
1012.0
1011.0
1015.0
1018.0
1020.0
1019.0
1016.0
1016.0
1016.0
1016.0
1016.0
1016.0
1014.0
1013.0
1012.0
1016.0
1017.0
1018.0
1018.0
1016.0
1015.0
1016.0
1018.0
1017.0
1012.0
1010.0
1013.0
1014.0
1015.0
1016.0
1016.0
1015.0
1015.0
1017.0
1019.0
1018.0
1017.0
1017.0
1021.0
1023.0
1024.0
1026.0
1025.0
1025.0
1022.0
1027.0
1025.0
1025.0
1021.0
1021.0
1024.0
1028.0
1027.0
1025.0
1025.0
1024.0
1024.0
1025.0
1023.0
1024.0
1019.0
1015.0
1018.0
1021.0
1024.0
1020.0
1015.0
1009.0
1009.0
1006.0
1001.0
1000.0
995.0
995.0
998.0
999.0
1001.0
1006.0
1003.0
999.0
998.0
994.0
996.0
995.0
994.0
992.0
992.0
995.0
995.0
995.0
993.0
989.0
984.0
984.0
985.0
990.0
1002.0
1019.0
1055.0
1103.0
1156.0
1209.0
1253.0
1269.0
1255.0
1212.0
1156.0
1078.0
987.0
920.0
897.0
907.0
922.0
935.0
950.0
965.0
984.0
991.0
994.0
989.0
987.0
987.0
996.0
998.0
997.0
997.0
998.0
997.0
998.0
1002.0
1001.0
999.0
1000.0
1001.0
1002.0
1008.0
1009.0
1006.0
1003.0
1002.0
1000.0
1002.0
1005.0
1008.0
1005.0
1006.0
1008.0
1015.0
1020.0
1016.0
1014.0
1007.0
1011.0
1013.0
1020.0
1020.0
1024.0
1025.0
1025.0
1030.0
1034.0
1037.0
1041.0
1043.0
1046.0
1049.0
1051.0
1052.0
1056.0
1057.0
1061.0
1063.0
1065.0
1060.0
1057.0
1056.0
1056.0
1062.0
1060.0
1064.0
1061.0
1060.0
1055.0
1057.0
1060.0
1058.0
1055.0
1052.0
1049.0
1049.0
1043.0
1036.0
1030.0
1025.0
1023.0
1019.0
1017.0
1014.0
1012.0
1005.0
1007.0
1006.0
1010.0
1009.0
1005.0
1003.0
999.0
1000.0
998.0
997.0
998.0
997.0
994.0
998.0
1003.0
1000.0
997.0
992.0
992.0
991.0
994.0
993.0
996.0
994.0
997.0
997.0
998.0
996.0
991.0
991.0
992.0
995.0
996.0
996.0
993.0
989.0
987.0
989.0
993.0
993.0
993.0
993.0
993.0
996.0
997.0
996.0
996.0
993.0
995.0
997.0
999.0
996.0
995.0
993.0
995.0
1000.0
1001.0
1003.0
1004.0
1003.0
1004.0
1006.0
1008.0
1006.0
1003.0
1002.0
1002.0
1005.0
1007.0
1006.0
1006.0
1003.0
1002.0
1004.0
1006.0
1004.0
1005.0
1001.0
1003.0
1006.0
1005.0
1000.0
998.0
992.0
996.0
998.0
1000.0
999.0
996.0
994.0
994.0
999.0
997.0
995.0
994.0
986.0
985.0
986.0
985.0
986.0
983.0
980.0
982.0
983.0
986.0
980.0
980.0
982.0
987.0
987.0
988.0
984.0
982.0
979.0
981.0
981.0
983.0
979.0
976.0
971.0
978.0
988.0
1005.0
1029.0
1059.0
1101.0
1156.0
1215.0
1260.0
1270.0
1243.0
1184.0
1112.0
1026.0
937.0
888.0
883.0
895.0
906.0
921.0
944.0
957.0
962.0
965.0
966.0
969.0
976.0
976.0
977.0
970.0
972.0
973.0
978.0
976.0
974.0
971.0
973.0
975.0
980.0
979.0
975.0
978.0
980.0
982.0
984.0
985.0
984.0
984.0
985.0
988.0
992.0
996.0
993.0
993.0
994.0
993.0
998.0
1002.0
1001.0
998.0
999.0
1002.0
1009.0
1014.0
1015.0
1016.0
1020.0
1025.0
1028.0
1030.0
1031.0
1031.0
1034.0
1034.0
1040.0
1043.0
1041.0
1039.0
1040.0
1044.0
1045.0
1047.0
1044.0
1042.0
1044.0
1047.0
1047.0
1046.0
1043.0
1037.0
1034.0
1033.0
1034.0
1030.0
1024.0
1018.0
1014.0
1011.0
1009.0
1007.0
1003.0
1002.0
999.0
998.0
998.0
993.0
992.0
992.0
990.0
991.0
992.0
988.0
982.0
981.0
984.0
985.0
987.0
986.0
981.0
983.0
981.0
982.0
983.0
982.0
980.0
976.0
981.0
982.0
985.0
982.0
980.0
981.0
981.0
983.0
984.0
983.0
981.0
982.0
981.0
978.0
981.0
984.0
983.0
984.0
984.0
986.0
986.0
987.0
983.0
983.0
985.0
989.0
990.0
988.0
985.0
984.0
983.0
986.0
986.0
987.0
991.0
990.0
995.0
997.0
1002.0
1002.0
1001.0
998.0
997.0
1001.0
1005.0
1000.0
998.0
996.0
996.0
998.0
998.0
998.0
994.0
992.0
994.0
997.0
997.0
996.0
990.0
989.0
987.0
992.0
993.0
991.0
992.0
986.0
984.0
984.0
987.0
980.0
974.0
973.0
975.0
975.0
978.0
975.0
973.0
975.0
974.0
978.0
980.0
979.0
977.0
976.0
976.0
978.0
981.0
982.0
980.0
976.0
976.0
970.0
967.0
966.0
972.0
987.0
1017.0
1058.0
1107.0
1165.0
1222.0
1263.0
1266.0
1226.0
1146.0
1043.0
928.0
863.0
860.0
889.0
921.0
945.0
957.0
964.0
967.0
971.0
974.0
976.0
974.0
972.0
975.0
976.0
978.0
979.0
978.0
978.0
978.0
980.0
981.0
983.0
982.0
984.0
985.0
990.0
991.0
992.0
991.0
988.0
988.0
990.0
995.0
999.0
997.0
999.0
1001.0
1006.0
1010.0
1009.0
1010.0
1008.0
1012.0
1015.0
1021.0
1022.0
1020.0
1023.0
1025.0
1032.0
1035.0
1036.0
1037.0
1037.0
1038.0
1042.0
1048.0
1048.0
1047.0
1048.0
1051.0
1054.0
1055.0
1055.0
1050.0
1050.0
1049.0
1050.0
1049.0
1046.0
1047.0
1040.0
1041.0
1039.0
1039.0
1036.0
1032.0
1026.0
1021.0
1021.0
1021.0
1015.0
1010.0
1008.0
1005.0
1004.0
1004.0
1005.0
1000.0
996.0
994.0
997.0
998.0
992.0
994.0
992.0
990.0
993.0
992.0
988.0
990.0
988.0
988.0
992.0
992.0
991.0
989.0
990.0
990.0
991.0
991.0
990.0
988.0
987.0
987.0
988.0
989.0
990.0
987.0
984.0
986.0
989.0
990.0
990.0
987.0
988.0
988.0
988.0
989.0
988.0
988.0
988.0
988.0
987.0
986.0
988.0
986.0
986.0
987.0
988.0
992.0
991.0
989.0
990.0
987.0
997.0
1000.0
1001.0
1000.0
999.0
997.0
998.0
1001.0
1003.0
1002.0
1002.0
1003.0
1004.0
1004.0
1002.0
999.0
997.0
998.0
998.0
1002.0
1000.0
998.0
997.0
992.0
991.0
993.0
994.0
993.0
989.0
990.0
993.0
993.0
992.0
987.0
982.0
980.0
977.0
977.0
977.0
974.0
972.0
975.0
974.0
977.0
975.0
973.0
974.0
975.0
975.0
976.0
975.0
970.0
971.0
973.0
975.0
979.0
974.0
973.0
971.0
969.0
967.0
964.0
966.0
969.0
980.0
1001.0
1036.0
1074.0
1125.0
1176.0
1225.0
1258.0
1258.0
1224.0
1152.0
1064.0
974.0
896.0
863.0
871.0
892.0
910.0
929.0
944.0
958.0
965.0
969.0
966.0
967.0
969.0
970.0
972.0
972.0
969.0
969.0
967.0
967.0
970.0
969.0
967.0
965.0
967.0
968.0
973.0
974.0
973.0
973.0
971.0
975.0
978.0
979.0
975.0
977.0
976.0
980.0
986.0
983.0
985.0
984.0
981.0
986.0
990.0
991.0
989.0
986.0
991.0
998.0
1001.0
1002.0
1002.0
1003.0
1005.0
1005.0
1010.0
1013.0
1013.0
1014.0
1016.0
1019.0
1024.0
1027.0
1030.0
1028.0
1027.0
1034.0
1039.0
1040.0
1039.0
1039.0
1041.0
1042.0
1042.0
1042.0
1044.0
1042.0
1043.0
1041.0
1045.0
1045.0
1044.0
1042.0
1040.0
1037.0
1035.0
1033.0
1030.0
1028.0
1025.0
1021.0
1016.0
1011.0
1004.0
1001.0
996.0
996.0
996.0
994.0
989.0
988.0
984.0
984.0
986.0
985.0
979.0
979.0
980.0
982.0
983.0
981.0
977.0
976.0
974.0
977.0
977.0
977.0
975.0
974.0
973.0
975.0
974.0
976.0
976.0
975.0
972.0
972.0
974.0
975.0
976.0
974.0
973.0
973.0
975.0
974.0
976.0
973.0
973.0
975.0
978.0
977.0
974.0
974.0
975.0
976.0
979.0
980.0
979.0
978.0
979.0
978.0
980.0
980.0
978.0
977.0
977.0
984.0
986.0
986.0
985.0
985.0
989.0
990.0
989.0
990.0
990.0
991.0
991.0
990.0
995.0
993.0
989.0
989.0
989.0
989.0
994.0
989.0
987.0
982.0
982.0
982.0
984.0
978.0
978.0
974.0
974.0
979.0
978.0
976.0
975.0
974.0
977.0
978.0
975.0
973.0
966.0
964.0
962.0
962.0
965.0
962.0
963.0
961.0
959.0
965.0
968.0
969.0
966.0
963.0
966.0
965.0
963.0
963.0
963.0
962.0
962.0
967.0
967.0
967.0
962.0
960.0
954.0
952.0
953.0
961.0
970.0
986.0
1014.0
1047.0
1091.0
1136.0
1182.0
1220.0
1243.0
1236.0
1202.0
1147.0
1077.0
995.0
910.0
861.0
857.0
873.0
889.0
905.0
923.0
938.0
950.0
953.0
951.0
952.0
953.0
956.0
961.0
964.0
962.0
963.0
962.0
964.0
966.0
964.0
963.0
959.0
961.0
965.0
966.0
966.0
964.0
962.0
964.0
967.0
970.0
972.0
970.0
968.0
968.0
970.0
975.0
975.0
971.0
966.0
966.0
971.0
975.0
977.0
977.0
978.0
976.0
981.0
983.0
985.0
984.0
985.0
987.0
990.0
995.0
995.0
995.0
997.0
999.0
1005.0
1011.0
1012.0
1012.0
1014.0
1016.0
1020.0
1021.0
1020.0
1021.0
1020.0
1019.0
1019.0
1022.0
1021.0
1022.0
1020.0
1019.0
1022.0
1024.0
1028.0
1026.0
1021.0
1019.0
1019.0
1013.0
1017.0
1014.0
1009.0
1001.0
998.0
995.0
991.0
987.0
980.0
976.0
974.0
974.0
973.0
970.0
965.0
964.0
962.0
962.0
964.0
958.0
959.0
958.0
957.0
958.0
954.0
953.0
948.0
948.0
950.0
953.0
951.0
947.0
945.0
947.0
951.0
952.0
950.0
949.0
952.0
949.0
952.0
953.0
954.0
950.0
946.0
945.0
946.0
949.0
949.0
947.0
947.0
946.0
948.0
950.0
951.0
948.0
948.0
950.0
956.0
955.0
950.0
945.0
944.0
946.0
947.0
950.0
953.0
950.0
948.0
948.0
950.0
953.0
954.0
955.0
954.0
955.0
954.0
954.0
957.0
955.0
958.0
956.0
958.0
956.0
958.0
954.0
952.0
951.0
951.0
957.0
956.0
955.0
951.0
950.0
948.0
950.0
947.0
945.0
941.0
940.0
940.0
945.0
945.0
942.0
940.0
941.0
941.0
936.0
931.0
925.0
921.0
924.0
926.0
927.0
924.0
924.0
923.0
923.0
928.0
930.0
930.0
927.0
925.0
927.0
928.0
930.0
930.0
927.0
922.0
925.0
927.0
924.0
919.0
913.0
913.0
913.0
927.0
946.0
969.0
1001.0
1045.0
1100.0
1154.0
1193.0
1203.0
1178.0
1128.0
1059.0
974.0
892.0
843.0
832.0
835.0
847.0
860.0
874.0
891.0
905.0
911.0
914.0
913.0
916.0
916.0
912.0
910.0
912.0
917.0
920.0
919.0
911.0
911.0
913.0
917.0
921.0
919.0
922.0
915.0
917.0
923.0
927.0
934.0
928.0
924.0
922.0
923.0
931.0
933.0
933.0
930.0
931.0
930.0
934.0
935.0
935.0
935.0
938.0
946.0
949.0
946.0
946.0
944.0
943.0
952.0
956.0
961.0
965.0
964.0
966.0
964.0
965.0
965.0
965.0
969.0
975.0
977.0
981.0
984.0
983.0
984.0
985.0
986.0
991.0
994.0
992.0
988.0
988.0
991.0
994.0
993.0
991.0
987.0
985.0
988.0
989.0
989.0
985.0
978.0
973.0
971.0
970.0
969.0
962.0
956.0
956.0
956.0
953.0
945.0
941.0
940.0
942.0
945.0
945.0
944.0
941.0
940.0
937.0
940.0
938.0
942.0
938.0
936.0
935.0
933.0
935.0
934.0
935.0
932.0
927.0
933.0
936.0
937.0
935.0
934.0
931.0
932.0
937.0
940.0
940.0
934.0
933.0
934.0
939.0
939.0
937.0
937.0
938.0
943.0
944.0
942.0
937.0
935.0
936.0
939.0
942.0
943.0
943.0
939.0
939.0
942.0
944.0
946.0
946.0
940.0
944.0
943.0
945.0
948.0
948.0
950.0
949.0
955.0
958.0
961.0
961.0
957.0
955.0
955.0
960.0
963.0
965.0
960.0
962.0
962.0
961.0
960.0
956.0
955.0
955.0
958.0
960.0
959.0
959.0
957.0
957.0
958.0
957.0
956.0
953.0
953.0
954.0
958.0
961.0
962.0
957.0
954.0
955.0
957.0
957.0
953.0
948.0
946.0
946.0
949.0
952.0
952.0
949.0
944.0
947.0
948.0
951.0
950.0
950.0
945.0
949.0
951.0
954.0
948.0
948.0
945.0
948.0
945.0
946.0
941.0
935.0
938.0
946.0
964.0
991.0
1022.0
1069.0
1122.0
1178.0
1230.0
1250.0
1230.0
1184.0
1121.0
1039.0
952.0
893.0
874.0
873.0
881.0
887.0
907.0
925.0
939.0
943.0
944.0
946.0
950.0
957.0
959.0
957.0
954.0
956.0
958.0
959.0
958.0
957.0
959.0
956.0
958.0
963.0
964.0
962.0
959.0
962.0
968.0
968.0
971.0
969.0
967.0
966.0
968.0
974.0
977.0
975.0
971.0
972.0
976.0
982.0
982.0
983.0
982.0
984.0
989.0
990.0
989.0
990.0
992.0
992.0
997.0
1003.0
1005.0
1007.0
1007.0
1009.0
1014.0
1024.0
1030.0
1030.0
1032.0
1040.0
1044.0
1044.0
1048.0
1041.0
1039.0
1037.0
1042.0
1046.0
1045.0
1043.0
1042.0
1040.0
