# Simple Text Format
# Sampling Rate (Hz):= 360.00
# Resolution:= 12
# Labels:= ECG
1096.0
1097.0
1098.0
1098.0
1096.0
1093.0
1090.0
1088.0
1088.0
1089.0
1089.0
1089.0
1081.0
1075.0
1069.0
1061.0
1057.0
1051.0
1048.0
1046.0
1043.0
1041.0
1032.0
1027.0
1020.0
1016.0
1010.0
1006.0
1002.0
996.0
991.0
988.0
988.0
988.0
986.0
985.0
986.0
983.0
980.0
975.0
972.0
973.0
973.0
978.0
980.0
985.0
988.0
994.0
998.0
1004.0
1010.0
1015.0
1020.0
1024.0
1032.0
1035.0
1041.0
1047.0
1048.0
1049.0
1046.0
1038.0
1028.0
1014.0
1002.0
993.0
984.0
981.0
977.0
975.0
972.0
969.0
966.0
961.0
960.0
960.0
960.0
960.0
959.0
958.0
958.0
959.0
960.0
961.0
962.0
964.0
963.0
960.0
959.0
958.0
958.0
958.0
959.0
958.0
955.0
952.0
955.0
965.0
992.0
1027.0
1076.0
1130.0
1190.0
1257.0
1324.0
1394.0
1447.0
1473.0
1463.0
1419.0
1353.0
1272.0
1183.0
1095.0
1017.0
950.0
895.0
857.0
837.0
835.0
851.0
870.0
891.0
906.0
913.0
917.0
911.0
905.0
900.0
897.0
894.0
892.0
891.0
893.0
891.0
888.0
886.0
883.0
881.0
877.0
878.0
881.0
879.0
880.0
877.0
876.0
873.0
875.0
873.0
874.0
876.0
876.0
878.0
881.0
880.0
885.0
888.0
889.0
893.0
896.0
899.0
900.0
903.0
906.0
907.0
914.0
919.0
928.0
933.0
941.0
944.0
950.0
956.0
963.0
973.0
984.0
993.0
1003.0
1010.0
1018.0
1028.0
1033.0
1040.0
1049.0
1052.0
1058.0
1065.0
1069.0
1077.0
1083.0
1096.0
1102.0
1108.0
1110.0
1111.0
1110.0
1112.0
1113.0
1117.0
1119.0
1120.0
1118.0
1113.0
1111.0
1107.0
1107.0
1104.0
1103.0
1099.0
1093.0
1087.0
1085.0
1078.0
1075.0
1072.0
1071.0
1066.0
1058.0
1054.0
1047.0
1039.0
1034.0
1032.0
1028.0
1025.0
1023.0
1018.0
1013.0
1009.0
1003.0
1000.0
997.0
993.0
993.0
989.0
989.0
990.0
990.0
989.0
989.0
989.0
989.0
990.0
990.0
997.0
1006.0
1014.0
1021.0
1026.0
1030.0
1033.0
1034.0
1035.0
1038.0
1042.0
1042.0
1039.0
1034.0
1033.0
1025.0
1016.0
1007.0
998.0
991.0
981.0
975.0
970.0
964.0
961.0
961.0
963.0
968.0
970.0
971.0
973.0
971.0
970.0
969.0
972.0
969.0
966.0
966.0
966.0
967.0
967.0
969.0
973.0
974.0
973.0
969.0
965.0
961.0
963.0
974.0
1001.0
1041.0
1094.0
1156.0
1232.0
1311.0
1387.0
1452.0
1491.0
1496.0
1466.0
1409.0
1338.0
1260.0
1176.0
1100.0
1027.0
965.0
912.0
875.0
857.0
858.0
873.0
897.0
921.0
936.0
939.0
936.0
931.0
922.0
912.0
907.0
905.0
907.0
906.0
905.0
906.0
906.0
905.0
905.0
907.0
907.0
901.0
899.0
896.0
893.0
894.0
893.0
897.0
902.0
905.0
906.0
910.0
914.0
916.0
921.0
922.0
926.0
929.0
929.0
934.0
939.0
945.0
956.0
965.0
973.0
978.0
983.0
986.0
990.0
998.0
1007.0
1017.0
1029.0
1033.0
1039.0
1046.0
1055.0
1061.0
1066.0
1074.0
1081.0
1084.0
1092.0
1101.0
1111.0
1119.0
1129.0
1133.0
1135.0
1136.0
1134.0
1133.0
1135.0
1137.0
1135.0
1137.0
1137.0
1136.0
1135.0
1132.0
1128.0
1125.0
1119.0
1118.0
1115.0
1108.0
1106.0
1103.0
1098.0
1094.0
1090.0
1087.0
1086.0
1078.0
1072.0
1066.0
1061.0
1055.0
1050.0
1048.0
1046.0
1037.0
1032.0
1025.0
1020.0
1014.0
1010.0
1006.0
1000.0
995.0
990.0
984.0
983.0
982.0
982.0
983.0
985.0
985.0
979.0
976.0
972.0
972.0
977.0
979.0
989.0
1001.0
1006.0
1015.0
1022.0
1029.0
1035.0
1040.0
1043.0
1047.0
1046.0
1044.0
1045.0
1044.0
1043.0
1041.0
1034.0
1025.0
1011.0
1000.0
988.0
981.0
976.0
979.0
977.0
979.0
979.0
976.0
976.0
975.0
975.0
974.0
977.0
977.0
973.0
974.0
976.0
978.0
980.0
979.0
981.0
981.0
981.0
979.0
978.0
973.0
969.0
966.0
971.0
986.0
1012.0
1052.0
1105.0
1168.0
1236.0
1310.0
1380.0
1437.0
1470.0
1471.0
1435.0
1372.0
1291.0
1202.0
1112.0
1029.0
960.0
901.0
857.0
827.0
819.0
826.0
848.0
871.0
894.0
912.0
921.0
922.0
922.0
919.0
916.0
910.0
906.0
903.0
903.0
902.0
902.0
902.0
904.0
903.0
902.0
902.0
900.0
899.0
899.0
901.0
903.0
904.0
904.0
904.0
906.0
905.0
906.0
911.0
916.0
918.0
920.0
921.0
923.0
925.0
927.0
932.0
936.0
939.0
943.0
945.0
949.0
950.0
954.0
964.0
972.0
978.0
987.0
993.0
998.0
1002.0
1007.0
1012.0
1017.0
1025.0
1031.0
1036.0
1042.0
1049.0
1058.0
1066.0
1075.0
1082.0
1086.0
1089.0
1093.0
1095.0
1096.0
1103.0
1108.0
1116.0
1124.0
1128.0
1129.0
1129.0
1126.0
1125.0
1124.0
1123.0
1123.0
1124.0
1120.0
1114.0
1112.0
1109.0
1102.0
1100.0
1097.0
1094.0
1090.0
1085.0
1080.0
1075.0
1070.0
1065.0
1062.0
1059.0
1056.0
1053.0
1042.0
1031.0
1024.0
1021.0
1016.0
1016.0
1013.0
1012.0
1008.0
1004.0
999.0
996.0
992.0
989.0
989.0
984.0
981.0
980.0
979.0
979.0
984.0
986.0
990.0
988.0
983.0
980.0
981.0
983.0
990.0
999.0
1006.0
1014.0
1020.0
1025.0
1030.0
1033.0
1037.0
1041.0
1041.0
1041.0
1039.0
1039.0
1038.0
1034.0
1029.0
1023.0
1014.0
1005.0
994.0
983.0
970.0
964.0
958.0
956.0
960.0
962.0
963.0
963.0
961.0
958.0
956.0
956.0
956.0
955.0
954.0
952.0
952.0
952.0
955.0
955.0
955.0
953.0
953.0
952.0
947.0
942.0
940.0
937.0
942.0
954.0
978.0
1016.0
1069.0
1132.0
1206.0
1287.0
1362.0
1422.0
1454.0
1450.0
1417.0
1362.0
1297.0
1223.0
1148.0
1072.0
997.0
925.0
865.0
823.0
804.0
810.0
833.0
867.0
890.0
905.0
908.0
903.0
893.0
882.0
876.0
874.0
872.0
874.0
875.0
874.0
872.0
872.0
868.0
873.0
870.0
869.0
863.0
860.0
859.0
856.0
853.0
854.0
856.0
860.0
861.0
862.0
862.0
860.0
856.0
856.0
859.0
864.0
866.0
870.0
873.0
875.0
876.0
877.0
877.0
881.0
886.0
890.0
894.0
901.0
906.0
913.0
921.0
929.0
940.0
946.0
952.0
955.0
960.0
967.0
975.0
985.0
991.0
999.0
1007.0
1013.0
1018.0
1026.0
1031.0
1040.0
1047.0
1056.0
1062.0
1069.0
1074.0
1076.0
1083.0
1087.0
1094.0
1096.0
1098.0
1097.0
1095.0
1091.0
1090.0
1088.0
1093.0
1094.0
1093.0
1093.0
1088.0
1083.0
1077.0
1073.0
1068.0
1063.0
1058.0
1054.0
1048.0
1041.0
1037.0
1034.0
1032.0
1028.0
1022.0
1016.0
1009.0
1005.0
999.0
997.0
996.0
991.0
991.0
988.0
984.0
983.0
981.0
979.0
979.0
979.0
977.0
978.0
975.0
976.0
976.0
980.0
985.0
992.0
999.0
1006.0
1009.0
1013.0
1015.0
1017.0
1021.0
1026.0
1031.0
1034.0
1036.0
1034.0
1028.0
1023.0
1011.0
1002.0
991.0
982.0
975.0
967.0
961.0
958.0
954.0
956.0
955.0
955.0
955.0
954.0
954.0
954.0
953.0
954.0
957.0
954.0
956.0
958.0
959.0
957.0
955.0
953.0
952.0
955.0
957.0
959.0
960.0
959.0
952.0
949.0
946.0
953.0
966.0
991.0
1022.0
1067.0
1120.0
1177.0
1245.0
1316.0
1380.0
1426.0
1440.0
1419.0
1369.0
1296.0
1209.0
1125.0
1045.0
977.0
923.0
876.0
848.0
841.0
852.0
874.0
898.0
917.0
924.0
925.0
917.0
904.0
896.0
892.0
891.0
894.0
895.0
896.0
890.0
887.0
882.0
882.0
882.0
882.0
885.0
885.0
882.0
879.0
876.0
875.0
871.0
871.0
870.0
871.0
877.0
878.0
880.0
882.0
879.0
885.0
889.0
891.0
894.0
896.0
897.0
898.0
907.0
915.0
923.0
931.0
936.0
939.0
939.0
942.0
946.0
955.0
965.0
977.0
986.0
995.0
1003.0
1012.0
1022.0
1030.0
1038.0
1045.0
1048.0
1052.0
1057.0
1067.0
1076.0
1085.0
1092.0
1099.0
1102.0
1106.0
1108.0
1108.0
1110.0
1115.0
1114.0
1119.0
1119.0
1120.0
1120.0
1118.0
1115.0
1115.0
1110.0
1107.0
1105.0
1102.0
1097.0
1094.0
1089.0
1087.0
1086.0
1087.0
1084.0
1078.0
1070.0
1062.0
1054.0
1047.0
1041.0
1038.0
1032.0
1030.0
1025.0
1023.0
1021.0
1017.0
1012.0
1009.0
1004.0
1000.0
994.0
993.0
989.0
988.0
992.0
993.0
996.0
993.0
988.0
984.0
982.0
980.0
986.0
993.0
1001.0
1010.0
1017.0
1023.0
1030.0
1037.0
1038.0
1043.0
1050.0
1052.0
1051.0
1050.0
1049.0
1047.0
1048.0
1039.0
1032.0
1022.0
1007.0
997.0
987.0
985.0
982.0
982.0
981.0
980.0
979.0
978.0
978.0
980.0
983.0
984.0
985.0
983.0
981.0
976.0
977.0
975.0
980.0
984.0
986.0
985.0
983.0
979.0
975.0
974.0
975.0
980.0
997.0
1022.0
1052.0
1094.0
1144.0
1204.0
1275.0
1344.0
1404.0
1436.0
1424.0
1375.0
1299.0
1210.0
1120.0
1036.0
969.0
917.0
878.0
852.0
838.0
838.0
851.0
874.0
898.0
917.0
929.0
930.0
927.0
923.0
917.0
915.0
915.0
914.0
912.0
908.0
907.0
903.0
902.0
904.0
907.0
908.0
905.0
903.0
899.0
897.0
896.0
901.0
904.0
909.0
910.0
908.0
910.0
910.0
905.0
904.0
907.0
912.0
917.0
921.0
925.0
928.0
933.0
941.0
944.0
947.0
951.0
952.0
955.0
962.0
965.0
976.0
982.0
991.0
998.0
1007.0
1013.0
1017.0
1025.0
1031.0
1037.0
1043.0
1050.0
1056.0
1061.0
1066.0
1072.0
1079.0
1084.0
1093.0
1101.0
1104.0
1108.0
1108.0
1108.0
1108.0
1108.0
1115.0
1114.0
1115.0
1114.0
1110.0
1104.0
1098.0
1095.0
1093.0
1087.0
1085.0
1082.0
1078.0
1073.0
1068.0
1065.0
1060.0
1058.0
1057.0
1054.0
1050.0
1046.0
1045.0
1041.0
1042.0
1040.0
1037.0
1033.0
1026.0
1016.0
1009.0
1001.0
998.0
997.0
995.0
994.0
992.0
992.0
993.0
991.0
992.0
990.0
987.0
983.0
978.0
976.0
976.0
978.0
980.0
985.0
992.0
993.0
993.0
993.0
986.0
989.0
983.0
985.0
989.0
1001.0
1022.0
1054.0
1098.0
1155.0
1229.0
1310.0
1390.0
1454.0
1491.0
1498.0
1473.0
1426.0
1372.0
1318.0
1257.0
1193.0
1124.0
1055.0
991.0
932.0
894.0
880.0
885.0
910.0
937.0
955.0
962.0
958.0
948.0
935.0
928.0
925.0
926.0
927.0
925.0
926.0
923.0
919.0
913.0
912.0
909.0
907.0
904.0
903.0
901.0
898.0
894.0
894.0
896.0
895.0
892.0
891.0
886.0
888.0
888.0
887.0
890.0
893.0
893.0
895.0
899.0
900.0
904.0
909.0
917.0
918.0
923.0
928.0
929.0
933.0
938.0
945.0
956.0
964.0
971.0
977.0
979.0
983.0
987.0
996.0
1005.0
1015.0
1025.0
1033.0
1042.0
1048.0
1056.0
1062.0
1063.0
1068.0
1075.0
1077.0
1076.0
1077.0
1078.0
1080.0
1082.0
1083.0
1084.0
1083.0
1080.0
1075.0
1069.0
1063.0
1057.0
1054.0
1050.0
1050.0
1044.0
1039.0
1036.0
1035.0
1029.0
1028.0
1025.0
1021.0
1015.0
1010.0
1006.0
1000.0
998.0
995.0
994.0
985.0
980.0
975.0
969.0
964.0
959.0
958.0
955.0
953.0
951.0
950.0
948.0
949.0
950.0
949.0
949.0
946.0
945.0
945.0
945.0
948.0
950.0
955.0
957.0
956.0
958.0
956.0
955.0
956.0
955.0
955.0
954.0
952.0
953.0
955.0
956.0
959.0
962.0
962.0
958.0
955.0
953.0
954.0
955.0
955.0
957.0
959.0
962.0
957.0
958.0
960.0
960.0
962.0
961.0
958.0
959.0
958.0
960.0
964.0
967.0
966.0
965.0
966.0
965.0
970.0
973.0
978.0
982.0
988.0
990.0
990.0
989.0
988.0
989.0
989.0
991.0
989.0
993.0
987.0
979.0
975.0
967.0
965.0
963.0
958.0
957.0
955.0
952.0
949.0
949.0
953.0
955.0
957.0
960.0
958.0
958.0
954.0
954.0
953.0
956.0
954.0
958.0
956.0
955.0
953.0
957.0
956.0
956.0
954.0
951.0
945.0
941.0
948.0
973.0
1014.0
1071.0
1141.0
1222.0
1302.0
1381.0
1434.0
1452.0
1426.0
1369.0
1287.0
1197.0
1102.0
1021.0
949.0
890.0
846.0
818.0
808.0
816.0
840.0
866.0
886.0
900.0
903.0
902.0
895.0
887.0
881.0
880.0
879.0
879.0
881.0
879.0
879.0
877.0
874.0
872.0
873.0
873.0
875.0
875.0
875.0
870.0
869.0
867.0
869.0
869.0
874.0
875.0
877.0
877.0
877.0
878.0
881.0
886.0
890.0
894.0
896.0
895.0
894.0
896.0
896.0
901.0
909.0
917.0
924.0
930.0
932.0
933.0
935.0
940.0
945.0
951.0
959.0
967.0
970.0
975.0
979.0
984.0
991.0
999.0
1007.0
1012.0
1017.0
1024.0
1029.0
1031.0
1038.0
1045.0
1055.0
1059.0
1063.0
1066.0
1067.0
1071.0
1075.0
1082.0
1088.0
1091.0
1094.0
1099.0
1100.0
1102.0
1104.0
1106.0
1103.0
1100.0
1096.0
1092.0
1086.0
1083.0
1082.0
1083.0
1083.0
1079.0
1076.0
1068.0
1061.0
1052.0
1044.0
1040.0
1037.0
1032.0
1030.0
1023.0
1016.0
1011.0
1005.0
1002.0
1002.0
1000.0
998.0
995.0
992.0
992.0
993.0
994.0
995.0
996.0
997.0
996.0
994.0
991.0
989.0
988.0
992.0
999.0
1002.0
1012.0
1018.0
1020.0
1022.0
1025.0
1026.0
1030.0
1035.0
1039.0
1042.0
1042.0
1045.0
1043.0
1041.0
1037.0
1031.0
1017.0
1004.0
990.0
976.0
968.0
962.0
960.0
960.0
963.0
963.0
960.0
958.0
957.0
956.0
954.0
952.0
951.0
951.0
950.0
953.0
953.0
957.0
957.0
959.0
960.0
960.0
956.0
952.0
950.0
949.0
947.0
949.0
959.0
977.0
1006.0
1054.0
1108.0
1173.0
1244.0
1314.0
1377.0
1424.0
1443.0
1428.0
1379.0
1305.0
1217.0
1121.0
1031.0
955.0
891.0
842.0
817.0
811.0
828.0
854.0
884.0
907.0
919.0
921.0
916.0
910.0
904.0
900.0
896.0
895.0
896.0
896.0
896.0
897.0
899.0
898.0
896.0
895.0
891.0
890.0
887.0
889.0
887.0
888.0
892.0
890.0
891.0
889.0
889.0
892.0
894.0
897.0
900.0
905.0
908.0
909.0
913.0
913.0
922.0
926.0
931.0
937.0
939.0
940.0
943.0
951.0
961.0
970.0
983.0
992.0
998.0
1004.0
1008.0
1015.0
1020.0
1029.0
1039.0
1047.0
1055.0
1062.0
1069.0
1077.0
1082.0
1086.0
1092.0
1099.0
1103.0
1110.0
1117.0
1122.0
1123.0
1123.0
1120.0
1116.0
1115.0
1117.0
1114.0
1114.0
1112.0
1105.0
1100.0
1098.0
1093.0
1088.0
1086.0
1080.0
1076.0
1069.0
1060.0
1054.0
1051.0
1045.0
1041.0
1039.0
1036.0
1029.0
1023.0
1016.0
1011.0
1005.0
1000.0
997.0
991.0
984.0
978.0
973.0
973.0
974.0
976.0
975.0
976.0
974.0
971.0
965.0
961.0
960.0
960.0
963.0
968.0
968.0
973.0
978.0
985.0
993.0
1001.0
1008.0
1012.0
1016.0
1018.0
1021.0
1031.0
1037.0
1043.0
1048.0
1047.0
1042.0
1035.0
1025.0
1014.0
1004.0
994.0
989.0
983.0
975.0
968.0
966.0
963.0
960.0
958.0
960.0
961.0
963.0
963.0
963.0
965.0
963.0
965.0
966.0
967.0
966.0
963.0
963.0
962.0
962.0
963.0
961.0
965.0
963.0
960.0
954.0
961.0
976.0
1003.0
1048.0
1098.0
1154.0
1210.0
1272.0
1336.0
1392.0
1431.0
1439.0
1406.0
1342.0
1258.0
1164.0
1071.0
990.0
920.0
866.0
829.0
807.0
805.0
815.0
837.0
861.0
876.0
892.0
903.0
908.0
907.0
905.0
899.0
894.0
893.0
894.0
894.0
893.0
892.0
891.0
889.0
888.0
889.0
889.0
891.0
888.0
890.0
889.0
890.0
889.0
884.0
883.0
884.0
885.0
887.0
890.0
892.0
896.0
901.0
903.0
909.0
912.0
917.0
920.0
921.0
923.0
926.0
929.0
934.0
938.0
946.0
952.0
958.0
960.0
964.0
971.0
978.0
984.0
993.0
1002.0
1007.0
1014.0
1015.0
1021.0
1027.0
1033.0
1040.0
1048.0
1053.0
1058.0
1062.0
1068.0
1074.0
1083.0
1092.0
1097.0
1103.0
1103.0
1103.0
1102.0
1103.0
1104.0
1107.0
1111.0
1111.0
1111.0
1108.0
1102.0
1100.0
1098.0
1094.0
1093.0
1091.0
1085.0
1075.0
1069.0
1066.0
1062.0
1057.0
1054.0
1046.0
1045.0
1042.0
1036.0
1030.0
1024.0
1018.0
1016.0
1012.0
1006.0
1003.0
996.0
994.0
990.0
989.0
986.0
981.0
975.0
971.0
967.0
964.0
966.0
969.0
973.0
976.0
978.0
975.0
973.0
969.0
966.0
967.0
973.0
983.0
991.0
1000.0
1004.0
1008.0
1013.0
1017.0
1022.0
1025.0
1029.0
1031.0
1032.0
1031.0
1030.0
1027.0
1023.0
1015.0
1002.0
986.0
976.0
966.0
960.0
955.0
953.0
956.0
958.0
959.0
959.0
957.0
951.0
951.0
950.0
946.0
951.0
948.0
948.0
950.0
951.0
953.0
957.0
956.0
959.0
954.0
950.0
945.0
939.0
934.0
935.0
940.0
952.0
980.0
1023.0
1072.0
1126.0
1186.0
1251.0
1316.0
1374.0
1411.0
1413.0
1382.0
1321.0
1238.0
1147.0
1056.0
972.0
896.0
837.0
797.0
782.0
787.0
809.0
837.0
865.0
883.0
890.0
891.0
885.0
875.0
870.0
867.0
865.0
866.0
865.0
864.0
862.0
863.0
866.0
863.0
861.0
859.0
856.0
851.0
850.0
851.0
850.0
851.0
850.0
851.0
852.0
851.0
854.0
857.0
860.0
864.0
864.0
862.0
863.0
864.0
868.0
875.0
885.0
886.0
891.0
897.0
898.0
900.0
907.0
912.0
920.0
931.0
938.0
948.0
956.0
964.0
973.0
977.0
985.0
989.0
994.0
998.0
1006.0
1020.0
1026.0
1039.0
1049.0
1054.0
1057.0
1056.0
1058.0
1059.0
1063.0
1065.0
1072.0
1073.0
1075.0
1075.0
1073.0
1077.0
1079.0
1074.0
1071.0
1068.0
1062.0
1056.0
1050.0
1048.0
1044.0
1043.0
1041.0
1038.0
1029.0
1020.0
1016.0
1011.0
1006.0
1001.0
1000.0
993.0
989.0
983.0
978.0
974.0
971.0
966.0
963.0
960.0
956.0
953.0
950.0
949.0
948.0
948.0
950.0
951.0
948.0
947.0
942.0
942.0
945.0
951.0
958.0
966.0
970.0
978.0
982.0
987.0
992.0
997.0
1000.0
1003.0
1008.0
1009.0
1008.0
1007.0
1006.0
1002.0
997.0
990.0
977.0
966.0
953.0
940.0
932.0
930.0
931.0
934.0
935.0
935.0
934.0
932.0
930.0
928.0
930.0
929.0
930.0
927.0
927.0
925.0
926.0
927.0
929.0
931.0
932.0
930.0
929.0
924.0
919.0
919.0
916.0
922.0
932.0
951.0
981.0
1022.0
1070.0
1127.0
1194.0
1270.0
1343.0
1400.0
1425.0
1413.0
1368.0
1299.0
1217.0
1130.0
1043.0
966.0
898.0
843.0
804.0
789.0
795.0
813.0
838.0
864.0
880.0
887.0
888.0
882.0
873.0
868.0
862.0
861.0
861.0
862.0
861.0
859.0
859.0
859.0
859.0
857.0
858.0
854.0
851.0
849.0
846.0
848.0
847.0
851.0
851.0
851.0
848.0
845.0
845.0
846.0
846.0
849.0
854.0
855.0
858.0
859.0
861.0
866.0
867.0
870.0
873.0
876.0
879.0
882.0
885.0
891.0
898.0
910.0
921.0
930.0
937.0
943.0
946.0
951.0
959.0
969.0
980.0
994.0
1005.0
1016.0
1027.0
1040.0
1052.0
1060.0
1075.0
1084.0
1092.0
1097.0
1102.0
1106.0
1110.0
1118.0
1122.0
1126.0
1124.0
1120.0
1112.0
1104.0
1099.0
1092.0
1089.0
1083.0
1077.0
1077.0
1076.0
1074.0
1069.0
1068.0
1069.0
1064.0
1062.0
1055.0
1051.0
1047.0
1043.0
1041.0
1037.0
1034.0
1029.0
1021.0
1012.0
1002.0
995.0
988.0
985.0
985.0
982.0
976.0
972.0
971.0
968.0
970.0
967.0
969.0
966.0
967.0
964.0
963.0
963.0
963.0
961.0
964.0
967.0
972.0
986.0
1009.0
1042.0
1086.0
1150.0
1226.0
1307.0
1382.0
1445.0
1481.0
1491.0
1470.0
1421.0
1353.0
1276.0
1187.0
1104.0
1026.0
961.0
908.0
881.0
874.0
893.0
910.0
923.0
930.0
927.0
923.0
916.0
911.0
907.0
902.0
898.0
895.0
892.0
890.0
892.0
890.0
886.0
881.0
875.0
871.0
873.0
875.0
875.0
876.0
875.0
872.0
869.0
866.0
866.0
864.0
867.0
869.0
871.0
871.0
872.0
874.0
880.0
879.0
882.0
886.0
884.0
886.0
891.0
899.0
909.0
918.0
927.0
934.0
942.0
948.0
953.0
959.0
968.0
976.0
988.0
999.0
1012.0
1016.0
1026.0
1032.0
1039.0
1042.0
1051.0
1057.0
1062.0
1065.0
1066.0
1066.0
1069.0
1072.0
1075.0
1078.0
1077.0
1075.0
1071.0
1066.0
1062.0
1057.0
1055.0
1052.0
1050.0
1046.0
1043.0
1040.0
1035.0
1031.0
1028.0
1023.0
1018.0
1010.0
1003.0
999.0
996.0
996.0
995.0
993.0
988.0
980.0
970.0
958.0
956.0
949.0
949.0
948.0
948.0
947.0
942.0
942.0
938.0
941.0
941.0
942.0
942.0
940.0
940.0
936.0
934.0
935.0
943.0
951.0
955.0
955.0
954.0
950.0
948.0
948.0
949.0
954.0
957.0
962.0
960.0
960.0
961.0
959.0
962.0
963.0
966.0
968.0
966.0
969.0
965.0
964.0
962.0
961.0
963.0
966.0
967.0
965.0
961.0
957.0
956.0
958.0
962.0
966.0
966.0
969.0
968.0
966.0
965.0
964.0
966.0
968.0
970.0
970.0
971.0
970.0
969.0
970.0
972.0
975.0
977.0
981.0
981.0
984.0
985.0
989.0
992.0
996.0
1003.0
1002.0
1001.0
999.0
998.0
993.0
994.0
991.0
986.0
979.0
972.0
965.0
958.0
956.0
954.0
953.0
954.0
955.0
956.0
954.0
953.0
954.0
954.0
957.0
958.0
961.0
961.0
959.0
958.0
956.0
952.0
952.0
953.0
957.0
959.0
959.0
961.0
960.0
957.0
949.0
944.0
939.0
941.0
952.0
978.0
1018.0
1067.0
1120.0
1179.0
1243.0
1310.0
1373.0
1418.0
1434.0
1412.0
1359.0
1286.0
1204.0
1118.0
1035.0
959.0
887.0
830.0
795.0
787.0
800.0
825.0
850.0
872.0
886.0
890.0
885.0
880.0
876.0
872.0
868.0
864.0
865.0
863.0
858.0
854.0
855.0
854.0
854.0
857.0
856.0
853.0
851.0
848.0
847.0
845.0
843.0
846.0
845.0
846.0
847.0
849.0
849.0
853.0
857.0
858.0
860.0
858.0
860.0
859.0
863.0
867.0
872.0
877.0
880.0
881.0
879.0
884.0
885.0
890.0
895.0
901.0
907.0
910.0
917.0
920.0
924.0
930.0
934.0
937.0
942.0
944.0
951.0
956.0
959.0
966.0
975.0
980.0
985.0
990.0
993.0
994.0
997.0
1002.0
1008.0
1017.0
1023.0
1031.0
1035.0
1039.0
1045.0
1052.0
1055.0
1055.0
1057.0
1056.0
1054.0
1051.0
1050.0
1047.0
1050.0
1053.0
1051.0
1045.0
1039.0
1031.0
1024.0
1019.0
1013.0
1010.0
1004.0
998.0
992.0
986.0
982.0
980.0
978.0
978.0
972.0
967.0
961.0
957.0
956.0
958.0
961.0
965.0
966.0
967.0
965.0
963.0
959.0
956.0
956.0
956.0
962.0
965.0
966.0
968.0
971.0
976.0
982.0
989.0
995.0
998.0
999.0
1000.0
1004.0
1005.0
1010.0
1011.0
1011.0
1008.0
1000.0
990.0
975.0
961.0
944.0
934.0
925.0
918.0
915.0
915.0
917.0
918.0
915.0
914.0
911.0
909.0
906.0
907.0
910.0
911.0
917.0
915.0
916.0
916.0
915.0
914.0
915.0
915.0
914.0
911.0
907.0
902.0
900.0
899.0
916.0
946.0
990.0
1046.0
1109.0
1180.0
1258.0
1334.0
1389.0
1409.0
1387.0
1328.0
1245.0
1147.0
1052.0
967.0
894.0
835.0
790.0
767.0
766.0
782.0
809.0
837.0
860.0
869.0
872.0
862.0
850.0
838.0
831.0
827.0
827.0
830.0
833.0
837.0
833.0
829.0
823.0
818.0
818.0
818.0
818.0
818.0
816.0
812.0
811.0
812.0
810.0
811.0
811.0
811.0
807.0
808.0
805.0
807.0
810.0
813.0
818.0
821.0
824.0
826.0
825.0
828.0
832.0
837.0
841.0
846.0
853.0
857.0
864.0
875.0
882.0
889.0
896.0
897.0
902.0
902.0
910.0
916.0
927.0
941.0
954.0
965.0
971.0
977.0
981.0
986.0
992.0
999.0
1006.0
1010.0
1016.0
1018.0
1022.0
1027.0
1031.0
1035.0
1037.0
1036.0
1036.0
1032.0
1029.0
1027.0
1027.0
1027.0
1024.0
1025.0
1018.0
1015.0
1007.0
1003.0
1005.0
1001.0
997.0
990.0
986.0
982.0
978.0
974.0
972.0
968.0
960.0
954.0
946.0
943.0
937.0
935.0
936.0
937.0
934.0
930.0
931.0
932.0
928.0
929.0
924.0
924.0
920.0
922.0
922.0
920.0
922.0
930.0
937.0
946.0
949.0
954.0
957.0
956.0
957.0
959.0
963.0
971.0
977.0
981.0
980.0
977.0
970.0
962.0
949.0
939.0
931.0
924.0
918.0
912.0
906.0
903.0
903.0
900.0
901.0
903.0
902.0
901.0
899.0
899.0
901.0
904.0
905.0
909.0
910.0
910.0
908.0
905.0
904.0
901.0
907.0
909.0
913.0
910.0
911.0
907.0
902.0
902.0
902.0
919.0
945.0
987.0
1042.0
1110.0
1189.0
1272.0
1345.0
1401.0
1427.0
1421.0
1376.0
1309.0
1230.0
1145.0
1060.0
985.0
917.0
860.0
821.0
802.0
806.0
826.0
853.0
876.0
889.0
893.0
887.0
877.0
868.0
861.0
862.0
861.0
861.0
863.0
862.0
857.0
854.0
850.0
847.0
849.0
851.0
849.0
848.0
847.0
842.0
838.0
835.0
834.0
832.0
833.0
835.0
834.0
834.0
836.0
839.0
841.0
843.0
848.0
848.0
848.0
847.0
851.0
855.0
858.0
863.0
871.0
875.0
883.0
887.0
893.0
899.0
904.0
913.0
921.0
930.0
937.0
942.0
948.0
960.0
966.0
980.0
988.0
996.0
1001.0
1006.0
1011.0
1015.0
1023.0
1033.0
1043.0
1050.0
1055.0
1058.0
1062.0
1065.0
1068.0
1072.0
1075.0
1077.0
1077.0
1076.0
1074.0
1073.0
1072.0
1075.0
1078.0
1070.0
1064.0
1061.0
1056.0
1052.0
1050.0
1047.0
1046.0
1041.0
1037.0
1035.0
1030.0
1024.0
1019.0
1018.0
1011.0
1004.0
997.0
991.0
986.0
984.0
979.0
978.0
975.0
968.0
962.0
955.0
952.0
949.0
950.0
952.0
954.0
956.0
955.0
954.0
951.0
950.0
953.0
957.0
965.0
966.0
973.0
978.0
984.0
990.0
994.0
1000.0
1002.0
1004.0
1003.0
1004.0
1002.0
1001.0
999.0
994.0
986.0
973.0
962.0
949.0
939.0
931.0
929.0
928.0
926.0
924.0
926.0
928.0
929.0
930.0
934.0
933.0
931.0
931.0
928.0
929.0
930.0
927.0
930.0
932.0
933.0
936.0
936.0
936.0
936.0
934.0
931.0
929.0
938.0
962.0
1003.0
1062.0
1139.0
1222.0
1309.0
1384.0
1424.0
1422.0
1374.0
1299.0
1206.0
1103.0
1013.0
937.0
883.0
846.0
822.0
814.0
823.0
841.0
864.0
886.0
898.0
903.0
904.0
899.0
895.0
891.0
890.0
885.0
885.0
886.0
884.0
886.0
882.0
881.0
881.0
879.0
876.0
879.0
883.0
882.0
886.0
882.0
880.0
876.0
874.0
873.0
881.0
888.0
895.0
897.0
902.0
903.0
903.0
905.0
908.0
913.0
917.0
921.0
928.0
933.0
941.0
946.0
958.0
966.0
974.0
976.0
981.0
985.0
988.0
994.0
1002.0
1012.0
1024.0
1035.0
1043.0
1050.0
1058.0
1062.0
1069.0
1075.0
1081.0
1085.0
1090.0
1093.0
1100.0
1105.0
1112.0
1116.0
1118.0
1114.0
1112.0
1110.0
1109.0
1105.0
1105.0
1103.0
1101.0
1096.0
1093.0
1091.0
1089.0
1087.0
1082.0
1077.0
1070.0
1062.0
1055.0
1050.0
1048.0
1044.0
1044.0
1040.0
1036.0
1028.0
1018.0
1010.0
1008.0
1002.0
999.0
995.0
989.0
983.0
976.0
973.0
970.0
970.0
967.0
963.0
962.0
956.0
952.0
951.0
951.0
954.0
956.0
959.0
959.0
960.0
958.0
957.0
959.0
962.0
970.0
979.0
990.0
997.0
1006.0
1013.0
1016.0
1021.0
1023.0
1022.0
1025.0
1023.0
1019.0
1016.0
1013.0
1007.0
998.0
991.0
978.0
966.0
958.0
947.0
947.0
947.0
951.0
955.0
957.0
955.0
954.0
956.0
957.0
952.0
953.0
956.0
955.0
952.0
951.0
951.0
952.0
956.0
958.0
960.0
962.0
959.0
954.0
947.0
944.0
946.0
960.0
987.0
1030.0
1080.0
1139.0
1201.0
1268.0
1332.0
1387.0
1419.0
1416.0
1378.0
1312.0
1229.0
1137.0
1049.0
972.0
906.0
854.0
813.0
794.0
795.0
808.0
832.0
857.0
882.0
898.0
904.0
904.0
897.0
890.0
886.0
883.0
884.0
885.0
883.0
883.0
881.0
879.0
879.0
881.0
879.0
878.0
877.0
874.0
873.0
873.0
874.0
878.0
881.0
882.0
884.0
884.0
885.0
886.0
890.0
892.0
893.0
895.0
895.0
897.0
900.0
903.0
906.0
911.0
921.0
930.0
935.0
940.0
942.0
945.0
950.0
957.0
963.0
970.0
976.0
984.0
993.0
999.0
1002.0
1008.0
1013.0
1016.0
1020.0
1024.0
1027.0
1033.0
1041.0
1047.0
1055.0
1063.0
1067.0
1071.0
1078.0
1080.0
1083.0
1082.0
1088.0
1093.0
1095.0
1098.0
1095.0
1093.0
1089.0
1086.0
1085.0
1085.0
1084.0
1082.0
1079.0
1074.0
1067.0
1063.0
1059.0
1056.0
1052.0
1048.0
1040.0
1035.0
1028.0
1021.0
1019.0
1017.0
1015.0
1008.0
1000.0
995.0
987.0
982.0
977.0
973.0
968.0
965.0
960.0
957.0
955.0
952.0
952.0
953.0
955.0
954.0
954.0
950.0
945.0
944.0
948.0
949.0
953.0
957.0
958.0
958.0
961.0
963.0
969.0
973.0
979.0
985.0
989.0
995.0
997.0
1000.0
