# Simple Text Format
# Sampling Rate (Hz):= 360.00
# Resolution:= 12
# Labels:= ECG
972.0
967.0
965.0
963.0
964.0
963.0
963.0
956.0
948.0
943.0
939.0
939.0
938.0
936.0
934.0
933.0
928.0
928.0
928.0
930.0
935.0
940.0
944.0
948.0
954.0
961.0
968.0
976.0
985.0
988.0
991.0
991.0
990.0
991.0
990.0
992.0
991.0
984.0
974.0
962.0
947.0
938.0
932.0
927.0
923.0
921.0
921.0
922.0
922.0
920.0
923.0
926.0
927.0
926.0
924.0
923.0
921.0
920.0
923.0
926.0
929.0
930.0
931.0
930.0
929.0
928.0
927.0
925.0
922.0
920.0
917.0
924.0
940.0
972.0
1018.0
1075.0
1140.0
1212.0
1289.0
1362.0
1418.0
1436.0
1406.0
1339.0
1244.0
1137.0
1034.0
944.0
872.0
823.0
792.0
784.0
790.0
806.0
827.0
849.0
866.0
879.0
884.0
886.0
883.0
880.0
876.0
870.0
864.0
861.0
862.0
863.0
864.0
865.0
864.0
864.0
864.0
863.0
863.0
860.0
858.0
854.0
851.0
851.0
853.0
854.0
854.0
860.0
863.0
864.0
864.0
863.0
867.0
869.0
870.0
877.0
884.0
891.0
896.0
901.0
903.0
904.0
907.0
911.0
919.0
925.0
934.0
938.0
945.0
953.0
962.0
969.0
977.0
985.0
993.0
995.0
999.0
1005.0
1010.0
1022.0
1031.0
1041.0
1049.0
1053.0
1059.0
1060.0
1064.0
1069.0
1074.0
1081.0
1083.0
1086.0
1085.0
1084.0
1084.0
1081.0
1082.0
1079.0
1079.0
1074.0
1069.0
1067.0
1062.0
1060.0
1056.0
1056.0
1054.0
1050.0
1045.0
1036.0
1030.0
1026.0
1022.0
1018.0
1014.0
1006.0
999.0
994.0
989.0
985.0
981.0
980.0
975.0
970.0
962.0
956.0
951.0
944.0
944.0
942.0
942.0
941.0
939.0
935.0
933.0
933.0
932.0
934.0
934.0
933.0
931.0
930.0
932.0
933.0
936.0
944.0
948.0
957.0
961.0
964.0
970.0
977.0
985.0
991.0
997.0
999.0
1000.0
1003.0
1001.0
996.0
994.0
988.0
980.0
970.0
960.0
952.0
941.0
936.0
932.0
932.0
930.0
927.0
927.0
926.0
920.0
922.0
920.0
924.0
928.0
933.0
934.0
933.0
931.0
929.0
927.0
927.0
927.0
930.0
932.0
933.0
932.0
930.0
928.0
922.0
920.0
921.0
928.0
952.0
985.0
1032.0
1091.0
1156.0
1232.0
1312.0
1385.0
1437.0
1457.0
1435.0
1377.0
1299.0
1211.0
1123.0
1037.0
962.0
899.0
846.0
803.0
776.0
772.0
781.0
802.0
827.0
846.0
859.0
863.0
863.0
861.0
860.0
856.0
851.0
846.0
842.0
841.0
840.0
841.0
842.0
843.0
844.0
841.0
839.0
835.0
832.0
831.0
830.0
828.0
829.0
823.0
825.0
824.0
826.0
833.0
836.0
840.0
843.0
840.0
840.0
839.0
841.0
843.0
849.0
853.0
856.0
861.0
866.0
868.0
871.0
877.0
880.0
889.0
892.0
899.0
907.0
912.0
920.0
929.0
937.0
941.0
950.0
956.0
958.0
960.0
964.0
970.0
977.0
987.0
995.0
1002.0
1008.0
1013.0
1016.0
1023.0
1028.0
1032.0
1037.0
1037.0
1038.0
1037.0
1036.0
1037.0
1040.0
1040.0
1038.0
1038.0
1032.0
1026.0
1022.0
1020.0
1017.0
1016.0
1013.0
1007.0
1002.0
997.0
986.0
980.0
974.0
971.0
967.0
957.0
953.0
946.0
942.0
939.0
937.0
934.0
932.0
927.0
922.0
919.0
915.0
914.0
914.0
920.0
917.0
917.0
918.0
917.0
917.0
920.0
923.0
927.0
934.0
941.0
946.0
951.0
955.0
961.0
969.0
974.0
978.0
978.0
976.0
976.0
971.0
966.0
964.0
954.0
943.0
931.0
920.0
912.0
905.0
899.0
897.0
896.0
898.0
893.0
892.0
893.0
893.0
895.0
899.0
899.0
901.0
898.0
896.0
895.0
896.0
896.0
897.0
898.0
897.0
895.0
894.0
892.0
891.0
893.0
905.0
922.0
954.0
1002.0
1068.0
1145.0
1234.0
1317.0
1389.0
1430.0
1421.0
1373.0
1294.0
1195.0
1091.0
991.0
907.0
840.0
792.0
763.0
761.0
777.0
801.0
826.0
848.0
859.0
856.0
851.0
844.0
840.0
837.0
834.0
834.0
837.0
833.0
829.0
827.0
827.0
821.0
823.0
820.0
818.0
817.0
819.0
819.0
819.0
822.0
820.0
818.0
813.0
811.0
811.0
813.0
816.0
820.0
821.0
824.0
826.0
827.0
829.0
833.0
836.0
838.0
842.0
843.0
851.0
855.0
864.0
874.0
885.0
891.0
897.0
903.0
908.0
914.0
922.0
934.0
942.0
953.0
960.0
966.0
972.0
981.0
987.0
994.0
1003.0
1012.0
1016.0
1023.0
1027.0
1032.0
1039.0
1048.0
1051.0
1057.0
1054.0
1053.0
1052.0
1050.0
1049.0
1050.0
1047.0
1047.0
1043.0
1040.0
1035.0
1032.0
1028.0
1026.0
1022.0
1017.0
1011.0
1005.0
1000.0
996.0
994.0
992.0
989.0
984.0
976.0
967.0
959.0
955.0
953.0
949.0
948.0
946.0
941.0
938.0
932.0
930.0
926.0
924.0
924.0
921.0
918.0
918.0
916.0
919.0
920.0
923.0
928.0
929.0
931.0
932.0
936.0
938.0
944.0
955.0
960.0
965.0
970.0
971.0
974.0
974.0
978.0
978.0
977.0
974.0
964.0
956.0
944.0
934.0
925.0
919.0
912.0
907.0
906.0
901.0
900.0
899.0
900.0
902.0
903.0
907.0
909.0
909.0
907.0
907.0
905.0
906.0
907.0
908.0
911.0
912.0
912.0
914.0
917.0
920.0
920.0
921.0
918.0
916.0
918.0
931.0
959.0
1003.0
1059.0
1129.0
1205.0
1287.0
1362.0
1423.0
1457.0
1453.0
1411.0
1334.0
1240.0
1136.0
1037.0
953.0
886.0
842.0
812.0
801.0
803.0
818.0
841.0
862.0
878.0
887.0
889.0
887.0
885.0
879.0
876.0
873.0
872.0
869.0
869.0
869.0
864.0
863.0
860.0
859.0
859.0
862.0
861.0
862.0
861.0
857.0
856.0
856.0
856.0
858.0
862.0
865.0
867.0
870.0
872.0
875.0
879.0
883.0
886.0
890.0
894.0
898.0
902.0
908.0
914.0
923.0
928.0
932.0
937.0
940.0
947.0
951.0
959.0
967.0
979.0
989.0
998.0
1005.0
1012.0
1017.0
1026.0
1033.0
1041.0
1047.0
1059.0
1068.0
1081.0
1093.0
1102.0
1109.0
1114.0
1119.0
1122.0
1122.0
1123.0
1121.0
1119.0
1118.0
1114.0
1108.0
1104.0
1095.0
1085.0
1075.0
1064.0
1054.0
1043.0
1035.0
1027.0
1019.0
1017.0
1015.0
1013.0
1011.0
1009.0
1006.0
1004.0
998.0
992.0
988.0
980.0
974.0
969.0
965.0
960.0
953.0
952.0
948.0
942.0
938.0
933.0
930.0
925.0
919.0
919.0
919.0
921.0
924.0
924.0
925.0
926.0
926.0
927.0
928.0
932.0
932.0
929.0
931.0
937.0
960.0
992.0
1035.0
1097.0
1172.0
1263.0
1354.0
1436.0
1493.0
1517.0
1498.0
1446.0
1369.0
1285.0
1193.0
1101.0
1019.0
949.0
887.0
846.0
820.0
819.0
833.0
854.0
876.0
893.0
897.0
894.0
886.0
875.0
868.0
862.0
859.0
861.0
863.0
866.0
865.0
864.0
858.0
852.0
848.0
843.0
842.0
842.0
841.0
839.0
842.0
838.0
839.0
839.0
837.0
835.0
836.0
836.0
835.0
834.0
835.0
836.0
839.0
846.0
852.0
857.0
862.0
865.0
864.0
867.0
866.0
870.0
876.0
885.0
894.0
902.0
906.0
917.0
923.0
929.0
937.0
946.0
954.0
960.0
967.0
974.0
981.0
990.0
1002.0
1011.0
1021.0
1026.0
1026.0
1028.0
1030.0
1033.0
1035.0
1039.0
1042.0
1042.0
1043.0
1042.0
1038.0
1035.0
1030.0
1028.0
1024.0
1021.0
1014.0
1010.0
1004.0
999.0
1001.0
999.0
995.0
991.0
982.0
975.0
971.0
966.0
962.0
959.0
961.0
959.0
958.0
954.0
948.0
941.0
935.0
931.0
928.0
924.0
920.0
921.0
917.0
913.0
912.0
911.0
913.0
914.0
911.0
910.0
909.0
908.0
908.0
909.0
911.0
913.0
916.0
920.0
921.0
920.0
918.0
918.0
917.0
918.0
920.0
922.0
922.0
918.0
922.0
923.0
925.0
929.0
928.0
930.0
926.0
923.0
920.0
918.0
919.0
921.0
923.0
927.0
927.0
926.0
923.0
922.0
921.0
920.0
923.0
925.0
928.0
927.0
928.0
929.0
931.0
930.0
930.0
931.0
926.0
925.0
923.0
925.0
931.0
939.0
945.0
955.0
962.0
964.0
965.0
964.0
962.0
961.0
962.0
959.0
962.0
964.0
962.0
961.0
955.0
948.0
937.0
927.0
919.0
909.0
906.0
904.0
904.0
905.0
910.0
913.0
914.0
914.0
912.0
906.0
904.0
905.0
906.0
908.0
910.0
911.0
912.0
910.0
909.0
911.0
913.0
911.0
908.0
904.0
898.0
896.0
897.0
908.0
937.0
982.0
1039.0
1102.0
1175.0
1255.0
1335.0
1408.0
1450.0
1453.0
1415.0
1348.0
1266.0
1168.0
1074.0
985.0
906.0
839.0
791.0
762.0
762.0
783.0
810.0
836.0
858.0
866.0
864.0
858.0
845.0
837.0
834.0
832.0
833.0
834.0
834.0
834.0
832.0
831.0
829.0
827.0
826.0
824.0
819.0
818.0
817.0
818.0
820.0
823.0
824.0
826.0
827.0
824.0
821.0
823.0
823.0
828.0
830.0
834.0
837.0
839.0
842.0
847.0
852.0
858.0
857.0
861.0
862.0
862.0
864.0
868.0
874.0
884.0
893.0
896.0
903.0
905.0
910.0
917.0
926.0
933.0
941.0
945.0
951.0
957.0
966.0
972.0
980.0
985.0
988.0
992.0
993.0
996.0
1002.0
1013.0
1020.0
1027.0
1033.0
1038.0
1039.0
1042.0
1044.0
1048.0
1049.0
1049.0
1047.0
1044.0
1043.0
1040.0
1040.0
1041.0
1036.0
1030.0
1023.0
1014.0
1006.0
997.0
991.0
988.0
981.0
978.0
973.0
966.0
961.0
957.0
951.0
949.0
942.0
940.0
936.0
934.0
935.0
936.0
941.0
941.0
944.0
946.0
941.0
936.0
937.0
938.0
940.0
946.0
951.0
954.0
960.0
967.0
974.0
982.0
984.0
986.0
986.0
986.0
986.0
988.0
990.0
991.0
991.0
986.0
975.0
963.0
947.0
935.0
926.0
918.0
912.0
909.0
906.0
902.0
905.0
903.0
903.0
903.0
905.0
906.0
905.0
902.0
901.0
900.0
903.0
905.0
909.0
911.0
910.0
911.0
909.0
904.0
904.0
902.0
900.0
899.0
895.0
896.0
901.0
917.0
949.0
994.0
1051.0
1119.0
1196.0
1275.0
1355.0
1414.0
1443.0
1431.0
1383.0
1309.0
1216.0
1117.0
1026.0
945.0
882.0
829.0
791.0
770.0
770.0
786.0
808.0
833.0
850.0
865.0
866.0
861.0
855.0
849.0
840.0
837.0
838.0
836.0
841.0
843.0
841.0
839.0
834.0
827.0
824.0
822.0
819.0
820.0
825.0
825.0
826.0
823.0
820.0
817.0
812.0
814.0
816.0
817.0
816.0
818.0
818.0
818.0
821.0
826.0
831.0
836.0
842.0
841.0
843.0
845.0
848.0
852.0
859.0
865.0
876.0
880.0
886.0
891.0
895.0
903.0
910.0
916.0
926.0
934.0
943.0
950.0
960.0
970.0
980.0
991.0
998.0
1005.0
1009.0
1013.0
1017.0
1019.0
1026.0
1034.0
1040.0
1047.0
1051.0
1051.0
1050.0
1050.0
1054.0
1054.0
1054.0
1056.0
1059.0
1057.0
1057.0
1055.0
1051.0
1050.0
1044.0
1042.0
1039.0
1034.0
1029.0
1025.0
1021.0
1020.0
1018.0
1016.0
1012.0
1006.0
999.0
993.0
985.0
978.0
974.0
974.0
971.0
968.0
962.0
958.0
954.0
950.0
947.0
943.0
940.0
941.0
937.0
934.0
935.0
937.0
936.0
940.0
938.0
939.0
937.0
934.0
934.0
937.0
944.0
952.0
958.0
968.0
978.0
985.0
988.0
992.0
992.0
996.0
997.0
999.0
998.0
994.0
990.0
982.0
974.0
964.0
954.0
950.0
944.0
936.0
932.0
926.0
923.0
923.0
926.0
929.0
931.0
932.0
931.0
928.0
924.0
925.0
927.0
929.0
931.0
933.0
929.0
928.0
928.0
930.0
932.0
934.0
935.0
933.0
932.0
930.0
929.0
941.0
964.0
1003.0
1056.0
1117.0
1191.0
1269.0
1348.0
1413.0
1448.0
1444.0
1395.0
1324.0
1247.0
1170.0
1090.0
1016.0
947.0
892.0
845.0
811.0
796.0
797.0
815.0
841.0
866.0
886.0
898.0
898.0
891.0
880.0
875.0
872.0
872.0
871.0
872.0
870.0
871.0
868.0
868.0
867.0
865.0
865.0
858.0
861.0
858.0
858.0
857.0
858.0
860.0
865.0
866.0
870.0
873.0
875.0
873.0
873.0
875.0
878.0
881.0
886.0
890.0
893.0
899.0
905.0
910.0
916.0
923.0
926.0
931.0
932.0
938.0
943.0
949.0
958.0
969.0
978.0
981.0
984.0
990.0
995.0
1000.0
1009.0
1017.0
1024.0
1033.0
1037.0
1044.0
1049.0
1058.0
1065.0
1071.0
1076.0
1075.0
1076.0
1075.0
1078.0
1080.0
1081.0
1084.0
1086.0
1087.0
1082.0
1079.0
1073.0
1068.0
1065.0
1061.0
1057.0
1053.0
1051.0
1045.0
1040.0
1038.0
1033.0
1030.0
1027.0
1021.0
1015.0
1005.0
999.0
993.0
992.0
990.0
985.0
981.0
977.0
967.0
962.0
955.0
950.0
948.0
945.0
942.0
941.0
937.0
934.0
930.0
930.0
931.0
932.0
930.0
927.0
925.0
925.0
926.0
925.0
927.0
934.0
936.0
938.0
940.0
941.0
943.0
945.0
950.0
958.0
967.0
973.0
979.0
983.0
983.0
988.0
990.0
992.0
994.0
994.0
991.0
985.0
978.0
967.0
955.0
948.0
941.0
937.0
930.0
924.0
919.0
912.0
910.0
914.0
917.0
920.0
921.0
921.0
921.0
919.0
914.0
913.0
915.0
918.0
917.0
917.0
917.0
915.0
918.0
919.0
922.0
923.0
920.0
919.0
913.0
907.0
906.0
917.0
943.0
986.0
1043.0
1111.0
1190.0
1276.0
1354.0
1420.0
1455.0
1453.0
1411.0
1344.0
1262.0
1178.0
1086.0
1000.0
921.0
850.0
797.0
765.0
756.0
766.0
787.0
816.0
839.0
855.0
862.0
862.0
857.0
847.0
840.0
834.0
834.0
833.0
828.0
834.0
832.0
832.0
829.0
827.0
825.0
824.0
823.0
821.0
821.0
819.0
814.0
814.0
814.0
814.0
819.0
821.0
822.0
822.0
819.0
818.0
816.0
817.0
818.0
822.0
828.0
831.0
835.0
838.0
840.0
843.0
847.0
852.0
855.0
861.0
864.0
867.0
872.0
877.0
883.0
890.0
899.0
908.0
915.0
918.0
925.0
928.0
935.0
941.0
951.0
962.0
963.0
968.0
973.0
977.0
983.0
987.0
991.0
997.0
1003.0
1007.0
1013.0
1015.0
1017.0
1020.0
1027.0
1029.0
1031.0
1030.0
1028.0
1026.0
1024.0
1020.0
1019.0
1020.0
1020.0
1022.0
1017.0
1015.0
1008.0
1002.0
995.0
990.0
984.0
980.0
974.0
967.0
964.0
960.0
955.0
953.0
945.0
941.0
936.0
930.0
924.0
923.0
921.0
920.0
923.0
922.0
920.0
920.0
914.0
909.0
910.0
908.0
911.0
917.0
921.0
928.0
931.0
938.0
941.0
945.0
953.0
960.0
963.0
964.0
964.0
966.0
969.0
971.0
973.0
973.0
969.0
962.0
946.0
933.0
918.0
908.0
900.0
897.0
896.0
889.0
892.0
893.0
894.0
894.0
895.0
892.0
893.0
891.0
888.0
888.0
888.0
891.0
891.0
894.0
898.0
898.0
897.0
895.0
892.0
887.0
886.0
889.0
889.0
891.0
889.0
890.0
898.0
919.0
956.0
1010.0
1075.0
1157.0
1247.0
1340.0
1410.0
1444.0
1432.0
1378.0
1295.0
1195.0
1094.0
999.0
919.0
855.0
805.0
774.0
765.0
773.0
795.0
819.0
840.0
853.0
856.0
852.0
844.0
836.0
830.0
824.0
825.0
825.0
829.0
830.0
829.0
827.0
823.0
820.0
814.0
811.0
812.0
812.0
815.0
815.0
813.0
814.0
813.0
815.0
813.0
817.0
818.0
816.0
817.0
817.0
820.0
823.0
828.0
831.0
835.0
839.0
841.0
842.0
847.0
852.0
858.0
865.0
873.0
880.0
890.0
897.0
905.0
913.0
925.0
930.0
935.0
944.0
952.0
961.0
975.0
986.0
995.0
1003.0
1010.0
1016.0
1020.0
1024.0
1030.0
1034.0
1039.0
1042.0
1048.0
1054.0
1057.0
1060.0
1061.0
1062.0
1063.0
1059.0
1056.0
1050.0
1046.0
1043.0
1042.0
1042.0
1041.0
1041.0
1037.0
1034.0
1026.0
1018.0
1011.0
1008.0
1003.0
1000.0
995.0
992.0
987.0
982.0
978.0
973.0
968.0
964.0
956.0
952.0
943.0
938.0
937.0
937.0
937.0
936.0
934.0
929.0
922.0
919.0
918.0
915.0
917.0
914.0
917.0
918.0
918.0
924.0
931.0
938.0
945.0
948.0
952.0
954.0
957.0
964.0
973.0
983.0
993.0
996.0
998.0
995.0
986.0
975.0
963.0
949.0
938.0
930.0
922.0
916.0
914.0
913.0
913.0
913.0
916.0
917.0
917.0
913.0
907.0
908.0
909.0
915.0
918.0
921.0
924.0
924.0
923.0
920.0
920.0
919.0
920.0
922.0
922.0
922.0
919.0
916.0
915.0
922.0
940.0
968.0
1006.0
1052.0
1098.0
1155.0
1227.0
1306.0
1377.0
1425.0
1423.0
1372.0
1287.0
1182.0
1076.0
981.0
905.0
853.0
811.0
787.0
778.0
784.0
801.0
824.0
847.0
869.0
880.0
883.0
876.0
869.0
864.0
858.0
858.0
862.0
863.0
863.0
860.0
858.0
856.0
854.0
852.0
853.0
853.0
850.0
853.0
853.0
852.0
853.0
856.0
853.0
856.0
857.0
858.0
859.0
861.0
866.0
872.0
877.0
882.0
886.0
886.0
888.0
887.0
890.0
896.0
903.0
910.0
917.0
922.0
928.0
933.0
939.0
944.0
952.0
958.0
965.0
969.0
975.0
985.0
993.0
1004.0
1012.0
1020.0
1025.0
1025.0
1029.0
1037.0
1043.0
1050.0
1056.0
1063.0
1067.0
1072.0
1074.0
1079.0
1082.0
1084.0
1084.0
1083.0
1081.0
1077.0
1073.0
1072.0
1072.0
1072.0
1071.0
1069.0
1064.0
1057.0
1050.0
1043.0
1038.0
1033.0
1030.0
1027.0
1022.0
1019.0
1014.0
1011.0
1006.0
1001.0
995.0
991.0
983.0
975.0
970.0
968.0
964.0
963.0
962.0
957.0
952.0
943.0
939.0
937.0
935.0
934.0
935.0
936.0
935.0
934.0
934.0
935.0
935.0
934.0
935.0
936.0
935.0
937.0
942.0
947.0
955.0
965.0
975.0
983.0
988.0
991.0
994.0
995.0
1000.0
999.0
999.0
996.0
992.0
986.0
975.0
967.0
959.0
946.0
941.0
932.0
925.0
920.0
920.0
922.0
926.0
929.0
930.0
930.0
928.0
927.0
925.0
926.0
928.0
929.0
928.0
925.0
925.0
926.0
926.0
929.0
928.0
927.0
923.0
917.0
913.0
918.0
935.0
966.0
1015.0
1073.0
1143.0
1228.0
1309.0
1385.0
1436.0
1446.0
1410.0
1339.0
1246.0
1140.0
1044.0
964.0
900.0
854.0
816.0
790.0
776.0
780.0
792.0
816.0
841.0
863.0
872.0
874.0
868.0
861.0
851.0
848.0
846.0
847.0
848.0
846.0
845.0
843.0
839.0
838.0
837.0
835.0
836.0
836.0
833.0
830.0
829.0
828.0
830.0
833.0
833.0
836.0
837.0
838.0
838.0
838.0
840.0
844.0
847.0
848.0
850.0
855.0
858.0
861.0
868.0
875.0
881.0
886.0
886.0
891.0
892.0
896.0
905.0
915.0
923.0
929.0
936.0
941.0
949.0
955.0
962.0
970.0
974.0
980.0
983.0
990.0
997.0
1001.0
1011.0
1018.0
1027.0
1031.0
1034.0
1034.0
1035.0
1039.0
1044.0
1050.0
1053.0
1053.0
1052.0
1050.0
1047.0
1043.0
1043.0
1044.0
1040.0
1035.0
1030.0
1026.0
1019.0
1016.0
1015.0
1013.0
1008.0
1002.0
992.0
985.0
976.0
970.0
967.0
965.0
963.0
961.0
958.0
950.0
945.0
942.0
939.0
936.0
935.0
933.0
931.0
930.0
930.0
929.0
933.0
933.0
937.0
937.0
938.0
936.0
939.0
943.0
948.0
958.0
965.0
971.0
974.0
980.0
982.0
987.0
989.0
989.0
994.0
990.0
986.0
975.0
969.0
959.0
952.0
943.0
933.0
926.0
917.0
908.0
905.0
903.0
905.0
905.0
909.0
911.0
911.0
907.0
908.0
904.0
903.0
904.0
902.0
904.0
907.0
903.0
903.0
905.0
907.0
910.0
912.0
910.0
906.0
900.0
897.0
897.0
907.0
926.0
960.0
1005.0
1066.0
1137.0
1218.0
1309.0
1384.0
1434.0
1444.0
1411.0
1347.0
1263.0
1169.0
1075.0
996.0
926.0
866.0
819.0
790.0
778.0
784.0
804.0
829.0
853.0
871.0
877.0
877.0
870.0
860.0
853.0
850.0
848.0
848.0
849.0
851.0
848.0
846.0
846.0
844.0
840.0
842.0
841.0
840.0
837.0
835.0
828.0
829.0
833.0
835.0
838.0
842.0
843.0
841.0
841.0
842.0
841.0
844.0
847.0
847.0
852.0
854.0
858.0
865.0
871.0
879.0
885.0
891.0
894.0
899.0
901.0
908.0
916.0
922.0
933.0
941.0
952.0
958.0
966.0
973.0
982.0
991.0
999.0
1007.0
1012.0
1021.0
1028.0
1036.0
1041.0
1050.0
1058.0
1062.0
1066.0
1068.0
1070.0
1072.0
1078.0
1085.0
1091.0
1097.0
1099.0
1100.0
1097.0
1096.0
1095.0
1101.0
1100.0
1102.0
1098.0
1093.0
1084.0
1077.0
1069.0
1065.0
1060.0
1053.0
1042.0
1034.0
1022.0
1010.0
999.0
992.0
988.0
986.0
984.0
978.0
974.0
965.0
958.0
953.0
948.0
949.0
948.0
946.0
943.0
935.0
932.0
928.0
926.0
927.0
928.0
929.0
925.0
922.0
918.0
917.0
917.0
921.0
920.0
923.0
927.0
926.0
922.0
923.0
921.0
922.0
926.0
927.0
929.0
928.0
923.0
918.0
918.0
930.0
954.0
989.0
1039.0
1103.0
1181.0
1270.0
1358.0
1434.0
1484.0
1495.0
1468.0
1412.0
1339.0
1259.0
1176.0
1095.0
1021.0
953.0
892.0
852.0
833.0
834.0
851.0
874.0
892.0
902.0
902.0
892.0
886.0
880.0
877.0
879.0
880.0
881.0
880.0
880.0
875.0
873.0
868.0
868.0
869.0
873.0
874.0
876.0
876.0
873.0
873.0
870.0
867.0
867.0
867.0
870.0
871.0
871.0
874.0
877.0
879.0
885.0
887.0
891.0
892.0
893.0
894.0
896.0
904.0
913.0
921.0
931.0
939.0
947.0
953.0
959.0
965.0
972.0
981.0
989.0
999.0
1008.0
1016.0
1022.0
1029.0
1037.0
1044.0
1048.0
1056.0
1061.0
1064.0
1067.0
1069.0
1077.0
1084.0
1091.0
1095.0
1098.0
1098.0
1092.0
1090.0
1087.0
1083.0
1079.0
1084.0
1085.0
1083.0
1077.0
1077.0
1073.0
1067.0
1062.0
1058.0
1056.0
1049.0
1045.0
1043.0
1040.0
1037.0
1034.0
1034.0
1027.0
1022.0
1015.0
1007.0
1003.0
996.0
992.0
989.0
987.0
985.0
981.0
975.0
970.0
963.0
958.0
953.0
950.0
949.0
946.0
944.0
940.0
938.0
936.0
937.0
940.0
939.0
940.0
939.0
941.0
938.0
938.0
940.0
941.0
944.0
949.0
950.0
951.0
951.0
947.0
943.0
944.0
944.0
945.0
950.0
946.0
950.0
951.0
953.0
953.0
956.0
958.0
958.0
959.0
958.0
953.0
952.0
948.0
950.0
954.0
957.0
963.0
965.0
966.0
963.0
959.0
955.0
955.0
957.0
962.0
968.0
972.0
974.0
979.0
980.0
985.0
989.0
996.0
999.0
1003.0
1006.0
1006.0
1006.0
1007.0
1009.0
1009.0
1007.0
1001.0
994.0
983.0
971.0
960.0
954.0
951.0
951.0
951.0
951.0
953.0
954.0
954.0
952.0
952.0
953.0
954.0
955.0
953.0
952.0
951.0
950.0
954.0
956.0
957.0
959.0
955.0
953.0
952.0
950.0
946.0
943.0
939.0
936.0
935.0
942.0
960.0
989.0
1031.0
1089.0
1160.0
1245.0
1331.0
1413.0
1471.0
1497.0
1475.0
1421.0
1344.0
1259.0
1171.0
1086.0
1010.0
948.0
893.0
843.0
809.0
793.0
797.0
815.0
838.0
860.0
877.0
888.0
894.0
892.0
888.0
884.0
883.0
878.0
877.0
875.0
874.0
873.0
875.0
872.0
872.0
871.0
869.0
868.0
869.0
871.0
872.0
872.0
874.0
873.0
870.0
870.0
869.0
870.0
876.0
880.0
886.0
886.0
888.0
887.0
888.0
891.0
894.0
896.0
901.0
904.0
910.0
911.0
913.0
913.0
914.0
920.0
925.0
931.0
932.0
934.0
936.0
937.0
940.0
947.0
952.0
961.0
970.0
974.0
977.0
980.0
981.0
985.0
990.0
999.0
1007.0
1011.0
1018.0
1024.0
1030.0
1035.0
1043.0
1048.0
1053.0
1057.0
1061.0
1064.0
1063.0
1066.0
1072.0
1078.0
1082.0
1088.0
1089.0
1086.0
1085.0
1082.0
1079.0
1079.0
1079.0
1078.0
1075.0
1073.0
1069.0
1060.0
1052.0
1049.0
1042.0
1036.0
1027.0
1021.0
1011.0
1008.0
1006.0
1000.0
997.0
991.0
985.0
978.0
972.0
971.0
969.0
969.0
969.0
967.0
968.0
967.0
966.0
967.0
966.0
971.0
971.0
969.0
967.0
964.0
962.0
968.0
971.0
979.0
989.0
992.0
998.0
1000.0
1003.0
1006.0
1010.0
1015.0
1019.0
1021.0
1020.0
1019.0
1013.0
1012.0
1006.0
998.0
985.0
970.0
956.0
945.0
938.0
935.0
934.0
939.0
938.0
937.0
933.0
931.0
927.0
926.0
927.0
929.0
930.0
931.0
933.0
930.0
929.0
929.0
931.0
931.0
929.0
928.0
926.0
922.0
920.0
918.0
917.0
922.0
934.0
958.0
995.0
1044.0
1104.0
1179.0
1262.0
1346.0
1419.0
1460.0
1461.0
1417.0
1342.0
1248.0
1151.0
1061.0
984.0
921.0
867.0
821.0
790.0
778.0
787.0
809.0
838.0
860.0
874.0
880.0
875.0
869.0
862.0
860.0
863.0
862.0
861.0
862.0
859.0
855.0
853.0
850.0
848.0
846.0
847.0
847.0
844.0
843.0
845.0
846.0
851.0
851.0
848.0
845.0
843.0
841.0
840.0
846.0
850.0
854.0
857.0
860.0
862.0
866.0
871.0
877.0
882.0
884.0
886.0
893.0
896.0
902.0
910.0
919.0
925.0
931.0
935.0
941.0
945.0
951.0
961.0
971.0
978.0
985.0
991.0
996.0
1002.0
1009.0
1017.0
1024.0
1030.0
1032.0
1037.0
1043.0
1047.0
1054.0
1061.0
1068.0
1071.0
1071.0
1069.0
1068.0
1063.0
1061.0
1064.0
1064.0
1067.0
1066.0
1061.0
1057.0
1053.0
1044.0
1043.0
1038.0
1033.0
1027.0
1020.0
1015.0
1010.0
1005.0
1007.0
1005.0
1000.0
996.0
989.0
983.0
974.0
968.0
966.0
960.0
959.0
959.0
956.0
954.0
950.0
949.0
948.0
947.0
946.0
947.0
946.0
944.0
942.0
944.0
948.0
953.0
957.0
965.0
969.0
971.0
975.0
978.0
982.0
989.0
995.0
1002.0
1006.0
1008.0
1010.0
1007.0
1004.0
1000.0
993.0
984.0
972.0
960.0
952.0
943.0
938.0
935.0
932.0
930.0
932.0
930.0
931.0
929.0
927.0
927.0
930.0
932.0
933.0
933.0
931.0
933.0
932.0
931.0
932.0
934.0
935.0
937.0
936.0
937.0
935.0
933.0
935.0
932.0
933.0
935.0
947.0
969.0
1014.0
1069.0
1140.0
1227.0
1317.0
1397.0
1461.0
1495.0
1490.0
1450.0
1382.0
1297.0
1199.0
1106.0
1018.0
942.0
879.0
839.0
823.0
834.0
855.0
881.0
900.0
911.0
909.0
902.0
894.0
888.0
887.0
883.0
883.0
881.0
878.0
879.0
876.0
873.0
871.0
873.0
871.0
872.0
867.0
868.0
865.0
864.0
862.0
862.0
862.0
860.0
859.0
856.0
855.0
859.0
863.0
868.0
872.0
873.0
874.0
873.0
872.0
874.0
875.0
882.0
889.0
895.0
897.0
906.0
910.0
916.0
922.0
929.0
934.0
941.0
947.0
950.0
957.0
964.0
972.0
985.0
997.0
1004.0
1011.0
1019.0
1026.0
1033.0
1041.0
1050.0
1061.0
1070.0
1077.0
1083.0
1088.0
1091.0
1097.0
1101.0
1106.0
1107.0
1106.0
1108.0
1111.0
1110.0
1111.0
1113.0
1113.0
1112.0
1109.0
1103.0
1097.0
1091.0
1087.0
1085.0
1084.0
1079.0
1080.0
1074.0
1070.0
1066.0
1058.0
1054.0
1048.0
1042.0
1034.0
1029.0
1024.0
1020.0
1017.0
1014.0
1012.0
1009.0
1002.0
995.0
988.0
983.0
980.0
980.0
980.0
980.0
976.0
979.0
977.0
975.0
972.0
973.0
973.0
976.0
979.0
984.0
991.0
998.0
1006.0
1015.0
1023.0
1026.0
1029.0
1030.0
1033.0
1030.0
1029.0
1025.0
1022.0
1015.0
1007.0
995.0
984.0
972.0
966.0
961.0
956.0
953.0
951.0
950.0
951.0
954.0
958.0
958.0
960.0
958.0
956.0
955.0
953.0
952.0
951.0
956.0
958.0
959.0
962.0
960.0
961.0
961.0
959.0
956.0
952.0
952.0
956.0
973.0
1005.0
1053.0
1117.0
1191.0
1277.0
1362.0
1428.0
1464.0
1456.0
1406.0
1329.0
1231.0
1135.0
1052.0
982.0
927.0
883.0
854.0
844.0
849.0
867.0
888.0
903.0
913.0
914.0
914.0
908.0
905.0
901.0
899.0
895.0
895.0
894.0
890.0
888.0
888.0
886.0
882.0
881.0
883.0
883.0
881.0
882.0
880.0
878.0
872.0
871.0
872.0
876.0
879.0
884.0
887.0
888.0
889.0
893.0
897.0
900.0
904.0
906.0
910.0
916.0
923.0
930.0
940.0
949.0
958.0
963.0
969.0
976.0
981.0
990.0
997.0
1011.0
1023.0
1033.0
1043.0
1049.0
1057.0
1062.0
1069.0
1077.0
1084.0
1090.0
1095.0
1103.0
1107.0
1117.0
1124.0
1132.0
1135.0
1138.0
1135.0
1131.0
1128.0
1124.0
1125.0
1126.0
1127.0
1128.0
1125.0
1122.0
1115.0
1110.0
1105.0
1102.0
1097.0
1093.0
1086.0
1081.0
1074.0
1070.0
1063.0
1063.0
1059.0
1053.0
1046.0
1041.0
1035.0
1026.0
1022.0
1016.0
1010.0
1006.0
1004.0
998.0
993.0
990.0
984.0
981.0
979.0
976.0
967.0
967.0
965.0
965.0
970.0
972.0
973.0
971.0
970.0
968.0
968.0
972.0
981.0
988.0
998.0
1005.0
1011.0
1013.0
1016.0
1020.0
1023.0
1029.0
1031.0
1032.0
1032.0
1028.0
1023.0
1014.0
1006.0
996.0
988.0
978.0
969.0
963.0
957.0
952.0
954.0
956.0
960.0
962.0
963.0
963.0
963.0
960.0
959.0
958.0
958.0
