# Simple Text Format
# Sampling Rate (Hz):= 360.00
# Resolution:= 12
# Labels:= ECG
967.0
966.0
964.0
965.0
963.0
961.0
957.0
951.0
949.0
944.0
939.0
935.0
933.0
931.0
928.0
925.0
923.0
923.0
922.0
920.0
917.0
916.0
912.0
910.0
909.0
909.0
909.0
909.0
910.0
909.0
911.0
911.0
911.0
910.0
910.0
908.0
911.0
912.0
915.0
918.0
919.0
920.0
919.0
920.0
925.0
924.0
926.0
927.0
928.0
927.0
929.0
930.0
932.0
934.0
935.0
935.0
936.0
935.0
934.0
933.0
934.0
935.0
933.0
934.0
940.0
939.0
937.0
939.0
936.0
933.0
931.0
930.0
929.0
929.0
930.0
931.0
931.0
931.0
930.0
931.0
927.0
925.0
924.0
923.0
921.0
922.0
923.0
924.0
923.0
921.0
922.0
922.0
919.0
916.0
913.0
911.0
912.0
914.0
915.0
916.0
916.0
914.0
912.0
914.0
910.0
907.0
905.0
903.0
908.0
907.0
905.0
908.0
910.0
910.0
913.0
911.0
911.0
908.0
908.0
905.0
904.0
906.0
907.0
906.0
908.0
907.0
905.0
903.0
903.0
903.0
901.0
903.0
903.0
903.0
904.0
903.0
907.0
907.0
906.0
906.0
905.0
904.0
900.0
903.0
901.0
902.0
903.0
905.0
909.0
908.0
905.0
906.0
904.0
904.0
903.0
901.0
902.0
904.0
905.0
904.0
905.0
904.0
903.0
904.0
902.0
904.0
903.0
903.0
904.0
905.0
905.0
905.0
907.0
906.0
907.0
907.0
906.0
903.0
903.0
902.0
901.0
902.0
903.0
910.0
914.0
916.0
918.0
918.0
923.0
922.0
923.0
923.0
924.0
925.0
926.0
928.0
930.0
932.0
926.0
922.0
918.0
916.0
914.0
914.0
913.0
915.0
917.0
918.0
918.0
917.0
911.0
906.0
904.0
905.0
905.0
906.0
909.0
913.0
916.0
921.0
927.0
936.0
948.0
967.0
998.0
1039.0
1094.0
1166.0
1244.0
1314.0
1361.0
1372.0
1341.0
1256.0
1128.0
1000.0
872.0
744.0
664.0
703.0
767.0
824.0
865.0
885.0
891.0
888.0
887.0
887.0
891.0
893.0
892.0
894.0
894.0
894.0
893.0
894.0
896.0
896.0
898.0
900.0
899.0
899.0
899.0
899.0
896.0
899.0
902.0
902.0
906.0
908.0
905.0
906.0
902.0
901.0
902.0
904.0
905.0
908.0
909.0
911.0
913.0
911.0
913.0
913.0
914.0
913.0
912.0
912.0
912.0
910.0
912.0
917.0
920.0
919.0
925.0
923.0
923.0
923.0
923.0
922.0
925.0
928.0
930.0
933.0
933.0
934.0
935.0
935.0
934.0
935.0
934.0
935.0
934.0
936.0
939.0
940.0
942.0
940.0
941.0
939.0
937.0
935.0
934.0
935.0
936.0
937.0
940.0
940.0
942.0
943.0
942.0
944.0
948.0
951.0
953.0
957.0
957.0
962.0
962.0
964.0
965.0
966.0
964.0
960.0
954.0
950.0
946.0
942.0
941.0
939.0
934.0
931.0
927.0
926.0
922.0
922.0
918.0
916.0
912.0
909.0
908.0
907.0
908.0
908.0
907.0
907.0
909.0
908.0
904.0
907.0
905.0
904.0
905.0
905.0
904.0
906.0
909.0
911.0
913.0
912.0
913.0
911.0
912.0
912.0
912.0
915.0
916.0
920.0
924.0
926.0
926.0
928.0
928.0
930.0
927.0
930.0
931.0
932.0
933.0
936.0
934.0
936.0
935.0
935.0
932.0
931.0
930.0
926.0
929.0
928.0
929.0
927.0
929.0
930.0
927.0
929.0
926.0
923.0
922.0
920.0
919.0
916.0
917.0
920.0
921.0
921.0
919.0
916.0
912.0
910.0
909.0
905.0
908.0
908.0
908.0
908.0
909.0
910.0
909.0
910.0
908.0
908.0
907.0
904.0
905.0
905.0
905.0
907.0
906.0
907.0
906.0
906.0
905.0
903.0
902.0
901.0
899.0
899.0
902.0
903.0
904.0
906.0
904.0
905.0
903.0
901.0
896.0
900.0
898.0
898.0
899.0
900.0
900.0
903.0
902.0
900.0
902.0
901.0
898.0
898.0
894.0
896.0
900.0
902.0
904.0
905.0
903.0
903.0
901.0
899.0
899.0
898.0
899.0
899.0
900.0
899.0
901.0
904.0
904.0
902.0
902.0
899.0
900.0
897.0
898.0
900.0
900.0
903.0
905.0
909.0
910.0
911.0
913.0
909.0
911.0
914.0
916.0
920.0
925.0
929.0
932.0
933.0
935.0
934.0
932.0
926.0
922.0
921.0
923.0
922.0
923.0
924.0
924.0
923.0
919.0
915.0
909.0
905.0
902.0
901.0
902.0
901.0
903.0
905.0
907.0
909.0
912.0
912.0
914.0
914.0
920.0
933.0
953.0
993.0
1046.0
1118.0
1204.0
1289.0
1353.0
1384.0
1377.0
1318.0
1199.0
1071.0
943.0
815.0
687.0
694.0
754.0
814.0
860.0
882.0
884.0
881.0
875.0
874.0
877.0
886.0
893.0
896.0
898.0
896.0
892.0
888.0
884.0
883.0
883.0
884.0
886.0
885.0
887.0
889.0
891.0
892.0
892.0
894.0
892.0
891.0
890.0
890.0
891.0
889.0
893.0
898.0
901.0
903.0
903.0
902.0
903.0
903.0
904.0
902.0
906.0
908.0
910.0
911.0
914.0
914.0
915.0
914.0
914.0
915.0
914.0
914.0
919.0
919.0
919.0
921.0
925.0
929.0
928.0
928.0
928.0
930.0
930.0
931.0
933.0
934.0
935.0
939.0
941.0
941.0
941.0
940.0
944.0
942.0
944.0
944.0
946.0
946.0
949.0
951.0
954.0
959.0
957.0
958.0
957.0
958.0
957.0
956.0
961.0
963.0
968.0
972.0
975.0
979.0
981.0
982.0
983.0
983.0
981.0
982.0
982.0
979.0
976.0
978.0
973.0
972.0
966.0
957.0
955.0
948.0
944.0
939.0
935.0
933.0
928.0
925.0
922.0
919.0
917.0
915.0
914.0
910.0
906.0
904.0
906.0
905.0
905.0
905.0
906.0
906.0
904.0
903.0
901.0
901.0
897.0
901.0
902.0
903.0
904.0
905.0
908.0
910.0
911.0
909.0
908.0
910.0
910.0
910.0
909.0
913.0
911.0
916.0
920.0
922.0
921.0
925.0
921.0
921.0
919.0
918.0
919.0
922.0
922.0
923.0
923.0
923.0
924.0
922.0
922.0
921.0
919.0
919.0
920.0
920.0
919.0
920.0
919.0
920.0
920.0
917.0
915.0
913.0
911.0
910.0
908.0
908.0
910.0
908.0
909.0
910.0
910.0
909.0
906.0
905.0
905.0
904.0
904.0
904.0
906.0
905.0
905.0
903.0
904.0
903.0
900.0
900.0
900.0
900.0
897.0
899.0
901.0
900.0
904.0
905.0
904.0
903.0
900.0
899.0
897.0
897.0
897.0
897.0
899.0
900.0
902.0
901.0
899.0
897.0
896.0
896.0
897.0
894.0
894.0
896.0
894.0
895.0
896.0
899.0
898.0
898.0
897.0
898.0
895.0
894.0
894.0
894.0
895.0
897.0
898.0
899.0
896.0
895.0
892.0
895.0
893.0
893.0
895.0
895.0
897.0
896.0
897.0
899.0
897.0
896.0
897.0
899.0
899.0
896.0
897.0
897.0
899.0
899.0
901.0
904.0
905.0
906.0
907.0
907.0
906.0
909.0
911.0
913.0
919.0
922.0
925.0
927.0
930.0
930.0
931.0
928.0
926.0
922.0
917.0
915.0
916.0
918.0
920.0
921.0
920.0
919.0
914.0
911.0
903.0
899.0
897.0
896.0
897.0
898.0
900.0
900.0
900.0
902.0
902.0
903.0
903.0
910.0
918.0
932.0
959.0
1004.0
1069.0
1155.0
1246.0
1324.0
1371.0
1369.0
1313.0
1189.0
1061.0
933.0
805.0
680.0
707.0
766.0
821.0
861.0
881.0
886.0
883.0
880.0
877.0
878.0
878.0
880.0
882.0
881.0
881.0
881.0
879.0
876.0
876.0
878.0
876.0
879.0
883.0
884.0
886.0
886.0
887.0
889.0
888.0
889.0
888.0
889.0
892.0
893.0
895.0
895.0
901.0
903.0
902.0
903.0
904.0
901.0
902.0
903.0
903.0
904.0
908.0
911.0
914.0
916.0
914.0
917.0
917.0
918.0
918.0
918.0
917.0
920.0
922.0
924.0
928.0
928.0
931.0
930.0
928.0
927.0
929.0
933.0
934.0
936.0
940.0
942.0
945.0
945.0
944.0
946.0
945.0
945.0
946.0
945.0
947.0
949.0
952.0
952.0
954.0
959.0
960.0
963.0
966.0
966.0
964.0
968.0
970.0
973.0
977.0
978.0
979.0
975.0
975.0
967.0
962.0
958.0
954.0
948.0
944.0
941.0
937.0
934.0
933.0
927.0
924.0
923.0
919.0
916.0
913.0
911.0
907.0
906.0
905.0
904.0
908.0
908.0
906.0
905.0
903.0
900.0
898.0
898.0
899.0
901.0
903.0
901.0
904.0
903.0
903.0
904.0
903.0
904.0
906.0
904.0
906.0
909.0
908.0
911.0
910.0
912.0
914.0
917.0
917.0
916.0
915.0
916.0
916.0
918.0
917.0
920.0
919.0
922.0
922.0
922.0
917.0
916.0
918.0
916.0
917.0
917.0
918.0
917.0
919.0
918.0
916.0
918.0
915.0
915.0
910.0
909.0
907.0
908.0
907.0
905.0
910.0
909.0
910.0
911.0
907.0
906.0
904.0
903.0
903.0
902.0
902.0
902.0
903.0
905.0
904.0
902.0
901.0
900.0
899.0
898.0
897.0
897.0
895.0
898.0
900.0
901.0
900.0
901.0
897.0
895.0
896.0
894.0
892.0
895.0
893.0
892.0
894.0
895.0
897.0
897.0
895.0
894.0
892.0
893.0
893.0
893.0
895.0
894.0
894.0
895.0
896.0
896.0
894.0
895.0
891.0
892.0
893.0
893.0
893.0
895.0
895.0
896.0
896.0
892.0
890.0
891.0
893.0
893.0
893.0
892.0
893.0
896.0
898.0
898.0
896.0
895.0
895.0
892.0
893.0
892.0
893.0
893.0
896.0
896.0
899.0
898.0
900.0
903.0
901.0
902.0
904.0
907.0
910.0
914.0
917.0
918.0
921.0
926.0
929.0
930.0
927.0
928.0
926.0
922.0
918.0
917.0
917.0
918.0
918.0
919.0
915.0
913.0
907.0
903.0
899.0
896.0
896.0
896.0
899.0
898.0
901.0
901.0
903.0
902.0
902.0
906.0
918.0
929.0
950.0
985.0
1034.0
1098.0
1176.0
1260.0
1326.0
1361.0
1362.0
1312.0
1204.0
1076.0
948.0
820.0
692.0
680.0
736.0
798.0
844.0
869.0
875.0
876.0
873.0
873.0
879.0
883.0
888.0
890.0
890.0
887.0
884.0
884.0
881.0
879.0
879.0
881.0
883.0
885.0
890.0
890.0
892.0
894.0
896.0
894.0
892.0
891.0
892.0
890.0
896.0
896.0
901.0
903.0
903.0
907.0
910.0
908.0
909.0
908.0
906.0
908.0
908.0
908.0
911.0
915.0
919.0
919.0
918.0
918.0
916.0
919.0
920.0
919.0
923.0
925.0
927.0
931.0
933.0
935.0
935.0
937.0
934.0
939.0
938.0
936.0
934.0
933.0
942.0
944.0
947.0
949.0
948.0
949.0
948.0
947.0
944.0
943.0
944.0
944.0
947.0
948.0
949.0
953.0
953.0
956.0
957.0
959.0
960.0
960.0
962.0
964.0
965.0
970.0
972.0
973.0
974.0
970.0
965.0
963.0
960.0
953.0
950.0
946.0
944.0
940.0
939.0
935.0
932.0
927.0
924.0
922.0
918.0
915.0
911.0
911.0
909.0
911.0
911.0
912.0
912.0
909.0
907.0
904.0
901.0
900.0
902.0
905.0
907.0
909.0
910.0
910.0
909.0
909.0
910.0
910.0
913.0
915.0
917.0
918.0
918.0
920.0
924.0
924.0
924.0
926.0
926.0
924.0
923.0
924.0
929.0
927.0
930.0
935.0
935.0
934.0
935.0
933.0
931.0
930.0
928.0
928.0
928.0
925.0
927.0
927.0
928.0
926.0
928.0
927.0
927.0
928.0
925.0
922.0
917.0
914.0
913.0
913.0
916.0
919.0
917.0
917.0
916.0
914.0
913.0
914.0
910.0
909.0
910.0
906.0
907.0
911.0
909.0
911.0
909.0
908.0
906.0
903.0
900.0
900.0
903.0
907.0
907.0
909.0
907.0
905.0
904.0
902.0
901.0
899.0
900.0
900.0
904.0
904.0
905.0
905.0
906.0
904.0
902.0
901.0
899.0
899.0
898.0
898.0
899.0
900.0
900.0
905.0
902.0
903.0
903.0
903.0
900.0
899.0
898.0
899.0
901.0
903.0
906.0
907.0
905.0
903.0
899.0
894.0
893.0
893.0
893.0
895.0
893.0
898.0
904.0
905.0
903.0
901.0
903.0
904.0
903.0
904.0
903.0
904.0
905.0
905.0
907.0
909.0
913.0
919.0
922.0
922.0
926.0
925.0
924.0
925.0
926.0
927.0
930.0
927.0
927.0
926.0
923.0
920.0
920.0
918.0
917.0
916.0
915.0
913.0
914.0
914.0
912.0
909.0
904.0
899.0
895.0
896.0
894.0
893.0
895.0
894.0
896.0
896.0
899.0
903.0
907.0
913.0
919.0
928.0
947.0
976.0
1022.0
1081.0
1155.0
1236.0
1305.0
1351.0
1366.0
1340.0
1265.0
1140.0
1012.0
884.0
756.0
654.0
679.0
741.0
801.0
841.0
858.0
863.0
858.0
854.0
858.0
866.0
876.0
882.0
887.0
890.0
886.0
882.0
879.0
875.0
874.0
874.0
874.0
876.0
877.0
880.0
881.0
882.0
882.0
884.0
883.0
884.0
885.0
884.0
881.0
881.0
882.0
882.0
882.0
886.0
886.0
890.0
891.0
892.0
894.0
896.0
893.0
891.0
887.0
887.0
889.0
895.0
901.0
900.0
899.0
895.0
889.0
884.0
888.0
891.0
897.0
903.0
907.0
907.0
907.0
907.0
903.0
902.0
899.0
898.0
903.0
906.0
913.0
913.0
915.0
916.0
914.0
912.0
910.0
910.0
913.0
912.0
914.0
917.0
919.0
920.0
923.0
926.0
924.0
919.0
913.0
913.0
909.0
910.0
914.0
921.0
926.0
931.0
934.0
939.0
940.0
941.0
942.0
943.0
944.0
945.0
948.0
947.0
944.0
942.0
940.0
940.0
935.0
933.0
927.0
925.0
922.0
918.0
915.0
912.0
910.0
905.0
899.0
893.0
888.0
885.0
885.0
885.0
881.0
878.0
876.0
873.0
874.0
871.0
870.0
871.0
873.0
872.0
878.0
880.0
877.0
872.0
868.0
863.0
861.0
860.0
863.0
869.0
872.0
874.0
873.0
872.0
872.0
870.0
875.0
877.0
880.0
886.0
885.0
892.0
892.0
895.0
893.0
890.0
882.0
884.0
883.0
886.0
891.0
892.0
897.0
901.0
902.0
906.0
903.0
900.0
898.0
895.0
896.0
897.0
902.0
904.0
909.0
909.0
909.0
910.0
906.0
904.0
901.0
895.0
896.0
897.0
899.0
901.0
903.0
903.0
902.0
900.0
898.0
898.0
900.0
902.0
903.0
901.0
898.0
897.0
902.0
901.0
900.0
899.0
897.0
898.0
896.0
896.0
895.0
892.0
893.0
893.0
893.0
895.0
897.0
898.0
896.0
898.0
899.0
897.0
896.0
893.0
893.0
893.0
894.0
894.0
896.0
897.0
895.0
892.0
893.0
894.0
894.0
895.0
895.0
895.0
895.0
897.0
895.0
896.0
896.0
893.0
894.0
895.0
896.0
892.0
894.0
896.0
897.0
903.0
904.0
904.0
902.0
897.0
895.0
896.0
894.0
897.0
899.0
898.0
901.0
902.0
904.0
901.0
899.0
899.0
898.0
895.0
899.0
901.0
906.0
911.0
915.0
918.0
918.0
923.0
924.0
924.0
922.0
918.0
915.0
912.0
911.0
917.0
920.0
921.0
915.0
912.0
912.0
909.0
906.0
902.0
898.0
891.0
890.0
892.0
895.0
899.0
901.0
900.0
900.0
896.0
895.0
894.0
897.0
905.0
920.0
940.0
971.0
1015.0
1071.0
1143.0
1225.0
1296.0
1349.0
1365.0
1337.0
1249.0
1121.0
993.0
865.0
737.0
648.0
694.0
763.0
824.0
864.0
882.0
884.0
880.0
878.0
877.0
880.0
886.0
892.0
895.0
892.0
886.0
878.0
873.0
872.0
875.0
883.0
888.0
893.0
898.0
897.0
895.0
891.0
890.0
891.0
893.0
892.0
892.0
894.0
896.0
899.0
903.0
903.0
905.0
904.0
907.0
906.0
906.0
906.0
909.0
909.0
909.0
907.0
909.0
909.0
911.0
913.0
915.0
915.0
920.0
923.0
923.0
924.0
925.0
927.0
928.0
930.0
932.0
935.0
935.0
937.0
943.0
944.0
946.0
947.0
944.0
941.0
945.0
952.0
959.0
959.0
960.0
957.0
948.0
945.0
947.0
949.0
956.0
959.0
961.0
958.0
953.0
950.0
949.0
954.0
956.0
957.0
963.0
962.0
964.0
964.0
965.0
966.0
967.0
965.0
964.0
960.0
962.0
963.0
961.0
964.0
967.0
969.0
965.0
960.0
949.0
942.0
936.0
932.0
930.0
928.0
926.0
924.0
922.0
922.0
921.0
917.0
914.0
908.0
906.0
904.0
905.0
904.0
906.0
906.0
907.0
906.0
905.0
902.0
902.0
903.0
904.0
905.0
901.0
901.0
904.0
908.0
911.0
912.0
911.0
910.0
908.0
907.0
907.0
913.0
913.0
914.0
914.0
916.0
918.0
921.0
924.0
925.0
924.0
926.0
924.0
921.0
920.0
920.0
923.0
926.0
926.0
927.0
928.0
926.0
928.0
926.0
921.0
917.0
913.0
911.0
912.0
914.0
917.0
925.0
928.0
929.0
924.0
921.0
918.0
915.0
915.0
915.0
913.0
911.0
907.0
907.0
909.0
908.0
908.0
909.0
907.0
905.0
903.0
903.0
906.0
906.0
908.0
908.0
910.0
906.0
903.0
896.0
895.0
900.0
905.0
907.0
908.0
910.0
909.0
910.0
908.0
908.0
912.0
912.0
913.0
906.0
896.0
890.0
890.0
895.0
901.0
903.0
903.0
903.0
902.0
903.0
905.0
906.0
908.0
907.0
907.0
905.0
905.0
902.0
902.0
902.0
902.0
901.0
901.0
907.0
912.0
910.0
904.0
903.0
907.0
913.0
918.0
914.0
909.0
906.0
901.0
900.0
901.0
902.0
905.0
916.0
923.0
928.0
934.0
933.0
931.0
933.0
936.0
938.0
936.0
933.0
934.0
935.0
936.0
936.0
934.0
931.0
930.0
933.0
934.0
935.0
930.0
928.0
923.0
917.0
908.0
906.0
907.0
903.0
907.0
910.0
914.0
917.0
916.0
916.0
921.0
929.0
941.0
965.0
1000.0
1048.0
1108.0
1179.0
1253.0
1313.0
1351.0
1350.0
1288.0
1162.0
1034.0
906.0
778.0
653.0
682.0
741.0
805.0
856.0
886.0
901.0
906.0
906.0
903.0
903.0
904.0
901.0
897.0
900.0
899.0
898.0
899.0
902.0
903.0
901.0
902.0
906.0
908.0
906.0
905.0
905.0
907.0
903.0
905.0
905.0
909.0
913.0
914.0
914.0
915.0
915.0
916.0
918.0
918.0
918.0
920.0
920.0
921.0
920.0
922.0
925.0
927.0
928.0
930.0
930.0
930.0
928.0
927.0
927.0
929.0
931.0
934.0
937.0
936.0
940.0
941.0
943.0
946.0
945.0
942.0
943.0
947.0
949.0
952.0
951.0
955.0
953.0
952.0
956.0
953.0
949.0
948.0
948.0
948.0
951.0
952.0
952.0
956.0
956.0
954.0
950.0
949.0
947.0
947.0
944.0
948.0
950.0
955.0
958.0
959.0
959.0
961.0
961.0
962.0
960.0
959.0
958.0
957.0
954.0
954.0
952.0
950.0
949.0
947.0
941.0
936.0
929.0
923.0
917.0
915.0
913.0
914.0
915.0
914.0
911.0
910.0
906.0
902.0
898.0
898.0
897.0
895.0
897.0
897.0
896.0
897.0
903.0
902.0
904.0
903.0
905.0
902.0
902.0
902.0
906.0
907.0
907.0
908.0
910.0
914.0
914.0
912.0
914.0
917.0
917.0
919.0
921.0
922.0
924.0
924.0
925.0
926.0
924.0
924.0
924.0
923.0
923.0
924.0
921.0
923.0
924.0
923.0
924.0
921.0
920.0
919.0
914.0
915.0
914.0
913.0
913.0
911.0
912.0
913.0
913.0
910.0
910.0
909.0
907.0
905.0
904.0
903.0
900.0
902.0
901.0
903.0
903.0
901.0
902.0
899.0
894.0
892.0
892.0
897.0
896.0
898.0
901.0
900.0
900.0
900.0
896.0
893.0
892.0
890.0
890.0
892.0
891.0
893.0
893.0
897.0
897.0
896.0
895.0
894.0
894.0
892.0
891.0
893.0
893.0
891.0
889.0
890.0
888.0
889.0
889.0
891.0
891.0
892.0
891.0
890.0
889.0
890.0
887.0
892.0
890.0
887.0
889.0
891.0
888.0
890.0
892.0
896.0
894.0
894.0
893.0
893.0
893.0
896.0
900.0
900.0
903.0
905.0
907.0
911.0
914.0
918.0
921.0
922.0
925.0
920.0
914.0
910.0
907.0
908.0
908.0
909.0
909.0
909.0
905.0
909.0
908.0
907.0
900.0
891.0
884.0
881.0
878.0
879.0
887.0
890.0
890.0
896.0
895.0
895.0
897.0
903.0
911.0
922.0
944.0
971.0
1010.0
1060.0
1114.0
1176.0
1246.0
1303.0
1338.0
1343.0
1309.0
1226.0
1098.0
970.0
842.0
714.0
619.0
645.0
705.0
773.0
822.0
854.0
866.0
870.0
870.0
871.0
875.0
880.0
882.0
885.0
883.0
880.0
877.0
876.0
876.0
876.0
874.0
876.0
880.0
882.0
883.0
886.0
884.0
884.0
887.0
886.0
885.0
885.0
881.0
879.0
879.0
884.0
887.0
889.0
893.0
894.0
892.0
890.0
889.0
885.0
886.0
890.0
893.0
898.0
897.0
902.0
902.0
899.0
897.0
895.0
896.0
898.0
901.0
902.0
902.0
902.0
904.0
910.0
914.0
914.0
914.0
911.0
911.0
913.0
912.0
912.0
916.0
920.0
918.0
922.0
922.0
923.0
924.0
922.0
922.0
924.0
923.0
923.0
925.0
928.0
930.0
931.0
930.0
931.0
929.0
926.0
926.0
924.0
924.0
925.0
927.0
930.0
931.0
934.0
936.0
934.0
939.0
942.0
941.0
941.0
941.0
943.0
940.0
940.0
940.0
936.0
935.0
933.0
927.0
926.0
921.0
916.0
910.0
908.0
907.0
905.0
904.0
902.0
899.0
896.0
894.0
892.0
889.0
888.0
888.0
888.0
889.0
888.0
887.0
887.0
885.0
885.0
889.0
893.0
897.0
902.0
908.0
912.0
917.0
919.0
921.0
927.0
931.0
932.0
935.0
937.0
938.0
936.0
934.0
933.0
932.0
934.0
932.0
929.0
926.0
924.0
922.0
920.0
919.0
918.0
916.0
916.0
914.0
913.0
911.0
911.0
910.0
906.0
904.0
903.0
900.0
897.0
894.0
891.0
892.0
893.0
895.0
895.0
898.0
898.0
897.0
892.0
891.0
888.0
885.0
880.0
876.0
885.0
909.0
959.0
1035.0
1132.0
1226.0
1301.0
1331.0
1310.0
1217.0
1089.0
961.0
833.0
705.0
634.0
680.0
750.0
812.0
853.0
874.0
883.0
878.0
877.0
878.0
881.0
884.0
886.0
887.0
883.0
880.0
878.0
879.0
876.0
878.0
880.0
882.0
882.0
885.0
886.0
886.0
884.0
885.0
883.0
882.0
878.0
882.0
885.0
888.0
890.0
893.0
893.0
894.0
895.0
896.0
893.0
894.0
896.0
894.0
895.0
896.0
898.0
900.0
906.0
907.0
909.0
911.0
913.0
913.0
912.0
911.0
912.0
913.0
916.0
922.0
922.0
922.0
926.0
925.0
926.0
927.0
925.0
928.0
930.0
936.0
939.0
938.0
941.0
942.0
941.0
943.0
943.0
944.0
945.0
943.0
946.0
945.0
950.0
953.0
955.0
957.0
960.0
960.0
962.0
962.0
963.0
966.0
966.0
969.0
971.0
971.0
969.0
966.0
960.0
955.0
948.0
941.0
936.0
931.0
928.0
922.0
917.0
915.0
914.0
911.0
906.0
902.0
899.0
896.0
893.0
890.0
888.0
886.0
887.0
888.0
889.0
888.0
887.0
887.0
881.0
882.0
880.0
880.0
884.0
885.0
887.0
885.0
886.0
886.0
886.0
886.0
887.0
887.0
887.0
888.0
889.0
889.0
891.0
892.0
889.0
892.0
894.0
897.0
896.0
895.0
894.0
893.0
894.0
895.0
895.0
897.0
900.0
901.0
902.0
900.0
899.0
897.0
895.0
895.0
896.0
894.0
896.0
894.0
897.0
896.0
896.0
893.0
894.0
893.0
891.0
888.0
886.0
886.0
888.0
888.0
886.0
884.0
886.0
884.0
883.0
881.0
878.0
877.0
873.0
877.0
877.0
878.0
879.0
880.0
882.0
882.0
876.0
879.0
878.0
876.0
876.0
876.0
877.0
879.0
880.0
880.0
880.0
879.0
876.0
877.0
875.0
872.0
871.0
871.0
874.0
873.0
878.0
877.0
879.0
875.0
872.0
873.0
872.0
872.0
872.0
874.0
875.0
872.0
876.0
876.0
876.0
874.0
873.0
872.0
870.0
871.0
871.0
871.0
872.0
873.0
875.0
877.0
876.0
873.0
875.0
873.0
869.0
871.0
870.0
870.0
872.0
873.0
875.0
872.0
872.0
875.0
874.0
873.0
870.0
868.0
866.0
866.0
868.0
870.0
873.0
875.0
874.0
874.0
873.0
873.0
868.0
868.0
869.0
873.0
873.0
873.0
875.0
875.0
874.0
873.0
873.0
871.0
870.0
870.0
869.0
873.0
873.0
873.0
873.0
875.0
876.0
875.0
876.0
874.0
873.0
871.0
873.0
872.0
874.0
877.0
878.0
882.0
884.0
886.0
888.0
891.0
892.0
893.0
893.0
892.0
894.0
892.0
890.0
888.0
887.0
883.0
883.0
881.0
880.0
881.0
883.0
883.0
884.0
887.0
887.0
885.0
882.0
878.0
874.0
874.0
875.0
877.0
879.0
883.0
883.0
887.0
890.0
895.0
905.0
927.0
966.0
1024.0
1100.0
1187.0
1270.0
1331.0
1360.0
1355.0
1307.0
1209.0
1081.0
953.0
825.0
697.0
683.0
723.0
779.0
824.0
850.0
857.0
857.0
856.0
853.0
858.0
859.0
863.0
867.0
864.0
862.0
859.0
859.0
862.0
864.0
865.0
864.0
866.0
865.0
865.0
865.0
864.0
866.0
869.0
868.0
870.0
870.0
874.0
875.0
876.0
875.0
872.0
873.0
871.0
876.0
876.0
878.0
882.0
885.0
885.0
887.0
885.0
885.0
883.0
883.0
887.0
886.0
888.0
889.0
891.0
894.0
896.0
896.0
899.0
896.0
895.0
897.0
899.0
897.0
903.0
905.0
909.0
913.0
917.0
919.0
919.0
919.0
919.0
919.0
921.0
921.0
923.0
927.0
930.0
934.0
936.0
935.0
936.0
937.0
937.0
939.0
939.0
941.0
945.0
948.0
948.0
954.0
957.0
956.0
957.0
957.0
960.0
960.0
962.0
965.0
968.0
971.0
975.0
979.0
980.0
983.0
983.0
983.0
980.0
976.0
973.0
968.0
967.0
965.0
963.0
956.0
952.0
946.0
941.0
935.0
930.0
924.0
921.0
917.0
912.0
912.0
909.0
910.0
907.0
906.0
903.0
901.0
898.0
896.0
892.0
892.0
891.0
894.0
892.0
895.0
895.0
893.0
892.0
888.0
887.0
886.0
887.0
886.0
887.0
887.0
890.0
890.0
890.0
890.0
891.0
890.0
889.0
887.0
889.0
887.0
890.0
891.0
892.0
896.0
899.0
898.0
899.0
898.0
898.0
898.0
898.0
900.0
900.0
902.0
900.0
903.0
903.0
903.0
901.0
901.0
898.0
898.0
895.0
897.0
895.0
896.0
895.0
897.0
898.0
895.0
896.0
895.0
892.0
890.0
887.0
886.0
888.0
888.0
889.0
894.0
891.0
888.0
886.0
884.0
882.0
881.0
881.0
880.0
878.0
878.0
880.0
882.0
883.0
884.0
880.0
879.0
876.0
876.0
873.0
874.0
875.0
878.0
880.0
879.0
880.0
877.0
873.0
872.0
872.0
874.0
872.0
873.0
872.0
874.0
874.0
875.0
876.0
877.0
877.0
875.0
875.0
871.0
870.0
870.0
870.0
872.0
874.0
877.0
877.0
878.0
875.0
873.0
874.0
871.0
872.0
872.0
875.0
875.0
877.0
879.0
884.0
885.0
890.0
892.0
893.0
895.0
892.0
893.0
892.0
890.0
892.0
889.0
887.0
884.0
883.0
882.0
882.0
882.0
883.0
884.0
884.0
886.0
886.0
884.0
883.0
878.0
877.0
875.0
878.0
878.0
880.0
883.0
886.0
888.0
891.0
898.0
908.0
925.0
956.0
1001.0
1063.0
1140.0
1226.0
1301.0
1348.0
1368.0
1345.0
1271.0
1143.0
1015.0
887.0
759.0
664.0
687.0
743.0
797.0
836.0
857.0
860.0
855.0
857.0
859.0
863.0
866.0
874.0
875.0
870.0
867.0
865.0
864.0
865.0
867.0
872.0
871.0
874.0
873.0
873.0
872.0
873.0
873.0
876.0
878.0
881.0
881.0
883.0
883.0
881.0
882.0
882.0
883.0
882.0
887.0
888.0
888.0
891.0
893.0
894.0
896.0
896.0
899.0
898.0
898.0
897.0
900.0
900.0
901.0
904.0
908.0
908.0
905.0
910.0
910.0
909.0
910.0
914.0
915.0
918.0
919.0
921.0
922.0
925.0
926.0
929.0
927.0
930.0
930.0
933.0
933.0
933.0
937.0
938.0
940.0
942.0
942.0
942.0
942.0
941.0
942.0
943.0
944.0
945.0
947.0
950.0
951.0
954.0
951.0
955.0
956.0
958.0
958.0
960.0
963.0
963.0
968.0
969.0
968.0
967.0
963.0
960.0
955.0
949.0
944.0
940.0
937.0
933.0
931.0
930.0
926.0
924.0
918.0
914.0
907.0
903.0
903.0
901.0
900.0
899.0
898.0
900.0
898.0
898.0
896.0
896.0
895.0
894.0
894.0
891.0
889.0
891.0
891.0
893.0
894.0
896.0
896.0
895.0
893.0
892.0
893.0
895.0
896.0
896.0
899.0
899.0
903.0
904.0
906.0
904.0
903.0
904.0
905.0
904.0
905.0
908.0
908.0
911.0
911.0
911.0
911.0
909.0
908.0
907.0
906.0
904.0
905.0
905.0
908.0
905.0
906.0
905.0
903.0
903.0
900.0
895.0
898.0
897.0
898.0
897.0
898.0
899.0
900.0
901.0
899.0
899.0
896.0
895.0
892.0
890.0
891.0
892.0
894.0
892.0
894.0
895.0
893.0
892.0
889.0
891.0
890.0
888.0
886.0
890.0
890.0
892.0
893.0
893.0
892.0
892.0
891.0
889.0
886.0
885.0
885.0
887.0
889.0
890.0
892.0
893.0
891.0
889.0
887.0
883.0
883.0
