# Simple Text Format
# Sampling Rate (Hz):= 360.00
# Resolution:= 12
# Labels:= ECG
894.0
894.0
892.0
891.0
889.0
888.0
889.0
890.0
893.0
895.0
895.0
895.0
892.0
892.0
892.0
888.0
889.0
888.0
888.0
888.0
891.0
893.0
895.0
894.0
895.0
893.0
893.0
893.0
892.0
891.0
890.0
889.0
890.0
891.0
895.0
897.0
896.0
896.0
893.0
892.0
887.0
888.0
887.0
889.0
893.0
896.0
898.0
898.0
898.0
897.0
895.0
892.0
893.0
892.0
896.0
899.0
903.0
906.0
911.0
916.0
917.0
918.0
916.0
913.0
908.0
905.0
901.0
895.0
901.0
903.0
908.0
909.0
909.0
910.0
906.0
905.0
903.0
900.0
897.0
893.0
895.0
897.0
899.0
902.0
904.0
905.0
905.0
905.0
909.0
915.0
927.0
943.0
970.0
1011.0
1060.0
1122.0
1192.0
1260.0
1310.0
1336.0
1330.0
1288.0
1198.0
1070.0
942.0
814.0
687.0
681.0
725.0
786.0
834.0
864.0
877.0
877.0
876.0
878.0
879.0
884.0
888.0
889.0
891.0
888.0
886.0
883.0
884.0
883.0
885.0
887.0
889.0
891.0
891.0
894.0
895.0
892.0
891.0
891.0
892.0
895.0
895.0
897.0
900.0
901.0
902.0
902.0
902.0
904.0
902.0
904.0
905.0
906.0
905.0
907.0
909.0
910.0
912.0
914.0
912.0
913.0
914.0
913.0
911.0
914.0
917.0
919.0
919.0
920.0
924.0
924.0
926.0
925.0
925.0
925.0
924.0
925.0
926.0
929.0
933.0
933.0
938.0
938.0
938.0
939.0
939.0
937.0
934.0
934.0
935.0
937.0
938.0
940.0
943.0
946.0
945.0
945.0
942.0
940.0
941.0
940.0
940.0
946.0
949.0
951.0
955.0
960.0
961.0
965.0
963.0
965.0
962.0
959.0
958.0
955.0
953.0
951.0
949.0
948.0
943.0
940.0
937.0
932.0
926.0
925.0
923.0
925.0
927.0
928.0
932.0
936.0
933.0
932.0
933.0
934.0
933.0
934.0
935.0
935.0
936.0
937.0
938.0
940.0
939.0
934.0
930.0
928.0
920.0
920.0
917.0
915.0
916.0
918.0
918.0
918.0
917.0
915.0
909.0
909.0
905.0
906.0
907.0
909.0
909.0
911.0
914.0
916.0
916.0
915.0
912.0
912.0
911.0
905.0
910.0
912.0
914.0
915.0
914.0
918.0
918.0
918.0
917.0
917.0
920.0
935.0
971.0
1027.0
1106.0
1196.0
1275.0
1326.0
1335.0
1296.0
1194.0
1066.0
938.0
810.0
682.0
675.0
731.0
797.0
847.0
878.0
887.0
885.0
882.0
880.0
880.0
886.0
889.0
892.0
893.0
892.0
889.0
889.0
885.0
884.0
883.0
884.0
886.0
886.0
885.0
884.0
885.0
886.0
889.0
891.0
892.0
894.0
893.0
893.0
892.0
889.0
891.0
891.0
894.0
896.0
900.0
904.0
902.0
903.0
905.0
903.0
906.0
902.0
903.0
907.0
906.0
906.0
911.0
911.0
913.0
915.0
917.0
914.0
914.0
915.0
918.0
919.0
921.0
923.0
926.0
929.0
929.0
930.0
931.0
933.0
932.0
935.0
935.0
939.0
948.0
951.0
957.0
960.0
964.0
964.0
966.0
968.0
973.0
974.0
978.0
982.0
985.0
987.0
991.0
990.0
989.0
988.0
987.0
985.0
982.0
979.0
976.0
971.0
971.0
967.0
965.0
960.0
953.0
946.0
938.0
930.0
924.0
919.0
914.0
909.0
904.0
902.0
901.0
901.0
898.0
894.0
892.0
892.0
891.0
890.0
887.0
889.0
890.0
890.0
890.0
892.0
892.0
894.0
897.0
895.0
895.0
898.0
903.0
905.0
910.0
915.0
923.0
932.0
946.0
968.0
994.0
1024.0
1060.0
1103.0
1153.0
1212.0
1270.0
1313.0
1332.0
1320.0
1257.0
1138.0
1010.0
882.0
754.0
646.0
681.0
750.0
812.0
861.0
885.0
889.0
884.0
879.0
876.0
876.0
877.0
878.0
874.0
873.0
872.0
868.0
869.0
868.0
868.0
869.0
866.0
865.0
865.0
862.0
865.0
865.0
867.0
869.0
871.0
872.0
871.0
870.0
869.0
866.0
866.0
865.0
867.0
869.0
869.0
870.0
874.0
876.0
874.0
876.0
876.0
875.0
876.0
871.0
874.0
872.0
873.0
876.0
879.0
882.0
880.0
881.0
881.0
881.0
880.0
875.0
876.0
877.0
879.0
881.0
881.0
881.0
882.0
881.0
881.0
881.0
880.0
880.0
882.0
883.0
888.0
893.0
898.0
901.0
906.0
907.0
908.0
916.0
919.0
923.0
924.0
929.0
936.0
939.0
937.0
940.0
938.0
936.0
934.0
931.0
928.0
925.0
922.0
919.0
920.0
919.0
919.0
918.0
917.0
913.0
912.0
908.0
907.0
907.0
906.0
905.0
905.0
907.0
905.0
907.0
907.0
905.0
905.0
905.0
905.0
904.0
904.0
904.0
904.0
905.0
909.0
910.0
910.0
908.0
905.0
907.0
904.0
903.0
903.0
902.0
903.0
904.0
905.0
908.0
904.0
903.0
902.0
899.0
898.0
896.0
898.0
897.0
896.0
897.0
894.0
895.0
895.0
891.0
890.0
890.0
886.0
888.0
887.0
886.0
886.0
889.0
888.0
888.0
887.0
887.0
884.0
883.0
882.0
879.0
878.0
878.0
880.0
878.0
879.0
883.0
881.0
880.0
880.0
876.0
875.0
874.0
872.0
874.0
874.0
877.0
876.0
878.0
878.0
877.0
876.0
877.0
875.0
875.0
872.0
873.0
874.0
875.0
877.0
878.0
878.0
878.0
879.0
874.0
870.0
871.0
871.0
874.0
874.0
876.0
877.0
876.0
878.0
876.0
874.0
875.0
870.0
872.0
871.0
873.0
874.0
874.0
875.0
879.0
880.0
880.0
878.0
877.0
877.0
876.0
875.0
876.0
875.0
877.0
878.0
880.0
878.0
878.0
878.0
875.0
872.0
872.0
876.0
876.0
879.0
877.0
878.0
880.0
880.0
878.0
874.0
877.0
876.0
874.0
875.0
876.0
877.0
876.0
880.0
881.0
882.0
883.0
880.0
875.0
876.0
873.0
874.0
871.0
873.0
875.0
876.0
876.0
877.0
876.0
876.0
878.0
879.0
878.0
875.0
873.0
879.0
879.0
879.0
879.0
882.0
881.0
880.0
878.0
878.0
876.0
875.0
875.0
877.0
880.0
881.0
883.0
883.0
884.0
882.0
880.0
880.0
878.0
880.0
879.0
881.0
882.0
886.0
886.0
884.0
883.0
883.0
884.0
884.0
883.0
881.0
884.0
884.0
886.0
888.0
891.0
891.0
894.0
892.0
894.0
893.0
891.0
891.0
894.0
900.0
906.0
908.0
907.0
905.0
902.0
900.0
901.0
900.0
899.0
896.0
893.0
894.0
893.0
895.0
895.0
897.0
898.0
898.0
899.0
898.0
892.0
890.0
886.0
886.0
886.0
887.0
889.0
892.0
895.0
894.0
893.0
895.0
896.0
901.0
911.0
939.0
986.0
1053.0
1139.0
1228.0
1306.0
1351.0
1355.0
1311.0
1215.0
1087.0
959.0
831.0
707.0
708.0
753.0
807.0
847.0
868.0
875.0
872.0
866.0
864.0
867.0
871.0
877.0
879.0
880.0
876.0
873.0
873.0
872.0
870.0
872.0
870.0
871.0
873.0
874.0
875.0
878.0
878.0
879.0
878.0
877.0
879.0
878.0
880.0
879.0
879.0
882.0
886.0
887.0
887.0
887.0
884.0
886.0
885.0
888.0
887.0
888.0
889.0
891.0
892.0
895.0
895.0
897.0
895.0
895.0
895.0
896.0
897.0
896.0
899.0
900.0
901.0
908.0
909.0
908.0
908.0
907.0
907.0
906.0
906.0
906.0
905.0
906.0
908.0
908.0
907.0
908.0
905.0
903.0
901.0
901.0
899.0
899.0
901.0
902.0
902.0
905.0
903.0
901.0
898.0
898.0
898.0
899.0
899.0
903.0
905.0
909.0
913.0
917.0
919.0
923.0
926.0
928.0
930.0
929.0
930.0
933.0
935.0
936.0
937.0
936.0
938.0
935.0
929.0
925.0
925.0
924.0
919.0
921.0
921.0
919.0
916.0
918.0
916.0
914.0
914.0
910.0
911.0
907.0
906.0
906.0
907.0
905.0
907.0
908.0
911.0
913.0
910.0
908.0
910.0
908.0
909.0
909.0
914.0
914.0
916.0
919.0
920.0
922.0
922.0
921.0
919.0
920.0
923.0
925.0
926.0
929.0
928.0
931.0
931.0
931.0
929.0
929.0
929.0
930.0
929.0
928.0
929.0
931.0
932.0
933.0
932.0
932.0
929.0
929.0
924.0
922.0
923.0
925.0
923.0
923.0
923.0
924.0
925.0
921.0
918.0
916.0
916.0
916.0
914.0
913.0
912.0
911.0
911.0
914.0
911.0
913.0
909.0
909.0
906.0
906.0
905.0
904.0
902.0
905.0
906.0
907.0
907.0
905.0
902.0
901.0
899.0
897.0
898.0
900.0
899.0
901.0
901.0
903.0
902.0
899.0
901.0
900.0
899.0
897.0
898.0
895.0
894.0
896.0
898.0
899.0
901.0
900.0
899.0
899.0
896.0
895.0
894.0
895.0
895.0
897.0
897.0
899.0
898.0
897.0
898.0
897.0
896.0
896.0
894.0
894.0
893.0
896.0
896.0
898.0
898.0
898.0
897.0
894.0
892.0
888.0
890.0
893.0
893.0
894.0
896.0
896.0
895.0
895.0
895.0
892.0
892.0
894.0
891.0
893.0
894.0
895.0
895.0
898.0
899.0
900.0
895.0
897.0
893.0
891.0
890.0
893.0
895.0
897.0
896.0
897.0
898.0
898.0
901.0
905.0
909.0
909.0
913.0
912.0
911.0
913.0
910.0
911.0
908.0
906.0
903.0
900.0
901.0
903.0
903.0
904.0
904.0
906.0
905.0
906.0
903.0
900.0
897.0
895.0
895.0
896.0
899.0
903.0
909.0
913.0
920.0
936.0
961.0
1005.0
1067.0
1146.0
1234.0
1306.0
1348.0
1351.0
1306.0
1204.0
1076.0
948.0
820.0
708.0
716.0
763.0
819.0
859.0
882.0
887.0
885.0
880.0
880.0
884.0
888.0
892.0
891.0
888.0
886.0
880.0
880.0
879.0
879.0
883.0
887.0
889.0
889.0
888.0
889.0
887.0
887.0
886.0
888.0
888.0
888.0
890.0
893.0
897.0
896.0
895.0
898.0
899.0
900.0
897.0
897.0
896.0
899.0
902.0
903.0
907.0
910.0
909.0
909.0
908.0
908.0
910.0
910.0
911.0
913.0
912.0
914.0
918.0
918.0
920.0
919.0
919.0
921.0
920.0
920.0
921.0
923.0
922.0
918.0
924.0
923.0
922.0
922.0
919.0
918.0
918.0
915.0
916.0
916.0
918.0
918.0
917.0
919.0
917.0
917.0
915.0
914.0
912.0
912.0
913.0
916.0
920.0
922.0
927.0
931.0
934.0
937.0
938.0
942.0
941.0
943.0
942.0
944.0
941.0
941.0
938.0
936.0
934.0
933.0
930.0
927.0
923.0
922.0
917.0
916.0
914.0
911.0
910.0
907.0
909.0
909.0
907.0
906.0
902.0
898.0
901.0
900.0
903.0
904.0
906.0
907.0
906.0
907.0
906.0
908.0
909.0
908.0
909.0
910.0
910.0
914.0
917.0
919.0
919.0
921.0
921.0
920.0
919.0
918.0
920.0
922.0
924.0
924.0
928.0
928.0
928.0
925.0
922.0
923.0
922.0
921.0
925.0
926.0
924.0
925.0
925.0
928.0
926.0
927.0
923.0
923.0
922.0
920.0
920.0
919.0
920.0
918.0
918.0
918.0
919.0
919.0
917.0
917.0
916.0
912.0
913.0
913.0
911.0
911.0
913.0
912.0
913.0
911.0
907.0
909.0
908.0
905.0
904.0
904.0
905.0
907.0
907.0
907.0
906.0
904.0
904.0
903.0
903.0
900.0
900.0
900.0
906.0
906.0
907.0
908.0
910.0
908.0
907.0
906.0
903.0
902.0
902.0
899.0
902.0
903.0
905.0
905.0
905.0
909.0
906.0
906.0
904.0
901.0
902.0
901.0
904.0
906.0
905.0
907.0
906.0
906.0
902.0
900.0
900.0
899.0
900.0
899.0
900.0
904.0
904.0
905.0
905.0
904.0
903.0
903.0
903.0
904.0
903.0
903.0
905.0
903.0
904.0
908.0
908.0
907.0
905.0
904.0
903.0
906.0
907.0
905.0
908.0
908.0
910.0
909.0
909.0
907.0
909.0
909.0
909.0
912.0
914.0
919.0
919.0
923.0
929.0
929.0
930.0
927.0
924.0
922.0
919.0
917.0
914.0
915.0
918.0
922.0
925.0
925.0
924.0
923.0
916.0
914.0
913.0
907.0
908.0
906.0
909.0
911.0
915.0
918.0
920.0
919.0
919.0
923.0
925.0
935.0
949.0
974.0
1010.0
1063.0
1135.0
1210.0
1281.0
1337.0
1362.0
1354.0
1306.0
1205.0
1077.0
949.0
821.0
699.0
707.0
754.0
815.0
860.0
888.0
895.0
896.0
896.0
894.0
896.0
899.0
902.0
903.0
902.0
903.0
901.0
899.0
898.0
898.0
897.0
900.0
899.0
902.0
908.0
909.0
911.0
911.0
910.0
909.0
907.0
911.0
910.0
913.0
914.0
916.0
917.0
918.0
919.0
919.0
918.0
920.0
921.0
921.0
921.0
924.0
925.0
926.0
925.0
927.0
929.0
930.0
928.0
927.0
927.0
929.0
929.0
932.0
933.0
936.0
938.0
941.0
943.0
941.0
943.0
943.0
940.0
941.0
941.0
942.0
945.0
947.0
949.0
949.0
949.0
949.0
947.0
945.0
945.0
945.0
944.0
941.0
941.0
941.0
941.0
943.0
944.0
941.0
941.0
941.0
938.0
936.0
936.0
934.0
938.0
940.0
942.0
944.0
945.0
950.0
949.0
952.0
952.0
956.0
960.0
961.0
963.0
964.0
965.0
964.0
966.0
958.0
956.0
953.0
951.0
949.0
946.0
944.0
939.0
933.0
934.0
931.0
930.0
927.0
924.0
920.0
916.0
912.0
912.0
916.0
915.0
917.0
920.0
918.0
918.0
917.0
914.0
916.0
915.0
915.0
914.0
918.0
921.0
921.0
922.0
925.0
927.0
928.0
928.0
929.0
928.0
928.0
928.0
928.0
931.0
933.0
935.0
942.0
940.0
943.0
942.0
940.0
940.0
939.0
939.0
938.0
939.0
942.0
941.0
942.0
943.0
945.0
944.0
941.0
938.0
939.0
937.0
937.0
936.0
937.0
935.0
939.0
937.0
936.0
936.0
933.0
930.0
926.0
927.0
929.0
926.0
927.0
928.0
928.0
927.0
926.0
924.0
922.0
922.0
923.0
923.0
919.0
920.0
922.0
921.0
922.0
921.0
919.0
921.0
919.0
918.0
913.0
914.0
915.0
915.0
917.0
919.0
917.0
915.0
913.0
915.0
915.0
913.0
911.0
911.0
912.0
912.0
913.0
911.0
915.0
914.0
914.0
914.0
912.0
914.0
913.0
910.0
911.0
910.0
912.0
914.0
914.0
915.0
912.0
914.0
914.0
912.0
911.0
912.0
911.0
911.0
910.0
913.0
911.0
913.0
912.0
915.0
913.0
915.0
911.0
909.0
909.0
911.0
911.0
913.0
914.0
917.0
913.0
914.0
913.0
912.0
909.0
908.0
910.0
911.0
913.0
913.0
917.0
916.0
916.0
916.0
916.0
917.0
919.0
921.0
921.0
926.0
928.0
931.0
934.0
938.0
938.0
932.0
931.0
928.0
923.0
922.0
921.0
924.0
926.0
928.0
929.0
927.0
927.0
924.0
921.0
916.0
917.0
913.0
912.0
914.0
918.0
920.0
925.0
927.0
933.0
937.0
944.0
955.0
976.0
1011.0
1060.0
1124.0
1200.0
1273.0
1331.0
1359.0
1355.0
1309.0
1209.0
1081.0
953.0
825.0
697.0
694.0
746.0
807.0
855.0
885.0
889.0
888.0
886.0
884.0
887.0
894.0
899.0
906.0
910.0
906.0
909.0
908.0
907.0
906.0
905.0
904.0
904.0
903.0
905.0
906.0
908.0
909.0
913.0
916.0
913.0
913.0
912.0
913.0
912.0
912.0
914.0
915.0
916.0
919.0
920.0
920.0
922.0
923.0
924.0
922.0
921.0
923.0
923.0
926.0
927.0
928.0
932.0
933.0
932.0
933.0
928.0
931.0
932.0
933.0
934.0
937.0
941.0
939.0
939.0
942.0
943.0
944.0
947.0
946.0
944.0
943.0
943.0
945.0
945.0
943.0
950.0
950.0
951.0
952.0
947.0
942.0
944.0
944.0
944.0
944.0
946.0
944.0
945.0
944.0
941.0
941.0
944.0
945.0
946.0
946.0
946.0
950.0
952.0
954.0
958.0
962.0
962.0
964.0
964.0
962.0
961.0
958.0
953.0
951.0
950.0
947.0
949.0
945.0
941.0
939.0
930.0
928.0
923.0
919.0
918.0
916.0
916.0
913.0
914.0
912.0
912.0
913.0
909.0
909.0
907.0
904.0
903.0
904.0
907.0
908.0
906.0
910.0
912.0
913.0
910.0
910.0
911.0
915.0
914.0
917.0
920.0
920.0
920.0
925.0
924.0
927.0
926.0
925.0
925.0
926.0
926.0
927.0
929.0
931.0
932.0
934.0
936.0
934.0
933.0
931.0
928.0
927.0
927.0
925.0
927.0
927.0
927.0
927.0
927.0
926.0
923.0
922.0
919.0
920.0
921.0
920.0
920.0
920.0
921.0
920.0
917.0
918.0
916.0
912.0
909.0
908.0
908.0
908.0
911.0
910.0
912.0
912.0
910.0
909.0
908.0
906.0
906.0
906.0
903.0
903.0
904.0
904.0
906.0
908.0
906.0
907.0
902.0
902.0
904.0
901.0
902.0
903.0
905.0
907.0
908.0
906.0
905.0
905.0
905.0
904.0
901.0
901.0
902.0
901.0
903.0
904.0
905.0
907.0
905.0
904.0
901.0
901.0
900.0
900.0
900.0
901.0
901.0
901.0
904.0
904.0
905.0
903.0
898.0
899.0
898.0
899.0
899.0
897.0
901.0
900.0
903.0
905.0
904.0
905.0
903.0
903.0
900.0
901.0
900.0
903.0
902.0
902.0
904.0
908.0
904.0
906.0
904.0
902.0
900.0
902.0
901.0
901.0
903.0
906.0
910.0
913.0
915.0
917.0
921.0
921.0
919.0
918.0
919.0
915.0
916.0
913.0
913.0
913.0
913.0
911.0
910.0
912.0
911.0
911.0
910.0
908.0
908.0
906.0
905.0
906.0
904.0
905.0
906.0
906.0
904.0
906.0
910.0
915.0
922.0
926.0
940.0
967.0
1001.0
1052.0
1119.0
1196.0
1267.0
1322.0
1347.0
1338.0
1283.0
1175.0
1047.0
919.0
791.0
714.0
730.0
781.0
831.0
866.0
886.0
891.0
891.0
889.0
888.0
890.0
893.0
896.0
893.0
895.0
890.0
886.0
887.0
886.0
890.0
890.0
892.0
892.0
893.0
892.0
893.0
894.0
894.0
893.0
894.0
896.0
897.0
898.0
902.0
904.0
905.0
905.0
903.0
904.0
904.0
904.0
905.0
908.0
911.0
913.0
915.0
917.0
919.0
917.0
917.0
917.0
916.0
917.0
917.0
917.0
921.0
924.0
925.0
929.0
930.0
931.0
933.0
934.0
932.0
932.0
934.0
934.0
937.0
938.0
941.0
943.0
944.0
944.0
941.0
939.0
941.0
940.0
943.0
946.0
947.0
947.0
949.0
951.0
953.0
954.0
955.0
955.0
954.0
953.0
953.0
955.0
958.0
963.0
966.0
971.0
973.0
975.0
976.0
976.0
977.0
978.0
978.0
975.0
974.0
970.0
967.0
965.0
958.0
955.0
951.0
945.0
941.0
935.0
932.0
928.0
927.0
926.0
925.0
924.0
922.0
918.0
915.0
910.0
905.0
906.0
906.0
908.0
908.0
907.0
909.0
909.0
909.0
910.0
908.0
905.0
905.0
903.0
904.0
906.0
907.0
907.0
910.0
914.0
916.0
916.0
913.0
916.0
913.0
912.0
916.0
917.0
918.0
923.0
926.0
926.0
925.0
925.0
924.0
925.0
921.0
923.0
922.0
923.0
924.0
925.0
923.0
924.0
925.0
925.0
925.0
923.0
920.0
917.0
914.0
919.0
919.0
918.0
920.0
921.0
918.0
918.0
913.0
912.0
913.0
910.0
911.0
912.0
911.0
913.0
911.0
911.0
912.0
911.0
908.0
908.0
907.0
906.0
905.0
901.0
904.0
902.0
907.0
907.0
908.0
906.0
907.0
906.0
903.0
902.0
902.0
902.0
903.0
904.0
907.0
905.0
904.0
905.0
903.0
901.0
900.0
899.0
900.0
900.0
901.0
902.0
899.0
904.0
902.0
902.0
900.0
899.0
896.0
896.0
897.0
897.0
898.0
900.0
903.0
903.0
899.0
898.0
899.0
899.0
899.0
896.0
896.0
895.0
898.0
901.0
900.0
902.0
900.0
900.0
900.0
900.0
898.0
897.0
895.0
896.0
897.0
896.0
896.0
899.0
901.0
900.0
899.0
898.0
898.0
896.0
897.0
897.0
898.0
899.0
902.0
902.0
905.0
903.0
903.0
901.0
897.0
898.0
899.0
901.0
904.0
907.0
912.0
915.0
915.0
919.0
918.0
919.0
917.0
916.0
914.0
909.0
908.0
909.0
910.0
911.0
910.0
910.0
910.0
911.0
909.0
908.0
907.0
906.0
903.0
902.0
906.0
906.0
904.0
905.0
910.0
908.0
911.0
912.0
920.0
929.0
946.0
968.0
1009.0
1063.0
1132.0
1211.0
1282.0
1334.0
1351.0
1334.0
1271.0
1160.0
1032.0
904.0
776.0
707.0
719.0
769.0
823.0
862.0
880.0
884.0
881.0
877.0
881.0
885.0
891.0
897.0
899.0
899.0
893.0
891.0
887.0
890.0
888.0
887.0
890.0
891.0
895.0
898.0
901.0
897.0
898.0
899.0
897.0
898.0
898.0
897.0
902.0
905.0
908.0
909.0
910.0
912.0
911.0
912.0
910.0
911.0
913.0
913.0
915.0
917.0
919.0
922.0
922.0
923.0
924.0
926.0
925.0
926.0
928.0
927.0
928.0
931.0
932.0
936.0
938.0
937.0
937.0
938.0
938.0
939.0
942.0
943.0
944.0
943.0
945.0
949.0
948.0
949.0
948.0
948.0
946.0
946.0
947.0
950.0
949.0
952.0
954.0
952.0
953.0
951.0
951.0
953.0
952.0
953.0
957.0
957.0
960.0
961.0
966.0
970.0
971.0
969.0
970.0
969.0
968.0
963.0
958.0
957.0
952.0
948.0
946.0
944.0
935.0
936.0
931.0
927.0
923.0
920.0
914.0
916.0
913.0
912.0
912.0
913.0
911.0
910.0
910.0
905.0
905.0
906.0
903.0
906.0
909.0
909.0
911.0
912.0
910.0
909.0
909.0
908.0
908.0
910.0
911.0
914.0
916.0
918.0
920.0
923.0
921.0
924.0
925.0
926.0
926.0
926.0
925.0
928.0
928.0
927.0
929.0
932.0
932.0
932.0
929.0
927.0
927.0
927.0
927.0
926.0
929.0
930.0
931.0
933.0
930.0
929.0
925.0
922.0
922.0
921.0
920.0
922.0
919.0
922.0
922.0
920.0
917.0
916.0
914.0
915.0
915.0
911.0
910.0
909.0
910.0
911.0
912.0
911.0
910.0
910.0
907.0
908.0
906.0
907.0
907.0
906.0
906.0
906.0
909.0
908.0
907.0
907.0
906.0
903.0
904.0
900.0
900.0
902.0
903.0
902.0
904.0
906.0
904.0
905.0
904.0
902.0
898.0
895.0
896.0
898.0
899.0
899.0
900.0
903.0
903.0
902.0
902.0
898.0
900.0
898.0
898.0
899.0
901.0
901.0
901.0
902.0
898.0
904.0
900.0
901.0
899.0
896.0
897.0
898.0
899.0
899.0
902.0
905.0
903.0
905.0
904.0
900.0
898.0
896.0
896.0
899.0
899.0
902.0
901.0
902.0
902.0
901.0
899.0
897.0
896.0
899.0
898.0
896.0
898.0
897.0
902.0
904.0
909.0
911.0
915.0
919.0
919.0
916.0
918.0
917.0
919.0
919.0
918.0
914.0
912.0
911.0
909.0
907.0
907.0
907.0
909.0
909.0
911.0
911.0
909.0
909.0
906.0
902.0
899.0
899.0
901.0
902.0
904.0
905.0
909.0
913.0
919.0
927.0
940.0
956.0
990.0
1033.0
1094.0
1166.0
1242.0
1308.0
1344.0
1342.0
1289.0
1168.0
1040.0
912.0
784.0
673.0
703.0
762.0
820.0
863.0
886.0
892.0
893.0
890.0
887.0
890.0
887.0
888.0
886.0
885.0
885.0
885.0
888.0
890.0
888.0
893.0
893.0
896.0
896.0
895.0
896.0
896.0
896.0
898.0
899.0
902.0
904.0
906.0
907.0
907.0
909.0
906.0
906.0
905.0
906.0
906.0
909.0
914.0
917.0
917.0
920.0
920.0
919.0
915.0
917.0
916.0
915.0
914.0
918.0
923.0
924.0
928.0
929.0
928.0
930.0
930.0
931.0
929.0
930.0
931.0
934.0
936.0
937.0
940.0
940.0
940.0
941.0
942.0
943.0
942.0
942.0
943.0
944.0
947.0
948.0
947.0
948.0
947.0
947.0
944.0
945.0
944.0
946.0
949.0
950.0
952.0
953.0
957.0
959.0
958.0
959.0
963.0
962.0
964.0
966.0
965.0
969.0
966.0
965.0
965.0
962.0
956.0
950.0
945.0
941.0
938.0
935.0
931.0
930.0
928.0
924.0
923.0
919.0
915.0
915.0
912.0
907.0
906.0
902.0
902.0
904.0
902.0
903.0
906.0
905.0
903.0
904.0
901.0
901.0
899.0
898.0
898.0
902.0
903.0
906.0
908.0
907.0
906.0
910.0
911.0
909.0
910.0
913.0
911.0
915.0
914.0
918.0
922.0
920.0
924.0
924.0
923.0
922.0
923.0
922.0
923.0
924.0
925.0
927.0
927.0
928.0
927.0
927.0
924.0
925.0
923.0
923.0
922.0
923.0
925.0
923.0
924.0
919.0
918.0
921.0
918.0
918.0
915.0
918.0
915.0
915.0
913.0
915.0
916.0
916.0
916.0
913.0
911.0
908.0
908.0
907.0
904.0
906.0
907.0
910.0
912.0
910.0
910.0
906.0
903.0
902.0
899.0
900.0
903.0
903.0
904.0
905.0
904.0
906.0
904.0
904.0
904.0
901.0
900.0
901.0
897.0
896.0
898.0
900.0
903.0
904.0
900.0
902.0
900.0
900.0
897.0
897.0
895.0
896.0
894.0
899.0
898.0
899.0
897.0
898.0
900.0
899.0
898.0
894.0
895.0
893.0
894.0
896.0
897.0
897.0
897.0
896.0
897.0
895.0
895.0
896.0
896.0
899.0
900.0
900.0
901.0
902.0
902.0
897.0
896.0
896.0
895.0
895.0
896.0
899.0
898.0
901.0
902.0
902.0
901.0
900.0
899.0
899.0
899.0
902.0
903.0
909.0
914.0
919.0
923.0
923.0
921.0
918.0
915.0
912.0
908.0
905.0
907.0
909.0
911.0
913.0
914.0
915.0
912.0
909.0
906.0
907.0
903.0
899.0
896.0
897.0
900.0
901.0
909.0
909.0
914.0
917.0
922.0
930.0
943.0
967.0
1011.0
1073.0
1145.0
1225.0
1299.0
1342.0
1349.0
1313.0
1215.0
1087.0
959.0
831.0
703.0
687.0
736.0
799.0
845.0
875.0
883.0
879.0
877.0
877.0
878.0
883.0
889.0
891.0
893.0
893.0
890.0
888.0
887.0
888.0
887.0
889.0
889.0
892.0
893.0
893.0
897.0
897.0
899.0
901.0
899.0
900.0
902.0
901.0
901.0
898.0
897.0
900.0
903.0
907.0
908.0
910.0
911.0
909.0
908.0
909.0
911.0
911.0
909.0
914.0
916.0
919.0
921.0
921.0
921.0
921.0
924.0
925.0
925.0
927.0
926.0
927.0
928.0
933.0
935.0
935.0
938.0
936.0
938.0
935.0
936.0
935.0
938.0
940.0
943.0
943.0
947.0
946.0
947.0
946.0
944.0
945.0
946.0
945.0
944.0
946.0
947.0
948.0
949.0
951.0
953.0
952.0
954.0
954.0
954.0
956.0
956.0
963.0
967.0
970.0
969.0
970.0
969.0
968.0
965.0
961.0
954.0
953.0
950.0
947.0
944.0
941.0
941.0
936.0
932.0
929.0
924.0
920.0
917.0
912.0
912.0
911.0
912.0
911.0
912.0
912.0
911.0
910.0
906.0
905.0
900.0
901.0
903.0
904.0
903.0
906.0
909.0
910.0
909.0
909.0
911.0
910.0
906.0
907.0
909.0
911.0
913.0
915.0
918.0
921.0
922.0
921.0
921.0
920.0
917.0
917.0
917.0
920.0
925.0
927.0
925.0
928.0
928.0
928.0
928.0
928.0
927.0
927.0
927.0
926.0
928.0
929.0
930.0
931.0
929.0
926.0
926.0
925.0
923.0
922.0
922.0
921.0
920.0
920.0
921.0
922.0
918.0
918.0
915.0
913.0
912.0
912.0
911.0
914.0
912.0
912.0
912.0
911.0
912.0
910.0
910.0
906.0
904.0
902.0
903.0
903.0
904.0
905.0
907.0
906.0
908.0
908.0
905.0
904.0
901.0
900.0
901.0
900.0
902.0
904.0
905.0
905.0
904.0
903.0
901.0
899.0
900.0
898.0
899.0
896.0
901.0
901.0
900.0
901.0
899.0
900.0
899.0
900.0
897.0
895.0
895.0
896.0
897.0
896.0
900.0
900.0
902.0
901.0
897.0
896.0
896.0
896.0
898.0
896.0
897.0
900.0
898.0
898.0
897.0
899.0
895.0
898.0
897.0
895.0
897.0
896.0
898.0
898.0
898.0
901.0
899.0
900.0
897.0
897.0
894.0
897.0
897.0
900.0
901.0
902.0
909.0
914.0
916.0
918.0
917.0
916.0
915.0
912.0
910.0
910.0
907.0
906.0
907.0
908.0
910.0
911.0
909.0
907.0
906.0
907.0
905.0
905.0
902.0
900.0
900.0
901.0
898.0
899.0
902.0
901.0
903.0
907.0
909.0
912.0
919.0
930.0
947.0
976.0
1020.0
1082.0
1156.0
1238.0
1305.0
1345.0
1350.0
1303.0
1197.0
1069.0
941.0
813.0
689.0
709.0
757.0
818.0
857.0
880.0
890.0
887.0
884.0
885.0
888.0
892.0
893.0
893.0
890.0
886.0
883.0
882.0
882.0
883.0
886.0
888.0
892.0
893.0
892.0
893.0
893.0
893.0
893.0
894.0
892.0
894.0
897.0
899.0
900.0
902.0
903.0
905.0
904.0
907.0
906.0
905.0
907.0
909.0
911.0
912.0
914.0
916.0
915.0
912.0
915.0
915.0
914.0
913.0
915.0
921.0
923.0
924.0
924.0
927.0
928.0
929.0
929.0
928.0
930.0
933.0
931.0
933.0
935.0
938.0
942.0
945.0
945.0
946.0
946.0
946.0
945.0
945.0
946.0
947.0
948.0
949.0
952.0
956.0
955.0
956.0
954.0
954.0
953.0
957.0
960.0
964.0
968.0
970.0
975.0
978.0
979.0
980.0
980.0
975.0
975.0
972.0
969.0
966.0
962.0
962.0
961.0
957.0
952.0
948.0
940.0
938.0
932.0
929.0
926.0
923.0
923.0
921.0
