# Simple Text Format
# Sampling Rate (Hz):= 360.00
# Resolution:= 12
# Labels:= ECG
890.0
893.0
892.0
895.0
896.0
898.0
900.0
903.0
899.0
900.0
898.0
897.0
897.0
895.0
895.0
898.0
900.0
899.0
901.0
900.0
903.0
902.0
902.0
901.0
900.0
906.0
908.0
911.0
913.0
917.0
920.0
919.0
920.0
921.0
922.0
921.0
919.0
916.0
915.0
912.0
911.0
909.0
913.0
912.0
913.0
911.0
912.0
910.0
907.0
905.0
902.0
901.0
901.0
901.0
903.0
905.0
904.0
905.0
905.0
906.0
910.0
916.0
921.0
931.0
947.0
971.0
1008.0
1059.0
1121.0
1189.0
1258.0
1304.0
1321.0
1302.0
1233.0
1111.0
983.0
855.0
727.0
685.0
711.0
765.0
818.0
853.0
868.0
875.0
872.0
874.0
875.0
877.0
885.0
889.0
890.0
890.0
884.0
881.0
879.0
879.0
880.0
882.0
883.0
884.0
888.0
889.0
889.0
889.0
888.0
886.0
887.0
887.0
888.0
891.0
895.0
896.0
898.0
898.0
897.0
899.0
896.0
896.0
898.0
900.0
900.0
904.0
905.0
907.0
908.0
911.0
910.0
911.0
911.0
913.0
912.0
911.0
911.0
912.0
915.0
917.0
922.0
925.0
924.0
925.0
924.0
922.0
923.0
924.0
927.0
930.0
932.0
934.0
935.0
935.0
935.0
935.0
936.0
936.0
937.0
935.0
937.0
938.0
940.0
944.0
947.0
946.0
945.0
945.0
942.0
940.0
939.0
941.0
943.0
946.0
948.0
951.0
954.0
957.0
958.0
960.0
960.0
960.0
961.0
963.0
963.0
963.0
960.0
960.0
958.0
953.0
950.0
948.0
943.0
938.0
933.0
929.0
926.0
927.0
923.0
922.0
923.0
918.0
915.0
912.0
908.0
906.0
903.0
903.0
901.0
903.0
902.0
902.0
904.0
905.0
904.0
902.0
904.0
902.0
900.0
901.0
899.0
903.0
902.0
903.0
905.0
904.0
904.0
906.0
904.0
903.0
903.0
905.0
908.0
910.0
911.0
914.0
914.0
914.0
914.0
913.0
913.0
911.0
912.0
913.0
914.0
914.0
915.0
915.0
918.0
921.0
919.0
920.0
919.0
914.0
915.0
914.0
916.0
914.0
913.0
917.0
916.0
916.0
914.0
912.0
910.0
906.0
904.0
905.0
906.0
907.0
908.0
908.0
909.0
907.0
905.0
901.0
901.0
900.0
899.0
898.0
898.0
899.0
898.0
899.0
901.0
902.0
899.0
893.0
895.0
893.0
896.0
893.0
893.0
893.0
895.0
896.0
897.0
896.0
895.0
894.0
892.0
888.0
887.0
888.0
890.0
891.0
890.0
892.0
894.0
892.0
894.0
892.0
891.0
889.0
885.0
886.0
886.0
889.0
889.0
892.0
894.0
892.0
893.0
891.0
893.0
891.0
890.0
887.0
890.0
889.0
890.0
892.0
894.0
894.0
893.0
891.0
891.0
891.0
889.0
888.0
890.0
890.0
892.0
892.0
892.0
894.0
892.0
891.0
891.0
890.0
888.0
887.0
888.0
889.0
890.0
890.0
892.0
893.0
894.0
893.0
893.0
891.0
892.0
893.0
895.0
898.0
901.0
904.0
908.0
910.0
908.0
908.0
908.0
909.0
908.0
912.0
912.0
912.0
912.0
909.0
907.0
902.0
902.0
900.0
900.0
899.0
899.0
901.0
901.0
899.0
900.0
901.0
898.0
897.0
894.0
892.0
893.0
893.0
895.0
896.0
899.0
902.0
908.0
913.0
922.0
937.0
962.0
1000.0
1050.0
1117.0
1192.0
1259.0
1306.0
1321.0
1299.0
1231.0
1114.0
986.0
858.0
730.0
691.0
718.0
770.0
821.0
858.0
876.0
880.0
878.0
874.0
873.0
876.0
878.0
879.0
878.0
876.0
875.0
876.0
874.0
871.0
876.0
879.0
880.0
882.0
882.0
882.0
878.0
879.0
878.0
881.0
883.0
885.0
887.0
890.0
891.0
890.0
889.0
890.0
892.0
894.0
895.0
894.0
897.0
896.0
901.0
903.0
904.0
906.0
906.0
908.0
907.0
908.0
907.0
906.0
909.0
911.0
914.0
917.0
917.0
917.0
918.0
917.0
918.0
919.0
921.0
922.0
926.0
928.0
930.0
933.0
933.0
934.0
933.0
935.0
935.0
933.0
934.0
933.0
936.0
936.0
939.0
940.0
943.0
943.0
941.0
939.0
940.0
939.0
940.0
940.0
945.0
946.0
950.0
952.0
954.0
954.0
957.0
960.0
961.0
961.0
963.0
964.0
960.0
960.0
956.0
954.0
950.0
945.0
941.0
942.0
938.0
934.0
931.0
929.0
927.0
927.0
925.0
922.0
920.0
915.0
912.0
909.0
906.0
904.0
903.0
902.0
901.0
901.0
902.0
899.0
901.0
902.0
900.0
898.0
901.0
896.0
896.0
898.0
898.0
902.0
902.0
899.0
903.0
904.0
902.0
904.0
902.0
902.0
905.0
906.0
909.0
911.0
912.0
915.0
914.0
915.0
915.0
914.0
911.0
910.0
911.0
911.0
913.0
914.0
914.0
916.0
916.0
916.0
915.0
913.0
913.0
910.0
911.0
909.0
911.0
910.0
911.0
912.0
911.0
911.0
909.0
908.0
906.0
903.0
903.0
903.0
902.0
901.0
903.0
904.0
902.0
902.0
899.0
897.0
896.0
896.0
896.0
896.0
894.0
896.0
898.0
898.0
899.0
895.0
894.0
891.0
891.0
888.0
890.0
889.0
890.0
891.0
893.0
891.0
893.0
894.0
893.0
891.0
888.0
887.0
886.0
887.0
888.0
891.0
890.0
894.0
893.0
892.0
893.0
892.0
890.0
888.0
887.0
888.0
888.0
889.0
888.0
890.0
892.0
893.0
893.0
892.0
888.0
888.0
887.0
889.0
891.0
890.0
891.0
892.0
893.0
892.0
888.0
889.0
889.0
889.0
888.0
889.0
891.0
891.0
893.0
895.0
896.0
894.0
894.0
892.0
892.0
891.0
889.0
892.0
895.0
900.0
903.0
904.0
909.0
910.0
914.0
913.0
912.0
911.0
911.0
911.0
915.0
917.0
915.0
914.0
910.0
908.0
904.0
904.0
900.0
900.0
899.0
902.0
904.0
907.0
906.0
904.0
902.0
900.0
898.0
894.0
896.0
897.0
901.0
903.0
907.0
915.0
923.0
935.0
952.0
978.0
1020.0
1073.0
1142.0
1218.0
1280.0
1317.0
1321.0
1283.0
1195.0
1067.0
939.0
811.0
705.0
699.0
736.0
792.0
838.0
869.0
881.0
885.0
885.0
882.0
883.0
885.0
887.0
885.0
884.0
884.0
882.0
881.0
882.0
884.0
884.0
888.0
889.0
891.0
888.0
888.0
886.0
884.0
885.0
887.0
889.0
892.0
896.0
897.0
899.0
901.0
900.0
899.0
900.0
901.0
900.0
905.0
908.0
908.0
908.0
912.0
913.0
912.0
911.0
912.0
912.0
911.0
913.0
914.0
915.0
920.0
920.0
923.0
921.0
923.0
924.0
925.0
924.0
926.0
926.0
929.0
932.0
935.0
936.0
937.0
936.0
939.0
936.0
939.0
939.0
937.0
936.0
937.0
940.0
942.0
943.0
946.0
946.0
945.0
945.0
944.0
941.0
940.0
939.0
941.0
943.0
948.0
948.0
950.0
954.0
952.0
954.0
954.0
956.0
958.0
958.0
959.0
962.0
961.0
963.0
963.0
961.0
958.0
953.0
948.0
945.0
935.0
931.0
932.0
929.0
928.0
927.0
925.0
923.0
919.0
913.0
910.0
906.0
903.0
901.0
906.0
905.0
904.0
905.0
908.0
909.0
910.0
908.0
908.0
905.0
903.0
904.0
904.0
904.0
907.0
911.0
915.0
915.0
915.0
913.0
914.0
913.0
912.0
912.0
915.0
917.0
920.0
921.0
925.0
926.0
925.0
926.0
924.0
921.0
920.0
918.0
920.0
923.0
924.0
927.0
928.0
930.0
928.0
926.0
920.0
922.0
920.0
919.0
919.0
922.0
921.0
921.0
920.0
918.0
918.0
919.0
917.0
914.0
915.0
909.0
909.0
908.0
908.0
910.0
912.0
910.0
909.0
909.0
907.0
904.0
902.0
903.0
903.0
904.0
901.0
902.0
904.0
903.0
903.0
901.0
899.0
900.0
899.0
899.0
897.0
898.0
897.0
895.0
897.0
900.0
900.0
899.0
897.0
894.0
894.0
893.0
894.0
895.0
897.0
896.0
899.0
900.0
897.0
896.0
895.0
895.0
895.0
895.0
896.0
896.0
898.0
897.0
895.0
898.0
897.0
898.0
897.0
895.0
895.0
895.0
893.0
892.0
895.0
898.0
897.0
898.0
899.0
897.0
896.0
894.0
893.0
894.0
895.0
895.0
896.0
895.0
899.0
898.0
897.0
896.0
893.0
894.0
893.0
894.0
896.0
899.0
901.0
907.0
910.0
914.0
915.0
917.0
915.0
912.0
912.0
915.0
915.0
917.0
918.0
915.0
914.0
910.0
908.0
906.0
904.0
902.0
903.0
904.0
903.0
905.0
903.0
899.0
899.0
897.0
898.0
898.0
897.0
897.0
901.0
902.0
906.0
910.0
919.0
930.0
946.0
966.0
994.0
1035.0
1089.0
1152.0
1216.0
1270.0
1306.0
1312.0
1292.0
1227.0
1117.0
989.0
861.0
733.0
671.0
690.0
739.0
794.0
835.0
859.0
869.0
868.0
870.0
872.0
876.0
881.0
887.0
888.0
885.0
883.0
881.0
880.0
880.0
883.0
886.0
887.0
891.0
888.0
890.0
890.0
887.0
890.0
890.0
893.0
893.0
895.0
896.0
894.0
895.0
895.0
896.0
894.0
898.0
899.0
898.0
900.0
899.0
902.0
905.0
905.0
907.0
909.0
906.0
907.0
907.0
906.0
909.0
912.0
913.0
917.0
918.0
920.0
921.0
920.0
919.0
918.0
918.0
918.0
918.0
922.0
922.0
924.0
927.0
931.0
931.0
930.0
931.0
931.0
934.0
933.0
932.0
930.0
932.0
934.0
938.0
939.0
941.0
939.0
940.0
940.0
937.0
936.0
935.0
933.0
936.0
939.0
942.0
943.0
944.0
942.0
943.0
945.0
943.0
946.0
949.0
950.0
952.0
955.0
960.0
960.0
960.0
958.0
956.0
954.0
948.0
942.0
940.0
939.0
937.0
933.0
933.0
929.0
924.0
926.0
918.0
914.0
912.0
909.0
910.0
910.0
907.0
909.0
908.0
907.0
904.0
903.0
903.0
902.0
898.0
899.0
900.0
901.0
902.0
904.0
907.0
903.0
906.0
907.0
905.0
905.0
903.0
901.0
902.0
904.0
909.0
908.0
911.0
913.0
914.0
914.0
915.0
911.0
912.0
915.0
915.0
918.0
919.0
919.0
920.0
923.0
923.0
925.0
922.0
923.0
920.0
919.0
918.0
921.0
922.0
923.0
924.0
925.0
925.0
925.0
922.0
920.0
915.0
916.0
915.0
918.0
921.0
920.0
920.0
919.0
916.0
917.0
914.0
911.0
909.0
909.0
911.0
911.0
911.0
910.0
910.0
909.0
908.0
906.0
905.0
904.0
902.0
899.0
900.0
899.0
900.0
905.0
905.0
907.0
905.0
905.0
902.0
901.0
897.0
896.0
899.0
899.0
901.0
902.0
900.0
901.0
900.0
898.0
898.0
898.0
898.0
897.0
899.0
898.0
898.0
898.0
899.0
899.0
899.0
898.0
896.0
894.0
894.0
894.0
894.0
897.0
897.0
899.0
901.0
900.0
900.0
897.0
896.0
896.0
895.0
893.0
894.0
892.0
894.0
895.0
896.0
897.0
896.0
899.0
898.0
898.0
897.0
897.0
897.0
896.0
897.0
896.0
898.0
898.0
899.0
901.0
898.0
898.0
897.0
896.0
896.0
900.0
903.0
906.0
911.0
914.0
915.0
913.0
915.0
915.0
916.0
916.0
918.0
918.0
918.0
913.0
914.0
912.0
909.0
908.0
906.0
904.0
906.0
904.0
904.0
903.0
901.0
900.0
897.0
896.0
897.0
898.0
897.0
902.0
904.0
906.0
910.0
915.0
924.0
936.0
953.0
981.0
1019.0
1071.0
1136.0
1207.0
1271.0
1311.0
1318.0
1286.0
1201.0
1073.0
945.0
817.0
689.0
681.0
721.0
779.0
827.0
858.0
873.0
876.0
874.0
874.0
879.0
883.0
888.0
889.0
885.0
886.0
884.0
882.0
882.0
881.0
884.0
886.0
890.0
891.0
892.0
892.0
891.0
890.0
890.0
892.0
891.0
893.0
895.0
896.0
900.0
900.0
898.0
900.0
899.0
896.0
900.0
900.0
900.0
901.0
904.0
905.0
908.0
909.0
909.0
908.0
908.0
908.0
910.0
909.0
911.0
914.0
917.0
918.0
921.0
919.0
923.0
922.0
922.0
922.0
923.0
923.0
925.0
925.0
927.0
929.0
931.0
935.0
936.0
935.0
933.0
933.0
931.0
931.0
931.0
931.0
935.0
935.0
936.0
935.0
935.0
934.0
931.0
931.0
931.0
934.0
934.0
936.0
940.0
941.0
944.0
947.0
950.0
951.0
952.0
951.0
951.0
951.0
951.0
952.0
950.0
949.0
948.0
945.0
939.0
934.0
929.0
925.0
922.0
921.0
918.0
917.0
912.0
909.0
909.0
906.0
906.0
905.0
901.0
901.0
898.0
897.0
896.0
896.0
899.0
899.0
899.0
900.0
900.0
899.0
898.0
894.0
895.0
895.0
900.0
903.0
903.0
903.0
906.0
906.0
905.0
904.0
906.0
908.0
907.0
909.0
907.0
909.0
912.0
911.0
914.0
916.0
916.0
915.0
919.0
915.0
913.0
912.0
913.0
913.0
915.0
917.0
917.0
920.0
918.0
917.0
915.0
915.0
914.0
913.0
912.0
913.0
915.0
915.0
916.0
915.0
913.0
914.0
911.0
907.0
908.0
907.0
907.0
906.0
906.0
908.0
907.0
907.0
906.0
901.0
900.0
898.0
897.0
898.0
899.0
900.0
898.0
898.0
899.0
898.0
897.0
897.0
896.0
896.0
895.0
891.0
892.0
889.0
895.0
894.0
896.0
898.0
897.0
897.0
895.0
893.0
894.0
894.0
891.0
893.0
895.0
895.0
894.0
897.0
895.0
893.0
892.0
893.0
893.0
889.0
890.0
890.0
892.0
894.0
895.0
894.0
895.0
892.0
891.0
891.0
889.0
889.0
891.0
891.0
891.0
893.0
894.0
895.0
896.0
895.0
895.0
894.0
894.0
893.0
892.0
890.0
891.0
893.0
897.0
898.0
897.0
898.0
894.0
894.0
894.0
892.0
896.0
900.0
903.0
906.0
911.0
914.0
912.0
913.0
911.0
910.0
907.0
913.0
911.0
912.0
910.0
908.0
907.0
907.0
904.0
902.0
902.0
902.0
902.0
903.0
902.0
902.0
900.0
898.0
898.0
898.0
897.0
896.0
897.0
900.0
899.0
902.0
906.0
911.0
920.0
933.0
956.0
991.0
1041.0
1110.0
1190.0
1262.0
1317.0
1334.0
1316.0
1242.0
1117.0
989.0
861.0
733.0
695.0
727.0
782.0
833.0
866.0
879.0
879.0
879.0
876.0
878.0
884.0
888.0
888.0
889.0
887.0
882.0
879.0
877.0
878.0
879.0
880.0
880.0
883.0
883.0
884.0
885.0
884.0
885.0
884.0
885.0
884.0
889.0
890.0
892.0
893.0
896.0
896.0
898.0
895.0
896.0
899.0
901.0
900.0
900.0
902.0
905.0
908.0
910.0
909.0
912.0
910.0
911.0
911.0
911.0
912.0
911.0
914.0
919.0
924.0
927.0
926.0
927.0
926.0
927.0
929.0
929.0
931.0
931.0
933.0
935.0
937.0
938.0
940.0
941.0
941.0
940.0
940.0
942.0
941.0
943.0
947.0
947.0
947.0
951.0
948.0
950.0
950.0
949.0
951.0
953.0
954.0
957.0
960.0
963.0
966.0
970.0
971.0
973.0
971.0
971.0
966.0
963.0
962.0
959.0
953.0
955.0
951.0
950.0
943.0
942.0
936.0
931.0
930.0
926.0
923.0
920.0
916.0
917.0
915.0
911.0
910.0
910.0
906.0
906.0
903.0
905.0
904.0
901.0
900.0
900.0
904.0
904.0
901.0
903.0
903.0
902.0
899.0
898.0
898.0
901.0
903.0
904.0
906.0
908.0
908.0
908.0
906.0
904.0
905.0
906.0
905.0
907.0
909.0
912.0
913.0
912.0
914.0
915.0
914.0
913.0
914.0
912.0
912.0
914.0
915.0
913.0
915.0
918.0
917.0
913.0
914.0
912.0
911.0
910.0
913.0
912.0
913.0
912.0
913.0
912.0
911.0
907.0
904.0
903.0
905.0
904.0
905.0
902.0
903.0
904.0
905.0
905.0
905.0
904.0
903.0
898.0
897.0
895.0
896.0
898.0
897.0
895.0
899.0
900.0
901.0
901.0
899.0
897.0
895.0
892.0
891.0
890.0
893.0
893.0
894.0
894.0
893.0
894.0
891.0
892.0
888.0
888.0
888.0
889.0
889.0
892.0
893.0
894.0
894.0
892.0
890.0
889.0
890.0
888.0
888.0
888.0
891.0
892.0
892.0
892.0
894.0
893.0
889.0
888.0
884.0
884.0
884.0
887.0
888.0
888.0
888.0
890.0
887.0
888.0
889.0
888.0
889.0
887.0
888.0
890.0
891.0
890.0
891.0
892.0
893.0
894.0
892.0
892.0
890.0
890.0
891.0
894.0
897.0
899.0
906.0
908.0
909.0
910.0
908.0
909.0
905.0
906.0
908.0
911.0
913.0
911.0
907.0
907.0
902.0
901.0
900.0
897.0
898.0
898.0
901.0
899.0
902.0
900.0
898.0
899.0
896.0
895.0
895.0
895.0
896.0
897.0
899.0
899.0
903.0
911.0
922.0
938.0
964.0
1000.0
1049.0
1112.0
1182.0
1249.0
1304.0
1327.0
1322.0
1273.0
1180.0
1052.0
924.0
796.0
697.0
694.0
733.0
789.0
835.0
866.0
874.0
873.0
869.0
866.0
870.0
877.0
881.0
883.0
886.0
882.0
880.0
876.0
873.0
875.0
875.0
878.0
881.0
880.0
878.0
879.0
878.0
879.0
880.0
879.0
881.0
885.0
890.0
890.0
892.0
893.0
891.0
895.0
891.0
891.0
892.0
895.0
898.0
901.0
903.0
905.0
906.0
907.0
905.0
904.0
904.0
903.0
904.0
906.0
907.0
911.0
912.0
914.0
914.0
916.0
912.0
920.0
918.0
916.0
918.0
918.0
922.0
925.0
928.0
931.0
933.0
933.0
932.0
932.0
928.0
930.0
931.0
932.0
935.0
938.0
938.0
941.0
943.0
941.0
943.0
940.0
940.0
939.0
938.0
938.0
942.0
943.0
946.0
949.0
950.0
953.0
952.0
952.0
952.0
954.0
954.0
957.0
961.0
963.0
966.0
968.0
964.0
963.0
958.0
956.0
950.0
946.0
944.0
940.0
938.0
936.0
934.0
933.0
929.0
924.0
921.0
915.0
910.0
908.0
906.0
904.0
907.0
907.0
905.0
905.0
904.0
902.0
899.0
898.0
898.0
895.0
897.0
897.0
900.0
900.0
902.0
905.0
904.0
905.0
904.0
905.0
904.0
904.0
906.0
907.0
909.0
911.0
915.0
918.0
917.0
917.0
917.0
917.0
915.0
914.0
915.0
915.0
917.0
918.0
922.0
923.0
921.0
920.0
919.0
917.0
915.0
915.0
912.0
911.0
916.0
918.0
920.0
920.0
916.0
915.0
909.0
909.0
908.0
906.0
905.0
905.0
906.0
908.0
910.0
912.0
908.0
908.0
905.0
902.0
900.0
900.0
896.0
897.0
901.0
902.0
903.0
904.0
903.0
901.0
901.0
898.0
894.0
895.0
894.0
893.0
895.0
898.0
897.0
899.0
898.0
897.0
896.0
896.0
893.0
892.0
891.0
893.0
891.0
895.0
897.0
895.0
896.0
897.0
895.0
894.0
892.0
892.0
890.0
889.0
890.0
889.0
890.0
894.0
894.0
895.0
894.0
895.0
892.0
893.0
893.0
892.0
894.0
895.0
894.0
895.0
895.0
893.0
893.0
893.0
892.0
891.0
892.0
893.0
896.0
897.0
894.0
894.0
893.0
893.0
894.0
895.0
895.0
894.0
893.0
896.0
897.0
897.0
899.0
901.0
899.0
903.0
902.0
906.0
910.0
913.0
913.0
913.0
913.0
911.0
909.0
906.0
902.0
899.0
900.0
903.0
904.0
904.0
904.0
905.0
906.0
906.0
905.0
904.0
902.0
897.0
895.0
893.0
892.0
896.0
899.0
902.0
906.0
914.0
924.0
933.0
947.0
970.0
1005.0
1052.0
1109.0
1173.0
1242.0
1294.0
1317.0
1311.0
1264.0
1172.0
1044.0
916.0
788.0
686.0
684.0
728.0
784.0
831.0
859.0
867.0
870.0
869.0
869.0
871.0
877.0
882.0
886.0
888.0
886.0
884.0
883.0
881.0
881.0
880.0
882.0
884.0
885.0
887.0
888.0
886.0
887.0
889.0
891.0
891.0
894.0
896.0
899.0
897.0
896.0
896.0
896.0
896.0
898.0
899.0
903.0
903.0
904.0
907.0
906.0
903.0
905.0
906.0
905.0
908.0
908.0
911.0
915.0
913.0
914.0
917.0
919.0
919.0
920.0
920.0
917.0
917.0
916.0
920.0
923.0
925.0
929.0
933.0
933.0
932.0
930.0
927.0
929.0
928.0
926.0
927.0
931.0
931.0
934.0
938.0
938.0
937.0
937.0
938.0
938.0
938.0
936.0
935.0
934.0
938.0
939.0
943.0
944.0
947.0
945.0
947.0
949.0
951.0
955.0
957.0
958.0
957.0
957.0
957.0
953.0
954.0
952.0
946.0
943.0
936.0
934.0
930.0
929.0
924.0
923.0
921.0
919.0
916.0
913.0
909.0
909.0
904.0
903.0
903.0
906.0
906.0
907.0
906.0
902.0
903.0
902.0
902.0
903.0
904.0
901.0
903.0
903.0
906.0
905.0
907.0
907.0
907.0
908.0
905.0
903.0
905.0
904.0
907.0
909.0
913.0
917.0
920.0
920.0
918.0
918.0
915.0
916.0
916.0
919.0
921.0
919.0
923.0
924.0
923.0
924.0
926.0
923.0
927.0
924.0
923.0
924.0
923.0
922.0
920.0
923.0
923.0
923.0
923.0
923.0
921.0
920.0
916.0
915.0
917.0
916.0
917.0
917.0
919.0
915.0
916.0
911.0
911.0
911.0
911.0
909.0
909.0
909.0
911.0
911.0
912.0
913.0
915.0
916.0
918.0
921.0
923.0
927.0
928.0
929.0
933.0
936.0
939.0
940.0
945.0
944.0
945.0
941.0
940.0
941.0
938.0
939.0
939.0
934.0
932.0
925.0
916.0
911.0
909.0
906.0
905.0
906.0
903.0
903.0
902.0
901.0
899.0
898.0
896.0
894.0
892.0
889.0
887.0
887.0
887.0
889.0
890.0
893.0
896.0
895.0
895.0
892.0
890.0
888.0
885.0
884.0
885.0
902.0
936.0
994.0
1072.0
1159.0
1243.0
1304.0
1329.0
1308.0
1237.0
1109.0
981.0
853.0
725.0
676.0
706.0
763.0
816.0
851.0
870.0
877.0
874.0
873.0
876.0
880.0
886.0
890.0
890.0
890.0
889.0
888.0
881.0
882.0
881.0
883.0
883.0
888.0
885.0
886.0
890.0
892.0
891.0
888.0
886.0
888.0
886.0
888.0
885.0
890.0
893.0
896.0
898.0
898.0
898.0
897.0
893.0
893.0
894.0
896.0
898.0
898.0
902.0
902.0
906.0
906.0
906.0
906.0
907.0
907.0
909.0
908.0
908.0
910.0
912.0
915.0
918.0
920.0
923.0
924.0
922.0
921.0
922.0
921.0
926.0
928.0
930.0
933.0
936.0
934.0
933.0
932.0
937.0
936.0
937.0
937.0
940.0
944.0
950.0
956.0
960.0
963.0
965.0
966.0
968.0
971.0
970.0
973.0
981.0
984.0
988.0
992.0
994.0
996.0
994.0
992.0
989.0
983.0
976.0
971.0
966.0
961.0
956.0
952.0
949.0
947.0
941.0
934.0
927.0
922.0
917.0
913.0
908.0
904.0
901.0
901.0
897.0
898.0
896.0
894.0
892.0
887.0
885.0
886.0
887.0
887.0
889.0
890.0
894.0
895.0
896.0
897.0
897.0
898.0
901.0
903.0
910.0
917.0
929.0
950.0
976.0
1008.0
1048.0
1096.0
1146.0
1203.0
1252.0
1290.0
1301.0
1279.0
1204.0
1081.0
953.0
825.0
697.0
663.0
701.0
767.0
826.0
866.0
891.0
897.0
894.0
893.0
894.0
890.0
890.0
889.0
888.0
885.0
884.0
880.0
882.0
883.0
885.0
884.0
884.0
883.0
883.0
882.0
880.0
877.0
877.0
876.0
878.0
879.0
882.0
881.0
884.0
883.0
886.0
883.0
885.0
884.0
882.0
883.0
884.0
881.0
885.0
885.0
888.0
889.0
889.0
887.0
888.0
889.0
890.0
892.0
894.0
896.0
896.0
899.0
899.0
898.0
902.0
901.0
899.0
901.0
900.0
902.0
902.0
902.0
905.0
909.0
911.0
911.0
914.0
914.0
914.0
916.0
915.0
917.0
920.0
924.0
929.0
933.0
938.0
942.0
947.0
949.0
954.0
957.0
960.0
965.0
969.0
973.0
974.0
974.0
978.0
975.0
973.0
970.0
966.0
961.0
955.0
951.0
950.0
947.0
946.0
944.0
941.0
940.0
935.0
932.0
930.0
927.0
924.0
923.0
923.0
922.0
925.0
924.0
925.0
926.0
924.0
923.0
922.0
918.0
921.0
920.0
920.0
922.0
922.0
922.0
924.0
926.0
926.0
924.0
922.0
920.0
920.0
917.0
916.0
917.0
917.0
916.0
920.0
918.0
918.0
915.0
915.0
912.0
913.0
913.0
911.0
910.0
910.0
911.0
911.0
910.0
911.0
907.0
906.0
903.0
900.0
904.0
903.0
902.0
903.0
905.0
906.0
905.0
905.0
901.0
897.0
899.0
897.0
898.0
897.0
898.0
898.0
897.0
900.0
898.0
898.0
896.0
895.0
893.0
891.0
892.0
893.0
891.0
892.0
891.0
893.0
894.0
892.0
891.0
893.0
887.0
888.0
886.0
886.0
888.0
890.0
894.0
892.0
891.0
891.0
890.0
889.0
888.0
886.0
887.0
888.0
891.0
892.0
891.0
893.0
893.0
891.0
890.0
888.0
891.0
888.0
888.0
888.0
890.0
890.0
892.0
893.0
893.0
891.0
891.0
885.0
886.0
886.0
886.0
886.0
886.0
890.0
890.0
892.0
892.0
892.0
891.0
890.0
888.0
887.0
884.0
885.0
887.0
887.0
890.0
892.0
893.0
893.0
890.0
889.0
889.0
889.0
888.0
889.0
889.0
891.0
891.0
891.0
891.0
891.0
892.0
890.0
888.0
887.0
886.0
887.0
888.0
891.0
892.0
894.0
893.0
896.0
893.0
890.0
891.0
889.0
890.0
890.0
892.0
892.0
894.0
899.0
899.0
901.0
902.0
902.0
902.0
902.0
902.0
906.0
910.0
912.0
916.0
920.0
924.0
925.0
927.0
926.0
922.0
919.0
917.0
916.0
916.0
917.0
916.0
920.0
920.0
917.0
915.0
910.0
906.0
901.0
898.0
896.0
894.0
897.0
897.0
899.0
900.0
901.0
901.0
899.0
895.0
899.0
903.0
913.0
921.0
939.0
972.0
1019.0
1086.0
1170.0
1254.0
1318.0
1347.0
1334.0
1264.0
1139.0
1011.0
883.0
755.0
701.0
733.0
786.0
836.0
867.0
878.0
881.0
875.0
869.0
871.0
878.0
882.0
886.0
886.0
882.0
881.0
879.0
877.0
874.0
876.0
877.0
878.0
881.0
884.0
885.0
885.0
886.0
885.0
885.0
883.0
884.0
883.0
882.0
887.0
890.0
892.0
895.0
894.0
894.0
893.0
891.0
886.0
887.0
890.0
891.0
893.0
893.0
896.0
897.0
898.0
900.0
899.0
899.0
899.0
898.0
901.0
902.0
903.0
907.0
909.0
912.0
912.0
912.0
913.0
913.0
910.0
909.0
911.0
912.0
913.0
913.0
914.0
915.0
916.0
916.0
915.0
914.0
914.0
912.0
909.0
910.0
909.0
912.0
914.0
916.0
913.0
913.0
912.0
911.0
912.0
911.0
910.0
915.0
915.0
919.0
922.0
926.0
929.0
930.0
934.0
940.0
939.0
943.0
943.0
945.0
948.0
949.0
952.0
953.0
952.0
950.0
947.0
942.0
939.0
936.0
932.0
930.0
928.0
929.0
930.0
929.0
928.0
923.0
924.0
920.0
917.0
917.0
914.0
914.0
913.0
915.0
917.0
918.0
918.0
917.0
915.0
913.0
913.0
915.0
914.0
915.0
918.0
920.0
921.0
927.0
923.0
925.0
926.0
926.0
925.0
926.0
928.0
930.0
930.0
933.0
936.0
939.0
936.0
935.0
937.0
936.0
935.0
934.0
934.0
930.0
934.0
936.0
937.0
937.0
937.0
938.0
934.0
934.0
933.0
931.0
929.0
931.0
928.0
930.0
929.0
927.0
927.0
928.0
924.0
922.0
923.0
921.0
919.0
917.0
917.0
920.0
918.0
919.0
918.0
917.0
914.0
913.0
911.0
909.0
907.0
907.0
907.0
908.0
910.0
913.0
911.0
909.0
908.0
906.0
907.0
905.0
904.0
904.0
904.0
904.0
905.0
905.0
905.0
907.0
904.0
904.0
903.0
903.0
903.0
901.0
902.0
903.0
902.0
905.0
906.0
906.0
905.0
901.0
900.0
899.0
900.0
900.0
901.0
903.0
903.0
905.0
905.0
904.0
904.0
901.0
901.0
901.0
897.0
898.0
899.0
903.0
904.0
905.0
905.0
904.0
903.0
902.0
900.0
902.0
901.0
898.0
898.0
901.0
903.0
903.0
905.0
904.0
902.0
903.0
900.0
899.0
898.0
898.0
900.0
904.0
904.0
905.0
904.0
902.0
903.0
901.0
901.0
900.0
900.0
899.0
901.0
900.0
902.0
902.0
904.0
905.0
906.0
904.0
901.0
900.0
901.0
904.0
909.0
913.0
916.0
922.0
920.0
922.0
920.0
921.0
920.0
919.0
919.0
919.0
915.0
912.0
912.0
911.0
909.0
913.0
913.0
913.0
914.0
912.0
912.0
910.0
911.0
908.0
908.0
910.0
910.0
908.0
910.0
911.0
910.0
911.0
912.0
915.0
920.0
927.0
935.0
950.0
980.0
1021.0
1079.0
1150.0
1229.0
1293.0
1333.0
1339.0
1302.0
1210.0
1082.0
954.0
826.0
718.0
715.0
756.0
815.0
856.0
880.0
887.0
886.0
881.0
881.0
882.0
890.0
893.0
894.0
894.0
891.0
888.0
888.0
885.0
886.0
887.0
889.0
891.0
893.0
892.0
893.0
892.0
891.0
892.0
891.0
892.0
894.0
896.0
899.0
900.0
904.0
905.0
905.0
904.0
901.0
900.0
899.0
903.0
906.0
906.0
908.0
913.0
914.0
914.0
913.0
912.0
912.0
910.0
909.0
913.0
915.0
918.0
921.0
922.0
922.0
923.0
922.0
920.0
921.0
921.0
921.0
919.0
923.0
924.0
928.0
931.0
932.0
932.0
930.0
931.0
928.0
929.0
926.0
928.0
929.0
932.0
932.0
934.0
933.0
933.0
931.0
928.0
924.0
926.0
924.0
924.0
926.0
929.0
928.0
930.0
931.0
931.0
931.0
931.0
