# Simple Text Format
# Sampling Rate (Hz):= 360.00
# Resolution:= 12
# Labels:= ECG
896.0
896.0
893.0
894.0
895.0
895.0
894.0
893.0
892.0
892.0
893.0
894.0
894.0
895.0
896.0
896.0
894.0
896.0
898.0
899.0
899.0
896.0
897.0
898.0
901.0
903.0
906.0
910.0
912.0
915.0
918.0
918.0
915.0
917.0
913.0
908.0
903.0
903.0
901.0
905.0
906.0
908.0
909.0
910.0
910.0
911.0
908.0
902.0
900.0
897.0
895.0
892.0
894.0
898.0
900.0
904.0
908.0
911.0
912.0
914.0
920.0
930.0
946.0
974.0
1015.0
1069.0
1137.0
1212.0
1279.0
1318.0
1321.0
1274.0
1156.0
1028.0
900.0
772.0
660.0
691.0
752.0
814.0
859.0
884.0
887.0
884.0
881.0
875.0
877.0
884.0
887.0
890.0
887.0
889.0
886.0
885.0
881.0
882.0
882.0
884.0
887.0
888.0
890.0
890.0
893.0
896.0
893.0
896.0
894.0
894.0
892.0
893.0
892.0
895.0
895.0
899.0
900.0
904.0
904.0
906.0
905.0
905.0
906.0
904.0
906.0
905.0
906.0
907.0
911.0
912.0
913.0
913.0
917.0
917.0
915.0
916.0
918.0
917.0
915.0
920.0
922.0
924.0
925.0
925.0
927.0
925.0
927.0
929.0
931.0
929.0
931.0
933.0
933.0
934.0
933.0
933.0
933.0
932.0
932.0
928.0
929.0
932.0
931.0
933.0
935.0
937.0
938.0
937.0
937.0
939.0
939.0
941.0
941.0
944.0
946.0
950.0
953.0
953.0
956.0
955.0
953.0
949.0
943.0
941.0
936.0
932.0
931.0
927.0
925.0
927.0
924.0
920.0
918.0
913.0
912.0
911.0
909.0
908.0
907.0
906.0
907.0
905.0
904.0
904.0
905.0
905.0
903.0
901.0
901.0
900.0
902.0
904.0
903.0
909.0
907.0
910.0
908.0
907.0
907.0
904.0
908.0
911.0
911.0
913.0
916.0
918.0
920.0
922.0
921.0
920.0
920.0
920.0
920.0
921.0
923.0
923.0
924.0
925.0
925.0
925.0
924.0
921.0
921.0
920.0
919.0
918.0
920.0
923.0
926.0
927.0
925.0
924.0
922.0
918.0
914.0
912.0
911.0
908.0
908.0
908.0
909.0
911.0
911.0
913.0
911.0
911.0
909.0
903.0
902.0
904.0
903.0
903.0
902.0
905.0
906.0
905.0
903.0
901.0
900.0
898.0
898.0
900.0
900.0
902.0
900.0
903.0
902.0
900.0
896.0
893.0
894.0
894.0
895.0
895.0
896.0
895.0
894.0
894.0
895.0
896.0
897.0
895.0
895.0
893.0
891.0
890.0
892.0
894.0
897.0
899.0
899.0
898.0
896.0
894.0
894.0
895.0
892.0
893.0
896.0
896.0
895.0
896.0
896.0
899.0
897.0
897.0
895.0
893.0
893.0
892.0
890.0
894.0
896.0
900.0
900.0
900.0
899.0
897.0
895.0
895.0
894.0
893.0
893.0
897.0
899.0
899.0
901.0
900.0
900.0
901.0
901.0
905.0
908.0
910.0
911.0
915.0
917.0
915.0
917.0
914.0
912.0
908.0
906.0
902.0
902.0
904.0
902.0
906.0
909.0
910.0
909.0
906.0
901.0
897.0
894.0
892.0
892.0
895.0
899.0
900.0
905.0
909.0
914.0
919.0
927.0
936.0
953.0
983.0
1022.0
1085.0
1154.0
1231.0
1291.0
1323.0
1318.0
1256.0
1133.0
1005.0
877.0
749.0
665.0
695.0
757.0
817.0
858.0
876.0
884.0
882.0
876.0
879.0
880.0
885.0
885.0
887.0
889.0
887.0
883.0
882.0
887.0
887.0
887.0
888.0
889.0
885.0
882.0
884.0
889.0
891.0
891.0
891.0
893.0
895.0
897.0
893.0
894.0
895.0
893.0
894.0
895.0
897.0
899.0
898.0
899.0
901.0
901.0
902.0
903.0
902.0
901.0
905.0
905.0
908.0
910.0
912.0
910.0
912.0
914.0
914.0
912.0
913.0
913.0
913.0
917.0
917.0
920.0
922.0
922.0
922.0
924.0
924.0
920.0
920.0
919.0
920.0
919.0
922.0
924.0
926.0
923.0
921.0
919.0
919.0
919.0
918.0
918.0
919.0
918.0
919.0
921.0
924.0
923.0
925.0
926.0
926.0
927.0
930.0
932.0
935.0
937.0
942.0
946.0
948.0
947.0
946.0
945.0
939.0
936.0
932.0
929.0
929.0
926.0
925.0
921.0
920.0
920.0
915.0
914.0
913.0
908.0
909.0
908.0
913.0
914.0
920.0
925.0
930.0
929.0
932.0
934.0
933.0
935.0
936.0
935.0
938.0
942.0
943.0
943.0
942.0
943.0
941.0
932.0
930.0
925.0
924.0
920.0
921.0
920.0
922.0
919.0
918.0
920.0
918.0
917.0
915.0
914.0
910.0
912.0
913.0
914.0
915.0
914.0
916.0
916.0
915.0
912.0
909.0
908.0
907.0
908.0
910.0
913.0
914.0
911.0
914.0
916.0
916.0
915.0
913.0
908.0
903.0
903.0
922.0
964.0
1037.0
1131.0
1224.0
1291.0
1306.0
1259.0
1139.0
1011.0
883.0
755.0
673.0
703.0
761.0
817.0
856.0
876.0
883.0
885.0
884.0
883.0
888.0
892.0
896.0
893.0
893.0
891.0
891.0
890.0
889.0
889.0
888.0
887.0
885.0
883.0
880.0
881.0
885.0
887.0
889.0
889.0
890.0
889.0
889.0
887.0
886.0
884.0
888.0
888.0
891.0
892.0
893.0
893.0
892.0
892.0
890.0
893.0
895.0
894.0
894.0
896.0
899.0
903.0
902.0
907.0
905.0
906.0
906.0
901.0
903.0
902.0
903.0
907.0
911.0
916.0
921.0
926.0
931.0
939.0
941.0
943.0
946.0
947.0
945.0
949.0
951.0
952.0
955.0
961.0
961.0
960.0
958.0
955.0
948.0
941.0
935.0
935.0
934.0
935.0
937.0
936.0
936.0
937.0
936.0
937.0
937.0
936.0
936.0
937.0
936.0
933.0
932.0
931.0
928.0
925.0
919.0
916.0
911.0
907.0
903.0
901.0
901.0
901.0
904.0
903.0
903.0
899.0
897.0
895.0
892.0
891.0
891.0
895.0
897.0
899.0
901.0
904.0
907.0
910.0
915.0
923.0
940.0
965.0
999.0
1039.0
1085.0
1128.0
1176.0
1227.0
1274.0
1305.0
1297.0
1231.0
1103.0
975.0
847.0
719.0
696.0
735.0
796.0
846.0
879.0
895.0
895.0
893.0
887.0
882.0
880.0
881.0
881.0
882.0
880.0
880.0
880.0
878.0
877.0
874.0
873.0
871.0
872.0
871.0
872.0
871.0
873.0
872.0
874.0
874.0
872.0
871.0
870.0
868.0
870.0
873.0
871.0
871.0
874.0
873.0
875.0
875.0
873.0
873.0
870.0
871.0
871.0
873.0
874.0
877.0
880.0
883.0
882.0
882.0
881.0
880.0
879.0
879.0
882.0
884.0
888.0
887.0
891.0
893.0
893.0
893.0
891.0
894.0
896.0
896.0
896.0
897.0
900.0
902.0
906.0
907.0
908.0
911.0
912.0
915.0
917.0
921.0
924.0
928.0
933.0
943.0
949.0
953.0
955.0
960.0
963.0
962.0
963.0
963.0
963.0
964.0
962.0
963.0
959.0
957.0
954.0
953.0
948.0
945.0
942.0
938.0
933.0
931.0
931.0
929.0
928.0
928.0
925.0
925.0
921.0
919.0
917.0
918.0
917.0
915.0
915.0
921.0
921.0
921.0
919.0
920.0
918.0
918.0
916.0
915.0
917.0
916.0
917.0
918.0
920.0
921.0
918.0
920.0
918.0
915.0
912.0
911.0
911.0
911.0
908.0
910.0
913.0
911.0
911.0
909.0
906.0
904.0
904.0
901.0
901.0
903.0
902.0
900.0
902.0
901.0
901.0
901.0
895.0
896.0
893.0
894.0
891.0
890.0
893.0
891.0
895.0
895.0
892.0
891.0
888.0
887.0
886.0
886.0
885.0
880.0
883.0
886.0
885.0
884.0
887.0
888.0
886.0
882.0
880.0
881.0
880.0
883.0
884.0
882.0
884.0
884.0
881.0
882.0
883.0
881.0
879.0
882.0
880.0
881.0
881.0
884.0
883.0
885.0
884.0
882.0
882.0
883.0
880.0
877.0
878.0
877.0
878.0
881.0
883.0
884.0
884.0
881.0
879.0
877.0
878.0
876.0
877.0
877.0
877.0
878.0
878.0
880.0
880.0
881.0
881.0
877.0
875.0
873.0
877.0
878.0
878.0
881.0
881.0
882.0
880.0
881.0
878.0
877.0
877.0
877.0
878.0
880.0
879.0
879.0
881.0
880.0
881.0
882.0
879.0
879.0
877.0
875.0
875.0
877.0
877.0
879.0
880.0
881.0
881.0
881.0
877.0
878.0
875.0
876.0
876.0
878.0
878.0
879.0
879.0
881.0
881.0
881.0
881.0
881.0
877.0
879.0
878.0
878.0
880.0
883.0
883.0
884.0
883.0
881.0
880.0
879.0
880.0
878.0
878.0
877.0
883.0
881.0
883.0
884.0
883.0
884.0
879.0
882.0
879.0
878.0
877.0
878.0
880.0
882.0
883.0
888.0
885.0
886.0
887.0
889.0
890.0
891.0
896.0
897.0
896.0
895.0
896.0
895.0
894.0
890.0
892.0
892.0
891.0
891.0
891.0
891.0
891.0
893.0
892.0
892.0
888.0
886.0
883.0
881.0
881.0
879.0
881.0
888.0
890.0
893.0
897.0
901.0
904.0
915.0
939.0
979.0
1037.0
1117.0
1204.0
1279.0
1324.0
1331.0
1286.0
1182.0
1054.0
926.0
798.0
684.0
692.0
739.0
797.0
840.0
864.0
871.0
870.0
866.0
865.0
864.0
865.0
863.0
866.0
861.0
861.0
861.0
862.0
864.0
864.0
866.0
866.0
867.0
866.0
866.0
863.0
863.0
864.0
865.0
867.0
870.0
872.0
873.0
872.0
874.0
873.0
870.0
873.0
873.0
872.0
876.0
876.0
877.0
879.0
880.0
881.0
880.0
880.0
880.0
880.0
878.0
879.0
880.0
879.0
880.0
881.0
883.0
884.0
881.0
884.0
883.0
884.0
883.0
884.0
885.0
887.0
890.0
891.0
892.0
888.0
890.0
889.0
886.0
885.0
884.0
885.0
885.0
884.0
884.0
885.0
885.0
884.0
884.0
881.0
878.0
877.0
877.0
876.0
875.0
875.0
874.0
875.0
875.0
875.0
875.0
875.0
875.0
876.0
879.0
881.0
884.0
889.0
892.0
894.0
897.0
901.0
905.0
909.0
910.0
914.0
916.0
917.0
921.0
921.0
921.0
921.0
923.0
924.0
924.0
920.0
918.0
915.0
912.0
912.0
911.0
911.0
911.0
912.0
912.0
912.0
906.0
907.0
907.0
902.0
905.0
905.0
904.0
908.0
907.0
909.0
912.0
912.0
914.0
913.0
913.0
912.0
912.0
913.0
917.0
917.0
920.0
923.0
924.0
925.0
924.0
923.0
921.0
920.0
920.0
922.0
923.0
924.0
928.0
926.0
927.0
926.0
927.0
927.0
925.0
922.0
922.0
919.0
918.0
917.0
919.0
919.0
919.0
919.0
917.0
915.0
913.0
910.0
905.0
906.0
906.0
907.0
907.0
909.0
907.0
906.0
905.0
902.0
901.0
898.0
897.0
898.0
897.0
899.0
897.0
898.0
898.0
898.0
896.0
896.0
894.0
889.0
887.0
889.0
890.0
892.0
891.0
893.0
893.0
893.0
894.0
890.0
888.0
888.0
886.0
884.0
885.0
886.0
886.0
888.0
890.0
891.0
888.0
886.0
885.0
883.0
882.0
881.0
882.0
883.0
886.0
890.0
889.0
888.0
888.0
885.0
882.0
885.0
884.0
882.0
884.0
887.0
883.0
886.0
889.0
889.0
888.0
885.0
886.0
883.0
881.0
882.0
885.0
884.0
884.0
886.0
887.0
888.0
888.0
888.0
886.0
885.0
885.0
883.0
884.0
884.0
884.0
887.0
888.0
889.0
892.0
893.0
896.0
897.0
899.0
901.0
902.0
902.0
901.0
900.0
898.0
895.0
893.0
892.0
892.0
893.0
892.0
895.0
894.0
893.0
890.0
893.0
893.0
890.0
886.0
886.0
887.0
888.0
888.0
893.0
897.0
903.0
909.0
922.0
940.0
975.0
1026.0
1097.0
1175.0
1252.0
1308.0
1334.0
1321.0
1257.0
1135.0
1007.0
879.0
751.0
687.0
712.0
765.0
820.0
854.0
871.0
873.0
871.0
868.0
870.0
870.0
875.0
876.0
877.0
876.0
873.0
871.0
870.0
870.0
870.0
871.0
871.0
873.0
875.0
875.0
872.0
875.0
875.0
874.0
874.0
876.0
880.0
882.0
885.0
886.0
885.0
887.0
885.0
884.0
883.0
886.0
886.0
886.0
890.0
890.0
895.0
895.0
897.0
899.0
898.0
898.0
894.0
895.0
895.0
896.0
896.0
899.0
900.0
903.0
903.0
903.0
903.0
903.0
904.0
904.0
907.0
905.0
909.0
909.0
913.0
911.0
911.0
911.0
909.0
909.0
906.0
905.0
906.0
903.0
903.0
906.0
907.0
909.0
906.0
907.0
906.0
904.0
900.0
898.0
898.0
897.0
899.0
902.0
903.0
903.0
907.0
907.0
910.0
913.0
916.0
916.0
922.0
924.0
928.0
933.0
934.0
936.0
935.0
936.0
932.0
927.0
927.0
922.0
922.0
919.0
920.0
918.0
915.0
917.0
914.0
911.0
906.0
903.0
900.0
899.0
895.0
896.0
897.0
897.0
899.0
899.0
900.0
900.0
902.0
901.0
900.0
901.0
900.0
900.0
900.0
905.0
906.0
906.0
909.0
909.0
910.0
910.0
909.0
909.0
908.0
912.0
913.0
914.0
917.0
917.0
918.0
915.0
914.0
916.0
911.0
913.0
913.0
915.0
916.0
917.0
918.0
916.0
916.0
916.0
914.0
913.0
911.0
911.0
908.0
905.0
905.0
907.0
909.0
907.0
909.0
909.0
907.0
904.0
899.0
898.0
896.0
896.0
899.0
899.0
902.0
902.0
901.0
900.0
898.0
899.0
896.0
895.0
894.0
892.0
895.0
893.0
898.0
898.0
899.0
900.0
897.0
895.0
893.0
891.0
890.0
890.0
893.0
896.0
897.0
898.0
898.0
898.0
896.0
894.0
893.0
892.0
892.0
890.0
890.0
892.0
893.0
895.0
896.0
896.0
894.0
894.0
895.0
892.0
893.0
892.0
891.0
891.0
893.0
895.0
897.0
898.0
897.0
896.0
895.0
893.0
893.0
891.0
892.0
894.0
896.0
896.0
896.0
895.0
896.0
897.0
894.0
892.0
894.0
890.0
892.0
892.0
894.0
897.0
896.0
898.0
894.0
896.0
898.0
894.0
896.0
896.0
898.0
898.0
900.0
900.0
901.0
902.0
899.0
900.0
896.0
897.0
898.0
903.0
908.0
911.0
916.0
919.0
921.0
921.0
914.0
917.0
916.0
913.0
910.0
907.0
906.0
907.0
909.0
913.0
913.0
911.0
913.0
912.0
910.0
909.0
906.0
903.0
902.0
899.0
901.0
903.0
904.0
907.0
907.0
907.0
910.0
912.0
916.0
925.0
936.0
948.0
973.0
1016.0
1065.0
1132.0
1208.0
1278.0
1326.0
1345.0
1328.0
1261.0
1148.0
1020.0
892.0
764.0
683.0
699.0
753.0
810.0
851.0
872.0
877.0
874.0
871.0
871.0
877.0
885.0
895.0
897.0
895.0
891.0
889.0
885.0
887.0
885.0
889.0
893.0
893.0
893.0
893.0
894.0
891.0
893.0
893.0
892.0
894.0
896.0
899.0
899.0
903.0
905.0
908.0
909.0
907.0
906.0
906.0
905.0
906.0
906.0
909.0
912.0
914.0
918.0
920.0
921.0
920.0
920.0
919.0
917.0
916.0
916.0
918.0
920.0
921.0
923.0
924.0
927.0
924.0
927.0
925.0
924.0
926.0
927.0
927.0
930.0
931.0
933.0
935.0
935.0
936.0
936.0
934.0
935.0
933.0
933.0
934.0
936.0
937.0
937.0
935.0
935.0
935.0
934.0
932.0
932.0
931.0
930.0
930.0
931.0
932.0
931.0
933.0
932.0
932.0
934.0
935.0
938.0
941.0
942.0
947.0
951.0
954.0
956.0
959.0
958.0
956.0
955.0
951.0
948.0
945.0
943.0
942.0
941.0
940.0
939.0
936.0
934.0
929.0
927.0
923.0
921.0
920.0
917.0
914.0
918.0
918.0
918.0
918.0
915.0
914.0
915.0
911.0
912.0
914.0
913.0
915.0
914.0
917.0
919.0
921.0
923.0
922.0
920.0
922.0
923.0
922.0
924.0
925.0
927.0
930.0
934.0
936.0
937.0
937.0
936.0
936.0
935.0
934.0
933.0
934.0
935.0
937.0
940.0
941.0
940.0
936.0
937.0
935.0
933.0
930.0
930.0
932.0
931.0
929.0
930.0
932.0
931.0
931.0
931.0
927.0
928.0
925.0
924.0
923.0
924.0
924.0
923.0
923.0
921.0
916.0
917.0
915.0
914.0
915.0
913.0
913.0
913.0
916.0
916.0
916.0
913.0
912.0
912.0
909.0
905.0
909.0
908.0
909.0
908.0
911.0
912.0
912.0
911.0
912.0
910.0
909.0
906.0
907.0
907.0
907.0
910.0
909.0
907.0
905.0
906.0
907.0
908.0
909.0
909.0
907.0
906.0
911.0
910.0
913.0
916.0
920.0
923.0
929.0
931.0
935.0
934.0
934.0
937.0
938.0
944.0
948.0
951.0
951.0
950.0
948.0
946.0
942.0
939.0
935.0
932.0
931.0
925.0
923.0
920.0
919.0
920.0
919.0
917.0
914.0
909.0
905.0
902.0
903.0
903.0
904.0
903.0
904.0
900.0
901.0
900.0
899.0
897.0
900.0
901.0
903.0
904.0
902.0
905.0
905.0
904.0
900.0
896.0
900.0
921.0
964.0
1029.0
1114.0
1206.0
1289.0
1342.0
1357.0
1325.0
1244.0
1116.0
988.0
860.0
732.0
677.0
716.0
775.0
831.0
865.0
885.0
884.0
884.0
882.0
882.0
888.0
893.0
897.0
900.0
899.0
898.0
898.0
899.0
896.0
897.0
896.0
895.0
896.0
897.0
897.0
899.0
901.0
904.0
906.0
905.0
906.0
904.0
903.0
899.0
897.0
898.0
897.0
902.0
902.0
906.0
908.0
909.0
907.0
907.0
905.0
906.0
906.0
908.0
907.0
912.0
913.0
916.0
916.0
916.0
916.0
919.0
918.0
916.0
920.0
919.0
922.0
923.0
925.0
928.0
929.0
928.0
930.0
930.0
929.0
928.0
928.0
929.0
930.0
930.0
930.0
933.0
934.0
934.0
934.0
932.0
931.0
928.0
928.0
925.0
924.0
926.0
925.0
927.0
928.0
927.0
930.0
929.0
929.0
931.0
931.0
934.0
935.0
941.0
946.0
951.0
956.0
957.0
957.0
956.0
953.0
950.0
948.0
944.0
942.0
939.0
941.0
939.0
940.0
938.0
935.0
933.0
927.0
924.0
920.0
918.0
916.0
915.0
916.0
914.0
916.0
916.0
916.0
913.0
912.0
910.0
911.0
909.0
910.0
909.0
910.0
912.0
913.0
916.0
915.0
918.0
915.0
915.0
915.0
915.0
918.0
921.0
923.0
926.0
927.0
930.0
928.0
928.0
927.0
926.0
928.0
929.0
930.0
933.0
933.0
932.0
937.0
937.0
936.0
937.0
935.0
933.0
932.0
932.0
930.0
931.0
932.0
932.0
934.0
933.0
933.0
933.0
928.0
927.0
924.0
925.0
920.0
922.0
923.0
923.0
924.0
924.0
923.0
921.0
918.0
915.0
916.0
917.0
916.0
913.0
916.0
915.0
916.0
917.0
913.0
911.0
908.0
908.0
908.0
906.0
909.0
909.0
911.0
911.0
916.0
915.0
912.0
911.0
909.0
908.0
906.0
904.0
906.0
907.0
907.0
908.0
910.0
911.0
910.0
908.0
909.0
905.0
903.0
904.0
907.0
907.0
909.0
911.0
911.0
910.0
909.0
908.0
907.0
907.0
907.0
908.0
908.0
910.0
909.0
909.0
908.0
909.0
909.0
908.0
907.0
905.0
902.0
903.0
903.0
905.0
907.0
908.0
909.0
909.0
909.0
909.0
908.0
906.0
905.0
902.0
905.0
903.0
905.0
904.0
906.0
908.0
907.0
909.0
908.0
907.0
906.0
906.0
906.0
904.0
905.0
906.0
911.0
911.0
910.0
909.0
907.0
908.0
909.0
913.0
917.0
920.0
925.0
926.0
929.0
927.0
927.0
923.0
921.0
917.0
915.0
912.0
913.0
914.0
920.0
921.0
921.0
921.0
923.0
921.0
917.0
913.0
911.0
909.0
906.0
907.0
909.0
913.0
914.0
915.0
917.0
918.0
919.0
922.0
926.0
933.0
948.0
978.0
1026.0
1081.0
1152.0
1228.0
1294.0
1341.0
1353.0
1333.0
1272.0
1159.0
1031.0
903.0
775.0
709.0
735.0
787.0
841.0
876.0
895.0
901.0
896.0
892.0
891.0
896.0
899.0
899.0
901.0
899.0
900.0
897.0
896.0
896.0
894.0
895.0
895.0
897.0
899.0
897.0
901.0
901.0
902.0
902.0
903.0
905.0
905.0
903.0
905.0
905.0
905.0
907.0
912.0
911.0
909.0
912.0
913.0
913.0
913.0
915.0
915.0
917.0
919.0
920.0
921.0
922.0
923.0
924.0
923.0
922.0
923.0
922.0
922.0
923.0
928.0
932.0
934.0
936.0
937.0
936.0
938.0
936.0
935.0
935.0
935.0
937.0
940.0
943.0
945.0
945.0
945.0
946.0
945.0
947.0
943.0
944.0
946.0
950.0
953.0
954.0
957.0
957.0
959.0
960.0
959.0
956.0
958.0
960.0
964.0
968.0
973.0
976.0
983.0
981.0
984.0
984.0
985.0
983.0
978.0
977.0
974.0
971.0
968.0
967.0
966.0
962.0
961.0
957.0
949.0
945.0
940.0
937.0
934.0
933.0
931.0
930.0
928.0
926.0
922.0
920.0
918.0
916.0
914.0
914.0
915.0
915.0
914.0
915.0
916.0
916.0
917.0
918.0
915.0
914.0
915.0
914.0
913.0
915.0
917.0
920.0
927.0
928.0
928.0
928.0
927.0
927.0
926.0
926.0
929.0
929.0
931.0
929.0
932.0
933.0
934.0
933.0
935.0
932.0
931.0
930.0
930.0
930.0
929.0
932.0
930.0
930.0
930.0
926.0
925.0
925.0
923.0
920.0
922.0
920.0
921.0
923.0
922.0
921.0
921.0
919.0
916.0
917.0
913.0
912.0
912.0
912.0
912.0
914.0
915.0
917.0
915.0
908.0
908.0
907.0
903.0
902.0
904.0
906.0
908.0
910.0
910.0
912.0
911.0
908.0
909.0
908.0
906.0
906.0
908.0
907.0
907.0
908.0
907.0
909.0
908.0
908.0
905.0
907.0
904.0
903.0
901.0
901.0
903.0
901.0
907.0
906.0
907.0
906.0
905.0
902.0
900.0
899.0
897.0
900.0
902.0
902.0
904.0
903.0
905.0
902.0
902.0
901.0
901.0
899.0
901.0
899.0
903.0
900.0
904.0
905.0
903.0
904.0
902.0
901.0
901.0
901.0
900.0
901.0
902.0
904.0
906.0
907.0
907.0
904.0
905.0
902.0
899.0
898.0
901.0
902.0
903.0
906.0
908.0
909.0
909.0
910.0
913.0
915.0
916.0
918.0
919.0
919.0
919.0
920.0
919.0
917.0
911.0
909.0
908.0
907.0
906.0
908.0
907.0
911.0
911.0
910.0
908.0
907.0
904.0
902.0
901.0
902.0
903.0
906.0
910.0
911.0
915.0
924.0
935.0
960.0
1001.0
1062.0
1140.0
1228.0
1302.0
1346.0
1347.0
1296.0
1187.0
1059.0
931.0
803.0
700.0
719.0
772.0
824.0
862.0
884.0
888.0
888.0
884.0
884.0
885.0
890.0
890.0
892.0
890.0
889.0
883.0
883.0
882.0
884.0
887.0
888.0
890.0
890.0
889.0
887.0
885.0
887.0
886.0
889.0
889.0
894.0
895.0
898.0
899.0
900.0
901.0
901.0
900.0
900.0
900.0
903.0
903.0
905.0
905.0
908.0
911.0
911.0
914.0
915.0
913.0
913.0
914.0
910.0
915.0
916.0
916.0
916.0
921.0
922.0
922.0
924.0
923.0
927.0
925.0
924.0
926.0
929.0
932.0
933.0
934.0
937.0
938.0
939.0
936.0
937.0
936.0
935.0
937.0
938.0
941.0
943.0
947.0
948.0
947.0
945.0
944.0
943.0
944.0
944.0
948.0
949.0
955.0
952.0
957.0
962.0
965.0
965.0
966.0
969.0
970.0
970.0
972.0
974.0
974.0
974.0
974.0
973.0
964.0
963.0
956.0
952.0
946.0
942.0
938.0
935.0
934.0
928.0
925.0
922.0
921.0
918.0
914.0
911.0
910.0
908.0
906.0
907.0
906.0
905.0
906.0
909.0
910.0
911.0
909.0
906.0
904.0
906.0
903.0
904.0
906.0
907.0
913.0
912.0
912.0
913.0
912.0
914.0
913.0
914.0
917.0
915.0
915.0
917.0
918.0
921.0
919.0
920.0
920.0
921.0
919.0
915.0
917.0
918.0
919.0
921.0
924.0
925.0
924.0
925.0
919.0
921.0
917.0
918.0
918.0
919.0
917.0
917.0
916.0
916.0
916.0
912.0
915.0
913.0
910.0
910.0
910.0
908.0
909.0
910.0
911.0
910.0
910.0
909.0
906.0
906.0
904.0
903.0
901.0
901.0
904.0
903.0
908.0
907.0
907.0
906.0
901.0
903.0
901.0
901.0
900.0
900.0
902.0
902.0
904.0
905.0
903.0
906.0
906.0
904.0
901.0
900.0
899.0
898.0
901.0
903.0
903.0
902.0
902.0
899.0
899.0
896.0
898.0
896.0
898.0
898.0
898.0
904.0
902.0
901.0
902.0
901.0
902.0
899.0
896.0
892.0
896.0
898.0
901.0
901.0
901.0
901.0
903.0
902.0
901.0
900.0
897.0
897.0
895.0
897.0
900.0
902.0
906.0
904.0
904.0
903.0
902.0
900.0
900.0
901.0
900.0
898.0
901.0
903.0
903.0
907.0
907.0
907.0
911.0
913.0
913.0
913.0
915.0
915.0
915.0
916.0
918.0
917.0
913.0
911.0
908.0
906.0
906.0
906.0
908.0
909.0
910.0
914.0
912.0
911.0
908.0
903.0
900.0
901.0
900.0
901.0
904.0
907.0
912.0
918.0
929.0
940.0
956.0
986.0
1028.0
1082.0
1151.0
1227.0
1293.0
1339.0
1355.0
1336.0
1279.0
1170.0
1042.0
914.0
786.0
682.0
698.0
753.0
811.0
853.0
881.0
887.0
887.0
884.0
886.0
885.0
887.0
890.0
886.0
886.0
887.0
886.0
887.0
889.0
894.0
894.0
897.0
897.0
894.0
894.0
895.0
894.0
895.0
897.0
901.0
902.0
903.0
907.0
905.0
908.0
908.0
908.0
906.0
905.0
907.0
909.0
910.0
915.0
916.0
915.0
915.0
918.0
915.0
915.0
915.0
917.0
917.0
920.0
922.0
924.0
925.0
930.0
928.0
929.0
930.0
929.0
929.0
928.0
928.0
927.0
931.0
935.0
936.0
939.0
937.0
940.0
942.0
938.0
937.0
938.0
937.0
940.0
941.0
941.0
948.0
948.0
946.0
947.0
947.0
948.0
947.0
945.0
947.0
945.0
947.0
948.0
952.0
953.0
953.0
956.0
957.0
960.0
961.0
962.0
960.0
963.0
967.0
971.0
973.0
973.0
973.0
969.0
964.0
963.0
958.0
952.0
952.0
947.0
946.0
943.0
939.0
938.0
933.0
928.0
927.0
925.0
923.0
920.0
919.0
920.0
925.0
927.0
930.0
933.0
934.0
936.0
937.0
939.0
935.0
934.0
937.0
941.0
945.0
948.0
951.0
953.0
952.0
952.0
949.0
945.0
943.0
942.0
941.0
936.0
937.0
937.0
935.0
934.0
934.0
931.0
929.0
924.0
924.0
923.0
921.0
921.0
922.0
921.0
919.0
921.0
920.0
920.0
918.0
918.0
917.0
912.0
912.0
912.0
913.0
916.0
920.0
921.0
921.0
921.0
918.0
916.0
913.0
914.0
914.0
912.0
910.0
912.0
920.0
948.0
996.0
1070.0
1159.0
1244.0
1308.0
1336.0
1315.0
1236.0
1108.0
980.0
852.0
724.0
666.0
706.0
772.0
829.0
867.0
884.0
889.0
889.0
889.0
889.0
894.0
895.0
893.0
893.0
892.0
888.0
889.0
884.0
885.0
885.0
886.0
888.0
890.0
891.0
890.0
891.0
892.0
892.0
891.0
890.0
889.0
892.0
893.0
895.0
898.0
898.0
897.0
900.0
900.0
899.0
900.0
901.0
900.0
903.0
905.0
906.0
911.0
913.0
913.0
917.0
915.0
916.0
916.0
916.0
918.0
919.0
923.0
927.0
930.0
930.0
932.0
930.0
928.0
928.0
930.0
931.0
932.0
937.0
940.0
942.0
943.0
946.0
947.0
948.0
946.0
944.0
944.0
943.0
945.0
947.0
949.0
952.0
954.0
957.0
960.0
960.0
960.0
963.0
962.0
963.0
962.0
963.0
961.0
964.0
960.0
957.0
950.0
947.0
942.0
938.0
931.0
926.0
923.0
922.0
917.0
917.0
915.0
914.0
913.0
910.0
908.0
905.0
904.0
902.0
899.0
901.0
902.0
902.0
902.0
906.0
905.0
907.0
905.0
908.0
908.0
909.0
909.0
907.0
908.0
907.0
909.0
909.0
911.0
913.0
912.0
914.0
911.0
911.0
911.0
913.0
920.0
923.0
930.0
936.0
939.0
941.0
941.0
940.0
940.0
943.0
946.0
949.0
950.0
953.0
953.0
952.0
950.0
948.0
944.0
938.0
932.0
926.0
919.0
913.0
908.0
908.0
912.0
912.0
909.0
904.0
899.0
897.0
891.0
888.0
886.0
888.0
888.0
886.0
886.0
885.0
884.0
883.0
882.0
881.0
882.0
881.0
881.0
879.0
884.0
885.0
887.0
888.0
884.0
880.0
875.0
878.0
896.0
940.0
1006.0
1095.0
1192.0
1274.0
1326.0
1334.0
1297.0
1198.0
1070.0
942.0
814.0
686.0
675.0
721.0
778.0
824.0
853.0
863.0
863.0
861.0
862.0
863.0
868.0
875.0
879.0
878.0
880.0
876.0
873.0
873.0
874.0
873.0
873.0
872.0
871.0
872.0
872.0
874.0
876.0
877.0
880.0
881.0
882.0
883.0
882.0
881.0
882.0
880.0
879.0
879.0
882.0
880.0
883.0
886.0
887.0
889.0
888.0
887.0
888.0
883.0
885.0
888.0
891.0
894.0
895.0
898.0
898.0
898.0
899.0
900.0
899.0
899.0
899.0
900.0
905.0
905.0
907.0
910.0
912.0
911.0
910.0
910.0
906.0
909.0
911.0
911.0
912.0
915.0
918.0
916.0
917.0
917.0
912.0
912.0
911.0
913.0
912.0
915.0
916.0
920.0
924.0
928.0
930.0
933.0
935.0
938.0
940.0
941.0
942.0
943.0
942.0
941.0
941.0
940.0
935.0
933.0
927.0
920.0
917.0
913.0
910.0
909.0
907.0
905.0
905.0
901.0
898.0
894.0
893.0
890.0
888.0
888.0
885.0
885.0
887.0
886.0
888.0
891.0
889.0
889.0
