# Simple Text Format
# Sampling Rate (Hz):= 360.00
# Resolution:= 12
# Labels:= ECG
886.0
886.0
884.0
883.0
883.0
886.0
887.0
888.0
889.0
889.0
891.0
891.0
892.0
891.0
890.0
891.0
891.0
892.0
894.0
895.0
898.0
899.0
898.0
900.0
897.0
899.0
896.0
896.0
898.0
899.0
899.0
900.0
901.0
899.0
897.0
898.0
899.0
897.0
896.0
894.0
893.0
894.0
895.0
893.0
896.0
897.0
894.0
895.0
894.0
892.0
889.0
887.0
888.0
887.0
889.0
887.0
890.0
890.0
888.0
887.0
888.0
882.0
882.0
884.0
880.0
880.0
881.0
883.0
883.0
885.0
884.0
882.0
884.0
881.0
878.0
878.0
877.0
877.0
877.0
879.0
883.0
883.0
882.0
883.0
881.0
880.0
878.0
878.0
879.0
878.0
880.0
882.0
881.0
883.0
882.0
883.0
881.0
880.0
878.0
877.0
876.0
876.0
878.0
879.0
879.0
883.0
884.0
883.0
880.0
878.0
878.0
880.0
881.0
881.0
882.0
882.0
884.0
885.0
883.0
882.0
881.0
878.0
876.0
876.0
877.0
879.0
882.0
883.0
885.0
883.0
884.0
885.0
882.0
880.0
878.0
873.0
874.0
879.0
878.0
879.0
882.0
884.0
883.0
885.0
882.0
882.0
883.0
881.0
882.0
883.0
883.0
884.0
884.0
886.0
886.0
885.0
886.0
885.0
884.0
883.0
881.0
880.0
882.0
886.0
887.0
888.0
888.0
887.0
885.0
885.0
884.0
882.0
882.0
881.0
884.0
887.0
888.0
888.0
887.0
886.0
885.0
882.0
883.0
882.0
884.0
883.0
885.0
887.0
890.0
888.0
890.0
892.0
889.0
886.0
888.0
886.0
886.0
884.0
886.0
892.0
893.0
897.0
901.0
904.0
904.0
907.0
905.0
904.0
903.0
903.0
900.0
899.0
900.0
901.0
900.0
899.0
898.0
898.0
897.0
895.0
894.0
893.0
893.0
893.0
892.0
891.0
892.0
892.0
892.0
895.0
899.0
901.0
903.0
909.0
916.0
933.0
968.0
1023.0
1093.0
1177.0
1255.0
1318.0
1343.0
1331.0
1272.0
1161.0
1033.0
905.0
777.0
702.0
718.0
762.0
812.0
849.0
864.0
867.0
863.0
859.0
860.0
867.0
874.0
879.0
881.0
881.0
876.0
875.0
870.0
868.0
869.0
870.0
871.0
875.0
878.0
881.0
881.0
880.0
880.0
880.0
880.0
878.0
879.0
881.0
882.0
884.0
886.0
887.0
886.0
887.0
889.0
889.0
888.0
889.0
890.0
893.0
893.0
893.0
899.0
897.0
897.0
899.0
899.0
897.0
897.0
896.0
901.0
902.0
905.0
908.0
910.0
911.0
913.0
910.0
910.0
911.0
911.0
910.0
913.0
915.0
914.0
916.0
919.0
920.0
923.0
922.0
921.0
920.0
920.0
921.0
921.0
922.0
924.0
925.0
927.0
929.0
928.0
930.0
929.0
928.0
927.0
927.0
927.0
931.0
935.0
935.0
938.0
941.0
942.0
947.0
945.0
949.0
952.0
954.0
958.0
962.0
963.0
966.0
967.0
967.0
968.0
965.0
961.0
956.0
952.0
948.0
944.0
937.0
936.0
932.0
933.0
933.0
930.0
927.0
924.0
920.0
916.0
913.0
911.0
909.0
905.0
906.0
906.0
904.0
902.0
903.0
900.0
898.0
900.0
895.0
898.0
900.0
901.0
904.0
906.0
907.0
908.0
909.0
908.0
907.0
907.0
909.0
908.0
911.0
914.0
917.0
917.0
919.0
919.0
921.0
921.0
922.0
921.0
920.0
920.0
919.0
922.0
920.0
923.0
923.0
925.0
925.0
923.0
923.0
920.0
917.0
921.0
919.0
919.0
921.0
920.0
919.0
919.0
918.0
915.0
914.0
913.0
911.0
911.0
910.0
908.0
908.0
909.0
910.0
909.0
909.0
909.0
906.0
902.0
899.0
900.0
899.0
901.0
899.0
901.0
901.0
902.0
902.0
899.0
898.0
897.0
895.0
896.0
894.0
895.0
896.0
895.0
899.0
897.0
894.0
894.0
893.0
891.0
892.0
891.0
892.0
892.0
894.0
896.0
896.0
894.0
895.0
894.0
891.0
891.0
891.0
888.0
887.0
890.0
890.0
894.0
894.0
895.0
896.0
893.0
889.0
891.0
890.0
890.0
891.0
892.0
893.0
893.0
894.0
891.0
892.0
893.0
894.0
893.0
891.0
889.0
889.0
888.0
888.0
891.0
892.0
894.0
891.0
893.0
891.0
892.0
885.0
884.0
884.0
885.0
887.0
891.0
894.0
891.0
893.0
892.0
893.0
891.0
889.0
889.0
889.0
893.0
894.0
893.0
894.0
892.0
890.0
891.0
891.0
892.0
892.0
894.0
895.0
901.0
906.0
909.0
909.0
910.0
912.0
909.0
908.0
902.0
901.0
898.0
896.0
900.0
901.0
905.0
907.0
906.0
906.0
903.0
905.0
904.0
902.0
899.0
897.0
896.0
894.0
895.0
897.0
898.0
900.0
901.0
903.0
905.0
907.0
915.0
925.0
948.0
990.0
1048.0
1128.0
1216.0
1294.0
1343.0
1353.0
1317.0
1226.0
1098.0
970.0
842.0
714.0
697.0
744.0
803.0
850.0
876.0
885.0
881.0
875.0
872.0
872.0
875.0
882.0
885.0
887.0
885.0
883.0
882.0
878.0
879.0
878.0
878.0
876.0
880.0
881.0
882.0
884.0
885.0
886.0
886.0
886.0
888.0
887.0
889.0
890.0
890.0
891.0
893.0
896.0
897.0
898.0
898.0
895.0
897.0
895.0
897.0
899.0
902.0
904.0
907.0
909.0
908.0
908.0
906.0
908.0
909.0
908.0
909.0
909.0
912.0
915.0
916.0
918.0
919.0
923.0
924.0
923.0
923.0
923.0
922.0
924.0
925.0
928.0
928.0
932.0
932.0
931.0
931.0
931.0
930.0
930.0
931.0
930.0
931.0
930.0
933.0
935.0
937.0
937.0
937.0
938.0
939.0
940.0
943.0
947.0
951.0
955.0
960.0
961.0
961.0
962.0
960.0
959.0
956.0
953.0
952.0
947.0
945.0
940.0
939.0
939.0
935.0
931.0
926.0
921.0
920.0
915.0
913.0
910.0
907.0
906.0
906.0
909.0
908.0
906.0
904.0
902.0
903.0
902.0
902.0
902.0
899.0
904.0
905.0
906.0
907.0
907.0
906.0
908.0
908.0
906.0
907.0
907.0
909.0
913.0
917.0
917.0
920.0
921.0
921.0
921.0
917.0
918.0
919.0
918.0
920.0
921.0
922.0
924.0
923.0
924.0
922.0
922.0
920.0
919.0
918.0
916.0
918.0
919.0
920.0
921.0
921.0
921.0
919.0
917.0
918.0
914.0
914.0
909.0
906.0
908.0
908.0
912.0
911.0
914.0
912.0
908.0
907.0
904.0
904.0
903.0
902.0
904.0
905.0
909.0
908.0
907.0
904.0
903.0
901.0
901.0
900.0
899.0
900.0
901.0
904.0
905.0
904.0
906.0
905.0
900.0
899.0
897.0
897.0
897.0
899.0
901.0
902.0
902.0
902.0
902.0
902.0
901.0
900.0
898.0
898.0
898.0
900.0
902.0
903.0
904.0
903.0
903.0
900.0
898.0
896.0
895.0
894.0
897.0
896.0
900.0
899.0
899.0
897.0
900.0
900.0
896.0
898.0
895.0
897.0
896.0
897.0
900.0
901.0
905.0
904.0
902.0
902.0
901.0
900.0
899.0
896.0
897.0
898.0
899.0
897.0
902.0
904.0
902.0
901.0
899.0
898.0
898.0
898.0
899.0
899.0
901.0
903.0
904.0
905.0
908.0
911.0
913.0
916.0
916.0
917.0
915.0
919.0
917.0
920.0
921.0
917.0
916.0
914.0
913.0
912.0
912.0
909.0
912.0
911.0
913.0
913.0
911.0
907.0
903.0
903.0
902.0
904.0
905.0
907.0
908.0
911.0
914.0
921.0
931.0
945.0
972.0
1011.0
1063.0
1133.0
1210.0
1281.0
1331.0
1349.0
1324.0
1244.0
1116.0
988.0
860.0
732.0
683.0
722.0
783.0
836.0
868.0
881.0
884.0
880.0
881.0
886.0
893.0
901.0
901.0
900.0
897.0
894.0
891.0
891.0
892.0
895.0
898.0
899.0
901.0
901.0
903.0
900.0
900.0
898.0
900.0
902.0
902.0
902.0
904.0
908.0
909.0
906.0
908.0
909.0
910.0
910.0
910.0
914.0
918.0
920.0
921.0
920.0
922.0
920.0
920.0
919.0
922.0
920.0
923.0
924.0
923.0
930.0
933.0
935.0
935.0
935.0
936.0
935.0
933.0
933.0
934.0
937.0
938.0
940.0
943.0
943.0
944.0
944.0
942.0
943.0
943.0
943.0
941.0
941.0
942.0
943.0
946.0
946.0
949.0
947.0
947.0
948.0
948.0
945.0
946.0
948.0
954.0
959.0
963.0
966.0
965.0
967.0
968.0
966.0
967.0
962.0
960.0
958.0
955.0
951.0
951.0
947.0
943.0
938.0
934.0
930.0
927.0
922.0
918.0
915.0
915.0
918.0
916.0
914.0
911.0
909.0
909.0
907.0
905.0
903.0
904.0
904.0
906.0
907.0
907.0
909.0
909.0
910.0
909.0
909.0
909.0
910.0
909.0
911.0
913.0
915.0
918.0
921.0
925.0
927.0
926.0
929.0
928.0
936.0
941.0
949.0
953.0
957.0
962.0
963.0
964.0
965.0
966.0
971.0
969.0
968.0
968.0
968.0
966.0
964.0
964.0
960.0
954.0
949.0
945.0
941.0
937.0
932.0
930.0
926.0
923.0
922.0
919.0
917.0
915.0
913.0
912.0
906.0
905.0
902.0
903.0
904.0
906.0
902.0
903.0
901.0
903.0
902.0
904.0
899.0
900.0
897.0
895.0
893.0
891.0
884.0
880.0
880.0
893.0
925.0
979.0
1052.0
1142.0
1229.0
1295.0
1328.0
1319.0
1261.0
1144.0
1016.0
888.0
760.0
667.0
689.0
745.0
801.0
850.0
875.0
888.0
891.0
891.0
890.0
892.0
894.0
894.0
892.0
891.0
886.0
886.0
886.0
890.0
892.0
893.0
896.0
895.0
890.0
889.0
889.0
888.0
889.0
892.0
894.0
895.0
897.0
899.0
899.0
900.0
901.0
903.0
902.0
903.0
903.0
902.0
904.0
905.0
909.0
908.0
911.0
910.0
911.0
909.0
912.0
911.0
912.0
915.0
918.0
922.0
921.0
921.0
926.0
926.0
926.0
928.0
929.0
929.0
929.0
933.0
931.0
935.0
936.0
941.0
946.0
944.0
944.0
943.0
944.0
944.0
941.0
944.0
946.0
949.0
952.0
954.0
958.0
961.0
966.0
971.0
974.0
980.0
987.0
989.0
993.0
995.0
999.0
1004.0
1006.0
1005.0
999.0
993.0
985.0
980.0
974.0
965.0
960.0
952.0
942.0
936.0
932.0
927.0
919.0
916.0
909.0
904.0
900.0
893.0
891.0
889.0
891.0
892.0
890.0
887.0
886.0
883.0
881.0
883.0
879.0
881.0
885.0
887.0
888.0
890.0
892.0
891.0
894.0
895.0
896.0
897.0
900.0
904.0
907.0
911.0
917.0
927.0
939.0
953.0
971.0
992.0
1021.0
1055.0
1103.0
1161.0
1226.0
1283.0
1313.0
1309.0
1246.0
1118.0
990.0
862.0
734.0
669.0
715.0
781.0
839.0
877.0
895.0
896.0
895.0
887.0
885.0
884.0
883.0
881.0
878.0
875.0
876.0
876.0
879.0
880.0
878.0
880.0
879.0
874.0
872.0
871.0
873.0
874.0
875.0
877.0
875.0
876.0
881.0
880.0
880.0
878.0
877.0
877.0
875.0
876.0
878.0
881.0
883.0
885.0
887.0
888.0
889.0
888.0
888.0
884.0
885.0
887.0
888.0
890.0
891.0
892.0
893.0
894.0
895.0
895.0
895.0
893.0
893.0
895.0
896.0
896.0
896.0
898.0
899.0
896.0
895.0
896.0
899.0
899.0
898.0
899.0
900.0
903.0
906.0
908.0
909.0
912.0
909.0
910.0
911.0
916.0
920.0
925.0
930.0
934.0
939.0
943.0
948.0
948.0
947.0
945.0
944.0
941.0
937.0
934.0
929.0
928.0
925.0
925.0
928.0
923.0
919.0
920.0
914.0
913.0
909.0
913.0
909.0
909.0
910.0
911.0
909.0
909.0
911.0
906.0
905.0
904.0
903.0
905.0
907.0
910.0
913.0
912.0
914.0
911.0
912.0
910.0
910.0
909.0
907.0
908.0
908.0
908.0
908.0
912.0
912.0
912.0
911.0
908.0
907.0
904.0
901.0
901.0
900.0
902.0
902.0
901.0
899.0
900.0
898.0
896.0
895.0
895.0
892.0
890.0
890.0
888.0
892.0
892.0
892.0
888.0
888.0
884.0
884.0
881.0
881.0
882.0
882.0
885.0
883.0
884.0
884.0
886.0
879.0
878.0
877.0
877.0
875.0
875.0
875.0
879.0
879.0
879.0
880.0
878.0
880.0
878.0
878.0
876.0
875.0
876.0
876.0
878.0
877.0
878.0
878.0
876.0
874.0
876.0
875.0
874.0
875.0
877.0
878.0
876.0
878.0
876.0
878.0
878.0
876.0
874.0
873.0
873.0
873.0
874.0
874.0
876.0
877.0
876.0
878.0
877.0
876.0
875.0
872.0
871.0
871.0
871.0
871.0
873.0
873.0
876.0
879.0
878.0
878.0
877.0
876.0
871.0
870.0
874.0
875.0
875.0
875.0
875.0
876.0
876.0
876.0
876.0
876.0
874.0
875.0
874.0
874.0
876.0
875.0
879.0
878.0
877.0
875.0
874.0
876.0
873.0
872.0
872.0
876.0
875.0
878.0
880.0
878.0
878.0
878.0
877.0
875.0
874.0
873.0
874.0
876.0
877.0
878.0
878.0
880.0
877.0
878.0
877.0
877.0
876.0
876.0
874.0
875.0
875.0
876.0
878.0
881.0
879.0
879.0
876.0
875.0
874.0
873.0
875.0
876.0
878.0
882.0
884.0
886.0
888.0
887.0
888.0
888.0
889.0
891.0
893.0
895.0
897.0
898.0
898.0
898.0
899.0
898.0
896.0
895.0
894.0
894.0
889.0
890.0
890.0
888.0
893.0
894.0
892.0
893.0
893.0
890.0
888.0
886.0
882.0
883.0
882.0
881.0
877.0
880.0
877.0
881.0
883.0
882.0
883.0
883.0
886.0
890.0
894.0
897.0
909.0
934.0
977.0
1036.0
1113.0
1194.0
1272.0
1321.0
1341.0
1318.0
1242.0
1114.0
986.0
858.0
730.0
702.0
736.0
784.0
825.0
851.0
862.0
864.0
863.0
862.0
861.0
864.0
863.0
860.0
861.0
859.0
857.0
855.0
856.0
857.0
859.0
861.0
864.0
865.0
865.0
866.0
863.0
863.0
862.0
862.0
861.0
865.0
866.0
870.0
871.0
873.0
871.0
870.0
873.0
872.0
874.0
874.0
874.0
875.0
878.0
878.0
879.0
882.0
882.0
882.0
881.0
880.0
884.0
883.0
883.0
884.0
884.0
887.0
890.0
892.0
894.0
893.0
894.0
893.0
893.0
895.0
897.0
899.0
901.0
901.0
901.0
904.0
903.0
903.0
904.0
902.0
901.0
900.0
899.0
902.0
902.0
904.0
907.0
907.0
904.0
906.0
906.0
904.0
906.0
904.0
905.0
907.0
908.0
911.0
914.0
919.0
919.0
923.0
924.0
929.0
931.0
936.0
939.0
943.0
946.0
945.0
944.0
944.0
943.0
942.0
937.0
932.0
929.0
928.0
925.0
925.0
925.0
922.0
924.0
919.0
915.0
912.0
910.0
907.0
906.0
903.0
902.0
898.0
898.0
899.0
897.0
897.0
897.0
896.0
893.0
896.0
894.0
893.0
893.0
895.0
896.0
899.0
901.0
903.0
902.0
903.0
904.0
905.0
904.0
907.0
908.0
909.0
910.0
912.0
913.0
915.0
915.0
915.0
916.0
917.0
916.0
915.0
914.0
914.0
916.0
917.0
917.0
919.0
919.0
920.0
919.0
915.0
915.0
913.0
913.0
913.0
915.0
912.0
910.0
913.0
912.0
911.0
907.0
906.0
904.0
902.0
903.0
902.0
901.0
899.0
899.0
902.0
902.0
900.0
897.0
896.0
893.0
891.0
892.0
891.0
891.0
894.0
895.0
897.0
896.0
894.0
894.0
891.0
888.0
887.0
886.0
886.0
889.0
888.0
889.0
887.0
889.0
889.0
886.0
888.0
887.0
885.0
886.0
885.0
885.0
887.0
885.0
888.0
887.0
886.0
886.0
882.0
881.0
881.0
883.0
882.0
884.0
885.0
886.0
888.0
887.0
887.0
885.0
885.0
879.0
877.0
878.0
879.0
882.0
882.0
885.0
887.0
886.0
884.0
883.0
883.0
882.0
878.0
881.0
880.0
881.0
884.0
886.0
887.0
886.0
885.0
886.0
883.0
880.0
881.0
882.0
883.0
884.0
885.0
884.0
884.0
883.0
884.0
883.0
883.0
881.0
878.0
881.0
883.0
885.0
888.0
889.0
889.0
889.0
890.0
889.0
889.0
888.0
888.0
892.0
890.0
893.0
895.0
898.0
902.0
903.0
904.0
906.0
906.0
904.0
904.0
902.0
900.0
901.0
903.0
905.0
905.0
902.0
899.0
896.0
893.0
891.0
894.0
896.0
895.0
896.0
898.0
898.0
898.0
895.0
891.0
885.0
885.0
882.0
881.0
883.0
886.0
888.0
892.0
893.0
897.0
899.0
899.0
905.0
911.0
926.0
957.0
1010.0
1082.0
1167.0
1250.0
1314.0
1347.0
1335.0
1278.0
1166.0
1038.0
910.0
782.0
694.0
708.0
757.0
812.0
849.0
869.0
873.0
868.0
863.0
863.0
862.0
869.0
872.0
874.0
875.0
873.0
873.0
870.0
871.0
871.0
871.0
870.0
869.0
872.0
872.0
871.0
876.0
876.0
878.0
879.0
881.0
881.0
880.0
880.0
882.0
880.0
881.0
882.0
884.0
886.0
890.0
890.0
889.0
889.0
890.0
890.0
888.0
890.0
894.0
895.0
894.0
896.0
898.0
899.0
898.0
901.0
903.0
900.0
899.0
901.0
902.0
903.0
904.0
906.0
907.0
909.0
913.0
913.0
911.0
910.0
910.0
910.0
909.0
909.0
909.0
911.0
914.0
915.0
915.0
912.0
913.0
911.0
911.0
910.0
909.0
910.0
911.0
910.0
915.0
916.0
918.0
920.0
920.0
921.0
924.0
927.0
933.0
935.0
939.0
944.0
946.0
946.0
942.0
943.0
938.0
936.0
931.0
928.0
926.0
923.0
918.0
917.0
916.0
916.0
916.0
910.0
909.0
907.0
900.0
897.0
896.0
897.0
896.0
897.0
895.0
898.0
897.0
899.0
896.0
896.0
898.0
896.0
893.0
893.0
896.0
899.0
901.0
905.0
905.0
906.0
907.0
908.0
905.0
907.0
905.0
907.0
909.0
912.0
913.0
916.0
915.0
915.0
915.0
916.0
914.0
914.0
912.0
915.0
910.0
913.0
914.0
916.0
918.0
918.0
917.0
917.0
915.0
911.0
910.0
907.0
907.0
908.0
909.0
910.0
910.0
909.0
904.0
901.0
901.0
902.0
902.0
898.0
899.0
900.0
901.0
902.0
902.0
902.0
901.0
899.0
895.0
894.0
889.0
891.0
888.0
893.0
892.0
892.0
893.0
896.0
897.0
893.0
892.0
890.0
888.0
888.0
889.0
891.0
891.0
892.0
891.0
889.0
890.0
890.0
892.0
892.0
890.0
893.0
887.0
889.0
888.0
890.0
891.0
890.0
890.0
890.0
889.0
886.0
886.0
885.0
887.0
890.0
891.0
893.0
893.0
891.0
889.0
888.0
884.0
888.0
886.0
887.0
888.0
888.0
889.0
888.0
886.0
888.0
888.0
885.0
883.0
886.0
886.0
885.0
887.0
888.0
889.0
892.0
892.0
892.0
890.0
889.0
888.0
888.0
888.0
888.0
890.0
889.0
891.0
892.0
891.0
890.0
891.0
891.0
888.0
889.0
889.0
889.0
888.0
890.0
894.0
897.0
901.0
905.0
907.0
909.0
910.0
907.0
909.0
908.0
907.0
906.0
904.0
903.0
903.0
903.0
904.0
904.0
904.0
904.0
903.0
902.0
900.0
899.0
896.0
892.0
892.0
894.0
894.0
899.0
900.0
902.0
905.0
909.0
917.0
929.0
951.0
994.0
1050.0
1124.0
1207.0
1285.0
1333.0
1344.0
1306.0
1210.0
1082.0
954.0
826.0
698.0
680.0
730.0
788.0
839.0
865.0
874.0
873.0
871.0
872.0
877.0
883.0
890.0
892.0
891.0
890.0
886.0
883.0
883.0
879.0
881.0
885.0
884.0
887.0
889.0
891.0
891.0
893.0
894.0
891.0
890.0
893.0
891.0
894.0
895.0
899.0
899.0
902.0
901.0
902.0
901.0
902.0
900.0
899.0
900.0
904.0
907.0
910.0
911.0
912.0
913.0
913.0
914.0
914.0
912.0
911.0
915.0
915.0
917.0
920.0
922.0
923.0
924.0
925.0
923.0
924.0
925.0
924.0
925.0
927.0
926.0
928.0
928.0
928.0
930.0
929.0
931.0
930.0
930.0
929.0
929.0
929.0
929.0
929.0
930.0
929.0
928.0
929.0
926.0
925.0
927.0
932.0
934.0
938.0
940.0
943.0
946.0
949.0
951.0
953.0
951.0
949.0
948.0
945.0
942.0
940.0
939.0
939.0
937.0
936.0
934.0
927.0
923.0
919.0
914.0
912.0
906.0
908.0
905.0
904.0
905.0
903.0
900.0
900.0
897.0
896.0
893.0
893.0
894.0
892.0
893.0
895.0
898.0
900.0
900.0
901.0
903.0
899.0
899.0
899.0
900.0
903.0
906.0
911.0
915.0
915.0
918.0
917.0
917.0
916.0
917.0
915.0
919.0
920.0
916.0
921.0
924.0
927.0
924.0
926.0
924.0
925.0
921.0
922.0
920.0
922.0
920.0
922.0
925.0
924.0
924.0
921.0
921.0
915.0
913.0
913.0
914.0
917.0
916.0
918.0
913.0
913.0
912.0
911.0
909.0
903.0
902.0
903.0
904.0
906.0
906.0
906.0
907.0
905.0
905.0
903.0
903.0
899.0
898.0
897.0
898.0
899.0
900.0
899.0
901.0
898.0
896.0
895.0
893.0
894.0
894.0
893.0
895.0
895.0
895.0
897.0
898.0
899.0
897.0
896.0
894.0
892.0
889.0
890.0
889.0
889.0
891.0
893.0
894.0
895.0
896.0
894.0
893.0
891.0
888.0
888.0
890.0
892.0
894.0
894.0
897.0
896.0
895.0
895.0
893.0
893.0
890.0
891.0
891.0
894.0
894.0
894.0
894.0
896.0
895.0
893.0
891.0
890.0
888.0
888.0
886.0
888.0
891.0
892.0
897.0
897.0
897.0
894.0
895.0
893.0
892.0
892.0
893.0
897.0
904.0
910.0
917.0
919.0
922.0
926.0
924.0
926.0
930.0
932.0
935.0
938.0
934.0
929.0
922.0
915.0
909.0
903.0
898.0
893.0
888.0
886.0
891.0
891.0
893.0
895.0
896.0
891.0
888.0
886.0
886.0
884.0
882.0
883.0
884.0
884.0
887.0
887.0
888.0
890.0
891.0
892.0
888.0
883.0
878.0
881.0
901.0
940.0
999.0
1074.0
1165.0
1249.0
1311.0
1342.0
1328.0
1268.0
1147.0
1019.0
891.0
763.0
679.0
705.0
759.0
812.0
851.0
869.0
875.0
873.0
872.0
874.0
877.0
881.0
884.0
885.0
887.0
884.0
883.0
881.0
879.0
880.0
878.0
879.0
881.0
882.0
885.0
887.0
888.0
888.0
889.0
890.0
891.0
889.0
888.0
889.0
888.0
889.0
890.0
891.0
892.0
893.0
893.0
896.0
893.0
894.0
894.0
892.0
894.0
894.0
895.0
900.0
901.0
905.0
905.0
904.0
901.0
900.0
898.0
898.0
900.0
902.0
907.0
910.0
913.0
913.0
911.0
911.0
912.0
913.0
913.0
913.0
914.0
912.0
915.0
915.0
917.0
916.0
917.0
918.0
918.0
916.0
916.0
916.0
919.0
919.0
919.0
923.0
922.0
923.0
921.0
921.0
918.0
918.0
913.0
915.0
917.0
919.0
925.0
929.0
933.0
933.0
937.0
937.0
940.0
942.0
944.0
942.0
942.0
941.0
943.0
940.0
938.0
935.0
935.0
931.0
928.0
923.0
920.0
919.0
916.0
913.0
912.0
911.0
910.0
908.0
903.0
901.0
900.0
895.0
894.0
893.0
894.0
895.0
894.0
894.0
895.0
894.0
893.0
891.0
892.0
892.0
892.0
889.0
891.0
891.0
894.0
894.0
896.0
898.0
900.0
899.0
898.0
898.0
900.0
898.0
902.0
903.0
904.0
907.0
911.0
911.0
910.0
911.0
910.0
911.0
911.0
912.0
911.0
913.0
913.0
914.0
914.0
916.0
914.0
916.0
915.0
913.0
913.0
912.0
910.0
912.0
910.0
909.0
911.0
913.0
915.0
912.0
909.0
910.0
909.0
905.0
904.0
907.0
907.0
907.0
907.0
906.0
906.0
902.0
901.0
900.0
899.0
901.0
900.0
898.0
898.0
899.0
901.0
899.0
898.0
896.0
898.0
894.0
895.0
894.0
894.0
895.0
895.0
894.0
897.0
899.0
898.0
897.0
896.0
893.0
891.0
890.0
891.0
891.0
893.0
896.0
897.0
896.0
896.0
894.0
893.0
893.0
892.0
892.0
894.0
891.0
894.0
893.0
894.0
894.0
894.0
894.0
893.0
890.0
891.0
890.0
889.0
889.0
893.0
896.0
898.0
896.0
896.0
895.0
896.0
894.0
894.0
891.0
891.0
891.0
893.0
895.0
894.0
895.0
894.0
893.0
894.0
891.0
893.0
892.0
893.0
893.0
894.0
895.0
893.0
896.0
894.0
893.0
893.0
892.0
891.0
892.0
892.0
894.0
895.0
897.0
895.0
899.0
898.0
897.0
895.0
894.0
893.0
893.0
896.0
894.0
896.0
899.0
902.0
906.0
911.0
911.0
912.0
911.0
912.0
909.0
907.0
905.0
903.0
903.0
905.0
906.0
903.0
903.0
905.0
904.0
905.0
903.0
903.0
901.0
899.0
897.0
896.0
897.0
897.0
898.0
899.0
902.0
901.0
901.0
906.0
914.0
931.0
959.0
1008.0
1075.0
1158.0
1243.0
1311.0
1350.0
1348.0
1297.0
1189.0
1061.0
933.0
805.0
695.0
709.0
761.0
818.0
858.0
877.0
881.0
874.0
870.0
874.0
877.0
882.0
888.0
891.0
890.0
888.0
884.0
880.0
877.0
877.0
879.0
882.0
883.0
885.0
886.0
888.0
888.0
888.0
887.0
887.0
885.0
886.0
889.0
890.0
891.0
892.0
895.0
898.0
899.0
900.0
899.0
898.0
899.0
898.0
900.0
899.0
903.0
904.0
906.0
909.0
910.0
910.0
909.0
911.0
911.0
911.0
911.0
913.0
917.0
919.0
919.0
919.0
922.0
924.0
923.0
927.0
925.0
927.0
927.0
929.0
932.0
935.0
937.0
939.0
940.0
938.0
938.0
939.0
938.0
939.0
938.0
942.0
943.0
943.0
946.0
950.0
950.0
950.0
951.0
949.0
948.0
949.0
949.0
952.0
956.0
959.0
963.0
967.0
970.0
972.0
975.0
976.0
974.0
974.0
975.0
974.0
973.0
969.0
967.0
964.0
958.0
952.0
949.0
943.0
939.0
937.0
932.0
931.0
928.0
926.0
923.0
917.0
915.0
909.0
908.0
905.0
901.0
900.0
899.0
895.0
896.0
896.0
899.0
902.0
902.0
899.0
898.0
896.0
897.0
897.0
897.0
900.0
902.0
906.0
906.0
904.0
907.0
907.0
908.0
909.0
908.0
909.0
911.0
914.0
914.0
915.0
917.0
919.0
920.0
917.0
915.0
916.0
912.0
916.0
912.0
915.0
917.0
917.0
919.0
923.0
920.0
918.0
917.0
913.0
911.0
911.0
910.0
912.0
912.0
912.0
912.0
913.0
910.0
910.0
910.0
907.0
906.0
902.0
902.0
903.0
903.0
902.0
905.0
905.0
903.0
902.0
901.0
897.0
896.0
896.0
895.0
894.0
897.0
899.0
898.0
897.0
896.0
897.0
896.0
893.0
892.0
891.0
889.0
890.0
892.0
891.0
896.0
897.0
896.0
894.0
894.0
892.0
889.0
885.0
888.0
888.0
890.0
891.0
892.0
893.0
892.0
890.0
888.0
886.0
888.0
886.0
889.0
888.0
888.0
891.0
890.0
890.0
891.0
891.0
889.0
888.0
886.0
885.0
886.0
889.0
891.0
890.0
893.0
893.0
892.0
891.0
890.0
890.0
888.0
888.0
887.0
888.0
887.0
891.0
889.0
890.0
889.0
891.0
888.0
888.0
886.0
887.0
889.0
889.0
888.0
890.0
889.0
892.0
892.0
893.0
892.0
891.0
893.0
890.0
891.0
890.0
892.0
892.0
896.0
898.0
902.0
905.0
906.0
907.0
904.0
905.0
906.0
904.0
905.0
906.0
906.0
901.0
900.0
899.0
900.0
900.0
900.0
899.0
901.0
901.0
902.0
899.0
897.0
897.0
893.0
892.0
891.0
891.0
895.0
897.0
901.0
905.0
912.0
929.0
961.0
1011.0
1083.0
1170.0
1256.0
1325.0
1356.0
1344.0
1278.0
1157.0
1029.0
901.0
773.0
694.0
717.0
774.0
826.0
860.0
872.0
873.0
872.0
869.0
873.0
876.0
883.0
886.0
884.0
883.0
879.0
875.0
875.0
874.0
874.0
875.0
875.0
877.0
881.0
884.0
885.0
885.0
885.0
884.0
885.0
882.0
885.0
885.0
887.0
887.0
891.0
893.0
891.0
892.0
893.0
892.0
893.0
893.0
893.0
897.0
898.0
899.0
903.0
903.0
903.0
902.0
901.0
903.0
900.0
902.0
905.0
906.0
906.0
908.0
911.0
913.0
916.0
917.0
918.0
918.0
918.0
919.0
918.0
921.0
921.0
925.0
927.0
930.0
933.0
934.0
932.0
932.0
931.0
931.0
933.0
935.0
936.0
938.0
940.0
942.0
940.0
942.0
943.0
942.0
940.0
941.0
943.0
945.0
947.0
950.0
954.0
958.0
959.0
958.0
960.0
958.0
961.0
962.0
963.0
964.0
965.0
967.0
967.0
968.0
964.0
961.0
951.0
946.0
941.0
937.0
934.0
931.0
930.0
927.0
922.0
922.0
917.0
913.0
909.0
907.0
901.0
900.0
899.0
899.0
898.0
897.0
902.0
899.0
897.0
898.0
893.0
894.0
893.0
895.0
897.0
898.0
901.0
902.0
903.0
903.0
903.0
906.0
907.0
906.0
907.0
905.0
909.0
909.0
914.0
915.0
916.0
917.0
915.0
916.0
914.0
914.0
914.0
915.0
915.0
916.0
917.0
916.0
918.0
917.0
916.0
914.0
914.0
912.0
917.0
914.0
910.0
912.0
908.0
912.0
912.0
913.0
909.0
909.0
905.0
905.0
903.0
903.0
902.0
903.0
905.0
907.0
903.0
903.0
901.0
900.0
899.0
898.0
898.0
896.0
896.0
894.0
893.0
896.0
894.0
898.0
892.0
895.0
893.0
894.0
894.0
890.0
890.0
892.0
895.0
893.0
894.0
895.0
891.0
891.0
890.0
891.0
894.0
891.0
891.0
891.0
891.0
892.0
893.0
892.0
