# Simple Text Format
# Sampling Rate (Hz):= 360.00
# Resolution:= 12
# Labels:= ECG
898.0
898.0
896.0
895.0
897.0
899.0
903.0
904.0
902.0
900.0
898.0
897.0
898.0
895.0
897.0
899.0
901.0
901.0
903.0
903.0
901.0
900.0
898.0
897.0
900.0
902.0
904.0
905.0
908.0
910.0
911.0
912.0
910.0
910.0
910.0
908.0
911.0
913.0
915.0
916.0
917.0
921.0
919.0
920.0
920.0
919.0
918.0
920.0
920.0
921.0
923.0
924.0
924.0
927.0
923.0
926.0
929.0
926.0
930.0
929.0
929.0
929.0
933.0
935.0
939.0
939.0
939.0
939.0
937.0
938.0
937.0
939.0
938.0
941.0
940.0
941.0
944.0
946.0
948.0
945.0
946.0
946.0
943.0
942.0
944.0
945.0
948.0
950.0
952.0
953.0
949.0
952.0
949.0
951.0
951.0
951.0
956.0
958.0
963.0
966.0
971.0
971.0
971.0
971.0
970.0
965.0
961.0
960.0
955.0
953.0
955.0
952.0
951.0
949.0
946.0
941.0
937.0
936.0
932.0
929.0
928.0
926.0
926.0
925.0
925.0
922.0
921.0
919.0
920.0
919.0
918.0
917.0
915.0
915.0
918.0
919.0
920.0
920.0
923.0
922.0
920.0
920.0
920.0
920.0
922.0
923.0
925.0
927.0
929.0
930.0
930.0
931.0
930.0
930.0
928.0
929.0
929.0
930.0
932.0
932.0
935.0
934.0
932.0
932.0
932.0
928.0
929.0
927.0
927.0
927.0
932.0
931.0
931.0
932.0
932.0
928.0
926.0
925.0
923.0
923.0
921.0
921.0
923.0
926.0
925.0
925.0
920.0
923.0
921.0
920.0
917.0
918.0
916.0
915.0
916.0
916.0
917.0
919.0
920.0
915.0
914.0
915.0
912.0
912.0
912.0
912.0
912.0
914.0
914.0
914.0
913.0
912.0
914.0
911.0
912.0
913.0
913.0
913.0
911.0
912.0
913.0
913.0
913.0
914.0
913.0
911.0
911.0
909.0
906.0
908.0
910.0
908.0
915.0
915.0
913.0
911.0
911.0
909.0
910.0
910.0
909.0
910.0
913.0
911.0
909.0
911.0
914.0
914.0
913.0
912.0
912.0
910.0
912.0
913.0
914.0
914.0
914.0
914.0
915.0
913.0
913.0
912.0
911.0
909.0
913.0
911.0
914.0
913.0
918.0
917.0
916.0
918.0
915.0
915.0
912.0
911.0
910.0
913.0
914.0
916.0
918.0
922.0
924.0
925.0
927.0
930.0
928.0
928.0
928.0
930.0
932.0
929.0
927.0
925.0
923.0
922.0
922.0
923.0
922.0
923.0
924.0
925.0
927.0
925.0
924.0
921.0
920.0
918.0
916.0
915.0
915.0
917.0
919.0
922.0
926.0
930.0
937.0
943.0
951.0
962.0
978.0
1009.0
1051.0
1100.0
1163.0
1226.0
1284.0
1322.0
1334.0
1322.0
1278.0
1197.0
1078.0
950.0
822.0
734.0
715.0
746.0
804.0
854.0
886.0
900.0
900.0
896.0
891.0
891.0
893.0
899.0
904.0
908.0
911.0
910.0
909.0
910.0
905.0
905.0
905.0
904.0
904.0
904.0
905.0
909.0
910.0
913.0
915.0
913.0
917.0
916.0
915.0
917.0
916.0
916.0
916.0
917.0
918.0
920.0
923.0
926.0
927.0
928.0
927.0
928.0
926.0
925.0
926.0
928.0
929.0
932.0
934.0
937.0
937.0
933.0
935.0
932.0
933.0
934.0
936.0
935.0
937.0
939.0
943.0
944.0
948.0
948.0
948.0
946.0
944.0
944.0
945.0
945.0
947.0
949.0
951.0
954.0
954.0
955.0
952.0
951.0
949.0
947.0
947.0
948.0
949.0
952.0
955.0
953.0
952.0
953.0
952.0
953.0
950.0
949.0
951.0
954.0
957.0
962.0
965.0
969.0
970.0
971.0
970.0
968.0
964.0
962.0
960.0
960.0
958.0
958.0
954.0
954.0
952.0
949.0
945.0
942.0
937.0
935.0
932.0
930.0
929.0
931.0
933.0
933.0
930.0
931.0
929.0
927.0
925.0
922.0
926.0
924.0
929.0
928.0
930.0
931.0
932.0
932.0
929.0
931.0
931.0
929.0
930.0
932.0
933.0
935.0
937.0
940.0
939.0
941.0
941.0
940.0
941.0
940.0
941.0
940.0
943.0
946.0
945.0
948.0
947.0
944.0
945.0
944.0
944.0
942.0
942.0
942.0
943.0
942.0
941.0
943.0
943.0
942.0
943.0
941.0
940.0
936.0
934.0
934.0
933.0
932.0
935.0
936.0
934.0
932.0
932.0
929.0
929.0
928.0
925.0
929.0
927.0
926.0
927.0
925.0
926.0
926.0
923.0
924.0
924.0
921.0
921.0
921.0
920.0
920.0
920.0
922.0
921.0
922.0
921.0
921.0
920.0
920.0
919.0
918.0
920.0
919.0
921.0
922.0
921.0
917.0
916.0
914.0
916.0
912.0
916.0
918.0
919.0
920.0
922.0
918.0
916.0
915.0
913.0
913.0
911.0
913.0
914.0
914.0
917.0
919.0
920.0
919.0
917.0
918.0
916.0
917.0
915.0
913.0
914.0
916.0
915.0
915.0
918.0
919.0
917.0
917.0
915.0
916.0
915.0
914.0
915.0
914.0
916.0
917.0
921.0
919.0
920.0
919.0
918.0
919.0
918.0
915.0
915.0
915.0
915.0
918.0
921.0
924.0
922.0
922.0
920.0
920.0
920.0
921.0
923.0
927.0
933.0
932.0
937.0
940.0
940.0
940.0
937.0
936.0
933.0
931.0
928.0
928.0
929.0
930.0
931.0
930.0
933.0
933.0
929.0
929.0
925.0
921.0
920.0
919.0
921.0
926.0
928.0
931.0
931.0
934.0
938.0
945.0
951.0
967.0
990.0
1025.0
1066.0
1123.0
1187.0
1257.0
1309.0
1336.0
1326.0
1270.0
1157.0
1029.0
901.0
773.0
697.0
720.0
779.0
836.0
880.0
900.0
905.0
902.0
903.0
902.0
905.0
910.0
915.0
916.0
916.0
915.0
913.0
908.0
908.0
909.0
909.0
908.0
908.0
912.0
914.0
914.0
919.0
921.0
920.0
919.0
919.0
920.0
921.0
918.0
921.0
921.0
925.0
926.0
930.0
931.0
930.0
928.0
931.0
926.0
928.0
928.0
930.0
929.0
931.0
933.0
935.0
937.0
938.0
941.0
937.0
939.0
939.0
935.0
938.0
938.0
943.0
945.0
943.0
946.0
946.0
946.0
947.0
947.0
946.0
947.0
947.0
950.0
949.0
949.0
951.0
953.0
951.0
950.0
949.0
949.0
946.0
945.0
944.0
947.0
947.0
949.0
949.0
951.0
951.0
949.0
948.0
947.0
949.0
950.0
951.0
954.0
957.0
961.0
964.0
969.0
970.0
967.0
969.0
965.0
965.0
961.0
961.0
957.0
955.0
954.0
954.0
954.0
950.0
946.0
942.0
938.0
933.0
931.0
929.0
930.0
928.0
930.0
929.0
930.0
927.0
925.0
923.0
923.0
923.0
922.0
920.0
923.0
924.0
925.0
928.0
930.0
930.0
930.0
930.0
929.0
928.0
929.0
930.0
931.0
930.0
936.0
938.0
941.0
941.0
941.0
941.0
941.0
941.0
941.0
940.0
940.0
944.0
943.0
946.0
949.0
947.0
945.0
947.0
946.0
945.0
941.0
942.0
944.0
943.0
946.0
948.0
948.0
947.0
947.0
948.0
947.0
951.0
953.0
956.0
961.0
964.0
963.0
963.0
965.0
967.0
968.0
970.0
969.0
969.0
968.0
966.0
964.0
961.0
959.0
956.0
952.0
946.0
941.0
937.0
936.0
932.0
930.0
928.0
927.0
923.0
923.0
919.0
919.0
919.0
920.0
918.0
915.0
914.0
915.0
912.0
910.0
914.0
914.0
918.0
918.0
916.0
916.0
916.0
915.0
914.0
911.0
910.0
907.0
904.0
899.0
907.0
929.0
972.0
1031.0
1104.0
1189.0
1264.0
1313.0
1332.0
1306.0
1233.0
1107.0
979.0
851.0
723.0
690.0
725.0
781.0
838.0
873.0
891.0
894.0
893.0
892.0
894.0
903.0
907.0
914.0
913.0
913.0
910.0
906.0
901.0
902.0
906.0
907.0
909.0
911.0
909.0
911.0
908.0
907.0
908.0
906.0
908.0
907.0
908.0
910.0
909.0
911.0
912.0
914.0
914.0
913.0
912.0
909.0
912.0
912.0
915.0
916.0
921.0
923.0
922.0
920.0
920.0
922.0
922.0
924.0
924.0
924.0
929.0
929.0
931.0
933.0
934.0
936.0
935.0
935.0
935.0
933.0
935.0
936.0
939.0
943.0
943.0
945.0
944.0
946.0
944.0
944.0
940.0
941.0
942.0
942.0
946.0
947.0
948.0
950.0
946.0
947.0
947.0
947.0
946.0
948.0
948.0
949.0
950.0
955.0
957.0
961.0
965.0
967.0
967.0
967.0
964.0
963.0
963.0
958.0
957.0
955.0
950.0
953.0
950.0
945.0
940.0
938.0
931.0
930.0
928.0
925.0
924.0
923.0
923.0
924.0
923.0
921.0
920.0
918.0
917.0
915.0
915.0
914.0
915.0
915.0
919.0
921.0
922.0
922.0
921.0
920.0
920.0
920.0
920.0
920.0
922.0
924.0
925.0
927.0
926.0
927.0
928.0
927.0
923.0
925.0
925.0
926.0
930.0
928.0
932.0
933.0
933.0
932.0
932.0
932.0
929.0
929.0
929.0
929.0
930.0
930.0
932.0
931.0
930.0
931.0
928.0
926.0
923.0
920.0
921.0
918.0
923.0
924.0
922.0
921.0
920.0
922.0
922.0
917.0
917.0
917.0
916.0
915.0
916.0
916.0
916.0
916.0
914.0
915.0
911.0
914.0
914.0
914.0
911.0
910.0
912.0
915.0
914.0
915.0
914.0
912.0
911.0
912.0
909.0
908.0
908.0
908.0
911.0
914.0
912.0
910.0
914.0
912.0
914.0
912.0
909.0
910.0
906.0
909.0
908.0
908.0
910.0
913.0
912.0
911.0
908.0
908.0
909.0
908.0
908.0
907.0
910.0
910.0
911.0
913.0
909.0
909.0
907.0
907.0
911.0
909.0
909.0
909.0
909.0
909.0
911.0
912.0
911.0
913.0
911.0
909.0
908.0
908.0
910.0
907.0
908.0
909.0
910.0
911.0
913.0
913.0
911.0
909.0
906.0
908.0
908.0
909.0
911.0
911.0
908.0
912.0
910.0
911.0
913.0
910.0
907.0
908.0
908.0
908.0
910.0
911.0
914.0
912.0
912.0
912.0
912.0
911.0
911.0
908.0
908.0
909.0
910.0
911.0
911.0
913.0
914.0
913.0
913.0
911.0
910.0
908.0
910.0
909.0
910.0
913.0
915.0
915.0
915.0
918.0
914.0
912.0
911.0
910.0
912.0
917.0
919.0
921.0
925.0
927.0
929.0
930.0
930.0
928.0
926.0
923.0
921.0
920.0
919.0
920.0
921.0
924.0
925.0
925.0
925.0
924.0
919.0
915.0
915.0
911.0
915.0
915.0
914.0
918.0
918.0
918.0
920.0
920.0
922.0
927.0
932.0
938.0
951.0
975.0
1012.0
1057.0
1114.0
1182.0
1247.0
1300.0
1332.0
1337.0
1312.0
1255.0
1156.0
1028.0
900.0
776.0
734.0
748.0
793.0
841.0
878.0
895.0
897.0
895.0
894.0
896.0
897.0
902.0
903.0
901.0
902.0
901.0
899.0
899.0
898.0
898.0
902.0
902.0
905.0
906.0
907.0
908.0
905.0
904.0
904.0
903.0
904.0
907.0
910.0
911.0
912.0
913.0
915.0
916.0
913.0
914.0
915.0
914.0
914.0
915.0
917.0
915.0
916.0
922.0
923.0
925.0
923.0
922.0
923.0
923.0
924.0
927.0
926.0
929.0
930.0
932.0
931.0
933.0
933.0
932.0
931.0
932.0
931.0
933.0
935.0
937.0
939.0
941.0
942.0
940.0
942.0
941.0
940.0
940.0
940.0
941.0
940.0
943.0
946.0
947.0
949.0
949.0
948.0
944.0
943.0
942.0
946.0
946.0
949.0
952.0
954.0
956.0
959.0
961.0
962.0
966.0
965.0
967.0
971.0
974.0
977.0
977.0
978.0
980.0
976.0
974.0
971.0
966.0
963.0
959.0
957.0
955.0
956.0
952.0
951.0
945.0
945.0
940.0
938.0
935.0
933.0
932.0
931.0
930.0
929.0
929.0
927.0
929.0
930.0
929.0
928.0
928.0
926.0
922.0
922.0
922.0
923.0
926.0
924.0
930.0
931.0
931.0
927.0
927.0
927.0
927.0
928.0
929.0
932.0
936.0
936.0
938.0
940.0
940.0
939.0
939.0
938.0
937.0
938.0
939.0
938.0
939.0
940.0
943.0
941.0
941.0
942.0
941.0
938.0
937.0
936.0
936.0
937.0
938.0
937.0
940.0
939.0
936.0
935.0
935.0
932.0
930.0
927.0
928.0
929.0
931.0
931.0
931.0
930.0
928.0
927.0
926.0
924.0
922.0
921.0
919.0
919.0
921.0
922.0
922.0
922.0
923.0
921.0
921.0
918.0
917.0
917.0
917.0
916.0
917.0
919.0
919.0
918.0
918.0
916.0
915.0
913.0
910.0
911.0
912.0
913.0
913.0
914.0
916.0
916.0
916.0
913.0
913.0
913.0
911.0
912.0
911.0
911.0
912.0
915.0
914.0
916.0
914.0
914.0
912.0
911.0
909.0
909.0
908.0
907.0
910.0
913.0
912.0
911.0
913.0
909.0
910.0
909.0
908.0
908.0
909.0
912.0
912.0
913.0
914.0
913.0
913.0
912.0
912.0
910.0
909.0
909.0
909.0
909.0
909.0
911.0
912.0
913.0
914.0
913.0
909.0
909.0
906.0
907.0
909.0
912.0
914.0
915.0
913.0
914.0
914.0
912.0
912.0
911.0
910.0
912.0
910.0
912.0
914.0
916.0
921.0
925.0
927.0
927.0
927.0
926.0
927.0
924.0
924.0
921.0
922.0
919.0
920.0
920.0
922.0
918.0
918.0
915.0
913.0
914.0
915.0
915.0
915.0
913.0
914.0
914.0
915.0
916.0
918.0
918.0
920.0
925.0
928.0
935.0
944.0
964.0
998.0
1045.0
1106.0
1179.0
1254.0
1312.0
1340.0
1337.0
1289.0
1189.0
1061.0
933.0
805.0
721.0
729.0
779.0
834.0
876.0
896.0
902.0
898.0
895.0
892.0
896.0
902.0
903.0
906.0
903.0
901.0
897.0
893.0
894.0
895.0
897.0
896.0
901.0
903.0
903.0
906.0
904.0
902.0
903.0
904.0
903.0
905.0
907.0
909.0
909.0
914.0
914.0
913.0
914.0
915.0
916.0
915.0
914.0
916.0
917.0
921.0
924.0
924.0
927.0
926.0
926.0
924.0
923.0
925.0
926.0
929.0
931.0
932.0
934.0
933.0
935.0
935.0
937.0
936.0
937.0
935.0
935.0
937.0
941.0
943.0
944.0
948.0
949.0
947.0
947.0
945.0
943.0
943.0
942.0
943.0
945.0
946.0
948.0
950.0
949.0
949.0
948.0
950.0
947.0
948.0
947.0
946.0
947.0
949.0
954.0
960.0
961.0
962.0
966.0
967.0
970.0
970.0
968.0
969.0
967.0
968.0
963.0
961.0
959.0
956.0
953.0
952.0
948.0
942.0
937.0
934.0
933.0
934.0
933.0
933.0
930.0
929.0
932.0
927.0
924.0
921.0
920.0
920.0
918.0
920.0
923.0
923.0
924.0
923.0
922.0
922.0
920.0
920.0
921.0
921.0
924.0
926.0
930.0
930.0
932.0
930.0
929.0
931.0
932.0
931.0
931.0
931.0
932.0
936.0
937.0
939.0
939.0
940.0
940.0
938.0
936.0
934.0
933.0
934.0
936.0
937.0
940.0
941.0
941.0
941.0
939.0
937.0
933.0
932.0
931.0
931.0
935.0
933.0
935.0
935.0
934.0
933.0
930.0
930.0
928.0
922.0
922.0
921.0
926.0
928.0
928.0
930.0
930.0
927.0
923.0
921.0
919.0
918.0
916.0
918.0
922.0
923.0
923.0
925.0
924.0
923.0
923.0
921.0
921.0
918.0
919.0
916.0
918.0
918.0
919.0
924.0
923.0
923.0
917.0
917.0
913.0
913.0
911.0
914.0
919.0
920.0
920.0
921.0
918.0
918.0
914.0
916.0
915.0
915.0
912.0
915.0
916.0
919.0
918.0
920.0
918.0
920.0
916.0
918.0
917.0
915.0
914.0
916.0
917.0
919.0
920.0
919.0
918.0
918.0
915.0
915.0
915.0
913.0
911.0
912.0
914.0
915.0
919.0
922.0
918.0
920.0
918.0
916.0
915.0
913.0
916.0
914.0
918.0
921.0
922.0
922.0
922.0
919.0
917.0
918.0
916.0
917.0
916.0
918.0
920.0
920.0
923.0
926.0
927.0
932.0
932.0
934.0
936.0
936.0
935.0
933.0
935.0
934.0
930.0
930.0
931.0
928.0
928.0
929.0
927.0
926.0
929.0
929.0
929.0
927.0
923.0
923.0
920.0
923.0
921.0
921.0
922.0
923.0
926.0
931.0
936.0
950.0
966.0
991.0
1034.0
1090.0
1165.0
1244.0
1306.0
1341.0
1336.0
1277.0
1150.0
1022.0
894.0
766.0
699.0
737.0
796.0
853.0
891.0
908.0
907.0
908.0
904.0
905.0
909.0
911.0
913.0
910.0
907.0
907.0
904.0
904.0
904.0
905.0
909.0
910.0
917.0
918.0
920.0
919.0
918.0
915.0
918.0
918.0
918.0
919.0
920.0
925.0
928.0
928.0
928.0
929.0
929.0
928.0
925.0
924.0
925.0
927.0
931.0
935.0
936.0
937.0
939.0
937.0
934.0
935.0
935.0
933.0
937.0
940.0
943.0
945.0
948.0
950.0
952.0
951.0
950.0
950.0
948.0
949.0
949.0
950.0
953.0
957.0
957.0
961.0
962.0
960.0
957.0
955.0
954.0
954.0
953.0
955.0
954.0
957.0
957.0
961.0
957.0
957.0
957.0
955.0
953.0
953.0
952.0
957.0
956.0
964.0
967.0
973.0
975.0
978.0
976.0
973.0
976.0
975.0
972.0
972.0
971.0
969.0
968.0
965.0
963.0
961.0
960.0
955.0
952.0
948.0
943.0
940.0
938.0
939.0
937.0
937.0
937.0
936.0
932.0
932.0
929.0
927.0
923.0
926.0
926.0
928.0
929.0
931.0
931.0
931.0
931.0
931.0
931.0
932.0
928.0
931.0
931.0
932.0
935.0
936.0
940.0
939.0
942.0
940.0
942.0
942.0
942.0
944.0
945.0
948.0
949.0
948.0
949.0
948.0
948.0
947.0
946.0
946.0
947.0
945.0
948.0
946.0
948.0
949.0
950.0
950.0
947.0
947.0
944.0
942.0
940.0
942.0
942.0
943.0
942.0
945.0
945.0
943.0
941.0
938.0
935.0
933.0
931.0
932.0
933.0
934.0
935.0
936.0
935.0
934.0
928.0
927.0
928.0
928.0
926.0
924.0
924.0
926.0
927.0
926.0
930.0
928.0
926.0
926.0
923.0
921.0
920.0
918.0
917.0
922.0
921.0
921.0
922.0
922.0
922.0
922.0
920.0
920.0
919.0
917.0
917.0
919.0
920.0
923.0
926.0
925.0
922.0
921.0
920.0
915.0
917.0
915.0
917.0
918.0
920.0
919.0
919.0
919.0
919.0
918.0
918.0
919.0
914.0
915.0
915.0
917.0
918.0
920.0
920.0
922.0
919.0
921.0
919.0
919.0
917.0
918.0
920.0
919.0
921.0
922.0
922.0
921.0
921.0
918.0
918.0
919.0
917.0
919.0
923.0
929.0
933.0
937.0
939.0
938.0
937.0
934.0
934.0
931.0
926.0
926.0
927.0
929.0
931.0
934.0
935.0
935.0
930.0
929.0
927.0
925.0
918.0
915.0
915.0
919.0
918.0
922.0
926.0
928.0
931.0
936.0
940.0
946.0
957.0
980.0
1013.0
1057.0
1116.0
1184.0
1249.0
1302.0
1326.0
1316.0
1266.0
1164.0
1036.0
908.0
780.0
702.0
719.0
774.0
833.0
875.0
896.0
903.0
899.0
893.0
892.0
898.0
904.0
911.0
915.0
918.0
917.0
916.0
913.0
910.0
910.0
909.0
907.0
908.0
912.0
911.0
913.0
919.0
917.0
918.0
920.0
919.0
919.0
919.0
920.0
918.0
920.0
921.0
923.0
923.0
926.0
928.0
928.0
926.0
924.0
925.0
925.0
923.0
927.0
928.0
931.0
931.0
934.0
932.0
934.0
935.0
934.0
934.0
936.0
938.0
937.0
938.0
942.0
944.0
945.0
945.0
946.0
945.0
947.0
945.0
945.0
945.0
948.0
949.0
950.0
954.0
955.0
954.0
952.0
953.0
952.0
948.0
951.0
949.0
952.0
952.0
954.0
956.0
956.0
954.0
952.0
951.0
951.0
951.0
950.0
951.0
950.0
953.0
954.0
958.0
957.0
960.0
961.0
962.0
964.0
966.0
967.0
967.0
968.0
968.0
968.0
967.0
965.0
962.0
960.0
957.0
954.0
951.0
947.0
945.0
945.0
942.0
942.0
939.0
939.0
934.0
933.0
934.0
931.0
926.0
924.0
924.0
925.0
925.0
927.0
927.0
926.0
926.0
927.0
927.0
927.0
925.0
925.0
926.0
927.0
927.0
929.0
932.0
936.0
934.0
935.0
932.0
930.0
932.0
933.0
936.0
939.0
940.0
940.0
943.0
943.0
943.0
944.0
944.0
943.0
944.0
944.0
944.0
947.0
945.0
949.0
951.0
948.0
948.0
946.0
946.0
943.0
943.0
940.0
941.0
940.0
941.0
941.0
944.0
943.0
942.0
941.0
939.0
937.0
933.0
934.0
933.0
936.0
933.0
935.0
934.0
935.0
934.0
928.0
928.0
925.0
927.0
925.0
925.0
926.0
925.0
926.0
927.0
927.0
926.0
927.0
924.0
922.0
921.0
921.0
920.0
920.0
922.0
923.0
926.0
926.0
925.0
921.0
923.0
921.0
920.0
920.0
921.0
921.0
923.0
923.0
924.0
924.0
924.0
924.0
923.0
921.0
922.0
920.0
919.0
920.0
918.0
923.0
925.0
926.0
924.0
925.0
923.0
921.0
920.0
918.0
920.0
918.0
919.0
920.0
922.0
925.0
922.0
921.0
919.0
919.0
919.0
919.0
921.0
920.0
922.0
923.0
923.0
923.0
924.0
925.0
924.0
923.0
921.0
920.0
919.0
919.0
922.0
924.0
930.0
933.0
935.0
936.0
936.0
936.0
935.0
936.0
937.0
934.0
934.0
931.0
930.0
927.0
929.0
929.0
929.0
929.0
928.0
927.0
927.0
928.0
929.0
927.0
930.0
929.0
924.0
923.0
919.0
917.0
915.0
917.0
921.0
927.0
929.0
931.0
935.0
940.0
946.0
959.0
986.0
1033.0
1095.0
1171.0
1248.0
1307.0
1336.0
1325.0
1271.0
1166.0
1038.0
910.0
782.0
713.0
735.0
786.0
842.0
882.0
903.0
907.0
902.0
903.0
899.0
902.0
905.0
909.0
913.0
911.0
908.0
906.0
907.0
907.0
909.0
911.0
909.0
911.0
912.0
913.0
911.0
911.0
911.0
911.0
911.0
914.0
917.0
919.0
920.0
920.0
920.0
920.0
919.0
917.0
920.0
922.0
924.0
925.0
928.0
930.0
929.0
927.0
927.0
927.0
926.0
929.0
930.0
932.0
933.0
936.0
936.0
938.0
937.0
939.0
939.0
939.0
939.0
939.0
936.0
941.0
945.0
949.0
950.0
952.0
952.0
949.0
952.0
951.0
952.0
953.0
955.0
954.0
957.0
958.0
960.0
961.0
958.0
962.0
963.0
963.0
963.0
960.0
961.0
964.0
963.0
965.0
967.0
968.0
967.0
970.0
971.0
969.0
969.0
968.0
973.0
976.0
979.0
981.0
984.0
989.0
989.0
987.0
983.0
981.0
976.0
973.0
972.0
969.0
968.0
966.0
963.0
962.0
959.0
955.0
950.0
949.0
945.0
941.0
938.0
938.0
934.0
933.0
934.0
934.0
931.0
930.0
928.0
924.0
923.0
922.0
921.0
922.0
922.0
921.0
925.0
927.0
923.0
924.0
922.0
922.0
923.0
923.0
925.0
924.0
928.0
930.0
933.0
936.0
935.0
935.0
934.0
934.0
934.0
934.0
934.0
936.0
939.0
938.0
942.0
941.0
941.0
941.0
942.0
941.0
939.0
938.0
935.0
936.0
936.0
937.0
939.0
940.0
938.0
938.0
936.0
935.0
931.0
928.0
928.0
928.0
928.0
932.0
931.0
930.0
928.0
927.0
926.0
923.0
922.0
920.0
923.0
924.0
923.0
923.0
924.0
926.0
924.0
922.0
920.0
920.0
916.0
919.0
918.0
917.0
917.0
918.0
920.0
921.0
919.0
919.0
915.0
918.0
913.0
913.0
914.0
915.0
916.0
916.0
916.0
919.0
918.0
916.0
914.0
911.0
912.0
912.0
910.0
912.0
912.0
913.0
916.0
916.0
916.0
917.0
915.0
913.0
912.0
911.0
910.0
909.0
910.0
912.0
914.0
916.0
915.0
912.0
911.0
913.0
911.0
910.0
911.0
910.0
913.0
912.0
914.0
916.0
913.0
912.0
912.0
913.0
912.0
911.0
912.0
910.0
911.0
911.0
914.0
916.0
917.0
916.0
914.0
915.0
912.0
910.0
912.0
914.0
914.0
917.0
917.0
917.0
920.0
920.0
921.0
922.0
921.0
923.0
923.0
927.0
931.0
932.0
933.0
938.0
943.0
943.0
942.0
940.0
934.0
932.0
929.0
929.0
930.0
931.0
932.0
935.0
935.0
931.0
927.0
920.0
915.0
914.0
912.0
914.0
914.0
915.0
918.0
917.0
920.0
918.0
920.0
919.0
920.0
920.0
926.0
931.0
939.0
958.0
987.0
1027.0
1082.0
1149.0
1222.0
1284.0
1321.0
1330.0
1310.0
1248.0
1145.0
1017.0
889.0
773.0
734.0
750.0
797.0
845.0
879.0
896.0
898.0
892.0
891.0
890.0
895.0
902.0
906.0
908.0
907.0
902.0
898.0
896.0
894.0
892.0
896.0
898.0
901.0
902.0
903.0
904.0
904.0
902.0
902.0
901.0
899.0
901.0
905.0
907.0
908.0
912.0
909.0
909.0
911.0
911.0
911.0
912.0
913.0
910.0
915.0
916.0
918.0
920.0
919.0
920.0
919.0
920.0
919.0
919.0
920.0
922.0
925.0
927.0
931.0
932.0
934.0
932.0
933.0
936.0
934.0
935.0
935.0
937.0
938.0
940.0
942.0
944.0
948.0
946.0
947.0
948.0
949.0
946.0
947.0
948.0
949.0
952.0
953.0
955.0
959.0
959.0
957.0
956.0
955.0
954.0
956.0
959.0
963.0
966.0
967.0
969.0
972.0
976.0
977.0
979.0
981.0
981.0
980.0
980.0
979.0
980.0
976.0
976.0
973.0
965.0
960.0
957.0
953.0
949.0
945.0
945.0
942.0
940.0
939.0
938.0
934.0
934.0
930.0
929.0
924.0
924.0
922.0
922.0
924.0
925.0
922.0
924.0
926.0
926.0
923.0
921.0
923.0
921.0
921.0
919.0
922.0
924.0
926.0
927.0
924.0
927.0
925.0
923.0
925.0
925.0
928.0
928.0
930.0
931.0
933.0
934.0
934.0
936.0
935.0
934.0
931.0
933.0
933.0
931.0
932.0
933.0
933.0
935.0
935.0
935.0
935.0
933.0
929.0
929.0
927.0
930.0
929.0
929.0
928.0
930.0
930.0
933.0
929.0
924.0
922.0
921.0
921.0
922.0
924.0
925.0
926.0
926.0
924.0
922.0
917.0
920.0
918.0
916.0
916.0
916.0
917.0
917.0
918.0
919.0
919.0
919.0
918.0
916.0
916.0
913.0
913.0
911.0
913.0
915.0
914.0
917.0
916.0
916.0
916.0
915.0
911.0
911.0
912.0
910.0
911.0
915.0
917.0
917.0
917.0
916.0
916.0
914.0
912.0
912.0
909.0
911.0
910.0
912.0
914.0
916.0
916.0
914.0
912.0
911.0
909.0
909.0
910.0
909.0
911.0
912.0
912.0
914.0
915.0
914.0
912.0
913.0
908.0
912.0
910.0
911.0
912.0
912.0
912.0
913.0
916.0
914.0
915.0
915.0
913.0
914.0
914.0
914.0
918.0
918.0
924.0
925.0
927.0
927.0
927.0
927.0
930.0
930.0
933.0
937.0
941.0
943.0
944.0
942.0
939.0
934.0
932.0
926.0
926.0
927.0
928.0
926.0
926.0
926.0
924.0
924.0
920.0
916.0
914.0
912.0
911.0
912.0
914.0
914.0
918.0
918.0
922.0
927.0
931.0
938.0
953.0
983.0
1023.0
1081.0
1158.0
1238.0
1302.0
1340.0
1344.0
1309.0
1223.0
1095.0
967.0
839.0
718.0
709.0
751.0
813.0
860.0
892.0
901.0
901.0
895.0
891.0
893.0
896.0
897.0
899.0
899.0
897.0
897.0
896.0
896.0
897.0
898.0
899.0
896.0
900.0
899.0
897.0
896.0
899.0
898.0
903.0
906.0
909.0
910.0
911.0
907.0
905.0
905.0
906.0
906.0
910.0
911.0
915.0
919.0
918.0
920.0
920.0
917.0
917.0
917.0
916.0
917.0
915.0
919.0
922.0
924.0
927.0
929.0
930.0
929.0
931.0
929.0
928.0
931.0
932.0
936.0
939.0
941.0
942.0
945.0
944.0
944.0
945.0
944.0
945.0
946.0
947.0
949.0
951.0
954.0
954.0
956.0
954.0
955.0
953.0
950.0
950.0
953.0
953.0
956.0
957.0
958.0
960.0
960.0
960.0
959.0
960.0
963.0
964.0
967.0
970.0
973.0
977.0
979.0
980.0
979.0
975.0
971.0
967.0
966.0
960.0
956.0
957.0
952.0
951.0
950.0
947.0
946.0
942.0
938.0
933.0
927.0
926.0
925.0
925.0
921.0
923.0
922.0
922.0
922.0
920.0
920.0
920.0
918.0
919.0
919.0
920.0
921.0
921.0
924.0
926.0
924.0
924.0
927.0
927.0
928.0
926.0
925.0
926.0
928.0
932.0
934.0
936.0
935.0
936.0
935.0
935.0
936.0
933.0
934.0
938.0
937.0
939.0
940.0
938.0
939.0
939.0
938.0
938.0
938.0
936.0
936.0
937.0
937.0
938.0
936.0
936.0
934.0
934.0
932.0
931.0
931.0
930.0
926.0
927.0
930.0
927.0
928.0
929.0
927.0
928.0
927.0
922.0
923.0
920.0
919.0
918.0
917.0
918.0
919.0
919.0
919.0
921.0
916.0
916.0
916.0
917.0
918.0
917.0
915.0
917.0
918.0
921.0
920.0
919.0
917.0
915.0
913.0
912.0
912.0
910.0
913.0
914.0
917.0
917.0
917.0
915.0
913.0
912.0
910.0
910.0
911.0
911.0
914.0
916.0
915.0
915.0
915.0
915.0
913.0
912.0
910.0
910.0
906.0
907.0
907.0
908.0
911.0
916.0
916.0
917.0
915.0
914.0
911.0
911.0
909.0
909.0
908.0
910.0
913.0
916.0
916.0
917.0
916.0
915.0
912.0
912.0
910.0
911.0
913.0
912.0
914.0
916.0
918.0
921.0
922.0
924.0
924.0
923.0
925.0
927.0
929.0
933.0
935.0
939.0
942.0
942.0
940.0
936.0
933.0
929.0
928.0
928.0
930.0
930.0
928.0
927.0
927.0
924.0
919.0
915.0
913.0
