# Simple Text Format
# Sampling Rate (Hz):= 360.00
# Resolution:= 12
# Labels:= ECG
911.0
910.0
912.0
912.0
913.0
915.0
918.0
916.0
922.0
922.0
922.0
931.0
939.0
952.0
976.0
1007.0
1049.0
1103.0
1168.0
1235.0
1289.0
1319.0
1319.0
1287.0
1208.0
1080.0
952.0
824.0
701.0
691.0
734.0
796.0
846.0
876.0
890.0
892.0
890.0
889.0
893.0
898.0
903.0
906.0
905.0
905.0
903.0
899.0
898.0
897.0
898.0
899.0
899.0
900.0
903.0
903.0
907.0
905.0
907.0
907.0
908.0
907.0
907.0
906.0
907.0
905.0
911.0
913.0
914.0
916.0
912.0
913.0
915.0
915.0
915.0
914.0
916.0
917.0
918.0
920.0
922.0
923.0
925.0
925.0
924.0
924.0
923.0
923.0
922.0
924.0
927.0
932.0
934.0
936.0
935.0
934.0
932.0
932.0
934.0
935.0
935.0
937.0
940.0
941.0
944.0
943.0
942.0
942.0
942.0
940.0
940.0
941.0
942.0
943.0
945.0
947.0
946.0
947.0
945.0
942.0
940.0
944.0
944.0
946.0
946.0
949.0
951.0
954.0
955.0
958.0
963.0
962.0
963.0
961.0
963.0
963.0
960.0
961.0
959.0
957.0
958.0
954.0
950.0
946.0
943.0
940.0
936.0
932.0
933.0
932.0
930.0
928.0
927.0
927.0
923.0
919.0
916.0
915.0
914.0
914.0
912.0
912.0
913.0
914.0
916.0
918.0
916.0
917.0
916.0
914.0
915.0
913.0
914.0
915.0
915.0
917.0
921.0
922.0
922.0
924.0
924.0
924.0
922.0
923.0
924.0
925.0
928.0
930.0
929.0
931.0
933.0
933.0
932.0
928.0
928.0
927.0
930.0
932.0
934.0
935.0
937.0
937.0
938.0
937.0
934.0
933.0
927.0
928.0
930.0
929.0
931.0
931.0
933.0
934.0
931.0
928.0
925.0
925.0
923.0
923.0
922.0
921.0
923.0
923.0
924.0
923.0
920.0
919.0
920.0
920.0
916.0
917.0
917.0
916.0
918.0
917.0
919.0
918.0
917.0
917.0
914.0
912.0
911.0
910.0
908.0
910.0
910.0
912.0
914.0
915.0
915.0
914.0
912.0
911.0
910.0
908.0
908.0
910.0
911.0
911.0
911.0
911.0
908.0
911.0
908.0
907.0
907.0
906.0
909.0
909.0
910.0
911.0
910.0
910.0
910.0
911.0
911.0
909.0
908.0
907.0
907.0
907.0
909.0
911.0
911.0
912.0
913.0
912.0
908.0
905.0
907.0
906.0
910.0
911.0
914.0
914.0
914.0
917.0
914.0
914.0
911.0
913.0
914.0
912.0
912.0
911.0
915.0
916.0
919.0
921.0
922.0
922.0
923.0
924.0
924.0
925.0
927.0
929.0
933.0
936.0
940.0
939.0
939.0
938.0
934.0
932.0
929.0
928.0
928.0
927.0
931.0
930.0
928.0
924.0
918.0
918.0
914.0
909.0
909.0
905.0
909.0
910.0
913.0
914.0
918.0
919.0
921.0
924.0
928.0
935.0
946.0
963.0
996.0
1043.0
1106.0
1178.0
1246.0
1296.0
1310.0
1286.0
1200.0
1072.0
944.0
816.0
705.0
708.0
755.0
814.0
861.0
885.0
893.0
894.0
892.0
889.0
891.0
897.0
899.0
904.0
904.0
903.0
902.0
901.0
898.0
902.0
900.0
900.0
896.0
897.0
899.0
899.0
900.0
901.0
904.0
906.0
906.0
906.0
906.0
906.0
901.0
903.0
905.0
906.0
909.0
910.0
911.0
913.0
911.0
912.0
912.0
912.0
912.0
910.0
910.0
912.0
915.0
914.0
916.0
919.0
919.0
923.0
923.0
921.0
921.0
922.0
922.0
922.0
927.0
929.0
931.0
933.0
934.0
932.0
931.0
933.0
934.0
934.0
934.0
936.0
935.0
938.0
940.0
940.0
939.0
940.0
939.0
936.0
939.0
936.0
938.0
937.0
938.0
940.0
942.0
944.0
943.0
944.0
942.0
941.0
940.0
940.0
944.0
946.0
949.0
952.0
955.0
958.0
957.0
958.0
960.0
960.0
956.0
957.0
955.0
952.0
951.0
949.0
948.0
948.0
946.0
942.0
938.0
936.0
932.0
929.0
926.0
922.0
920.0
921.0
920.0
919.0
918.0
916.0
913.0
912.0
910.0
909.0
909.0
910.0
913.0
913.0
913.0
914.0
913.0
911.0
911.0
911.0
910.0
911.0
912.0
914.0
915.0
915.0
919.0
921.0
922.0
922.0
920.0
920.0
918.0
920.0
923.0
924.0
925.0
927.0
928.0
930.0
930.0
929.0
929.0
929.0
929.0
928.0
927.0
926.0
927.0
927.0
930.0
927.0
926.0
927.0
927.0
925.0
927.0
924.0
924.0
925.0
924.0
924.0
927.0
928.0
925.0
924.0
920.0
918.0
914.0
916.0
916.0
917.0
918.0
917.0
917.0
917.0
914.0
911.0
912.0
911.0
910.0
911.0
910.0
910.0
911.0
912.0
911.0
912.0
911.0
910.0
910.0
905.0
905.0
907.0
907.0
908.0
908.0
910.0
908.0
910.0
910.0
909.0
908.0
907.0
905.0
904.0
903.0
902.0
906.0
906.0
907.0
908.0
907.0
906.0
907.0
903.0
904.0
903.0
904.0
904.0
906.0
907.0
907.0
910.0
908.0
905.0
906.0
906.0
905.0
904.0
906.0
902.0
907.0
907.0
909.0
908.0
908.0
907.0
905.0
904.0
903.0
903.0
904.0
903.0
905.0
905.0
909.0
909.0
908.0
908.0
905.0
904.0
903.0
902.0
903.0
904.0
905.0
906.0
910.0
906.0
909.0
909.0
908.0
907.0
911.0
911.0
912.0
915.0
918.0
921.0
925.0
929.0
928.0
932.0
933.0
934.0
932.0
933.0
927.0
926.0
926.0
925.0
927.0
928.0
926.0
923.0
924.0
920.0
915.0
914.0
909.0
909.0
908.0
909.0
908.0
908.0
909.0
912.0
911.0
912.0
911.0
913.0
916.0
922.0
929.0
938.0
952.0
982.0
1021.0
1075.0
1139.0
1212.0
1272.0
1306.0
1312.0
1274.0
1190.0
1062.0
934.0
806.0
730.0
737.0
781.0
833.0
871.0
890.0
896.0
895.0
894.0
893.0
893.0
897.0
896.0
894.0
891.0
893.0
889.0
889.0
890.0
891.0
893.0
893.0
894.0
895.0
897.0
898.0
896.0
897.0
895.0
895.0
898.0
897.0
898.0
899.0
903.0
904.0
907.0
905.0
905.0
904.0
904.0
904.0
903.0
906.0
906.0
910.0
911.0
914.0
914.0
913.0
912.0
913.0
913.0
912.0
914.0
916.0
920.0
920.0
920.0
923.0
925.0
924.0
925.0
927.0
927.0
927.0
929.0
931.0
934.0
934.0
939.0
940.0
940.0
941.0
940.0
940.0
941.0
941.0
942.0
945.0
945.0
947.0
948.0
951.0
954.0
955.0
952.0
950.0
949.0
951.0
954.0
955.0
959.0
962.0
965.0
970.0
973.0
974.0
975.0
977.0
975.0
975.0
974.0
971.0
971.0
969.0
967.0
961.0
959.0
954.0
949.0
945.0
938.0
939.0
936.0
933.0
930.0
932.0
929.0
930.0
927.0
925.0
921.0
919.0
916.0
914.0
916.0
915.0
917.0
915.0
918.0
916.0
912.0
913.0
911.0
913.0
911.0
910.0
911.0
912.0
913.0
912.0
918.0
918.0
918.0
918.0
918.0
916.0
917.0
917.0
918.0
920.0
922.0
924.0
925.0
928.0
927.0
925.0
927.0
927.0
926.0
925.0
924.0
924.0
927.0
926.0
928.0
930.0
928.0
930.0
929.0
926.0
925.0
925.0
922.0
921.0
922.0
924.0
924.0
925.0
922.0
922.0
919.0
920.0
918.0
915.0
915.0
917.0
918.0
918.0
920.0
918.0
917.0
918.0
915.0
915.0
910.0
906.0
909.0
910.0
912.0
912.0
914.0
915.0
915.0
915.0
912.0
908.0
910.0
908.0
906.0
909.0
911.0
910.0
912.0
912.0
912.0
911.0
910.0
909.0
908.0
908.0
908.0
908.0
908.0
910.0
911.0
911.0
910.0
910.0
909.0
907.0
905.0
903.0
902.0
903.0
905.0
907.0
908.0
908.0
909.0
907.0
907.0
903.0
905.0
904.0
904.0
904.0
906.0
906.0
907.0
910.0
908.0
908.0
908.0
907.0
905.0
903.0
905.0
904.0
906.0
908.0
909.0
912.0
910.0
912.0
908.0
908.0
905.0
904.0
908.0
908.0
908.0
910.0
910.0
913.0
913.0
912.0
912.0
908.0
909.0
912.0
913.0
917.0
918.0
924.0
924.0
928.0
929.0
932.0
934.0
934.0
935.0
934.0
932.0
930.0
927.0
927.0
926.0
927.0
923.0
924.0
926.0
926.0
920.0
918.0
916.0
912.0
911.0
909.0
909.0
916.0
915.0
915.0
916.0
916.0
914.0
915.0
916.0
920.0
927.0
935.0
943.0
957.0
977.0
1015.0
1065.0
1127.0
1197.0
1259.0
1301.0
1322.0
1309.0
1260.0
1173.0
1048.0
920.0
802.0
741.0
739.0
776.0
827.0
867.0
886.0
891.0
891.0
887.0
887.0
890.0
895.0
897.0
903.0
903.0
900.0
899.0
897.0
899.0
898.0
900.0
901.0
901.0
899.0
898.0
902.0
899.0
900.0
900.0
902.0
903.0
903.0
907.0
909.0
910.0
909.0
909.0
909.0
906.0
906.0
908.0
910.0
911.0
914.0
915.0
919.0
918.0
919.0
918.0
919.0
920.0
920.0
918.0
919.0
924.0
924.0
927.0
926.0
928.0
928.0
930.0
931.0
931.0
933.0
931.0
932.0
932.0
936.0
939.0
943.0
943.0
943.0
943.0
942.0
943.0
942.0
941.0
942.0
944.0
946.0
949.0
951.0
951.0
952.0
950.0
950.0
952.0
954.0
952.0
951.0
954.0
953.0
958.0
959.0
960.0
961.0
964.0
965.0
967.0
965.0
971.0
971.0
974.0
975.0
977.0
980.0
979.0
976.0
975.0
972.0
970.0
965.0
960.0
960.0
956.0
954.0
952.0
949.0
947.0
946.0
944.0
938.0
935.0
932.0
927.0
925.0
923.0
924.0
924.0
928.0
927.0
925.0
924.0
922.0
919.0
918.0
918.0
920.0
921.0
922.0
922.0
924.0
925.0
925.0
926.0
924.0
925.0
926.0
926.0
927.0
931.0
930.0
931.0
936.0
937.0
936.0
937.0
937.0
933.0
936.0
934.0
935.0
937.0
940.0
943.0
945.0
943.0
944.0
942.0
941.0
938.0
935.0
934.0
932.0
935.0
939.0
939.0
940.0
941.0
938.0
936.0
934.0
933.0
929.0
928.0
928.0
930.0
929.0
932.0
930.0
931.0
929.0
928.0
926.0
925.0
923.0
921.0
923.0
922.0
923.0
925.0
925.0
926.0
924.0
921.0
920.0
917.0
916.0
917.0
919.0
919.0
921.0
920.0
923.0
921.0
920.0
920.0
915.0
917.0
915.0
916.0
914.0
917.0
918.0
920.0
923.0
923.0
921.0
919.0
917.0
915.0
914.0
916.0
915.0
918.0
922.0
923.0
925.0
923.0
921.0
920.0
920.0
917.0
917.0
918.0
915.0
917.0
919.0
919.0
922.0
922.0
923.0
921.0
919.0
917.0
915.0
917.0
918.0
919.0
920.0
922.0
924.0
924.0
923.0
922.0
921.0
921.0
919.0
918.0
921.0
921.0
924.0
925.0
927.0
929.0
932.0
935.0
934.0
936.0
933.0
935.0
938.0
941.0
942.0
948.0
950.0
953.0
952.0
949.0
943.0
939.0
938.0
939.0
938.0
937.0
940.0
940.0
938.0
935.0
933.0
928.0
927.0
925.0
924.0
923.0
923.0
923.0
922.0
923.0
927.0
927.0
925.0
927.0
927.0
934.0
941.0
952.0
969.0
997.0
1039.0
1093.0
1161.0
1232.0
1292.0
1324.0
1325.0
1289.0
1195.0
1067.0
939.0
811.0
706.0
710.0
763.0
823.0
867.0
895.0
903.0
903.0
900.0
899.0
902.0
908.0
914.0
918.0
918.0
917.0
916.0
911.0
910.0
910.0
908.0
909.0
910.0
913.0
913.0
914.0
915.0
918.0
919.0
918.0
916.0
917.0
915.0
916.0
918.0
920.0
920.0
923.0
923.0
923.0
926.0
923.0
924.0
922.0
923.0
923.0
924.0
925.0
928.0
929.0
931.0
931.0
934.0
933.0
935.0
934.0
933.0
936.0
935.0
937.0
940.0
942.0
940.0
942.0
944.0
940.0
945.0
945.0
942.0
945.0
944.0
946.0
948.0
952.0
954.0
955.0
954.0
954.0
952.0
953.0
952.0
953.0
954.0
956.0
955.0
959.0
960.0
961.0
960.0
960.0
959.0
955.0
953.0
953.0
958.0
960.0
963.0
965.0
966.0
968.0
965.0
967.0
968.0
971.0
971.0
975.0
977.0
977.0
981.0
979.0
977.0
977.0
977.0
972.0
966.0
964.0
954.0
953.0
954.0
953.0
953.0
952.0
952.0
952.0
953.0
953.0
953.0
954.0
952.0
957.0
954.0
955.0
959.0
962.0
966.0
969.0
968.0
965.0
964.0
962.0
958.0
956.0
955.0
951.0
948.0
946.0
945.0
943.0
943.0
942.0
944.0
941.0
939.0
936.0
936.0
936.0
937.0
937.0
940.0
938.0
939.0
940.0
939.0
939.0
937.0
936.0
938.0
939.0
939.0
939.0
943.0
943.0
944.0
943.0
942.0
942.0
939.0
941.0
943.0
947.0
946.0
950.0
957.0
975.0
1010.0
1066.0
1137.0
1210.0
1272.0
1309.0
1307.0
1260.0
1156.0
1028.0
900.0
772.0
712.0
734.0
785.0
839.0
881.0
906.0
914.0
918.0
915.0
918.0
920.0
922.0
923.0
920.0
918.0
917.0
913.0
914.0
914.0
915.0
917.0
917.0
914.0
917.0
919.0
917.0
918.0
916.0
916.0
915.0
917.0
920.0
920.0
922.0
925.0
923.0
925.0
923.0
920.0
921.0
922.0
923.0
923.0
928.0
929.0
929.0
932.0
931.0
929.0
931.0
931.0
931.0
933.0
934.0
932.0
936.0
938.0
940.0
941.0
942.0
944.0
942.0
941.0
940.0
943.0
944.0
945.0
947.0
951.0
952.0
956.0
956.0
955.0
955.0
956.0
960.0
963.0
968.0
973.0
979.0
984.0
987.0
989.0
991.0
994.0
996.0
996.0
1000.0
1001.0
1000.0
1001.0
1002.0
1004.0
1004.0
1007.0
1006.0
1003.0
997.0
996.0
990.0
985.0
979.0
974.0
973.0
971.0
968.0
964.0
961.0
955.0
950.0
944.0
941.0
937.0
931.0
930.0
932.0
931.0
932.0
932.0
930.0
928.0
929.0
927.0
925.0
925.0
925.0
925.0
927.0
927.0
931.0
935.0
935.0
937.0
938.0
937.0
936.0
936.0
940.0
946.0
952.0
964.0
979.0
996.0
1023.0
1051.0
1082.0
1115.0
1153.0
1194.0
1243.0
1286.0
1319.0
1327.0
1306.0
1235.0
1109.0
981.0
853.0
727.0
718.0
762.0
822.0
873.0
908.0
921.0
924.0
922.0
917.0
915.0
913.0
914.0
913.0
910.0
909.0
906.0
906.0
906.0
908.0
911.0
911.0
908.0
908.0
907.0
907.0
907.0
908.0
909.0
908.0
908.0
909.0
908.0
909.0
909.0
907.0
908.0
907.0
906.0
906.0
907.0
908.0
911.0
911.0
913.0
912.0
915.0
913.0
913.0
911.0
909.0
912.0
912.0
912.0
915.0
915.0
916.0
915.0
917.0
917.0
918.0
915.0
915.0
916.0
916.0
915.0
916.0
918.0
922.0
923.0
922.0
924.0
918.0
918.0
917.0
919.0
921.0
921.0
926.0
930.0
932.0
934.0
936.0
940.0
941.0
944.0
950.0
955.0
959.0
964.0
971.0
975.0
979.0
978.0
979.0
974.0
970.0
968.0
964.0
962.0
959.0
961.0
961.0
958.0
958.0
955.0
952.0
951.0
948.0
944.0
944.0
943.0
943.0
943.0
945.0
946.0
947.0
948.0
948.0
945.0
945.0
944.0
942.0
941.0
941.0
946.0
947.0
949.0
949.0
948.0
949.0
948.0
946.0
943.0
942.0
944.0
943.0
941.0
942.0
944.0
945.0
943.0
946.0
943.0
940.0
938.0
933.0
930.0
932.0
933.0
934.0
936.0
935.0
934.0
934.0
930.0
929.0
924.0
924.0
925.0
924.0
926.0
929.0
929.0
927.0
928.0
927.0
925.0
924.0
924.0
924.0
919.0
920.0
920.0
923.0
922.0
924.0
924.0
922.0
921.0
921.0
919.0
917.0
918.0
919.0
920.0
919.0
922.0
923.0
922.0
922.0
920.0
921.0
920.0
919.0
920.0
917.0
918.0
919.0
920.0
922.0
921.0
921.0
918.0
918.0
915.0
915.0
914.0
917.0
917.0
920.0
921.0
923.0
920.0
920.0
920.0
918.0
917.0
915.0
915.0
919.0
917.0
919.0
918.0
920.0
920.0
921.0
920.0
918.0
918.0
917.0
917.0
916.0
917.0
919.0
920.0
922.0
922.0
922.0
919.0
921.0
919.0
918.0
918.0
916.0
918.0
917.0
920.0
919.0
921.0
920.0
921.0
918.0
919.0
917.0
918.0
916.0
918.0
921.0
921.0
921.0
922.0
922.0
921.0
919.0
917.0
917.0
918.0
916.0
918.0
918.0
922.0
922.0
924.0
922.0
921.0
922.0
919.0
919.0
919.0
920.0
919.0
920.0
920.0
921.0
923.0
923.0
922.0
919.0
917.0
918.0
920.0
918.0
920.0
921.0
925.0
926.0
924.0
923.0
921.0
921.0
922.0
921.0
921.0
920.0
922.0
921.0
923.0
927.0
925.0
925.0
926.0
924.0
926.0
928.0
929.0
931.0
930.0
933.0
934.0
937.0
944.0
943.0
941.0
938.0
934.0
934.0
933.0
931.0
935.0
934.0
931.0
932.0
932.0
930.0
931.0
932.0
932.0
933.0
935.0
933.0
933.0
930.0
928.0
927.0
926.0
926.0
927.0
926.0
925.0
927.0
927.0
928.0
934.0
933.0
938.0
946.0
954.0
976.0
1017.0
1079.0
1153.0
1234.0
1302.0
1337.0
1329.0
1267.0
1147.0
1019.0
891.0
771.0
753.0
782.0
831.0
872.0
899.0
911.0
914.0
914.0
910.0
908.0
911.0
913.0
913.0
913.0
911.0
908.0
907.0
905.0
905.0
908.0
911.0
912.0
915.0
915.0
913.0
914.0
914.0
914.0
911.0
915.0
916.0
920.0
919.0
923.0
922.0
921.0
922.0
922.0
920.0
919.0
921.0
921.0
922.0
922.0
923.0
927.0
926.0
927.0
928.0
925.0
926.0
926.0
925.0
926.0
928.0
931.0
934.0
935.0
934.0
933.0
934.0
932.0
933.0
935.0
934.0
935.0
937.0
938.0
938.0
937.0
941.0
941.0
940.0
940.0
937.0
933.0
935.0
934.0
935.0
935.0
937.0
939.0
936.0
934.0
932.0
930.0
929.0
926.0
928.0
923.0
924.0
925.0
926.0
934.0
935.0
935.0
938.0
938.0
939.0
941.0
943.0
946.0
951.0
954.0
961.0
962.0
965.0
965.0
965.0
962.0
959.0
957.0
958.0
959.0
958.0
954.0
958.0
958.0
956.0
952.0
953.0
951.0
950.0
947.0
944.0
942.0
941.0
941.0
944.0
947.0
947.0
946.0
945.0
944.0
942.0
940.0
941.0
938.0
941.0
944.0
946.0
949.0
950.0
953.0
952.0
954.0
955.0
954.0
953.0
953.0
951.0
956.0
961.0
958.0
961.0
965.0
964.0
962.0
961.0
959.0
958.0
959.0
961.0
960.0
961.0
961.0
962.0
960.0
959.0
959.0
957.0
956.0
955.0
955.0
954.0
955.0
955.0
954.0
954.0
954.0
953.0
950.0
948.0
946.0
945.0
943.0
943.0
943.0
944.0
947.0
946.0
944.0
943.0
943.0
939.0
936.0
935.0
937.0
935.0
937.0
937.0
935.0
938.0
936.0
936.0
933.0
932.0
932.0
930.0
931.0
928.0
931.0
933.0
933.0
936.0
933.0
932.0
928.0
928.0
925.0
925.0
925.0
928.0
931.0
930.0
929.0
929.0
927.0
928.0
927.0
926.0
926.0
924.0
924.0
926.0
924.0
926.0
928.0
928.0
928.0
927.0
925.0
926.0
926.0
926.0
926.0
923.0
928.0
930.0
929.0
930.0
928.0
928.0
925.0
921.0
922.0
924.0
921.0
922.0
926.0
925.0
927.0
926.0
926.0
925.0
922.0
923.0
920.0
920.0
922.0
925.0
925.0
928.0
930.0
926.0
925.0
927.0
927.0
924.0
923.0
924.0
925.0
924.0
925.0
929.0
928.0
931.0
929.0
931.0
929.0
926.0
926.0
924.0
925.0
927.0
930.0
933.0
937.0
941.0
942.0
946.0
942.0
942.0
942.0
940.0
938.0
937.0
937.0
934.0
934.0
934.0
934.0
936.0
936.0
935.0
935.0
935.0
935.0
935.0
934.0
933.0
934.0
931.0
929.0
927.0
929.0
929.0
928.0
930.0
933.0
940.0
944.0
948.0
956.0
973.0
1001.0
1045.0
1098.0
1167.0
1234.0
1294.0
1333.0
1341.0
1315.0
1253.0
1148.0
1020.0
892.0
787.0
748.0
765.0
810.0
858.0
894.0
909.0
912.0
909.0
907.0
908.0
910.0
912.0
917.0
918.0
920.0
915.0
912.0
908.0
911.0
913.0
913.0
915.0
917.0
918.0
916.0
914.0
912.0
912.0
914.0
916.0
919.0
921.0
924.0
924.0
927.0
925.0
925.0
924.0
922.0
923.0
923.0
926.0
929.0
930.0
931.0
933.0
932.0
934.0
931.0
934.0
933.0
933.0
933.0
935.0
937.0
936.0
939.0
942.0
943.0
942.0
942.0
939.0
941.0
942.0
941.0
942.0
944.0
945.0
948.0
950.0
947.0
948.0
948.0
945.0
946.0
945.0
946.0
945.0
945.0
945.0
948.0
947.0
948.0
944.0
943.0
940.0
939.0
938.0
937.0
939.0
938.0
938.0
941.0
940.0
940.0
941.0
939.0
939.0
937.0
942.0
944.0
947.0
953.0
954.0
962.0
961.0
966.0
967.0
964.0
964.0
964.0
962.0
961.0
960.0
960.0
961.0
955.0
958.0
955.0
952.0
949.0
944.0
941.0
938.0
937.0
938.0
937.0
938.0
939.0
938.0
938.0
937.0
936.0
931.0
932.0
931.0
934.0
933.0
935.0
937.0
938.0
938.0
935.0
939.0
940.0
938.0
936.0
936.0
940.0
940.0
944.0
946.0
948.0
950.0
948.0
949.0
950.0
947.0
945.0
947.0
946.0
946.0
949.0
950.0
954.0
953.0
953.0
953.0
950.0
950.0
947.0
947.0
944.0
947.0
948.0
945.0
948.0
948.0
950.0
948.0
948.0
945.0
942.0
940.0
938.0
939.0
941.0
939.0
942.0
944.0
942.0
940.0
937.0
936.0
933.0
931.0
933.0
932.0
934.0
934.0
935.0
937.0
935.0
934.0
933.0
932.0
927.0
925.0
924.0
926.0
927.0
931.0
932.0
935.0
933.0
933.0
931.0
929.0
928.0
928.0
926.0
928.0
930.0
928.0
933.0
934.0
931.0
932.0
927.0
927.0
928.0
929.0
926.0
926.0
928.0
929.0
932.0
934.0
932.0
933.0
930.0
928.0
927.0
925.0
925.0
927.0
931.0
927.0
933.0
934.0
931.0
928.0
927.0
928.0
928.0
925.0
929.0
927.0
930.0
930.0
932.0
933.0
933.0
934.0
934.0
929.0
931.0
927.0
927.0
926.0
930.0
929.0
932.0
935.0
934.0
932.0
928.0
929.0
928.0
927.0
931.0
930.0
930.0
933.0
934.0
936.0
932.0
932.0
935.0
931.0
931.0
929.0
928.0
931.0
932.0
937.0
944.0
947.0
949.0
951.0
950.0
949.0
946.0
946.0
944.0
939.0
941.0
938.0
939.0
940.0
941.0
944.0
941.0
941.0
941.0
938.0
937.0
935.0
933.0
932.0
935.0
934.0
937.0
939.0
940.0
941.0
947.0
952.0
960.0
972.0
998.0
1038.0
1089.0
1158.0
1230.0
1292.0
1326.0
1330.0
1296.0
1220.0
1092.0
964.0
836.0
745.0
742.0
787.0
841.0
887.0
911.0
920.0
917.0
912.0
912.0
914.0
920.0
926.0
931.0
933.0
930.0
926.0
924.0
922.0
922.0
922.0
925.0
926.0
928.0
926.0
929.0
933.0
932.0
930.0
930.0
930.0
931.0
933.0
935.0
935.0
938.0
939.0
941.0
941.0
939.0
938.0
939.0
938.0
936.0
938.0
940.0
944.0
945.0
946.0
948.0
950.0
949.0
948.0
949.0
951.0
949.0
950.0
950.0
951.0
953.0
953.0
954.0
958.0
959.0
960.0
959.0
959.0
957.0
957.0
959.0
960.0
965.0
964.0
965.0
967.0
967.0
964.0
962.0
961.0
961.0
958.0
960.0
961.0
962.0
959.0
962.0
961.0
962.0
960.0
959.0
956.0
952.0
952.0
953.0
953.0
956.0
959.0
962.0
966.0
967.0
970.0
971.0
971.0
970.0
973.0
976.0
976.0
977.0
977.0
981.0
977.0
973.0
972.0
969.0
968.0
964.0
960.0
958.0
956.0
953.0
952.0
950.0
950.0
947.0
945.0
941.0
943.0
939.0
940.0
940.0
936.0
938.0
940.0
942.0
941.0
938.0
941.0
941.0
942.0
939.0
938.0
943.0
945.0
946.0
948.0
951.0
952.0
952.0
954.0
953.0
953.0
954.0
951.0
954.0
956.0
960.0
962.0
964.0
963.0
964.0
963.0
961.0
961.0
960.0
962.0
962.0
961.0
962.0
964.0
966.0
964.0
963.0
964.0
960.0
958.0
954.0
953.0
951.0
951.0
954.0
956.0
958.0
955.0
953.0
952.0
950.0
947.0
946.0
942.0
941.0
942.0
944.0
943.0
941.0
945.0
943.0
942.0
941.0
941.0
940.0
940.0
938.0
934.0
936.0
937.0
938.0
940.0
940.0
941.0
939.0
936.0
933.0
933.0
932.0
933.0
931.0
935.0
936.0
936.0
935.0
936.0
934.0
934.0
933.0
932.0
931.0
931.0
933.0
934.0
935.0
936.0
937.0
935.0
932.0
928.0
929.0
926.0
927.0
928.0
930.0
932.0
932.0
933.0
930.0
930.0
928.0
926.0
929.0
929.0
932.0
932.0
933.0
933.0
930.0
935.0
936.0
935.0
933.0
931.0
930.0
930.0
931.0
930.0
933.0
934.0
934.0
935.0
935.0
934.0
935.0
935.0
935.0
931.0
933.0
934.0
933.0
934.0
933.0
937.0
937.0
938.0
938.0
939.0
942.0
942.0
945.0
951.0
951.0
953.0
953.0
950.0
945.0
943.0
942.0
940.0
941.0
943.0
943.0
941.0
945.0
945.0
946.0
946.0
943.0
941.0
938.0
934.0
934.0
933.0
934.0
937.0
940.0
944.0
948.0
955.0
964.0
978.0
998.0
1036.0
1086.0
1150.0
1222.0
1287.0
1323.0
1325.0
1275.0
1160.0
1032.0
904.0
776.0
731.0
766.0
823.0
871.0
904.0
921.0
926.0
925.0
922.0
921.0
924.0
927.0
927.0
927.0
927.0
925.0
923.0
920.0
925.0
927.0
929.0
927.0
930.0
930.0
929.0
928.0
927.0
927.0
928.0
931.0
932.0
935.0
933.0
934.0
934.0
934.0
933.0
933.0
933.0
932.0
933.0
937.0
937.0
938.0
941.0
941.0
944.0
942.0
941.0
941.0
939.0
938.0
939.0
942.0
946.0
947.0
950.0
948.0
950.0
951.0
950.0
950.0
948.0
950.0
952.0
953.0
956.0
955.0
959.0
958.0
959.0
958.0
954.0
956.0
955.0
954.0
954.0
956.0
956.0
957.0
958.0
957.0
956.0
956.0
953.0
948.0
947.0
947.0
948.0
950.0
951.0
953.0
953.0
954.0
955.0
951.0
955.0
957.0
962.0
962.0
964.0
970.0
974.0
976.0
978.0
976.0
977.0
974.0
970.0
966.0
966.0
962.0
962.0
962.0
961.0
959.0
957.0
959.0
956.0
952.0
949.0
944.0
942.0
940.0
937.0
940.0
941.0
945.0
945.0
946.0
950.0
954.0
953.0
958.0
958.0
960.0
960.0
962.0
967.0
970.0
974.0
975.0
976.0
974.0
971.0
969.0
967.0
966.0
962.0
962.0
962.0
960.0
960.0
959.0
958.0
957.0
954.0
952.0
950.0
949.0
949.0
949.0
950.0
951.0
952.0
950.0
951.0
947.0
944.0
941.0
942.0
940.0
940.0
943.0
942.0
944.0
946.0
945.0
944.0
941.0
938.0
933.0
928.0
920.0
923.0
935.0
966.0
1017.0
1091.0
1177.0
1256.0
1309.0
1322.0
1293.0
1210.0
1082.0
954.0
826.0
732.0
736.0
781.0
837.0
879.0
904.0
913.0
916.0
916.0
915.0
918.0
925.0
927.0
928.0
930.0
926.0
924.0
922.0
919.0
919.0
917.0
918.0
918.0
920.0
921.0
922.0
925.0
924.0
923.0
924.0
922.0
922.0
922.0
924.0
924.0
928.0
931.0
930.0
933.0
932.0
933.0
932.0
933.0
931.0
931.0
931.0
933.0
935.0
936.0
940.0
939.0
941.0
942.0
946.0
944.0
944.0
942.0
944.0
945.0
947.0
950.0
954.0
956.0
956.0
953.0
956.0
958.0
956.0
956.0
960.0
960.0
962.0
964.0
965.0
968.0
969.0
969.0
968.0
965.0
968.0
968.0
968.0
968.0
972.0
974.0
977.0
979.0
981.0
981.0
982.0
983.0
984.0
984.0
986.0
989.0
990.0
990.0
988.0
986.0
983.0
981.0
975.0
968.0
968.0
961.0
959.0
955.0
952.0
947.0
950.0
949.0
947.0
947.0
942.0
938.0
933.0
932.0
930.0
930.0
934.0
932.0
935.0
939.0
938.0
937.0
935.0
936.0
935.0
937.0
936.0
935.0
937.0
937.0
939.0
941.0
941.0
942.0
939.0
940.0
938.0
937.0
936.0
937.0
938.0
941.0
940.0
945.0
944.0
942.0
939.0
936.0
940.0
937.0
938.0
937.0
941.0
940.0
940.0
941.0
941.0
938.0
936.0
934.0
933.0
933.0
932.0
932.0
932.0
932.0
934.0
934.0
933.0
932.0
930.0
929.0
927.0
927.0
924.0
926.0
925.0
927.0
928.0
930.0
929.0
926.0
925.0
924.0
922.0
921.0
919.0
917.0
921.0
921.0
917.0
921.0
920.0
923.0
921.0
923.0
919.0
919.0
918.0
918.0
918.0
919.0
922.0
921.0
921.0
920.0
918.0
918.0
915.0
916.0
915.0
918.0
918.0
918.0
921.0
919.0
921.0
919.0
919.0
919.0
917.0
916.0
916.0
914.0
915.0
916.0
918.0
918.0
920.0
918.0
919.0
916.0
915.0
914.0
913.0
917.0
917.0
918.0
919.0
920.0
919.0
918.0
916.0
915.0
914.0
913.0
916.0
915.0
918.0
917.0
920.0
921.0
921.0
920.0
916.0
917.0
918.0
915.0
916.0
914.0
915.0
917.0
918.0
918.0
918.0
920.0
920.0
920.0
918.0
919.0
916.0
915.0
920.0
918.0
920.0
924.0
919.0
921.0
920.0
