# Simple Text Format
# Sampling Rate (Hz):= 360.00
# Resolution:= 12
# Labels:= ECG
882.0
883.0
885.0
889.0
890.0
891.0
890.0
889.0
889.0
889.0
888.0
889.0
892.0
893.0
897.0
897.0
899.0
900.0
899.0
899.0
899.0
899.0
898.0
901.0
903.0
907.0
909.0
911.0
910.0
909.0
910.0
908.0
914.0
914.0
915.0
917.0
917.0
919.0
923.0
924.0
927.0
926.0
924.0
923.0
924.0
925.0
924.0
924.0
926.0
930.0
931.0
933.0
931.0
933.0
931.0
930.0
932.0
930.0
931.0
932.0
936.0
939.0
943.0
947.0
950.0
953.0
955.0
953.0
952.0
949.0
946.0
942.0
940.0
937.0
934.0
932.0
930.0
927.0
922.0
919.0
913.0
910.0
904.0
902.0
899.0
902.0
899.0
899.0
898.0
895.0
892.0
893.0
892.0
890.0
891.0
890.0
892.0
892.0
892.0
892.0
893.0
894.0
895.0
892.0
893.0
895.0
892.0
893.0
896.0
899.0
901.0
906.0
904.0
904.0
906.0
903.0
902.0
903.0
905.0
908.0
909.0
909.0
912.0
914.0
912.0
913.0
914.0
912.0
911.0
911.0
911.0
909.0
910.0
910.0
911.0
912.0
913.0
912.0
910.0
906.0
906.0
904.0
903.0
903.0
903.0
904.0
902.0
903.0
902.0
902.0
898.0
899.0
898.0
895.0
895.0
896.0
896.0
896.0
898.0
898.0
900.0
899.0
897.0
896.0
892.0
891.0
892.0
890.0
889.0
891.0
892.0
893.0
890.0
890.0
891.0
886.0
886.0
887.0
887.0
887.0
887.0
888.0
890.0
887.0
888.0
890.0
886.0
887.0
886.0
884.0
884.0
883.0
885.0
888.0
888.0
890.0
889.0
889.0
888.0
885.0
886.0
884.0
886.0
886.0
887.0
887.0
890.0
890.0
889.0
892.0
888.0
887.0
885.0
884.0
883.0
883.0
885.0
886.0
888.0
891.0
889.0
888.0
887.0
888.0
888.0
887.0
886.0
888.0
889.0
891.0
893.0
895.0
894.0
897.0
896.0
900.0
901.0
903.0
905.0
906.0
907.0
912.0
915.0
919.0
923.0
926.0
919.0
912.0
907.0
903.0
904.0
901.0
901.0
905.0
906.0
906.0
902.0
902.0
895.0
892.0
887.0
884.0
886.0
884.0
886.0
889.0
891.0
892.0
892.0
893.0
896.0
901.0
907.0
918.0
941.0
978.0
1033.0
1110.0
1201.0
1289.0
1357.0
1390.0
1380.0
1322.0
1203.0
1075.0
947.0
819.0
691.0
678.0
732.0
796.0
843.0
867.0
872.0
868.0
862.0
859.0
863.0
868.0
874.0
879.0
879.0
880.0
876.0
874.0
871.0
870.0
870.0
870.0
869.0
871.0
873.0
873.0
875.0
877.0
876.0
876.0
877.0
877.0
877.0
879.0
879.0
881.0
882.0
885.0
887.0
890.0
890.0
889.0
890.0
888.0
888.0
886.0
890.0
891.0
895.0
897.0
901.0
901.0
903.0
902.0
902.0
902.0
902.0
904.0
905.0
907.0
909.0
910.0
913.0
917.0
918.0
918.0
917.0
920.0
920.0
920.0
921.0
922.0
927.0
928.0
929.0
930.0
931.0
931.0
934.0
933.0
934.0
933.0
934.0
937.0
940.0
941.0
942.0
944.0
944.0
946.0
945.0
946.0
945.0
945.0
946.0
951.0
954.0
959.0
961.0
966.0
967.0
971.0
974.0
973.0
971.0
971.0
969.0
967.0
967.0
965.0
962.0
958.0
952.0
948.0
942.0
935.0
932.0
925.0
923.0
919.0
916.0
914.0
912.0
910.0
907.0
908.0
904.0
903.0
899.0
898.0
896.0
894.0
898.0
896.0
898.0
898.0
896.0
895.0
895.0
895.0
893.0
896.0
893.0
894.0
898.0
899.0
900.0
902.0
902.0
903.0
903.0
904.0
902.0
900.0
903.0
905.0
906.0
906.0
910.0
911.0
913.0
911.0
910.0
910.0
910.0
909.0
909.0
910.0
911.0
914.0
916.0
917.0
916.0
915.0
912.0
912.0
907.0
907.0
908.0
908.0
910.0
910.0
909.0
910.0
907.0
908.0
906.0
906.0
903.0
901.0
897.0
897.0
901.0
899.0
900.0
901.0
901.0
902.0
896.0
893.0
892.0
892.0
893.0
894.0
895.0
895.0
897.0
896.0
896.0
893.0
891.0
891.0
890.0
887.0
888.0
889.0
889.0
890.0
889.0
893.0
892.0
894.0
892.0
890.0
889.0
886.0
886.0
886.0
889.0
889.0
890.0
891.0
890.0
891.0
889.0
888.0
888.0
885.0
888.0
886.0
890.0
889.0
891.0
891.0
892.0
890.0
889.0
887.0
888.0
886.0
887.0
886.0
887.0
888.0
888.0
891.0
890.0
890.0
889.0
886.0
886.0
886.0
886.0
886.0
887.0
888.0
887.0
888.0
889.0
890.0
889.0
887.0
889.0
889.0
891.0
890.0
893.0
895.0
897.0
903.0
903.0
905.0
906.0
908.0
911.0
910.0
914.0
915.0
919.0
922.0
923.0
918.0
915.0
910.0
907.0
905.0
903.0
903.0
903.0
904.0
905.0
903.0
901.0
898.0
895.0
892.0
888.0
887.0
884.0
889.0
888.0
890.0
891.0
893.0
897.0
900.0
906.0
910.0
919.0
929.0
949.0
984.0
1035.0
1103.0
1184.0
1270.0
1338.0
1374.0
1379.0
1342.0
1256.0
1128.0
1000.0
872.0
744.0
663.0
696.0
759.0
818.0
855.0
871.0
873.0
866.0
864.0
864.0
869.0
873.0
874.0
879.0
879.0
877.0
876.0
874.0
875.0
870.0
869.0
872.0
871.0
872.0
877.0
880.0
881.0
884.0
885.0
882.0
884.0
884.0
882.0
884.0
884.0
885.0
887.0
888.0
889.0
891.0
892.0
899.0
897.0
899.0
897.0
896.0
896.0
900.0
901.0
904.0
905.0
907.0
908.0
910.0
911.0
912.0
915.0
914.0
915.0
917.0
918.0
920.0
921.0
922.0
923.0
923.0
927.0
927.0
930.0
929.0
930.0
932.0
931.0
934.0
932.0
933.0
936.0
937.0
941.0
938.0
940.0
940.0
940.0
942.0
944.0
946.0
944.0
943.0
944.0
948.0
949.0
953.0
952.0
954.0
956.0
957.0
961.0
965.0
966.0
970.0
973.0
973.0
970.0
970.0
962.0
958.0
951.0
947.0
945.0
941.0
939.0
935.0
931.0
930.0
927.0
923.0
920.0
917.0
912.0
908.0
905.0
906.0
908.0
905.0
905.0
906.0
906.0
905.0
904.0
901.0
900.0
898.0
898.0
899.0
901.0
902.0
904.0
905.0
904.0
905.0
906.0
903.0
903.0
903.0
905.0
907.0
909.0
911.0
914.0
916.0
918.0
917.0
917.0
917.0
915.0
914.0
916.0
915.0
919.0
922.0
923.0
924.0
921.0
922.0
921.0
922.0
920.0
919.0
919.0
921.0
921.0
920.0
922.0
922.0
920.0
917.0
916.0
915.0
912.0
911.0
910.0
911.0
913.0
913.0
915.0
913.0
910.0
911.0
909.0
907.0
906.0
905.0
904.0
902.0
904.0
903.0
904.0
905.0
906.0
904.0
903.0
901.0
899.0
898.0
897.0
897.0
898.0
898.0
901.0
901.0
902.0
900.0
900.0
894.0
894.0
895.0
894.0
896.0
898.0
897.0
897.0
898.0
897.0
897.0
895.0
896.0
894.0
895.0
896.0
894.0
891.0
896.0
895.0
894.0
895.0
894.0
894.0
895.0
894.0
894.0
896.0
897.0
897.0
896.0
896.0
898.0
895.0
892.0
891.0
892.0
893.0
894.0
895.0
898.0
899.0
902.0
900.0
898.0
898.0
898.0
895.0
896.0
896.0
896.0
896.0
897.0
900.0
902.0
908.0
910.0
912.0
912.0
908.0
912.0
912.0
915.0
920.0
921.0
927.0
931.0
934.0
935.0
929.0
924.0
920.0
916.0
916.0
919.0
920.0
922.0
921.0
923.0
918.0
917.0
912.0
908.0
904.0
901.0
899.0
896.0
896.0
898.0
899.0
902.0
905.0
907.0
909.0
912.0
915.0
922.0
930.0
943.0
972.0
1010.0
1068.0
1136.0
1220.0
1298.0
1362.0
1390.0
1373.0
1303.0
1175.0
1047.0
919.0
791.0
663.0
673.0
738.0
803.0
849.0
870.0
876.0
875.0
872.0
872.0
878.0
883.0
885.0
888.0
890.0
887.0
884.0
883.0
883.0
885.0
883.0
883.0
883.0
886.0
889.0
888.0
893.0
894.0
893.0
895.0
896.0
895.0
893.0
894.0
897.0
897.0
897.0
898.0
902.0
902.0
906.0
904.0
904.0
906.0
905.0
906.0
906.0
909.0
912.0
914.0
914.0
914.0
915.0
917.0
916.0
918.0
918.0
920.0
923.0
924.0
928.0
929.0
934.0
934.0
934.0
935.0
935.0
931.0
932.0
936.0
937.0
939.0
942.0
943.0
947.0
947.0
945.0
948.0
944.0
942.0
942.0
942.0
941.0
945.0
943.0
945.0
947.0
949.0
949.0
949.0
950.0
950.0
949.0
951.0
957.0
962.0
965.0
967.0
971.0
970.0
968.0
967.0
963.0
957.0
953.0
951.0
947.0
943.0
943.0
941.0
940.0
936.0
934.0
930.0
923.0
919.0
916.0
911.0
912.0
910.0
910.0
911.0
911.0
910.0
911.0
909.0
906.0
904.0
902.0
903.0
903.0
905.0
906.0
905.0
908.0
910.0
913.0
913.0
911.0
911.0
908.0
911.0
915.0
917.0
920.0
923.0
923.0
922.0
925.0
923.0
924.0
924.0
923.0
924.0
924.0
926.0
926.0
932.0
932.0
933.0
932.0
934.0
933.0
930.0
929.0
927.0
927.0
926.0
928.0
929.0
931.0
931.0
928.0
927.0
924.0
922.0
920.0
919.0
923.0
922.0
920.0
921.0
921.0
921.0
920.0
917.0
916.0
914.0
911.0
911.0
911.0
914.0
917.0
922.0
927.0
932.0
935.0
935.0
937.0
937.0
936.0
938.0
937.0
942.0
949.0
949.0
952.0
951.0
949.0
947.0
943.0
937.0
934.0
924.0
920.0
915.0
914.0
912.0
912.0
912.0
911.0
906.0
902.0
898.0
893.0
893.0
890.0
890.0
891.0
890.0
892.0
892.0
888.0
889.0
887.0
891.0
890.0
892.0
893.0
892.0
894.0
893.0
892.0
886.0
884.0
891.0
915.0
960.0
1029.0
1120.0
1218.0
1310.0
1368.0
1383.0
1345.0
1236.0
1108.0
980.0
852.0
724.0
647.0
701.0
773.0
832.0
870.0
886.0
891.0
891.0
885.0
886.0
885.0
883.0
881.0
879.0
880.0
881.0
882.0
887.0
890.0
890.0
889.0
888.0
888.0
888.0
888.0
887.0
888.0
888.0
892.0
892.0
897.0
896.0
899.0
898.0
897.0
896.0
896.0
896.0
895.0
896.0
901.0
905.0
908.0
904.0
905.0
909.0
908.0
908.0
907.0
908.0
910.0
913.0
916.0
916.0
919.0
921.0
922.0
922.0
925.0
924.0
922.0
924.0
925.0
926.0
929.0
929.0
935.0
936.0
937.0
937.0
934.0
933.0
932.0
933.0
935.0
936.0
939.0
938.0
941.0
944.0
941.0
943.0
942.0
942.0
942.0
941.0
942.0
945.0
949.0
952.0
956.0
960.0
962.0
963.0
963.0
964.0
963.0
960.0
957.0
955.0
956.0
951.0
951.0
949.0
942.0
937.0
934.0
927.0
924.0
920.0
917.0
917.0
914.0
912.0
910.0
907.0
905.0
906.0
901.0
898.0
896.0
893.0
897.0
895.0
896.0
899.0
900.0
899.0
899.0
898.0
897.0
894.0
893.0
895.0
895.0
896.0
899.0
899.0
903.0
904.0
903.0
902.0
903.0
901.0
903.0
902.0
902.0
905.0
905.0
909.0
910.0
912.0
913.0
912.0
912.0
912.0
910.0
910.0
909.0
911.0
913.0
914.0
918.0
916.0
915.0
913.0
910.0
909.0
908.0
909.0
908.0
908.0
911.0
910.0
909.0
910.0
906.0
908.0
906.0
902.0
900.0
898.0
898.0
896.0
897.0
898.0
901.0
900.0
901.0
898.0
898.0
893.0
890.0
893.0
892.0
893.0
895.0
895.0
894.0
895.0
892.0
893.0
892.0
891.0
892.0
892.0
890.0
890.0
893.0
894.0
896.0
897.0
895.0
895.0
893.0
891.0
891.0
889.0
888.0
890.0
892.0
895.0
896.0
890.0
892.0
890.0
892.0
888.0
891.0
891.0
889.0
890.0
891.0
891.0
892.0
891.0
892.0
894.0
892.0
891.0
890.0
890.0
891.0
890.0
892.0
891.0
893.0
894.0
895.0
891.0
890.0
891.0
891.0
890.0
890.0
890.0
891.0
891.0
892.0
895.0
892.0
894.0
891.0
889.0
889.0
888.0
888.0
888.0
888.0
889.0
889.0
891.0
889.0
890.0
890.0
890.0
888.0
887.0
887.0
889.0
893.0
892.0
895.0
894.0
893.0
890.0
889.0
887.0
884.0
886.0
885.0
889.0
890.0
892.0
896.0
897.0
896.0
894.0
894.0
893.0
892.0
889.0
890.0
892.0
893.0
894.0
898.0
896.0
897.0
896.0
897.0
895.0
895.0
898.0
900.0
904.0
907.0
910.0
913.0
916.0
919.0
922.0
922.0
924.0
925.0
927.0
925.0
926.0
924.0
922.0
921.0
923.0
920.0
920.0
917.0
914.0
911.0
909.0
908.0
903.0
903.0
899.0
901.0
904.0
903.0
902.0
902.0
903.0
903.0
904.0
909.0
919.0
930.0
944.0
969.0
1010.0
1065.0
1140.0
1221.0
1297.0
1353.0
1375.0
1350.0
1269.0
1141.0
1013.0
885.0
757.0
694.0
732.0
790.0
838.0
869.0
880.0
884.0
880.0
881.0
880.0
885.0
885.0
884.0
885.0
882.0
880.0
878.0
876.0
877.0
880.0
880.0
882.0
883.0
884.0
882.0
887.0
887.0
886.0
886.0
886.0
887.0
889.0
892.0
895.0
897.0
899.0
898.0
899.0
896.0
897.0
896.0
896.0
896.0
902.0
902.0
904.0
908.0
909.0
911.0
910.0
909.0
909.0
908.0
907.0
909.0
908.0
911.0
915.0
918.0
921.0
919.0
921.0
920.0
922.0
922.0
923.0
925.0
926.0
928.0
930.0
933.0
938.0
939.0
940.0
940.0
940.0
939.0
939.0
942.0
943.0
946.0
948.0
951.0
951.0
951.0
952.0
952.0
952.0
953.0
954.0
957.0
961.0
964.0
969.0
974.0
976.0
979.0
981.0
984.0
980.0
980.0
982.0
983.0
982.0
979.0
977.0
975.0
970.0
970.0
963.0
959.0
954.0
950.0
942.0
939.0
938.0
935.0
933.0
934.0
931.0
928.0
926.0
924.0
919.0
913.0
913.0
912.0
914.0
914.0
914.0
916.0
917.0
914.0
912.0
911.0
909.0
908.0
905.0
909.0
907.0
909.0
911.0
912.0
912.0
912.0
914.0
913.0
914.0
913.0
911.0
912.0
915.0
917.0
920.0
923.0
924.0
925.0
926.0
925.0
924.0
923.0
921.0
923.0
923.0
927.0
930.0
931.0
928.0
930.0
930.0
930.0
928.0
927.0
925.0
923.0
925.0
925.0
924.0
928.0
930.0
928.0
927.0
925.0
923.0
921.0
920.0
921.0
920.0
921.0
920.0
921.0
921.0
920.0
920.0
913.0
912.0
906.0
909.0
910.0
911.0
913.0
912.0
913.0
912.0
910.0
909.0
909.0
908.0
906.0
906.0
904.0
903.0
904.0
906.0
905.0
905.0
901.0
903.0
904.0
904.0
901.0
901.0
900.0
898.0
902.0
902.0
902.0
903.0
902.0
901.0
900.0
898.0
896.0
897.0
896.0
897.0
899.0
899.0
900.0
901.0
898.0
900.0
898.0
895.0
897.0
894.0
894.0
897.0
896.0
898.0
898.0
902.0
898.0
898.0
897.0
894.0
894.0
893.0
894.0
896.0
895.0
898.0
897.0
897.0
896.0
900.0
898.0
899.0
896.0
895.0
897.0
898.0
897.0
900.0
898.0
900.0
902.0
903.0
902.0
901.0
903.0
904.0
907.0
908.0
910.0
917.0
919.0
919.0
923.0
923.0
926.0
929.0
932.0
931.0
929.0
924.0
921.0
919.0
921.0
919.0
918.0
919.0
918.0
914.0
908.0
904.0
902.0
900.0
900.0
901.0
902.0
905.0
904.0
904.0
904.0
903.0
907.0
911.0
916.0
927.0
942.0
966.0
1007.0
1064.0
1140.0
1229.0
1310.0
1368.0
1389.0
1369.0
1299.0
1172.0
1044.0
916.0
788.0
676.0
696.0
754.0
814.0
858.0
876.0
876.0
872.0
870.0
871.0
875.0
883.0
886.0
888.0
887.0
887.0
883.0
880.0
877.0
877.0
875.0
875.0
876.0
882.0
884.0
887.0
887.0
887.0
885.0
884.0
885.0
885.0
886.0
890.0
891.0
896.0
895.0
899.0
896.0
895.0
896.0
896.0
896.0
897.0
900.0
902.0
904.0
907.0
911.0
911.0
911.0
915.0
913.0
913.0
912.0
911.0
914.0
915.0
916.0
920.0
922.0
923.0
924.0
923.0
923.0
922.0
923.0
923.0
926.0
929.0
931.0
933.0
937.0
935.0
935.0
937.0
935.0
936.0
934.0
935.0
939.0
941.0
943.0
943.0
946.0
947.0
950.0
946.0
944.0
944.0
945.0
945.0
944.0
946.0
948.0
949.0
954.0
954.0
953.0
959.0
959.0
960.0
964.0
964.0
966.0
971.0
973.0
976.0
977.0
973.0
968.0
966.0
962.0
956.0
954.0
950.0
946.0
943.0
941.0
940.0
938.0
932.0
933.0
931.0
923.0
922.0
919.0
915.0
910.0
911.0
910.0
911.0
911.0
911.0
910.0
908.0
906.0
906.0
904.0
904.0
905.0
904.0
903.0
906.0
909.0
906.0
908.0
909.0
909.0
909.0
910.0
910.0
911.0
913.0
914.0
916.0
916.0
919.0
921.0
920.0
919.0
918.0
920.0
921.0
923.0
922.0
924.0
926.0
925.0
928.0
929.0
925.0
927.0
925.0
923.0
925.0
925.0
922.0
924.0
925.0
923.0
925.0
923.0
923.0
922.0
918.0
918.0
918.0
915.0
916.0
913.0
913.0
916.0
917.0
915.0
912.0
911.0
908.0
908.0
906.0
908.0
909.0
907.0
908.0
907.0
906.0
906.0
906.0
905.0
902.0
903.0
899.0
897.0
900.0
902.0
903.0
904.0
904.0
904.0
901.0
900.0
896.0
900.0
897.0
899.0
901.0
900.0
900.0
901.0
900.0
900.0
899.0
898.0
897.0
899.0
898.0
899.0
899.0
899.0
898.0
899.0
898.0
896.0
898.0
895.0
897.0
894.0
896.0
898.0
898.0
897.0
899.0
900.0
900.0
899.0
898.0
894.0
893.0
896.0
897.0
897.0
897.0
900.0
898.0
900.0
901.0
899.0
900.0
901.0
901.0
902.0
904.0
903.0
907.0
911.0
914.0
917.0
918.0
921.0
921.0
923.0
926.0
928.0
932.0
932.0
934.0
930.0
926.0
923.0
922.0
921.0
921.0
920.0
920.0
915.0
914.0
912.0
911.0
908.0
906.0
905.0
905.0
903.0
900.0
899.0
900.0
899.0
902.0
904.0
909.0
915.0
922.0
932.0
944.0
965.0
996.0
1042.0
1103.0
1183.0
1266.0
1337.0
1378.0
1371.0
1304.0
1176.0
1048.0
920.0
792.0
664.0
677.0
743.0
806.0
849.0
873.0
880.0
882.0
882.0
882.0
884.0
887.0
888.0
889.0
885.0
884.0
883.0
882.0
885.0
887.0
889.0
890.0
892.0
887.0
892.0
889.0
889.0
888.0
890.0
892.0
895.0
899.0
899.0
901.0
903.0
901.0
899.0
900.0
900.0
903.0
904.0
901.0
904.0
906.0
908.0
909.0
912.0
912.0
914.0
913.0
913.0
912.0
911.0
914.0
916.0
918.0
920.0
921.0
923.0
922.0
923.0
922.0
923.0
926.0
928.0
932.0
930.0
934.0
935.0
937.0
936.0
936.0
934.0
937.0
937.0
940.0
942.0
942.0
943.0
945.0
946.0
946.0
947.0
946.0
945.0
945.0
944.0
942.0
943.0
947.0
952.0
953.0
956.0
959.0
958.0
957.0
957.0
958.0
959.0
964.0
966.0
969.0
971.0
972.0
972.0
972.0
969.0
965.0
963.0
957.0
953.0
948.0
944.0
940.0
937.0
936.0
935.0
932.0
928.0
925.0
921.0
916.0
915.0
913.0
912.0
916.0
918.0
923.0
928.0
932.0
934.0
934.0
933.0
933.0
938.0
940.0
943.0
949.0
949.0
952.0
953.0
950.0
949.0
945.0
943.0
935.0
931.0
927.0
923.0
924.0
924.0
926.0
928.0
927.0
923.0
923.0
920.0
917.0
917.0
915.0
917.0
915.0
914.0
917.0
917.0
915.0
914.0
915.0
915.0
913.0
913.0
913.0
913.0
914.0
914.0
916.0
917.0
920.0
919.0
916.0
915.0
911.0
910.0
920.0
948.0
1004.0
1088.0
1191.0
1289.0
1354.0
1371.0
1321.0
1193.0
1065.0
937.0
809.0
681.0
653.0
724.0
799.0
854.0
883.0
892.0
890.0
885.0
880.0
880.0
884.0
887.0
890.0
889.0
890.0
887.0
885.0
884.0
883.0
885.0
884.0
887.0
885.0
888.0
886.0
888.0
888.0
890.0
894.0
893.0
894.0
891.0
891.0
890.0
895.0
897.0
897.0
899.0
902.0
902.0
901.0
903.0
902.0
903.0
901.0
901.0
903.0
908.0
910.0
912.0
915.0
917.0
918.0
921.0
919.0
920.0
918.0
921.0
922.0
925.0
927.0
928.0
932.0
936.0
932.0
933.0
933.0
931.0
934.0
936.0
939.0
940.0
942.0
943.0
944.0
949.0
950.0
951.0
951.0
950.0
950.0
947.0
949.0
951.0
954.0
961.0
966.0
971.0
973.0
972.0
970.0
968.0
962.0
960.0
957.0
953.0
949.0
945.0
942.0
940.0
934.0
930.0
926.0
923.0
917.0
913.0
911.0
907.0
905.0
903.0
904.0
905.0
904.0
903.0
903.0
900.0
900.0
898.0
899.0
899.0
902.0
905.0
905.0
905.0
904.0
904.0
905.0
903.0
903.0
904.0
905.0
907.0
910.0
909.0
913.0
915.0
913.0
914.0
911.0
913.0
911.0
911.0
911.0
913.0
912.0
913.0
915.0
916.0
913.0
914.0
914.0
911.0
910.0
910.0
910.0
909.0
910.0
907.0
909.0
909.0
908.0
908.0
905.0
903.0
901.0
900.0
898.0
901.0
901.0
901.0
901.0
901.0
898.0
899.0
895.0
893.0
893.0
892.0
891.0
893.0
893.0
897.0
895.0
896.0
896.0
894.0
890.0
891.0
889.0
887.0
888.0
888.0
890.0
889.0
893.0
895.0
891.0
891.0
888.0
890.0
886.0
885.0
887.0
885.0
885.0
891.0
893.0
892.0
890.0
887.0
885.0
886.0
885.0
885.0
883.0
884.0
887.0
887.0
889.0
889.0
890.0
889.0
887.0
886.0
885.0
883.0
883.0
883.0
883.0
885.0
886.0
888.0
888.0
887.0
886.0
884.0
883.0
883.0
883.0
883.0
883.0
884.0
885.0
885.0
886.0
886.0
886.0
885.0
884.0
882.0
886.0
883.0
885.0
886.0
887.0
888.0
887.0
886.0
883.0
883.0
882.0
883.0
881.0
882.0
883.0
888.0
888.0
889.0
887.0
885.0
887.0
885.0
885.0
884.0
885.0
884.0
886.0
887.0
887.0
889.0
889.0
889.0
886.0
886.0
883.0
884.0
886.0
885.0
888.0
888.0
889.0
890.0
890.0
888.0
889.0
886.0
886.0
885.0
885.0
888.0
888.0
890.0
890.0
890.0
890.0
890.0
888.0
887.0
888.0
887.0
887.0
886.0
889.0
889.0
892.0
894.0
894.0
892.0
891.0
890.0
889.0
888.0
889.0
892.0
894.0
901.0
907.0
907.0
910.0
908.0
910.0
907.0
907.0
904.0
902.0
899.0
898.0
900.0
902.0
904.0
904.0
905.0
906.0
904.0
902.0
901.0
897.0
893.0
892.0
889.0
891.0
893.0
894.0
896.0
897.0
899.0
899.0
900.0
902.0
908.0
918.0
934.0
963.0
1007.0
1065.0
1139.0
1222.0
1297.0
1352.0
1376.0
1361.0
1303.0
1188.0
1060.0
932.0
804.0
698.0
708.0
756.0
807.0
846.0
867.0
873.0
873.0
873.0
877.0
878.0
882.0
882.0
881.0
878.0
876.0
874.0
873.0
873.0
876.0
878.0
878.0
880.0
882.0
883.0
884.0
882.0
881.0
881.0
881.0
880.0
881.0
882.0
884.0
885.0
890.0
888.0
889.0
890.0
890.0
892.0
889.0
892.0
892.0
895.0
896.0
897.0
899.0
900.0
900.0
900.0
899.0
898.0
899.0
903.0
902.0
906.0
905.0
907.0
910.0
911.0
913.0
913.0
913.0
912.0
911.0
910.0
912.0
913.0
915.0
918.0
921.0
922.0
924.0
923.0
922.0
922.0
921.0
922.0
924.0
927.0
929.0
931.0
930.0
932.0
931.0
928.0
928.0
928.0
928.0
928.0
930.0
932.0
931.0
934.0
939.0
940.0
941.0
942.0
942.0
945.0
945.0
949.0
950.0
954.0
962.0
966.0
970.0
970.0
972.0
970.0
969.0
966.0
962.0
961.0
959.0
957.0
956.0
953.0
948.0
945.0
942.0
940.0
935.0
930.0
927.0
924.0
923.0
921.0
916.0
918.0
917.0
917.0
915.0
912.0
908.0
909.0
907.0
904.0
903.0
903.0
904.0
904.0
907.0
906.0
904.0
903.0
905.0
902.0
903.0
904.0
906.0
909.0
911.0
914.0
916.0
916.0
915.0
915.0
917.0
917.0
918.0
918.0
920.0
922.0
923.0
927.0
929.0
930.0
929.0
928.0
924.0
920.0
922.0
923.0
924.0
926.0
925.0
925.0
927.0
925.0
926.0
923.0
921.0
920.0
919.0
918.0
917.0
917.0
918.0
918.0
917.0
917.0
915.0
915.0
912.0
911.0
908.0
906.0
906.0
907.0
907.0
908.0
906.0
907.0
906.0
905.0
903.0
902.0
900.0
899.0
901.0
902.0
901.0
903.0
904.0
901.0
901.0
900.0
898.0
897.0
898.0
896.0
896.0
897.0
895.0
897.0
899.0
898.0
899.0
899.0
896.0
893.0
890.0
890.0
894.0
893.0
895.0
896.0
895.0
896.0
896.0
894.0
894.0
893.0
892.0
891.0
890.0
891.0
892.0
891.0
895.0
893.0
893.0
893.0
892.0
889.0
885.0
887.0
888.0
891.0
893.0
894.0
896.0
894.0
892.0
893.0
891.0
891.0
888.0
887.0
886.0
891.0
890.0
894.0
897.0
896.0
897.0
896.0
893.0
892.0
891.0
890.0
891.0
894.0
893.0
897.0
897.0
897.0
893.0
895.0
890.0
890.0
890.0
892.0
891.0
892.0
896.0
898.0
904.0
908.0
911.0
912.0
911.0
911.0
910.0
908.0
907.0
907.0
905.0
903.0
904.0
904.0
905.0
904.0
903.0
902.0
903.0
903.0
901.0
902.0
901.0
900.0
899.0
895.0
895.0
895.0
894.0
896.0
898.0
901.0
903.0
907.0
917.0
929.0
947.0
983.0
1034.0
1104.0
1192.0
1276.0
1344.0
1379.0
1374.0
1323.0
1214.0
1086.0
958.0
830.0
702.0
690.0
740.0
799.0
846.0
870.0
877.0
875.0
872.0
870.0
874.0
879.0
883.0
885.0
886.0
881.0
878.0
873.0
874.0
873.0
876.0
877.0
881.0
882.0
882.0
881.0
880.0
880.0
879.0
881.0
883.0
885.0
886.0
890.0
892.0
891.0
893.0
891.0
892.0
892.0
892.0
893.0
897.0
897.0
898.0
901.0
904.0
906.0
906.0
906.0
906.0
903.0
902.0
904.0
904.0
909.0
910.0
915.0
916.0
915.0
916.0
916.0
919.0
914.0
914.0
914.0
920.0
920.0
922.0
924.0
927.0
926.0
927.0
928.0
927.0
925.0
926.0
926.0
928.0
927.0
930.0
934.0
936.0
937.0
937.0
934.0
932.0
930.0
930.0
930.0
930.0
931.0
934.0
937.0
939.0
940.0
943.0
942.0
945.0
949.0
952.0
955.0
958.0
960.0
965.0
964.0
965.0
965.0
965.0
958.0
955.0
954.0
944.0
942.0
940.0
938.0
939.0
936.0
934.0
928.0
924.0
918.0
914.0
910.0
908.0
908.0
908.0
906.0
907.0
909.0
907.0
907.0
905.0
906.0
906.0
904.0
904.0
902.0
902.0
903.0
904.0
905.0
909.0
909.0
910.0
910.0
908.0
910.0
909.0
910.0
912.0
914.0
917.0
919.0
918.0
918.0
921.0
920.0
918.0
921.0
920.0
923.0
922.0
924.0
926.0
926.0
928.0
926.0
927.0
925.0
922.0
923.0
922.0
922.0
918.0
923.0
922.0
924.0
925.0
922.0
920.0
918.0
915.0
916.0
913.0
914.0
915.0
914.0
915.0
913.0
910.0
909.0
909.0
912.0
907.0
906.0
907.0
905.0
904.0
904.0
906.0
907.0
907.0
906.0
907.0
905.0
903.0
902.0
901.0
899.0
901.0
901.0
902.0
902.0
902.0
903.0
901.0
902.0
902.0
901.0
901.0
901.0
899.0
899.0
901.0
902.0
904.0
902.0
903.0
902.0
901.0
899.0
898.0
897.0
897.0
900.0
900.0
900.0
901.0
902.0
900.0
901.0
901.0
902.0
900.0
899.0
900.0
898.0
899.0
902.0
901.0
902.0
902.0
902.0
901.0
899.0
896.0
898.0
898.0
899.0
900.0
902.0
900.0
905.0
906.0
903.0
902.0
902.0
899.0
900.0
900.0
899.0
900.0
902.0
905.0
906.0
904.0
903.0
901.0
902.0
899.0
899.0
900.0
901.0
906.0
911.0
914.0
918.0
922.0
924.0
926.0
924.0
920.0
917.0
911.0
911.0
912.0
912.0
917.0
917.0
920.0
918.0
917.0
910.0
909.0
909.0
907.0
907.0
905.0
901.0
904.0
904.0
907.0
910.0
909.0
911.0
914.0
916.0
928.0
945.0
974.0
1020.0
1080.0
1155.0
1236.0
1307.0
1358.0
1377.0
1356.0
1286.0
1158.0
1030.0
902.0
774.0
660.0
685.0
748.0
806.0
848.0
868.0
872.0
870.0
866.0
869.0
878.0
886.0
893.0
899.0
898.0
896.0
892.0
888.0
887.0
887.0
888.0
892.0
892.0
895.0
896.0
894.0
896.0
894.0
895.0
896.0
898.0
901.0
902.0
903.0
906.0
907.0
906.0
906.0
907.0
909.0
908.0
906.0
909.0
910.0
910.0
914.0
911.0
914.0
917.0
917.0
919.0
918.0
916.0
916.0
918.0
917.0
922.0
925.0
931.0
932.0
935.0
934.0
933.0
931.0
929.0
930.0
931.0
932.0
935.0
938.0
941.0
943.0
946.0
948.0
948.0
945.0
945.0
940.0
937.0
938.0
940.0
944.0
945.0
948.0
948.0
949.0
950.0
947.0
941.0
945.0
944.0
945.0
945.0
947.0
951.0
952.0
957.0
961.0
965.0
966.0
966.0
966.0
965.0
967.0
