# Simple Text Format
# Sampling Rate (Hz):= 360.00
# Resolution:= 12
# Labels:= ECG
940.0
940.0
942.0
942.0
941.0
941.0
941.0
939.0
937.0
934.0
934.0
935.0
937.0
944.0
947.0
950.0
954.0
953.0
952.0
950.0
950.0
946.0
946.0
948.0
952.0
957.0
962.0
963.0
962.0
959.0
956.0
951.0
947.0
947.0
945.0
947.0
947.0
947.0
948.0
948.0
947.0
946.0
944.0
940.0
939.0
935.0
932.0
934.0
933.0
937.0
939.0
940.0
940.0
940.0
936.0
934.0
936.0
934.0
934.0
935.0
937.0
936.0
935.0
932.0
927.0
922.0
922.0
925.0
939.0
959.0
988.0
1020.0
1058.0
1098.0
1136.0
1166.0
1173.0
1152.0
1109.0
1051.0
997.0
955.0
936.0
935.0
945.0
959.0
968.0
972.0
971.0
967.0
962.0
956.0
953.0
949.0
948.0
949.0
951.0
951.0
952.0
952.0
950.0
950.0
949.0
945.0
945.0
943.0
944.0
946.0
947.0
949.0
950.0
950.0
949.0
948.0
946.0
946.0
945.0
946.0
947.0
947.0
951.0
951.0
951.0
949.0
949.0
950.0
950.0
950.0
949.0
951.0
951.0
952.0
953.0
953.0
952.0
953.0
951.0
952.0
953.0
951.0
952.0
951.0
953.0
953.0
953.0
954.0
956.0
956.0
956.0
954.0
953.0
952.0
951.0
950.0
950.0
953.0
954.0
954.0
956.0
955.0
956.0
955.0
953.0
953.0
952.0
950.0
952.0
955.0
956.0
958.0
959.0
957.0
959.0
961.0
958.0
963.0
962.0
964.0
967.0
967.0
969.0
973.0
973.0
972.0
977.0
974.0
974.0
971.0
968.0
970.0
969.0
968.0
969.0
969.0
970.0
968.0
967.0
966.0
964.0
962.0
960.0
956.0
957.0
957.0
959.0
962.0
963.0
962.0
961.0
959.0
956.0
955.0
954.0
950.0
952.0
955.0
957.0
958.0
961.0
960.0
959.0
958.0
956.0
955.0
953.0
952.0
951.0
952.0
956.0
956.0
960.0
960.0
959.0
957.0
955.0
950.0
951.0
952.0
951.0
952.0
952.0
954.0
953.0
953.0
952.0
951.0
950.0
950.0
952.0
952.0
952.0
954.0
952.0
952.0
951.0
952.0
954.0
955.0
955.0
958.0
956.0
958.0
957.0
958.0
959.0
961.0
965.0
966.0
967.0
972.0
971.0
974.0
970.0
967.0
963.0
961.0
960.0
960.0
962.0
960.0
960.0
958.0
955.0
955.0
955.0
952.0
950.0
950.0
949.0
945.0
946.0
945.0
946.0
949.0
947.0
946.0
946.0
944.0
945.0
946.0
947.0
950.0
952.0
953.0
953.0
952.0
949.0
944.0
937.0
932.0
930.0
936.0
947.0
967.0
995.0
1026.0
1068.0
1110.0
1151.0
1181.0
1190.0
1173.0
1129.0
1070.0
1010.0
966.0
942.0
940.0
952.0
965.0
973.0
977.0
975.0
972.0
967.0
964.0
963.0
959.0
961.0
961.0
960.0
959.0
957.0
957.0
955.0
954.0
952.0
954.0
955.0
954.0
958.0
958.0
957.0
957.0
956.0
955.0
955.0
955.0
953.0
954.0
955.0
956.0
960.0
960.0
961.0
961.0
960.0
961.0
960.0
959.0
960.0
958.0
959.0
960.0
962.0
965.0
965.0
965.0
963.0
960.0
963.0
962.0
960.0
963.0
963.0
965.0
966.0
965.0
968.0
966.0
964.0
963.0
963.0
963.0
962.0
963.0
963.0
962.0
963.0
963.0
965.0
964.0
964.0
964.0
963.0
963.0
961.0
964.0
966.0
967.0
969.0
971.0
970.0
973.0
974.0
972.0
974.0
976.0
976.0
979.0
981.0
983.0
982.0
985.0
987.0
984.0
982.0
980.0
983.0
982.0
980.0
981.0
980.0
979.0
982.0
978.0
978.0
975.0
973.0
971.0
970.0
970.0
970.0
972.0
974.0
974.0
975.0
975.0
973.0
972.0
970.0
968.0
967.0
966.0
966.0
967.0
969.0
969.0
968.0
970.0
971.0
970.0
969.0
967.0
966.0
962.0
963.0
966.0
967.0
968.0
969.0
968.0
967.0
965.0
962.0
963.0
963.0
964.0
964.0
964.0
965.0
965.0
967.0
968.0
966.0
964.0
963.0
962.0
962.0
963.0
963.0
963.0
964.0
967.0
967.0
968.0
970.0
970.0
973.0
972.0
971.0
971.0
971.0
972.0
976.0
978.0
979.0
980.0
985.0
984.0
983.0
979.0
977.0
976.0
975.0
974.0
975.0
976.0
977.0
974.0
973.0
971.0
972.0
969.0
968.0
966.0
965.0
963.0
962.0
963.0
963.0
963.0
963.0
964.0
963.0
960.0
960.0
960.0
959.0
961.0
962.0
965.0
966.0
966.0
965.0
965.0
959.0
953.0
946.0
943.0
951.0
968.0
989.0
1016.0
1051.0
1092.0
1136.0
1173.0
1198.0
1196.0
1168.0
1115.0
1055.0
1000.0
964.0
949.0
953.0
966.0
982.0
988.0
991.0
989.0
983.0
979.0
974.0
973.0
972.0
973.0
971.0
971.0
972.0
971.0
971.0
968.0
968.0
967.0
963.0
963.0
965.0
967.0
969.0
970.0
972.0
971.0
971.0
969.0
970.0
969.0
967.0
967.0
968.0
968.0
970.0
971.0
974.0
974.0
974.0
974.0
973.0
970.0
970.0
970.0
970.0
972.0
972.0
975.0
976.0
977.0
975.0
975.0
974.0
973.0
972.0
973.0
972.0
975.0
974.0
974.0
973.0
974.0
972.0
973.0
972.0
971.0
970.0
969.0
972.0
973.0
975.0
975.0
976.0
975.0
973.0
969.0
969.0
969.0
969.0
972.0
975.0
974.0
977.0
978.0
978.0
979.0
980.0
982.0
981.0
985.0
985.0
989.0
991.0
992.0
994.0
994.0
995.0
993.0
993.0
992.0
988.0
986.0
984.0
984.0
985.0
986.0
983.0
983.0
982.0
980.0
979.0
977.0
975.0
973.0
974.0
975.0
975.0
976.0
976.0
975.0
973.0
973.0
971.0
967.0
965.0
963.0
965.0
964.0
968.0
968.0
968.0
969.0
968.0
967.0
966.0
964.0
961.0
961.0
961.0
961.0
963.0
964.0
964.0
961.0
962.0
962.0
961.0
959.0
956.0
959.0
957.0
959.0
962.0
963.0
961.0
962.0
960.0
960.0
958.0
955.0
954.0
956.0
955.0
957.0
959.0
961.0
964.0
966.0
968.0
968.0
966.0
966.0
964.0
965.0
969.0
971.0
974.0
975.0
975.0
973.0
971.0
969.0
966.0
965.0
964.0
963.0
960.0
960.0
961.0
961.0
964.0
961.0
959.0
956.0
952.0
949.0
947.0
946.0
944.0
948.0
946.0
948.0
947.0
950.0
950.0
951.0
950.0
951.0
949.0
947.0
944.0
942.0
937.0
934.0
936.0
945.0
960.0
983.0
1011.0
1049.0
1090.0
1136.0
1173.0
1192.0
1180.0
1137.0
1080.0
1017.0
968.0
941.0
936.0
945.0
958.0
970.0
973.0
972.0
974.0
970.0
966.0
965.0
960.0
959.0
957.0
955.0
952.0
952.0
950.0
950.0
952.0
952.0
956.0
957.0
958.0
958.0
956.0
953.0
953.0
954.0
953.0
954.0
955.0
957.0
956.0
957.0
958.0
959.0
956.0
953.0
953.0
955.0
954.0
955.0
955.0
954.0
957.0
957.0
955.0
955.0
955.0
954.0
953.0
953.0
952.0
952.0
952.0
954.0
957.0
957.0
957.0
958.0
959.0
955.0
953.0
953.0
953.0
953.0
955.0
958.0
959.0
961.0
962.0
962.0
958.0
959.0
957.0
953.0
953.0
951.0
956.0
959.0
960.0
960.0
960.0
958.0
959.0
958.0
959.0
962.0
966.0
969.0
973.0
973.0
976.0
977.0
978.0
977.0
977.0
976.0
976.0
974.0
975.0
973.0
974.0
974.0
975.0
970.0
971.0
968.0
966.0
962.0
956.0
953.0
952.0
954.0
952.0
954.0
957.0
957.0
956.0
954.0
952.0
950.0
950.0
952.0
952.0
952.0
953.0
954.0
952.0
952.0
951.0
950.0
948.0
946.0
946.0
945.0
943.0
944.0
941.0
944.0
946.0
947.0
947.0
948.0
944.0
944.0
943.0
942.0
941.0
942.0
943.0
945.0
945.0
946.0
946.0
944.0
942.0
943.0
941.0
942.0
941.0
942.0
941.0
942.0
944.0
946.0
948.0
951.0
952.0
954.0
952.0
951.0
948.0
948.0
950.0
954.0
958.0
961.0
963.0
961.0
957.0
954.0
947.0
949.0
947.0
946.0
947.0
948.0
948.0
949.0
948.0
947.0
946.0
940.0
937.0
935.0
935.0
934.0
934.0
937.0
938.0
938.0
941.0
939.0
938.0
937.0
934.0
935.0
935.0
938.0
939.0
944.0
949.0
956.0
968.0
985.0
1007.0
1034.0
1066.0
1103.0
1143.0
1186.0
1223.0
1240.0
1239.0
1212.0
1160.0
1103.0
1053.0
1020.0
1002.0
991.0
987.0
981.0
976.0
967.0
961.0
955.0
952.0
949.0
943.0
942.0
938.0
937.0
935.0
935.0
935.0
935.0
937.0
938.0
938.0
938.0
935.0
935.0
933.0
934.0
935.0
935.0
938.0
938.0
938.0
939.0
937.0
937.0
933.0
933.0
933.0
935.0
935.0
935.0
935.0
937.0
935.0
934.0
935.0
934.0
933.0
931.0
930.0
933.0
933.0
932.0
931.0
930.0
932.0
932.0
930.0
929.0
930.0
928.0
925.0
925.0
926.0
925.0
927.0
926.0
927.0
925.0
923.0
921.0
917.0
914.0
913.0
913.0
912.0
912.0
914.0
914.0
914.0
913.0
915.0
913.0
911.0
909.0
912.0
912.0
917.0
918.0
922.0
924.0
929.0
933.0
934.0
935.0
938.0
937.0
937.0
937.0
938.0
941.0
940.0
945.0
946.0
948.0
949.0
948.0
947.0
945.0
942.0
942.0
941.0
937.0
938.0
941.0
944.0
945.0
947.0
945.0
943.0
941.0
940.0
939.0
938.0
938.0
940.0
939.0
941.0
941.0
939.0
938.0
939.0
938.0
937.0
938.0
939.0
938.0
940.0
941.0
941.0
942.0
942.0
941.0
941.0
939.0
938.0
938.0
937.0
935.0
937.0
938.0
940.0
941.0
942.0
941.0
938.0
936.0
934.0
932.0
933.0
936.0
938.0
940.0
941.0
940.0
940.0
939.0
936.0
936.0
937.0
938.0
940.0
944.0
947.0
949.0
950.0
951.0
950.0
950.0
948.0
950.0
954.0
955.0
958.0
956.0
954.0
953.0
952.0
953.0
950.0
950.0
949.0
949.0
948.0
947.0
946.0
945.0
944.0
944.0
946.0
945.0
946.0
941.0
940.0
939.0
937.0
934.0
932.0
933.0
935.0
938.0
938.0
940.0
942.0
941.0
940.0
939.0
935.0
937.0
936.0
935.0
932.0
929.0
927.0
929.0
939.0
952.0
976.0
1004.0
1042.0
1085.0
1129.0
1164.0
1180.0
1168.0
1129.0
1070.0
1011.0
961.0
933.0
924.0
934.0
948.0
958.0
965.0
965.0
964.0
961.0
959.0
955.0
953.0
952.0
950.0
950.0
949.0
949.0
949.0
948.0
950.0
950.0
953.0
955.0
953.0
951.0
951.0
949.0
947.0
949.0
949.0
949.0
952.0
953.0
955.0
957.0
957.0
958.0
957.0
956.0
956.0
955.0
954.0
956.0
958.0
960.0
961.0
963.0
963.0
962.0
961.0
959.0
957.0
957.0
958.0
960.0
959.0
962.0
964.0
964.0
964.0
962.0
960.0
958.0
956.0
958.0
959.0
960.0
963.0
963.0
963.0
966.0
965.0
964.0
962.0
959.0
960.0
960.0
961.0
962.0
964.0
967.0
968.0
969.0
969.0
968.0
968.0
969.0
970.0
971.0
973.0
976.0
980.0
982.0
983.0
985.0
983.0
983.0
980.0
981.0
979.0
979.0
978.0
978.0
979.0
978.0
977.0
976.0
974.0
971.0
970.0
968.0
967.0
967.0
965.0
965.0
966.0
967.0
968.0
968.0
967.0
963.0
962.0
958.0
958.0
956.0
958.0
962.0
962.0
967.0
968.0
966.0
964.0
963.0
961.0
962.0
960.0
962.0
963.0
963.0
963.0
964.0
962.0
963.0
963.0
963.0
959.0
960.0
957.0
959.0
959.0
961.0
962.0
962.0
963.0
961.0
960.0
960.0
959.0
958.0
958.0
956.0
956.0
958.0
959.0
962.0
964.0
967.0
970.0
970.0
968.0
967.0
967.0
967.0
967.0
969.0
972.0
978.0
978.0
980.0
982.0
978.0
974.0
970.0
968.0
966.0
967.0
967.0
968.0
968.0
968.0
968.0
969.0
967.0
965.0
962.0
960.0
956.0
953.0
952.0
950.0
953.0
953.0
957.0
960.0
958.0
957.0
956.0
954.0
952.0
951.0
950.0
953.0
955.0
957.0
958.0
957.0
952.0
948.0
945.0
954.0
968.0
995.0
1027.0
1068.0
1109.0
1149.0
1179.0
1197.0
1192.0
1163.0
1114.0
1057.0
1002.0
962.0
944.0
944.0
957.0
974.0
982.0
990.0
988.0
983.0
977.0
970.0
964.0
963.0
962.0
965.0
967.0
969.0
968.0
967.0
965.0
963.0
965.0
968.0
970.0
966.0
966.0
963.0
963.0
964.0
966.0
971.0
973.0
972.0
971.0
967.0
965.0
963.0
963.0
965.0
968.0
969.0
971.0
971.0
971.0
969.0
971.0
972.0
971.0
972.0
971.0
971.0
970.0
970.0
971.0
971.0
973.0
973.0
970.0
970.0
969.0
969.0
971.0
972.0
974.0
974.0
975.0
974.0
973.0
972.0
970.0
970.0
971.0
971.0
971.0
972.0
974.0
975.0
975.0
974.0
975.0
975.0
974.0
975.0
976.0
980.0
983.0
983.0
985.0
980.0
973.0
971.0
969.0
970.0
970.0
972.0
975.0
976.0
977.0
979.0
982.0
982.0
983.0
983.0
984.0
984.0
982.0
982.0
979.0
979.0
980.0
982.0
982.0
985.0
986.0
986.0
982.0
975.0
966.0
960.0
956.0
958.0
960.0
965.0
968.0
967.0
966.0
966.0
964.0
962.0
962.0
963.0
963.0
965.0
968.0
973.0
977.0
975.0
965.0
956.0
948.0
947.0
946.0
953.0
956.0
957.0
958.0
958.0
958.0
957.0
960.0
961.0
963.0
962.0
962.0
961.0
958.0
954.0
953.0
952.0
957.0
962.0
964.0
967.0
964.0
960.0
956.0
950.0
948.0
946.0
953.0
960.0
968.0
970.0
969.0
969.0
967.0
963.0
954.0
949.0
946.0
947.0
952.0
957.0
963.0
968.0
967.0
969.0
965.0
963.0
960.0
959.0
957.0
957.0
958.0
959.0
959.0
957.0
958.0
958.0
959.0
959.0
952.0
947.0
941.0
938.0
941.0
946.0
949.0
951.0
949.0
947.0
946.0
944.0
943.0
943.0
941.0
942.0
944.0
947.0
947.0
947.0
943.0
942.0
936.0
934.0
936.0
944.0
961.0
983.0
1011.0
1047.0
1088.0
1130.0
1165.0
1182.0
1171.0
1131.0
1077.0
1019.0
970.0
942.0
937.0
947.0
958.0
970.0
974.0
976.0
972.0
965.0
961.0
957.0
954.0
953.0
950.0
950.0
951.0
954.0
954.0
956.0
954.0
952.0
950.0
949.0
949.0
945.0
947.0
951.0
952.0
956.0
956.0
959.0
959.0
953.0
945.0
941.0
941.0
942.0
950.0
953.0
955.0
957.0
955.0
952.0
952.0
949.0
948.0
948.0
949.0
949.0
954.0
958.0
960.0
959.0
960.0
954.0
949.0
948.0
947.0
950.0
952.0
954.0
956.0
956.0
960.0
959.0
962.0
960.0
961.0
959.0
954.0
954.0
953.0
952.0
955.0
957.0
959.0
957.0
956.0
958.0
955.0
954.0
954.0
954.0
954.0
955.0
957.0
960.0
961.0
962.0
964.0
965.0
968.0
967.0
967.0
965.0
965.0
965.0
968.0
969.0
972.0
975.0
977.0
979.0
975.0
976.0
974.0
972.0
971.0
973.0
971.0
969.0
970.0
970.0
970.0
970.0
968.0
968.0
965.0
962.0
960.0
957.0
958.0
958.0
958.0
961.0
960.0
961.0
959.0
955.0
954.0
952.0
952.0
952.0
953.0
954.0
956.0
955.0
955.0
957.0
956.0
955.0
953.0
952.0
950.0
950.0
951.0
951.0
952.0
952.0
952.0
954.0
954.0
949.0
949.0
946.0
948.0
945.0
946.0
947.0
950.0
951.0
952.0
954.0
951.0
947.0
943.0
941.0
939.0
943.0
946.0
949.0
953.0
956.0
957.0
959.0
959.0
960.0
958.0
958.0
958.0
957.0
958.0
961.0
963.0
968.0
970.0
971.0
972.0
969.0
967.0
963.0
961.0
957.0
960.0
962.0
962.0
962.0
963.0
963.0
960.0
957.0
953.0
953.0
950.0
948.0
947.0
947.0
948.0
947.0
948.0
951.0
952.0
948.0
949.0
949.0
947.0
945.0
948.0
948.0
952.0
954.0
953.0
949.0
944.0
940.0
942.0
953.0
972.0
996.0
1030.0
1071.0
1114.0
1157.0
1188.0
1200.0
1181.0
1138.0
1077.0
1017.0
967.0
942.0
937.0
946.0
961.0
972.0
978.0
979.0
978.0
974.0
970.0
970.0
965.0
962.0
959.0
962.0
963.0
963.0
963.0
963.0
962.0
960.0
958.0
957.0
957.0
958.0
957.0
958.0
959.0
960.0
963.0
960.0
961.0
961.0
960.0
960.0
958.0
958.0
958.0
959.0
960.0
963.0
963.0
966.0
968.0
968.0
967.0
966.0
964.0
964.0
964.0
962.0
964.0
965.0
967.0
967.0
967.0
968.0
965.0
965.0
964.0
965.0
963.0
967.0
967.0
970.0
969.0
969.0
968.0
967.0
963.0
964.0
962.0
962.0
964.0
964.0
964.0
967.0
968.0
967.0
967.0
967.0
969.0
967.0
968.0
967.0
968.0
970.0
970.0
974.0
977.0
981.0
983.0
983.0
982.0
980.0
981.0
980.0
981.0
982.0
981.0
981.0
979.0
979.0
977.0
976.0
973.0
972.0
970.0
967.0
966.0
965.0
964.0
965.0
966.0
966.0
963.0
963.0
961.0
958.0
956.0
955.0
954.0
955.0
958.0
958.0
959.0
959.0
957.0
956.0
954.0
953.0
953.0
951.0
950.0
954.0
951.0
954.0
953.0
955.0
952.0
951.0
948.0
946.0
943.0
943.0
946.0
949.0
949.0
950.0
950.0
948.0
948.0
948.0
945.0
943.0
943.0
944.0
946.0
948.0
948.0
947.0
947.0
945.0
945.0
944.0
946.0
946.0
947.0
946.0
948.0
950.0
950.0
952.0
952.0
954.0
956.0
957.0
961.0
961.0
961.0
959.0
955.0
955.0
953.0
956.0
956.0
955.0
954.0
951.0
949.0
948.0
947.0
945.0
946.0
944.0
943.0
943.0
940.0
940.0
938.0
936.0
933.0
933.0
935.0
935.0
937.0
937.0
939.0
940.0
941.0
940.0
940.0
937.0
937.0
935.0
932.0
927.0
923.0
923.0
929.0
944.0
966.0
996.0
1035.0
1079.0
1123.0
1166.0
1191.0
1191.0
1164.0
1111.0
1051.0
1001.0
970.0
961.0
962.0
969.0
974.0
975.0
970.0
963.0
956.0
951.0
948.0
947.0
946.0
944.0
945.0
942.0
941.0
938.0
937.0
936.0
938.0
939.0
938.0
940.0
940.0
942.0
943.0
942.0
941.0
939.0
939.0
937.0
938.0
937.0
938.0
944.0
944.0
943.0
944.0
941.0
941.0
939.0
939.0
937.0
939.0
940.0
942.0
946.0
947.0
950.0
949.0
948.0
946.0
944.0
944.0
942.0
942.0
943.0
945.0
945.0
946.0
947.0
947.0
945.0
943.0
941.0
940.0
940.0
941.0
941.0
941.0
941.0
941.0
943.0
943.0
942.0
944.0
944.0
943.0
941.0
940.0
942.0
945.0
947.0
950.0
951.0
952.0
951.0
949.0
948.0
949.0
949.0
950.0
955.0
957.0
956.0
959.0
957.0
956.0
954.0
955.0
953.0
950.0
947.0
947.0
947.0
949.0
950.0
948.0
948.0
945.0
943.0
941.0
936.0
938.0
935.0
936.0
937.0
937.0
939.0
938.0
938.0
937.0
935.0
936.0
935.0
933.0
932.0
934.0
935.0
936.0
939.0
937.0
936.0
935.0
935.0
933.0
933.0
930.0
931.0
931.0
932.0
934.0
933.0
935.0
934.0
932.0
931.0
928.0
925.0
925.0
925.0
925.0
928.0
930.0
934.0
935.0
936.0
936.0
931.0
928.0
927.0
924.0
924.0
927.0
930.0
933.0
935.0
938.0
942.0
941.0
939.0
940.0
936.0
936.0
936.0
938.0
942.0
945.0
948.0
949.0
946.0
944.0
939.0
935.0
932.0
932.0
931.0
933.0
934.0
933.0
934.0
934.0
932.0
931.0
930.0
928.0
924.0
922.0
921.0
920.0
920.0
922.0
925.0
922.0
925.0
923.0
924.0
925.0
924.0
923.0
923.0
922.0
921.0
918.0
913.0
911.0
914.0
920.0
935.0
960.0
990.0
1031.0
1073.0
1121.0
1157.0
1180.0
1175.0
1141.0
1080.0
1010.0
953.0
916.0
899.0
905.0
916.0
931.0
940.0
943.0
946.0
947.0
946.0
942.0
940.0
935.0
932.0
930.0
929.0
929.0
930.0
929.0
932.0
932.0
933.0
934.0
932.0
930.0
929.0
929.0
926.0
928.0
929.0
932.0
933.0
934.0
934.0
933.0
934.0
935.0
932.0
932.0
931.0
934.0
937.0
941.0
941.0
941.0
941.0
941.0
939.0
938.0
936.0
936.0
936.0
939.0
941.0
941.0
944.0
943.0
943.0
942.0
941.0
940.0
939.0
939.0
937.0
940.0
942.0
942.0
944.0
945.0
947.0
946.0
942.0
941.0
939.0
938.0
938.0
939.0
938.0
938.0
939.0
940.0
942.0
942.0
940.0
939.0
938.0
938.0
938.0
941.0
944.0
946.0
952.0
952.0
956.0
956.0
959.0
957.0
955.0
955.0
953.0
956.0
954.0
957.0
959.0
957.0
958.0
958.0
955.0
952.0
950.0
947.0
947.0
948.0
947.0
948.0
948.0
950.0
948.0
948.0
947.0
946.0
944.0
942.0
942.0
942.0
942.0
942.0
943.0
943.0
944.0
944.0
943.0
941.0
939.0
938.0
937.0
938.0
940.0
940.0
942.0
944.0
945.0
942.0
941.0
938.0
936.0
934.0
934.0
935.0
935.0
938.0
939.0
940.0
939.0
937.0
938.0
937.0
936.0
937.0
935.0
935.0
935.0
935.0
937.0
938.0
939.0
939.0
940.0
941.0
941.0
944.0
942.0
944.0
944.0
944.0
947.0
946.0
949.0
951.0
953.0
956.0
955.0
954.0
953.0
950.0
950.0
947.0
946.0
946.0
948.0
949.0
947.0
946.0
945.0
941.0
939.0
940.0
938.0
936.0
936.0
936.0
935.0
934.0
933.0
932.0
931.0
927.0
931.0
932.0
934.0
933.0
937.0
936.0
936.0
936.0
935.0
933.0
933.0
930.0
926.0
924.0
920.0
919.0
926.0
937.0
956.0
982.0
1014.0
1051.0
1090.0
1131.0
1166.0
1179.0
1168.0
1133.0
1080.0
1021.0
973.0
940.0
926.0
930.0
941.0
953.0
960.0
964.0
962.0
961.0
958.0
953.0
948.0
946.0
944.0
942.0
941.0
940.0
941.0
940.0
941.0
941.0
943.0
943.0
945.0
944.0
944.0
942.0
939.0
939.0
938.0
938.0
940.0
943.0
945.0
946.0
945.0
945.0
942.0
942.0
938.0
939.0
940.0
940.0
943.0
945.0
947.0
949.0
949.0
949.0
950.0
948.0
947.0
946.0
946.0
944.0
947.0
947.0
950.0
952.0
953.0
955.0
950.0
953.0
947.0
946.0
945.0
945.0
946.0
952.0
955.0
955.0
955.0
954.0
950.0
948.0
947.0
947.0
946.0
948.0
951.0
953.0
954.0
953.0
955.0
952.0
954.0
953.0
952.0
953.0
954.0
954.0
955.0
957.0
958.0
959.0
961.0
959.0
963.0
965.0
965.0
964.0
968.0
966.0
966.0
966.0
966.0
966.0
967.0
969.0
967.0
967.0
965.0
962.0
958.0
958.0
957.0
957.0
957.0
957.0
956.0
955.0
954.0
952.0
952.0
953.0
953.0
951.0
951.0
948.0
951.0
951.0
951.0
949.0
951.0
950.0
949.0
949.0
947.0
948.0
946.0
947.0
948.0
949.0
949.0
949.0
948.0
946.0
943.0
944.0
941.0
941.0
942.0
944.0
946.0
947.0
949.0
949.0
947.0
944.0
944.0
942.0
942.0
940.0
941.0
943.0
944.0
946.0
948.0
948.0
948.0
944.0
943.0
939.0
939.0
938.0
941.0
943.0
944.0
944.0
944.0
945.0
944.0
945.0
947.0
948.0
949.0
951.0
952.0
954.0
954.0
954.0
953.0
956.0
957.0
957.0
960.0
961.0
960.0
958.0
957.0
952.0
953.0
951.0
953.0
953.0
952.0
949.0
949.0
947.0
947.0
945.0
943.0
944.0
945.0
944.0
944.0
942.0
941.0
940.0
939.0
940.0
939.0
941.0
940.0
941.0
944.0
945.0
946.0
946.0
947.0
943.0
940.0
937.0
931.0
929.0
928.0
931.0
946.0
966.0
991.0
1027.0
1068.0
1110.0
1152.0
1185.0
1199.0
1187.0
1143.0
1086.0
1023.0
974.0
944.0
938.0
945.0
957.0
967.0
975.0
975.0
973.0
970.0
966.0
961.0
957.0
953.0
952.0
950.0
951.0
952.0
951.0
952.0
951.0
950.0
951.0
952.0
952.0
952.0
955.0
953.0
951.0
951.0
950.0
949.0
950.0
950.0
950.0
953.0
955.0
958.0
957.0
958.0
954.0
952.0
953.0
953.0
953.0
955.0
956.0
959.0
961.0
960.0
961.0
959.0
957.0
956.0
955.0
955.0
957.0
956.0
957.0
958.0
960.0
960.0
962.0
961.0
961.0
959.0
960.0
959.0
955.0
959.0
960.0
962.0
963.0
963.0
963.0
963.0
962.0
962.0
961.0
959.0
960.0
961.0
962.0
965.0
967.0
967.0
967.0
967.0
963.0
963.0
965.0
968.0
972.0
978.0
980.0
979.0
982.0
978.0
980.0
978.0
976.0
975.0
972.0
970.0
973.0
972.0
971.0
969.0
970.0
970.0
972.0
974.0
972.0
964.0
961.0
956.0
956.0
956.0
958.0
960.0
960.0
960.0
961.0
964.0
963.0
963.0
960.0
956.0
954.0
952.0
951.0
951.0
953.0
955.0
956.0
958.0
961.0
958.0
956.0
950.0
945.0
943.0
943.0
944.0
946.0
950.0
952.0
951.0
950.0
946.0
947.0
947.0
949.0
950.0
952.0
952.0
952.0
951.0
951.0
947.0
945.0
944.0
944.0
945.0
944.0
946.0
948.0
949.0
952.0
954.0
957.0
958.0
958.0
959.0
960.0
958.0
956.0
952.0
956.0
960.0
966.0
969.0
973.0
972.0
967.0
960.0
957.0
954.0
955.0
956.0
957.0
957.0
957.0
954.0
952.0
947.0
944.0
943.0
942.0
940.0
937.0
938.0
939.0
938.0
940.0
940.0
939.0
940.0
941.0
940.0
940.0
939.0
940.0
942.0
946.0
947.0
951.0
948.0
942.0
935.0
928.0
924.0
927.0
937.0
954.0
978.0
1006.0
1042.0
1080.0
1122.0
1162.0
1186.0
1188.0
1156.0
1103.0
1042.0
984.0
948.0
934.0
937.0
949.0
962.0
969.0
971.0
969.0
966.0
960.0
956.0
948.0
944.0
944.0
946.0
950.0
955.0
954.0
951.0
945.0
942.0
941.0
939.0
938.0
938.0
940.0
942.0
944.0
947.0
945.0
947.0
946.0
944.0
941.0
942.0
943.0
949.0
948.0
948.0
949.0
949.0
949.0
947.0
946.0
945.0
945.0
944.0
944.0
947.0
950.0
951.0
951.0
950.0
949.0
949.0
947.0
946.0
945.0
945.0
947.0
950.0
952.0
953.0
953.0
952.0
953.0
953.0
951.0
949.0
949.0
949.0
950.0
951.0
953.0
952.0
954.0
954.0
953.0
954.0
951.0
952.0
950.0
948.0
947.0
945.0
947.0
949.0
953.0
957.0
958.0
958.0
957.0
957.0
957.0
960.0
963.0
967.0
968.0
972.0
973.0
972.0
974.0
972.0
970.0
966.0
964.0
963.0
962.0
960.0
960.0
963.0
963.0
962.0
960.0
959.0
957.0
954.0
956.0
958.0
960.0
962.0
961.0
957.0
956.0
952.0
951.0
947.0
944.0
943.0
944.0
944.0
944.0
947.0
949.0
953.0
953.0
951.0
950.0
947.0
946.0
948.0
948.0
949.0
950.0
949.0
946.0
943.0
944.0
946.0
949.0
949.0
947.0
942.0
940.0
937.0
935.0
939.0
943.0
948.0
951.0
948.0
946.0
944.0
940.0
937.0
938.0
940.0
940.0
946.0
947.0
949.0
950.0
948.0
950.0
950.0
952.0
954.0
958.0
955.0
953.0
950.0
953.0
954.0
959.0
962.0
966.0
962.0
957.0
952.0
949.0
949.0
948.0
950.0
952.0
955.0
961.0
966.0
966.0
958.0
941.0
927.0
920.0
921.0
924.0
933.0
939.0
943.0
945.0
946.0
946.0
944.0
939.0
937.0
937.0
936.0
938.0
940.0
937.0
933.0
927.0
926.0
935.0
952.0
976.0
1008.0
1042.0
1080.0
1118.0
1156.0
1179.0
1181.0
1155.0
1103.0
1042.0
984.0
946.0
930.0
933.0
945.0
955.0
959.0
962.0
963.0
962.0
959.0
958.0
953.0
948.0
944.0
943.0
943.0
945.0
947.0
948.0
951.0
952.0
951.0
950.0
951.0
950.0
946.0
944.0
944.0
942.0
942.0
944.0
947.0
948.0
950.0
950.0
951.0
951.0
949.0
944.0
940.0
935.0
939.0
942.0
944.0
950.0
952.0
952.0
950.0
943.0
944.0
945.0
949.0
950.0
952.0
953.0
951.0
952.0
952.0
951.0
951.0
946.0
945.0
944.0
943.0
945.0
950.0
951.0
950.0
953.0
952.0
951.0
950.0
949.0
946.0
944.0
945.0
944.0
947.0
946.0
948.0
949.0
949.0
949.0
951.0
951.0
952.0
951.0
952.0
955.0
958.0
960.0
961.0
961.0
964.0
967.0
968.0
969.0
967.0
968.0
968.0
967.0
969.0
971.0
972.0
972.0
972.0
973.0
972.0
969.0
967.0
963.0
961.0
960.0
958.0
960.0
959.0
959.0
959.0
959.0
957.0
954.0
955.0
954.0
954.0
950.0
949.0
949.0
947.0
949.0
950.0
952.0
952.0
951.0
948.0
948.0
945.0
943.0
946.0
947.0
950.0
951.0
950.0
948.0
947.0
946.0
941.0
942.0
939.0
940.0
941.0
944.0
944.0
945.0
946.0
945.0
944.0
942.0
940.0
939.0
940.0
940.0
940.0
942.0
942.0
943.0
942.0
942.0
943.0
945.0
945.0
946.0
947.0
947.0
950.0
948.0
951.0
951.0
950.0
955.0
957.0
959.0
961.0
958.0
957.0
952.0
952.0
949.0
949.0
950.0
949.0
948.0
950.0
948.0
946.0
944.0
942.0
