# Simple Text Format
# Sampling Rate (Hz):= 360.00
# Resolution:= 12
# Labels:= ECG
966.0
959.0
954.0
953.0
951.0
946.0
946.0
945.0
944.0
943.0
948.0
950.0
951.0
951.0
948.0
945.0
943.0
941.0
942.0
945.0
947.0
950.0
949.0
949.0
947.0
943.0
939.0
934.0
935.0
943.0
959.0
993.0
1043.0
1106.0
1180.0
1261.0
1340.0
1402.0
1434.0
1425.0
1375.0
1295.0
1204.0
1106.0
1016.0
938.0
869.0
811.0
776.0
759.0
767.0
789.0
818.0
846.0
869.0
881.0
884.0
880.0
875.0
870.0
863.0
861.0
857.0
854.0
851.0
852.0
853.0
856.0
856.0
858.0
855.0
852.0
851.0
847.0
848.0
847.0
848.0
846.0
845.0
844.0
846.0
846.0
850.0
854.0
857.0
856.0
855.0
853.0
856.0
858.0
864.0
868.0
876.0
881.0
886.0
889.0
894.0
896.0
903.0
909.0
917.0
922.0
929.0
934.0
940.0
950.0
958.0
968.0
977.0
986.0
988.0
993.0
999.0
1006.0
1014.0
1023.0
1031.0
1037.0
1044.0
1048.0
1052.0
1057.0
1061.0
1066.0
1071.0
1076.0
1079.0
1077.0
1081.0
1080.0
1080.0
1081.0
1083.0
1082.0
1077.0
1073.0
1066.0
1061.0
1058.0
1057.0
1055.0
1053.0
1053.0
1047.0
1043.0
1032.0
1028.0
1021.0
1015.0
1012.0
1008.0
1002.0
995.0
989.0
984.0
978.0
975.0
972.0
969.0
963.0
960.0
954.0
950.0
948.0
946.0
947.0
948.0
951.0
952.0
949.0
944.0
941.0
939.0
942.0
947.0
955.0
962.0
968.0
974.0
980.0
983.0
987.0
993.0
995.0
1000.0
998.0
999.0
999.0
999.0
1002.0
1001.0
997.0
988.0
976.0
961.0
946.0
935.0
926.0
921.0
920.0
919.0
920.0
921.0
920.0
921.0
921.0
921.0
919.0
921.0
918.0
915.0
914.0
914.0
915.0
916.0
922.0
920.0
921.0
920.0
918.0
913.0
909.0
909.0
906.0
907.0
911.0
921.0
947.0
983.0
1030.0
1088.0
1156.0
1228.0
1300.0
1367.0
1412.0
1432.0
1421.0
1374.0
1307.0
1228.0
1146.0
1065.0
991.0
920.0
856.0
809.0
782.0
782.0
799.0
825.0
848.0
865.0
869.0
866.0
857.0
850.0
845.0
840.0
839.0
839.0
841.0
839.0
839.0
838.0
835.0
830.0
825.0
821.0
817.0
819.0
820.0
820.0
819.0
819.0
818.0
816.0
815.0
816.0
815.0
818.0
819.0
821.0
822.0
823.0
824.0
830.0
832.0
834.0
840.0
843.0
847.0
848.0
852.0
856.0
862.0
869.0
880.0
886.0
893.0
900.0
907.0
914.0
920.0
930.0
939.0
944.0
950.0
958.0
963.0
971.0
979.0
991.0
1001.0
1009.0
1012.0
1018.0
1023.0
1030.0
1037.0
1045.0
1049.0
1053.0
1055.0
1057.0
1053.0
1053.0
1055.0
1056.0
1055.0
1057.0
1053.0
1053.0
1049.0
1049.0
1046.0
1045.0
1042.0
1038.0
1031.0
1024.0
1020.0
1019.0
1018.0
1012.0
1012.0
1009.0
1004.0
998.0
990.0
985.0
980.0
977.0
970.0
966.0
963.0
958.0
956.0
951.0
950.0
947.0
948.0
944.0
943.0
938.0
932.0
930.0
931.0
932.0
936.0
937.0
941.0
946.0
950.0
956.0
960.0
966.0
971.0
977.0
982.0
984.0
988.0
989.0
991.0
995.0
994.0
993.0
988.0
980.0
966.0
952.0
942.0
933.0
925.0
923.0
916.0
916.0
916.0
913.0
911.0
909.0
909.0
910.0
914.0
913.0
915.0
913.0
913.0
913.0
910.0
909.0
912.0
911.0
911.0
910.0
909.0
906.0
907.0
905.0
903.0
903.0
900.0
906.0
922.0
951.0
993.0
1046.0
1113.0
1189.0
1268.0
1337.0
1389.0
1404.0
1380.0
1321.0
1242.0
1150.0
1058.0
973.0
896.0
835.0
792.0
778.0
784.0
804.0
832.0
857.0
872.0
877.0
874.0
868.0
861.0
853.0
851.0
850.0
851.0
849.0
848.0
846.0
844.0
845.0
843.0
838.0
837.0
834.0
831.0
836.0
838.0
837.0
836.0
837.0
836.0
833.0
831.0
832.0
833.0
839.0
844.0
848.0
850.0
854.0
853.0
857.0
862.0
866.0
871.0
876.0
883.0
884.0
893.0
901.0
908.0
917.0
927.0
935.0
942.0
948.0
953.0
959.0
972.0
984.0
996.0
1008.0
1019.0
1026.0
1031.0
1038.0
1043.0
1051.0
1059.0
1066.0
1071.0
1077.0
1082.0
1084.0
1091.0
1096.0
1101.0
1106.0
1107.0
1107.0
1106.0
1105.0
1104.0
1103.0
1104.0
1104.0
1102.0
1099.0
1096.0
1093.0
1086.0
1083.0
1077.0
1074.0
1071.0
1065.0
1061.0
1058.0
1053.0
1052.0
1045.0
1044.0
1038.0
1029.0
1021.0
1014.0
1008.0
1001.0
1000.0
996.0
993.0
988.0
981.0
976.0
971.0
968.0
965.0
962.0
958.0
955.0
953.0
953.0
951.0
950.0
951.0
951.0
948.0
949.0
947.0
947.0
951.0
959.0
968.0
979.0
990.0
996.0
1003.0
1006.0
1010.0
1011.0
1012.0
1014.0
1015.0
1015.0
1015.0
1011.0
1003.0
992.0
977.0
967.0
958.0
948.0
940.0
933.0
932.0
931.0
934.0
938.0
942.0
942.0
939.0
935.0
932.0
929.0
930.0
935.0
939.0
944.0
947.0
947.0
944.0
941.0
938.0
937.0
934.0
932.0
927.0
920.0
910.0
913.0
927.0
957.0
1013.0
1087.0
1175.0
1269.0
1361.0
1433.0
1471.0
1479.0
1447.0
1390.0
1318.0
1246.0
1171.0
1100.0
1037.0
981.0
931.0
894.0
872.0
866.0
870.0
877.0
883.0
884.0
880.0
870.0
862.0
852.0
843.0
840.0
842.0
844.0
843.0
841.0
839.0
836.0
833.0
832.0
836.0
831.0
831.0
827.0
827.0
826.0
828.0
831.0
834.0
837.0
838.0
838.0
838.0
837.0
837.0
839.0
841.0
843.0
842.0
842.0
847.0
853.0
858.0
864.0
869.0
873.0
875.0
876.0
882.0
889.0
894.0
906.0
915.0
919.0
925.0
930.0
934.0
941.0
950.0
958.0
965.0
969.0
976.0
982.0
989.0
998.0
1011.0
1020.0
1024.0
1027.0
1030.0
1029.0
1028.0
1031.0
1034.0
1039.0
1041.0
1046.0
1044.0
1043.0
1039.0
1036.0
1035.0
1032.0
1028.0
1025.0
1021.0
1018.0
1017.0
1015.0
1011.0
1009.0
1002.0
997.0
993.0
989.0
983.0
978.0
975.0
971.0
966.0
963.0
957.0
952.0
950.0
944.0
941.0
936.0
930.0
923.0
921.0
917.0
919.0
920.0
924.0
927.0
926.0
925.0
921.0
916.0
917.0
919.0
922.0
928.0
936.0
945.0
954.0
963.0
972.0
975.0
983.0
984.0
984.0
984.0
985.0
985.0
986.0
987.0
983.0
975.0
966.0
952.0
938.0
926.0
917.0
913.0
911.0
911.0
910.0
909.0
908.0
908.0
908.0
908.0
907.0
907.0
904.0
903.0
901.0
903.0
905.0
909.0
912.0
913.0
912.0
908.0
902.0
902.0
896.0
897.0
895.0
899.0
914.0
942.0
987.0
1044.0
1115.0
1192.0
1272.0
1346.0
1401.0
1429.0
1425.0
1385.0
1324.0
1252.0
1171.0
1086.0
1004.0
929.0
861.0
800.0
757.0
739.0
743.0
762.0
790.0
816.0
836.0
848.0
848.0
842.0
836.0
828.0
823.0
821.0
819.0
818.0
822.0
823.0
825.0
825.0
821.0
817.0
813.0
810.0
810.0
810.0
811.0
814.0
817.0
816.0
814.0
811.0
807.0
806.0
810.0
811.0
814.0
815.0
815.0
821.0
822.0
826.0
832.0
837.0
840.0
844.0
847.0
849.0
853.0
858.0
865.0
874.0
881.0
890.0
893.0
899.0
905.0
911.0
918.0
925.0
935.0
940.0
947.0
954.0
959.0
968.0
977.0
988.0
998.0
1007.0
1013.0
1017.0
1019.0
1025.0
1030.0
1038.0
1045.0
1050.0
1051.0
1053.0
1056.0
1053.0
1056.0
1054.0
1053.0
1055.0
1054.0
1050.0
1047.0
1044.0
1043.0
1041.0
1036.0
1032.0
1025.0
1017.0
1010.0
1001.0
997.0
996.0
991.0
991.0
985.0
981.0
971.0
965.0
957.0
951.0
948.0
946.0
945.0
939.0
935.0
933.0
931.0
926.0
927.0
927.0
924.0
924.0
921.0
916.0
914.0
914.0
919.0
923.0
927.0
931.0
935.0
940.0
948.0
955.0
959.0
963.0
970.0
974.0
976.0
978.0
980.0
980.0
976.0
971.0
965.0
959.0
945.0
933.0
920.0
912.0
904.0
902.0
901.0
896.0
895.0
890.0
891.0
889.0
889.0
888.0
891.0
892.0
890.0
889.0
887.0
888.0
889.0
890.0
891.0
888.0
882.0
875.0
867.0
866.0
867.0
880.0
897.0
929.0
979.0
1044.0
1121.0
1199.0
1273.0
1338.0
1395.0
1439.0
1466.0
1476.0
1458.0
1425.0
1373.0
1308.0
1236.0
1161.0
1080.0
1002.0
933.0
877.0
844.0
832.0
831.0
837.0
839.0
840.0
839.0
832.0
825.0
820.0
815.0
809.0
807.0
807.0
806.0
806.0
806.0
802.0
799.0
793.0
792.0
790.0
791.0
793.0
796.0
794.0
793.0
792.0
789.0
789.0
786.0
789.0
787.0
786.0
787.0
789.0
790.0
792.0
796.0
798.0
804.0
804.0
806.0
806.0
811.0
813.0
822.0
825.0
833.0
839.0
843.0
848.0
850.0
858.0
864.0
874.0
881.0
887.0
895.0
905.0
915.0
925.0
937.0
946.0
953.0
958.0
963.0
967.0
972.0
979.0
987.0
996.0
1002.0
1008.0
1009.0
1008.0
1009.0
1010.0
1013.0
1014.0
1016.0
1016.0
1012.0
1010.0
1012.0
1011.0
1009.0
1006.0
1000.0
996.0
992.0
988.0
987.0
980.0
977.0
976.0
971.0
969.0
962.0
958.0
950.0
942.0
938.0
928.0
925.0
918.0
912.0
909.0
904.0
902.0
905.0
907.0
906.0
902.0
896.0
894.0
892.0
894.0
898.0
902.0
903.0
905.0
910.0
915.0
920.0
928.0
939.0
946.0
952.0
953.0
957.0
963.0
967.0
971.0
975.0
977.0
976.0
971.0
966.0
956.0
946.0
935.0
920.0
912.0
903.0
898.0
898.0
898.0
899.0
900.0
901.0
899.0
897.0
895.0
894.0
894.0
898.0
900.0
905.0
907.0
903.0
902.0
899.0
899.0
899.0
899.0
900.0
898.0
894.0
893.0
894.0
904.0
928.0
960.0
1005.0
1058.0
1113.0
1182.0
1256.0
1325.0
1380.0
1404.0
1383.0
1327.0
1240.0
1141.0
1045.0
955.0
882.0
824.0
777.0
747.0
737.0
745.0
767.0
792.0
814.0
833.0
843.0
843.0
840.0
831.0
829.0
828.0
825.0
827.0
827.0
825.0
819.0
819.0
815.0
814.0
814.0
813.0
815.0
816.0
813.0
816.0
819.0
822.0
822.0
822.0
820.0
816.0
811.0
811.0
814.0
815.0
821.0
828.0
835.0
839.0
842.0
843.0
844.0
847.0
850.0
857.0
864.0
871.0
874.0
876.0
883.0
888.0
897.0
904.0
911.0
917.0
923.0
928.0
938.0
943.0
954.0
966.0
977.0
986.0
991.0
994.0
999.0
1006.0
1014.0
1020.0
1027.0
1034.0
1037.0
1040.0
1042.0
1044.0
1047.0
1051.0
1053.0
1052.0
1050.0
1044.0
1044.0
1041.0
1040.0
1041.0
1042.0
1038.0
1034.0
1026.0
1018.0
1013.0
1006.0
1004.0
999.0
996.0
991.0
984.0
978.0
971.0
968.0
964.0
960.0
957.0
951.0
945.0
940.0
934.0
928.0
924.0
922.0
920.0
917.0
914.0
910.0
906.0
904.0
901.0
903.0
905.0
906.0
904.0
903.0
904.0
904.0
905.0
911.0
916.0
923.0
929.0
935.0
943.0
945.0
954.0
960.0
964.0
966.0
964.0
962.0
957.0
951.0
942.0
933.0
925.0
917.0
909.0
902.0
895.0
886.0
881.0
876.0
874.0
876.0
873.0
875.0
875.0
875.0
877.0
879.0
880.0
882.0
879.0
874.0
874.0
873.0
872.0
875.0
876.0
880.0
879.0
877.0
870.0
865.0
858.0
857.0
863.0
888.0
931.0
995.0
1075.0
1168.0
1264.0
1355.0
1422.0
1457.0
1452.0
1415.0
1357.0
1290.0
1222.0
1160.0
1103.0
1055.0
1010.0
963.0
914.0
868.0
833.0
820.0
817.0
825.0
830.0
828.0
825.0
820.0
815.0
813.0
810.0
807.0
803.0
799.0
796.0
792.0
790.0
790.0
790.0
793.0
792.0
789.0
785.0
783.0
780.0
779.0
778.0
775.0
776.0
776.0
773.0
770.0
769.0
773.0
775.0
774.0
777.0
780.0
779.0
780.0
780.0
782.0
786.0
790.0
796.0
802.0
801.0
805.0
806.0
807.0
814.0
819.0
824.0
831.0
837.0
842.0
851.0
861.0
869.0
878.0
884.0
895.0
899.0
904.0
910.0
917.0
926.0
937.0
948.0
956.0
963.0
968.0
972.0
977.0
981.0
987.0
996.0
999.0
1004.0
1007.0
1010.0
1011.0
1015.0
1016.0
1018.0
1017.0
1015.0
1010.0
1006.0
1005.0
1004.0
1004.0
1006.0
1001.0
999.0
994.0
983.0
979.0
976.0
970.0
967.0
960.0
958.0
952.0
947.0
941.0
937.0
936.0
931.0
927.0
922.0
915.0
907.0
907.0
906.0
905.0
908.0
908.0
907.0
905.0
900.0
901.0
901.0
906.0
913.0
919.0
928.0
933.0
936.0
939.0
944.0
947.0
950.0
951.0
953.0
956.0
955.0
954.0
951.0
946.0
944.0
936.0
927.0
914.0
900.0
889.0
880.0
876.0
876.0
881.0
885.0
886.0
885.0
886.0
883.0
879.0
877.0
880.0
881.0
882.0
880.0
880.0
881.0
883.0
884.0
888.0
885.0
887.0
887.0
886.0
883.0
877.0
875.0
878.0
885.0
897.0
924.0
964.0
1016.0
1078.0
1150.0
1229.0
1303.0
1365.0
1393.0
1374.0
1320.0
1239.0
1147.0
1055.0
972.0
908.0
863.0
827.0
800.0
774.0
764.0
764.0
777.0
802.0
825.0
843.0
856.0
856.0
850.0
844.0
838.0
834.0
833.0
833.0
833.0
832.0
834.0
832.0
833.0
835.0
832.0
829.0
827.0
825.0
821.0
821.0
821.0
824.0
830.0
831.0
830.0
827.0
827.0
823.0
823.0
825.0
830.0
836.0
840.0
842.0
842.0
848.0
851.0
857.0
864.0
869.0
875.0
879.0
880.0
887.0
894.0
902.0
912.0
918.0
926.0
934.0
937.0
944.0
950.0
958.0
966.0
977.0
986.0
995.0
1002.0
1007.0
1009.0
1017.0
1021.0
1031.0
1038.0
1041.0
1046.0
1051.0
1056.0
1059.0
1063.0
1069.0
1072.0
1074.0
1075.0
1074.0
1071.0
1066.0
1062.0
1062.0
1062.0
1064.0
1065.0
1062.0
1060.0
1050.0
1043.0
1037.0
1030.0
1026.0
1021.0
1016.0
1013.0
1009.0
1005.0
1000.0
995.0
993.0
984.0
975.0
970.0
962.0
959.0
956.0
952.0
949.0
949.0
942.0
936.0
927.0
924.0
918.0
919.0
916.0
914.0
911.0
909.0
908.0
908.0
908.0
908.0
910.0
911.0
910.0
913.0
914.0
919.0
923.0
928.0
938.0
948.0
954.0
960.0
962.0
966.0
968.0
971.0
976.0
976.0
972.0
971.0
964.0
955.0
943.0
935.0
928.0
922.0
919.0
911.0
906.0
901.0
895.0
897.0
898.0
898.0
901.0
901.0
900.0
893.0
883.0
877.0
868.0
865.0
865.0
872.0
881.0
901.0
928.0
961.0
997.0
1038.0
1080.0
1122.0
1162.0
1198.0
1237.0
1276.0
1313.0
1349.0
1382.0
1420.0
1453.0
1483.0
1504.0
1516.0
1513.0
1496.0
1458.0
1408.0
1335.0
1251.0
1161.0
1070.0
990.0
916.0
860.0
822.0
801.0
795.0
799.0
803.0
810.0
806.0
804.0
796.0
787.0
776.0
770.0
767.0
764.0
761.0
761.0
761.0
755.0
752.0
746.0
745.0
742.0
741.0
739.0
734.0
731.0
726.0
721.0
717.0
716.0
715.0
716.0
715.0
711.0
705.0
700.0
694.0
692.0
691.0
693.0
697.0
695.0
695.0
698.0
695.0
698.0
701.0
703.0
707.0
707.0
710.0
710.0
715.0
719.0
724.0
734.0
742.0
750.0
757.0
760.0
767.0
774.0
785.0
795.0
804.0
812.0
822.0
826.0
836.0
844.0
852.0
862.0
872.0
881.0
887.0
891.0
898.0
903.0
910.0
919.0
925.0
931.0
935.0
937.0
938.0
938.0
939.0
941.0
942.0
941.0
942.0
940.0
938.0
936.0
933.0
931.0
925.0
922.0
914.0
910.0
908.0
904.0
902.0
904.0
900.0
897.0
891.0
885.0
877.0
870.0
867.0
865.0
869.0
867.0
869.0
867.0
866.0
865.0
863.0
863.0
864.0
866.0
865.0
868.0
872.0
878.0
883.0
893.0
901.0
905.0
907.0
909.0
909.0
912.0
916.0
923.0
926.0
926.0
922.0
916.0
908.0
895.0
885.0
877.0
865.0
858.0
851.0
848.0
849.0
854.0
854.0
862.0
865.0
868.0
872.0
869.0
869.0
871.0
874.0
883.0
892.0
901.0
910.0
918.0
926.0
933.0
949.0
970.0
992.0
1013.0
1029.0
1042.0
1049.0
1054.0
1058.0
1054.0
1045.0
1022.0
988.0
942.0
894.0
844.0
801.0
751.0
717.0
698.0
691.0
699.0
709.0
727.0
748.0
769.0
789.0
804.0
814.0
821.0
825.0
828.0
831.0
835.0
839.0
839.0
839.0
836.0
836.0
833.0
830.0
832.0
835.0
836.0
839.0
843.0
845.0
844.0
846.0
848.0
852.0
853.0
852.0
854.0
854.0
858.0
862.0
866.0
873.0
879.0
886.0
890.0
895.0
898.0
903.0
908.0
916.0
927.0
937.0
946.0
957.0
966.0
974.0
980.0
986.0
995.0
1002.0
1010.0
1019.0
1027.0
1032.0
1041.0
1049.0
1059.0
1064.0
1073.0
1076.0
1081.0
1085.0
1088.0
1094.0
1100.0
1105.0
1111.0
1114.0
1113.0
1111.0
1108.0
1106.0
1106.0
1104.0
1100.0
1098.0
1093.0
1087.0
1082.0
1076.0
1072.0
1065.0
1055.0
1045.0
1034.0
1023.0
1016.0
1009.0
1005.0
1002.0
999.0
992.0
985.0
978.0
972.0
967.0
966.0
960.0
960.0
958.0
954.0
953.0
950.0
948.0
948.0
944.0
938.0
937.0
934.0
928.0
928.0
927.0
928.0
930.0
928.0
927.0
929.0
925.0
922.0
922.0
923.0
924.0
923.0
919.0
916.0
917.0
920.0
929.0
932.0
937.0
939.0
944.0
944.0
942.0
945.0
953.0
958.0
962.0
962.0
959.0
956.0
950.0
942.0
936.0
925.0
916.0
905.0
899.0
888.0
882.0
878.0
878.0
879.0
880.0
880.0
877.0
875.0
874.0
874.0
876.0
877.0
881.0
884.0
886.0
885.0
880.0
879.0
877.0
880.0
879.0
880.0
878.0
876.0
874.0
872.0
881.0
900.0
933.0
977.0
1042.0
1120.0
1213.0
1309.0
1387.0
1439.0
1451.0
1427.0
1381.0
1314.0
1242.0
1169.0
1093.0
1013.0
934.0
862.0
807.0
783.0
784.0
803.0
826.0
843.0
844.0
841.0
831.0
818.0
811.0
806.0
806.0
811.0
815.0
815.0
810.0
805.0
800.0
795.0
797.0
795.0
792.0
789.0
789.0
785.0
786.0
788.0
786.0
788.0
787.0
782.0
782.0
780.0
780.0
781.0
785.0
785.0
787.0
787.0
788.0
791.0
793.0
795.0
802.0
805.0
808.0
810.0
816.0
820.0
827.0
831.0
842.0
846.0
849.0
854.0
861.0
869.0
875.0
882.0
888.0
895.0
902.0
907.0
916.0
925.0
932.0
942.0
947.0
952.0
956.0
963.0
970.0
981.0
989.0
994.0
999.0
1003.0
1002.0
1007.0
1004.0
1008.0
1009.0
1011.0
1011.0
1011.0
1012.0
1014.0
1017.0
1015.0
1015.0
1012.0
1006.0
1000.0
992.0
988.0
984.0
983.0
980.0
976.0
971.0
963.0
958.0
952.0
944.0
943.0
939.0
935.0
930.0
928.0
923.0
919.0
919.0
918.0
924.0
922.0
918.0
917.0
913.0
912.0
917.0
922.0
928.0
935.0
941.0
945.0
947.0
949.0
953.0
955.0
961.0
961.0
967.0
967.0
967.0
964.0
963.0
957.0
948.0
933.0
921.0
907.0
897.0
889.0
887.0
889.0
890.0
893.0
892.0
891.0
888.0
887.0
886.0
886.0
887.0
888.0
889.0
889.0
888.0
889.0
890.0
891.0
894.0
894.0
892.0
889.0
886.0
881.0
880.0
880.0
883.0
893.0
916.0
952.0
1006.0
1078.0
1163.0
1253.0
1339.0
1403.0
1433.0
1426.0
1384.0
1332.0
1270.0
1200.0
1136.0
1069.0
1000.0
930.0
865.0
813.0
790.0
791.0
808.0
833.0
856.0
866.0
864.0
856.0
847.0
839.0
834.0
832.0
832.0
834.0
831.0
830.0
830.0
829.0
826.0
827.0
825.0
823.0
819.0
817.0
816.0
816.0
817.0
819.0
817.0
817.0
812.0
807.0
808.0
807.0
802.0
804.0
810.0
813.0
813.0
817.0
816.0
820.0
824.0
827.0
832.0
835.0
837.0
840.0
845.0
853.0
860.0
868.0
875.0
885.0
890.0
894.0
899.0
904.0
913.0
922.0
931.0
938.0
948.0
957.0
964.0
972.0
982.0
991.0
998.0
1004.0
1009.0
1012.0
1018.0
1025.0
1032.0
1040.0
1046.0
1051.0
1053.0
1050.0
1053.0
1051.0
1051.0
1051.0
1051.0
1055.0
1055.0
1051.0
1049.0
1049.0
1047.0
1044.0
1043.0
1038.0
1028.0
1023.0
1019.0
1016.0
1015.0
1012.0
1010.0
1003.0
995.0
987.0
980.0
973.0
967.0
967.0
962.0
958.0
955.0
951.0
946.0
944.0
941.0
940.0
935.0
934.0
931.0
930.0
928.0
927.0
930.0
933.0
940.0
942.0
946.0
947.0
951.0
955.0
960.0
963.0
969.0
972.0
977.0
980.0
985.0
984.0
985.0
982.0
975.0
966.0
952.0
939.0
927.0
920.0
917.0
911.0
908.0
906.0
903.0
900.0
899.0
899.0
899.0
900.0
898.0
899.0
897.0
897.0
899.0
903.0
901.0
904.0
903.0
903.0
899.0
896.0
897.0
897.0
899.0
898.0
893.0
893.0
893.0
904.0
927.0
969.0
1026.0
1097.0
1184.0
1279.0
1368.0
1438.0
1470.0
1461.0
1417.0
1350.0
1277.0
1203.0
1135.0
1072.0
1010.0
943.0
886.0
844.0
827.0
830.0
843.0
857.0
867.0
868.0
863.0
854.0
849.0
842.0
837.0
836.0
836.0
835.0
837.0
834.0
832.0
829.0
829.0
823.0
820.0
818.0
817.0
820.0
820.0
820.0
817.0
813.0
808.0
806.0
806.0
805.0
806.0
807.0
807.0
808.0
811.0
813.0
816.0
818.0
820.0
821.0
825.0
824.0
824.0
828.0
832.0
838.0
845.0
850.0
855.0
857.0
864.0
865.0
873.0
878.0
888.0
894.0
901.0
906.0
913.0
918.0
925.0
933.0
942.0
949.0
955.0
961.0
967.0
974.0
981.0
992.0
997.0
1005.0
1013.0
1016.0
1018.0
1018.0
1022.0
1026.0
1032.0
1034.0
1037.0
1040.0
1041.0
1040.0
1039.0
1042.0
1041.0
1042.0
1039.0
1034.0
1030.0
1026.0
1026.0
1026.0
1025.0
1024.0
1021.0
1015.0
1010.0
1001.0
996.0
990.0
987.0
983.0
979.0
976.0
971.0
964.0
959.0
954.0
949.0
946.0
944.0
941.0
939.0
938.0
936.0
936.0
936.0
939.0
938.0
938.0
937.0
936.0
935.0
937.0
938.0
948.0
954.0
964.0
972.0
974.0
979.0
979.0
980.0
983.0
988.0
991.0
994.0
995.0
992.0
987.0
980.0
970.0
960.0
953.0
945.0
937.0
927.0
920.0
912.0
907.0
909.0
910.0
910.0
916.0
917.0
916.0
911.0
909.0
907.0
908.0
907.0
906.0
908.0
906.0
908.0
911.0
911.0
914.0
918.0
917.0
916.0
912.0
906.0
902.0
902.0
902.0
914.0
939.0
979.0
1030.0
1093.0
1164.0
1245.0
1323.0
1388.0
1421.0
1414.0
1370.0
1298.0
1218.0
1136.0
1059.0
998.0
951.0
912.0
876.0
843.0
815.0
797.0
792.0
803.0
826.0
849.0
868.0
880.0
882.0
876.0
872.0
867.0
865.0
862.0
864.0
865.0
864.0
860.0
857.0
854.0
851.0
850.0
853.0
852.0
854.0
854.0
851.0
854.0
856.0
857.0
860.0
862.0
860.0
859.0
857.0
858.0
862.0
867.0
875.0
882.0
889.0
892.0
895.0
897.0
900.0
907.0
910.0
915.0
923.0
929.0
937.0
945.0
954.0
966.0
972.0
979.0
985.0
990.0
994.0
1000.0
1008.0
1018.0
1029.0
1039.0
1045.0
1052.0
1054.0
1059.0
1063.0
1067.0
1075.0
1080.0
1083.0
1085.0
1087.0
1087.0
1087.0
1090.0
1090.0
1091.0
1087.0
1083.0
1080.0
1077.0
1074.0
1074.0
1074.0
1073.0
1071.0
1061.0
1057.0
1051.0
1044.0
1042.0
1038.0
1033.0
1031.0
1024.0
1019.0
1011.0
1007.0
999.0
996.0
990.0
984.0
975.0
965.0
960.0
955.0
952.0
951.0
949.0
946.0
942.0
937.0
936.0
933.0
931.0
930.0
929.0
928.0
929.0
931.0
932.0
934.0
935.0
939.0
939.0
940.0
943.0
949.0
955.0
965.0
972.0
981.0
986.0
991.0
996.0
999.0
1003.0
1004.0
1004.0
1004.0
998.0
992.0
984.0
974.0
963.0
954.0
945.0
938.0
930.0
927.0
925.0
922.0
926.0
930.0
930.0
932.0
932.0
929.0
926.0
926.0
926.0
926.0
919.0
907.0
895.0
890.0
891.0
896.0
907.0
924.0
945.0
971.0
1000.0
1034.0
1076.0
1132.0
1200.0
1274.0
1348.0
1416.0
1476.0
1520.0
1546.0
1551.0
1541.0
1513.0
1468.0
1408.0
1334.0
1256.0
1174.0
1097.0
1023.0
960.0
908.0
878.0
863.0
860.0
861.0
865.0
864.0
863.0
858.0
852.0
847.0
840.0
835.0
832.0
831.0
827.0
824.0
824.0
822.0
821.0
816.0
815.0
814.0
816.0
814.0
813.0
807.0
803.0
799.0
795.0
795.0
797.0
797.0
799.0
799.0
798.0
798.0
797.0
796.0
795.0
795.0
795.0
797.0
798.0
799.0
800.0
803.0
807.0
812.0
816.0
819.0
816.0
819.0
824.0
827.0
838.0
845.0
856.0
862.0
867.0
871.0
879.0
884.0
889.0
896.0
899.0
907.0
915.0
922.0
930.0
941.0
951.0
962.0
968.0
972.0
976.0
977.0
981.0
986.0
992.0
1002.0
1007.0
1012.0
1013.0
1009.0
1012.0
1010.0
1009.0
1008.0
1008.0
1008.0
1007.0
1007.0
1004.0
1003.0
1000.0
998.0
998.0
995.0
991.0
986.0
982.0
977.0
973.0
970.0
967.0
964.0
959.0
955.0
946.0
942.0
935.0
932.0
931.0
930.0
930.0
928.0
926.0
924.0
924.0
921.0
922.0
924.0
928.0
926.0
927.0
926.0
926.0
928.0
932.0
939.0
945.0
949.0
953.0
957.0
961.0
966.0
969.0
975.0
981.0
985.0
991.0
992.0
995.0
993.0
991.0
988.0
983.0
975.0
962.0
951.0
940.0
930.0
926.0
921.0
919.0
920.0
920.0
918.0
915.0
910.0
908.0
908.0
910.0
914.0
914.0
917.0
918.0
916.0
911.0
910.0
908.0
909.0
910.0
914.0
913.0
911.0
909.0
906.0
906.0
902.0
901.0
902.0
913.0
932.0
968.0
1022.0
1085.0
1162.0
1249.0
1332.0
1401.0
1434.0
1427.0
1377.0
1301.0
1211.0
1114.0
1025.0
951.0
889.0
838.0
796.0
768.0
760.0
764.0
784.0
806.0
830.0
845.0
851.0
850.0
848.0
845.0
843.0
839.0
839.0
837.0
836.0
835.0
833.0
833.0
835.0
832.0
831.0
827.0
824.0
822.0
822.0
825.0
825.0
823.0
822.0
819.0
820.0
820.0
823.0
827.0
832.0
833.0
837.0
838.0
837.0
837.0
837.0
843.0
849.0
854.0
860.0
863.0
868.0
872.0
878.0
884.0
890.0
895.0
903.0
908.0
914.0
922.0
927.0
934.0
943.0
955.0
962.0
968.0
974.0
984.0
993.0
1001.0
1008.0
1016.0
1025.0
1030.0
1037.0
1045.0
1052.0
1057.0
1062.0
1065.0
1065.0
1066.0
1066.0
1066.0
1072.0
1076.0
1075.0
1074.0
1071.0
1065.0
1060.0
1055.0
1052.0
1048.0
1045.0
1043.0
1038.0
1030.0
1029.0
1023.0
1015.0
1011.0
1010.0
999.0
993.0
988.0
983.0
976.0
973.0
972.0
968.0
967.0
963.0
957.0
951.0
951.0
947.0
945.0
950.0
950.0
951.0
949.0
950.0
948.0
949.0
950.0
955.0
961.0
967.0
970.0
978.0
982.0
986.0
994.0
1001.0
1008.0
1011.0
1011.0
1011.0
1009.0
1008.0
1004.0
1000.0
997.0
989.0
978.0
967.0
952.0
942.0
935.0
928.0
923.0
922.0
921.0
920.0
919.0
918.0
918.0
922.0
924.0
925.0
922.0
920.0
916.0
916.0
913.0
913.0
914.0
912.0
908.0
903.0
900.0
899.0
904.0
913.0
929.0
948.0
974.0
1004.0
1040.0
1088.0
1148.0
1217.0
1290.0
1364.0
1434.0
1489.0
1526.0
1546.0
1540.0
1516.0
1479.0
1428.0
1367.0
1295.0
1218.0
1146.0
1075.0
1009.0
946.0
896.0
866.0
855.0
859.0
864.0
866.0
868.0
862.0
855.0
849.0
843.0
837.0
834.0
830.0
830.0
828.0
827.0
828.0
831.0
827.0
825.0
822.0
817.0
814.0
812.0
810.0
811.0
813.0
812.0
816.0
812.0
813.0
817.0
820.0
823.0
820.0
817.0
814.0
813.0
813.0
818.0
821.0
831.0
833.0
836.0
835.0
835.0
836.0
844.0
851.0
857.0
866.0
874.0
876.0
880.0
883.0
889.0
896.0
902.0
911.0
919.0
923.0
930.0
940.0
949.0
959.0
969.0
976.0
982.0
989.0
993.0
998.0
1001.0
1004.0
1014.0
1018.0
1023.0
1027.0
1027.0
1034.0
1036.0
1040.0
1044.0
1045.0
1046.0
1043.0
1042.0
1040.0
1036.0
1041.0
1043.0
1042.0
1041.0
1038.0
1030.0
1022.0
1014.0
1009.0
1005.0
1005.0
1008.0
1006.0
1002.0
995.0
987.0
979.0
971.0
965.0
962.0
958.0
953.0
951.0
947.0
945.0
943.0
943.0
946.0
947.0
944.0
941.0
936.0
935.0
935.0
937.0
942.0
943.0
946.0
947.0
953.0
955.0
958.0
962.0
974.0
984.0
986.0
993.0
999.0
1005.0
1008.0
1011.0
1012.0
1018.0
1017.0
1011.0
1004.0
995.0
984.0
978.0
970.0
964.0
957.0
953.0
949.0
943.0
938.0
933.0
933.0
934.0
935.0
937.0
938.0
940.0
940.0
940.0
942.0
940.0
939.0
940.0
941.0
938.0
937.0
936.0
935.0
939.0
941.0
944.0
941.0
938.0
937.0
945.0
967.0
1001.0
1048.0
1103.0
1160.0
1228.0
1298.0
1367.0
1421.0
1448.0
1429.0
1374.0
1289.0
1187.0
1082.0
990.0
916.0
857.0
816.0
792.0
785.0
793.0
811.0
832.0
853.0
870.0
884.0
889.0
890.0
887.0
