# Simple Text Format
# Sampling Rate (Hz):= 360.00
# Resolution:= 12
# Labels:= ECG
869.0
877.0
886.0
895.0
903.0
913.0
921.0
930.0
943.0
953.0
963.0
971.0
981.0
988.0
993.0
998.0
1005.0
1016.0
1023.0
1034.0
1039.0
1047.0
1053.0
1056.0
1061.0
1061.0
1064.0
1067.0
1070.0
1071.0
1070.0
1075.0
1074.0
1074.0
1073.0
1070.0
1071.0
1067.0
1063.0
1061.0
1058.0
1057.0
1057.0
1057.0
1059.0
1058.0
1056.0
1052.0
1043.0
1039.0
1034.0
1031.0
1029.0
1028.0
1028.0
1026.0
1023.0
1022.0
1021.0
1022.0
1023.0
1022.0
1023.0
1023.0
1022.0
1018.0
1018.0
1019.0
1023.0
1026.0
1031.0
1034.0
1036.0
1032.0
1031.0
1029.0
1033.0
1036.0
1040.0
1043.0
1048.0
1054.0
1060.0
1064.0
1067.0
1070.0
1075.0
1080.0
1082.0
1086.0
1085.0
1089.0
1090.0
1087.0
1084.0
1077.0
1064.0
1052.0
1039.0
1027.0
1021.0
1019.0
1019.0
1017.0
1016.0
1014.0
1015.0
1012.0
1013.0
1013.0
1014.0
1017.0
1014.0
1014.0
1011.0
1011.0
1012.0
1015.0
1019.0
1020.0
1021.0
1020.0
1018.0
1012.0
1010.0
1006.0
1004.0
1006.0
1007.0
1015.0
1033.0
1062.0
1106.0
1159.0
1226.0
1298.0
1380.0
1460.0
1530.0
1575.0
1581.0
1543.0
1472.0
1373.0
1263.0
1153.0
1055.0
975.0
916.0
880.0
871.0
883.0
908.0
933.0
955.0
969.0
972.0
967.0
958.0
951.0
944.0
945.0
945.0
946.0
947.0
952.0
952.0
949.0
950.0
945.0
941.0
939.0
939.0
940.0
944.0
947.0
950.0
949.0
950.0
951.0
949.0
955.0
956.0
959.0
962.0
965.0
966.0
971.0
977.0
984.0
989.0
992.0
993.0
993.0
995.0
998.0
1006.0
1015.0
1024.0
1029.0
1035.0
1039.0
1045.0
1054.0
1061.0
1068.0
1073.0
1074.0
1077.0
1078.0
1087.0
1093.0
1102.0
1113.0
1126.0
1132.0
1137.0
1139.0
1139.0
1144.0
1149.0
1156.0
1159.0
1169.0
1171.0
1169.0
1167.0
1166.0
1164.0
1169.0
1170.0
1169.0
1166.0
1163.0
1158.0
1153.0
1147.0
1139.0
1137.0
1133.0
1125.0
1116.0
1108.0
1099.0
1093.0
1091.0
1088.0
1085.0
1077.0
1072.0
1066.0
1059.0
1051.0
1043.0
1040.0
1036.0
1031.0
1028.0
1023.0
1021.0
1016.0
1011.0
1008.0
1008.0
1004.0
1002.0
999.0
995.0
995.0
996.0
997.0
1000.0
1002.0
1003.0
1001.0
1001.0
999.0
999.0
997.0
997.0
1000.0
1001.0
1004.0
1004.0
1002.0
1002.0
1004.0
1006.0
1009.0
1017.0
1022.0
1027.0
1031.0
1034.0
1039.0
1045.0
1050.0
1053.0
1054.0
1052.0
1049.0
1044.0
1039.0
1033.0
1030.0
1024.0
1014.0
1000.0
993.0
984.0
984.0
983.0
984.0
986.0
984.0
982.0
981.0
980.0
982.0
985.0
987.0
988.0
988.0
988.0
986.0
985.0
983.0
981.0
984.0
988.0
990.0
993.0
990.0
985.0
978.0
974.0
973.0
982.0
1004.0
1038.0
1095.0
1165.0
1247.0
1342.0
1434.0
1517.0
1576.0
1602.0
1590.0
1544.0
1470.0
1381.0
1291.0
1192.0
1103.0
1020.0
951.0
895.0
865.0
853.0
864.0
883.0
907.0
927.0
941.0
946.0
945.0
942.0
935.0
930.0
931.0
931.0
930.0
928.0
927.0
923.0
921.0
918.0
919.0
922.0
923.0
924.0
924.0
922.0
918.0
914.0
913.0
913.0
913.0
916.0
919.0
920.0
923.0
923.0
924.0
924.0
925.0
924.0
928.0
929.0
926.0
928.0
933.0
934.0
940.0
944.0
952.0
953.0
955.0
958.0
958.0
960.0
968.0
972.0
978.0
984.0
989.0
994.0
993.0
1001.0
1007.0
1012.0
1019.0
1023.0
1030.0
1032.0
1037.0
1041.0
1046.0
1053.0
1059.0
1066.0
1070.0
1076.0
1078.0
1080.0
1084.0
1089.0
1095.0
1100.0
1105.0
1108.0
1107.0
1108.0
1107.0
1105.0
1102.0
1105.0
1104.0
1100.0
1093.0
1093.0
1088.0
1085.0
1079.0
1079.0
1075.0
1069.0
1063.0
1056.0
1050.0
1042.0
1039.0
1039.0
1039.0
1035.0
1030.0
1024.0
1019.0
1013.0
1009.0
1007.0
1006.0
1003.0
1001.0
999.0
1000.0
999.0
997.0
998.0
1000.0
1000.0
998.0
996.0
995.0
996.0
999.0
1000.0
1004.0
1008.0
1012.0
1013.0
1016.0
1017.0
1021.0
1026.0
1033.0
1038.0
1045.0
1047.0
1049.0
1049.0
1052.0
1052.0
1053.0
1052.0
1048.0
1040.0
1028.0
1018.0
1008.0
1002.0
999.0
994.0
990.0
984.0
982.0
979.0
977.0
978.0
981.0
981.0
982.0
982.0
982.0
981.0
980.0
979.0
980.0
985.0
982.0
981.0
981.0
980.0
980.0
982.0
983.0
981.0
975.0
973.0
975.0
990.0
1024.0
1079.0
1154.0
1247.0
1347.0
1446.0
1527.0
1567.0
1557.0
1507.0
1422.0
1322.0
1217.0
1115.0
1029.0
960.0
906.0
876.0
866.0
874.0
897.0
920.0
938.0
949.0
951.0
948.0
940.0
936.0
930.0
927.0
929.0
928.0
928.0
929.0
929.0
927.0
924.0
918.0
917.0
913.0
916.0
917.0
921.0
920.0
917.0
917.0
917.0
918.0
916.0
916.0
918.0
920.0
919.0
922.0
925.0
928.0
932.0
935.0
937.0
939.0
939.0
940.0
943.0
949.0
953.0
958.0
967.0
972.0
975.0
980.0
985.0
991.0
997.0
1004.0
1012.0
1019.0
1026.0
1034.0
1040.0
1049.0
1059.0
1068.0
1073.0
1079.0
1079.0
1084.0
1090.0
1095.0
1104.0
1113.0
1121.0
1126.0
1131.0
1131.0
1132.0
1134.0
1134.0
1132.0
1135.0
1136.0
1135.0
1131.0
1132.0
1130.0
1126.0
1121.0
1116.0
1112.0
1106.0
1103.0
1098.0
1097.0
1095.0
1092.0
1087.0
1084.0
1078.0
1072.0
1067.0
1059.0
1057.0
1052.0
1046.0
1043.0
1040.0
1039.0
1035.0
1040.0
1038.0
1037.0
1034.0
1031.0
1030.0
1028.0
1028.0
1029.0
1031.0
1033.0
1036.0
1039.0
1038.0
1043.0
1047.0
1053.0
1056.0
1060.0
1060.0
1062.0
1066.0
1071.0
1076.0
1080.0
1080.0
1078.0
1073.0
1064.0
1058.0
1045.0
1036.0
1029.0
1024.0
1020.0
1015.0
1011.0
1008.0
1005.0
1004.0
1003.0
1006.0
1007.0
1007.0
1004.0
1006.0
1006.0
1008.0
1011.0
1012.0
1014.0
1010.0
1009.0
1006.0
1003.0
1004.0
1005.0
1006.0
1010.0
1007.0
1005.0
998.0
994.0
1000.0
1019.0
1053.0
1101.0
1166.0
1244.0
1330.0
1421.0
1502.0
1564.0
1592.0
1579.0
1535.0
1464.0
1380.0
1292.0
1211.0
1138.0
1074.0
1015.0
967.0
938.0
928.0
935.0
951.0
965.0
980.0
982.0
978.0
975.0
969.0
962.0
960.0
954.0
954.0
955.0
955.0
953.0
952.0
950.0
944.0
942.0
939.0
940.0
942.0
943.0
945.0
944.0
935.0
937.0
934.0
934.0
936.0
937.0
939.0
940.0
942.0
940.0
940.0
941.0
941.0
945.0
948.0
949.0
947.0
951.0
956.0
957.0
966.0
970.0
976.0
981.0
983.0
981.0
985.0
990.0
998.0
1006.0
1013.0
1023.0
1029.0
1034.0
1043.0
1049.0
1056.0
1067.0
1074.0
1081.0
1086.0
1093.0
1105.0
1112.0
1121.0
1129.0
1135.0
1139.0
1139.0
1140.0
1142.0
1146.0
1148.0
1154.0
1159.0
1164.0
1166.0
1167.0
1165.0
1163.0
1162.0
1162.0
1161.0
1159.0
1154.0
1151.0
1148.0
1142.0
1140.0
1140.0
1141.0
1136.0
1131.0
1123.0
1116.0
1108.0
1103.0
1101.0
1102.0
1098.0
1096.0
1091.0
1084.0
1078.0
1071.0
1066.0
1062.0
1059.0
1053.0
1052.0
1050.0
1049.0
1054.0
1053.0
1055.0
1054.0
1053.0
1051.0
1051.0
1048.0
1052.0
1060.0
1064.0
1072.0
1078.0
1079.0
1081.0
1085.0
1087.0
1091.0
1091.0
1096.0
1096.0
1097.0
1093.0
1088.0
1083.0
1074.0
1065.0
1054.0
1042.0
1033.0
1030.0
1026.0
1030.0
1035.0
1038.0
1037.0
1038.0
1036.0
1031.0
1032.0
1033.0
1031.0
1034.0
1033.0
1032.0
1032.0
1033.0
1033.0
1037.0
1038.0
1038.0
1038.0
1031.0
1026.0
1020.0
1016.0
1015.0
1023.0
1042.0
1074.0
1122.0
1187.0
1266.0
1359.0
1450.0
1534.0
1591.0
1617.0
1602.0
1558.0
1492.0
1414.0
1329.0
1250.0
1171.0
1093.0
1023.0
972.0
943.0
941.0
960.0
986.0
1004.0
1013.0
1013.0
1005.0
998.0
988.0
981.0
978.0
980.0
977.0
977.0
975.0
974.0
973.0
970.0
967.0
971.0
972.0
968.0
965.0
962.0
959.0
953.0
958.0
959.0
962.0
963.0
962.0
961.0
961.0
960.0
959.0
959.0
959.0
961.0
962.0
965.0
965.0
966.0
969.0
974.0
976.0
980.0
982.0
985.0
988.0
988.0
993.0
1000.0
1007.0
1017.0
1025.0
1032.0
1037.0
1041.0
1045.0
1049.0
1055.0
1060.0
1070.0
1078.0
1087.0
1093.0
1101.0
1108.0
1119.0
1129.0
1135.0
1141.0
1146.0
1148.0
1154.0
1160.0
1168.0
1176.0
1183.0
1188.0
1186.0
1185.0
1184.0
1185.0
1187.0
1189.0
1192.0
1197.0
1198.0
1199.0
1195.0
1190.0
1190.0
1187.0
1187.0
1186.0
1183.0
1178.0
1171.0
1166.0
1161.0
1157.0
1156.0
1153.0
1150.0
1145.0
1142.0
1136.0
1132.0
1126.0
1122.0
1118.0
1116.0
1114.0
1106.0
1102.0
1097.0
1095.0
1092.0
1093.0
1092.0
1091.0
1092.0
1093.0
1093.0
1096.0
1098.0
1099.0
1100.0
1100.0
1098.0
1098.0
1100.0
1103.0
1109.0
1117.0
1126.0
1134.0
1140.0
1143.0
1146.0
1145.0
1148.0
1148.0
1151.0
1152.0
1151.0
1149.0
1143.0
1129.0
1119.0
1111.0
1103.0
1099.0
1095.0
1092.0
1085.0
1081.0
1079.0
1076.0
1075.0
1077.0
1078.0
1078.0
1080.0
1079.0
1076.0
1073.0
1070.0
1069.0
1072.0
1070.0
1071.0
1073.0
1073.0
1073.0
1071.0
1069.0
1070.0
1072.0
1070.0
1066.0
1064.0
1068.0
1083.0
1112.0
1162.0
1225.0
1304.0
1392.0
1479.0
1554.0
1605.0
1615.0
1584.0
1521.0
1437.0
1342.0
1248.0
1162.0
1093.0
1040.0
998.0
969.0
955.0
954.0
967.0
983.0
1000.0
1019.0
1033.0
1038.0
1036.0
1028.0
1021.0
1013.0
1011.0
1008.0
1009.0
1008.0
1009.0
1009.0
1010.0
1011.0
1007.0
1005.0
1005.0
1004.0
1001.0
1002.0
1001.0
1002.0
1004.0
1006.0
1007.0
1010.0
1012.0
1016.0
1016.0
1018.0
1018.0
1021.0
1026.0
1030.0
1035.0
1040.0
1043.0
1047.0
1050.0
1053.0
1056.0
1063.0
1068.0
1077.0
1084.0
1091.0
1098.0
1104.0
1111.0
1120.0
1127.0
1131.0
1132.0
1136.0
1139.0
1151.0
1162.0
1170.0
1181.0
1188.0
1195.0
1197.0
1198.0
1201.0
1203.0
1208.0
1212.0
1218.0
1220.0
1221.0
1218.0
1217.0
1217.0
1219.0
1222.0
1222.0
1221.0
1219.0
1212.0
1209.0
1209.0
1206.0
1201.0
1196.0
1189.0
1181.0
1174.0
1168.0
1163.0
1158.0
1156.0
1149.0
1146.0
1142.0
1133.0
1127.0
1123.0
1117.0
1114.0
1105.0
1099.0
1091.0
1084.0
1076.0
1074.0
1073.0
1069.0
1071.0
1068.0
1061.0
1057.0
1050.0
1045.0
1050.0
1052.0
1057.0
1059.0
1060.0
1062.0
1062.0
1063.0
1063.0
1063.0
1065.0
1065.0
1066.0
1064.0
1065.0
1062.0
1065.0
1070.0
1078.0
1082.0
1086.0
1092.0
1096.0
1102.0
1106.0
1109.0
1112.0
1118.0
1117.0
1121.0
1123.0
1125.0
1129.0
1128.0
1124.0
1113.0
1106.0
1090.0
1076.0
1066.0
1059.0
1056.0
1056.0
1061.0
1060.0
1058.0
1055.0
1053.0
1049.0
1052.0
1052.0
1055.0
1057.0
1058.0
1054.0
1055.0
1053.0
1053.0
1054.0
1055.0
1055.0
1052.0
1049.0
1047.0
1045.0
1043.0
1041.0
1038.0
1039.0
1046.0
1068.0
1106.0
1157.0
1224.0
1294.0
1372.0
1454.0
1528.0
1583.0
1608.0
1596.0
1548.0
1472.0
1376.0
1275.0
1172.0
1081.0
1002.0
944.0
908.0
896.0
905.0
928.0
954.0
978.0
992.0
999.0
1000.0
996.0
993.0
990.0
989.0
989.0
987.0
985.0
984.0
982.0
980.0
979.0
981.0
977.0
975.0
973.0
974.0
974.0
978.0
981.0
983.0
982.0
981.0
977.0
976.0
975.0
976.0
983.0
986.0
989.0
994.0
994.0
996.0
996.0
997.0
1000.0
1003.0
1005.0
1012.0
1017.0
1019.0
1022.0
1029.0
1035.0
1040.0
1043.0
1047.0
1048.0
1049.0
1049.0
1055.0
1059.0
1064.0
1073.0
1081.0
1088.0
1095.0
1098.0
1104.0
1107.0
1114.0
1119.0
1124.0
1134.0
1139.0
1142.0
1147.0
1152.0
1156.0
1160.0
1167.0
1169.0
1172.0
1174.0
1174.0
1178.0
1179.0
1181.0
1183.0
1184.0
1184.0
1180.0
1176.0
1169.0
1163.0
1158.0
1158.0
1156.0
1153.0
1146.0
1142.0
1131.0
1121.0
1117.0
1112.0
1108.0
1104.0
1097.0
1094.0
1088.0
1081.0
1074.0
1074.0
1071.0
1073.0
1069.0
1066.0
1061.0
1054.0
1047.0
1043.0
1044.0
1043.0
1046.0
1049.0
1048.0
1048.0
1045.0
1043.0
1044.0
1044.0
1047.0
1050.0
1050.0
1052.0
1052.0
1054.0
1054.0
1054.0
1054.0
1055.0
1055.0
1057.0
1059.0
1060.0
1067.0
1075.0
1085.0
1091.0
1098.0
1100.0
1103.0
1101.0
1101.0
1101.0
1101.0
1102.0
1103.0
1097.0
1089.0
1079.0
1067.0
1058.0
1050.0
1044.0
1037.0
1033.0
1028.0
1025.0
1023.0
1021.0
1026.0
1026.0
1029.0
1030.0
1028.0
1025.0
1022.0
1020.0
1020.0
1022.0
1024.0
1027.0
1027.0
1027.0
1027.0
1024.0
1022.0
1017.0
1014.0
1006.0
1002.0
1001.0
1012.0
1039.0
1087.0
1151.0
1229.0
1315.0
1405.0
1487.0
1549.0
1573.0
1558.0
1507.0
1432.0
1340.0
1242.0
1149.0
1063.0
987.0
926.0
886.0
874.0
878.0
901.0
926.0
950.0
965.0
973.0
974.0
973.0
968.0
964.0
959.0
956.0
952.0
951.0
953.0
955.0
956.0
956.0
952.0
950.0
947.0
945.0
942.0
946.0
944.0
944.0
941.0
940.0
938.0
938.0
939.0
945.0
946.0
944.0
944.0
942.0
942.0
944.0
946.0
951.0
956.0
960.0
963.0
967.0
969.0
972.0
978.0
983.0
987.0
990.0
994.0
1000.0
1003.0
1008.0
1016.0
1023.0
1031.0
1037.0
1039.0
1046.0
1053.0
1057.0
1066.0
1076.0
1085.0
1093.0
1099.0
1107.0
1114.0
1118.0
1125.0
1132.0
1136.0
1139.0
1144.0
1147.0
1148.0
1152.0
1155.0
1158.0
1159.0
1161.0
1159.0
1153.0
1149.0
1147.0
1145.0
1147.0
1144.0
1142.0
1138.0
1134.0
1126.0
1121.0
1115.0
1111.0
1108.0
1101.0
1095.0
1090.0
1080.0
1077.0
1075.0
1072.0
1071.0
1070.0
1066.0
1062.0
1058.0
1051.0
1047.0
1045.0
1044.0
1047.0
1049.0
1050.0
1047.0
1045.0
1042.0
1040.0
1041.0
1043.0
1046.0
1045.0
1050.0
1052.0
1055.0
1059.0
1065.0
1072.0
1078.0
1080.0
1080.0
1078.0
1081.0
1084.0
1086.0
1089.0
1094.0
1098.0
1099.0
1090.0
1080.0
1069.0
1056.0
1045.0
1038.0
1033.0
1030.0
1026.0
1025.0
1018.0
1016.0
1016.0
1018.0
1021.0
1021.0
1022.0
1020.0
1019.0
1016.0
1017.0
1018.0
1019.0
1020.0
1019.0
1018.0
1017.0
1014.0
1011.0
1012.0
1015.0
1015.0
1014.0
1012.0
1008.0
1001.0
997.0
1000.0
1011.0
1040.0
1084.0
1148.0
1222.0
1307.0
1393.0
1478.0
1539.0
1566.0
1554.0
1511.0
1445.0
1360.0
1271.0
1190.0
1116.0
1051.0
990.0
948.0
920.0
916.0
923.0
942.0
963.0
978.0
987.0
990.0
986.0
978.0
968.0
966.0
963.0
963.0
959.0
962.0
961.0
961.0
957.0
955.0
954.0
952.0
953.0
954.0
954.0
957.0
956.0
953.0
949.0
946.0
943.0
944.0
946.0
945.0
949.0
950.0
952.0
950.0
947.0
949.0
949.0
951.0
953.0
959.0
960.0
963.0
966.0
968.0
974.0
978.0
985.0
988.0
994.0
994.0
997.0
1001.0
1008.0
1013.0
1023.0
1033.0
1043.0
1049.0
1055.0
1061.0
1063.0
1070.0
1079.0
1089.0
1102.0
1109.0
1117.0
1124.0
1131.0
1139.0
1146.0
1152.0
1158.0
1165.0
1168.0
1172.0
1174.0
1174.0
1181.0
1185.0
1189.0
1192.0
1192.0
1189.0
1187.0
1183.0
1186.0
1185.0
1184.0
1187.0
1184.0
1184.0
1182.0
1177.0
1171.0
1165.0
1162.0
1161.0
1158.0
1155.0
1149.0
1142.0
1140.0
1136.0
1132.0
1132.0
1127.0
1123.0
1119.0
1113.0
1102.0
1097.0
1093.0
1089.0
1088.0
1086.0
1084.0
1079.0
1077.0
1076.0
1076.0
1076.0
1076.0
1079.0
1078.0
1076.0
1074.0
1077.0
1077.0
1082.0
1083.0
1089.0
1094.0
1098.0
1102.0
1104.0
1107.0
1112.0
1116.0
1121.0
1125.0
1130.0
1127.0
1124.0
1121.0
1114.0
1109.0
1098.0
1087.0
1074.0
1064.0
1057.0
1052.0
1051.0
1049.0
1051.0
1051.0
1051.0
1050.0
1050.0
1049.0
1051.0
1053.0
1057.0
1058.0
1056.0
1054.0
1051.0
1046.0
1049.0
1048.0
1052.0
1053.0
1053.0
1054.0
1051.0
1047.0
1044.0
1039.0
1036.0
1036.0
1041.0
1057.0
1087.0
1134.0
1195.0
1275.0
1364.0
1455.0
1529.0
1571.0
1578.0
1545.0
1484.0
1404.0
1317.0
1226.0
1145.0
1074.0
1012.0
968.0
949.0
951.0
973.0
1001.0
1027.0
1039.0
1044.0
1040.0
1032.0
1025.0
1022.0
1019.0
1023.0
1024.0
1023.0
1020.0
1021.0
1020.0
1022.0
1025.0
1026.0
1028.0
1024.0
1023.0
1023.0
1026.0
1027.0
1029.0
1030.0
1031.0
1032.0
1031.0
1034.0
1036.0
1041.0
1046.0
1052.0
1057.0
1060.0
1062.0
1064.0
1069.0
1074.0
1083.0
1090.0
1098.0
1103.0
1108.0
1115.0
1124.0
1132.0
1140.0
1146.0
1153.0
1157.0
1164.0
1172.0
1180.0
1189.0
1199.0
1206.0
1212.0
1217.0
1220.0
1226.0
1231.0
1241.0
1249.0
1254.0
1259.0
1260.0
1258.0
1260.0
1263.0
1267.0
1267.0
1271.0
1270.0
1269.0
1267.0
1263.0
1262.0
1259.0
1258.0
1255.0
1251.0
1246.0
1243.0
1237.0
1233.0
1229.0
1227.0
1229.0
1225.0
1216.0
1212.0
1203.0
1197.0
1193.0
1187.0
1181.0
1177.0
1170.0
1167.0
1161.0
1155.0
1150.0
1144.0
1137.0
1132.0
1125.0
1117.0
1107.0
1099.0
1093.0
1088.0
1090.0
1090.0
1091.0
1090.0
1089.0
1086.0
1085.0
1082.0
1082.0
1084.0
1087.0
1085.0
1089.0
1090.0
1089.0
1091.0
1091.0
1092.0
1095.0
1099.0
1100.0
1100.0
1104.0
1111.0
1118.0
1127.0
1134.0
1140.0
1143.0
1146.0
1145.0
1145.0
1145.0
1146.0
1142.0
1137.0
1132.0
1124.0
1110.0
1095.0
1083.0
1074.0
1063.0
1061.0
1060.0
1060.0
1063.0
1062.0
1062.0
1063.0
1065.0
1064.0
1063.0
1060.0
1060.0
1056.0
1055.0
1057.0
1059.0
1062.0
1065.0
1069.0
1069.0
1069.0
1068.0
1067.0
1067.0
1064.0
1057.0
1049.0
1048.0
1056.0
1078.0
1116.0
1175.0
1246.0
1326.0
1410.0
1482.0
1535.0
1556.0
1541.0
1496.0
1430.0
1360.0
1282.0
1204.0
1129.0
1059.0
997.0
945.0
907.0
893.0
898.0
921.0
947.0
974.0
994.0
1004.0
1006.0
1001.0
993.0
987.0
983.0
980.0
979.0
979.0
981.0
983.0
984.0
984.0
982.0
979.0
976.0
974.0
969.0
968.0
970.0
973.0
976.0
978.0
980.0
982.0
981.0
982.0
984.0
984.0
988.0
990.0
989.0
992.0
994.0
995.0
1000.0
1006.0
1014.0
1018.0
1019.0
1022.0
1020.0
1021.0
1027.0
1034.0
1041.0
1049.0
1057.0
1063.0
1069.0
1071.0
1073.0
1077.0
1081.0
1088.0
1094.0
1101.0
1108.0
1113.0
1121.0
1129.0
1135.0
1138.0
1142.0
1145.0
1147.0
1147.0
1152.0
1159.0
1164.0
1170.0
1179.0
1181.0
1183.0
1182.0
1180.0
1180.0
1179.0
1180.0
1180.0
1175.0
1176.0
1171.0
1167.0
1166.0
1163.0
1159.0
1157.0
1152.0
1150.0
1143.0
1135.0
1126.0
1120.0
1115.0
1112.0
1107.0
1106.0
1098.0
1086.0
1078.0
1068.0
1062.0
1058.0
1058.0
1054.0
1052.0
1048.0
1043.0
1035.0
1033.0
1028.0
1028.0
1026.0
1024.0
1019.0
1019.0
1018.0
1019.0
1020.0
1018.0
1023.0
1026.0
1030.0
1025.0
1025.0
1022.0
1020.0
1024.0
1026.0
1029.0
1030.0
1030.0
1034.0
1037.0
1044.0
1049.0
1056.0
1062.0
1067.0
1069.0
1070.0
1074.0
1079.0
1083.0
1084.0
1085.0
1083.0
1076.0
1067.0
1055.0
1040.0
1031.0
1023.0
1016.0
1014.0
1011.0
1009.0
1007.0
1008.0
1010.0
1009.0
1008.0
1007.0
1006.0
1003.0
1003.0
1005.0
1009.0
1009.0
1011.0
1007.0
1004.0
1004.0
1003.0
1002.0
1000.0
997.0
991.0
986.0
985.0
992.0
1017.0
1059.0
1110.0
1170.0
1239.0
1315.0
1393.0
1463.0
1513.0
1531.0
1505.0
1451.0
1368.0
1271.0
1170.0
1074.0
984.0
913.0
863.0
843.0
846.0
863.0
892.0
921.0
941.0
953.0
954.0
949.0
939.0
931.0
924.0
921.0
918.0
922.0
925.0
926.0
924.0
923.0
917.0
911.0
907.0
906.0
906.0
906.0
911.0
909.0
910.0
908.0
907.0
906.0
906.0
907.0
907.0
907.0
904.0
903.0
903.0
908.0
913.0
916.0
921.0
923.0
923.0
923.0
924.0
930.0
937.0
943.0
947.0
956.0
959.0
962.0
965.0
969.0
977.0
980.0
986.0
993.0
999.0
1003.0
1010.0
1017.0
1026.0
1035.0
1042.0
1048.0
1053.0
1057.0
1060.0
1067.0
1075.0
1084.0
1090.0
1094.0
1097.0
1099.0
1097.0
1098.0
1101.0
1105.0
1104.0
1105.0
1104.0
1104.0
1102.0
1101.0
1100.0
1098.0
1091.0
1085.0
1079.0
1070.0
1062.0
1058.0
1052.0
1049.0
1045.0
1042.0
1036.0
1029.0
1025.0
1020.0
1016.0
1013.0
1006.0
999.0
996.0
992.0
989.0
988.0
988.0
987.0
987.0
983.0
982.0
980.0
981.0
983.0
984.0
985.0
987.0
986.0
987.0
987.0
988.0
990.0
995.0
1002.0
1009.0
1013.0
1016.0
1018.0
1022.0
1025.0
1030.0
1035.0
1038.0
1040.0
1040.0
1036.0
1032.0
1025.0
1019.0
1015.0
1006.0
995.0
986.0
974.0
966.0
956.0
954.0
953.0
958.0
957.0
958.0
958.0
957.0
957.0
957.0
958.0
957.0
955.0
956.0
954.0
950.0
950.0
950.0
953.0
958.0
958.0
957.0
954.0
950.0
943.0
937.0
937.0
944.0
963.0
1002.0
1058.0
1127.0
1210.0
1301.0
1387.0
1456.0
1493.0
1490.0
1452.0
1390.0
1316.0
1240.0
1168.0
1103.0
1040.0
976.0
916.0
869.0
846.0
848.0
864.0
889.0
909.0
921.0
922.0
915.0
907.0
898.0
892.0
891.0
893.0
892.0
890.0
889.0
885.0
883.0
882.0
881.0
885.0
885.0
884.0
882.0
877.0
874.0
874.0
872.0
871.0
871.0
873.0
875.0
874.0
874.0
874.0
874.0
875.0
879.0
879.0
880.0
882.0
882.0
883.0
886.0
891.0
899.0
906.0
911.0
913.0
916.0
920.0
924.0
926.0
937.0
948.0
954.0
963.0
971.0
978.0
984.0
994.0
1002.0
1009.0
1017.0
1020.0
1027.0
1034.0
1040.0
1049.0
1057.0
1064.0
1068.0
1077.0
1081.0
1086.0
1087.0
1092.0
1095.0
1102.0
1106.0
1110.0
1115.0
1116.0
1114.0
1109.0
1109.0
1106.0
1108.0
1107.0
1105.0
1100.0
1097.0
1094.0
1095.0
1094.0
1092.0
1089.0
1087.0
1082.0
1076.0
1069.0
1064.0
1060.0
1059.0
1056.0
1053.0
1048.0
1041.0
1036.0
1028.0
1025.0
1022.0
1017.0
1015.0
1014.0
1012.0
1007.0
1005.0
1004.0
1002.0
1004.0
1005.0
1006.0
1003.0
999.0
998.0
997.0
998.0
1003.0
1009.0
1015.0
1018.0
1022.0
1023.0
1023.0
1027.0
1032.0
1038.0
1042.0
1044.0
1047.0
1048.0
1048.0
1046.0
1046.0
1042.0
1039.0
1034.0
1024.0
1010.0
997.0
987.0
983.0
979.0
978.0
979.0
980.0
978.0
980.0
974.0
973.0
976.0
980.0
982.0
983.0
984.0
984.0
983.0
982.0
979.0
977.0
975.0
975.0
973.0
969.0
968.0
969.0
974.0
986.0
1001.0
1023.0
1048.0
1081.0
1123.0
1177.0
1241.0
1315.0
1393.0
1464.0
1523.0
1561.0
1581.0
1584.0
1574.0
1555.0
1525.0
1487.0
1438.0
1378.0
1308.0
1231.0
1140.0
1054.0
984.0
937.0
915.0
917.0
926.0
933.0
932.0
928.0
920.0
912.0
906.0
903.0
901.0
902.0
899.0
895.0
890.0
886.0
881.0
877.0
876.0
877.0
878.0
876.0
874.0
870.0
866.0
865.0
862.0
860.0
860.0
859.0
858.0
856.0
855.0
855.0
856.0
858.0
860.0
860.0
861.0
864.0
866.0
866.0
872.0
880.0
888.0
893.0
900.0
903.0
907.0
910.0
915.0
924.0
931.0
941.0
947.0
954.0
965.0
970.0
982.0
992.0
1004.0
1014.0
1022.0
1031.0
1037.0
1042.0
1051.0
1057.0
1068.0
1079.0
1088.0
1095.0
1102.0
1108.0
1112.0
1116.0
1123.0
1133.0
1141.0
1145.0
1151.0
1154.0
1154.0
1155.0
1157.0
1160.0
1158.0
1158.0
1156.0
1155.0
1156.0
1152.0
1154.0
1152.0
1151.0
1150.0
1146.0
1139.0
1135.0
1128.0
1122.0
1115.0
1114.0
1110.0
1111.0
1108.0
1104.0
1098.0
1089.0
1078.0
1069.0
1065.0
1061.0
1056.0
1052.0
1049.0
1045.0
1044.0
1040.0
1036.0
1037.0
1035.0
1034.0
1030.0
1027.0
1024.0
1024.0
1025.0
1027.0
1031.0
1033.0
1035.0
1035.0
1035.0
1033.0
1035.0
1034.0
1038.0
1039.0
1044.0
1050.0
1055.0
1056.0
1063.0
1066.0
1072.0
1078.0
1083.0
1087.0
1091.0
1093.0
1095.0
1099.0
1100.0
1099.0
1096.0
1088.0
1073.0
1061.0
1047.0
1036.0
1028.0
1027.0
1027.0
1030.0
1029.0
1029.0
1025.0
1023.0
1020.0
1020.0
1021.0
1023.0
1025.0
1026.0
1028.0
1025.0
1025.0
1026.0
1025.0
1029.0
1030.0
1028.0
1027.0
1025.0
1023.0
1020.0
1016.0
1017.0
1015.0
1013.0
1013.0
1017.0
1030.0
1060.0
1101.0
1157.0
1225.0
1298.0
1378.0
1444.0
1491.0
1513.0
1496.0
1446.0
1379.0
1301.0
1218.0
1137.0
1069.0
1018.0
975.0
942.0
910.0
885.0
877.0
881.0
898.0
920.0
940.0
957.0
964.0
966.0
964.0
963.0
960.0
957.0
953.0
952.0
950.0
948.0
943.0
942.0
944.0
945.0
946.0
944.0
942.0
941.0
937.0
936.0
939.0
939.0
940.0
941.0
940.0
944.0
942.0
948.0
951.0
955.0
959.0
958.0
961.0
962.0
963.0
966.0
974.0
982.0
987.0
996.0
999.0
997.0
1000.0
1003.0
1010.0
1017.0
1027.0
1034.0
1041.0
1047.0
1050.0
1056.0
1063.0
1072.0
1080.0
1087.0
1089.0
1094.0
1098.0
1105.0
1116.0
1123.0
1134.0
1140.0
1144.0
1147.0
1148.0
1150.0
1151.0
1155.0
1158.0
1161.0
1162.0
1162.0
1161.0
1161.0
1160.0
1161.0
1159.0
1156.0
1151.0
1144.0
1136.0
1130.0
1126.0
1121.0
1120.0
1115.0
1110.0
1104.0
1096.0
1088.0
1083.0
1078.0
1072.0
1064.0
1061.0
1053.0
1044.0
1040.0
1034.0
1027.0
1025.0
1018.0
1016.0
1005.0
997.0
994.0
991.0
988.0
988.0
986.0
983.0
983.0
979.0
976.0
975.0
978.0
979.0
981.0
982.0
985.0
983.0
982.0
982.0
981.0
984.0
984.0
986.0
982.0
983.0
983.0
993.0
1001.0
1010.0
1019.0
1027.0
1032.0
1034.0
1032.0
1035.0
1036.0
1037.0
1038.0
1042.0
1039.0
1035.0
1028.0
1018.0
1005.0
996.0
985.0
976.0
968.0
961.0
957.0
956.0
961.0
965.0
969.0
971.0
970.0
967.0
960.0
961.0
959.0
957.0
961.0
966.0
967.0
967.0
968.0
965.0
965.0
963.0
965.0
963.0
962.0
955.0
949.0
945.0
949.0
969.0
1005.0
1065.0
1136.0
1219.0
1303.0
1382.0
1445.0
1479.0
1479.0
1443.0
1385.0
1308.0
1217.0
1123.0
1035.0
959.0
891.0
840.0
806.0
799.0
807.0
832.0
861.0
884.0
902.0
907.0
907.0
899.0
890.0
882.0
878.0
877.0
878.0
879.0
882.0
881.0
882.0
876.0
872.0
871.0
867.0
868.0
868.0
867.0
868.0
867.0
864.0
868.0
867.0
868.0
874.0
873.0
871.0
869.0
867.0
867.0
867.0
873.0
878.0
880.0
885.0
885.0
888.0
889.0
889.0
893.0
900.0
904.0
908.0
914.0
919.0
923.0
927.0
933.0
939.0
944.0
950.0
953.0
957.0
962.0
968.0
974.0
981.0
989.0
998.0
1003.0
1007.0
1009.0
1011.0
1016.0
1021.0
1027.0
1033.0
1039.0
1047.0
1049.0
1049.0
1052.0
1055.0
1057.0
1057.0
1060.0
1057.0
1055.0
1053.0
1053.0
1050.0
1051.0
1051.0
1048.0
1046.0
1038.0
1034.0
1027.0
1016.0
1013.0
1005.0
1004.0
1002.0
996.0
992.0
985.0
978.0
971.0
963.0
961.0
955.0
948.0
941.0
937.0
932.0
928.0
929.0
929.0
930.0
930.0
927.0
920.0
918.0
914.0
913.0
915.0
918.0
922.0
924.0
923.0
922.0
919.0
916.0
918.0
921.0
927.0
932.0
940.0
946.0
949.0
954.0
959.0
962.0
965.0
966.0
966.0
966.0
963.0
961.0
960.0
961.0
956.0
948.0
937.0
924.0
910.0
901.0
891.0
890.0
888.0
888.0
890.0
889.0
889.0
889.0
888.0
892.0
891.0
893.0
891.0
891.0
886.0
883.0
884.0
883.0
886.0
889.0
894.0
895.0
892.0
888.0
885.0
878.0
873.0
869.0
874.0
888.0
916.0
961.0
1018.0
1085.0
1159.0
1238.0
1311.0
1373.0
1412.0
1420.0
1395.0
1345.0
1275.0
1196.0
1108.0
1025.0
945.0
872.0
807.0
768.0
756.0
770.0
798.0
829.0
847.0
855.0
852.0
845.0
834.0
825.0
822.0
822.0
819.0
818.0
818.0
817.0
815.0
813.0
814.0
815.0
813.0
809.0
806.0
801.0
801.0
800.0
803.0
805.0
803.0
805.0
804.0
803.0
803.0
805.0
806.0
807.0
806.0
807.0
811.0
812.0
814.0
817.0
826.0
831.0
834.0
837.0
841.0
842.0
849.0
855.0
864.0
873.0
880.0
888.0
895.0
904.0
909.0
914.0
921.0
926.0
934.0
938.0
949.0
955.0
960.0
972.0
982.0
991.0
999.0
1006.0
1009.0
1012.0
1016.0
1020.0
1027.0
1034.0
1038.0
1040.0
1042.0
1042.0
1041.0
1039.0
1040.0
1041.0
1039.0
1034.0
1028.0
1026.0
1021.0
1020.0
1020.0
1018.0
1012.0
1006.0
998.0
991.0
985.0
979.0
974.0
971.0
966.0
962.0
953.0
949.0
944.0
942.0
937.0
928.0
923.0
920.0
916.0
914.0
915.0
915.0
916.0
917.0
914.0
911.0
911.0
909.0
909.0
910.0
913.0
916.0
919.0
924.0
927.0
932.0
933.0
941.0
943.0
944.0
947.0
950.0
950.0
956.0
960.0
962.0
959.0
951.0
940.0
926.0
913.0
903.0
896.0
892.0
892.0
891.0
890.0
893.0
893.0
895.0
898.0
899.0
903.0
898.0
895.0
889.0
883.0
884.0
888.0
902.0
925.0
956.0
988.0
1025.0
1061.0
1101.0
1146.0
1194.0
1245.0
1288.0
1323.0
1351.0
1370.0
1391.0
