# Simple Text Format
# Sampling Rate (Hz):= 360.00
# Resolution:= 12
# Labels:= ECG
759.0
757.0
753.0
752.0
753.0
755.0
755.0
752.0
748.0
745.0
740.0
739.0
737.0
743.0
744.0
746.0
748.0
747.0
748.0
749.0
748.0
749.0
752.0
753.0
755.0
759.0
761.0
765.0
772.0
777.0
783.0
789.0
794.0
797.0
800.0
804.0
807.0
815.0
828.0
840.0
849.0
862.0
869.0
876.0
884.0
891.0
900.0
907.0
912.0
920.0
930.0
938.0
947.0
954.0
961.0
965.0
968.0
971.0
972.0
971.0
973.0
976.0
978.0
982.0
984.0
983.0
982.0
977.0
974.0
969.0
968.0
968.0
965.0
962.0
958.0
953.0
950.0
950.0
945.0
940.0
932.0
923.0
917.0
910.0
905.0
904.0
901.0
901.0
898.0
895.0
892.0
890.0
889.0
889.0
889.0
890.0
890.0
890.0
889.0
889.0
890.0
895.0
902.0
908.0
913.0
918.0
925.0
930.0
937.0
943.0
951.0
956.0
961.0
964.0
963.0
962.0
960.0
957.0
948.0
939.0
927.0
912.0
900.0
893.0
890.0
887.0
888.0
887.0
888.0
886.0
882.0
882.0
881.0
883.0
887.0
888.0
887.0
890.0
889.0
888.0
885.0
887.0
885.0
885.0
885.0
884.0
886.0
885.0
888.0
885.0
884.0
886.0
898.0
921.0
960.0
1012.0
1079.0
1163.0
1246.0
1322.0
1371.0
1380.0
1344.0
1273.0
1179.0
1081.0
986.0
906.0
844.0
798.0
768.0
749.0
747.0
756.0
774.0
797.0
814.0
830.0
833.0
833.0
829.0
824.0
821.0
818.0
815.0
817.0
821.0
820.0
820.0
821.0
817.0
817.0
816.0
811.0
812.0
813.0
813.0
815.0
819.0
819.0
817.0
812.0
816.0
816.0
818.0
821.0
824.0
828.0
829.0
833.0
837.0
842.0
845.0
850.0
851.0
853.0
858.0
862.0
866.0
873.0
882.0
892.0
898.0
904.0
908.0
913.0
916.0
922.0
932.0
940.0
953.0
960.0
968.0
976.0
981.0
988.0
994.0
999.0
1005.0
1009.0
1013.0
1019.0
1024.0
1030.0
1036.0
1042.0
1046.0
1046.0
1043.0
1042.0
1038.0
1038.0
1042.0
1042.0
1041.0
1039.0
1035.0
1029.0
1023.0
1019.0
1014.0
1012.0
1004.0
997.0
988.0
982.0
977.0
971.0
968.0
965.0
963.0
958.0
952.0
944.0
936.0
930.0
925.0
925.0
925.0
923.0
917.0
912.0
904.0
899.0
895.0
893.0
892.0
890.0
891.0
891.0
888.0
886.0
887.0
890.0
892.0
893.0
892.0
891.0
891.0
887.0
889.0
894.0
902.0
911.0
920.0
924.0
929.0
936.0
938.0
941.0
944.0
947.0
950.0
950.0
949.0
945.0
941.0
932.0
923.0
911.0
900.0
890.0
881.0
876.0
873.0
873.0
870.0
874.0
876.0
878.0
878.0
879.0
878.0
876.0
874.0
874.0
874.0
874.0
876.0
874.0
876.0
876.0
876.0
875.0
874.0
871.0
869.0
862.0
851.0
845.0
842.0
845.0
859.0
892.0
947.0
1019.0
1099.0
1182.0
1264.0
1341.0
1404.0
1447.0
1463.0
1449.0
1410.0
1355.0
1289.0
1220.0
1155.0
1092.0
1031.0
965.0
900.0
848.0
815.0
806.0
809.0
817.0
825.0
826.0
821.0
811.0
800.0
792.0
784.0
786.0
787.0
789.0
792.0
789.0
786.0
784.0
776.0
774.0
770.0
769.0
766.0
764.0
767.0
765.0
763.0
763.0
765.0
764.0
763.0
761.0
761.0
757.0
758.0
761.0
763.0
765.0
766.0
766.0
766.0
765.0
767.0
769.0
774.0
776.0
779.0
782.0
785.0
786.0
789.0
796.0
800.0
806.0
812.0
817.0
818.0
822.0
829.0
834.0
844.0
854.0
864.0
870.0
874.0
881.0
887.0
892.0
898.0
906.0
913.0
923.0
927.0
934.0
938.0
945.0
949.0
952.0
952.0
953.0
952.0
951.0
948.0
951.0
951.0
953.0
955.0
955.0
954.0
946.0
943.0
941.0
938.0
935.0
930.0
928.0
923.0
919.0
916.0
913.0
911.0
907.0
903.0
897.0
891.0
884.0
878.0
875.0
874.0
871.0
872.0
872.0
867.0
865.0
862.0
856.0
857.0
856.0
855.0
854.0
852.0
854.0
856.0
861.0
866.0
874.0
880.0
884.0
889.0
892.0
894.0
901.0
906.0
911.0
915.0
913.0
912.0
910.0
905.0
901.0
891.0
881.0
871.0
859.0
849.0
845.0
844.0
844.0
847.0
850.0
848.0
846.0
843.0
841.0
839.0
839.0
842.0
844.0
844.0
844.0
842.0
842.0
843.0
843.0
843.0
842.0
840.0
840.0
836.0
832.0
833.0
841.0
857.0
883.0
923.0
977.0
1043.0
1125.0
1211.0
1294.0
1347.0
1361.0
1325.0
1252.0
1156.0
1051.0
954.0
874.0
810.0
763.0
726.0
709.0
706.0
719.0
739.0
765.0
785.0
799.0
801.0
797.0
789.0
783.0
780.0
778.0
779.0
777.0
777.0
777.0
779.0
777.0
774.0
775.0
771.0
772.0
765.0
762.0
765.0
763.0
764.0
767.0
769.0
768.0
769.0
768.0
768.0
767.0
770.0
773.0
777.0
782.0
784.0
786.0
787.0
794.0
798.0
803.0
806.0
812.0
816.0
820.0
825.0
835.0
845.0
853.0
862.0
869.0
876.0
880.0
887.0
894.0
903.0
908.0
917.0
926.0
932.0
939.0
952.0
957.0
967.0
974.0
980.0
985.0
987.0
991.0
996.0
1002.0
1006.0
1007.0
1009.0
1006.0
1003.0
1000.0
997.0
994.0
993.0
989.0
985.0
978.0
977.0
972.0
970.0
967.0
963.0
956.0
949.0
943.0
936.0
932.0
928.0
925.0
923.0
919.0
912.0
907.0
899.0
896.0
888.0
885.0
882.0
879.0
875.0
873.0
873.0
873.0
874.0
873.0
873.0
870.0
866.0
863.0
861.0
862.0
867.0
874.0
882.0
891.0
896.0
900.0
904.0
905.0
907.0
908.0
913.0
916.0
917.0
918.0
918.0
914.0
913.0
907.0
899.0
891.0
878.0
868.0
860.0
853.0
847.0
846.0
848.0
846.0
847.0
845.0
843.0
840.0
839.0
838.0
839.0
841.0
841.0
843.0
842.0
842.0
843.0
846.0
848.0
848.0
846.0
844.0
838.0
830.0
830.0
830.0
836.0
850.0
880.0
926.0
985.0
1055.0
1134.0
1209.0
1282.0
1350.0
1407.0
1444.0
1456.0
1443.0
1400.0
1347.0
1284.0
1218.0
1149.0
1080.0
1007.0
938.0
878.0
833.0
808.0
803.0
805.0
813.0
815.0
813.0
806.0
796.0
792.0
786.0
784.0
786.0
785.0
785.0
783.0
777.0
776.0
773.0
771.0
771.0
766.0
765.0
762.0
762.0
761.0
764.0
763.0
763.0
760.0
756.0
753.0
753.0
752.0
755.0
759.0
764.0
765.0
765.0
766.0
765.0
766.0
767.0
770.0
773.0
773.0
775.0
778.0
779.0
784.0
794.0
799.0
807.0
815.0
819.0
826.0
831.0
840.0
847.0
852.0
857.0
866.0
873.0
881.0
890.0
897.0
905.0
911.0
917.0
920.0
925.0
932.0
937.0
943.0
951.0
954.0
958.0
955.0
956.0
954.0
955.0
953.0
954.0
952.0
951.0
950.0
950.0
951.0
947.0
944.0
942.0
937.0
932.0
923.0
915.0
915.0
911.0
910.0
909.0
906.0
899.0
892.0
884.0
876.0
870.0
863.0
860.0
860.0
859.0
860.0
858.0
858.0
856.0
854.0
851.0
850.0
849.0
849.0
848.0
850.0
851.0
850.0
856.0
859.0
865.0
868.0
872.0
879.0
886.0
891.0
895.0
900.0
903.0
908.0
911.0
915.0
919.0
916.0
912.0
903.0
894.0
882.0
872.0
864.0
858.0
852.0
847.0
846.0
843.0
844.0
839.0
840.0
842.0
844.0
844.0
845.0
843.0
842.0
844.0
846.0
845.0
849.0
848.0
847.0
847.0
844.0
847.0
846.0
848.0
848.0
846.0
844.0
844.0
847.0
861.0
888.0
929.0
983.0
1048.0
1123.0
1201.0
1271.0
1325.0
1339.0
1310.0
1252.0
1168.0
1074.0
983.0
898.0
835.0
784.0
749.0
726.0
717.0
719.0
727.0
740.0
755.0
770.0
781.0
787.0
788.0
788.0
783.0
779.0
777.0
775.0
777.0
778.0
779.0
775.0
774.0
771.0
770.0
770.0
772.0
774.0
778.0
778.0
778.0
776.0
771.0
767.0
765.0
767.0
767.0
773.0
775.0
778.0
781.0
784.0
785.0
789.0
790.0
793.0
795.0
797.0
799.0
801.0
807.0
811.0
815.0
824.0
826.0
835.0
837.0
846.0
848.0
856.0
861.0
868.0
875.0
879.0
889.0
894.0
904.0
911.0
918.0
923.0
929.0
933.0
935.0
941.0
946.0
954.0
960.0
967.0
969.0
972.0
970.0
973.0
975.0
977.0
976.0
977.0
976.0
974.0
974.0
970.0
967.0
963.0
960.0
954.0
949.0
941.0
935.0
932.0
925.0
925.0
924.0
918.0
915.0
910.0
902.0
896.0
889.0
885.0
882.0
880.0
876.0
875.0
869.0
864.0
862.0
856.0
853.0
850.0
849.0
845.0
845.0
844.0
844.0
846.0
846.0
849.0
849.0
849.0
848.0
845.0
843.0
844.0
846.0
850.0
855.0
862.0
869.0
874.0
879.0
884.0
888.0
890.0
892.0
894.0
896.0
895.0
894.0
889.0
888.0
883.0
878.0
872.0
862.0
852.0
844.0
834.0
827.0
827.0
827.0
828.0
832.0
831.0
830.0
827.0
826.0
825.0
825.0
823.0
824.0
820.0
821.0
819.0
816.0
815.0
814.0
817.0
821.0
835.0
852.0
874.0
900.0
936.0
970.0
1017.0
1066.0
1124.0
1180.0
1237.0
1289.0
1333.0
1369.0
1388.0
1395.0
1388.0
1362.0
1323.0
1266.0
1200.0
1127.0
1052.0
979.0
917.0
860.0
821.0
797.0
787.0
784.0
783.0
781.0
776.0
770.0
762.0
753.0
745.0
742.0
735.0
734.0
732.0
731.0
729.0
728.0
727.0
725.0
720.0
716.0
712.0
706.0
707.0
706.0
706.0
706.0
706.0
706.0
705.0
704.0
703.0
702.0
699.0
698.0
699.0
698.0
697.0
697.0
699.0
700.0
703.0
706.0
708.0
709.0
708.0
712.0
714.0
717.0
722.0
729.0
734.0
740.0
746.0
751.0
757.0
763.0
768.0
775.0
780.0
784.0
791.0
799.0
807.0
815.0
824.0
831.0
839.0
844.0
848.0
853.0
858.0
863.0
867.0
874.0
878.0
879.0
885.0
887.0
888.0
890.0
891.0
890.0
889.0
887.0
884.0
886.0
884.0
886.0
889.0
886.0
882.0
880.0
876.0
871.0
867.0
864.0
863.0
860.0
858.0
855.0
851.0
851.0
845.0
842.0
838.0
836.0
833.0
831.0
829.0
830.0
829.0
831.0
833.0
831.0
831.0
830.0
831.0
830.0
831.0
834.0
837.0
841.0
843.0
850.0
852.0
853.0
860.0
859.0
861.0
862.0
864.0
863.0
865.0
863.0
864.0
861.0
858.0
854.0
849.0
842.0
835.0
830.0
823.0
820.0
819.0
821.0
821.0
821.0
824.0
822.0
822.0
818.0
817.0
818.0
817.0
816.0
816.0
819.0
819.0
823.0
825.0
827.0
829.0
827.0
828.0
828.0
833.0
839.0
843.0
852.0
862.0
878.0
898.0
923.0
951.0
982.0
1017.0
1055.0
1086.0
1112.0
1129.0
1132.0
1118.0
1094.0
1059.0
1017.0
973.0
929.0
893.0
861.0
833.0
812.0
798.0
791.0
788.0
788.0
788.0
790.0
791.0
789.0
787.0
785.0
783.0
780.0
780.0
778.0
777.0
779.0
780.0
779.0
774.0
775.0
773.0
769.0
767.0
764.0
767.0
768.0
767.0
769.0
772.0
771.0
770.0
769.0
770.0
769.0
770.0
770.0
773.0
775.0
779.0
780.0
783.0
788.0
791.0
792.0
794.0
794.0
798.0
802.0
806.0
811.0
816.0
824.0
827.0
835.0
837.0
840.0
847.0
852.0
858.0
862.0
870.0
878.0
884.0
893.0
899.0
907.0
911.0
916.0
921.0
924.0
930.0
934.0
938.0
945.0
949.0
953.0
956.0
960.0
962.0
963.0
962.0
961.0
960.0
961.0
963.0
963.0
962.0
961.0
961.0
959.0
955.0
954.0
949.0
946.0
943.0
938.0
935.0
933.0
930.0
926.0
928.0
923.0
921.0
915.0
911.0
906.0
903.0
899.0
895.0
892.0
890.0
888.0
886.0
885.0
881.0
878.0
876.0
873.0
871.0
869.0
867.0
869.0
866.0
867.0
867.0
867.0
868.0
867.0
866.0
865.0
867.0
868.0
871.0
873.0
875.0
881.0
885.0
889.0
890.0
888.0
890.0
889.0
889.0
887.0
887.0
888.0
887.0
887.0
884.0
879.0
875.0
871.0
865.0
861.0
857.0
854.0
853.0
853.0
853.0
855.0
854.0
855.0
859.0
857.0
858.0
859.0
860.0
861.0
864.0
869.0
872.0
880.0
890.0
900.0
918.0
935.0
950.0
968.0
990.0
1013.0
1039.0
1064.0
1093.0
1121.0
1150.0
1177.0
1198.0
1219.0
1237.0
1246.0
1251.0
1245.0
1230.0
1211.0
1182.0
1149.0
1110.0
1070.0
1028.0
991.0
954.0
921.0
892.0
872.0
855.0
841.0
831.0
822.0
817.0
812.0
803.0
797.0
790.0
784.0
778.0
773.0
770.0
767.0
765.0
764.0
761.0
760.0
756.0
753.0
749.0
746.0
742.0
742.0
739.0
737.0
738.0
737.0
738.0
736.0
737.0
735.0
736.0
734.0
733.0
734.0
736.0
736.0
739.0
742.0
743.0
745.0
747.0
747.0
748.0
747.0
750.0
754.0
754.0
764.0
769.0
774.0
781.0
788.0
792.0
796.0
801.0
806.0
811.0
814.0
821.0
829.0
836.0
841.0
847.0
852.0
859.0
862.0
867.0
869.0
874.0
876.0
882.0
886.0
890.0
892.0
897.0
900.0
900.0
904.0
901.0
902.0
901.0
902.0
901.0
902.0
901.0
900.0
900.0
900.0
898.0
893.0
892.0
888.0
886.0
883.0
881.0
880.0
878.0
876.0
872.0
869.0
869.0
865.0
861.0
858.0
856.0
852.0
852.0
853.0
852.0
852.0
853.0
853.0
853.0
850.0
850.0
849.0
846.0
848.0
850.0
851.0
852.0
856.0
857.0
860.0
866.0
868.0
868.0
870.0
873.0
874.0
878.0
883.0
888.0
890.0
891.0
892.0
893.0
891.0
888.0
887.0
880.0
876.0
872.0
869.0
864.0
863.0
861.0
858.0
856.0
855.0
853.0
853.0
848.0
849.0
846.0
851.0
852.0
852.0
854.0
856.0
856.0
855.0
856.0
857.0
855.0
857.0
860.0
864.0
865.0
869.0
873.0
876.0
880.0
888.0
895.0
905.0
924.0
948.0
979.0
1016.0
1053.0
1093.0
1132.0
1163.0
1181.0
1181.0
1168.0
1137.0
1094.0
1046.0
996.0
948.0
908.0
871.0
841.0
817.0
803.0
794.0
795.0
798.0
798.0
803.0
809.0
810.0
810.0
810.0
810.0
809.0
808.0
806.0
803.0
799.0
797.0
796.0
797.0
798.0
799.0
798.0
801.0
801.0
801.0
800.0
799.0
799.0
796.0
796.0
798.0
796.0
799.0
800.0
803.0
805.0
809.0
809.0
807.0
810.0
809.0
810.0
816.0
820.0
825.0
830.0
834.0
835.0
840.0
843.0
845.0
848.0
852.0
855.0
862.0
867.0
873.0
880.0
883.0
890.0
894.0
902.0
909.0
913.0
915.0
916.0
923.0
929.0
936.0
944.0
952.0
956.0
963.0
965.0
968.0
970.0
972.0
973.0
980.0
984.0
989.0
994.0
994.0
995.0
994.0
993.0
991.0
985.0
982.0
978.0
973.0
971.0
967.0
965.0
961.0
960.0
954.0
949.0
941.0
936.0
932.0
926.0
924.0
920.0
919.0
916.0
910.0
908.0
901.0
897.0
892.0
887.0
883.0
880.0
876.0
875.0
872.0
871.0
875.0
877.0
873.0
872.0
873.0
871.0
870.0
868.0
869.0
871.0
870.0
875.0
875.0
881.0
883.0
886.0
889.0
893.0
896.0
900.0
905.0
909.0
913.0
917.0
919.0
923.0
922.0
918.0
914.0
911.0
906.0
900.0
894.0
888.0
883.0
879.0
878.0
873.0
872.0
869.0
866.0
866.0
865.0
863.0
864.0
858.0
858.0
856.0
856.0
856.0
854.0
854.0
859.0
869.0
879.0
899.0
923.0
953.0
984.0
1019.0
1058.0
1098.0
1140.0
1182.0
1222.0
1260.0
1300.0
1337.0
1370.0
1405.0
1434.0
1458.0
1468.0
1467.0
1456.0
1426.0
1384.0
1328.0
1267.0
1194.0
1125.0
1056.0
991.0
936.0
888.0
855.0
831.0
817.0
809.0
803.0
798.0
790.0
784.0
778.0
773.0
768.0
766.0
763.0
760.0
755.0
750.0
743.0
742.0
738.0
735.0
733.0
733.0
730.0
728.0
725.0
722.0
719.0
716.0
713.0
709.0
706.0
705.0
704.0
706.0
706.0
709.0
706.0
706.0
706.0
704.0
702.0
701.0
703.0
705.0
709.0
713.0
714.0
720.0
725.0
730.0
734.0
738.0
742.0
746.0
750.0
757.0
760.0
769.0
776.0
783.0
792.0
798.0
804.0
807.0
815.0
819.0
825.0
835.0
842.0
850.0
859.0
869.0
874.0
879.0
885.0
887.0
891.0
892.0
894.0
896.0
896.0
898.0
904.0
906.0
908.0
908.0
905.0
901.0
900.0
897.0
895.0
895.0
894.0
893.0
888.0
887.0
885.0
883.0
880.0
877.0
874.0
870.0
866.0
861.0
859.0
858.0
856.0
856.0
857.0
856.0
854.0
849.0
848.0
849.0
849.0
851.0
850.0
851.0
853.0
855.0
857.0
858.0
862.0
867.0
869.0
873.0
880.0
883.0
885.0
892.0
898.0
902.0
904.0
906.0
904.0
901.0
898.0
891.0
885.0
878.0
873.0
866.0
861.0
856.0
853.0
853.0
850.0
849.0
847.0
846.0
844.0
846.0
847.0
848.0
850.0
852.0
854.0
854.0
852.0
851.0
851.0
853.0
853.0
856.0
859.0
858.0
860.0
866.0
867.0
874.0
883.0
897.0
920.0
954.0
995.0
1047.0
1104.0
1168.0
1226.0
1272.0
1295.0
1295.0
1270.0
1224.0
1165.0
1097.0
1032.0
967.0
912.0
870.0
835.0
811.0
799.0
798.0
803.0
809.0
816.0
820.0
818.0
818.0
815.0
813.0
813.0
810.0
813.0
812.0
809.0
807.0
806.0
803.0
798.0
798.0
799.0
800.0
798.0
799.0
797.0
797.0
797.0
795.0
795.0
794.0
791.0
792.0
793.0
794.0
794.0
799.0
800.0
803.0
804.0
804.0
804.0
803.0
805.0
811.0
814.0
823.0
827.0
831.0
835.0
843.0
847.0
851.0
857.0
861.0
868.0
874.0
881.0
886.0
892.0
900.0
908.0
917.0
925.0
932.0
938.0
943.0
946.0
953.0
958.0
970.0
977.0
985.0
991.0
997.0
1000.0
1005.0
1007.0
1010.0
1012.0
1014.0
1020.0
1022.0
1024.0
1025.0
1025.0
1024.0
1021.0
1016.0
1012.0
1008.0
1005.0
1001.0
999.0
997.0
993.0
992.0
988.0
984.0
978.0
975.0
970.0
963.0
960.0
955.0
954.0
951.0
949.0
945.0
941.0
936.0
934.0
930.0
922.0
920.0
916.0
912.0
911.0
913.0
915.0
914.0
914.0
913.0
913.0
910.0
908.0
906.0
908.0
909.0
915.0
919.0
926.0
932.0
938.0
941.0
945.0
945.0
947.0
948.0
947.0
948.0
948.0
948.0
946.0
945.0
940.0
934.0
926.0
913.0
907.0
902.0
897.0
894.0
895.0
895.0
895.0
897.0
896.0
899.0
898.0
897.0
895.0
896.0
893.0
894.0
894.0
896.0
899.0
901.0
900.0
903.0
903.0
904.0
902.0
901.0
904.0
906.0
916.0
931.0
953.0
985.0
1026.0
1078.0
1135.0
1194.0
1251.0
1295.0
1323.0
1325.0
1302.0
1264.0
1217.0
1163.0
1107.0
1057.0
1011.0
968.0
933.0
910.0
890.0
880.0
875.0
871.0
869.0
865.0
860.0
857.0
852.0
846.0
838.0
837.0
833.0
831.0
832.0
831.0
831.0
832.0
830.0
829.0
827.0
825.0
821.0
819.0
820.0
818.0
821.0
821.0
822.0
821.0
823.0
824.0
824.0
823.0
822.0
824.0
825.0
825.0
828.0
829.0
833.0
835.0
839.0
840.0
845.0
844.0
848.0
848.0
850.0
852.0
856.0
861.0
867.0
875.0
882.0
886.0
892.0
895.0
899.0
904.0
908.0
916.0
921.0
930.0
934.0
941.0
945.0
949.0
953.0
956.0
961.0
965.0
968.0
972.0
975.0
979.0
980.0
984.0
985.0
985.0
986.0
985.0
982.0
983.0
978.0
977.0
975.0
974.0
975.0
973.0
972.0
971.0
969.0
966.0
962.0
959.0
954.0
946.0
945.0
942.0
939.0
936.0
934.0
932.0
928.0
925.0
919.0
913.0
909.0
907.0
908.0
908.0
910.0
911.0
910.0
910.0
909.0
905.0
908.0
907.0
905.0
903.0
903.0
908.0
911.0
918.0
922.0
924.0
926.0
930.0
930.0
932.0
938.0
938.0
946.0
948.0
951.0
952.0
953.0
952.0
949.0
944.0
938.0
931.0
924.0
918.0
914.0
911.0
908.0
907.0
908.0
910.0
906.0
907.0
905.0
903.0
902.0
903.0
903.0
905.0
907.0
910.0
909.0
910.0
910.0
909.0
910.0
912.0
912.0
912.0
913.0
918.0
924.0
932.0
942.0
956.0
974.0
996.0
1024.0
1062.0
1100.0
1142.0
1183.0
1218.0
1240.0
1244.0
1229.0
1196.0
1151.0
1100.0
1046.0
995.0
948.0
907.0
876.0
855.0
843.0
838.0
841.0
845.0
851.0
851.0
854.0
853.0
852.0
849.0
847.0
845.0
843.0
842.0
843.0
840.0
840.0
838.0
837.0
834.0
834.0
830.0
830.0
831.0
832.0
836.0
836.0
838.0
837.0
836.0
834.0
835.0
836.0
837.0
841.0
843.0
844.0
849.0
848.0
852.0
854.0
855.0
858.0
858.0
859.0
865.0
870.0
874.0
878.0
884.0
890.0
894.0
896.0
899.0
904.0
911.0
916.0
921.0
927.0
932.0
936.0
942.0
944.0
950.0
956.0
962.0
964.0
971.0
973.0
979.0
985.0
988.0
994.0
998.0
1004.0
1007.0
1008.0
1009.0
1007.0
1007.0
1007.0
1006.0
1009.0
1009.0
1006.0
1007.0
1005.0
1002.0
1000.0
994.0
991.0
987.0
982.0
978.0
975.0
970.0
967.0
966.0
963.0
960.0
957.0
950.0
946.0
943.0
939.0
935.0
934.0
932.0
931.0
929.0
929.0
927.0
926.0
926.0
925.0
924.0
923.0
921.0
922.0
920.0
922.0
925.0
929.0
931.0
932.0
935.0
939.0
942.0
944.0
948.0
952.0
956.0
960.0
962.0
963.0
965.0
962.0
963.0
960.0
955.0
949.0
943.0
938.0
931.0
925.0
923.0
918.0
917.0
912.0
907.0
907.0
906.0
905.0
903.0
905.0
905.0
907.0
908.0
908.0
909.0
909.0
909.0
909.0
910.0
910.0
910.0
911.0
912.0
915.0
918.0
921.0
928.0
930.0
937.0
949.0
968.0
994.0
1025.0
1063.0
1110.0
1164.0
1214.0
1258.0
1287.0
1295.0
1279.0
1250.0
1206.0
1156.0
1103.0
1052.0
1007.0
966.0
932.0
903.0
882.0
869.0
863.0
864.0
869.0
871.0
872.0
873.0
871.0
869.0
865.0
866.0
865.0
862.0
860.0
855.0
853.0
855.0
852.0
850.0
851.0
848.0
850.0
848.0
848.0
850.0
847.0
847.0
846.0
847.0
842.0
843.0
843.0
847.0
850.0
852.0
854.0
854.0
855.0
854.0
857.0
857.0
860.0
862.0
867.0
872.0
877.0
881.0
885.0
888.0
889.0
895.0
896.0
899.0
900.0
905.0
913.0
918.0
924.0
930.0
938.0
941.0
946.0
952.0
955.0
960.0
968.0
975.0
982.0
988.0
995.0
1000.0
1005.0
1009.0
1012.0
1018.0
1020.0
1022.0
1024.0
1027.0
1029.0
1031.0
1032.0
1037.0
1037.0
1036.0
1034.0
1035.0
1032.0
1028.0
1029.0
1028.0
1027.0
1027.0
1027.0
1026.0
1026.0
1021.0
1014.0
1011.0
1005.0
1002.0
1000.0
997.0
994.0
992.0
987.0
985.0
984.0
980.0
977.0
970.0
967.0
964.0
961.0
959.0
958.0
956.0
957.0
958.0
954.0
953.0
949.0
949.0
948.0
948.0
949.0
951.0
952.0
957.0
961.0
964.0
971.0
974.0
980.0
982.0
982.0
982.0
980.0
983.0
989.0
988.0
990.0
992.0
991.0
984.0
981.0
975.0
967.0
959.0
952.0
947.0
946.0
941.0
940.0
939.0
938.0
935.0
935.0
935.0
934.0
934.0
932.0
933.0
935.0
936.0
939.0
941.0
940.0
943.0
939.0
939.0
939.0
939.0
936.0
941.0
945.0
944.0
949.0
951.0
957.0
966.0
983.0
1006.0
1038.0
1076.0
1121.0
1173.0
1226.0
1276.0
1318.0
1339.0
1334.0
1309.0
1264.0
1203.0
1136.0
1070.0
1009.0
961.0
917.0
890.0
875.0
869.0
875.0
884.0
891.0
900.0
903.0
903.0
896.0
895.0
890.0
887.0
883.0
885.0
883.0
882.0
882.0
883.0
880.0
878.0
875.0
872.0
873.0
874.0
874.0
872.0
873.0
873.0
871.0
870.0
869.0
868.0
867.0
871.0
873.0
875.0
876.0
877.0
877.0
875.0
879.0
879.0
881.0
882.0
885.0
890.0
891.0
895.0
905.0
911.0
916.0
922.0
925.0
927.0
931.0
934.0
939.0
945.0
954.0
961.0
969.0
977.0
982.0
989.0
995.0
1005.0
1010.0
1019.0
1023.0
1032.0
1039.0
1046.0
1051.0
1057.0
1059.0
1062.0
1062.0
1066.0
1066.0
1070.0
1071.0
1073.0
1078.0
1079.0
1080.0
1081.0
1083.0
1079.0
1077.0
1073.0
1067.0
1065.0
1057.0
1054.0
1052.0
1052.0
1050.0
1046.0
1044.0
1041.0
1039.0
1034.0
1030.0
1025.0
1020.0
1017.0
1014.0
1011.0
1010.0
1005.0
1003.0
1000.0
995.0
992.0
989.0
986.0
982.0
979.0
977.0
976.0
978.0
975.0
974.0
971.0
968.0
967.0
966.0
967.0
969.0
976.0
979.0
983.0
989.0
993.0
997.0
998.0
1003.0
1007.0
1007.0
1009.0
1009.0
1007.0
1007.0
1004.0
1001.0
996.0
992.0
986.0
980.0
972.0
966.0
959.0
959.0
958.0
960.0
959.0
961.0
961.0
960.0
958.0
958.0
957.0
959.0
958.0
960.0
959.0
958.0
961.0
966.0
966.0
970.0
969.0
967.0
964.0
961.0
966.0
971.0
983.0
1002.0
1029.0
1064.0
1108.0
1160.0
1214.0
1267.0
1313.0
1348.0
1367.0
1365.0
1349.0
1316.0
1274.0
1230.0
1183.0
1143.0
1099.0
1059.0
1019.0
986.0
962.0
943.0
937.0
934.0
930.0
930.0
926.0
920.0
913.0
907.0
902.0
896.0
893.0
894.0
893.0
891.0
890.0
891.0
890.0
890.0
888.0
886.0
882.0
881.0
877.0
875.0
875.0
876.0
876.0
880.0
882.0
882.0
881.0
881.0
881.0
882.0
882.0
882.0
883.0
886.0
888.0
892.0
896.0
899.0
902.0
902.0
904.0
905.0
907.0
911.0
916.0
920.0
925.0
929.0
936.0
942.0
946.0
952.0
956.0
961.0
966.0
971.0
977.0
982.0
990.0
993.0
1000.0
1011.0
1015.0
1020.0
1021.0
1022.0
1027.0
1029.0
1033.0
1037.0
1040.0
1043.0
1048.0
1047.0
1048.0
1046.0
1046.0
1045.0
1045.0
1043.0
1043.0
1044.0
1043.0
1039.0
1037.0
1034.0
1033.0
1027.0
1022.0
1018.0
1013.0
1011.0
1008.0
1008.0
1007.0
1004.0
1002.0
999.0
996.0
990.0
987.0
982.0
979.0
972.0
973.0
972.0
969.0
969.0
970.0
970.0
970.0
968.0
966.0
966.0
961.0
964.0
967.0
971.0
971.0
973.0
972.0
976.0
979.0
982.0
984.0
988.0
992.0
992.0
998.0
1001.0
1003.0
1008.0
1014.0
1018.0
1020.0
1019.0
1018.0
1016.0
1013.0
1006.0
1003.0
998.0
994.0
992.0
985.0
980.0
976.0
973.0
971.0
971.0
969.0
969.0
968.0
970.0
971.0
971.0
973.0
977.0
976.0
975.0
977.0
974.0
974.0
974.0
976.0
979.0
982.0
986.0
987.0
988.0
989.0
991.0
994.0
1005.0
1022.0
1048.0
1080.0
1120.0
1164.0
1211.0
1260.0
1304.0
1335.0
1349.0
1337.0
1306.0
1256.0
1194.0
1133.0
1074.0
1024.0
976.0
942.0
915.0
900.0
897.0
897.0
903.0
911.0
916.0
922.0
924.0
926.0
922.0
920.0
919.0
918.0
917.0
916.0
914.0
913.0
909.0
906.0
906.0
905.0
906.0
910.0
911.0
912.0
910.0
908.0
908.0
905.0
905.0
906.0
907.0
910.0
910.0
913.0
915.0
916.0
917.0
916.0
919.0
919.0
920.0
922.0
925.0
930.0
935.0
939.0
946.0
947.0
950.0
955.0
956.0
961.0
966.0
972.0
977.0
986.0
989.0
993.0
1000.0
1005.0
1010.0
1012.0
1018.0
1021.0
1028.0
1033.0
1041.0
1049.0
1051.0
1058.0
1064.0
1067.0
1071.0
1076.0
1077.0
1077.0
1080.0
1079.0
1079.0
1079.0
1084.0
1082.0
1080.0
1080.0
1076.0
1072.0
1067.0
1064.0
1061.0
1061.0
1057.0
1056.0
1051.0
1048.0
1043.0
1036.0
1033.0
1028.0
1022.0
1016.0
1009.0
1004.0
1004.0
999.0
995.0
999.0
997.0
995.0
991.0
990.0
988.0
984.0
983.0
983.0
987.0
989.0
989.0
991.0
994.0
995.0
998.0
1002.0
1007.0
1007.0
1011.0
1016.0
1021.0
1024.0
1028.0
1033.0
1033.0
1033.0
1032.0
1030.0
1025.0
1021.0
1018.0
1012.0
1008.0
999.0
993.0
988.0
984.0
981.0
980.0
977.0
978.0
974.0
974.0
975.0
974.0
973.0
972.0
977.0
978.0
979.0
980.0
977.0
979.0
977.0
976.0
977.0
978.0
979.0
982.0
989.0
1002.0
1022.0
1049.0
1086.0
1129.0
1180.0
1237.0
1293.0
1351.0
1401.0
1443.0
1470.0
1478.0
1470.0
1449.0
1412.0
1362.0
1303.0
1241.0
1176.0
1111.0
1053.0
1009.0
976.0
960.0
951.0
948.0
944.0
938.0
931.0
922.0
919.0
914.0
910.0
909.0
908.0
905.0
901.0
898.0
894.0
892.0
889.0
886.0
884.0
879.0
879.0
876.0
875.0
876.0
876.0
879.0
876.0
875.0
873.0
871.0
871.0
872.0
874.0
874.0
877.0
879.0
879.0
879.0
879.0
881.0
882.0
885.0
887.0
891.0
893.0
899.0
906.0
911.0
916.0
920.0
923.0
931.0
938.0
942.0
948.0
956.0
965.0
970.0
979.0
986.0
996.0
1002.0
1007.0
1011.0
1015.0
1018.0
1021.0
1028.0
1034.0
1039.0
1046.0
1049.0
1050.0
1050.0
1049.0
