# Simple Text Format
# Sampling Rate (Hz):= 360.00
# Resolution:= 12
# Labels:= ECG
884.0
879.0
878.0
874.0
874.0
874.0
873.0
870.0
865.0
866.0
868.0
868.0
869.0
869.0
873.0
871.0
870.0
868.0
868.0
869.0
870.0
873.0
876.0
880.0
881.0
882.0
883.0
885.0
888.0
894.0
899.0
903.0
905.0
907.0
911.0
916.0
923.0
930.0
939.0
944.0
949.0
955.0
961.0
967.0
973.0
984.0
992.0
995.0
1002.0
1006.0
1014.0
1023.0
1028.0
1038.0
1046.0
1049.0
1056.0
1063.0
1070.0
1077.0
1086.0
1093.0
1099.0
1101.0
1102.0
1103.0
1101.0
1102.0
1105.0
1108.0
1110.0
1108.0
1105.0
1104.0
1101.0
1098.0
1095.0
1089.0
1087.0
1080.0
1072.0
1067.0
1060.0
1056.0
1053.0
1050.0
1044.0
1037.0
1028.0
1018.0
1010.0
1004.0
998.0
997.0
993.0
988.0
985.0
979.0
975.0
974.0
968.0
966.0
964.0
960.0
957.0
953.0
955.0
959.0
961.0
963.0
962.0
959.0
956.0
956.0
957.0
960.0
965.0
973.0
979.0
986.0
990.0
998.0
1002.0
1007.0
1014.0
1016.0
1018.0
1018.0
1020.0
1018.0
1016.0
1010.0
1008.0
1003.0
994.0
981.0
967.0
953.0
942.0
935.0
929.0
934.0
935.0
935.0
937.0
934.0
933.0
934.0
933.0
935.0
932.0
931.0
928.0
923.0
919.0
912.0
909.0
906.0
905.0
907.0
908.0
919.0
934.0
955.0
985.0
1023.0
1066.0
1119.0
1179.0
1249.0
1322.0
1394.0
1458.0
1510.0
1545.0
1564.0
1566.0
1550.0
1518.0
1475.0
1414.0
1342.0
1258.0
1167.0
1076.0
992.0
918.0
870.0
851.0
851.0
861.0
867.0
872.0
868.0
861.0
853.0
842.0
838.0
835.0
831.0
827.0
826.0
823.0
822.0
818.0
818.0
817.0
812.0
808.0
805.0
801.0
799.0
797.0
798.0
799.0
799.0
799.0
795.0
792.0
790.0
788.0
789.0
790.0
788.0
787.0
787.0
787.0
789.0
793.0
796.0
799.0
799.0
800.0
798.0
799.0
799.0
802.0
809.0
816.0
824.0
831.0
836.0
840.0
845.0
852.0
860.0
869.0
878.0
884.0
889.0
895.0
900.0
910.0
919.0
931.0
942.0
953.0
960.0
965.0
972.0
978.0
986.0
998.0
1006.0
1013.0
1018.0
1021.0
1022.0
1022.0
1025.0
1028.0
1032.0
1037.0
1038.0
1039.0
1037.0
1038.0
1039.0
1040.0
1038.0
1037.0
1032.0
1028.0
1025.0
1019.0
1016.0
1013.0
1011.0
1011.0
1006.0
1002.0
995.0
988.0
981.0
976.0
972.0
970.0
965.0
964.0
960.0
957.0
956.0
957.0
960.0
960.0
960.0
958.0
954.0
951.0
952.0
957.0
964.0
975.0
982.0
988.0
993.0
997.0
998.0
1003.0
1007.0
1009.0
1018.0
1022.0
1025.0
1024.0
1020.0
1019.0
1010.0
1000.0
988.0
976.0
963.0
951.0
947.0
944.0
941.0
945.0
947.0
947.0
944.0
942.0
940.0
936.0
939.0
937.0
939.0
938.0
939.0
941.0
942.0
943.0
944.0
944.0
943.0
941.0
939.0
936.0
934.0
933.0
932.0
938.0
948.0
974.0
1008.0
1053.0
1108.0
1173.0
1245.0
1325.0
1396.0
1445.0
1456.0
1426.0
1358.0
1267.0
1164.0
1063.0
975.0
899.0
841.0
806.0
798.0
810.0
838.0
869.0
893.0
904.0
901.0
896.0
886.0
879.0
876.0
871.0
871.0
875.0
877.0
880.0
882.0
881.0
880.0
877.0
872.0
866.0
864.0
862.0
863.0
864.0
865.0
866.0
864.0
865.0
867.0
873.0
876.0
879.0
880.0
882.0
884.0
888.0
893.0
899.0
907.0
915.0
918.0
925.0
931.0
937.0
941.0
950.0
963.0
969.0
976.0
984.0
990.0
1000.0
1010.0
1022.0
1031.0
1042.0
1050.0
1058.0
1066.0
1076.0
1086.0
1096.0
1103.0
1111.0
1113.0
1115.0
1116.0
1119.0
1122.0
1126.0
1130.0
1137.0
1140.0
1141.0
1142.0
1141.0
1138.0
1133.0
1130.0
1124.0
1115.0
1110.0
1106.0
1107.0
1105.0
1107.0
1101.0
1098.0
1090.0
1081.0
1072.0
1063.0
1061.0
1054.0
1050.0
1048.0
1041.0
1036.0
1030.0
1026.0
1023.0
1020.0
1014.0
1010.0
1004.0
998.0
993.0
991.0
990.0
986.0
988.0
984.0
981.0
980.0
979.0
978.0
981.0
981.0
983.0
986.0
992.0
999.0
1008.0
1017.0
1025.0
1032.0
1038.0
1040.0
1041.0
1042.0
1045.0
1048.0
1051.0
1048.0
1044.0
1034.0
1021.0
1008.0
995.0
986.0
978.0
973.0
969.0
968.0
966.0
970.0
971.0
973.0
974.0
971.0
968.0
964.0
962.0
960.0
965.0
966.0
962.0
958.0
951.0
945.0
942.0
946.0
957.0
976.0
1002.0
1033.0
1068.0
1112.0
1160.0
1216.0
1278.0
1340.0
1403.0
1457.0
1507.0
1547.0
1564.0
1567.0
1543.0
1499.0
1441.0
1368.0
1286.0
1198.0
1119.0
1045.0
982.0
936.0
909.0
899.0
902.0
907.0
909.0
907.0
903.0
899.0
892.0
885.0
880.0
872.0
869.0
866.0
864.0
865.0
866.0
868.0
864.0
859.0
857.0
856.0
855.0
856.0
856.0
852.0
849.0
844.0
843.0
843.0
845.0
848.0
849.0
846.0
842.0
839.0
838.0
838.0
839.0
843.0
845.0
846.0
849.0
850.0
849.0
845.0
848.0
851.0
856.0
860.0
866.0
871.0
876.0
884.0
892.0
896.0
904.0
908.0
914.0
920.0
926.0
934.0
940.0
951.0
960.0
972.0
980.0
988.0
996.0
1002.0
1008.0
1016.0
1023.0
1030.0
1036.0
1043.0
1049.0
1055.0
1059.0
1064.0
1066.0
1069.0
1069.0
1067.0
1065.0
1062.0
1064.0
1065.0
1069.0
1070.0
1071.0
1070.0
1063.0
1059.0
1053.0
1049.0
1040.0
1038.0
1036.0
1035.0
1031.0
1029.0
1027.0
1024.0
1023.0
1017.0
1012.0
1003.0
997.0
988.0
984.0
979.0
978.0
980.0
983.0
981.0
979.0
975.0
974.0
974.0
975.0
978.0
981.0
982.0
985.0
983.0
986.0
990.0
993.0
998.0
1000.0
1005.0
1011.0
1016.0
1024.0
1031.0
1040.0
1048.0
1052.0
1055.0
1057.0
1057.0
1055.0
1051.0
1049.0
1040.0
1030.0
1018.0
1005.0
995.0
990.0
986.0
984.0
983.0
982.0
981.0
978.0
975.0
976.0
975.0
977.0
981.0
981.0
981.0
981.0
979.0
979.0
980.0
979.0
979.0
981.0
982.0
982.0
982.0
978.0
976.0
974.0
968.0
971.0
979.0
998.0
1035.0
1086.0
1156.0
1233.0
1318.0
1398.0
1464.0
1499.0
1496.0
1451.0
1379.0
1290.0
1194.0
1103.0
1022.0
957.0
901.0
859.0
829.0
819.0
826.0
847.0
872.0
894.0
909.0
916.0
914.0
914.0
913.0
912.0
909.0
906.0
902.0
901.0
900.0
898.0
899.0
897.0
899.0
895.0
895.0
894.0
895.0
897.0
895.0
897.0
897.0
896.0
895.0
893.0
892.0
894.0
899.0
902.0
908.0
911.0
912.0
912.0
911.0
914.0
915.0
922.0
928.0
933.0
937.0
939.0
942.0
946.0
951.0
956.0
962.0
968.0
974.0
976.0
981.0
990.0
1001.0
1010.0
1021.0
1027.0
1030.0
1034.0
1040.0
1044.0
1051.0
1059.0
1068.0
1079.0
1082.0
1091.0
1095.0
1099.0
1106.0
1109.0
1113.0
1118.0
1118.0
1116.0
1119.0
1119.0
1121.0
1119.0
1123.0
1122.0
1122.0
1117.0
1110.0
1104.0
1098.0
1095.0
1092.0
1092.0
1089.0
1086.0
1081.0
1074.0
1067.0
1060.0
1053.0
1049.0
1044.0
1041.0
1030.0
1027.0
1023.0
1021.0
1017.0
1015.0
1008.0
1004.0
998.0
994.0
992.0
991.0
990.0
993.0
998.0
997.0
997.0
997.0
994.0
992.0
991.0
992.0
995.0
1000.0
1008.0
1015.0
1023.0
1030.0
1037.0
1045.0
1051.0
1054.0
1056.0
1055.0
1052.0
1057.0
1058.0
1057.0
1056.0
1053.0
1043.0
1030.0
1017.0
1003.0
992.0
984.0
978.0
976.0
973.0
972.0
973.0
972.0
972.0
972.0
974.0
975.0
972.0
968.0
968.0
966.0
966.0
968.0
971.0
975.0
975.0
975.0
973.0
967.0
966.0
962.0
957.0
959.0
962.0
963.0
970.0
986.0
1017.0
1057.0
1112.0
1175.0
1250.0
1329.0
1407.0
1467.0
1495.0
1484.0
1442.0
1378.0
1298.0
1220.0
1144.0
1082.0
1030.0
982.0
932.0
890.0
864.0
856.0
868.0
888.0
909.0
921.0
925.0
921.0
917.0
906.0
900.0
895.0
894.0
894.0
895.0
895.0
896.0
899.0
895.0
891.0
886.0
884.0
880.0
880.0
879.0
883.0
883.0
886.0
883.0
882.0
881.0
879.0
879.0
879.0
880.0
883.0
885.0
888.0
887.0
889.0
891.0
895.0
898.0
901.0
905.0
907.0
909.0
911.0
916.0
923.0
930.0
937.0
943.0
947.0
949.0
955.0
958.0
968.0
976.0
984.0
994.0
1002.0
1009.0
1013.0
1020.0
1027.0
1035.0
1042.0
1048.0
1054.0
1059.0
1064.0
1070.0
1078.0
1085.0
1092.0
1100.0
1104.0
1106.0
1106.0
1106.0
1107.0
1106.0
1111.0
1114.0
1115.0
1114.0
1112.0
1109.0
1105.0
1104.0
1103.0
1101.0
1101.0
1096.0
1090.0
1086.0
1085.0
1080.0
1081.0
1078.0
1075.0
1071.0
1065.0
1058.0
1053.0
1046.0
1042.0
1038.0
1038.0
1036.0
1031.0
1028.0
1022.0
1016.0
1013.0
1010.0
1008.0
1006.0
1005.0
1003.0
999.0
1001.0
998.0
998.0
1000.0
1000.0
1002.0
1005.0
1008.0
1012.0
1022.0
1029.0
1038.0
1047.0
1051.0
1056.0
1056.0
1055.0
1058.0
1060.0
1062.0
1062.0
1060.0
1057.0
1046.0
1035.0
1022.0
1010.0
1000.0
996.0
989.0
984.0
979.0
975.0
970.0
976.0
979.0
981.0
985.0
985.0
981.0
979.0
978.0
979.0
978.0
979.0
980.0
981.0
980.0
978.0
979.0
980.0
979.0
977.0
973.0
972.0
973.0
989.0
1018.0
1066.0
1121.0
1181.0
1251.0
1327.0
1406.0
1468.0
1493.0
1480.0
1428.0
1343.0
1242.0
1135.0
1040.0
960.0
902.0
862.0
845.0
849.0
866.0
888.0
907.0
924.0
934.0
937.0
938.0
936.0
933.0
931.0
929.0
927.0
927.0
923.0
922.0
921.0
920.0
921.0
919.0
919.0
921.0
922.0
923.0
924.0
921.0
918.0
918.0
915.0
915.0
918.0
924.0
927.0
929.0
931.0
933.0
937.0
939.0
944.0
944.0
949.0
954.0
957.0
963.0
970.0
969.0
977.0
982.0
994.0
1000.0
1007.0
1010.0
1012.0
1021.0
1031.0
1042.0
1053.0
1063.0
1072.0
1077.0
1083.0
1091.0
1098.0
1106.0
1111.0
1118.0
1126.0
1133.0
1139.0
1145.0
1153.0
1159.0
1165.0
1168.0
1171.0
1171.0
1168.0
1165.0
1166.0
1166.0
1166.0
1168.0
1163.0
1158.0
1154.0
1149.0
1146.0
1150.0
1147.0
1144.0
1136.0
1132.0
1125.0
1118.0
1113.0
1109.0
1104.0
1100.0
1089.0
1082.0
1076.0
1072.0
1070.0
1066.0
1063.0
1058.0
1051.0
1044.0
1038.0
1034.0
1030.0
1026.0
1023.0
1020.0
1018.0
1019.0
1018.0
1021.0
1021.0
1021.0
1018.0
1015.0
1015.0
1015.0
1020.0
1028.0
1038.0
1048.0
1055.0
1062.0
1069.0
1074.0
1079.0
1083.0
1086.0
1088.0
1087.0
1084.0
1078.0
1073.0
1068.0
1061.0
1054.0
1045.0
1032.0
1022.0
1013.0
1006.0
1006.0
1008.0
1010.0
1014.0
1017.0
1017.0
1013.0
1010.0
1007.0
1006.0
1009.0
1010.0
1012.0
1010.0
1009.0
1007.0
1011.0
1014.0
1014.0
1016.0
1015.0
1013.0
1011.0
1001.0
990.0
986.0
987.0
999.0
1024.0
1071.0
1137.0
1214.0
1302.0
1390.0
1472.0
1532.0
1561.0
1552.0
1510.0
1447.0
1373.0
1298.0
1227.0
1166.0
1110.0
1056.0
1011.0
979.0
957.0
951.0
953.0
958.0
965.0
965.0
961.0
954.0
945.0
937.0
934.0
933.0
931.0
931.0
931.0
928.0
925.0
925.0
924.0
922.0
924.0
924.0
920.0
918.0
915.0
913.0
916.0
920.0
922.0
925.0
925.0
925.0
921.0
919.0
921.0
922.0
924.0
925.0
925.0
927.0
929.0
934.0
935.0
938.0
944.0
946.0
948.0
947.0
945.0
948.0
955.0
963.0
972.0
979.0
987.0
993.0
999.0
1004.0
1013.0
1020.0
1029.0
1036.0
1041.0
1046.0
1050.0
1054.0
1063.0
1070.0
1077.0
1084.0
1093.0
1095.0
1098.0
1103.0
1109.0
1113.0
1117.0
1124.0
1126.0
1129.0
1127.0
1127.0
1125.0
1123.0
1122.0
1120.0
1122.0
1120.0
1117.0
1114.0
1112.0
1111.0
1107.0
1107.0
1101.0
1095.0
1088.0
1081.0
1080.0
1077.0
1074.0
1074.0
1069.0
1067.0
1062.0
1055.0
1047.0
1043.0
1037.0
1034.0
1032.0
1030.0
1029.0
1024.0
1020.0
1017.0
1017.0
1015.0
1016.0
1014.0
1013.0
1009.0
1007.0
1007.0
1008.0
1013.0
1020.0
1025.0
1030.0
1035.0
1038.0
1042.0
1049.0
1057.0
1062.0
1068.0
1072.0
1078.0
1081.0
1082.0
1082.0
1077.0
1073.0
1064.0
1050.0
1034.0
1023.0
1011.0
1007.0
1003.0
1003.0
1002.0
999.0
996.0
994.0
994.0
994.0
994.0
997.0
997.0
996.0
996.0
996.0
997.0
996.0
997.0
997.0
996.0
995.0
991.0
989.0
987.0
988.0
984.0
982.0
981.0
986.0
997.0
1018.0
1051.0
1098.0
1159.0
1231.0
1312.0
1389.0
1457.0
1501.0
1504.0
1465.0
1402.0
1317.0
1227.0
1133.0
1052.0
985.0
927.0
879.0
852.0
847.0
860.0
887.0
912.0
931.0
940.0
941.0
937.0
931.0
927.0
921.0
921.0
918.0
919.0
916.0
915.0
916.0
914.0
910.0
908.0
904.0
903.0
907.0
909.0
912.0
912.0
907.0
907.0
905.0
902.0
903.0
905.0
906.0
912.0
911.0
913.0
914.0
917.0
921.0
927.0
930.0
933.0
930.0
934.0
940.0
946.0
955.0
964.0
975.0
980.0
988.0
994.0
1002.0
1008.0
1014.0
1023.0
1029.0
1036.0
1042.0
1047.0
1056.0
1065.0
1078.0
1087.0
1097.0
1103.0
1110.0
1115.0
1119.0
1128.0
1136.0
1141.0
1147.0
1147.0
1146.0
1144.0
1146.0
1145.0
1148.0
1146.0
1144.0
1143.0
1139.0
1137.0
1134.0
1132.0
1129.0
1123.0
1118.0
1114.0
1106.0
1099.0
1096.0
1092.0
1089.0
1085.0
1080.0
1075.0
1067.0
1062.0
1058.0
1052.0
1050.0
1044.0
1041.0
1036.0
1033.0
1033.0
1031.0
1032.0
1030.0
1028.0
1025.0
1021.0
1018.0
1016.0
1020.0
1028.0
1032.0
1038.0
1042.0
1048.0
1055.0
1061.0
1066.0
1073.0
1076.0
1079.0
1083.0
1085.0
1088.0
1089.0
1086.0
1086.0
1078.0
1065.0
1050.0
1035.0
1025.0
1015.0
1011.0
1008.0
1007.0
1006.0
1007.0
1006.0
1006.0
1007.0
1008.0
1007.0
1007.0
1004.0
1005.0
1000.0
998.0
990.0
988.0
987.0
990.0
1000.0
1016.0
1039.0
1074.0
1109.0
1146.0
1184.0
1215.0
1248.0
1279.0
1319.0
1361.0
1406.0
1449.0
1493.0
1536.0
1574.0
1604.0
1614.0
1615.0
1590.0
1552.0
1493.0
1416.0
1331.0
1248.0
1172.0
1098.0
1038.0
985.0
952.0
935.0
932.0
935.0
939.0
938.0
932.0
923.0
916.0
909.0
903.0
900.0
900.0
897.0
895.0
896.0
894.0
892.0
888.0
885.0
879.0
875.0
871.0
870.0
871.0
872.0
874.0
874.0
871.0
869.0
865.0
862.0
860.0
856.0
857.0
857.0
857.0
855.0
856.0
858.0
860.0
865.0
865.0
866.0
867.0
867.0
866.0
867.0
872.0
879.0
886.0
894.0
901.0
904.0
908.0
915.0
922.0
930.0
940.0
950.0
958.0
967.0
974.0
984.0
993.0
1008.0
1016.0
1025.0
1031.0
1034.0
1039.0
1050.0
1060.0
1072.0
1081.0
1088.0
1095.0
1098.0
1098.0
1099.0
1100.0
1099.0
1102.0
1105.0
1106.0
1108.0
1108.0
1109.0
1109.0
1108.0
1105.0
1102.0
1093.0
1087.0
1083.0
1079.0
1077.0
1077.0
1078.0
1076.0
1068.0
1063.0
1052.0
1045.0
1039.0
1033.0
1028.0
1024.0
1020.0
1015.0
1017.0
1018.0
1018.0
1019.0
1020.0
1017.0
1015.0
1016.0
1015.0
1016.0
1018.0
1023.0
1027.0
1032.0
1035.0
1041.0
1046.0
1056.0
1061.0
1065.0
1069.0
1075.0
1079.0
1086.0
1092.0
1101.0
1104.0
1102.0
1098.0
1090.0
1080.0
1066.0
1055.0
1047.0
1038.0
1032.0
1024.0
1023.0
1020.0
1020.0
1021.0
1018.0
1014.0
1013.0
1012.0
1013.0
1014.0
1016.0
1019.0
1021.0
1021.0
1021.0
1021.0
1021.0
1022.0
1022.0
1023.0
1021.0
1021.0
1019.0
1017.0
1011.0
1009.0
1016.0
1036.0
1069.0
1116.0
1174.0
1231.0
1295.0
1361.0
1430.0
1484.0
1510.0
1495.0
1439.0
1356.0
1260.0
1160.0
1071.0
994.0
934.0
888.0
863.0
856.0
866.0
890.0
915.0
936.0
955.0
963.0
963.0
960.0
954.0
949.0
944.0
944.0
947.0
947.0
948.0
948.0
947.0
945.0
943.0
944.0
943.0
947.0
944.0
944.0
943.0
943.0
943.0
944.0
947.0
948.0
949.0
949.0
947.0
949.0
952.0
957.0
964.0
968.0
970.0
971.0
973.0
973.0
978.0
982.0
987.0
998.0
1003.0
1011.0
1015.0
1020.0
1029.0
1034.0
1041.0
1048.0
1051.0
1056.0
1066.0
1073.0
1082.0
1094.0
1102.0
1114.0
1118.0
1123.0
1127.0
1130.0
1138.0
1144.0
1149.0
1157.0
1162.0
1167.0
1172.0
1173.0
1178.0
1182.0
1182.0
1181.0
1178.0
1175.0
1176.0
1174.0
1172.0
1174.0
1174.0
1171.0
1167.0
1162.0
1154.0
1144.0
1137.0
1131.0
1128.0
1125.0
1122.0
1117.0
1112.0
1106.0
1098.0
1094.0
1087.0
1079.0
1073.0
1068.0
1064.0
1060.0
1053.0
1052.0
1050.0
1048.0
1045.0
1039.0
1036.0
1028.0
1027.0
1027.0
1028.0
1030.0
1033.0
1034.0
1031.0
1031.0
1030.0
1030.0
1029.0
1032.0
1035.0
1043.0
1048.0
1055.0
1062.0
1066.0
1075.0
1083.0
1087.0
1091.0
1092.0
1093.0
1093.0
1091.0
1092.0
1092.0
1089.0
1083.0
1077.0
1064.0
1049.0
1037.0
1028.0
1021.0
1015.0
1012.0
1010.0
1010.0
1008.0
1011.0
1012.0
1015.0
1016.0
1016.0
1013.0
1010.0
1001.0
996.0
990.0
983.0
983.0
984.0
987.0
998.0
1017.0
1042.0
1068.0
1096.0
1125.0
1149.0
1175.0
1205.0
1238.0
1281.0
1330.0
1384.0
1439.0
1487.0
1531.0
1567.0
1590.0
1601.0
1596.0
1576.0
1544.0
1495.0
1433.0
1362.0
1289.0
1214.0
1135.0
1058.0
995.0
951.0
930.0
925.0
930.0
933.0
933.0
928.0
925.0
919.0
913.0
908.0
903.0
899.0
896.0
892.0
890.0
890.0
889.0
888.0
885.0
878.0
874.0
869.0
866.0
864.0
865.0
864.0
863.0
861.0
858.0
855.0
855.0
852.0
851.0
850.0
847.0
845.0
842.0
843.0
844.0
846.0
848.0
849.0
851.0
854.0
853.0
853.0
856.0
861.0
866.0
873.0
880.0
885.0
894.0
898.0
906.0
917.0
926.0
932.0
940.0
947.0
953.0
964.0
972.0
983.0
996.0
1007.0
1016.0
1023.0
1032.0
1041.0
1052.0
1060.0
1068.0
1074.0
1080.0
1086.0
1091.0
1095.0
1100.0
1102.0
1102.0
1102.0
1098.0
1097.0
1097.0
1099.0
1098.0
1096.0
1095.0
1090.0
1086.0
1081.0
1077.0
1075.0
1069.0
1063.0
1058.0
1052.0
1046.0
1043.0
1041.0
1038.0
1033.0
1029.0
1021.0
1015.0
1011.0
1009.0
1011.0
1014.0
1013.0
1013.0
1010.0
1008.0
1009.0
1009.0
1010.0
1013.0
1017.0
1023.0
1026.0
1035.0
1046.0
1055.0
1065.0
1068.0
1073.0
1076.0
1077.0
1075.0
1076.0
1077.0
1079.0
1077.0
1072.0
1063.0
1050.0
1037.0
1027.0
1017.0
1009.0
1002.0
999.0
994.0
994.0
996.0
999.0
1000.0
1005.0
1007.0
1006.0
1003.0
1002.0
1002.0
1004.0
1005.0
1008.0
1006.0
1005.0
1004.0
1002.0
1002.0
1002.0
1002.0
1003.0
1000.0
997.0
998.0
1009.0
1037.0
1081.0
1140.0
1212.0
1292.0
1374.0
1445.0
1499.0
1521.0
1502.0
1448.0
1371.0
1281.0
1187.0
1095.0
1016.0
952.0
905.0
874.0
873.0
882.0
907.0
933.0
952.0
969.0
975.0
975.0
971.0
967.0
960.0
956.0
951.0
950.0
951.0
952.0
953.0
954.0
953.0
952.0
952.0
950.0
950.0
952.0
954.0
951.0
952.0
950.0
949.0
949.0
952.0
958.0
960.0
965.0
966.0
967.0
970.0
971.0
976.0
978.0
985.0
992.0
996.0
999.0
1007.0
1011.0
1017.0
1021.0
1026.0
1033.0
1039.0
1047.0
1052.0
1064.0
1073.0
1082.0
1091.0
1100.0
1105.0
1111.0
1116.0
1121.0
1128.0
1135.0
1144.0
1151.0
1158.0
1166.0
1175.0
1181.0
1190.0
1197.0
1198.0
1199.0
1197.0
1195.0
1191.0
1195.0
1192.0
1196.0
1202.0
1202.0
1203.0
1197.0
1188.0
1181.0
1177.0
1173.0
1169.0
1166.0
1164.0
1158.0
1150.0
1146.0
1140.0
1134.0
1132.0
1130.0
1124.0
1119.0
1112.0
1109.0
1103.0
1096.0
1091.0
1086.0
1081.0
1073.0
1066.0
1059.0
1055.0
1051.0
1048.0
1048.0
1045.0
1046.0
1040.0
1039.0
1035.0
1031.0
1033.0
1034.0
1036.0
1034.0
1032.0
1031.0
1032.0
1035.0
1041.0
1048.0
1056.0
1061.0
1066.0
1070.0
1075.0
1080.0
1086.0
1094.0
1102.0
1108.0
1110.0
1108.0
1103.0
1098.0
1092.0
1084.0
1076.0
1067.0
1057.0
1047.0
1039.0
1031.0
1025.0
1023.0
1026.0
1027.0
1029.0
1029.0
1025.0
1022.0
1017.0
1014.0
1009.0
1008.0
1005.0
1000.0
997.0
993.0
996.0
1002.0
1017.0
1044.0
1080.0
1118.0
1158.0
1198.0
1238.0
1275.0
1317.0
1355.0
1390.0
1417.0
1439.0
1460.0
1482.0
1508.0
1535.0
1558.0
1582.0
1595.0
1603.0
1598.0
1584.0
1556.0
1512.0
1450.0
1380.0
1301.0
1223.0
1142.0
1068.0
1001.0
952.0
924.0
916.0
918.0
921.0
928.0
926.0
920.0
910.0
901.0
894.0
891.0
887.0
883.0
880.0
877.0
875.0
870.0
866.0
861.0
860.0
856.0
855.0
849.0
847.0
844.0
841.0
840.0
837.0
833.0
830.0
824.0
818.0
814.0
812.0
814.0
816.0
815.0
816.0
814.0
810.0
806.0
804.0
805.0
809.0
812.0
814.0
816.0
818.0
818.0
821.0
826.0
836.0
842.0
847.0
855.0
860.0
868.0
876.0
883.0
897.0
907.0
919.0
926.0
933.0
944.0
954.0
964.0
978.0
989.0
1000.0
1008.0
1015.0
1023.0
1031.0
1037.0
1046.0
1052.0
1055.0
1059.0
1061.0
1065.0
1070.0
1074.0
1078.0
1081.0
1078.0
1078.0
1075.0
1071.0
1069.0
1070.0
1068.0
1071.0
1069.0
1064.0
1060.0
1052.0
1046.0
1044.0
1040.0
1039.0
1036.0
1034.0
1028.0
1023.0
1019.0
1016.0
1014.0
1012.0
1008.0
1005.0
1000.0
996.0
994.0
993.0
997.0
999.0
1002.0
1005.0
1005.0
1002.0
1003.0
1002.0
1003.0
1004.0
1006.0
1013.0
1020.0
1026.0
1033.0
1040.0
1048.0
1055.0
1061.0
1064.0
1067.0
1068.0
1068.0
1073.0
1077.0
1081.0
1084.0
1080.0
1072.0
1060.0
1047.0
1032.0
1021.0
1012.0
1005.0
1002.0
1000.0
999.0
999.0
998.0
1001.0
1000.0
1000.0
998.0
999.0
996.0
994.0
993.0
994.0
995.0
1001.0
1002.0
1001.0
997.0
994.0
995.0
990.0
990.0
987.0
988.0
987.0
984.0
989.0
1006.0
1040.0
1085.0
1151.0
1221.0
1301.0
1377.0
1443.0
1487.0
1501.0
1474.0
1420.0
1353.0
1275.0
1189.0
1104.0
1026.0
953.0
892.0
846.0
830.0
833.0
854.0
883.0
909.0
929.0
939.0
939.0
935.0
925.0
921.0
912.0
911.0
912.0
914.0
917.0
916.0
920.0
916.0
914.0
908.0
903.0
903.0
904.0
904.0
906.0
907.0
909.0
907.0
904.0
903.0
901.0
901.0
903.0
903.0
901.0
903.0
904.0
906.0
911.0
915.0
922.0
927.0
931.0
932.0
934.0
934.0
937.0
942.0
949.0
957.0
964.0
972.0
977.0
983.0
986.0
995.0
1003.0
1009.0
1020.0
1025.0
1030.0
1039.0
1046.0
1055.0
1065.0
1072.0
1081.0
1089.0
1092.0
1098.0
1105.0
1112.0
1122.0
1130.0
1136.0
1140.0
1143.0
1141.0
1141.0
1141.0
1142.0
1143.0
1144.0
1147.0
1142.0
1139.0
1137.0
1135.0
1131.0
1128.0
1122.0
1118.0
1111.0
1104.0
1097.0
1092.0
1087.0
1084.0
1080.0
1077.0
1071.0
1065.0
1055.0
1047.0
1043.0
1038.0
1032.0
1028.0
1024.0
1020.0
1016.0
1012.0
1011.0
1010.0
1010.0
1010.0
1007.0
1006.0
1003.0
1001.0
1002.0
1004.0
1004.0
1008.0
1013.0
1013.0
1015.0
1019.0
1023.0
1031.0
1037.0
1046.0
1051.0
1057.0
1058.0
1063.0
1064.0
1065.0
1066.0
1070.0
1069.0
1065.0
1055.0
1043.0
1030.0
1016.0
1005.0
999.0
996.0
992.0
987.0
983.0
978.0
976.0
975.0
978.0
979.0
979.0
980.0
979.0
977.0
975.0
973.0
975.0
974.0
974.0
972.0
973.0
975.0
977.0
976.0
978.0
980.0
978.0
972.0
969.0
972.0
988.0
1020.0
1074.0
1139.0
1215.0
1297.0
1376.0
1442.0
1482.0
1499.0
1473.0
1422.0
1348.0
1261.0
1173.0
1091.0
1018.0
950.0
898.0
859.0
842.0
843.0
859.0
884.0
906.0
922.0
929.0
927.0
921.0
917.0
909.0
904.0
899.0
899.0
901.0
902.0
900.0
898.0
896.0
891.0
892.0
891.0
894.0
896.0
894.0
894.0
891.0
888.0
886.0
881.0
882.0
885.0
885.0
887.0
889.0
891.0
896.0
899.0
904.0
908.0
912.0
911.0
918.0
924.0
929.0
939.0
947.0
957.0
963.0
973.0
979.0
987.0
997.0
1005.0
1014.0
1025.0
1030.0
1037.0
1045.0
1055.0
1066.0
1079.0
1090.0
1099.0
1104.0
1109.0
1113.0
1117.0
1124.0
1133.0
1139.0
1145.0
1148.0
1149.0
1146.0
1146.0
1145.0
1144.0
1146.0
1147.0
1144.0
1144.0
1141.0
1134.0
1132.0
1127.0
1124.0
1118.0
1111.0
1102.0
1097.0
1092.0
1089.0
1088.0
1089.0
1087.0
1082.0
1073.0
1064.0
1058.0
1051.0
1046.0
1042.0
1040.0
1036.0
1033.0
1030.0
1024.0
1019.0
1015.0
1009.0
1008.0
1005.0
1000.0
998.0
998.0
1000.0
1002.0
1004.0
1003.0
1001.0
997.0
994.0
995.0
1003.0
1012.0
1027.0
1037.0
1048.0
1054.0
1056.0
1065.0
1069.0
1071.0
1070.0
1071.0
1070.0
1066.0
1062.0
1053.0
1043.0
1034.0
1024.0
1016.0
1006.0
995.0
987.0
984.0
987.0
990.0
992.0
993.0
994.0
991.0
992.0
991.0
991.0
989.0
992.0
990.0
986.0
983.0
983.0
985.0
990.0
993.0
995.0
994.0
988.0
980.0
976.0
983.0
1000.0
1030.0
1075.0
1127.0
1184.0
1251.0
1324.0
1396.0
1446.0
1466.0
1449.0
1392.0
1311.0
1217.0
1125.0
1042.0
979.0
933.0
895.0
863.0
839.0
832.0
838.0
856.0
879.0
902.0
920.0
929.0
930.0
923.0
915.0
909.0
906.0
906.0
909.0
912.0
910.0
909.0
907.0
902.0
901.0
902.0
903.0
904.0
903.0
902.0
901.0
899.0
902.0
903.0
905.0
905.0
904.0
904.0
905.0
903.0
905.0
908.0
916.0
919.0
919.0
920.0
923.0
928.0
932.0
942.0
950.0
955.0
961.0
964.0
967.0
971.0
976.0
981.0
991.0
999.0
1007.0
1014.0
1019.0
1026.0
1034.0
1041.0
1052.0
1056.0
1062.0
1067.0
1074.0
1083.0
1091.0
1101.0
1107.0
1113.0
1116.0
1118.0
1119.0
1119.0
1122.0
1124.0
1126.0
1129.0
1123.0
1120.0
1117.0
1115.0
1115.0
1112.0
1110.0
1109.0
1099.0
1092.0
1087.0
1084.0
1080.0
1078.0
1078.0
1075.0
1068.0
1065.0
1057.0
1048.0
1042.0
1037.0
1034.0
1031.0
1029.0
1020.0
1015.0
1009.0
1003.0
1001.0
997.0
994.0
990.0
985.0
980.0
979.0
977.0
977.0
977.0
982.0
978.0
979.0
975.0
975.0
973.0
973.0
974.0
980.0
984.0
990.0
995.0
998.0
1003.0
1008.0
1014.0
1019.0
1025.0
1027.0
1030.0
1034.0
1038.0
1040.0
1040.0
1040.0
1038.0
1031.0
1021.0
1005.0
989.0
977.0
966.0
960.0
954.0
958.0
957.0
957.0
955.0
953.0
953.0
952.0
951.0
950.0
947.0
948.0
948.0
950.0
952.0
953.0
955.0
954.0
953.0
948.0
946.0
944.0
942.0
942.0
940.0
940.0
944.0
961.0
990.0
1038.0
1097.0
1170.0
1251.0
1334.0
1406.0
1454.0
1469.0
1443.0
1385.0
1304.0
1211.0
1111.0
1023.0
940.0
872.0
820.0
793.0
791.0
807.0
836.0
865.0
888.0
898.0
898.0
890.0
879.0
870.0
864.0
860.0
859.0
863.0
865.0
869.0
870.0
865.0
863.0
859.0
855.0
852.0
853.0
855.0
858.0
859.0
856.0
855.0
851.0
850.0
851.0
852.0
854.0
854.0
855.0
853.0
855.0
857.0
862.0
869.0
874.0
876.0
879.0
879.0
883.0
886.0
891.0
900.0
910.0
917.0
922.0
928.0
934.0
939.0
947.0
955.0
966.0
972.0
980.0
987.0
993.0
1004.0
1013.0
1022.0
1028.0
1035.0
1042.0
1048.0
1049.0
1055.0
1060.0
1067.0
1073.0
1079.0
1080.0
1080.0
1081.0
1086.0
1085.0
1085.0
1085.0
1083.0
1080.0
1075.0
1071.0
1067.0
1064.0
1064.0
1062.0
1057.0
1051.0
1047.0
1038.0
1033.0
1029.0
1025.0
1021.0
1017.0
1014.0
1008.0
1003.0
997.0
993.0
987.0
985.0
979.0
971.0
965.0
961.0
959.0
958.0
961.0
959.0
957.0
956.0
953.0
951.0
946.0
945.0
946.0
948.0
953.0
957.0
963.0
971.0
977.0
984.0
989.0
994.0
999.0
1002.0
1004.0
1005.0
1009.0
1013.0
1016.0
1013.0
1009.0
1000.0
984.0
974.0
959.0
949.0
937.0
934.0
932.0
928.0
926.0
927.0
926.0
927.0
926.0
924.0
921.0
918.0
918.0
918.0
920.0
923.0
925.0
927.0
928.0
924.0
921.0
916.0
916.0
916.0
915.0
913.0
911.0
908.0
911.0
922.0
946.0
983.0
1034.0
1096.0
1166.0
1246.0
1323.0
1388.0
1426.0
1425.0
1389.0
1328.0
1256.0
1176.0
1098.0
1021.0
952.0
889.0
838.0
803.0
787.0
791.0
809.0
835.0
859.0
873.0
878.0
877.0
869.0
861.0
852.0
849.0
846.0
847.0
849.0
854.0
856.0
853.0
848.0
846.0
842.0
840.0
840.0
842.0
844.0
846.0
847.0
845.0
846.0
842.0
841.0
842.0
843.0
845.0
847.0
849.0
852.0
858.0
861.0
867.0
873.0
875.0
878.0
880.0
884.0
887.0
894.0
906.0
915.0
925.0
934.0
942.0
949.0
954.0
963.0
970.0
979.0
987.0
996.0
1004.0
1013.0
1022.0
1030.0
1039.0
1048.0
1055.0
1062.0
1067.0
1070.0
1073.0
1082.0
1090.0
1096.0
1101.0
1102.0
1105.0
1104.0
1104.0
1102.0
1100.0
1101.0
1104.0
1103.0
