# Simple Text Format
# Sampling Rate (Hz):= 360.00
# Resolution:= 12
# Labels:= ECG
990.0
986.0
978.0
975.0
967.0
960.0
952.0
946.0
943.0
941.0
937.0
939.0
934.0
930.0
923.0
919.0
914.0
909.0
911.0
913.0
915.0
916.0
916.0
912.0
912.0
910.0
913.0
910.0
913.0
913.0
914.0
908.0
911.0
908.0
912.0
918.0
924.0
928.0
932.0
934.0
938.0
939.0
941.0
941.0
947.0
955.0
961.0
966.0
966.0
965.0
964.0
963.0
958.0
951.0
942.0
929.0
919.0
907.0
899.0
894.0
893.0
892.0
891.0
888.0
887.0
883.0
881.0
879.0
879.0
879.0
881.0
882.0
885.0
882.0
877.0
877.0
877.0
876.0
876.0
878.0
880.0
878.0
877.0
873.0
867.0
863.0
859.0
856.0
856.0
869.0
896.0
940.0
1001.0
1076.0
1163.0
1254.0
1340.0
1402.0
1428.0
1411.0
1359.0
1287.0
1201.0
1113.0
1030.0
967.0
909.0
859.0
810.0
769.0
741.0
736.0
749.0
771.0
793.0
810.0
819.0
822.0
814.0
809.0
804.0
802.0
800.0
797.0
796.0
792.0
790.0
789.0
790.0
794.0
793.0
794.0
792.0
791.0
786.0
781.0
779.0
776.0
776.0
777.0
779.0
781.0
781.0
782.0
781.0
782.0
785.0
784.0
786.0
784.0
784.0
782.0
784.0
787.0
796.0
801.0
803.0
807.0
809.0
809.0
810.0
809.0
817.0
824.0
830.0
838.0
844.0
851.0
858.0
864.0
870.0
877.0
882.0
889.0
892.0
897.0
904.0
914.0
920.0
928.0
937.0
941.0
947.0
950.0
953.0
960.0
965.0
971.0
976.0
983.0
984.0
987.0
988.0
991.0
995.0
995.0
993.0
991.0
988.0
984.0
980.0
978.0
977.0
979.0
979.0
975.0
972.0
965.0
957.0
950.0
944.0
939.0
936.0
932.0
925.0
922.0
920.0
916.0
913.0
910.0
908.0
904.0
898.0
894.0
892.0
889.0
888.0
889.0
892.0
894.0
894.0
892.0
889.0
886.0
886.0
887.0
890.0
897.0
901.0
906.0
910.0
913.0
914.0
914.0
920.0
920.0
926.0
926.0
928.0
929.0
931.0
930.0
931.0
928.0
921.0
908.0
895.0
883.0
871.0
863.0
861.0
859.0
860.0
863.0
865.0
864.0
862.0
858.0
856.0
854.0
854.0
857.0
858.0
859.0
857.0
857.0
859.0
858.0
860.0
861.0
860.0
862.0
860.0
856.0
854.0
854.0
853.0
852.0
850.0
851.0
862.0
877.0
913.0
965.0
1032.0
1115.0
1206.0
1298.0
1371.0
1421.0
1436.0
1416.0
1367.0
1305.0
1232.0
1155.0
1077.0
1002.0
933.0
869.0
815.0
782.0
771.0
781.0
802.0
825.0
841.0
845.0
843.0
833.0
826.0
822.0
820.0
821.0
820.0
821.0
818.0
813.0
813.0
812.0
811.0
813.0
813.0
811.0
809.0
808.0
806.0
806.0
807.0
807.0
806.0
805.0
805.0
800.0
800.0
801.0
802.0
805.0
811.0
811.0
811.0
809.0
811.0
810.0
813.0
815.0
822.0
828.0
831.0
834.0
837.0
838.0
841.0
846.0
851.0
859.0
867.0
872.0
879.0
884.0
888.0
901.0
909.0
919.0
928.0
934.0
944.0
948.0
955.0
961.0
970.0
980.0
990.0
1000.0
1005.0
1009.0
1012.0
1014.0
1017.0
1022.0
1027.0
1035.0
1040.0
1043.0
1045.0
1046.0
1048.0
1050.0
1049.0
1051.0
1050.0
1048.0
1046.0
1039.0
1036.0
1034.0
1038.0
1038.0
1038.0
1034.0
1031.0
1029.0
1022.0
1017.0
1012.0
1006.0
1006.0
1004.0
1000.0
996.0
990.0
984.0
977.0
972.0
968.0
967.0
959.0
953.0
949.0
942.0
939.0
938.0
940.0
942.0
939.0
938.0
933.0
930.0
927.0
926.0
926.0
929.0
929.0
932.0
933.0
933.0
935.0
937.0
940.0
945.0
947.0
952.0
953.0
956.0
956.0
960.0
968.0
973.0
979.0
982.0
980.0
976.0
970.0
962.0
953.0
943.0
934.0
924.0
918.0
911.0
905.0
899.0
895.0
894.0
897.0
899.0
904.0
906.0
906.0
906.0
905.0
906.0
907.0
907.0
906.0
907.0
904.0
902.0
899.0
899.0
901.0
905.0
905.0
902.0
901.0
894.0
890.0
891.0
901.0
923.0
958.0
1003.0
1055.0
1118.0
1194.0
1277.0
1354.0
1417.0
1447.0
1434.0
1386.0
1315.0
1233.0
1142.0
1058.0
984.0
921.0
874.0
838.0
823.0
826.0
841.0
860.0
882.0
898.0
906.0
906.0
902.0
896.0
892.0
885.0
884.0
882.0
883.0
886.0
887.0
886.0
888.0
885.0
887.0
886.0
888.0
890.0
891.0
888.0
885.0
885.0
881.0
881.0
883.0
886.0
889.0
895.0
897.0
898.0
899.0
903.0
906.0
912.0
915.0
919.0
922.0
925.0
929.0
934.0
940.0
950.0
957.0
963.0
969.0
972.0
977.0
984.0
993.0
1003.0
1013.0
1022.0
1027.0
1032.0
1038.0
1046.0
1056.0
1061.0
1066.0
1070.0
1077.0
1083.0
1086.0
1093.0
1098.0
1107.0
1111.0
1113.0
1110.0
1109.0
1105.0
1104.0
1107.0
1112.0
1112.0
1115.0
1113.0
1109.0
1102.0
1097.0
1092.0
1086.0
1084.0
1080.0
1075.0
1067.0
1061.0
1059.0
1055.0
1054.0
1050.0
1046.0
1039.0
1029.0
1019.0
1013.0
1011.0
1007.0
1009.0
1006.0
1003.0
995.0
981.0
972.0
961.0
955.0
952.0
951.0
944.0
942.0
935.0
931.0
930.0
931.0
931.0
928.0
924.0
924.0
920.0
926.0
931.0
936.0
936.0
939.0
938.0
935.0
931.0
933.0
934.0
939.0
945.0
954.0
960.0
964.0
969.0
976.0
985.0
992.0
996.0
997.0
995.0
992.0
988.0
983.0
979.0
973.0
967.0
957.0
947.0
934.0
922.0
914.0
915.0
917.0
920.0
925.0
924.0
923.0
923.0
918.0
918.0
922.0
923.0
927.0
923.0
921.0
919.0
918.0
919.0
921.0
923.0
928.0
929.0
928.0
922.0
913.0
905.0
901.0
910.0
934.0
973.0
1028.0
1097.0
1179.0
1270.0
1353.0
1421.0
1452.0
1442.0
1389.0
1311.0
1219.0
1126.0
1040.0
970.0
921.0
881.0
846.0
812.0
788.0
781.0
793.0
814.0
838.0
860.0
871.0
876.0
874.0
865.0
859.0
858.0
856.0
854.0
854.0
849.0
850.0
846.0
849.0
854.0
858.0
859.0
860.0
859.0
853.0
848.0
843.0
844.0
845.0
850.0
857.0
859.0
860.0
860.0
860.0
859.0
865.0
867.0
874.0
877.0
877.0
880.0
880.0
886.0
888.0
893.0
898.0
902.0
904.0
910.0
911.0
915.0
919.0
925.0
933.0
938.0
949.0
952.0
956.0
960.0
962.0
970.0
977.0
986.0
992.0
1000.0
1002.0
1007.0
1013.0
1016.0
1024.0
1028.0
1036.0
1041.0
1045.0
1049.0
1051.0
1051.0
1051.0
1055.0
1057.0
1056.0
1054.0
1050.0
1046.0
1045.0
1043.0
1036.0
1034.0
1032.0
1026.0
1024.0
1022.0
1018.0
1015.0
1008.0
1004.0
995.0
988.0
980.0
974.0
971.0
968.0
966.0
963.0
958.0
951.0
945.0
937.0
932.0
926.0
921.0
919.0
918.0
918.0
914.0
913.0
911.0
909.0
910.0
906.0
910.0
909.0
907.0
907.0
905.0
908.0
911.0
910.0
912.0
913.0
913.0
911.0
911.0
911.0
913.0
916.0
922.0
930.0
935.0
940.0
943.0
948.0
954.0
959.0
963.0
965.0
965.0
964.0
965.0
963.0
961.0
965.0
962.0
956.0
948.0
933.0
918.0
903.0
897.0
895.0
889.0
896.0
895.0
897.0
898.0
896.0
897.0
895.0
894.0
895.0
894.0
893.0
892.0
891.0
894.0
896.0
900.0
899.0
900.0
896.0
894.0
889.0
887.0
883.0
878.0
881.0
896.0
922.0
972.0
1045.0
1132.0
1233.0
1328.0
1405.0
1443.0
1433.0
1388.0
1318.0
1232.0
1141.0
1051.0
968.0
890.0
820.0
771.0
746.0
752.0
774.0
805.0
832.0
847.0
854.0
852.0
843.0
835.0
828.0
825.0
823.0
820.0
820.0
820.0
816.0
821.0
823.0
823.0
821.0
818.0
813.0
810.0
806.0
805.0
810.0
810.0
813.0
813.0
814.0
812.0
813.0
814.0
816.0
819.0
818.0
818.0
820.0
821.0
823.0
826.0
828.0
832.0
836.0
838.0
840.0
839.0
843.0
850.0
858.0
866.0
872.0
877.0
882.0
887.0
889.0
891.0
896.0
904.0
912.0
916.0
921.0
925.0
933.0
941.0
952.0
961.0
969.0
971.0
975.0
979.0
983.0
988.0
995.0
1000.0
1003.0
1006.0
1006.0
1002.0
1002.0
1002.0
1003.0
1003.0
1002.0
1000.0
995.0
990.0
987.0
985.0
985.0
985.0
981.0
976.0
967.0
959.0
955.0
947.0
947.0
944.0
940.0
939.0
935.0
930.0
924.0
920.0
916.0
914.0
910.0
907.0
901.0
903.0
903.0
903.0
905.0
906.0
908.0
908.0
906.0
903.0
902.0
899.0
903.0
905.0
911.0
915.0
921.0
924.0
928.0
929.0
936.0
939.0
942.0
941.0
947.0
950.0
948.0
954.0
955.0
956.0
954.0
947.0
936.0
925.0
910.0
896.0
888.0
881.0
880.0
879.0
879.0
880.0
878.0
873.0
873.0
874.0
874.0
875.0
875.0
872.0
872.0
872.0
871.0
873.0
874.0
873.0
874.0
873.0
871.0
866.0
865.0
863.0
863.0
862.0
860.0
862.0
869.0
893.0
931.0
983.0
1046.0
1113.0
1195.0
1276.0
1351.0
1406.0
1432.0
1414.0
1361.0
1291.0
1201.0
1112.0
1032.0
952.0
884.0
827.0
789.0
776.0
787.0
805.0
827.0
848.0
854.0
850.0
845.0
835.0
830.0
827.0
827.0
827.0
827.0
826.0
825.0
825.0
820.0
820.0
818.0
815.0
815.0
814.0
813.0
816.0
818.0
820.0
818.0
817.0
814.0
810.0
809.0
810.0
811.0
814.0
818.0
820.0
822.0
823.0
824.0
824.0
829.0
828.0
832.0
834.0
837.0
837.0
842.0
847.0
854.0
861.0
867.0
873.0
876.0
879.0
884.0
888.0
898.0
907.0
915.0
924.0
931.0
935.0
940.0
946.0
952.0
956.0
965.0
972.0
979.0
987.0
997.0
1001.0
1009.0
1018.0
1023.0
1027.0
1033.0
1035.0
1034.0
1037.0
1038.0
1043.0
1046.0
1049.0
1050.0
1049.0
1047.0
1040.0
1039.0
1036.0
1035.0
1031.0
1031.0
1026.0
1024.0
1022.0
1017.0
1015.0
1012.0
1011.0
1007.0
1002.0
995.0
989.0
988.0
985.0
984.0
981.0
978.0
979.0
974.0
969.0
962.0
956.0
952.0
949.0
950.0
953.0
952.0
951.0
948.0
946.0
945.0
949.0
950.0
949.0
948.0
948.0
947.0
949.0
951.0
956.0
964.0
971.0
978.0
979.0
982.0
982.0
981.0
986.0
990.0
995.0
999.0
1000.0
995.0
990.0
983.0
971.0
962.0
953.0
947.0
939.0
933.0
927.0
925.0
922.0
921.0
924.0
926.0
927.0
927.0
924.0
922.0
922.0
921.0
923.0
927.0
930.0
932.0
932.0
930.0
926.0
921.0
921.0
920.0
922.0
922.0
918.0
913.0
913.0
918.0
936.0
970.0
1022.0
1088.0
1166.0
1253.0
1344.0
1423.0
1479.0
1497.0
1483.0
1440.0
1379.0
1308.0
1232.0
1157.0
1086.0
1020.0
960.0
905.0
866.0
842.0
843.0
861.0
883.0
905.0
916.0
919.0
914.0
904.0
896.0
889.0
886.0
888.0
889.0
894.0
896.0
898.0
897.0
895.0
890.0
888.0
887.0
888.0
890.0
891.0
896.0
895.0
898.0
898.0
901.0
899.0
901.0
900.0
899.0
902.0
904.0
906.0
912.0
919.0
925.0
932.0
936.0
936.0
938.0
939.0
946.0
951.0
961.0
970.0
981.0
989.0
997.0
1001.0
1004.0
1008.0
1016.0
1023.0
1031.0
1041.0
1049.0
1056.0
1062.0
1069.0
1078.0
1086.0
1098.0
1104.0
1111.0
1114.0
1118.0
1122.0
1128.0
1134.0
1144.0
1147.0
1149.0
1151.0
1151.0
1149.0
1146.0
1144.0
1146.0
1147.0
1148.0
1151.0
1153.0
1153.0
1150.0
1147.0
1140.0
1136.0
1134.0
1129.0
1124.0
1119.0
1112.0
1108.0
1104.0
1105.0
1103.0
1101.0
1097.0
1092.0
1083.0
1075.0
1072.0
1065.0
1062.0
1059.0
1053.0
1047.0
1039.0
1029.0
1021.0
1016.0
1011.0
1006.0
1006.0
1000.0
993.0
991.0
987.0
984.0
987.0
986.0
985.0
984.0
982.0
980.0
977.0
977.0
978.0
978.0
982.0
982.0
985.0
983.0
985.0
985.0
985.0
988.0
993.0
999.0
1008.0
1014.0
1022.0
1024.0
1024.0
1027.0
1031.0
1031.0
1034.0
1034.0
1032.0
1032.0
1028.0
1027.0
1028.0
1022.0
1014.0
1005.0
994.0
980.0
971.0
963.0
959.0
959.0
962.0
967.0
968.0
964.0
962.0
961.0
962.0
963.0
964.0
965.0
966.0
964.0
963.0
960.0
964.0
968.0
971.0
974.0
971.0
966.0
961.0
957.0
949.0
945.0
948.0
961.0
987.0
1030.0
1087.0
1153.0
1228.0
1307.0
1384.0
1448.0
1488.0
1494.0
1457.0
1402.0
1339.0
1281.0
1221.0
1157.0
1085.0
1012.0
942.0
881.0
834.0
811.0
811.0
829.0
855.0
883.0
904.0
917.0
920.0
913.0
904.0
895.0
890.0
888.0
891.0
894.0
896.0
899.0
896.0
895.0
892.0
892.0
892.0
892.0
889.0
888.0
888.0
887.0
885.0
886.0
889.0
891.0
894.0
893.0
895.0
894.0
894.0
896.0
901.0
902.0
907.0
911.0
911.0
916.0
915.0
917.0
915.0
916.0
922.0
925.0
929.0
935.0
942.0
947.0
950.0
957.0
958.0
960.0
966.0
972.0
977.0
981.0
988.0
994.0
999.0
1003.0
1009.0
1016.0
1019.0
1023.0
1028.0
1031.0
1033.0
1038.0
1048.0
1055.0
1064.0
1071.0
1073.0
1074.0
1076.0
1077.0
1080.0
1086.0
1090.0
1090.0
1091.0
1091.0
1087.0
1085.0
1080.0
1082.0
1077.0
1078.0
1075.0
1072.0
1067.0
1061.0
1055.0
1051.0
1046.0
1045.0
1041.0
1038.0
1032.0
1022.0
1015.0
1011.0
1007.0
1007.0
1004.0
1000.0
996.0
989.0
983.0
977.0
972.0
966.0
962.0
960.0
956.0
950.0
947.0
945.0
945.0
945.0
946.0
949.0
948.0
944.0
941.0
940.0
938.0
943.0
945.0
947.0
947.0
949.0
947.0
947.0
946.0
949.0
950.0
957.0
960.0
966.0
973.0
976.0
982.0
984.0
990.0
995.0
999.0
996.0
994.0
993.0
989.0
990.0
989.0
985.0
978.0
970.0
957.0
945.0
938.0
927.0
923.0
923.0
925.0
925.0
924.0
923.0
922.0
926.0
925.0
928.0
927.0
928.0
926.0
924.0
921.0
919.0
920.0
922.0
926.0
929.0
928.0
925.0
922.0
916.0
911.0
908.0
908.0
920.0
947.0
993.0
1053.0
1130.0
1217.0
1310.0
1400.0
1462.0
1486.0
1467.0
1417.0
1345.0
1260.0
1173.0
1085.0
1000.0
919.0
849.0
805.0
786.0
796.0
818.0
848.0
873.0
886.0
886.0
883.0
874.0
867.0
864.0
862.0
860.0
861.0
860.0
858.0
855.0
853.0
856.0
857.0
856.0
854.0
852.0
851.0
850.0
849.0
849.0
851.0
851.0
852.0
852.0
853.0
851.0
852.0
851.0
853.0
854.0
855.0
857.0
857.0
858.0
862.0
867.0
874.0
878.0
882.0
884.0
887.0
887.0
890.0
895.0
900.0
907.0
912.0
917.0
923.0
931.0
939.0
942.0
953.0
960.0
967.0
971.0
974.0
980.0
987.0
995.0
1004.0
1014.0
1019.0
1026.0
1026.0
1028.0
1032.0
1037.0
1041.0
1048.0
1054.0
1058.0
1059.0
1060.0
1062.0
1065.0
1065.0
1066.0
1068.0
1066.0
1061.0
1058.0
1053.0
1051.0
1051.0
1052.0
1051.0
1048.0
1043.0
1037.0
1028.0
1022.0
1019.0
1015.0
1015.0
1013.0
1008.0
1001.0
993.0
990.0
988.0
983.0
976.0
975.0
974.0
969.0
965.0
964.0
962.0
967.0
968.0
971.0
970.0
968.0
962.0
957.0
955.0
956.0
962.0
967.0
973.0
978.0
981.0
986.0
990.0
992.0
995.0
998.0
1000.0
999.0
1003.0
1003.0
1003.0
1007.0
1005.0
1005.0
998.0
990.0
975.0
963.0
950.0
942.0
936.0
934.0
933.0
933.0
930.0
932.0
931.0
930.0
928.0
927.0
924.0
925.0
927.0
929.0
926.0
925.0
926.0
927.0
926.0
927.0
926.0
926.0
923.0
922.0
919.0
918.0
918.0
917.0
914.0
911.0
910.0
917.0
936.0
968.0
1013.0
1066.0
1131.0
1206.0
1289.0
1376.0
1441.0
1468.0
1454.0
1403.0
1330.0
1237.0
1145.0
1060.0
980.0
912.0
863.0
835.0
834.0
848.0
874.0
893.0
902.0
903.0
898.0
889.0
883.0
880.0
881.0
881.0
877.0
878.0
874.0
870.0
869.0
868.0
865.0
865.0
864.0
861.0
859.0
861.0
862.0
864.0
862.0
864.0
863.0
860.0
858.0
856.0
856.0
860.0
863.0
866.0
868.0
869.0
867.0
865.0
867.0
868.0
871.0
875.0
879.0
882.0
884.0
888.0
888.0
893.0
898.0
903.0
909.0
913.0
918.0
922.0
928.0
934.0
944.0
955.0
964.0
970.0
978.0
987.0
992.0
997.0
1004.0
1013.0
1023.0
1033.0
1041.0
1044.0
1049.0
1053.0
1057.0
1063.0
1069.0
1076.0
1078.0
1078.0
1082.0
1084.0
1087.0
1092.0
1091.0
1094.0
1092.0
1091.0
1087.0
1081.0
1079.0
1078.0
1079.0
1077.0
1075.0
1074.0
1069.0
1065.0
1061.0
1055.0
1052.0
1048.0
1042.0
1038.0
1033.0
1026.0
1022.0
1017.0
1018.0
1012.0
1010.0
1001.0
997.0
992.0
986.0
984.0
982.0
984.0
984.0
984.0
981.0
979.0
980.0
977.0
977.0
977.0
975.0
976.0
978.0
979.0
983.0
988.0
995.0
1004.0
1008.0
1010.0
1011.0
1010.0
1010.0
1011.0
1016.0
1023.0
1028.0
1028.0
1026.0
1020.0
1010.0
999.0
987.0
979.0
968.0
961.0
954.0
952.0
951.0
955.0
957.0
958.0
959.0
956.0
956.0
952.0
950.0
950.0
948.0
952.0
954.0
955.0
956.0
952.0
951.0
952.0
952.0
953.0
950.0
947.0
943.0
938.0
932.0
937.0
953.0
989.0
1041.0
1106.0
1189.0
1280.0
1372.0
1448.0
1490.0
1488.0
1446.0
1383.0
1302.0
1216.0
1142.0
1080.0
1026.0
979.0
930.0
887.0
863.0
862.0
875.0
897.0
919.0
933.0
928.0
923.0
912.0
901.0
894.0
893.0
897.0
900.0
905.0
907.0
905.0
900.0
894.0
891.0
889.0
887.0
888.0
888.0
888.0
887.0
887.0
888.0
887.0
889.0
889.0
892.0
890.0
892.0
895.0
898.0
903.0
910.0
915.0
917.0
923.0
926.0
931.0
934.0
942.0
950.0
957.0
965.0
973.0
981.0
990.0
1000.0
1014.0
1028.0
1035.0
1041.0
1049.0
1051.0
1058.0
1064.0
1074.0
1086.0
1096.0
1110.0
1121.0
1129.0
1137.0
1140.0
1144.0
1148.0
1155.0
1160.0
1165.0
1168.0
1170.0
1176.0
1179.0
1181.0
1178.0
1177.0
1173.0
1168.0
1163.0
1161.0
1159.0
1161.0
1160.0
1159.0
1158.0
1151.0
1145.0
1139.0
1136.0
1129.0
1126.0
1118.0
1111.0
1105.0
1100.0
1098.0
1094.0
1090.0
1084.0
1076.0
1066.0
1055.0
1049.0
1042.0
1042.0
1038.0
1038.0
1036.0
1031.0
1030.0
1026.0
1022.0
1019.0
1019.0
1017.0
1016.0
1018.0
1022.0
1024.0
1027.0
1030.0
1030.0
1028.0
1022.0
1018.0
1018.0
1019.0
1022.0
1030.0
1038.0
1047.0
1055.0
1061.0
1062.0
1063.0
1066.0
1071.0
1075.0
1078.0
1077.0
1076.0
1076.0
1069.0
1061.0
1053.0
1042.0
1032.0
1022.0
1014.0
1005.0
999.0
992.0
990.0
992.0
994.0
998.0
999.0
1001.0
997.0
995.0
991.0
991.0
992.0
994.0
994.0
995.0
991.0
989.0
989.0
988.0
989.0
989.0
988.0
985.0
979.0
976.0
970.0
970.0
977.0
999.0
1036.0
1089.0
1153.0
1231.0
1320.0
1404.0
1470.0
1499.0
1488.0
1437.0
1358.0
1266.0
1168.0
1079.0
1004.0
944.0
898.0
862.0
843.0
840.0
851.0
870.0
893.0
914.0
929.0
939.0
941.0
936.0
927.0
918.0
911.0
909.0
910.0
911.0
912.0
911.0
914.0
912.0
912.0
910.0
912.0
911.0
911.0
908.0
905.0
902.0
907.0
909.0
910.0
914.0
917.0
918.0
918.0
918.0
919.0
921.0
928.0
930.0
936.0
942.0
945.0
952.0
954.0
957.0
961.0
962.0
964.0
966.0
971.0
975.0
982.0
989.0
999.0
1007.0
1012.0
1017.0
1020.0
1025.0
1032.0
1038.0
1046.0
1055.0
1064.0
1069.0
1077.0
1085.0
1088.0
1092.0
1095.0
1097.0
1100.0
1099.0
1103.0
1105.0
1108.0
1114.0
1117.0
1120.0
1118.0
1116.0
1112.0
1106.0
1102.0
1100.0
1096.0
1097.0
1094.0
1091.0
1087.0
1083.0
1078.0
1071.0
1064.0
1057.0
1051.0
1041.0
1036.0
1033.0
1028.0
1027.0
1024.0
1022.0
1017.0
1005.0
997.0
989.0
983.0
979.0
978.0
977.0
976.0
974.0
972.0
974.0
972.0
969.0
970.0
966.0
965.0
962.0
965.0
966.0
969.0
971.0
976.0
976.0
976.0
973.0
975.0
974.0
977.0
976.0
978.0
980.0
982.0
986.0
991.0
1000.0
1006.0
1012.0
1017.0
1018.0
1021.0
1019.0
1022.0
1026.0
1027.0
1031.0
1033.0
1035.0
1030.0
1019.0
1007.0
991.0
978.0
968.0
965.0
964.0
962.0
962.0
963.0
963.0
960.0
960.0
960.0
961.0
960.0
961.0
960.0
960.0
960.0
961.0
965.0
966.0
965.0
964.0
957.0
957.0
951.0
951.0
948.0
947.0
944.0
945.0
950.0
971.0
1003.0
1049.0
1103.0
1163.0
1229.0
1300.0
1372.0
1438.0
1486.0
1499.0
1474.0
1419.0
1345.0
1257.0
1160.0
1072.0
989.0
918.0
860.0
822.0
811.0
824.0
845.0
873.0
896.0
911.0
915.0
912.0
908.0
900.0
898.0
897.0
894.0
894.0
894.0
892.0
889.0
891.0
889.0
889.0
886.0
883.0
882.0
882.0
881.0
881.0
887.0
887.0
884.0
882.0
879.0
879.0
878.0
877.0
879.0
882.0
886.0
889.0
891.0
890.0
890.0
887.0
890.0
893.0
895.0
898.0
901.0
903.0
906.0
910.0
915.0
922.0
927.0
928.0
932.0
932.0
934.0
936.0
943.0
952.0
959.0
967.0
971.0
977.0
979.0
985.0
990.0
997.0
1004.0
1014.0
1021.0
1028.0
1033.0
1039.0
1047.0
1055.0
1061.0
1067.0
1071.0
1072.0
1070.0
1072.0
1073.0
1077.0
1080.0
1087.0
1090.0
1090.0
1089.0
1086.0
1084.0
1078.0
1076.0
1076.0
1076.0
1072.0
1069.0
1064.0
1059.0
1052.0
1052.0
1048.0
1044.0
1041.0
1035.0
1029.0
1022.0
1015.0
1015.0
1011.0
1012.0
1010.0
1008.0
1004.0
998.0
997.0
993.0
992.0
992.0
995.0
999.0
999.0
999.0
999.0
998.0
996.0
997.0
998.0
997.0
1002.0
1004.0
1007.0
1010.0
1016.0
1023.0
1026.0
1033.0
1035.0
1039.0
1039.0
1036.0
1039.0
1043.0
1051.0
1053.0
1055.0
1053.0
1047.0
1040.0
1027.0
1015.0
1000.0
992.0
984.0
977.0
973.0
967.0
966.0
967.0
967.0
969.0
969.0
969.0
965.0
962.0
962.0
962.0
964.0
968.0
970.0
970.0
970.0
971.0
966.0
966.0
966.0
963.0
959.0
958.0
954.0
951.0
952.0
969.0
998.0
1049.0
1115.0
1195.0
1283.0
1375.0
1457.0
1511.0
1534.0
1517.0
1472.0
1408.0
1332.0
1250.0
1171.0
1095.0
1023.0
955.0
901.0
872.0
870.0
886.0
912.0
935.0
947.0
952.0
946.0
936.0
927.0
920.0
913.0
915.0
917.0
922.0
925.0
924.0
923.0
920.0
915.0
914.0
912.0
912.0
912.0
912.0
912.0
911.0
911.0
912.0
913.0
914.0
914.0
916.0
914.0
913.0
912.0
911.0
914.0
916.0
923.0
927.0
930.0
931.0
933.0
934.0
938.0
943.0
951.0
958.0
962.0
970.0
977.0
986.0
995.0
1005.0
1014.0
1020.0
1026.0
1029.0
1037.0
1043.0
1052.0
1067.0
1075.0
1082.0
1088.0
1094.0
1098.0
1107.0
1112.0
1121.0
1128.0
1130.0
1136.0
1142.0
1146.0
1149.0
1152.0
1157.0
1157.0
1154.0
1153.0
1150.0
1146.0
1148.0
1147.0
1150.0
1150.0
1150.0
1144.0
1138.0
1132.0
1129.0
1127.0
1126.0
1124.0
1123.0
1120.0
1114.0
1108.0
1102.0
1098.0
1095.0
1091.0
1084.0
1081.0
1074.0
1065.0
1059.0
1055.0
1053.0
1055.0
1054.0
1053.0
1050.0
1044.0
1039.0
1038.0
1036.0
1035.0
1038.0
1038.0
1040.0
1039.0
1036.0
1033.0
1039.0
1042.0
1048.0
1054.0
1061.0
1064.0
1068.0
1066.0
1070.0
1074.0
1081.0
1087.0
1090.0
1095.0
1097.0
1097.0
1092.0
1092.0
1088.0
1088.0
1082.0
1074.0
1067.0
1056.0
1047.0
1039.0
1035.0
1030.0
1032.0
1031.0
1032.0
1035.0
1034.0
1037.0
1036.0
1038.0
1041.0
1042.0
1044.0
1042.0
1042.0
1039.0
1041.0
1042.0
1042.0
1050.0
1052.0
1053.0
1048.0
1047.0
1043.0
1041.0
1037.0
1038.0
1043.0
1059.0
1083.0
1124.0
1175.0
1229.0
1287.0
1350.0
1415.0
1477.0
1524.0
1538.0
1524.0
1477.0
1412.0
1338.0
1255.0
1178.0
1107.0
1047.0
1001.0
966.0
947.0
946.0
962.0
985.0
1007.0
1024.0
1033.0
1031.0
1021.0
1012.0
1006.0
1001.0
1002.0
999.0
1000.0
998.0
996.0
997.0
999.0
999.0
999.0
1000.0
996.0
994.0
989.0
985.0
982.0
987.0
992.0
995.0
997.0
997.0
994.0
993.0
991.0
992.0
997.0
1002.0
1010.0
1014.0
1016.0
1018.0
1015.0
1013.0
1017.0
1024.0
1033.0
1041.0
1048.0
1052.0
1055.0
1059.0
1063.0
1069.0
1080.0
1087.0
1096.0
1100.0
1104.0
1109.0
1109.0
1113.0
1119.0
1127.0
1133.0
1142.0
1148.0
1154.0
1160.0
1166.0
1170.0
1174.0
1178.0
1182.0
1182.0
1184.0
1186.0
1190.0
1192.0
1197.0
1198.0
1200.0
1197.0
1196.0
1194.0
1189.0
1191.0
1189.0
1189.0
1189.0
1184.0
1175.0
1172.0
1164.0
1157.0
1152.0
1149.0
1149.0
1150.0
1147.0
1143.0
1137.0
1126.0
1120.0
1112.0
1106.0
1101.0
1097.0
1092.0
1086.0
1081.0
1074.0
1067.0
1062.0
1057.0
1051.0
1048.0
1041.0
1035.0
1029.0
1020.0
1016.0
1016.0
1014.0
1013.0
1012.0
1009.0
1007.0
1003.0
1000.0
1000.0
1002.0
1004.0
1004.0
1005.0
1004.0
1004.0
1006.0
1007.0
1005.0
1006.0
1009.0
1011.0
1013.0
1019.0
1023.0
1036.0
1043.0
1052.0
1058.0
1061.0
1066.0
1066.0
1065.0
1067.0
1067.0
1065.0
1062.0
1053.0
1042.0
1030.0
1018.0
1012.0
1004.0
1001.0
994.0
992.0
989.0
986.0
986.0
988.0
989.0
989.0
988.0
987.0
988.0
985.0
985.0
983.0
985.0
988.0
988.0
987.0
986.0
985.0
986.0
985.0
988.0
984.0
979.0
975.0
968.0
972.0
993.0
1033.0
1094.0
1167.0
1254.0
1343.0
1421.0
1481.0
1514.0
1516.0
1479.0
1421.0
1345.0
1257.0
1163.0
1068.0
989.0
918.0
863.0
827.0
822.0
835.0
860.0
886.0
908.0
924.0
933.0
934.0
930.0
926.0
920.0
917.0
912.0
905.0
905.0
906.0
906.0
905.0
905.0
908.0
907.0
905.0
906.0
905.0
906.0
906.0
903.0
902.0
900.0
900.0
901.0
904.0
913.0
918.0
919.0
918.0
919.0
918.0
918.0
919.0
923.0
929.0
932.0
935.0
939.0
944.0
949.0
955.0
960.0
967.0
970.0
971.0
973.0
976.0
983.0
990.0
999.0
1008.0
1018.0
1020.0
1023.0
1026.0
1029.0
1034.0
1040.0
1049.0
1057.0
1065.0
1071.0
1077.0
1078.0
1085.0
1087.0
1092.0
1097.0
1100.0
1101.0
1102.0
1103.0
1103.0
1105.0
1109.0
1111.0
1110.0
1106.0
1101.0
1096.0
1091.0
1086.0
1085.0
1080.0
1079.0
1080.0
1075.0
1068.0
1062.0
1054.0
1046.0
1043.0
1038.0
1033.0
1029.0
1021.0
1015.0
1010.0
1007.0
1003.0
1001.0
997.0
993.0
988.0
981.0
976.0
975.0
973.0
974.0
974.0
977.0
977.0
971.0
967.0
962.0
964.0
965.0
966.0
969.0
972.0
971.0
974.0
973.0
973.0
976.0
978.0
979.0
980.0
982.0
982.0
986.0
989.0
996.0
1005.0
1010.0
1016.0
1019.0
1018.0
1018.0
1018.0
1020.0
1022.0
1021.0
1020.0
1014.0
1004.0
991.0
978.0
968.0
962.0
957.0
955.0
949.0
943.0
939.0
936.0
936.0
936.0
937.0
935.0
928.0
913.0
897.0
878.0
863.0
861.0
882.0
926.0
986.0
1059.0
1140.0
1215.0
1278.0
1307.0
1288.0
1217.0
1122.0
1032.0
964.0
922.0
891.0
860.0
826.0
789.0
755.0
731.0
724.0
734.0
759.0
786.0
821.0
855.0
880.0
898.0
905.0
907.0
906.0
899.0
895.0
894.0
896.0
899.0
902.0
904.0
899.0
899.0
895.0
895.0
893.0
894.0
896.0
895.0
894.0
890.0
891.0
891.0
895.0
900.0
901.0
904.0
901.0
899.0
899.0
899.0
900.0
905.0
911.0
913.0
918.0
918.0
922.0
929.0
933.0
937.0
942.0
948.0
953.0
956.0
963.0
970.0
975.0
981.0
991.0
1001.0
1009.0
1013.0
1016.0
1021.0
1024.0
1030.0
1038.0
1046.0
1055.0
1062.0
1067.0
1071.0
1074.0
1078.0
1086.0
1093.0
1098.0
1102.0
1103.0
1105.0
1109.0
1111.0
1117.0
1118.0
1120.0
1117.0
1113.0
1108.0
1106.0
1099.0
1100.0
1098.0
1096.0
1093.0
1090.0
1083.0
1074.0
1067.0
1062.0
1054.0
1051.0
1048.0
1043.0
1035.0
1030.0
1027.0
1025.0
1026.0
1026.0
1023.0
1018.0
1014.0
1009.0
1008.0
1007.0
1007.0
1012.0
1013.0
1011.0
1011.0
1009.0
1005.0
1005.0
1005.0
1005.0
1007.0
1004.0
1005.0
1005.0
1004.0
1005.0
1007.0
1009.0
1009.0
1006.0
1005.0
1006.0
1004.0
1003.0
1005.0
1006.0
1008.0
1013.0
1013.0
1015.0
1017.0
1022.0
1025.0
1029.0
1034.0
1034.0
1034.0
1037.0
1038.0
1041.0
1045.0
1043.0
1038.0
1032.0
1020.0
1007.0
996.0
987.0
977.0
975.0
972.0
968.0
966.0
962.0
961.0
959.0
959.0
961.0
960.0
960.0
961.0
960.0
963.0
967.0
971.0
971.0
967.0
965.0
965.0
963.0
963.0
967.0
970.0
966.0
963.0
959.0
963.0
981.0
1017.0
1075.0
1147.0
1233.0
1322.0
1410.0
1471.0
1505.0
1499.0
1463.0
1401.0
1327.0
1248.0
1176.0
1111.0
1054.0
997.0
944.0
902.0
880.0
878.0
895.0
920.0
940.0
950.0
952.0
946.0
935.0
925.0
918.0
914.0
913.0
