# Simple Text Format
# Sampling Rate (Hz):= 360.00
# Resolution:= 12
# Labels:= ECG
916.0
915.0
914.0
913.0
918.0
927.0
935.0
940.0
947.0
950.0
951.0
954.0
959.0
966.0
978.0
985.0
991.0
991.0
988.0
985.0
978.0
971.0
962.0
949.0
940.0
926.0
917.0
909.0
909.0
908.0
909.0
909.0
910.0
908.0
908.0
906.0
906.0
908.0
911.0
914.0
912.0
914.0
911.0
909.0
910.0
913.0
914.0
915.0
913.0
908.0
903.0
898.0
894.0
898.0
912.0
938.0
984.0
1041.0
1114.0
1199.0
1282.0
1355.0
1414.0
1449.0
1451.0
1419.0
1355.0
1268.0
1169.0
1063.0
960.0
872.0
801.0
755.0
740.0
751.0
779.0
812.0
843.0
861.0
866.0
861.0
853.0
846.0
840.0
839.0
838.0
841.0
843.0
843.0
843.0
843.0
842.0
844.0
839.0
838.0
834.0
832.0
832.0
835.0
841.0
844.0
847.0
848.0
848.0
846.0
846.0
849.0
854.0
857.0
860.0
863.0
867.0
872.0
876.0
877.0
884.0
890.0
895.0
898.0
901.0
905.0
908.0
914.0
922.0
929.0
938.0
946.0
951.0
954.0
958.0
961.0
966.0
970.0
975.0
982.0
991.0
996.0
1003.0
1013.0
1020.0
1027.0
1034.0
1042.0
1043.0
1049.0
1046.0
1052.0
1059.0
1067.0
1074.0
1077.0
1078.0
1076.0
1074.0
1072.0
1070.0
1072.0
1069.0
1070.0
1066.0
1062.0
1055.0
1049.0
1041.0
1034.0
1028.0
1019.0
1010.0
999.0
992.0
985.0
981.0
978.0
975.0
969.0
961.0
954.0
943.0
936.0
931.0
926.0
921.0
918.0
915.0
915.0
910.0
908.0
908.0
907.0
907.0
906.0
903.0
900.0
899.0
900.0
900.0
907.0
908.0
912.0
914.0
910.0
907.0
904.0
901.0
904.0
907.0
913.0
919.0
923.0
927.0
929.0
931.0
934.0
940.0
945.0
948.0
948.0
948.0
950.0
948.0
948.0
948.0
941.0
933.0
919.0
902.0
890.0
880.0
874.0
872.0
874.0
875.0
877.0
876.0
875.0
873.0
872.0
869.0
872.0
868.0
862.0
858.0
849.0
843.0
840.0
845.0
850.0
858.0
876.0
895.0
921.0
950.0
979.0
1009.0
1038.0
1062.0
1092.0
1132.0
1182.0
1245.0
1310.0
1374.0
1432.0
1478.0
1506.0
1514.0
1505.0
1481.0
1437.0
1376.0
1301.0
1214.0
1117.0
1014.0
922.0
844.0
796.0
777.0
779.0
792.0
801.0
809.0
804.0
794.0
780.0
768.0
760.0
757.0
754.0
750.0
748.0
746.0
743.0
741.0
739.0
739.0
735.0
732.0
727.0
725.0
720.0
718.0
717.0
718.0
720.0
722.0
719.0
715.0
708.0
707.0
703.0
702.0
699.0
702.0
702.0
702.0
700.0
703.0
705.0
706.0
707.0
708.0
708.0
707.0
709.0
710.0
718.0
723.0
728.0
735.0
738.0
744.0
749.0
750.0
754.0
764.0
770.0
780.0
790.0
800.0
809.0
817.0
823.0
834.0
843.0
852.0
860.0
867.0
875.0
882.0
889.0
896.0
908.0
919.0
925.0
929.0
935.0
940.0
942.0
945.0
952.0
955.0
960.0
964.0
964.0
966.0
966.0
964.0
963.0
960.0
957.0
952.0
945.0
940.0
937.0
933.0
931.0
930.0
929.0
927.0
922.0
916.0
908.0
898.0
892.0
884.0
883.0
880.0
876.0
874.0
872.0
869.0
867.0
865.0
862.0
863.0
863.0
860.0
859.0
860.0
860.0
863.0
865.0
871.0
877.0
880.0
883.0
884.0
888.0
891.0
895.0
899.0
903.0
909.0
911.0
913.0
912.0
907.0
904.0
899.0
891.0
877.0
870.0
862.0
856.0
854.0
850.0
850.0
850.0
851.0
850.0
848.0
847.0
846.0
848.0
852.0
853.0
855.0
856.0
856.0
856.0
855.0
857.0
858.0
858.0
860.0
864.0
861.0
860.0
861.0
859.0
857.0
854.0
852.0
863.0
881.0
914.0
974.0
1044.0
1132.0
1226.0
1315.0
1384.0
1421.0
1419.0
1382.0
1322.0
1249.0
1170.0
1090.0
1013.0
943.0
876.0
819.0
780.0
759.0
760.0
778.0
803.0
824.0
837.0
838.0
833.0
826.0
819.0
817.0
819.0
818.0
815.0
813.0
810.0
807.0
804.0
802.0
803.0
804.0
801.0
803.0
799.0
797.0
794.0
792.0
793.0
792.0
793.0
794.0
792.0
791.0
790.0
791.0
794.0
798.0
802.0
801.0
802.0
804.0
803.0
804.0
810.0
813.0
818.0
823.0
828.0
833.0
838.0
840.0
850.0
861.0
871.0
881.0
889.0
899.0
906.0
912.0
919.0
927.0
936.0
947.0
958.0
970.0
980.0
989.0
998.0
1010.0
1018.0
1026.0
1034.0
1045.0
1053.0
1057.0
1058.0
1061.0
1062.0
1068.0
1074.0
1079.0
1085.0
1086.0
1083.0
1085.0
1082.0
1079.0
1081.0
1081.0
1081.0
1075.0
1074.0
1066.0
1061.0
1055.0
1052.0
1050.0
1048.0
1045.0
1040.0
1034.0
1026.0
1017.0
1010.0
1006.0
1001.0
1002.0
997.0
991.0
984.0
975.0
966.0
959.0
950.0
943.0
942.0
936.0
930.0
929.0
924.0
921.0
917.0
913.0
911.0
909.0
907.0
904.0
904.0
905.0
904.0
906.0
907.0
911.0
909.0
908.0
903.0
902.0
899.0
901.0
907.0
917.0
925.0
931.0
938.0
943.0
944.0
944.0
947.0
949.0
951.0
957.0
961.0
963.0
962.0
962.0
957.0
953.0
943.0
935.0
922.0
914.0
904.0
896.0
890.0
888.0
886.0
888.0
889.0
891.0
889.0
888.0
884.0
882.0
881.0
881.0
883.0
886.0
889.0
891.0
893.0
891.0
893.0
889.0
892.0
891.0
891.0
891.0
887.0
882.0
879.0
878.0
884.0
899.0
924.0
961.0
1008.0
1066.0
1133.0
1210.0
1288.0
1357.0
1409.0
1432.0
1417.0
1367.0
1295.0
1213.0
1126.0
1045.0
977.0
916.0
865.0
825.0
794.0
781.0
785.0
801.0
819.0
837.0
847.0
846.0
843.0
833.0
826.0
823.0
821.0
821.0
821.0
821.0
817.0
814.0
810.0
807.0
805.0
803.0
804.0
810.0
810.0
813.0
813.0
811.0
811.0
812.0
813.0
814.0
813.0
812.0
812.0
818.0
818.0
819.0
825.0
827.0
830.0
834.0
836.0
836.0
838.0
840.0
844.0
851.0
857.0
864.0
870.0
873.0
875.0
874.0
878.0
882.0
886.0
892.0
894.0
902.0
905.0
910.0
919.0
928.0
934.0
942.0
947.0
951.0
952.0
955.0
962.0
968.0
977.0
988.0
996.0
999.0
1000.0
998.0
1000.0
995.0
995.0
999.0
1003.0
1009.0
1012.0
1012.0
1013.0
1013.0
1013.0
1012.0
1006.0
998.0
990.0
984.0
978.0
975.0
973.0
970.0
967.0
960.0
952.0
944.0
941.0
935.0
933.0
932.0
927.0
919.0
911.0
907.0
901.0
899.0
894.0
891.0
886.0
879.0
871.0
865.0
862.0
863.0
863.0
866.0
865.0
865.0
861.0
859.0
858.0
858.0
860.0
862.0
862.0
864.0
864.0
869.0
868.0
871.0
875.0
876.0
877.0
880.0
885.0
890.0
898.0
905.0
913.0
919.0
920.0
920.0
922.0
921.0
924.0
923.0
921.0
913.0
906.0
896.0
885.0
875.0
868.0
864.0
863.0
861.0
859.0
856.0
855.0
853.0
856.0
857.0
858.0
860.0
862.0
860.0
860.0
858.0
856.0
857.0
857.0
861.0
863.0
862.0
862.0
862.0
860.0
858.0
856.0
852.0
849.0
854.0
872.0
908.0
959.0
1015.0
1076.0
1141.0
1215.0
1293.0
1364.0
1403.0
1402.0
1359.0
1283.0
1182.0
1079.0
976.0
887.0
811.0
754.0
724.0
715.0
732.0
756.0
781.0
801.0
808.0
812.0
811.0
806.0
805.0
801.0
796.0
795.0
792.0
789.0
787.0
787.0
785.0
783.0
783.0
781.0
779.0
776.0
779.0
778.0
776.0
777.0
775.0
774.0
772.0
772.0
774.0
777.0
780.0
783.0
783.0
783.0
778.0
779.0
778.0
781.0
785.0
791.0
795.0
799.0
801.0
805.0
808.0
812.0
817.0
822.0
827.0
828.0
830.0
834.0
836.0
841.0
846.0
854.0
866.0
870.0
875.0
879.0
885.0
889.0
894.0
904.0
913.0
918.0
924.0
931.0
935.0
942.0
948.0
951.0
958.0
965.0
965.0
969.0
972.0
974.0
978.0
982.0
985.0
983.0
982.0
979.0
975.0
972.0
968.0
969.0
966.0
961.0
958.0
956.0
949.0
942.0
937.0
930.0
927.0
921.0
915.0
910.0
905.0
898.0
896.0
894.0
891.0
888.0
885.0
879.0
873.0
870.0
866.0
866.0
869.0
871.0
872.0
873.0
872.0
868.0
867.0
866.0
868.0
868.0
868.0
871.0
871.0
877.0
883.0
890.0
895.0
901.0
906.0
907.0
905.0
906.0
905.0
907.0
909.0
913.0
916.0
915.0
908.0
901.0
890.0
880.0
870.0
859.0
852.0
847.0
843.0
843.0
840.0
842.0
843.0
843.0
843.0
846.0
844.0
843.0
841.0
842.0
841.0
842.0
844.0
848.0
852.0
850.0
848.0
849.0
847.0
848.0
848.0
848.0
849.0
846.0
843.0
840.0
844.0
858.0
888.0
932.0
994.0
1071.0
1160.0
1252.0
1336.0
1401.0
1433.0
1427.0
1387.0
1331.0
1258.0
1181.0
1103.0
1025.0
950.0
884.0
828.0
786.0
764.0
763.0
775.0
795.0
813.0
826.0
828.0
824.0
817.0
811.0
803.0
800.0
798.0
797.0
796.0
796.0
797.0
796.0
792.0
788.0
785.0
783.0
782.0
783.0
784.0
790.0
788.0
786.0
783.0
782.0
780.0
781.0
783.0
782.0
785.0
786.0
790.0
790.0
791.0
795.0
798.0
802.0
802.0
804.0
808.0
812.0
815.0
822.0
830.0
840.0
845.0
850.0
854.0
857.0
863.0
870.0
878.0
886.0
896.0
904.0
912.0
922.0
927.0
936.0
945.0
949.0
959.0
965.0
970.0
976.0
984.0
996.0
1003.0
1009.0
1015.0
1017.0
1014.0
1016.0
1018.0
1016.0
1020.0
1025.0
1028.0
1029.0
1027.0
1025.0
1023.0
1023.0
1020.0
1017.0
1012.0
1007.0
999.0
996.0
994.0
991.0
989.0
988.0
983.0
979.0
972.0
966.0
958.0
953.0
948.0
945.0
939.0
935.0
928.0
925.0
921.0
919.0
913.0
910.0
906.0
901.0
897.0
895.0
895.0
897.0
898.0
900.0
902.0
900.0
899.0
895.0
895.0
898.0
901.0
906.0
914.0
919.0
923.0
925.0
927.0
930.0
933.0
937.0
938.0
940.0
942.0
941.0
940.0
935.0
934.0
926.0
915.0
902.0
892.0
882.0
873.0
868.0
870.0
872.0
877.0
877.0
875.0
875.0
873.0
877.0
875.0
877.0
876.0
875.0
872.0
873.0
873.0
876.0
878.0
880.0
878.0
877.0
873.0
868.0
865.0
868.0
881.0
908.0
953.0
1011.0
1084.0
1176.0
1274.0
1364.0
1434.0
1470.0
1462.0
1419.0
1341.0
1251.0
1151.0
1056.0
971.0
901.0
842.0
800.0
778.0
780.0
795.0
820.0
841.0
853.0
858.0
852.0
847.0
843.0
842.0
842.0
844.0
846.0
846.0
843.0
841.0
838.0
836.0
837.0
834.0
837.0
840.0
838.0
835.0
834.0
834.0
836.0
835.0
835.0
836.0
837.0
839.0
842.0
845.0
848.0
852.0
853.0
857.0
860.0
860.0
863.0
867.0
875.0
879.0
887.0
893.0
896.0
902.0
905.0
908.0
915.0
923.0
933.0
943.0
950.0
956.0
963.0
969.0
974.0
977.0
984.0
993.0
998.0
1002.0
1012.0
1018.0
1025.0
1034.0
1044.0
1048.0
1049.0
1051.0
1049.0
1049.0
1052.0
1056.0
1062.0
1065.0
1068.0
1067.0
1063.0
1059.0
1051.0
1048.0
1044.0
1043.0
1044.0
1042.0
1039.0
1035.0
1029.0
1027.0
1025.0
1023.0
1020.0
1014.0
1005.0
994.0
984.0
976.0
973.0
969.0
967.0
965.0
960.0
952.0
943.0
936.0
930.0
926.0
924.0
919.0
914.0
907.0
902.0
897.0
894.0
893.0
891.0
888.0
884.0
879.0
872.0
869.0
869.0
872.0
877.0
884.0
883.0
889.0
888.0
883.0
880.0
879.0
882.0
882.0
889.0
893.0
900.0
903.0
908.0
911.0
919.0
921.0
927.0
931.0
934.0
935.0
936.0
936.0
933.0
932.0
933.0
930.0
923.0
914.0
902.0
887.0
878.0
872.0
866.0
863.0
865.0
867.0
869.0
868.0
867.0
864.0
867.0
867.0
867.0
865.0
868.0
866.0
865.0
866.0
869.0
872.0
874.0
874.0
873.0
870.0
866.0
862.0
859.0
855.0
852.0
862.0
881.0
912.0
957.0
1008.0
1069.0
1145.0
1225.0
1311.0
1381.0
1416.0
1405.0
1351.0
1262.0
1154.0
1041.0
944.0
859.0
792.0
745.0
719.0
720.0
736.0
762.0
788.0
807.0
818.0
818.0
819.0
815.0
811.0
805.0
801.0
800.0
802.0
802.0
802.0
806.0
810.0
809.0
808.0
804.0
800.0
795.0
796.0
797.0
797.0
799.0
802.0
803.0
805.0
806.0
807.0
807.0
809.0
815.0
818.0
819.0
820.0
823.0
826.0
831.0
835.0
840.0
844.0
849.0
852.0
851.0
851.0
856.0
863.0
872.0
877.0
886.0
889.0
894.0
901.0
906.0
911.0
916.0
921.0
924.0
930.0
935.0
944.0
953.0
961.0
966.0
971.0
969.0
969.0
972.0
974.0
977.0
985.0
989.0
996.0
996.0
998.0
998.0
997.0
996.0
994.0
994.0
989.0
987.0
982.0
975.0
975.0
975.0
971.0
968.0
963.0
956.0
950.0
944.0
937.0
932.0
930.0
928.0
923.0
920.0
912.0
905.0
896.0
888.0
886.0
882.0
881.0
878.0
871.0
870.0
865.0
864.0
865.0
865.0
866.0
864.0
859.0
856.0
852.0
851.0
851.0
853.0
853.0
857.0
859.0
860.0
861.0
859.0
857.0
856.0
858.0
858.0
861.0
869.0
871.0
878.0
883.0
890.0
894.0
899.0
900.0
902.0
903.0
903.0
905.0
908.0
912.0
914.0
913.0
910.0
901.0
890.0
877.0
867.0
859.0
854.0
852.0
848.0
849.0
847.0
847.0
846.0
847.0
847.0
848.0
847.0
846.0
842.0
843.0
840.0
842.0
846.0
846.0
850.0
850.0
848.0
846.0
841.0
839.0
839.0
837.0
836.0
835.0
832.0
835.0
846.0
868.0
903.0
948.0
1007.0
1074.0
1155.0
1245.0
1331.0
1398.0
1423.0
1402.0
1344.0
1258.0
1153.0
1050.0
953.0
867.0
795.0
747.0
724.0
721.0
739.0
761.0
785.0
801.0
807.0
808.0
805.0
798.0
794.0
790.0
786.0
787.0
784.0
784.0
785.0
784.0
784.0
783.0
779.0
779.0
775.0
771.0
773.0
774.0
777.0
777.0
778.0
777.0
775.0
771.0
770.0
771.0
776.0
777.0
778.0
780.0
782.0
783.0
783.0
786.0
788.0
794.0
795.0
796.0
801.0
804.0
810.0
812.0
819.0
827.0
833.0
837.0
840.0
843.0
847.0
853.0
860.0
867.0
873.0
878.0
883.0
886.0
892.0
899.0
906.0
914.0
921.0
924.0
930.0
936.0
943.0
950.0
957.0
966.0
971.0
974.0
976.0
976.0
973.0
976.0
977.0
982.0
987.0
986.0
988.0
986.0
984.0
979.0
976.0
977.0
973.0
970.0
966.0
960.0
958.0
952.0
945.0
943.0
941.0
938.0
934.0
929.0
922.0
915.0
913.0
910.0
908.0
910.0
909.0
907.0
902.0
897.0
891.0
887.0
886.0
885.0
885.0
886.0
888.0
887.0
887.0
882.0
886.0
885.0
885.0
884.0
887.0
889.0
892.0
898.0
905.0
909.0
914.0
914.0
917.0
915.0
917.0
919.0
923.0
922.0
919.0
911.0
899.0
887.0
880.0
871.0
864.0
860.0
856.0
853.0
851.0
850.0
851.0
852.0
855.0
856.0
856.0
855.0
853.0
852.0
851.0
851.0
852.0
854.0
854.0
855.0
855.0
856.0
854.0
854.0
853.0
847.0
843.0
843.0
851.0
869.0
904.0
957.0
1025.0
1116.0
1218.0
1316.0
1396.0
1434.0
1423.0
1367.0
1283.0
1176.0
1072.0
976.0
896.0
836.0
794.0
774.0
775.0
789.0
807.0
826.0
836.0
837.0
833.0
827.0
823.0
815.0
813.0
810.0
811.0
809.0
810.0
809.0
809.0
805.0
805.0
802.0
798.0
798.0
801.0
804.0
804.0
803.0
801.0
798.0
797.0
795.0
797.0
799.0
804.0
806.0
808.0
807.0
810.0
809.0
813.0
816.0
818.0
817.0
821.0
825.0
829.0
835.0
841.0
850.0
856.0
860.0
862.0
864.0
866.0
872.0
880.0
888.0
899.0
906.0
915.0
919.0
927.0
933.0
940.0
951.0
959.0
966.0
972.0
978.0
986.0
992.0
1000.0
1006.0
1011.0
1015.0
1016.0
1016.0
1017.0
1016.0
1016.0
1020.0
1023.0
1025.0
1024.0
1026.0
1023.0
1017.0
1014.0
1014.0
1011.0
1008.0
1006.0
1002.0
999.0
994.0
993.0
989.0
990.0
988.0
985.0
979.0
973.0
965.0
960.0
955.0
952.0
952.0
951.0
945.0
944.0
935.0
929.0
923.0
920.0
917.0
915.0
913.0
912.0
909.0
908.0
905.0
906.0
907.0
906.0
906.0
904.0
905.0
904.0
902.0
906.0
910.0
915.0
920.0
926.0
931.0
935.0
935.0
939.0
940.0
945.0
950.0
954.0
956.0
961.0
960.0
959.0
956.0
951.0
946.0
939.0
930.0
919.0
911.0
904.0
897.0
891.0
893.0
894.0
896.0
895.0
894.0
891.0
888.0
888.0
889.0
891.0
894.0
896.0
896.0
896.0
894.0
892.0
890.0
891.0
892.0
893.0
894.0
896.0
893.0
894.0
891.0
886.0
881.0
881.0
890.0
910.0
943.0
988.0
1046.0
1115.0
1191.0
1277.0
1355.0
1421.0
1458.0
1454.0
1413.0
1343.0
1254.0
1158.0
1068.0
992.0
929.0
882.0
842.0
817.0
807.0
812.0
824.0
846.0
861.0
870.0
873.0
869.0
862.0
857.0
852.0
853.0
854.0
854.0
856.0
853.0
850.0
848.0
847.0
848.0
848.0
849.0
848.0
845.0
846.0
844.0
844.0
844.0
847.0
852.0
853.0
853.0
857.0
857.0
860.0
860.0
865.0
867.0
871.0
871.0
873.0
876.0
880.0
886.0
896.0
901.0
908.0
910.0
913.0
916.0
918.0
924.0
928.0
938.0
945.0
953.0
959.0
964.0
970.0
974.0
979.0
986.0
994.0
1001.0
1008.0
1011.0
1018.0
1020.0
1026.0
1037.0
1041.0
1049.0
1056.0
1059.0
1062.0
1062.0
1066.0
1070.0
1073.0
1077.0
1079.0
1077.0
1075.0
1072.0
1072.0
1068.0
1064.0
1064.0
1064.0
1058.0
1055.0
1053.0
1049.0
1044.0
1037.0
1032.0
1025.0
1019.0
1016.0
1008.0
1001.0
997.0
991.0
988.0
983.0
979.0
974.0
966.0
958.0
952.0
946.0
938.0
936.0
930.0
926.0
924.0
918.0
914.0
909.0
906.0
903.0
897.0
895.0
893.0
893.0
895.0
898.0
899.0
900.0
902.0
902.0
897.0
898.0
894.0
896.0
897.0
902.0
903.0
908.0
911.0
913.0
922.0
930.0
938.0
944.0
946.0
947.0
946.0
945.0
946.0
946.0
948.0
948.0
948.0
940.0
931.0
916.0
903.0
892.0
884.0
880.0
876.0
880.0
880.0
879.0
881.0
881.0
884.0
889.0
891.0
892.0
890.0
887.0
881.0
880.0
880.0
884.0
889.0
889.0
893.0
891.0
889.0
884.0
881.0
876.0
874.0
877.0
886.0
903.0
936.0
984.0
1041.0
1105.0
1173.0
1249.0
1322.0
1387.0
1436.0
1452.0
1421.0
1356.0
1265.0
1161.0
1054.0
958.0
879.0
818.0
774.0
752.0
751.0
766.0
792.0
814.0
835.0
847.0
847.0
844.0
839.0
828.0
828.0
822.0
823.0
825.0
825.0
826.0
826.0
822.0
824.0
824.0
823.0
821.0
819.0
820.0
823.0
822.0
825.0
827.0
828.0
825.0
826.0
827.0
827.0
827.0
831.0
834.0
837.0
839.0
840.0
842.0
841.0
847.0
852.0
856.0
858.0
860.0
861.0
864.0
865.0
866.0
870.0
875.0
885.0
891.0
896.0
900.0
900.0
903.0
909.0
913.0
917.0
924.0
931.0
937.0
944.0
950.0
958.0
963.0
968.0
971.0
974.0
973.0
976.0
976.0
983.0
985.0
991.0
999.0
1003.0
1006.0
1007.0
1008.0
1005.0
1003.0
1002.0
1002.0
1005.0
1007.0
1007.0
1003.0
997.0
993.0
988.0
984.0
979.0
974.0
971.0
965.0
961.0
958.0
955.0
951.0
947.0
942.0
938.0
932.0
927.0
920.0
911.0
909.0
905.0
904.0
902.0
899.0
895.0
889.0
886.0
880.0
878.0
876.0
874.0
873.0
872.0
873.0
872.0
871.0
873.0
874.0
874.0
875.0
873.0
871.0
873.0
871.0
874.0
876.0
879.0
880.0
883.0
884.0
884.0
886.0
890.0
891.0
895.0
900.0
907.0
911.0
917.0
919.0
919.0
920.0
922.0
924.0
922.0
919.0
915.0
907.0
899.0
890.0
884.0
878.0
874.0
869.0
865.0
863.0
862.0
860.0
863.0
862.0
866.0
866.0
867.0
865.0
863.0
864.0
863.0
861.0
863.0
866.0
867.0
866.0
867.0
868.0
870.0
870.0
870.0
871.0
868.0
861.0
858.0
859.0
870.0
903.0
952.0
1016.0
1098.0
1194.0
1293.0
1385.0
1454.0
1496.0
1499.0
1467.0
1401.0
1320.0
1224.0
1125.0
1026.0
941.0
867.0
809.0
770.0
755.0
763.0
780.0
804.0
824.0
838.0
842.0
841.0
836.0
833.0
826.0
822.0
817.0
816.0
815.0
814.0
818.0
819.0
820.0
821.0
819.0
817.0
813.0
813.0
811.0
810.0
811.0
812.0
812.0
809.0
811.0
811.0
813.0
814.0
815.0
818.0
816.0
819.0
816.0
817.0
821.0
826.0
832.0
837.0
841.0
843.0
844.0
849.0
854.0
857.0
863.0
867.0
871.0
875.0
882.0
886.0
894.0
902.0
909.0
915.0
920.0
923.0
930.0
933.0
941.0
951.0
960.0
968.0
976.0
981.0
983.0
986.0
993.0
996.0
1001.0
1010.0
1017.0
1020.0
1026.0
1030.0
1033.0
1039.0
1041.0
1040.0
1039.0
1037.0
1033.0
1028.0
1027.0
1028.0
1033.0
1030.0
1028.0
1021.0
1018.0
1011.0
1008.0
1003.0
1001.0
996.0
993.0
989.0
984.0
980.0
976.0
973.0
970.0
967.0
956.0
953.0
947.0
945.0
940.0
940.0
942.0
946.0
947.0
944.0
941.0
940.0
938.0
939.0
938.0
938.0
940.0
942.0
947.0
950.0
954.0
959.0
969.0
972.0
977.0
977.0
976.0
977.0
981.0
984.0
989.0
993.0
994.0
992.0
984.0
977.0
968.0
958.0
947.0
937.0
931.0
928.0
922.0
922.0
921.0
923.0
924.0
926.0
923.0
925.0
920.0
917.0
918.0
919.0
922.0
924.0
926.0
927.0
925.0
923.0
921.0
918.0
919.0
919.0
922.0
922.0
916.0
914.0
916.0
935.0
967.0
1021.0
1090.0
1179.0
1278.0
1378.0
1465.0
1522.0
1535.0
1504.0
1432.0
1337.0
1226.0
1117.0
1021.0
940.0
882.0
840.0
825.0
830.0
850.0
876.0
894.0
903.0
905.0
896.0
887.0
879.0
871.0
868.0
870.0
872.0
875.0
878.0
876.0
878.0
876.0
872.0
868.0
867.0
870.0
872.0
872.0
876.0
875.0
877.0
878.0
877.0
877.0
877.0
879.0
880.0
881.0
882.0
885.0
890.0
895.0
899.0
904.0
910.0
913.0
916.0
921.0
928.0
936.0
943.0
951.0
957.0
960.0
965.0
968.0
976.0
982.0
988.0
996.0
1004.0
1011.0
1016.0
1023.0
1030.0
1037.0
1046.0
1058.0
1067.0
1074.0
1077.0
1079.0
1081.0
1085.0
1093.0
1101.0
1111.0
1118.0
1122.0
1123.0
1121.0
1115.0
1116.0
1115.0
1116.0
1115.0
1112.0
1110.0
1105.0
1099.0
1100.0
1098.0
1094.0
1092.0
1088.0
1080.0
1072.0
1066.0
1060.0
1055.0
1052.0
1048.0
1043.0
1036.0
1032.0
1027.0
1022.0
1021.0
1018.0
1014.0
1010.0
1004.0
996.0
987.0
978.0
975.0
971.0
968.0
966.0
959.0
953.0
950.0
945.0
941.0
941.0
941.0
941.0
940.0
939.0
938.0
934.0
933.0
933.0
934.0
937.0
938.0
941.0
943.0
947.0
953.0
960.0
970.0
973.0
977.0
979.0
980.0
979.0
981.0
988.0
991.0
995.0
999.0
997.0
994.0
990.0
981.0
969.0
956.0
948.0
938.0
933.0
931.0
929.0
928.0
925.0
925.0
925.0
925.0
930.0
927.0
925.0
925.0
926.0
926.0
927.0
931.0
932.0
932.0
932.0
932.0
929.0
928.0
926.0
926.0
928.0
926.0
927.0
925.0
926.0
931.0
950.0
986.0
1039.0
1109.0
1193.0
1290.0
1386.0
1471.0
1529.0
1550.0
1522.0
1459.0
1370.0
1271.0
1166.0
1067.0
983.0
916.0
865.0
826.0
807.0
803.0
811.0
828.0
847.0
865.0
879.0
887.0
887.0
884.0
877.0
869.0
867.0
867.0
867.0
867.0
867.0
868.0
866.0
862.0
859.0
857.0
857.0
860.0
865.0
869.0
870.0
871.0
870.0
869.0
867.0
869.0
871.0
875.0
876.0
877.0
878.0
881.0
883.0
887.0
889.0
893.0
895.0
898.0
902.0
903.0
908.0
917.0
925.0
929.0
936.0
936.0
935.0
939.0
940.0
946.0
952.0
962.0
968.0
973.0
978.0
983.0
987.0
994.0
999.0
1005.0
1011.0
1018.0
1022.0
1029.0
1034.0
1042.0
1052.0
1060.0
1063.0
1062.0
1062.0
1059.0
1056.0
1057.0
1061.0
1066.0
1067.0
1064.0
1059.0
1055.0
1052.0
1048.0
1045.0
1039.0
1034.0
1027.0
1020.0
1017.0
1011.0
1007.0
1005.0
1003.0
999.0
992.0
986.0
982.0
974.0
971.0
967.0
966.0
961.0
958.0
953.0
945.0
940.0
936.0
935.0
934.0
931.0
925.0
922.0
920.0
921.0
922.0
923.0
920.0
921.0
923.0
920.0
920.0
921.0
924.0
922.0
925.0
928.0
927.0
929.0
929.0
933.0
938.0
944.0
949.0
955.0
957.0
961.0
963.0
969.0
974.0
978.0
982.0
981.0
981.0
977.0
972.0
964.0
957.0
948.0
940.0
930.0
926.0
919.0
918.0
915.0
916.0
915.0
918.0
916.0
912.0
911.0
910.0
911.0
913.0
917.0
918.0
922.0
921.0
919.0
918.0
918.0
914.0
917.0
917.0
916.0
914.0
913.0
905.0
905.0
911.0
926.0
960.0
1009.0
1073.0
1148.0
1234.0
1321.0
1404.0
1468.0
1513.0
1518.0
1485.0
1424.0
1341.0
1241.0
1138.0
1038.0
954.0
883.0
832.0
806.0
797.0
805.0
829.0
849.0
867.0
879.0
881.0
877.0
871.0
865.0
863.0
862.0
862.0
863.0
862.0
864.0
861.0
859.0
856.0
853.0
854.0
853.0
853.0
854.0
855.0
855.0
853.0
850.0
851.0
853.0
853.0
854.0
852.0
853.0
854.0
854.0
856.0
859.0
863.0
867.0
869.0
869.0
868.0
868.0
872.0
876.0
882.0
887.0
895.0
897.0
901.0
901.0
903.0
909.0
915.0
921.0
930.0
935.0
943.0
949.0
958.0
965.0
971.0
980.0
983.0
987.0
993.0
997.0
1005.0
1013.0
1021.0
1029.0
1034.0
1037.0
1038.0
1040.0
1041.0
1044.0
1048.0
1050.0
1054.0
1055.0
1055.0
1056.0
1057.0
1060.0
1059.0
1058.0
1055.0
1051.0
1043.0
1038.0
1036.0
1035.0
1035.0
1032.0
1030.0
1027.0
1022.0
1012.0
1004.0
997.0
991.0
989.0
989.0
986.0
982.0
980.0
977.0
976.0
975.0
975.0
972.0
971.0
967.0
965.0
964.0
966.0
970.0
972.0
976.0
976.0
975.0
975.0
973.0
973.0
977.0
982.0
987.0
996.0
1004.0
1008.0
1009.0
1011.0
1016.0
1016.0
1019.0
1022.0
1020.0
1017.0
1015.0
1012.0
1007.0
1002.0
994.0
987.0
978.0
967.0
957.0
951.0
947.0
947.0
949.0
952.0
952.0
953.0
949.0
948.0
948.0
949.0
948.0
951.0
947.0
943.0
945.0
945.0
947.0
951.0
954.0
955.0
955.0
953.0
949.0
939.0
937.0
937.0
947.0
975.0
1014.0
1077.0
1153.0
1248.0
1354.0
1454.0
1527.0
1561.0
1551.0
1503.0
1439.0
1371.0
1299.0
1227.0
1153.0
1078.0
1006.0
938.0
887.0
860.0
861.0
876.0
903.0
923.0
936.0
940.0
932.0
921.0
911.0
908.0
907.0
904.0
906.0
908.0
906.0
906.0
906.0
903.0
904.0
905.0
905.0
903.0
902.0
900.0
897.0
894.0
898.0
898.0
899.0
901.0
903.0
904.0
903.0
902.0
902.0
903.0
907.0
909.0
911.0
913.0
914.0
916.0
921.0
923.0
927.0
930.0
933.0
937.0
938.0
943.0
948.0
956.0
960.0
971.0
979.0
988.0
996.0
1001.0
1010.0
1012.0
1019.0
1027.0
1035.0
1044.0
1048.0
1054.0
1061.0
1068.0
1077.0
1087.0
1091.0
1098.0
1104.0
1112.0
1118.0
1120.0
1125.0
1132.0
1136.0
1139.0
1138.0
1136.0
1135.0
1136.0
1133.0
1134.0
1134.0
1135.0
1136.0
1134.0
1131.0
1126.0
1124.0
1119.0
1115.0
1113.0
1108.0
1103.0
1101.0
1093.0
1092.0
1088.0
1086.0
1083.0
1078.0
1071.0
1063.0
1057.0
1050.0
1044.0
1045.0
1044.0
1042.0
1041.0
1035.0
1030.0
1028.0
1024.0
1023.0
1021.0
1022.0
1021.0
1021.0
1019.0
1019.0
1020.0
1022.0
1022.0
1026.0
1028.0
1026.0
1026.0
1027.0
1028.0
1034.0
1044.0
1051.0
1060.0
1064.0
1066.0
1070.0
1071.0
1072.0
1073.0
1074.0
1078.0
1077.0
1071.0
1062.0
1053.0
1043.0
1033.0
1025.0
1021.0
1016.0
1011.0
1009.0
1009.0
1010.0
1013.0
1014.0
1016.0
1019.0
1017.0
1017.0
1018.0
1022.0
1033.0
1054.0
1083.0
1120.0
1158.0
1197.0
1235.0
1279.0
1330.0
1385.0
1437.0
1485.0
1523.0
1550.0
1572.0
1587.0
1600.0
1616.0
1626.0
1640.0
1654.0
1662.0
1667.0
1672.0
1678.0
1680.0
1681.0
1675.0
1658.0
1626.0
1579.0
1508.0
1420.0
1308.0
1184.0
1066.0
970.0
908.0
880.0
883.0
896.0
910.0
919.0
916.0
908.0
899.0
888.0
879.0
871.0
866.0
858.0
857.0
853.0
851.0
851.0
849.0
846.0
841.0
836.0
830.0
825.0
821.0
818.0
818.0
818.0
817.0
817.0
814.0
811.0
808.0
805.0
802.0
802.0
802.0
802.0
802.0
800.0
802.0
803.0
804.0
807.0
809.0
812.0
815.0
815.0
819.0
825.0
831.0
835.0
844.0
850.0
854.0
855.0
857.0
862.0
