# Simple Text Format
# Sampling Rate (Hz):= 360.00
# Resolution:= 12
# Labels:= ECG
970.0
973.0
975.0
976.0
976.0
975.0
974.0
977.0
979.0
977.0
978.0
975.0
975.0
976.0
978.0
979.0
980.0
981.0
983.0
988.0
993.0
995.0
995.0
995.0
991.0
996.0
999.0
1001.0
1003.0
999.0
998.0
998.0
999.0
997.0
993.0
993.0
992.0
992.0
993.0
994.0
998.0
999.0
998.0
993.0
990.0
988.0
986.0
982.0
975.0
977.0
978.0
976.0
973.0
972.0
972.0
971.0
973.0
974.0
973.0
970.0
969.0
969.0
970.0
973.0
971.0
971.0
969.0
969.0
970.0
973.0
972.0
971.0
966.0
964.0
962.0
952.0
945.0
941.0
932.0
926.0
931.0
947.0
977.0
1014.0
1049.0
1096.0
1157.0
1212.0
1250.0
1268.0
1255.0
1204.0
1118.0
1027.0
964.0
947.0
955.0
968.0
975.0
977.0
975.0
975.0
970.0
971.0
973.0
973.0
971.0
966.0
964.0
965.0
963.0
962.0
963.0
963.0
960.0
962.0
964.0
963.0
962.0
962.0
959.0
959.0
962.0
964.0
963.0
963.0
960.0
962.0
964.0
966.0
965.0
964.0
964.0
963.0
965.0
967.0
965.0
963.0
962.0
964.0
963.0
963.0
963.0
962.0
960.0
960.0
963.0
964.0
964.0
962.0
962.0
960.0
964.0
965.0
965.0
964.0
963.0
963.0
965.0
968.0
966.0
962.0
963.0
963.0
966.0
966.0
965.0
963.0
960.0
962.0
962.0
961.0
961.0
960.0
958.0
958.0
961.0
962.0
960.0
958.0
957.0
959.0
962.0
961.0
960.0
960.0
958.0
958.0
960.0
961.0
962.0
962.0
962.0
963.0
968.0
970.0
969.0
970.0
972.0
975.0
978.0
979.0
979.0
981.0
979.0
982.0
983.0
985.0
986.0
984.0
986.0
986.0
987.0
991.0
991.0
989.0
986.0
985.0
986.0
985.0
984.0
984.0
983.0
985.0
986.0
986.0
984.0
983.0
982.0
984.0
985.0
986.0
982.0
983.0
982.0
981.0
985.0
984.0
985.0
982.0
981.0
982.0
984.0
985.0
983.0
980.0
978.0
979.0
976.0
977.0
976.0
976.0
975.0
976.0
976.0
977.0
975.0
974.0
975.0
977.0
977.0
981.0
979.0
976.0
976.0
977.0
978.0
979.0
976.0
976.0
974.0
973.0
976.0
975.0
976.0
975.0
975.0
974.0
975.0
978.0
976.0
974.0
973.0
978.0
979.0
981.0
979.0
977.0
978.0
978.0
978.0
980.0
980.0
979.0
976.0
977.0
978.0
978.0
977.0
977.0
975.0
977.0
980.0
983.0
983.0
986.0
986.0
989.0
990.0
991.0
993.0
991.0
993.0
996.0
998.0
1001.0
1002.0
1002.0
1000.0
1000.0
1000.0
999.0
999.0
997.0
995.0
996.0
995.0
996.0
994.0
993.0
990.0
988.0
995.0
1002.0
1003.0
995.0
987.0
984.0
981.0
980.0
978.0
974.0
971.0
972.0
971.0
973.0
974.0
973.0
970.0
971.0
972.0
972.0
971.0
968.0
969.0
969.0
971.0
971.0
969.0
967.0
964.0
966.0
966.0
968.0
967.0
967.0
964.0
962.0
960.0
952.0
944.0
938.0
928.0
921.0
920.0
938.0
963.0
995.0
1026.0
1068.0
1120.0
1177.0
1220.0
1244.0
1243.0
1208.0
1138.0
1051.0
979.0
943.0
939.0
949.0
960.0
962.0
965.0
963.0
959.0
962.0
963.0
964.0
963.0
961.0
961.0
962.0
961.0
963.0
963.0
958.0
957.0
959.0
960.0
962.0
961.0
960.0
958.0
958.0
959.0
962.0
959.0
958.0
955.0
958.0
959.0
960.0
960.0
959.0
958.0
956.0
957.0
962.0
960.0
962.0
957.0
959.0
961.0
961.0
958.0
958.0
959.0
957.0
959.0
959.0
960.0
956.0
955.0
957.0
959.0
958.0
959.0
956.0
955.0
954.0
957.0
955.0
957.0
957.0
955.0
958.0
959.0
962.0
962.0
960.0
956.0
958.0
959.0
958.0
959.0
956.0
955.0
955.0
955.0
954.0
954.0
954.0
951.0
950.0
953.0
953.0
954.0
954.0
953.0
954.0
955.0
955.0
956.0
954.0
949.0
950.0
953.0
956.0
955.0
954.0
954.0
956.0
960.0
962.0
962.0
963.0
963.0
967.0
970.0
971.0
970.0
966.0
968.0
970.0
972.0
971.0
974.0
975.0
973.0
972.0
974.0
977.0
979.0
976.0
976.0
975.0
979.0
978.0
977.0
976.0
972.0
973.0
974.0
973.0
973.0
969.0
968.0
972.0
971.0
972.0
972.0
969.0
966.0
969.0
969.0
971.0
971.0
971.0
970.0
970.0
971.0
969.0
967.0
965.0
965.0
965.0
964.0
966.0
965.0
963.0
961.0
963.0
964.0
965.0
965.0
962.0
959.0
960.0
961.0
963.0
963.0
959.0
960.0
958.0
960.0
959.0
958.0
956.0
958.0
961.0
962.0
965.0
967.0
962.0
959.0
958.0
961.0
962.0
961.0
959.0
959.0
960.0
960.0
961.0
961.0
956.0
956.0
955.0
958.0
959.0
960.0
958.0
957.0
958.0
959.0
961.0
960.0
959.0
958.0
961.0
962.0
967.0
969.0
973.0
970.0
975.0
975.0
975.0
974.0
971.0
970.0
972.0
974.0
976.0
977.0
976.0
975.0
978.0
980.0
982.0
981.0
977.0
975.0
975.0
976.0
978.0
978.0
975.0
973.0
976.0
977.0
982.0
983.0
978.0
969.0
966.0
967.0
963.0
960.0
956.0
955.0
955.0
957.0
958.0
955.0
954.0
953.0
952.0
950.0
953.0
952.0
951.0
949.0
949.0
953.0
953.0
953.0
953.0
951.0
953.0
953.0
954.0
954.0
954.0
950.0
946.0
943.0
939.0
934.0
932.0
929.0
924.0
914.0
905.0
906.0
916.0
934.0
960.0
991.0
1024.0
1071.0
1121.0
1165.0
1198.0
1215.0
1199.0
1144.0
1067.0
992.0
947.0
931.0
931.0
933.0
937.0
937.0
937.0
943.0
946.0
945.0
945.0
944.0
944.0
944.0
942.0
944.0
941.0
939.0
941.0
941.0
943.0
940.0
939.0
941.0
943.0
944.0
942.0
944.0
941.0
939.0
940.0
938.0
940.0
940.0
938.0
936.0
937.0
939.0
940.0
940.0
939.0
939.0
941.0
943.0
944.0
943.0
943.0
940.0
941.0
945.0
944.0
941.0
940.0
934.0
934.0
938.0
938.0
941.0
938.0
936.0
939.0
938.0
938.0
936.0
934.0
935.0
937.0
939.0
938.0
941.0
939.0
935.0
937.0
939.0
943.0
943.0
943.0
942.0
941.0
941.0
941.0
938.0
935.0
933.0
934.0
934.0
936.0
934.0
930.0
929.0
930.0
927.0
929.0
928.0
925.0
923.0
923.0
927.0
929.0
927.0
923.0
922.0
927.0
930.0
931.0
934.0
935.0
935.0
939.0
945.0
947.0
947.0
946.0
946.0
949.0
948.0
951.0
954.0
957.0
955.0
958.0
959.0
959.0
959.0
957.0
956.0
960.0
962.0
965.0
966.0
964.0
961.0
963.0
965.0
967.0
967.0
966.0
965.0
966.0
965.0
964.0
962.0
959.0
957.0
959.0
960.0
961.0
963.0
959.0
957.0
957.0
962.0
962.0
963.0
962.0
957.0
958.0
960.0
962.0
963.0
960.0
953.0
955.0
954.0
955.0
956.0
955.0
953.0
953.0
956.0
953.0
955.0
953.0
954.0
953.0
958.0
957.0
956.0
954.0
952.0
954.0
957.0
955.0
954.0
951.0
949.0
951.0
951.0
953.0
952.0
953.0
953.0
953.0
958.0
959.0
958.0
955.0
953.0
955.0
956.0
960.0
960.0
958.0
955.0
957.0
956.0
958.0
957.0
956.0
953.0
954.0
955.0
956.0
954.0
953.0
954.0
957.0
960.0
962.0
962.0
962.0
965.0
965.0
971.0
971.0
973.0
972.0
974.0
975.0
977.0
978.0
979.0
979.0
976.0
977.0
978.0
979.0
977.0
975.0
970.0
972.0
973.0
975.0
972.0
972.0
968.0
968.0
971.0
978.0
978.0
978.0
971.0
967.0
967.0
966.0
961.0
959.0
956.0
956.0
954.0
956.0
956.0
954.0
952.0
951.0
956.0
955.0
954.0
952.0
950.0
950.0
954.0
952.0
952.0
951.0
951.0
952.0
953.0
953.0
953.0
950.0
947.0
943.0
937.0
933.0
930.0
927.0
921.0
915.0
911.0
917.0
937.0
965.0
999.0
1036.0
1079.0
1132.0
1180.0
1212.0
1231.0
1228.0
1194.0
1123.0
1037.0
971.0
938.0
931.0
933.0
937.0
942.0
944.0
945.0
943.0
946.0
947.0
947.0
946.0
943.0
945.0
945.0
948.0
947.0
947.0
944.0
946.0
950.0
951.0
951.0
948.0
947.0
949.0
950.0
949.0
949.0
945.0
946.0
948.0
949.0
949.0
950.0
948.0
946.0
945.0
946.0
947.0
949.0
945.0
946.0
948.0
950.0
950.0
952.0
949.0
945.0
947.0
950.0
951.0
951.0
950.0
950.0
949.0
952.0
951.0
951.0
949.0
947.0
950.0
950.0
951.0
950.0
948.0
947.0
949.0
949.0
950.0
948.0
948.0
946.0
947.0
947.0
951.0
951.0
952.0
947.0
949.0
949.0
951.0
946.0
948.0
946.0
946.0
944.0
945.0
944.0
941.0
939.0
939.0
940.0
940.0
940.0
939.0
937.0
938.0
940.0
942.0
943.0
943.0
941.0
942.0
946.0
948.0
949.0
948.0
948.0
954.0
958.0
961.0
963.0
962.0
965.0
965.0
969.0
969.0
971.0
970.0
967.0
971.0
973.0
974.0
975.0
974.0
973.0
975.0
975.0
978.0
976.0
974.0
972.0
976.0
975.0
974.0
973.0
975.0
973.0
974.0
975.0
976.0
976.0
975.0
971.0
971.0
972.0
974.0
972.0
973.0
969.0
971.0
975.0
973.0
971.0
971.0
968.0
971.0
972.0
973.0
971.0
972.0
969.0
971.0
972.0
973.0
970.0
968.0
969.0
970.0
971.0
971.0
970.0
970.0
968.0
966.0
967.0
967.0
968.0
966.0
963.0
965.0
969.0
968.0
967.0
964.0
962.0
964.0
966.0
969.0
968.0
969.0
965.0
968.0
969.0
970.0
969.0
969.0
967.0
966.0
968.0
971.0
970.0
969.0
968.0
968.0
970.0
971.0
969.0
972.0
966.0
969.0
971.0
972.0
972.0
970.0
969.0
971.0
973.0
975.0
977.0
977.0
978.0
981.0
983.0
984.0
985.0
984.0
983.0
986.0
990.0
991.0
992.0
992.0
989.0
991.0
991.0
990.0
989.0
987.0
987.0
988.0
988.0
989.0
988.0
988.0
992.0
993.0
992.0
986.0
983.0
978.0
975.0
972.0
971.0
970.0
969.0
968.0
964.0
968.0
969.0
971.0
970.0
968.0
966.0
966.0
969.0
969.0
970.0
967.0
967.0
967.0
966.0
968.0
969.0
966.0
965.0
965.0
969.0
967.0
965.0
963.0
961.0
962.0
959.0
954.0
943.0
936.0
931.0
924.0
922.0
936.0
960.0
994.0
1030.0
1074.0
1132.0
1193.0
1242.0
1267.0
1260.0
1221.0
1144.0
1051.0
977.0
944.0
944.0
955.0
963.0
967.0
962.0
959.0
957.0
958.0
959.0
958.0
958.0
957.0
955.0
956.0
957.0
957.0
957.0
957.0
953.0
956.0
957.0
959.0
958.0
958.0
956.0
955.0
956.0
958.0
959.0
956.0
956.0
954.0
957.0
956.0
954.0
954.0
953.0
954.0
955.0
960.0
958.0
956.0
953.0
956.0
956.0
959.0
962.0
959.0
958.0
959.0
960.0
961.0
959.0
958.0
956.0
956.0
958.0
957.0
955.0
956.0
955.0
955.0
960.0
960.0
961.0
956.0
954.0
956.0
958.0
960.0
956.0
957.0
953.0
956.0
953.0
957.0
956.0
953.0
950.0
953.0
953.0
958.0
956.0
954.0
950.0
951.0
953.0
955.0
955.0
952.0
952.0
952.0
952.0
953.0
957.0
955.0
954.0
957.0
960.0
963.0
963.0
963.0
965.0
968.0
971.0
974.0
976.0
976.0
976.0
975.0
978.0
978.0
979.0
978.0
975.0
976.0
978.0
978.0
978.0
979.0
974.0
978.0
978.0
981.0
980.0
977.0
978.0
977.0
979.0
980.0
982.0
980.0
978.0
979.0
981.0
982.0
981.0
977.0
977.0
978.0
980.0
980.0
981.0
980.0
975.0
975.0
975.0
974.0
973.0
972.0
971.0
972.0
972.0
975.0
973.0
972.0
969.0
969.0
972.0
971.0
971.0
969.0
968.0
968.0
971.0
974.0
971.0
970.0
968.0
969.0
970.0
971.0
969.0
967.0
965.0
967.0
968.0
968.0
967.0
967.0
965.0
965.0
966.0
969.0
967.0
967.0
965.0
968.0
969.0
969.0
970.0
969.0
967.0
969.0
971.0
972.0
974.0
971.0
967.0
969.0
971.0
972.0
971.0
973.0
973.0
973.0
977.0
981.0
984.0
984.0
981.0
983.0
986.0
990.0
990.0
990.0
988.0
990.0
995.0
995.0
991.0
989.0
989.0
991.0
993.0
992.0
991.0
988.0
986.0
987.0
987.0
991.0
992.0
997.0
992.0
987.0
985.0
982.0
978.0
974.0
968.0
967.0
967.0
969.0
969.0
966.0
966.0
965.0
966.0
966.0
968.0
967.0
964.0
966.0
968.0
970.0
969.0
967.0
966.0
965.0
966.0
968.0
967.0
965.0
962.0
955.0
949.0
941.0
939.0
933.0
924.0
919.0
930.0
956.0
989.0
1024.0
1065.0
1127.0
1187.0
1234.0
1252.0
1238.0
1174.0
1082.0
999.0
952.0
938.0
945.0
955.0
961.0
964.0
962.0
960.0
960.0
957.0
958.0
958.0
958.0
959.0
956.0
955.0
956.0
960.0
961.0
963.0
960.0
957.0
957.0
958.0
958.0
959.0
958.0
956.0
957.0
959.0
959.0
957.0
956.0
952.0
955.0
956.0
957.0
955.0
956.0
955.0
954.0
955.0
958.0
956.0
957.0
955.0
957.0
957.0
958.0
959.0
957.0
957.0
955.0
958.0
957.0
960.0
959.0
955.0
954.0
956.0
959.0
957.0
956.0
956.0
957.0
956.0
959.0
958.0
955.0
955.0
957.0
958.0
957.0
958.0
956.0
955.0
955.0
957.0
955.0
954.0
950.0
949.0
950.0
950.0
952.0
951.0
950.0
949.0
950.0
950.0
953.0
954.0
953.0
951.0
954.0
955.0
960.0
963.0
962.0
962.0
963.0
967.0
969.0
970.0
972.0
969.0
971.0
969.0
973.0
975.0
975.0
973.0
970.0
975.0
973.0
972.0
972.0
974.0
975.0
975.0
979.0
976.0
976.0
973.0
975.0
977.0
977.0
976.0
974.0
971.0
969.0
970.0
971.0
970.0
970.0
964.0
969.0
971.0
973.0
970.0
968.0
967.0
967.0
971.0
974.0
969.0
968.0
966.0
966.0
965.0
966.0
966.0
961.0
958.0
962.0
963.0
965.0
965.0
963.0
961.0
962.0
964.0
964.0
964.0
961.0
959.0
962.0
962.0
965.0
964.0
964.0
964.0
961.0
963.0
965.0
965.0
963.0
957.0
961.0
962.0
964.0
965.0
964.0
963.0
963.0
966.0
965.0
964.0
962.0
960.0
961.0
964.0
965.0
967.0
967.0
966.0
973.0
977.0
978.0
978.0
973.0
975.0
980.0
985.0
987.0
989.0
989.0
984.0
983.0
983.0
983.0
980.0
981.0
976.0
975.0
976.0
977.0
976.0
978.0
977.0
980.0
980.0
976.0
969.0
967.0
962.0
959.0
961.0
961.0
958.0
957.0
955.0
956.0
956.0
958.0
959.0
954.0
951.0
952.0
952.0
952.0
954.0
955.0
953.0
951.0
954.0
958.0
958.0
955.0
952.0
953.0
953.0
954.0
946.0
940.0
935.0
934.0
929.0
920.0
913.0
915.0
929.0
956.0
989.0
1028.0
1075.0
1127.0
1178.0
1214.0
1222.0
1192.0
1119.0
1032.0
965.0
935.0
932.0
940.0
946.0
948.0
948.0
950.0
955.0
954.0
954.0
949.0
950.0
950.0
953.0
950.0
950.0
948.0
946.0
948.0
949.0
949.0
946.0
944.0
943.0
944.0
946.0
949.0
952.0
951.0
948.0
949.0
949.0
951.0
948.0
947.0
949.0
949.0
949.0
950.0
948.0
948.0
946.0
947.0
950.0
950.0
946.0
947.0
946.0
946.0
947.0
947.0
948.0
945.0
944.0
946.0
948.0
948.0
947.0
946.0
948.0
950.0
952.0
952.0
950.0
949.0
947.0
947.0
952.0
949.0
951.0
948.0
947.0
948.0
947.0
949.0
945.0
941.0
937.0
939.0
939.0
940.0
939.0
940.0
936.0
936.0
937.0
937.0
939.0
937.0
935.0
933.0
935.0
938.0
937.0
936.0
936.0
935.0
940.0
944.0
945.0
948.0
949.0
951.0
955.0
957.0
958.0
959.0
958.0
965.0
968.0
971.0
971.0
968.0
969.0
972.0
972.0
973.0
971.0
969.0
968.0
970.0
972.0
972.0
970.0
970.0
966.0
970.0
971.0
972.0
973.0
967.0
965.0
968.0
971.0
971.0
971.0
969.0
970.0
970.0
972.0
974.0
973.0
970.0
967.0
966.0
970.0
969.0
970.0
968.0
965.0
964.0
966.0
967.0
964.0
965.0
964.0
964.0
965.0
967.0
967.0
966.0
963.0
962.0
965.0
963.0
968.0
966.0
961.0
963.0
965.0
968.0
969.0
966.0
963.0
966.0
967.0
965.0
965.0
964.0
965.0
962.0
966.0
969.0
968.0
965.0
964.0
966.0
970.0
972.0
972.0
970.0
967.0
968.0
971.0
972.0
969.0
970.0
967.0
968.0
970.0
971.0
970.0
968.0
970.0
969.0
974.0
978.0
979.0
981.0
978.0
978.0
982.0
983.0
986.0
984.0
984.0
985.0
989.0
990.0
989.0
986.0
985.0
983.0
986.0
989.0
988.0
985.0
981.0
982.0
986.0
992.0
994.0
987.0
979.0
974.0
972.0
971.0
968.0
966.0
964.0
961.0
965.0
965.0
966.0
965.0
960.0
961.0
961.0
964.0
963.0
963.0
958.0
962.0
964.0
967.0
967.0
966.0
965.0
965.0
964.0
966.0
965.0
963.0
961.0
959.0
957.0
953.0
944.0
937.0
930.0
926.0
921.0
928.0
948.0
978.0
1012.0
1056.0
1108.0
1166.0
1214.0
1241.0
1244.0
1210.0
1131.0
1035.0
962.0
935.0
938.0
950.0
960.0
962.0
962.0
959.0
956.0
957.0
957.0
958.0
958.0
957.0
955.0
957.0
956.0
958.0
958.0
958.0
956.0
958.0
960.0
959.0
959.0
960.0
958.0
957.0
957.0
958.0
959.0
953.0
955.0
954.0
958.0
959.0
958.0
956.0
954.0
953.0
955.0
958.0
957.0
958.0
953.0
956.0
958.0
961.0
960.0
957.0
956.0
958.0
959.0
960.0
959.0
958.0
954.0
957.0
958.0
958.0
958.0
956.0
952.0
955.0
958.0
959.0
960.0
956.0
954.0
955.0
958.0
958.0
958.0
957.0
954.0
955.0
956.0
957.0
954.0
954.0
949.0
951.0
954.0
951.0
951.0
952.0
949.0
950.0
954.0
956.0
956.0
953.0
951.0
952.0
954.0
958.0
957.0
958.0
960.0
962.0
965.0
970.0
971.0
971.0
970.0
975.0
975.0
978.0
977.0
977.0
976.0
978.0
981.0
982.0
983.0
983.0
982.0
981.0
981.0
983.0
982.0
982.0
979.0
977.0
981.0
981.0
982.0
979.0
977.0
980.0
981.0
982.0
981.0
980.0
979.0
980.0
980.0
980.0
981.0
977.0
975.0
977.0
978.0
981.0
981.0
979.0
977.0
976.0
979.0
979.0
978.0
974.0
973.0
973.0
975.0
976.0
975.0
975.0
971.0
970.0
974.0
972.0
973.0
972.0
970.0
970.0
971.0
971.0
973.0
971.0
969.0
970.0
972.0
974.0
973.0
972.0
971.0
974.0
975.0
974.0
973.0
972.0
970.0
967.0
971.0
974.0
973.0
972.0
969.0
970.0
972.0
974.0
974.0
974.0
969.0
970.0
974.0
977.0
979.0
979.0
980.0
983.0
987.0
990.0
992.0
990.0
989.0
992.0
995.0
997.0
998.0
997.0
994.0
995.0
995.0
995.0
994.0
991.0
987.0
990.0
994.0
993.0
992.0
990.0
989.0
995.0
1000.0
1006.0
1005.0
999.0
994.0
990.0
987.0
987.0
985.0
980.0
978.0
975.0
975.0
974.0
972.0
972.0
969.0
970.0
971.0
972.0
972.0
972.0
968.0
967.0
969.0
969.0
971.0
968.0
966.0
966.0
970.0
969.0
970.0
967.0
966.0
962.0
956.0
947.0
941.0
938.0
927.0
924.0
934.0
959.0
989.0
1024.0
1061.0
1109.0
1171.0
1223.0
1257.0
1267.0
1242.0
1174.0
1082.0
1000.0
955.0
945.0
956.0
967.0
972.0
971.0
970.0
966.0
965.0
965.0
965.0
968.0
965.0
963.0
959.0
961.0
961.0
961.0
963.0
961.0
957.0
960.0
960.0
963.0
961.0
960.0
959.0
960.0
962.0
961.0
962.0
964.0
961.0
961.0
962.0
963.0
966.0
963.0
961.0
962.0
961.0
963.0
962.0
959.0
956.0
959.0
961.0
963.0
961.0
961.0
959.0
960.0
958.0
962.0
964.0
961.0
959.0
960.0
963.0
964.0
965.0
963.0
961.0
963.0
962.0
962.0
962.0
959.0
955.0
957.0
959.0
965.0
960.0
958.0
959.0
958.0
959.0
961.0
960.0
958.0
955.0
957.0
958.0
959.0
961.0
958.0
956.0
957.0
957.0
960.0
959.0
957.0
955.0
955.0
958.0
962.0
961.0
960.0
961.0
962.0
967.0
968.0
971.0
970.0
971.0
972.0
976.0
978.0
979.0
979.0
978.0
979.0
981.0
982.0
983.0
980.0
980.0
979.0
977.0
979.0
982.0
978.0
978.0
978.0
978.0
982.0
981.0
976.0
974.0
975.0
976.0
980.0
978.0
977.0
975.0
974.0
979.0
980.0
977.0
977.0
974.0
975.0
973.0
977.0
975.0
974.0
972.0
972.0
971.0
972.0
972.0
968.0
967.0
968.0
967.0
970.0
970.0
971.0
966.0
967.0
969.0
971.0
972.0
968.0
967.0
967.0
968.0
970.0
969.0
968.0
963.0
963.0
966.0
967.0
968.0
965.0
962.0
963.0
966.0
967.0
969.0
968.0
966.0
966.0
966.0
968.0
964.0
965.0
962.0
963.0
965.0
966.0
968.0
964.0
964.0
965.0
966.0
969.0
969.0
970.0
969.0
973.0
975.0
981.0
981.0
981.0
981.0
982.0
984.0
988.0
989.0
987.0
986.0
985.0
985.0
985.0
985.0
982.0
979.0
978.0
981.0
984.0
983.0
979.0
978.0
980.0
991.0
994.0
994.0
990.0
984.0
981.0
979.0
978.0
974.0
970.0
969.0
965.0
964.0
962.0
960.0
961.0
958.0
960.0
961.0
961.0
963.0
963.0
960.0
958.0
958.0
961.0
961.0
959.0
958.0
959.0
961.0
965.0
963.0
962.0
959.0
956.0
957.0
954.0
943.0
934.0
930.0
925.0
918.0
918.0
925.0
944.0
972.0
1010.0
1049.0
1100.0
1156.0
1200.0
1228.0
1239.0
1219.0
1163.0
1073.0
991.0
943.0
929.0
935.0
942.0
949.0
956.0
955.0
956.0
955.0
956.0
955.0
955.0
952.0
955.0
953.0
954.0
952.0
951.0
948.0
950.0
949.0
951.0
948.0
949.0
949.0
949.0
950.0
952.0
951.0
949.0
947.0
948.0
949.0
950.0
949.0
949.0
949.0
948.0
952.0
954.0
955.0
952.0
949.0
946.0
950.0
951.0
953.0
951.0
946.0
949.0
950.0
951.0
950.0
950.0
948.0
948.0
950.0
953.0
953.0
950.0
948.0
949.0
950.0
952.0
955.0
951.0
951.0
952.0
954.0
953.0
951.0
948.0
947.0
947.0
949.0
952.0
952.0
950.0
947.0
948.0
949.0
951.0
950.0
946.0
943.0
942.0
944.0
946.0
947.0
945.0
945.0
945.0
946.0
948.0
947.0
946.0
944.0
943.0
945.0
947.0
945.0
946.0
946.0
947.0
949.0
954.0
956.0
956.0
954.0
956.0
961.0
965.0
966.0
967.0
966.0
966.0
969.0
972.0
971.0
968.0
966.0
969.0
969.0
973.0
972.0
970.0
968.0
967.0
971.0
972.0
971.0
968.0
967.0
968.0
967.0
967.0
967.0
965.0
963.0
960.0
963.0
968.0
968.0
964.0
964.0
962.0
961.0
963.0
963.0
962.0
958.0
958.0
960.0
960.0
961.0
958.0
955.0
956.0
956.0
960.0
959.0
957.0
956.0
956.0
959.0
962.0
959.0
955.0
954.0
955.0
956.0
957.0
955.0
952.0
949.0
951.0
955.0
957.0
957.0
955.0
951.0
954.0
956.0
956.0
955.0
953.0
947.0
948.0
952.0
955.0
954.0
952.0
952.0
952.0
954.0
955.0
955.0
955.0
953.0
954.0
954.0
957.0
955.0
955.0
956.0
960.0
965.0
967.0
964.0
963.0
964.0
966.0
968.0
974.0
975.0
973.0
975.0
976.0
980.0
981.0
979.0
976.0
974.0
975.0
978.0
980.0
979.0
976.0
969.0
965.0
966.0
969.0
972.0
976.0
974.0
975.0
973.0
970.0
967.0
959.0
956.0
956.0
955.0
956.0
955.0
954.0
949.0
947.0
951.0
953.0
954.0
952.0
949.0
947.0
949.0
951.0
952.0
948.0
949.0
949.0
951.0
953.0
950.0
949.0
946.0
946.0
943.0
947.0
945.0
943.0
937.0
930.0
928.0
924.0
919.0
906.0
898.0
898.0
913.0
930.0
951.0
972.0
994.0
1028.0
1077.0
1129.0
1172.0
1205.0
1216.0
1193.0
1136.0
1057.0
987.0
945.0
928.0
927.0
932.0
937.0
940.0
940.0
939.0
941.0
942.0
941.0
939.0
939.0
936.0
940.0
942.0
944.0
944.0
944.0
941.0
942.0
946.0
946.0
946.0
945.0
942.0
940.0
940.0
942.0
941.0
941.0
940.0
939.0
939.0
940.0
941.0
940.0
938.0
939.0
942.0
944.0
944.0
941.0
938.0
938.0
942.0
941.0
944.0
944.0
942.0
940.0
941.0
942.0
943.0
940.0
939.0
939.0
940.0
941.0
940.0
939.0
937.0
937.0
935.0
938.0
939.0
939.0
937.0
939.0
942.0
943.0
940.0
940.0
936.0
935.0
939.0
942.0
941.0
938.0
935.0
932.0
936.0
938.0
937.0
935.0
934.0
933.0
930.0
932.0
930.0
929.0
926.0
926.0
927.0
930.0
928.0
925.0
925.0
929.0
929.0
929.0
932.0
931.0
934.0
937.0
940.0
945.0
945.0
945.0
946.0
944.0
951.0
955.0
957.0
958.0
958.0
958.0
962.0
964.0
963.0
965.0
964.0
963.0
965.0
967.0
966.0
965.0
960.0
962.0
963.0
966.0
962.0
962.0
961.0
961.0
965.0
965.0
964.0
963.0
962.0
960.0
963.0
963.0
964.0
962.0
960.0
959.0
961.0
961.0
961.0
959.0
956.0
954.0
958.0
958.0
958.0
956.0
957.0
955.0
955.0
957.0
958.0
957.0
952.0
950.0
951.0
953.0
948.0
947.0
941.0
936.0
934.0
929.0
923.0
922.0
914.0
899.0
865.0
813.0
754.0
687.0
626.0
581.0
546.0
519.0
500.0
485.0
481.0
486.0
499.0
517.0
540.0
572.0
614.0
663.0
708.0
753.0
794.0
837.0
875.0
908.0
937.0
958.0
970.0
975.0
978.0
983.0
993.0
1002.0
1011.0
1012.0
1015.0
1017.0
1023.0
1028.0
1032.0
1034.0
1037.0
1041.0
1048.0
1052.0
1053.0
1053.0
1050.0
1050.0
1053.0
1057.0
1059.0
1062.0
1064.0
1067.0
1070.0
1074.0
1077.0
1082.0
1082.0
1079.0
1076.0
1077.0
1075.0
1075.0
1073.0
1072.0
1076.0
1078.0
1080.0
1081.0
1079.0
1083.0
1089.0
1093.0
1096.0
1098.0
1100.0
1103.0
1107.0
1114.0
1120.0
1121.0
1125.0
1133.0
1141.0
1146.0
1153.0
1156.0
1160.0
1166.0
1172.0
1180.0
1186.0
1190.0
1190.0
1198.0
1201.0
1210.0
1212.0
1211.0
1211.0
1211.0
1214.0
1216.0
1215.0
1215.0
1213.0
1213.0
1216.0
1213.0
1211.0
1205.0
1196.0
1188.0
1181.0
1175.0
1165.0
1155.0
1141.0
1131.0
1119.0
1108.0
1098.0
1084.0
1074.0
1062.0
1053.0
1044.0
1035.0
1028.0
1020.0
1015.0
1010.0
1008.0
1001.0
996.0
989.0
987.0
984.0
982.0
979.0
977.0
973.0
972.0
971.0
974.0
972.0
969.0
967.0
971.0
970.0
971.0
971.0
970.0
968.0
969.0
969.0
972.0
972.0
969.0
968.0
968.0
968.0
971.0
970.0
968.0
965.0
968.0
967.0
967.0
967.0
967.0
965.0
965.0
965.0
968.0
966.0
964.0
961.0
960.0
962.0
965.0
963.0
961.0
959.0
960.0
961.0
963.0
962.0
960.0
957.0
958.0
961.0
961.0
958.0
956.0
954.0
953.0
957.0
958.0
956.0
954.0
951.0
952.0
954.0
956.0
954.0
953.0
952.0
951.0
953.0
956.0
956.0
955.0
955.0
953.0
956.0
958.0
957.0
954.0
952.0
954.0
956.0
956.0
956.0
952.0
951.0
951.0
953.0
953.0
952.0
951.0
949.0
947.0
952.0
954.0
950.0
952.0
950.0
950.0
952.0
955.0
953.0
952.0
952.0
951.0
953.0
953.0
953.0
952.0
950.0
948.0
950.0
953.0
951.0
950.0
949.0
949.0
951.0
952.0
951.0
950.0
949.0
950.0
951.0
954.0
953.0
952.0
952.0
950.0
952.0
955.0
953.0
952.0
947.0
951.0
953.0
953.0
952.0
951.0
951.0
950.0
951.0
955.0
954.0
950.0
950.0
951.0
949.0
952.0
951.0
950.0
950.0
948.0
953.0
954.0
954.0
950.0
951.0
949.0
952.0
952.0
950.0
950.0
948.0
950.0
951.0
952.0
953.0
951.0
951.0
950.0
951.0
954.0
953.0
953.0
951.0
951.0
953.0
955.0
955.0
954.0
954.0
952.0
954.0
954.0
954.0
953.0
950.0
949.0
952.0
954.0
954.0
954.0
951.0
951.0
954.0
957.0
956.0
956.0
954.0
955.0
962.0
964.0
967.0
964.0
964.0
964.0
967.0
970.0
971.0
971.0
974.0
973.0
976.0
976.0
975.0
974.0
972.0
971.0
969.0
970.0
971.0
970.0
967.0
965.0
969.0
974.0
977.0
973.0
966.0
962.0
961.0
962.0
958.0
955.0
952.0
950.0
950.0
952.0
950.0
950.0
950.0
950.0
951.0
952.0
949.0
949.0
945.0
944.0
948.0
949.0
949.0
945.0
945.0
945.0
947.0
947.0
947.0
945.0
943.0
943.0
940.0
935.0
926.0
920.0
917.0
909.0
908.0
913.0
936.0
964.0
1003.0
1042.0
1090.0
1147.0
1197.0
1235.0
