# Simple Text Format
# Sampling Rate (Hz):= 360.00
# Resolution:= 12
# Labels:= ECG
973.0
973.0
973.0
973.0
972.0
974.0
976.0
975.0
974.0
973.0
971.0
974.0
974.0
973.0
975.0
974.0
973.0
976.0
979.0
981.0
985.0
985.0
989.0
993.0
996.0
996.0
993.0
991.0
990.0
993.0
997.0
1004.0
1008.0
1009.0
1010.0
1017.0
1018.0
1022.0
1021.0
1018.0
1014.0
1014.0
1015.0
1010.0
1010.0
1007.0
1002.0
994.0
984.0
975.0
966.0
962.0
958.0
962.0
964.0
962.0
961.0
961.0
958.0
963.0
964.0
962.0
961.0
957.0
957.0
961.0
967.0
964.0
965.0
964.0
964.0
965.0
968.0
969.0
967.0
964.0
962.0
962.0
960.0
961.0
960.0
961.0
970.0
987.0
1014.0
1046.0
1080.0
1114.0
1156.0
1197.0
1231.0
1255.0
1267.0
1268.0
1246.0
1225.0
1205.0
1189.0
1173.0
1153.0
1124.0
1094.0
1070.0
1058.0
1047.0
1029.0
1006.0
990.0
978.0
966.0
953.0
945.0
937.0
935.0
931.0
927.0
926.0
924.0
921.0
922.0
923.0
922.0
924.0
925.0
925.0
927.0
930.0
931.0
930.0
929.0
930.0
930.0
932.0
928.0
927.0
927.0
925.0
931.0
935.0
936.0
933.0
933.0
930.0
932.0
933.0
932.0
933.0
930.0
928.0
928.0
930.0
933.0
931.0
928.0
929.0
929.0
932.0
933.0
934.0
934.0
933.0
937.0
938.0
940.0
942.0
941.0
943.0
944.0
947.0
948.0
949.0
950.0
951.0
955.0
960.0
963.0
964.0
965.0
966.0
972.0
978.0
980.0
981.0
982.0
983.0
989.0
993.0
996.0
996.0
998.0
995.0
997.0
1001.0
1001.0
1001.0
999.0
994.0
996.0
995.0
996.0
996.0
994.0
994.0
997.0
995.0
994.0
992.0
988.0
981.0
981.0
982.0
981.0
978.0
977.0
975.0
978.0
977.0
972.0
973.0
967.0
967.0
969.0
973.0
974.0
972.0
971.0
969.0
969.0
969.0
968.0
967.0
967.0
966.0
967.0
966.0
963.0
962.0
960.0
959.0
963.0
966.0
968.0
962.0
960.0
959.0
961.0
963.0
963.0
959.0
955.0
954.0
957.0
957.0
958.0
957.0
955.0
956.0
954.0
956.0
953.0
953.0
954.0
954.0
954.0
955.0
956.0
951.0
956.0
956.0
956.0
958.0
957.0
956.0
958.0
955.0
958.0
961.0
959.0
959.0
958.0
955.0
956.0
960.0
961.0
962.0
962.0
963.0
966.0
965.0
968.0
968.0
970.0
973.0
980.0
987.0
988.0
989.0
986.0
982.0
984.0
985.0
989.0
995.0
998.0
1002.0
1006.0
1010.0
1013.0
1017.0
1013.0
1012.0
1012.0
1009.0
1007.0
1004.0
1002.0
1000.0
996.0
988.0
980.0
968.0
961.0
958.0
956.0
958.0
956.0
955.0
953.0
953.0
955.0
955.0
954.0
955.0
954.0
953.0
954.0
955.0
960.0
963.0
962.0
961.0
960.0
962.0
963.0
964.0
964.0
965.0
969.0
970.0
968.0
967.0
964.0
960.0
965.0
967.0
979.0
999.0
1025.0
1056.0
1096.0
1136.0
1177.0
1213.0
1243.0
1262.0
1272.0
1267.0
1246.0
1218.0
1196.0
1182.0
1167.0
1149.0
1124.0
1098.0
1083.0
1072.0
1059.0
1044.0
1027.0
1011.0
995.0
982.0
972.0
964.0
957.0
950.0
945.0
939.0
938.0
934.0
932.0
934.0
932.0
935.0
937.0
941.0
940.0
935.0
933.0
932.0
933.0
935.0
937.0
934.0
933.0
936.0
938.0
942.0
940.0
938.0
935.0
932.0
936.0
938.0
938.0
942.0
941.0
944.0
947.0
946.0
942.0
940.0
936.0
933.0
936.0
939.0
942.0
939.0
938.0
935.0
937.0
937.0
939.0
936.0
937.0
938.0
937.0
938.0
943.0
945.0
946.0
947.0
948.0
954.0
955.0
956.0
958.0
960.0
964.0
967.0
968.0
967.0
972.0
973.0
978.0
984.0
987.0
987.0
983.0
984.0
988.0
994.0
1001.0
1004.0
1003.0
1003.0
1002.0
1010.0
1011.0
1008.0
1001.0
997.0
995.0
995.0
997.0
1000.0
1000.0
997.0
995.0
989.0
988.0
988.0
985.0
983.0
983.0
984.0
983.0
982.0
982.0
980.0
981.0
975.0
976.0
974.0
974.0
971.0
973.0
976.0
976.0
977.0
972.0
973.0
973.0
974.0
971.0
973.0
975.0
974.0
970.0
970.0
970.0
969.0
967.0
962.0
961.0
965.0
966.0
967.0
963.0
961.0
963.0
960.0
960.0
959.0
957.0
960.0
965.0
963.0
961.0
960.0
961.0
960.0
964.0
968.0
967.0
966.0
961.0
961.0
965.0
965.0
966.0
967.0
965.0
966.0
969.0
968.0
967.0
966.0
965.0
965.0
966.0
968.0
968.0
971.0
966.0
967.0
969.0
972.0
971.0
973.0
978.0
980.0
983.0
988.0
987.0
989.0
986.0
986.0
989.0
998.0
1005.0
1007.0
1010.0
1008.0
1012.0
1016.0
1022.0
1019.0
1017.0
1013.0
1014.0
1017.0
1014.0
1012.0
1006.0
1002.0
998.0
989.0
978.0
968.0
965.0
963.0
961.0
960.0
962.0
963.0
964.0
966.0
963.0
963.0
967.0
962.0
961.0
960.0
963.0
966.0
965.0
966.0
965.0
963.0
963.0
966.0
968.0
970.0
970.0
967.0
965.0
962.0
961.0
967.0
971.0
980.0
1006.0
1035.0
1068.0
1103.0
1141.0
1178.0
1215.0
1242.0
1259.0
1266.0
1252.0
1224.0
1200.0
1185.0
1172.0
1162.0
1136.0
1105.0
1083.0
1067.0
1055.0
1038.0
1016.0
997.0
986.0
974.0
964.0
953.0
947.0
943.0
943.0
941.0
937.0
936.0
930.0
935.0
937.0
938.0
937.0
934.0
936.0
938.0
939.0
941.0
943.0
943.0
944.0
942.0
948.0
949.0
947.0
943.0
944.0
944.0
945.0
946.0
945.0
947.0
946.0
943.0
944.0
947.0
946.0
946.0
944.0
944.0
942.0
946.0
943.0
947.0
944.0
941.0
944.0
945.0
944.0
941.0
938.0
940.0
943.0
947.0
947.0
946.0
945.0
946.0
947.0
950.0
951.0
952.0
956.0
952.0
955.0
957.0
959.0
962.0
966.0
966.0
971.0
975.0
979.0
980.0
980.0
980.0
986.0
993.0
996.0
999.0
999.0
1002.0
1005.0
1009.0
1010.0
1009.0
1006.0
1006.0
1006.0
1007.0
1006.0
1005.0
1004.0
1008.0
1005.0
1004.0
1001.0
999.0
996.0
996.0
995.0
993.0
993.0
991.0
992.0
990.0
991.0
990.0
989.0
989.0
986.0
984.0
983.0
984.0
984.0
983.0
980.0
979.0
980.0
979.0
978.0
977.0
974.0
975.0
979.0
981.0
983.0
988.0
997.0
1011.0
1028.0
1046.0
1071.0
1096.0
1122.0
1153.0
1180.0
1196.0
1215.0
1242.0
1275.0
1311.0
1347.0
1377.0
1395.0
1395.0
1367.0
1308.0
1247.0
1196.0
1149.0
1100.0
1053.0
1011.0
982.0
958.0
937.0
924.0
912.0
904.0
901.0
901.0
901.0
902.0
903.0
901.0
903.0
907.0
906.0
905.0
901.0
900.0
899.0
901.0
896.0
890.0
880.0
874.0
874.0
873.0
879.0
880.0
888.0
890.0
892.0
887.0
882.0
881.0
882.0
886.0
892.0
900.0
905.0
908.0
909.0
905.0
908.0
908.0
910.0
903.0
899.0
899.0
904.0
908.0
909.0
904.0
900.0
898.0
898.0
902.0
905.0
905.0
907.0
905.0
905.0
910.0
908.0
911.0
910.0
911.0
913.0
916.0
919.0
922.0
924.0
925.0
931.0
935.0
938.0
939.0
941.0
946.0
950.0
954.0
956.0
957.0
959.0
962.0
967.0
972.0
975.0
976.0
975.0
974.0
979.0
983.0
983.0
985.0
984.0
982.0
984.0
987.0
990.0
985.0
984.0
982.0
984.0
985.0
987.0
985.0
984.0
983.0
985.0
988.0
987.0
986.0
986.0
987.0
987.0
990.0
992.0
994.0
990.0
990.0
991.0
994.0
995.0
995.0
994.0
992.0
994.0
998.0
998.0
998.0
996.0
997.0
998.0
1003.0
1003.0
1002.0
1002.0
999.0
999.0
996.0
994.0
991.0
990.0
993.0
995.0
994.0
991.0
987.0
985.0
983.0
986.0
989.0
991.0
989.0
984.0
985.0
988.0
989.0
990.0
985.0
980.0
980.0
983.0
986.0
986.0
983.0
978.0
977.0
980.0
985.0
986.0
983.0
980.0
980.0
982.0
984.0
986.0
984.0
981.0
979.0
980.0
983.0
985.0
981.0
981.0
980.0
982.0
984.0
988.0
988.0
986.0
982.0
982.0
984.0
987.0
985.0
984.0
982.0
980.0
975.0
976.0
976.0
977.0
977.0
977.0
979.0
982.0
983.0
982.0
980.0
981.0
983.0
981.0
974.0
975.0
977.0
982.0
979.0
981.0
983.0
980.0
980.0
981.0
980.0
979.0
980.0
979.0
981.0
981.0
983.0
978.0
978.0
979.0
981.0
984.0
989.0
988.0
983.0
978.0
974.0
978.0
981.0
983.0
982.0
979.0
978.0
977.0
977.0
979.0
976.0
976.0
972.0
973.0
975.0
979.0
979.0
980.0
978.0
977.0
978.0
977.0
975.0
976.0
975.0
980.0
985.0
989.0
988.0
986.0
984.0
981.0
982.0
982.0
982.0
985.0
982.0
982.0
983.0
983.0
985.0
987.0
987.0
995.0
1000.0
1001.0
1002.0
1004.0
1002.0
1003.0
1005.0
1008.0
1012.0
1017.0
1019.0
1025.0
1027.0
1026.0
1030.0
1032.0
1034.0
1035.0
1033.0
1032.0
1026.0
1017.0
1008.0
1003.0
1001.0
995.0
989.0
981.0
978.0
977.0
976.0
976.0
975.0
976.0
975.0
973.0
977.0
979.0
980.0
983.0
980.0
978.0
979.0
984.0
983.0
982.0
979.0
981.0
986.0
986.0
983.0
978.0
979.0
986.0
993.0
1009.0
1033.0
1065.0
1102.0
1149.0
1190.0
1227.0
1254.0
1275.0
1289.0
1296.0
1287.0
1262.0
1230.0
1202.0
1179.0
1155.0
1127.0
1103.0
1090.0
1073.0
1050.0
1033.0
1020.0
1007.0
994.0
978.0
967.0
964.0
965.0
961.0
955.0
949.0
943.0
944.0
945.0
945.0
944.0
944.0
944.0
944.0
946.0
944.0
943.0
942.0
944.0
946.0
949.0
947.0
948.0
948.0
945.0
947.0
950.0
950.0
947.0
946.0
945.0
949.0
949.0
951.0
945.0
944.0
940.0
945.0
946.0
949.0
949.0
950.0
951.0
953.0
954.0
952.0
950.0
948.0
950.0
951.0
954.0
958.0
956.0
958.0
957.0
960.0
965.0
966.0
970.0
972.0
971.0
975.0
981.0
985.0
986.0
987.0
986.0
993.0
997.0
1004.0
1005.0
1004.0
1007.0
1009.0
1015.0
1018.0
1021.0
1024.0
1025.0
1031.0
1036.0
1040.0
1040.0
1038.0
1035.0
1038.0
1041.0
1041.0
1034.0
1034.0
1034.0
1036.0
1034.0
1033.0
1028.0
1022.0
1022.0
1020.0
1019.0
1019.0
1016.0
1010.0
1005.0
1003.0
1003.0
999.0
997.0
995.0
990.0
993.0
995.0
994.0
991.0
990.0
989.0
990.0
989.0
984.0
977.0
970.0
964.0
965.0
974.0
978.0
974.0
972.0
970.0
971.0
973.0
972.0
970.0
968.0
964.0
965.0
968.0
966.0
967.0
967.0
966.0
967.0
969.0
969.0
967.0
964.0
964.0
965.0
969.0
971.0
967.0
968.0
964.0
969.0
970.0
969.0
970.0
967.0
966.0
970.0
970.0
972.0
970.0
969.0
966.0
967.0
969.0
967.0
969.0
966.0
966.0
967.0
970.0
972.0
972.0
972.0
971.0
974.0
978.0
984.0
985.0
986.0
982.0
981.0
986.0
990.0
992.0
1000.0
1001.0
1004.0
1006.0
1008.0
1010.0
1010.0
1011.0
1011.0
1010.0
1008.0
1004.0
1002.0
999.0
998.0
994.0
982.0
971.0
962.0
958.0
961.0
962.0
958.0
955.0
955.0
949.0
952.0
954.0
958.0
958.0
958.0
956.0
957.0
962.0
961.0
961.0
958.0
955.0
957.0
963.0
965.0
969.0
969.0
966.0
968.0
968.0
965.0
961.0
965.0
978.0
1002.0
1035.0
1069.0
1100.0
1133.0
1169.0
1210.0
1237.0
1261.0
1275.0
1274.0
1257.0
1234.0
1213.0
1199.0
1184.0
1162.0
1130.0
1101.0
1081.0
1067.0
1048.0
1028.0
1012.0
997.0
983.0
976.0
962.0
954.0
946.0
944.0
940.0
938.0
934.0
932.0
930.0
930.0
932.0
930.0
931.0
931.0
933.0
935.0
940.0
940.0
937.0
935.0
936.0
939.0
941.0
940.0
938.0
937.0
937.0
937.0
940.0
942.0
940.0
940.0
938.0
939.0
940.0
939.0
939.0
938.0
937.0
937.0
937.0
935.0
933.0
934.0
933.0
937.0
937.0
939.0
938.0
936.0
933.0
937.0
940.0
940.0
941.0
939.0
938.0
942.0
944.0
947.0
948.0
951.0
952.0
956.0
960.0
961.0
963.0
964.0
968.0
973.0
974.0
977.0
981.0
981.0
980.0
988.0
991.0
990.0
995.0
997.0
998.0
1001.0
1001.0
999.0
1001.0
998.0
996.0
996.0
997.0
1000.0
994.0
993.0
989.0
988.0
990.0
988.0
985.0
985.0
981.0
984.0
985.0
982.0
980.0
975.0
976.0
980.0
983.0
984.0
983.0
979.0
978.0
981.0
983.0
984.0
983.0
981.0
979.0
980.0
985.0
986.0
984.0
980.0
975.0
976.0
979.0
981.0
981.0
983.0
982.0
982.0
979.0
979.0
976.0
975.0
970.0
972.0
975.0
974.0
974.0
974.0
973.0
976.0
977.0
977.0
975.0
974.0
974.0
976.0
977.0
978.0
979.0
977.0
975.0
977.0
978.0
978.0
977.0
977.0
974.0
977.0
979.0
977.0
977.0
973.0
973.0
977.0
979.0
981.0
980.0
980.0
981.0
986.0
992.0
998.0
997.0
994.0
993.0
996.0
1006.0
1013.0
1012.0
1010.0
1007.0
1008.0
1014.0
1019.0
1018.0
1016.0
1014.0
1013.0
1014.0
1012.0
1004.0
993.0
980.0
973.0
972.0
971.0
967.0
968.0
963.0
966.0
968.0
968.0
968.0
968.0
968.0
970.0
969.0
972.0
967.0
967.0
969.0
971.0
975.0
977.0
975.0
977.0
972.0
975.0
979.0
977.0
974.0
971.0
970.0
982.0
1000.0
1027.0
1059.0
1096.0
1137.0
1181.0
1219.0
1251.0
1271.0
1280.0
1269.0
1245.0
1218.0
1197.0
1181.0
1163.0
1133.0
1102.0
1084.0
1067.0
1048.0
1024.0
1003.0
991.0
980.0
971.0
961.0
949.0
940.0
938.0
933.0
932.0
930.0
930.0
931.0
930.0
930.0
929.0
928.0
928.0
930.0
931.0
933.0
932.0
933.0
932.0
931.0
932.0
933.0
932.0
932.0
931.0
933.0
939.0
939.0
934.0
928.0
927.0
928.0
933.0
938.0
936.0
936.0
931.0
931.0
934.0
937.0
939.0
937.0
935.0
931.0
934.0
935.0
935.0
936.0
933.0
934.0
936.0
937.0
939.0
938.0
939.0
940.0
945.0
948.0
951.0
952.0
951.0
955.0
961.0
964.0
961.0
961.0
967.0
971.0
977.0
983.0
989.0
990.0
992.0
994.0
997.0
1000.0
999.0
993.0
994.0
994.0
1000.0
1005.0
1005.0
1001.0
996.0
993.0
995.0
995.0
996.0
996.0
993.0
992.0
987.0
988.0
987.0
986.0
984.0
982.0
983.0
985.0
987.0
986.0
985.0
982.0
985.0
983.0
982.0
982.0
979.0
978.0
977.0
980.0
980.0
981.0
979.0
977.0
979.0
982.0
980.0
978.0
977.0
975.0
979.0
981.0
983.0
984.0
982.0
979.0
979.0
976.0
975.0
973.0
975.0
977.0
978.0
979.0
981.0
979.0
979.0
974.0
976.0
978.0
980.0
978.0
979.0
978.0
982.0
983.0
979.0
979.0
977.0
977.0
977.0
978.0
979.0
979.0
978.0
979.0
981.0
980.0
986.0
985.0
986.0
985.0
988.0
991.0
992.0
995.0
997.0
999.0
1002.0
1004.0
1000.0
1001.0
1006.0
1007.0
1014.0
1017.0
1020.0
1020.0
1020.0
1020.0
1021.0
1022.0
1017.0
1016.0
1016.0
1014.0
1011.0
1005.0
993.0
980.0
971.0
964.0
965.0
963.0
966.0
968.0
967.0
966.0
968.0
974.0
976.0
970.0
966.0
962.0
967.0
970.0
973.0
972.0
972.0
971.0
971.0
973.0
974.0
974.0
975.0
972.0
968.0
968.0
971.0
974.0
992.0
1017.0
1050.0
1092.0
1132.0
1178.0
1217.0
1251.0
1279.0
1288.0
1275.0
1248.0
1219.0
1191.0
1163.0
1127.0
1095.0
1077.0
1066.0
1055.0
1038.0
1015.0
999.0
986.0
973.0
963.0
957.0
951.0
945.0
942.0
938.0
935.0
936.0
933.0
935.0
934.0
936.0
937.0
936.0
937.0
939.0
939.0
937.0
937.0
938.0
939.0
941.0
940.0
939.0
938.0
942.0
946.0
945.0
943.0
941.0
942.0
944.0
945.0
945.0
944.0
941.0
940.0
941.0
942.0
942.0
942.0
940.0
938.0
940.0
941.0
941.0
941.0
940.0
943.0
946.0
947.0
948.0
947.0
945.0
945.0
948.0
952.0
955.0
956.0
956.0
955.0
960.0
965.0
969.0
973.0
975.0
977.0
982.0
984.0
985.0
988.0
990.0
989.0
997.0
999.0
999.0
1000.0
1001.0
1000.0
1004.0
1002.0
1003.0
1001.0
999.0
996.0
996.0
996.0
994.0
992.0
984.0
984.0
984.0
986.0
988.0
988.0
982.0
978.0
979.0
981.0
981.0
981.0
980.0
976.0
977.0
981.0
978.0
976.0
974.0
973.0
975.0
976.0
976.0
974.0
973.0
973.0
971.0
972.0
974.0
971.0
972.0
968.0
969.0
971.0
972.0
975.0
975.0
975.0
976.0
973.0
975.0
974.0
972.0
972.0
972.0
974.0
974.0
974.0
974.0
972.0
973.0
975.0
975.0
975.0
973.0
972.0
974.0
975.0
976.0
973.0
975.0
972.0
975.0
977.0
979.0
979.0
978.0
975.0
975.0
976.0
975.0
978.0
978.0
977.0
977.0
981.0
983.0
984.0
983.0
984.0
988.0
993.0
995.0
992.0
990.0
989.0
996.0
1005.0
1009.0
1012.0
1014.0
1015.0
1018.0
1022.0
1020.0
1016.0
1012.0
1009.0
1009.0
1009.0
1009.0
1005.0
996.0
985.0
974.0
969.0
969.0
969.0
969.0
967.0
965.0
967.0
967.0
967.0
968.0
966.0
963.0
970.0
972.0
970.0
967.0
964.0
967.0
971.0
971.0
969.0
968.0
967.0
969.0
972.0
971.0
970.0
963.0
960.0
963.0
969.0
982.0
996.0
1017.0
1044.0
1080.0
1121.0
1161.0
1200.0
1234.0
1254.0
1267.0
1263.0
1240.0
1206.0
1183.0
1162.0
1144.0
1118.0
1088.0
1068.0
1052.0
1038.0
1025.0
1009.0
996.0
987.0
974.0
963.0
954.0
955.0
950.0
947.0
941.0
938.0
940.0
943.0
943.0
943.0
941.0
939.0
942.0
944.0
944.0
944.0
942.0
942.0
944.0
945.0
946.0
944.0
944.0
943.0
947.0
947.0
947.0
945.0
943.0
944.0
946.0
948.0
949.0
946.0
942.0
940.0
944.0
946.0
948.0
944.0
944.0
942.0
944.0
945.0
944.0
946.0
943.0
942.0
946.0
948.0
950.0
952.0
949.0
949.0
952.0
954.0
956.0
956.0
958.0
957.0
960.0
964.0
968.0
971.0
971.0
974.0
979.0
984.0
987.0
986.0
988.0
992.0
995.0
998.0
1003.0
1001.0
1000.0
1002.0
1009.0
1012.0
1014.0
1013.0
1010.0
1009.0
1009.0
1010.0
1010.0
1007.0
1004.0
1001.0
1004.0
1005.0
1008.0
1001.0
1000.0
997.0
999.0
999.0
998.0
997.0
995.0
992.0
993.0
993.0
993.0
990.0
990.0
990.0
992.0
991.0
991.0
990.0
990.0
988.0
985.0
987.0
989.0
988.0
987.0
986.0
986.0
990.0
988.0
986.0
985.0
984.0
986.0
987.0
987.0
987.0
984.0
984.0
985.0
985.0
983.0
985.0
986.0
986.0
986.0
986.0
990.0
988.0
988.0
986.0
987.0
987.0
991.0
988.0
985.0
985.0
986.0
989.0
986.0
986.0
983.0
984.0
986.0
987.0
987.0
985.0
985.0
984.0
987.0
987.0
987.0
987.0
984.0
983.0
986.0
989.0
990.0
991.0
991.0
990.0
995.0
1003.0
1011.0
1012.0
1011.0
1010.0
1013.0
1011.0
1013.0
1012.0
1015.0
1016.0
1022.0
1028.0
1030.0
1031.0
1031.0
1030.0
1032.0
1029.0
1026.0
1025.0
1021.0
1017.0
1014.0
1008.0
1000.0
992.0
980.0
975.0
972.0
974.0
971.0
969.0
966.0
966.0
968.0
969.0
970.0
971.0
971.0
969.0
971.0
972.0
973.0
970.0
970.0
972.0
974.0
974.0
974.0
975.0
974.0
976.0
978.0
980.0
978.0
972.0
971.0
970.0
974.0
980.0
994.0
1016.0
1041.0
1075.0
1109.0
1145.0
1181.0
1214.0
1241.0
1263.0
1281.0
1282.0
1265.0
1234.0
1201.0
1175.0
1158.0
1138.0
1109.0
1085.0
1069.0
1056.0
1038.0
1021.0
1005.0
994.0
983.0
974.0
965.0
956.0
948.0
944.0
939.0
936.0
932.0
933.0
934.0
932.0
931.0
929.0
929.0
933.0
932.0
933.0
931.0
930.0
935.0
935.0
933.0
935.0
934.0
934.0
937.0
939.0
936.0
935.0
937.0
937.0
938.0
941.0
938.0
940.0
938.0
937.0
936.0
936.0
934.0
934.0
935.0
936.0
936.0
939.0
940.0
938.0
936.0
933.0
936.0
938.0
939.0
938.0
940.0
938.0
940.0
941.0
945.0
945.0
945.0
944.0
950.0
951.0
953.0
956.0
955.0
957.0
961.0
965.0
968.0
972.0
971.0
975.0
979.0
985.0
987.0
991.0
990.0
994.0
997.0
998.0
1003.0
1004.0
1005.0
1004.0
1008.0
1008.0
1008.0
1008.0
1004.0
1002.0
1002.0
1002.0
1000.0
999.0
996.0
995.0
994.0
994.0
991.0
987.0
986.0
986.0
987.0
988.0
987.0
985.0
983.0
982.0
982.0
984.0
985.0
981.0
983.0
980.0
981.0
982.0
983.0
980.0
979.0
978.0
981.0
981.0
979.0
979.0
978.0
980.0
978.0
979.0
981.0
979.0
977.0
978.0
978.0
979.0
978.0
979.0
982.0
981.0
980.0
981.0
981.0
980.0
978.0
978.0
982.0
984.0
984.0
983.0
978.0
977.0
980.0
983.0
985.0
984.0
981.0
980.0
981.0
982.0
982.0
981.0
980.0
978.0
980.0
983.0
982.0
982.0
981.0
982.0
982.0
985.0
984.0
988.0
990.0
993.0
997.0
1001.0
1005.0
1011.0
1006.0
1002.0
1008.0
1010.0
1015.0
1018.0
1017.0
1018.0
1023.0
1027.0
1030.0
1026.0
1023.0
1023.0
1023.0
1024.0
1021.0
1017.0
1008.0
999.0
995.0
989.0
981.0
973.0
966.0
961.0
964.0
966.0
965.0
963.0
965.0
960.0
960.0
961.0
962.0
965.0
963.0
963.0
964.0
966.0
967.0
967.0
968.0
968.0
970.0
974.0
975.0
974.0
974.0
971.0
971.0
972.0
968.0
964.0
965.0
967.0
980.0
999.0
1026.0
1057.0
1094.0
1131.0
1176.0
1213.0
1244.0
1265.0
1275.0
1277.0
1257.0
1228.0
1199.0
1179.0
1162.0
1145.0
1125.0
1101.0
1076.0
1062.0
1045.0
1025.0
1005.0
993.0
982.0
971.0
958.0
944.0
939.0
937.0
938.0
936.0
930.0
925.0
928.0
929.0
927.0
929.0
927.0
927.0
928.0
928.0
927.0
928.0
929.0
929.0
931.0
932.0
933.0
932.0
933.0
931.0
934.0
936.0
936.0
937.0
935.0
933.0
932.0
933.0
934.0
932.0
934.0
934.0
935.0
937.0
938.0
934.0
931.0
930.0
933.0
937.0
933.0
933.0
932.0
935.0
935.0
935.0
935.0
934.0
932.0
932.0
937.0
941.0
942.0
942.0
941.0
941.0
944.0
948.0
950.0
951.0
949.0
949.0
954.0
960.0
962.0
960.0
961.0
964.0
972.0
974.0
976.0
975.0
974.0
978.0
986.0
992.0
992.0
995.0
997.0
997.0
999.0
1001.0
1003.0
1002.0
1000.0
1000.0
999.0
1000.0
998.0
994.0
991.0
989.0
989.0
992.0
991.0
987.0
983.0
981.0
979.0
982.0
980.0
981.0
980.0
978.0
980.0
978.0
978.0
976.0
974.0
973.0
973.0
976.0
974.0
976.0
973.0
973.0
976.0
978.0
975.0
971.0
969.0
972.0
976.0
976.0
975.0
972.0
974.0
974.0
974.0
975.0
976.0
974.0
973.0
974.0
974.0
976.0
973.0
972.0
971.0
972.0
976.0
975.0
976.0
973.0
970.0
971.0
974.0
976.0
976.0
975.0
973.0
969.0
973.0
973.0
975.0
974.0
972.0
972.0
974.0
974.0
972.0
973.0
972.0
972.0
973.0
975.0
977.0
982.0
979.0
977.0
978.0
979.0
984.0
986.0
989.0
994.0
999.0
1002.0
1005.0
1002.0
997.0
999.0
1006.0
1013.0
1015.0
1015.0
1015.0
1016.0
1019.0
1025.0
1023.0
1021.0
1017.0
1014.0
1013.0
1010.0
1004.0
998.0
990.0
979.0
971.0
968.0
965.0
962.0
960.0
956.0
956.0
960.0
958.0
958.0
954.0
953.0
958.0
960.0
960.0
959.0
954.0
954.0
960.0
962.0
962.0
962.0
958.0
956.0
959.0
961.0
962.0
963.0
960.0
958.0
958.0
960.0
959.0
969.0
985.0
1013.0
1050.0
1089.0
1127.0
1167.0
1204.0
1232.0
1256.0
1273.0
1269.0
1244.0
1214.0
1191.0
1177.0
1163.0
1137.0
1105.0
1076.0
1059.0
1049.0
1037.0
1018.0
1002.0
988.0
974.0
963.0
950.0
941.0
934.0
930.0
926.0
927.0
924.0
925.0
920.0
916.0
914.0
916.0
919.0
921.0
925.0
925.0
922.0
922.0
924.0
925.0
923.0
924.0
921.0
923.0
925.0
927.0
926.0
926.0
925.0
927.0
929.0
928.0
928.0
928.0
926.0
928.0
927.0
929.0
928.0
928.0
928.0
928.0
931.0
928.0
928.0
924.0
920.0
925.0
929.0
929.0
929.0
926.0
924.0
925.0
924.0
927.0
928.0
929.0
933.0
933.0
938.0
936.0
937.0
939.0
943.0
944.0
945.0
946.0
951.0
953.0
952.0
958.0
963.0
967.0
966.0
965.0
962.0
967.0
972.0
975.0
977.0
979.0
981.0
984.0
989.0
988.0
986.0
987.0
988.0
991.0
992.0
990.0
989.0
988.0
986.0
986.0
985.0
981.0
977.0
976.0
974.0
975.0
976.0
974.0
974.0
973.0
972.0
971.0
973.0
971.0
969.0
968.0
967.0
972.0
974.0
975.0
973.0
974.0
968.0
972.0
974.0
973.0
972.0
971.0
964.0
969.0
970.0
973.0
975.0
973.0
970.0
973.0
972.0
969.0
965.0
962.0
962.0
963.0
966.0
964.0
966.0
966.0
965.0
965.0
967.0
966.0
965.0
963.0
960.0
960.0
964.0
965.0
965.0
964.0
963.0
963.0
963.0
963.0
960.0
959.0
958.0
962.0
964.0
965.0
965.0
964.0
963.0
964.0
967.0
969.0
967.0
968.0
967.0
972.0
971.0
971.0
968.0
970.0
969.0
976.0
977.0
983.0
983.0
986.0
991.0
996.0
998.0
998.0
998.0
1003.0
1009.0
1013.0
1016.0
1016.0
1017.0
1019.0
1022.0
1026.0
1029.0
1026.0
1024.0
1021.0
1017.0
1017.0
1012.0
1004.0
993.0
977.0
965.0
963.0
963.0
963.0
963.0
961.0
958.0
960.0
962.0
960.0
959.0
959.0
957.0
963.0
964.0
963.0
961.0
960.0
960.0
963.0
967.0
970.0
967.0
965.0
965.0
967.0
967.0
969.0
967.0
963.0
967.0
982.0
1007.0
1040.0
1077.0
1117.0
1159.0
1200.0
1235.0
1260.0
1279.0
1277.0
1260.0
1238.0
1218.0
1200.0
1175.0
1145.0
1114.0
1096.0
1081.0
1071.0
1049.0
1027.0
1009.0
996.0
985.0
971.0
958.0
950.0
939.0
936.0
933.0
930.0
929.0
928.0
924.0
929.0
930.0
928.0
927.0
926.0
924.0
925.0
927.0
931.0
930.0
933.0
931.0
931.0
935.0
938.0
935.0
933.0
931.0
928.0
928.0
929.0
927.0
927.0
929.0
932.0
930.0
928.0
925.0
932.0
933.0
938.0
938.0
939.0
935.0
935.0
934.0
933.0
938.0
937.0
934.0
930.0
934.0
941.0
948.0
949.0
948.0
948.0
946.0
950.0
957.0
961.0
962.0
962.0
960.0
963.0
966.0
972.0
978.0
977.0
984.0
984.0
989.0
990.0
993.0
995.0
996.0
1002.0
1005.0
1006.0
1004.0
998.0
994.0
994.0
999.0
1004.0
1011.0
1013.0
1012.0
1008.0
1001.0
1001.0
996.0
992.0
984.0
982.0
987.0
992.0
992.0
991.0
985.0
984.0
979.0
973.0
970.0
968.0
970.0
972.0
977.0
976.0
976.0
972.0
972.0
974.0
972.0
971.0
968.0
965.0
969.0
973.0
972.0
970.0
968.0
962.0
964.0
965.0
966.0
968.0
969.0
964.0
961.0
958.0
962.0
967.0
967.0
965.0
960.0
960.0
959.0
959.0
955.0
954.0
953.0
953.0
953.0
956.0
954.0
954.0
955.0
960.0
963.0
963.0
961.0
958.0
959.0
962.0
965.0
965.0
963.0
961.0
961.0
963.0
966.0
964.0
957.0
952.0
949.0
953.0
957.0
965.0
971.0
974.0
974.0
980.0
985.0
982.0
976.0
966.0
964.0
972.0
979.0
989.0
994.0
994.0
992.0
990.0
989.0
989.0
988.0
982.0
976.0
974.0
976.0
973.0
971.0
965.0
956.0
949.0
944.0
939.0
939.0
935.0
936.0
935.0
938.0
939.0
939.0
939.0
939.0
938.0
939.0
940.0
943.0
944.0
949.0
952.0
956.0
954.0
949.0
945.0
940.0
942.0
944.0
945.0
943.0
941.0
943.0
950.0
966.0
992.0
1024.0
1059.0
1096.0
1134.0
1176.0
1215.0
1240.0
1246.0
1227.0
1194.0
1168.0
1146.0
1124.0
1100.0
1074.0
1056.0
1050.0
1037.0
1025.0
1009.0
990.0
976.0
963.0
950.0
942.0
935.0
923.0
919.0
912.0
911.0
910.0
912.0
911.0
911.0
913.0
914.0
915.0
912.0
912.0
912.0
916.0
916.0
914.0
913.0
911.0
913.0
915.0
912.0
910.0
911.0
911.0
913.0
916.0
921.0
923.0
922.0
920.0
915.0
915.0
914.0
914.0
917.0
921.0
924.0
925.0
926.0
924.0
924.0
922.0
923.0
923.0
922.0
926.0
926.0
927.0
932.0
935.0
936.0
933.0
930.0
935.0
937.0
942.0
943.0
944.0
947.0
948.0
955.0
960.0
960.0
965.0
965.0
968.0
971.0
974.0
976.0
977.0
974.0
978.0
981.0
981.0
980.0
976.0
978.0
973.0
974.0
976.0
977.0
975.0
972.0
967.0
967.0
969.0
968.0
968.0
966.0
964.0
966.0
966.0
966.0
962.0
961.0
958.0
957.0
958.0
959.0
954.0
954.0
950.0
953.0
