# Simple Text Format
# Sampling Rate (Hz):= 360.00
# Resolution:= 12
# Labels:= ECG
999.0
1003.0
1007.0
1010.0
1008.0
1008.0
1011.0
1017.0
1020.0
1025.0
1024.0
1023.0
1025.0
1030.0
1038.0
1041.0
1037.0
1039.0
1036.0
1042.0
1048.0
1054.0
1056.0
1061.0
1069.0
1077.0
1087.0
1096.0
1105.0
1111.0
1119.0
1129.0
1137.0
1147.0
1157.0
1164.0
1170.0
1179.0
1187.0
1199.0
1201.0
1202.0
1205.0
1215.0
1221.0
1225.0
1225.0
1228.0
1228.0
1232.0
1235.0
1233.0
1228.0
1222.0
1213.0
1210.0
1207.0
1204.0
1197.0
1187.0
1177.0
1176.0
1170.0
1166.0
1155.0
1141.0
1136.0
1131.0
1125.0
1119.0
1110.0
1105.0
1095.0
1089.0
1090.0
1091.0
1082.0
1076.0
1072.0
1071.0
1069.0
1065.0
1061.0
1057.0
1055.0
1051.0
1056.0
1054.0
1051.0
1049.0
1050.0
1051.0
1056.0
1060.0
1064.0
1065.0
1073.0
1083.0
1096.0
1107.0
1116.0
1125.0
1141.0
1162.0
1192.0
1218.0
1241.0
1260.0
1278.0
1298.0
1318.0
1345.0
1357.0
1366.0
1366.0
1370.0
1379.0
1374.0
1367.0
1353.0
1337.0
1321.0
1316.0
1311.0
1289.0
1243.0
1185.0
1130.0
1080.0
1034.0
994.0
963.0
942.0
928.0
925.0
918.0
905.0
896.0
891.0
886.0
880.0
875.0
866.0
858.0
849.0
846.0
845.0
845.0
840.0
836.0
836.0
831.0
832.0
832.0
828.0
827.0
827.0
831.0
834.0
834.0
832.0
830.0
829.0
830.0
834.0
834.0
830.0
826.0
819.0
819.0
820.0
819.0
813.0
807.0
801.0
801.0
801.0
797.0
796.0
793.0
788.0
787.0
782.0
781.0
775.0
773.0
774.0
775.0
773.0
775.0
775.0
771.0
772.0
774.0
778.0
780.0
777.0
774.0
776.0
783.0
788.0
793.0
794.0
797.0
799.0
801.0
810.0
818.0
822.0
825.0
827.0
833.0
843.0
851.0
855.0
858.0
861.0
866.0
874.0
886.0
891.0
892.0
898.0
902.0
913.0
921.0
921.0
927.0
931.0
936.0
941.0
945.0
944.0
944.0
942.0
948.0
953.0
957.0
957.0
959.0
959.0
960.0
965.0
968.0
971.0
970.0
970.0
969.0
972.0
974.0
974.0
968.0
970.0
975.0
975.0
978.0
979.0
974.0
975.0
978.0
983.0
986.0
981.0
975.0
978.0
976.0
983.0
987.0
985.0
980.0
977.0
980.0
980.0
979.0
978.0
980.0
982.0
984.0
986.0
985.0
982.0
975.0
973.0
978.0
980.0
983.0
981.0
980.0
978.0
981.0
978.0
980.0
977.0
977.0
978.0
976.0
979.0
979.0
977.0
972.0
972.0
973.0
978.0
977.0
975.0
973.0
975.0
976.0
977.0
978.0
979.0
977.0
972.0
969.0
974.0
977.0
977.0
974.0
970.0
970.0
972.0
977.0
975.0
973.0
967.0
963.0
968.0
973.0
971.0
970.0
970.0
970.0
973.0
975.0
976.0
973.0
971.0
972.0
973.0
971.0
971.0
972.0
973.0
977.0
988.0
999.0
1000.0
998.0
993.0
989.0
982.0
969.0
959.0
954.0
953.0
959.0
965.0
971.0
969.0
961.0
956.0
956.0
954.0
960.0
963.0
957.0
957.0
959.0
959.0
962.0
961.0
960.0
963.0
968.0
974.0
978.0
979.0
980.0
981.0
988.0
999.0
1004.0
1003.0
1001.0
998.0
1001.0
993.0
978.0
961.0
953.0
949.0
954.0
955.0
951.0
945.0
937.0
942.0
951.0
964.0
975.0
980.0
981.0
979.0
981.0
992.0
1002.0
1020.0
1036.0
1039.0
1028.0
1004.0
992.0
993.0
1004.0
1016.0
1012.0
996.0
974.0
950.0
936.0
926.0
931.0
939.0
940.0
939.0
938.0
944.0
957.0
980.0
995.0
1006.0
1012.0
1028.0
1043.0
1047.0
1022.0
984.0
955.0
955.0
972.0
991.0
989.0
974.0
955.0
950.0
956.0
959.0
962.0
965.0
981.0
995.0
1000.0
988.0
965.0
944.0
936.0
951.0
976.0
999.0
1000.0
979.0
956.0
943.0
947.0
956.0
957.0
952.0
944.0
940.0
951.0
962.0
970.0
969.0
963.0
961.0
965.0
975.0
988.0
992.0
988.0
984.0
981.0
975.0
965.0
958.0
956.0
962.0
968.0
969.0
968.0
962.0
958.0
955.0
964.0
962.0
962.0
955.0
954.0
964.0
978.0
994.0
1005.0
1009.0
1005.0
993.0
976.0
969.0
972.0
987.0
1013.0
1041.0
1054.0
1043.0
1026.0
1015.0
1022.0
1038.0
1054.0
1061.0
1056.0
1046.0
1027.0
1001.0
985.0
981.0
985.0
983.0
969.0
964.0
965.0
968.0
968.0
966.0
968.0
961.0
965.0
970.0
978.0
976.0
955.0
943.0
947.0
966.0
973.0
964.0
940.0
926.0
933.0
963.0
1029.0
1123.0
1223.0
1309.0
1378.0
1426.0
1446.0
1440.0
1403.0
1322.0
1196.0
1068.0
942.0
884.0
884.0
893.0
895.0
902.0
913.0
928.0
943.0
948.0
947.0
937.0
928.0
924.0
929.0
934.0
936.0
935.0
934.0
932.0
937.0
941.0
940.0
925.0
907.0
899.0
891.0
896.0
902.0
906.0
906.0
905.0
908.0
910.0
914.0
915.0
912.0
916.0
922.0
924.0
929.0
930.0
923.0
909.0
909.0
913.0
912.0
908.0
909.0
909.0
915.0
920.0
924.0
928.0
930.0
931.0
929.0
928.0
934.0
942.0
943.0
938.0
924.0
908.0
909.0
919.0
936.0
949.0
957.0
961.0
959.0
954.0
953.0
953.0
962.0
981.0
991.0
983.0
967.0
950.0
941.0
935.0
941.0
954.0
965.0
970.0
974.0
977.0
989.0
1008.0
1024.0
1028.0
1021.0
1001.0
987.0
974.0
967.0
966.0
968.0
979.0
987.0
999.0
1013.0
1012.0
997.0
985.0
978.0
981.0
991.0
995.0
1002.0
994.0
988.0
994.0
1003.0
1008.0
1008.0
997.0
979.0
968.0
968.0
973.0
978.0
978.0
974.0
967.0
958.0
948.0
946.0
950.0
954.0
968.0
971.0
973.0
978.0
979.0
978.0
977.0
977.0
979.0
980.0
975.0
968.0
963.0
964.0
969.0
973.0
978.0
982.0
986.0
990.0
983.0
972.0
955.0
951.0
956.0
969.0
975.0
974.0
972.0
970.0
975.0
982.0
984.0
980.0
977.0
975.0
981.0
985.0
981.0
974.0
971.0
977.0
980.0
987.0
983.0
980.0
975.0
975.0
973.0
968.0
965.0
960.0
963.0
965.0
962.0
962.0
963.0
965.0
961.0
955.0
953.0
959.0
968.0
972.0
970.0
966.0
957.0
946.0
941.0
942.0
943.0
945.0
952.0
961.0
957.0
946.0
935.0
937.0
943.0
948.0
946.0
945.0
941.0
944.0
948.0
954.0
950.0
947.0
947.0
950.0
956.0
960.0
955.0
948.0
947.0
950.0
956.0
966.0
977.0
986.0
994.0
997.0
985.0
967.0
948.0
947.0
957.0
970.0
986.0
998.0
1004.0
1003.0
1002.0
1002.0
1007.0
1015.0
1021.0
1016.0
1001.0
990.0
985.0
980.0
973.0
966.0
960.0
956.0
951.0
947.0
949.0
948.0
947.0
948.0
947.0
954.0
953.0
949.0
942.0
941.0
946.0
950.0
945.0
936.0
926.0
921.0
916.0
915.0
929.0
963.0
1024.0
1119.0
1225.0
1320.0
1392.0
1438.0
1457.0
1455.0
1432.0
1366.0
1253.0
1125.0
997.0
883.0
886.0
915.0
927.0
920.0
915.0
917.0
928.0
927.0
928.0
923.0
920.0
917.0
924.0
923.0
924.0
923.0
921.0
923.0
929.0
934.0
931.0
923.0
913.0
910.0
913.0
921.0
922.0
916.0
915.0
919.0
922.0
924.0
922.0
923.0
924.0
926.0
930.0
933.0
930.0
925.0
927.0
925.0
928.0
935.0
930.0
927.0
929.0
934.0
942.0
947.0
955.0
957.0
959.0
959.0
959.0
955.0
948.0
936.0
933.0
938.0
942.0
947.0
952.0
954.0
958.0
963.0
968.0
971.0
972.0
973.0
978.0
984.0
991.0
994.0
995.0
996.0
993.0
999.0
1009.0
1018.0
1027.0
1030.0
1033.0
1038.0
1037.0
1034.0
1032.0
1032.0
1027.0
1030.0
1029.0
1028.0
1024.0
1021.0
1022.0
1024.0
1026.0
1025.0
1024.0
1022.0
1021.0
1018.0
1018.0
1020.0
1019.0
1020.0
1022.0
1023.0
1013.0
1002.0
988.0
979.0
976.0
976.0
967.0
963.0
959.0
953.0
954.0
953.0
955.0
959.0
957.0
954.0
956.0
956.0
960.0
960.0
959.0
959.0
958.0
960.0
962.0
965.0
963.0
965.0
965.0
969.0
975.0
981.0
976.0
967.0
964.0
968.0
974.0
973.0
974.0
969.0
969.0
972.0
976.0
981.0
984.0
986.0
984.0
983.0
990.0
998.0
1003.0
1008.0
1014.0
1027.0
1039.0
1053.0
1063.0
1071.0
1083.0
1103.0
1132.0
1161.0
1186.0
1201.0
1198.0
1166.0
1113.0
1059.0
997.0
942.0
893.0
858.0
817.0
771.0
732.0
712.0
713.0
731.0
751.0
766.0
771.0
768.0
767.0
776.0
788.0
803.0
808.0
813.0
823.0
837.0
856.0
870.0
885.0
903.0
918.0
936.0
948.0
953.0
958.0
964.0
970.0
978.0
986.0
995.0
999.0
1000.0
996.0
1000.0
1004.0
1007.0
1007.0
1007.0
1004.0
1009.0
1017.0
1018.0
1021.0
1023.0
1023.0
1027.0
1034.0
1037.0
1040.0
1038.0
1041.0
1047.0
1052.0
1059.0
1066.0
1066.0
1070.0
1077.0
1084.0
1089.0
1093.0
1093.0
1100.0
1110.0
1122.0
1131.0
1140.0
1143.0
1149.0
1160.0
1172.0
1185.0
1197.0
1202.0
1202.0
1210.0
1219.0
1227.0
1241.0
1245.0
1251.0
1257.0
1263.0
1265.0
1269.0
1271.0
1270.0
1272.0
1273.0
1270.0
1266.0
1261.0
1255.0
1251.0
1242.0
1239.0
1233.0
1224.0
1212.0
1209.0
1203.0
1194.0
1183.0
1170.0
1158.0
1151.0
1145.0
1142.0
1131.0
1123.0
1117.0
1117.0
1112.0
1104.0
1094.0
1087.0
1083.0
1082.0
1076.0
1075.0
1069.0
1061.0
1059.0
1063.0
1061.0
1062.0
1060.0
1052.0
1051.0
1052.0
1053.0
1051.0
1047.0
1045.0
1042.0
1042.0
1045.0
1045.0
1045.0
1036.0
1035.0
1037.0
1038.0
1036.0
1034.0
1033.0
1028.0
1030.0
1028.0
1028.0
1026.0
1023.0
1017.0
1016.0
1021.0
1021.0
1019.0
1013.0
1012.0
1010.0
1009.0
1007.0
1003.0
1000.0
1001.0
1005.0
1003.0
1005.0
1005.0
1001.0
999.0
998.0
996.0
995.0
997.0
992.0
989.0
989.0
987.0
986.0
983.0
984.0
982.0
981.0
984.0
984.0
982.0
980.0
977.0
977.0
979.0
982.0
980.0
975.0
973.0
975.0
975.0
976.0
974.0
974.0
972.0
970.0
972.0
975.0
977.0
976.0
978.0
979.0
978.0
973.0
970.0
968.0
965.0
969.0
975.0
977.0
970.0
964.0
964.0
966.0
970.0
970.0
966.0
964.0
965.0
966.0
969.0
972.0
973.0
972.0
967.0
965.0
965.0
969.0
971.0
974.0
970.0
968.0
970.0
970.0
964.0
959.0
957.0
961.0
968.0
973.0
974.0
968.0
965.0
963.0
960.0
964.0
963.0
961.0
958.0
956.0
956.0
957.0
960.0
964.0
968.0
970.0
972.0
968.0
961.0
955.0
952.0
951.0
958.0
960.0
961.0
959.0
957.0
956.0
956.0
957.0
954.0
952.0
952.0
955.0
963.0
969.0
970.0
964.0
958.0
958.0
963.0
962.0
956.0
951.0
947.0
954.0
963.0
967.0
959.0
954.0
951.0
948.0
948.0
945.0
946.0
949.0
952.0
955.0
961.0
963.0
961.0
955.0
950.0
953.0
955.0
956.0
953.0
954.0
954.0
958.0
961.0
958.0
954.0
949.0
950.0
956.0
965.0
969.0
966.0
963.0
959.0
959.0
960.0
972.0
979.0
975.0
975.0
981.0
997.0
1013.0
1021.0
1020.0
1017.0
1017.0
1026.0
1029.0
1027.0
1024.0
1023.0
1008.0
994.0
985.0
980.0
980.0
977.0
975.0
969.0
968.0
961.0
957.0
958.0
959.0
957.0
956.0
957.0
957.0
958.0
957.0
952.0
942.0
931.0
935.0
958.0
1014.0
1107.0
1221.0
1321.0
1391.0
1433.0
1456.0
1461.0
1435.0
1375.0
1273.0
1145.0
1017.0
909.0
907.0
932.0
939.0
943.0
947.0
948.0
947.0
946.0
946.0
941.0
938.0
940.0
942.0
940.0
940.0
939.0
943.0
943.0
946.0
942.0
936.0
932.0
935.0
942.0
947.0
946.0
941.0
938.0
940.0
940.0
938.0
940.0
941.0
939.0
942.0
941.0
941.0
940.0
940.0
943.0
947.0
948.0
946.0
943.0
940.0
939.0
943.0
950.0
953.0
948.0
946.0
947.0
952.0
954.0
957.0
956.0
955.0
958.0
962.0
966.0
969.0
965.0
966.0
964.0
969.0
972.0
978.0
979.0
977.0
975.0
978.0
986.0
992.0
990.0
993.0
1000.0
1003.0
1005.0
1009.0
1015.0
1017.0
1019.0
1021.0
1019.0
1018.0
1016.0
1016.0
1016.0
1024.0
1022.0
1022.0
1021.0
1018.0
1020.0
1019.0
1021.0
1028.0
1027.0
1024.0
1016.0
1015.0
1018.0
1025.0
1028.0
1021.0
1011.0
1005.0
1002.0
1005.0
1002.0
1002.0
996.0
994.0
996.0
997.0
992.0
992.0
990.0
994.0
997.0
997.0
989.0
984.0
987.0
991.0
993.0
989.0
981.0
979.0
979.0
985.0
990.0
994.0
995.0
993.0
994.0
997.0
1000.0
1000.0
998.0
1000.0
997.0
1002.0
1005.0
1008.0
1006.0
1008.0
1008.0
1012.0
1019.0
1018.0
1018.0
1021.0
1024.0
1030.0
1034.0
1042.0
1053.0
1070.0
1073.0
1074.0
1082.0
1107.0
1134.0
1162.0
1185.0
1210.0
1220.0
1203.0
1157.0
1103.0
1055.0
1011.0
964.0
910.0
843.0
781.0
733.0
718.0
729.0
758.0
780.0
792.0
796.0
793.0
789.0
793.0
799.0
804.0
815.0
824.0
844.0
863.0
877.0
887.0
897.0
915.0
931.0
941.0
947.0
949.0
949.0
952.0
962.0
973.0
979.0
980.0
979.0
981.0
991.0
998.0
1004.0
1000.0
991.0
992.0
1000.0
1004.0
1007.0
1009.0
1011.0
1015.0
1019.0
1024.0
1025.0
1023.0
1024.0
1028.0
1033.0
1037.0
1041.0
1043.0
1045.0
1049.0
1053.0
1057.0
1059.0
1065.0
1076.0
1087.0
1099.0
1110.0
1111.0
1108.0
1108.0
1116.0
1135.0
1152.0
1162.0
1169.0
1174.0
1177.0
1183.0
1196.0
1206.0
1208.0
1205.0
1209.0
1209.0
1211.0
1210.0
1212.0
1212.0
1210.0
1212.0
1210.0
1206.0
1195.0
1183.0
1175.0
1173.0
1167.0
1155.0
1145.0
1137.0
1133.0
1129.0
1125.0
1120.0
1115.0
1105.0
1096.0
1090.0
1087.0
1085.0
1077.0
1070.0
1069.0
1066.0
1064.0
1060.0
1052.0
1050.0
1046.0
1042.0
1037.0
1036.0
1033.0
1033.0
1035.0
1037.0
1032.0
1023.0
1017.0
1015.0
1017.0
1020.0
1021.0
1020.0
1014.0
1013.0
1011.0
1011.0
1013.0
1009.0
1008.0
1010.0
1010.0
1009.0
1011.0
1013.0
1008.0
1003.0
1004.0
1008.0
1010.0
1007.0
1002.0
1000.0
994.0
985.0
982.0
987.0
992.0
996.0
992.0
990.0
987.0
988.0
982.0
980.0
983.0
986.0
986.0
981.0
977.0
974.0
974.0
976.0
978.0
977.0
973.0
974.0
978.0
978.0
980.0
975.0
971.0
967.0
963.0
964.0
969.0
974.0
975.0
973.0
975.0
968.0
969.0
971.0
971.0
972.0
972.0
974.0
976.0
975.0
972.0
964.0
961.0
965.0
967.0
963.0
959.0
961.0
965.0
969.0
975.0
975.0
971.0
967.0
964.0
963.0
965.0
965.0
961.0
963.0
963.0
965.0
968.0
963.0
959.0
962.0
966.0
972.0
970.0
967.0
970.0
966.0
970.0
974.0
969.0
964.0
960.0
961.0
962.0
965.0
964.0
962.0
961.0
964.0
969.0
974.0
975.0
978.0
975.0
968.0
967.0
968.0
967.0
965.0
961.0
962.0
967.0
972.0
973.0
972.0
969.0
964.0
965.0
968.0
972.0
967.0
964.0
961.0
964.0
968.0
973.0
973.0
973.0
967.0
967.0
973.0
975.0
980.0
976.0
973.0
971.0
972.0
971.0
972.0
969.0
966.0
967.0
968.0
972.0
968.0
969.0
970.0
969.0
970.0
971.0
970.0
969.0
969.0
967.0
968.0
969.0
974.0
973.0
971.0
970.0
970.0
973.0
974.0
977.0
977.0
980.0
979.0
977.0
976.0
979.0
983.0
988.0
992.0
993.0
996.0
997.0
998.0
1002.0
1010.0
1022.0
1029.0
1031.0
1030.0
1029.0
1032.0
1037.0
1036.0
1035.0
1029.0
1020.0
1015.0
1011.0
1001.0
994.0
986.0
988.0
991.0
988.0
980.0
974.0
971.0
976.0
981.0
985.0
982.0
975.0
974.0
982.0
983.0
974.0
965.0
950.0
950.0
971.0
1015.0
1085.0
1174.0
1263.0
1336.0
1390.0
1426.0
1440.0
1429.0
1387.0
1312.0
1204.0
1077.0
971.0
919.0
930.0
954.0
967.0
969.0
969.0
966.0
960.0
961.0
967.0
969.0
970.0
965.0
957.0
953.0
958.0
965.0
965.0
961.0
954.0
955.0
956.0
963.0
963.0
959.0
955.0
955.0
960.0
963.0
962.0
958.0
958.0
957.0
959.0
962.0
962.0
965.0
965.0
961.0
958.0
961.0
964.0
967.0
964.0
962.0
969.0
976.0
975.0
971.0
969.0
966.0
971.0
976.0
982.0
984.0
980.0
977.0
971.0
978.0
984.0
989.0
988.0
983.0
991.0
999.0
998.0
998.0
999.0
990.0
991.0
996.0
1008.0
1015.0
1019.0
1019.0
1020.0
1024.0
1028.0
1022.0
1015.0
1011.0
1018.0
1024.0
1033.0
1036.0
1038.0
1035.0
1038.0
1044.0
1051.0
1051.0
1040.0
1029.0
1033.0
1045.0
1053.0
1052.0
1044.0
1036.0
1040.0
1043.0
1042.0
1036.0
1032.0
1030.0
1030.0
1029.0
1030.0
1023.0
1020.0
1016.0
1019.0
1019.0
1023.0
1021.0
1019.0
1018.0
1019.0
1017.0
1013.0
1010.0
1007.0
1002.0
1000.0
999.0
1002.0
1001.0
1002.0
1002.0
1005.0
1009.0
1011.0
1004.0
1003.0
1003.0
1007.0
1012.0
1014.0
1010.0
1011.0
1010.0
1013.0
1017.0
1025.0
1026.0
1023.0
1018.0
1017.0
1021.0
1025.0
1024.0
1019.0
1019.0
1023.0
1025.0
1028.0
1030.0
1030.0
1029.0
1023.0
1024.0
1023.0
1024.0
1024.0
1022.0
1020.0
1020.0
1018.0
1017.0
1016.0
1011.0
1013.0
1014.0
1014.0
1016.0
1016.0
1018.0
1021.0
1021.0
1019.0
1009.0
1002.0
996.0
998.0
1002.0
1003.0
1003.0
997.0
995.0
995.0
1000.0
1005.0
1003.0
997.0
992.0
992.0
998.0
1004.0
1001.0
989.0
980.0
983.0
995.0
999.0
997.0
989.0
982.0
979.0
986.0
991.0
991.0
986.0
987.0
992.0
995.0
994.0
992.0
992.0
995.0
1000.0
1007.0
1008.0
1010.0
1011.0
1011.0
1012.0
1016.0
1022.0
1029.0
1033.0
1035.0
1038.0
1044.0
1051.0
1049.0
1044.0
1044.0
1042.0
1041.0
1036.0
1018.0
1007.0
993.0
995.0
1000.0
1005.0
1000.0
994.0
986.0
980.0
984.0
984.0
982.0
979.0
975.0
976.0
976.0
981.0
982.0
981.0
981.0
979.0
972.0
965.0
957.0
950.0
953.0
968.0
1016.0
1092.0
1186.0
1275.0
1343.0
1397.0
1424.0
1435.0
1420.0
1387.0
1323.0
1222.0
1099.0
981.0
921.0
927.0
951.0
963.0
968.0
969.0
968.0
969.0
966.0
966.0
965.0
964.0
964.0
963.0
959.0
956.0
956.0
960.0
961.0
958.0
959.0
957.0
962.0
961.0
959.0
956.0
952.0
954.0
961.0
962.0
959.0
956.0
952.0
954.0
960.0
964.0
959.0
960.0
963.0
964.0
965.0
966.0
962.0
960.0
960.0
962.0
965.0
965.0
967.0
964.0
962.0
967.0
969.0
970.0
970.0
972.0
972.0
974.0
975.0
979.0
982.0
979.0
980.0
985.0
988.0
991.0
990.0
991.0
994.0
996.0
998.0
1005.0
1004.0
1003.0
1001.0
1004.0
1009.0
1016.0
1019.0
1020.0
1020.0
1024.0
1031.0
1038.0
1044.0
1045.0
1045.0
1049.0
1053.0
1053.0
1048.0
1045.0
1048.0
1051.0
1058.0
1067.0
1065.0
1061.0
1057.0
1057.0
1055.0
1055.0
1052.0
1047.0
1043.0
1041.0
1042.0
1043.0
1038.0
1032.0
1027.0
1026.0
1023.0
1023.0
1019.0
1013.0
1009.0
1005.0
1008.0
1008.0
1002.0
999.0
995.0
995.0
996.0
997.0
996.0
990.0
988.0
987.0
989.0
989.0
989.0
984.0
982.0
984.0
985.0
991.0
993.0
988.0
987.0
989.0
997.0
1001.0
1003.0
995.0
989.0
992.0
995.0
1002.0
1006.0
1005.0
1001.0
1001.0
1003.0
1007.0
1005.0
1007.0
1006.0
1008.0
1011.0
1011.0
1011.0
1008.0
1009.0
1010.0
1012.0
1015.0
1014.0
1013.0
1009.0
1010.0
1010.0
1018.0
1018.0
1018.0
1013.0
1010.0
1011.0
1013.0
1013.0
1008.0
1006.0
1007.0
1004.0
1003.0
1002.0
1000.0
999.0
999.0
997.0
999.0
997.0
995.0
994.0
995.0
996.0
999.0
997.0
993.0
994.0
994.0
996.0
997.0
997.0
996.0
995.0
990.0
992.0
994.0
995.0
992.0
987.0
986.0
991.0
993.0
993.0
989.0
986.0
987.0
989.0
992.0
990.0
988.0
986.0
989.0
991.0
995.0
994.0
991.0
992.0
995.0
998.0
997.0
998.0
1002.0
1013.0
1020.0
1020.0
1023.0
1026.0
1024.0
1025.0
1030.0
1045.0
1055.0
1056.0
1055.0
1050.0
1054.0
1060.0
1061.0
1060.0
1049.0
1035.0
1026.0
1019.0
1016.0
1010.0
1006.0
998.0
994.0
993.0
991.0
989.0
988.0
984.0
989.0
997.0
999.0
994.0
986.0
983.0
985.0
991.0
989.0
982.0
969.0
964.0
956.0
963.0
996.0
1054.0
1138.0
1234.0
1325.0
1392.0
1431.0
1447.0
1440.0
1413.0
1356.0
1269.0
1146.0
1018.0
941.0
937.0
964.0
981.0
981.0
978.0
977.0
977.0
980.0
980.0
980.0
976.0
971.0
966.0
968.0
971.0
976.0
977.0
973.0
965.0
966.0
971.0
975.0
976.0
973.0
969.0
968.0
970.0
970.0
967.0
967.0
965.0
967.0
970.0
971.0
972.0
973.0
974.0
975.0
974.0
973.0
974.0
976.0
974.0
973.0
973.0
975.0
979.0
981.0
982.0
982.0
980.0
986.0
987.0
987.0
981.0
985.0
988.0
991.0
996.0
998.0
998.0
1002.0
1005.0
1007.0
1008.0
1009.0
1009.0
1014.0
1018.0
1020.0
1023.0
1024.0
1026.0
1031.0
1037.0
1039.0
1042.0
1044.0
1045.0
1047.0
1053.0
1060.0
1065.0
1066.0
1065.0
1070.0
1076.0
1080.0
1084.0
1082.0
1079.0
1080.0
1079.0
1083.0
1087.0
1081.0
1082.0
1080.0
1079.0
1078.0
1072.0
1067.0
1066.0
1064.0
1065.0
1068.0
1065.0
1057.0
1053.0
1052.0
1047.0
1046.0
1040.0
1035.0
1031.0
1030.0
1028.0
1027.0
1026.0
1024.0
1018.0
1018.0
1014.0
1016.0
1016.0
1011.0
1009.0
1009.0
1011.0
1014.0
1015.0
1013.0
1013.0
1015.0
1013.0
1012.0
1006.0
1000.0
1003.0
1008.0
1011.0
1013.0
1017.0
1017.0
1015.0
1018.0
1016.0
1018.0
1022.0
1019.0
1018.0
1019.0
1023.0
1025.0
1024.0
1021.0
1022.0
1027.0
1032.0
1036.0
1033.0
1031.0
1033.0
1028.0
1028.0
1031.0
1037.0
1042.0
1048.0
1055.0
1065.0
1079.0
1089.0
1100.0
1112.0
1123.0
1141.0
1161.0
1181.0
1193.0
1194.0
1182.0
1145.0
1087.0
1017.0
949.0
889.0
848.0
816.0
794.0
764.0
734.0
714.0
711.0
715.0
730.0
748.0
765.0
770.0
778.0
785.0
794.0
794.0
797.0
799.0
810.0
820.0
839.0
851.0
865.0
879.0
891.0
918.0
941.0
958.0
969.0
975.0
983.0
996.0
1012.0
1019.0
1023.0
1025.0
1026.0
1032.0
1036.0
1035.0
1037.0
1039.0
1039.0
1046.0
1051.0
1051.0
1051.0
1051.0
1056.0
1058.0
1064.0
1068.0
1066.0
1067.0
1070.0
1075.0
1082.0
1082.0
1080.0
1080.0
1084.0
1086.0
1092.0
1096.0
1098.0
1100.0
1105.0
1114.0
1121.0
1125.0
1129.0
1137.0
1143.0
1149.0
1156.0
1160.0
1164.0
1170.0
1181.0
1197.0
1207.0
1214.0
1221.0
1226.0
1237.0
1245.0
1255.0
1258.0
1256.0
1257.0
1262.0
1270.0
1275.0
1275.0
1275.0
1271.0
1271.0
1270.0
1268.0
1259.0
1254.0
1246.0
1241.0
1236.0
1229.0
1223.0
1215.0
1204.0
1196.0
1188.0
1179.0
1174.0
1165.0
1156.0
1148.0
1144.0
1139.0
1134.0
1125.0
1116.0
1115.0
1113.0
1113.0
1106.0
1100.0
1095.0
1091.0
1091.0
1090.0
1087.0
1081.0
1076.0
1080.0
1080.0
1079.0
1074.0
1068.0
1064.0
1063.0
1063.0
1068.0
1070.0
1063.0
1059.0
1059.0
1062.0
1066.0
1063.0
1054.0
1055.0
1054.0
1054.0
1050.0
1044.0
1047.0
1046.0
1050.0
1051.0
1059.0
1053.0
1044.0
1037.0
1031.0
1033.0
1031.0
1027.0
1023.0
1023.0
1025.0
1027.0
1028.0
1025.0
1020.0
1016.0
1016.0
1016.0
1016.0
1014.0
1008.0
1009.0
1013.0
1018.0
1020.0
1017.0
1011.0
1008.0
1009.0
1008.0
1009.0
1008.0
1004.0
1001.0
1002.0
1004.0
1006.0
1003.0
1000.0
1000.0
1000.0
1000.0
999.0
1002.0
997.0
996.0
999.0
997.0
1000.0
997.0
994.0
994.0
997.0
1000.0
999.0
999.0
997.0
993.0
988.0
989.0
992.0
992.0
989.0
985.0
985.0
990.0
992.0
989.0
987.0
986.0
988.0
989.0
991.0
989.0
990.0
987.0
988.0
991.0
992.0
991.0
985.0
983.0
986.0
984.0
990.0
987.0
982.0
982.0
985.0
991.0
994.0
989.0
985.0
984.0
982.0
984.0
984.0
983.0
981.0
982.0
982.0
983.0
983.0
984.0
985.0
979.0
982.0
984.0
985.0
985.0
983.0
983.0
983.0
984.0
987.0
989.0
988.0
986.0
988.0
993.0
990.0
985.0
980.0
978.0
979.0
982.0
986.0
986.0
981.0
977.0
979.0
984.0
988.0
989.0
986.0
984.0
983.0
987.0
991.0
989.0
987.0
988.0
989.0
987.0
985.0
986.0
987.0
984.0
982.0
986.0
990.0
989.0
985.0
982.0
986.0
988.0
990.0
992.0
990.0
986.0
986.0
987.0
989.0
985.0
986.0
986.0
990.0
993.0
993.0
988.0
983.0
981.0
987.0
991.0
993.0
996.0
993.0
990.0
991.0
993.0
997.0
994.0
994.0
990.0
989.0
989.0
993.0
999.0
998.0
993.0
994.0
1000.0
1008.0
1014.0
1015.0
1017.0
1018.0
1020.0
1027.0
1033.0
1037.0
1045.0
1051.0
1056.0
1059.0
1054.0
1051.0
1050.0
1052.0
1059.0
1057.0
1048.0
1034.0
1026.0
1024.0
1019.0
1015.0
1003.0
997.0
997.0
997.0
998.0
1002.0
1003.0
999.0
993.0
994.0
996.0
1001.0
999.0
995.0
986.0
976.0
971.0
974.0
991.0
1027.0
1090.0
1168.0
1250.0
1313.0
1360.0
1377.0
1381.0
1372.0
1344.0
1286.0
1195.0
1085.0
990.0
947.0
957.0
975.0
978.0
972.0
968.0
972.0
978.0
981.0
985.0
981.0
975.0
971.0
969.0
973.0
978.0
972.0
973.0
977.0
980.0
984.0
982.0
978.0
972.0
970.0
976.0
978.0
981.0
977.0
971.0
973.0
982.0
982.0
980.0
973.0
970.0
975.0
978.0
977.0
975.0
975.0
972.0
971.0
975.0
982.0
985.0
985.0
985.0
986.0
987.0
989.0
989.0
984.0
978.0
978.0
982.0
988.0
991.0
992.0
994.0
998.0
1001.0
1006.0
1005.0
1004.0
1001.0
1006.0
1011.0
1018.0
1022.0
1019.0
1022.0
1023.0
1027.0
1033.0
1036.0
1037.0
1032.0
1037.0
1043.0
1046.0
1048.0
1051.0
1050.0
1052.0
1059.0
1062.0
1059.0
1062.0
1062.0
1064.0
1067.0
1070.0
1072.0
1069.0
1068.0
1067.0
1070.0
1076.0
1072.0
1070.0
1067.0
1068.0
1068.0
1071.0
1068.0
1062.0
1060.0
1058.0
1062.0
1066.0
1063.0
1057.0
1052.0
1053.0
1051.0
1053.0
1047.0
1044.0
1040.0
1037.0
1039.0
1041.0
1038.0
1035.0
1030.0
1031.0
1033.0
1035.0
1033.0
1031.0
1029.0
1028.0
1030.0
1034.0
1032.0
1033.0
1028.0
1029.0
1031.0
1033.0
1037.0
1037.0
1030.0
1031.0
1038.0
1043.0
1039.0
1036.0
1033.0
1031.0
1034.0
1040.0
1042.0
1043.0
1043.0
1043.0
1045.0
1044.0
1043.0
1037.0
1035.0
1037.0
1038.0
1037.0
1037.0
1037.0
1037.0
1034.0
1033.0
1035.0
1037.0
1032.0
1026.0
1031.0
1028.0
1031.0
1028.0
1026.0
1023.0
1025.0
1025.0
1026.0
1022.0
1018.0
1016.0
1014.0
1017.0
1021.0
1016.0
1011.0
1009.0
1010.0
1011.0
1014.0
1013.0
1012.0
1006.0
1006.0
1005.0
1003.0
1000.0
998.0
997.0
998.0
999.0
1001.0
999.0
996.0
994.0
993.0
994.0
997.0
993.0
989.0
987.0
993.0
999.0
1001.0
1002.0
1001.0
1004.0
1011.0
1013.0
1018.0
1022.0
1025.0
1027.0
1039.0
1047.0
1048.0
1047.0
1046.0
1044.0
1046.0
1050.0
1047.0
1034.0
1020.0
1009.0
1001.0
999.0
998.0
990.0
980.0
969.0
969.0
971.0
970.0
968.0
963.0
958.0
961.0
964.0
966.0
967.0
963.0
961.0
961.0
962.0
963.0
954.0
944.0
942.0
956.0
989.0
1041.0
1117.0
1199.0
1271.0
1324.0
1351.0
1359.0
1348.0
1319.0
1265.0
1175.0
1062.0
964.0
914.0
919.0
939.0
945.0
943.0
943.0
944.0
945.0
940.0
941.0
938.0
942.0
944.0
943.0
941.0
941.0
945.0
947.0
946.0
943.0
939.0
941.0
944.0
944.0
943.0
939.0
940.0
942.0
942.0
947.0
946.0
946.0
942.0
944.0
948.0
949.0
950.0
947.0
945.0
947.0
951.0
950.0
952.0
949.0
946.0
949.0
952.0
954.0
950.0
947.0
946.0
949.0
953.0
957.0
958.0
957.0
958.0
959.0
960.0
965.0
965.0
965.0
963.0
965.0
974.0
982.0
986.0
993.0
1003.0
1012.0
1014.0
1011.0
998.0
984.0
978.0
973.0
977.0
982.0
989.0
994.0
996.0
1002.0
1006.0
1013.0
1013.0
1018.0
1015.0
1018.0
1020.0
1026.0
1027.0
1020.0
1016.0
1015.0
1019.0
1025.0
1025.0
1019.0
1008.0
1001.0
1003.0
1007.0
1005.0
1000.0
995.0
990.0
985.0
978.0
970.0
968.0
963.0
962.0
963.0
967.0
963.0
957.0
954.0
948.0
951.0
951.0
943.0
942.0
939.0
941.0
941.0
943.0
941.0
938.0
934.0
933.0
931.0
935.0
932.0
931.0
931.0
933.0
937.0
939.0
939.0
934.0
933.0
937.0
938.0
938.0
937.0
938.0
938.0
942.0
945.0
948.0
945.0
944.0
944.0
944.0
948.0
953.0
955.0
953.0
958.0
963.0
981.0
990.0
995.0
1004.0
1015.0
1030.0
1046.0
1058.0
1070.0
1079.0
1089.0
1091.0
1082.0
1043.0
979.0
908.0
845.0
798.0
767.0
742.0
710.0
680.0
