# Simple Text Format
# Sampling Rate (Hz):= 360.00
# Resolution:= 12
# Labels:= ECG
935.0
931.0
927.0
929.0
927.0
929.0
931.0
932.0
929.0
928.0
932.0
930.0
928.0
923.0
922.0
931.0
936.0
936.0
933.0
931.0
933.0
934.0
935.0
937.0
935.0
929.0
925.0
931.0
931.0
932.0
934.0
932.0
930.0
931.0
932.0
932.0
929.0
927.0
926.0
925.0
930.0
931.0
928.0
926.0
927.0
927.0
929.0
930.0
927.0
925.0
926.0
928.0
928.0
933.0
930.0
927.0
926.0
930.0
933.0
934.0
932.0
924.0
924.0
925.0
930.0
930.0
928.0
926.0
926.0
924.0
928.0
930.0
929.0
927.0
926.0
927.0
928.0
930.0
925.0
925.0
923.0
926.0
928.0
934.0
932.0
929.0
929.0
931.0
931.0
932.0
930.0
928.0
924.0
927.0
931.0
931.0
929.0
923.0
924.0
928.0
929.0
933.0
929.0
931.0
928.0
930.0
932.0
932.0
926.0
925.0
923.0
922.0
926.0
922.0
926.0
930.0
933.0
937.0
936.0
935.0
936.0
933.0
934.0
935.0
937.0
939.0
935.0
935.0
934.0
933.0
934.0
937.0
936.0
935.0
934.0
934.0
937.0
936.0
935.0
931.0
930.0
938.0
941.0
944.0
941.0
936.0
938.0
940.0
944.0
942.0
945.0
942.0
940.0
946.0
950.0
952.0
952.0
952.0
953.0
958.0
960.0
966.0
966.0
967.0
971.0
970.0
975.0
975.0
973.0
971.0
969.0
970.0
973.0
974.0
971.0
969.0
967.0
963.0
966.0
963.0
961.0
958.0
957.0
955.0
957.0
959.0
962.0
960.0
958.0
958.0
962.0
970.0
967.0
971.0
974.0
989.0
1002.0
1023.0
1047.0
1074.0
1095.0
1107.0
1113.0
1111.0
1103.0
1089.0
1066.0
1039.0
1003.0
967.0
940.0
931.0
934.0
942.0
948.0
947.0
944.0
943.0
943.0
944.0
947.0
948.0
943.0
941.0
938.0
940.0
943.0
943.0
944.0
939.0
940.0
941.0
942.0
942.0
944.0
942.0
941.0
944.0
946.0
948.0
944.0
939.0
943.0
945.0
947.0
946.0
946.0
947.0
945.0
946.0
952.0
952.0
949.0
948.0
946.0
951.0
953.0
954.0
954.0
953.0
954.0
958.0
960.0
960.0
959.0
957.0
956.0
960.0
961.0
966.0
964.0
966.0
965.0
968.0
972.0
973.0
971.0
973.0
975.0
979.0
986.0
990.0
994.0
993.0
993.0
994.0
995.0
1000.0
1000.0
998.0
998.0
1001.0
1005.0
1008.0
1008.0
1008.0
1008.0
1008.0
1011.0
1011.0
1010.0
1008.0
1010.0
1009.0
1014.0
1014.0
1010.0
1010.0
1007.0
1011.0
1012.0
1013.0
1010.0
1005.0
1000.0
997.0
997.0
999.0
999.0
1001.0
1001.0
1000.0
1002.0
1000.0
997.0
991.0
987.0
988.0
989.0
989.0
989.0
985.0
983.0
984.0
988.0
990.0
992.0
988.0
983.0
986.0
986.0
986.0
987.0
981.0
980.0
982.0
987.0
989.0
988.0
983.0
978.0
979.0
984.0
990.0
990.0
991.0
989.0
988.0
990.0
994.0
998.0
1000.0
1001.0
999.0
1000.0
997.0
994.0
997.0
999.0
1003.0
1011.0
1011.0
1010.0
1006.0
1003.0
1004.0
1002.0
1002.0
1001.0
996.0
996.0
999.0
1000.0
1003.0
995.0
987.0
975.0
965.0
954.0
941.0
926.0
912.0
897.0
885.0
876.0
865.0
854.0
849.0
842.0
849.0
857.0
863.0
870.0
879.0
894.0
908.0
926.0
940.0
946.0
948.0
952.0
956.0
955.0
954.0
952.0
949.0
949.0
952.0
957.0
958.0
956.0
954.0
950.0
951.0
952.0
952.0
952.0
949.0
947.0
950.0
953.0
954.0
953.0
949.0
948.0
953.0
958.0
959.0
963.0
961.0
965.0
970.0
974.0
976.0
974.0
971.0
972.0
979.0
982.0
983.0
983.0
981.0
979.0
980.0
986.0
988.0
992.0
1000.0
1005.0
1012.0
1016.0
1018.0
1015.0
1019.0
1025.0
1031.0
1035.0
1040.0
1043.0
1044.0
1049.0
1057.0
1066.0
1075.0
1078.0
1082.0
1086.0
1090.0
1096.0
1103.0
1105.0
1108.0
1110.0
1115.0
1118.0
1120.0
1119.0
1115.0
1114.0
1116.0
1120.0
1120.0
1113.0
1110.0
1110.0
1112.0
1110.0
1107.0
1102.0
1095.0
1090.0
1089.0
1086.0
1084.0
1079.0
1073.0
1069.0
1066.0
1066.0
1064.0
1053.0
1051.0
1047.0
1039.0
1039.0
1039.0
1033.0
1025.0
1023.0
1019.0
1021.0
1016.0
1016.0
1009.0
1009.0
1010.0
1012.0
1010.0
1005.0
1001.0
1000.0
1002.0
1004.0
1003.0
1001.0
995.0
994.0
998.0
998.0
997.0
993.0
990.0
989.0
987.0
990.0
988.0
985.0
983.0
983.0
983.0
984.0
985.0
983.0
981.0
979.0
978.0
980.0
976.0
973.0
969.0
965.0
967.0
973.0
971.0
970.0
964.0
960.0
955.0
956.0
957.0
957.0
958.0
960.0
960.0
959.0
959.0
956.0
951.0
948.0
949.0
952.0
952.0
951.0
945.0
943.0
943.0
946.0
943.0
942.0
938.0
935.0
942.0
944.0
947.0
944.0
939.0
939.0
941.0
945.0
943.0
942.0
937.0
939.0
940.0
942.0
941.0
938.0
935.0
935.0
937.0
938.0
935.0
935.0
937.0
937.0
939.0
940.0
942.0
938.0
936.0
934.0
937.0
937.0
936.0
935.0
931.0
933.0
935.0
935.0
934.0
934.0
933.0
933.0
933.0
938.0
940.0
937.0
933.0
927.0
930.0
933.0
938.0
938.0
937.0
932.0
935.0
937.0
936.0
934.0
933.0
931.0
933.0
932.0
936.0
933.0
930.0
929.0
931.0
934.0
936.0
934.0
930.0
930.0
930.0
933.0
935.0
932.0
931.0
929.0
931.0
933.0
933.0
934.0
931.0
929.0
932.0
933.0
933.0
932.0
930.0
931.0
932.0
936.0
936.0
936.0
931.0
929.0
932.0
933.0
934.0
932.0
931.0
930.0
932.0
933.0
934.0
932.0
931.0
928.0
928.0
930.0
935.0
934.0
930.0
929.0
931.0
934.0
935.0
934.0
932.0
928.0
928.0
932.0
935.0
933.0
932.0
934.0
934.0
935.0
934.0
934.0
930.0
930.0
930.0
931.0
929.0
930.0
927.0
929.0
935.0
941.0
940.0
937.0
934.0
932.0
934.0
938.0
939.0
936.0
935.0
931.0
931.0
936.0
940.0
939.0
933.0
933.0
933.0
936.0
938.0
938.0
937.0
939.0
940.0
939.0
938.0
938.0
941.0
940.0
944.0
945.0
944.0
944.0
941.0
943.0
950.0
955.0
959.0
957.0
955.0
953.0
958.0
963.0
964.0
966.0
972.0
974.0
977.0
984.0
987.0
985.0
980.0
978.0
979.0
984.0
983.0
980.0
971.0
969.0
965.0
968.0
967.0
965.0
960.0
959.0
959.0
961.0
959.0
959.0
958.0
956.0
960.0
962.0
965.0
966.0
962.0
963.0
965.0
973.0
983.0
991.0
1007.0
1034.0
1064.0
1095.0
1120.0
1130.0
1131.0
1130.0
1124.0
1102.0
1078.0
1037.0
994.0
957.0
942.0
943.0
952.0
949.0
941.0
940.0
941.0
943.0
943.0
940.0
938.0
935.0
934.0
937.0
937.0
936.0
930.0
930.0
931.0
932.0
935.0
932.0
928.0
926.0
927.0
929.0
928.0
929.0
924.0
927.0
928.0
928.0
933.0
931.0
929.0
928.0
930.0
931.0
933.0
932.0
927.0
925.0
927.0
932.0
933.0
935.0
931.0
929.0
932.0
937.0
938.0
938.0
937.0
936.0
936.0
941.0
944.0
943.0
941.0
942.0
946.0
950.0
950.0
952.0
951.0
952.0
956.0
957.0
960.0
960.0
959.0
960.0
965.0
972.0
976.0
977.0
976.0
974.0
979.0
983.0
985.0
985.0
987.0
989.0
994.0
999.0
1003.0
1002.0
999.0
1001.0
1003.0
1008.0
1012.0
1010.0
1008.0
1007.0
1011.0
1012.0
1017.0
1013.0
1010.0
1009.0
1008.0
1008.0
1007.0
1006.0
1002.0
999.0
998.0
1000.0
997.0
993.0
989.0
988.0
988.0
989.0
986.0
982.0
980.0
977.0
975.0
977.0
975.0
971.0
966.0
963.0
964.0
967.0
967.0
964.0
960.0
957.0
958.0
960.0
962.0
958.0
955.0
952.0
956.0
959.0
961.0
960.0
958.0
955.0
960.0
961.0
961.0
961.0
956.0
958.0
958.0
962.0
965.0
962.0
960.0
959.0
961.0
965.0
964.0
962.0
958.0
960.0
964.0
972.0
975.0
973.0
968.0
967.0
966.0
970.0
972.0
970.0
967.0
966.0
966.0
967.0
971.0
969.0
964.0
961.0
962.0
962.0
964.0
966.0
965.0
962.0
965.0
963.0
963.0
960.0
959.0
956.0
956.0
958.0
960.0
958.0
952.0
951.0
950.0
953.0
951.0
951.0
947.0
944.0
946.0
947.0
948.0
944.0
945.0
943.0
941.0
944.0
942.0
945.0
941.0
940.0
941.0
941.0
940.0
940.0
938.0
936.0
937.0
939.0
942.0
940.0
938.0
938.0
943.0
946.0
946.0
944.0
942.0
942.0
944.0
947.0
949.0
949.0
948.0
949.0
954.0
959.0
963.0
965.0
964.0
968.0
973.0
975.0
977.0
977.0
975.0
973.0
975.0
975.0
974.0
970.0
966.0
961.0
960.0
960.0
954.0
949.0
947.0
944.0
943.0
945.0
946.0
942.0
941.0
940.0
943.0
946.0
950.0
948.0
946.0
946.0
949.0
951.0
955.0
959.0
963.0
973.0
992.0
1021.0
1060.0
1092.0
1117.0
1124.0
1135.0
1134.0
1127.0
1105.0
1069.0
1023.0
976.0
940.0
921.0
923.0
924.0
925.0
925.0
924.0
927.0
924.0
924.0
920.0
923.0
926.0
927.0
926.0
925.0
922.0
922.0
926.0
928.0
928.0
925.0
924.0
925.0
926.0
926.0
926.0
924.0
924.0
926.0
927.0
929.0
926.0
927.0
923.0
922.0
928.0
932.0
932.0
929.0
930.0
929.0
933.0
936.0
936.0
935.0
932.0
935.0
939.0
942.0
940.0
943.0
942.0
946.0
949.0
951.0
952.0
949.0
950.0
955.0
960.0
962.0
961.0
964.0
964.0
968.0
972.0
977.0
980.0
977.0
981.0
985.0
990.0
992.0
995.0
997.0
999.0
1004.0
1011.0
1015.0
1016.0
1011.0
1014.0
1018.0
1020.0
1023.0
1022.0
1022.0
1022.0
1023.0
1026.0
1025.0
1025.0
1022.0
1018.0
1018.0
1018.0
1018.0
1015.0
1008.0
1002.0
997.0
997.0
996.0
994.0
988.0
985.0
979.0
980.0
983.0
979.0
975.0
971.0
971.0
970.0
969.0
965.0
961.0
960.0
959.0
960.0
961.0
959.0
953.0
950.0
950.0
953.0
957.0
957.0
956.0
952.0
951.0
953.0
955.0
951.0
947.0
950.0
951.0
953.0
953.0
952.0
951.0
951.0
953.0
956.0
958.0
957.0
957.0
957.0
959.0
961.0
964.0
965.0
963.0
962.0
969.0
969.0
973.0
967.0
971.0
969.0
973.0
975.0
978.0
976.0
974.0
973.0
975.0
976.0
978.0
977.0
974.0
971.0
975.0
976.0
977.0
976.0
973.0
973.0
973.0
974.0
977.0
973.0
968.0
968.0
967.0
970.0
970.0
969.0
966.0
963.0
965.0
965.0
968.0
966.0
964.0
962.0
960.0
966.0
967.0
966.0
962.0
959.0
963.0
963.0
963.0
961.0
960.0
959.0
960.0
963.0
967.0
966.0
963.0
963.0
965.0
968.0
970.0
971.0
971.0
972.0
975.0
982.0
987.0
990.0
990.0
993.0
992.0
996.0
998.0
996.0
995.0
991.0
992.0
992.0
988.0
982.0
977.0
970.0
967.0
970.0
971.0
963.0
962.0
961.0
963.0
965.0
966.0
966.0
964.0
961.0
965.0
971.0
969.0
970.0
968.0
970.0
974.0
981.0
995.0
1012.0
1038.0
1071.0
1111.0
1138.0
1156.0
1163.0
1157.0
1144.0
1120.0
1081.0
1030.0
980.0
950.0
941.0
951.0
958.0
955.0
950.0
946.0
947.0
945.0
949.0
949.0
946.0
941.0
942.0
940.0
945.0
945.0
942.0
940.0
939.0
938.0
941.0
943.0
941.0
940.0
938.0
935.0
942.0
944.0
943.0
939.0
938.0
940.0
944.0
945.0
948.0
944.0
943.0
942.0
947.0
948.0
947.0
946.0
946.0
949.0
951.0
954.0
954.0
952.0
951.0
954.0
957.0
963.0
961.0
960.0
960.0
964.0
969.0
972.0
974.0
972.0
975.0
980.0
983.0
987.0
991.0
991.0
992.0
995.0
998.0
1007.0
1008.0
1008.0
1010.0
1015.0
1018.0
1026.0
1029.0
1026.0
1028.0
1033.0
1036.0
1041.0
1042.0
1041.0
1041.0
1044.0
1048.0
1049.0
1046.0
1042.0
1037.0
1035.0
1037.0
1037.0
1033.0
1026.0
1022.0
1020.0
1019.0
1017.0
1010.0
1009.0
1004.0
1002.0
1001.0
1001.0
997.0
991.0
987.0
986.0
986.0
987.0
985.0
981.0
977.0
978.0
977.0
977.0
976.0
972.0
970.0
971.0
970.0
971.0
969.0
966.0
965.0
963.0
966.0
969.0
967.0
965.0
965.0
966.0
971.0
971.0
971.0
969.0
967.0
969.0
972.0
975.0
975.0
971.0
969.0
970.0
976.0
980.0
977.0
974.0
977.0
980.0
984.0
986.0
986.0
983.0
987.0
989.0
995.0
997.0
1001.0
1006.0
1010.0
1018.0
1026.0
1033.0
1038.0
1041.0
1049.0
1055.0
1061.0
1058.0
1045.0
1032.0
1019.0
1005.0
988.0
968.0
938.0
907.0
876.0
854.0
846.0
847.0
849.0
850.0
848.0
848.0
849.0
852.0
850.0
851.0
854.0
859.0
866.0
873.0
881.0
886.0
887.0
898.0
908.0
918.0
919.0
921.0
923.0
933.0
937.0
943.0
950.0
951.0
952.0
955.0
959.0
964.0
962.0
962.0
963.0
964.0
969.0
974.0
971.0
971.0
972.0
975.0
977.0
980.0
981.0
979.0
979.0
982.0
983.0
988.0
987.0
983.0
985.0
990.0
997.0
998.0
1000.0
1003.0
1003.0
1008.0
1013.0
1018.0
1016.0
1019.0
1025.0
1029.0
1038.0
1043.0
1046.0
1050.0
1054.0
1063.0
1069.0
1075.0
1080.0
1081.0
1086.0
1091.0
1097.0
1102.0
1103.0
1104.0
1104.0
1108.0
1111.0
1112.0
1111.0
1106.0
1106.0
1107.0
1106.0
1104.0
1099.0
1098.0
1095.0
1093.0
1091.0
1089.0
1084.0
1076.0
1070.0
1069.0
1065.0
1066.0
1060.0
1052.0
1048.0
1049.0
1048.0
1044.0
1045.0
1037.0
1034.0
1033.0
1036.0
1034.0
1029.0
1026.0
1028.0
1028.0
1029.0
1036.0
1034.0
1029.0
1031.0
1037.0
1043.0
1050.0
1053.0
1058.0
1064.0
1074.0
1086.0
1097.0
1106.0
1115.0
1129.0
1144.0
1159.0
1179.0
1194.0
1208.0
1221.0
1233.0
1245.0
1251.0
1249.0
1240.0
1231.0
1216.0
1194.0
1162.0
1118.0
1074.0
1028.0
997.0
984.0
980.0
973.0
958.0
949.0
941.0
939.0
935.0
928.0
921.0
909.0
907.0
906.0
904.0
899.0
892.0
885.0
882.0
880.0
877.0
874.0
865.0
861.0
862.0
860.0
861.0
859.0
853.0
850.0
851.0
851.0
852.0
850.0
845.0
842.0
843.0
844.0
841.0
840.0
836.0
833.0
831.0
831.0
830.0
827.0
822.0
816.0
813.0
812.0
811.0
806.0
802.0
798.0
798.0
796.0
794.0
792.0
789.0
787.0
784.0
787.0
787.0
785.0
785.0
785.0
785.0
788.0
795.0
797.0
795.0
798.0
801.0
808.0
812.0
815.0
814.0
818.0
824.0
831.0
839.0
841.0
845.0
848.0
852.0
861.0
865.0
870.0
871.0
874.0
878.0
885.0
892.0
893.0
893.0
896.0
901.0
907.0
913.0
916.0
918.0
918.0
921.0
927.0
933.0
935.0
933.0
932.0
934.0
937.0
943.0
945.0
944.0
944.0
947.0
950.0
955.0
953.0
953.0
952.0
953.0
956.0
958.0
960.0
957.0
956.0
956.0
960.0
961.0
960.0
956.0
954.0
957.0
959.0
961.0
953.0
956.0
953.0
954.0
956.0
960.0
960.0
955.0
953.0
951.0
954.0
958.0
955.0
952.0
945.0
949.0
952.0
954.0
952.0
951.0
949.0
950.0
948.0
948.0
949.0
948.0
945.0
944.0
947.0
951.0
949.0
947.0
946.0
945.0
948.0
946.0
949.0
946.0
943.0
946.0
948.0
950.0
947.0
947.0
943.0
944.0
945.0
949.0
949.0
944.0
940.0
944.0
944.0
946.0
945.0
944.0
939.0
943.0
947.0
948.0
947.0
945.0
944.0
943.0
947.0
948.0
946.0
943.0
942.0
944.0
947.0
949.0
945.0
945.0
943.0
943.0
947.0
949.0
945.0
945.0
944.0
944.0
946.0
947.0
945.0
943.0
942.0
943.0
946.0
949.0
947.0
942.0
943.0
943.0
946.0
950.0
947.0
941.0
940.0
944.0
947.0
948.0
946.0
944.0
942.0
944.0
949.0
952.0
950.0
948.0
947.0
947.0
950.0
954.0
952.0
948.0
946.0
948.0
953.0
952.0
950.0
946.0
946.0
947.0
953.0
955.0
954.0
948.0
950.0
950.0
953.0
953.0
953.0
950.0
946.0
950.0
950.0
952.0
950.0
950.0
949.0
953.0
954.0
956.0
957.0
952.0
950.0
952.0
956.0
957.0
956.0
954.0
953.0
952.0
956.0
957.0
955.0
954.0
954.0
956.0
958.0
960.0
959.0
954.0
956.0
955.0
958.0
961.0
959.0
956.0
954.0
954.0
959.0
960.0
959.0
955.0
956.0
953.0
959.0
963.0
961.0
959.0
958.0
960.0
963.0
966.0
964.0
962.0
957.0
961.0
962.0
965.0
961.0
961.0
961.0
963.0
965.0
967.0
966.0
965.0
959.0
961.0
967.0
965.0
966.0
967.0
964.0
965.0
969.0
967.0
969.0
965.0
967.0
968.0
969.0
972.0
971.0
968.0
967.0
968.0
971.0
972.0
973.0
971.0
967.0
974.0
975.0
978.0
978.0
976.0
976.0
980.0
984.0
988.0
988.0
987.0
988.0
992.0
997.0
1008.0
1008.0
1011.0
1011.0
1013.0
1016.0
1017.0
1017.0
1013.0
1009.0
1009.0
1006.0
1005.0
1000.0
996.0
992.0
989.0
993.0
990.0
988.0
984.0
985.0
989.0
993.0
995.0
995.0
992.0
994.0
995.0
1002.0
1006.0
1010.0
1018.0
1033.0
1056.0
1088.0
1128.0
1157.0
1175.0
1185.0
1188.0
1186.0
1173.0
1144.0
1104.0
1055.0
1009.0
982.0
974.0
976.0
978.0
977.0
975.0
975.0
979.0
975.0
973.0
972.0
971.0
971.0
970.0
971.0
969.0
967.0
964.0
966.0
970.0
969.0
967.0
963.0
964.0
968.0
969.0
967.0
966.0
965.0
965.0
968.0
969.0
968.0
966.0
964.0
968.0
971.0
970.0
968.0
969.0
967.0
970.0
971.0
976.0
972.0
974.0
975.0
974.0
978.0
980.0
980.0
975.0
975.0
979.0
979.0
982.0
985.0
984.0
983.0
983.0
988.0
991.0
991.0
991.0
991.0
994.0
1001.0
1003.0
1004.0
1002.0
1001.0
1005.0
1010.0
1009.0
1012.0
1011.0
1010.0
1013.0
1016.0
1021.0
1020.0
1015.0
1016.0
1016.0
1021.0
1024.0
1023.0
1020.0
1019.0
1020.0
1023.0
1025.0
1024.0
1021.0
1017.0
1020.0
1020.0
1020.0
1020.0
1020.0
1016.0
1018.0
1014.0
1016.0
1013.0
1013.0
1012.0
1011.0
1014.0
1016.0
1011.0
1008.0
1005.0
1007.0
1009.0
1008.0
1003.0
1005.0
1002.0
1003.0
1006.0
1006.0
1003.0
999.0
1001.0
1001.0
1003.0
1007.0
1002.0
1000.0
998.0
1000.0
1003.0
1003.0
1003.0
1001.0
1001.0
1003.0
1005.0
1009.0
1006.0
1003.0
1004.0
1007.0
1010.0
1012.0
1009.0
1007.0
1006.0
1010.0
1012.0
1017.0
1016.0
1013.0
1013.0
1014.0
1018.0
1017.0
1018.0
1018.0
1018.0
1020.0
1021.0
1022.0
1017.0
1012.0
1009.0
1009.0
1008.0
1008.0
1004.0
993.0
982.0
969.0
957.0
945.0
932.0
921.0
914.0
910.0
901.0
901.0
895.0
889.0
891.0
893.0
899.0
908.0
916.0
924.0
931.0
946.0
964.0
981.0
993.0
1001.0
1000.0
1002.0
1000.0
996.0
988.0
981.0
976.0
972.0
972.0
974.0
970.0
966.0
960.0
958.0
959.0
960.0
956.0
954.0
951.0
949.0
956.0
957.0
957.0
953.0
951.0
952.0
955.0
960.0
961.0
960.0
962.0
964.0
970.0
973.0
971.0
973.0
974.0
977.0
978.0
984.0
985.0
984.0
984.0
988.0
990.0
996.0
999.0
999.0
1002.0
1005.0
1012.0
1017.0
1020.0
1019.0
1021.0
1027.0
1033.0
1038.0
1044.0
1048.0
1051.0
1056.0
1063.0
1067.0
1069.0
1077.0
1078.0
1084.0
1092.0
1101.0
1100.0
1102.0
1106.0
1108.0
1115.0
1121.0
1121.0
1115.0
1117.0
1120.0
1121.0
1126.0
1123.0
1118.0
1117.0
1116.0
1116.0
1116.0
1110.0
1104.0
1098.0
1099.0
1097.0
1095.0
1090.0
1081.0
1075.0
1072.0
1070.0
1073.0
1067.0
1058.0
1052.0
1049.0
1049.0
1045.0
1041.0
1036.0
1031.0
1027.0
1024.0
1025.0
1023.0
1019.0
1014.0
1013.0
1012.0
1015.0
1011.0
1008.0
1005.0
1004.0
1005.0
1005.0
1003.0
1001.0
998.0
999.0
1000.0
1000.0
998.0
993.0
991.0
992.0
992.0
992.0
994.0
986.0
985.0
985.0
985.0
989.0
986.0
981.0
980.0
979.0
981.0
982.0
980.0
975.0
972.0
972.0
976.0
978.0
975.0
973.0
969.0
967.0
972.0
973.0
969.0
968.0
966.0
965.0
966.0
965.0
965.0
960.0
955.0
959.0
957.0
960.0
959.0
956.0
952.0
952.0
953.0
954.0
953.0
949.0
947.0
949.0
951.0
952.0
948.0
949.0
946.0
948.0
952.0
953.0
951.0
951.0
948.0
948.0
952.0
953.0
951.0
946.0
943.0
948.0
947.0
947.0
946.0
944.0
940.0
944.0
946.0
949.0
947.0
943.0
941.0
943.0
946.0
947.0
945.0
945.0
943.0
944.0
945.0
949.0
949.0
945.0
943.0
948.0
946.0
946.0
945.0
943.0
940.0
943.0
945.0
947.0
943.0
940.0
940.0
940.0
943.0
946.0
944.0
942.0
939.0
940.0
943.0
947.0
945.0
940.0
938.0
942.0
942.0
947.0
946.0
942.0
940.0
942.0
942.0
946.0
944.0
942.0
942.0
942.0
941.0
947.0
946.0
943.0
942.0
942.0
945.0
946.0
944.0
941.0
937.0
941.0
944.0
945.0
945.0
943.0
938.0
940.0
945.0
944.0
943.0
941.0
939.0
939.0
943.0
942.0
943.0
942.0
940.0
940.0
944.0
947.0
945.0
941.0
938.0
942.0
945.0
947.0
947.0
944.0
942.0
943.0
947.0
950.0
948.0
944.0
942.0
943.0
946.0
948.0
946.0
943.0
942.0
940.0
943.0
944.0
940.0
937.0
938.0
938.0
943.0
945.0
945.0
944.0
939.0
939.0
942.0
947.0
943.0
943.0
943.0
942.0
944.0
946.0
946.0
940.0
942.0
943.0
948.0
948.0
947.0
944.0
940.0
939.0
943.0
949.0
947.0
943.0
942.0
942.0
947.0
948.0
947.0
946.0
944.0
946.0
948.0
950.0
948.0
946.0
941.0
945.0
945.0
950.0
949.0
947.0
948.0
948.0
951.0
954.0
951.0
953.0
949.0
952.0
959.0
960.0
961.0
960.0
961.0
965.0
969.0
973.0
976.0
975.0
976.0
985.0
988.0
995.0
995.0
994.0
994.0
994.0
996.0
999.0
997.0
994.0
990.0
988.0
987.0
984.0
978.0
972.0
970.0
966.0
966.0
966.0
962.0
957.0
956.0
958.0
960.0
960.0
959.0
956.0
952.0
956.0
959.0
963.0
964.0
961.0
957.0
964.0
979.0
1004.0
1037.0
1074.0
1115.0
1146.0
1171.0
1183.0
1187.0
1180.0
1160.0
1128.0
1085.0
1032.0
979.0
943.0
934.0
942.0
949.0
948.0
941.0
937.0
936.0
937.0
938.0
937.0
932.0
929.0
927.0
926.0
927.0
930.0
930.0
925.0
923.0
923.0
927.0
927.0
926.0
922.0
922.0
922.0
924.0
925.0
926.0
919.0
919.0
919.0
921.0
924.0
924.0
924.0
923.0
919.0
926.0
929.0
926.0
923.0
921.0
925.0
928.0
933.0
931.0
928.0
925.0
927.0
929.0
935.0
938.0
930.0
930.0
933.0
936.0
944.0
943.0
942.0
943.0
942.0
946.0
950.0
950.0
951.0
949.0
956.0
958.0
961.0
961.0
956.0
960.0
961.0
968.0
970.0
968.0
970.0
971.0
974.0
977.0
983.0
983.0
982.0
981.0
981.0
986.0
989.0
992.0
989.0
987.0
988.0
990.0
995.0
994.0
990.0
990.0
990.0
991.0
993.0
988.0
983.0
982.0
982.0
983.0
987.0
983.0
982.0
978.0
978.0
978.0
979.0
979.0
971.0
968.0
969.0
970.0
971.0
969.0
968.0
963.0
966.0
968.0
970.0
966.0
962.0
962.0
960.0
965.0
965.0
965.0
961.0
962.0
965.0
966.0
971.0
968.0
967.0
966.0
970.0
971.0
972.0
968.0
967.0
963.0
967.0
971.0
973.0
971.0
970.0
967.0
971.0
971.0
974.0
975.0
972.0
971.0
971.0
974.0
977.0
976.0
969.0
969.0
972.0
971.0
972.0
969.0
969.0
967.0
966.0
969.0
967.0
969.0
967.0
966.0
962.0
964.0
966.0
965.0
958.0
958.0
957.0
960.0
961.0
960.0
957.0
955.0
955.0
958.0
960.0
957.0
951.0
947.0
947.0
949.0
950.0
950.0
944.0
944.0
947.0
948.0
948.0
947.0
945.0
940.0
941.0
945.0
945.0
944.0
942.0
939.0
940.0
944.0
946.0
944.0
942.0
937.0
940.0
943.0
942.0
940.0
935.0
936.0
933.0
936.0
941.0
939.0
939.0
936.0
934.0
938.0
940.0
939.0
937.0
937.0
942.0
947.0
952.0
952.0
951.0
949.0
953.0
958.0
960.0
962.0
964.0
966.0
971.0
977.0
978.0
978.0
978.0
975.0
980.0
980.0
981.0
976.0
968.0
962.0
956.0
959.0
960.0
954.0
949.0
943.0
941.0
943.0
944.0
943.0
941.0
938.0
941.0
943.0
946.0
948.0
944.0
943.0
945.0
949.0
948.0
950.0
955.0
961.0
978.0
1007.0
1043.0
1082.0
1122.0
1152.0
1169.0
1181.0
1183.0
1173.0
1146.0
1105.0
1057.0
1002.0
957.0
933.0
931.0
933.0
934.0
932.0
930.0
927.0
927.0
926.0
923.0
925.0
925.0
923.0
922.0
919.0
918.0
921.0
920.0
919.0
918.0
917.0
918.0
920.0
922.0
919.0
916.0
917.0
915.0
918.0
922.0
922.0
916.0
917.0
918.0
922.0
926.0
923.0
920.0
917.0
921.0
923.0
927.0
926.0
923.0
924.0
924.0
926.0
928.0
930.0
929.0
930.0
930.0
936.0
939.0
938.0
935.0
934.0
938.0
942.0
947.0
949.0
949.0
950.0
953.0
957.0
957.0
956.0
957.0
955.0
962.0
969.0
974.0
972.0
975.0
976.0
978.0
982.0
985.0
988.0
987.0
987.0
992.0
994.0
998.0
1002.0
1000.0
1000.0
1001.0
1005.0
1008.0
1009.0
1008.0
1002.0
1006.0
1007.0
1011.0
1007.0
1003.0
1002.0
1002.0
1000.0
1002.0
1001.0
994.0
989.0
985.0
985.0
988.0
983.0
978.0
970.0
966.0
965.0
965.0
962.0
960.0
957.0
952.0
954.0
955.0
952.0
948.0
944.0
946.0
946.0
946.0
945.0
946.0
944.0
944.0
945.0
947.0
944.0
945.0
940.0
943.0
947.0
949.0
948.0
944.0
944.0
943.0
951.0
953.0
953.0
951.0
950.0
950.0
951.0
957.0
954.0
953.0
951.0
954.0
959.0
958.0
957.0
957.0
958.0
961.0
965.0
966.0
967.0
966.0
962.0
963.0
965.0
968.0
969.0
964.0
962.0
963.0
965.0
969.0
968.0
961.0
963.0
963.0
965.0
968.0
964.0
959.0
955.0
955.0
958.0
956.0
956.0
956.0
955.0
954.0
957.0
961.0
958.0
953.0
950.0
950.0
952.0
954.0
951.0
949.0
950.0
949.0
951.0
951.0
950.0
950.0
946.0
942.0
946.0
948.0
947.0
946.0
944.0
945.0
949.0
946.0
948.0
946.0
944.0
943.0
945.0
946.0
946.0
949.0
948.0
948.0
954.0
953.0
954.0
953.0
955.0
957.0
963.0
967.0
969.0
965.0
967.0
970.0
979.0
988.0
989.0
988.0
985.0
986.0
985.0
992.0
991.0
989.0
980.0
977.0
974.0
972.0
968.0
962.0
956.0
957.0
958.0
957.0
955.0
952.0
950.0
951.0
952.0
954.0
953.0
953.0
949.0
951.0
948.0
953.0
954.0
955.0
954.0
963.0
983.0
1014.0
1052.0
1096.0
1133.0
1164.0
1185.0
1193.0
1188.0
1168.0
1137.0
1085.0
1030.0
980.0
949.0
943.0
946.0
947.0
946.0
942.0
940.0
935.0
933.0
930.0
933.0
932.0
931.0
929.0
925.0
921.0
925.0
932.0
929.0
926.0
921.0
922.0
925.0
927.0
927.0
925.0
921.0
924.0
925.0
928.0
926.0
923.0
920.0
923.0
925.0
930.0
933.0
930.0
925.0
925.0
928.0
929.0
927.0
932.0
931.0
933.0
937.0
940.0
938.0
941.0
936.0
940.0
945.0
946.0
948.0
950.0
950.0
952.0
954.0
960.0
960.0
961.0
963.0
966.0
973.0
977.0
975.0
976.0
973.0
975.0
981.0
987.0
988.0
989.0
991.0
993.0
998.0
1002.0
1006.0
1005.0
1004.0
1004.0
1008.0
1012.0
1015.0
1013.0
1011.0
1013.0
1014.0
1014.0
1015.0
1011.0
1006.0
1006.0
1002.0
1006.0
1002.0
999.0
989.0
986.0
986.0
985.0
981.0
979.0
974.0
972.0
973.0
973.0
963.0
961.0
957.0
956.0
956.0
959.0
958.0
954.0
950.0
947.0
950.0
952.0
950.0
943.0
944.0
945.0
946.0
949.0
950.0
946.0
944.0
948.0
950.0
955.0
953.0
952.0
948.0
946.0
950.0
954.0
951.0
946.0
946.0
949.0
952.0
955.0
954.0
950.0
950.0
949.0
953.0
956.0
957.0
957.0
953.0
956.0
960.0
961.0
959.0
956.0
953.0
957.0
960.0
962.0
962.0
961.0
955.0
956.0
958.0
963.0
961.0
957.0
957.0
957.0
957.0
960.0
956.0
955.0
952.0
952.0
958.0
955.0
954.0
952.0
947.0
948.0
949.0
954.0
953.0
950.0
947.0
945.0
946.0
949.0
946.0
945.0
944.0
945.0
948.0
952.0
949.0
946.0
942.0
944.0
947.0
951.0
949.0
947.0
944.0
945.0
949.0
949.0
949.0
945.0
943.0
943.0
945.0
949.0
950.0
945.0
946.0
946.0
951.0
953.0
952.0
953.0
954.0
958.0
963.0
967.0
