# Simple Text Format
# Sampling Rate (Hz):= 360.00
# Resolution:= 12
# Labels:= ECG
904.0
907.0
908.0
910.0
910.0
904.0
906.0
907.0
908.0
907.0
908.0
904.0
903.0
902.0
907.0
907.0
908.0
906.0
903.0
901.0
903.0
907.0
905.0
906.0
903.0
904.0
908.0
909.0
910.0
909.0
908.0
908.0
910.0
912.0
912.0
908.0
910.0
910.0
910.0
913.0
910.0
911.0
910.0
912.0
917.0
918.0
919.0
913.0
912.0
912.0
916.0
919.0
916.0
915.0
916.0
919.0
922.0
926.0
924.0
926.0
929.0
934.0
940.0
944.0
947.0
947.0
950.0
956.0
964.0
980.0
987.0
989.0
989.0
991.0
992.0
995.0
989.0
986.0
983.0
977.0
970.0
958.0
951.0
948.0
945.0
943.0
942.0
939.0
936.0
933.0
932.0
932.0
933.0
933.0
929.0
925.0
922.0
926.0
930.0
931.0
928.0
926.0
922.0
915.0
911.0
921.0
952.0
1011.0
1103.0
1204.0
1294.0
1352.0
1382.0
1391.0
1384.0
1353.0
1281.0
1165.0
1037.0
909.0
839.0
860.0
896.0
908.0
901.0
895.0
900.0
911.0
920.0
921.0
917.0
910.0
908.0
909.0
911.0
915.0
911.0
908.0
910.0
912.0
915.0
914.0
912.0
907.0
912.0
915.0
918.0
918.0
916.0
916.0
916.0
919.0
917.0
918.0
919.0
916.0
915.0
921.0
927.0
928.0
928.0
926.0
926.0
930.0
934.0
936.0
933.0
932.0
932.0
934.0
940.0
942.0
944.0
943.0
944.0
949.0
950.0
954.0
952.0
955.0
956.0
960.0
966.0
968.0
973.0
975.0
976.0
981.0
985.0
991.0
993.0
992.0
994.0
1002.0
1010.0
1015.0
1020.0
1021.0
1024.0
1031.0
1040.0
1049.0
1053.0
1052.0
1055.0
1064.0
1068.0
1078.0
1082.0
1080.0
1082.0
1085.0
1086.0
1085.0
1082.0
1078.0
1076.0
1071.0
1071.0
1065.0
1059.0
1052.0
1049.0
1044.0
1043.0
1036.0
1027.0
1018.0
1011.0
1009.0
1008.0
1003.0
997.0
990.0
984.0
982.0
980.0
977.0
970.0
962.0
960.0
962.0
962.0
966.0
963.0
958.0
948.0
945.0
945.0
946.0
941.0
940.0
937.0
940.0
943.0
941.0
937.0
933.0
930.0
937.0
937.0
937.0
933.0
934.0
934.0
935.0
937.0
941.0
942.0
941.0
941.0
944.0
947.0
950.0
948.0
946.0
942.0
949.0
959.0
957.0
956.0
952.0
954.0
955.0
958.0
961.0
959.0
958.0
955.0
959.0
963.0
961.0
961.0
962.0
960.0
959.0
960.0
960.0
962.0
957.0
955.0
958.0
961.0
958.0
957.0
952.0
953.0
954.0
953.0
956.0
949.0
949.0
945.0
948.0
951.0
952.0
953.0
949.0
946.0
948.0
946.0
945.0
945.0
944.0
943.0
942.0
944.0
943.0
942.0
940.0
940.0
941.0
941.0
943.0
943.0
940.0
939.0
939.0
940.0
942.0
942.0
938.0
937.0
940.0
940.0
940.0
941.0
940.0
941.0
942.0
944.0
944.0
942.0
938.0
937.0
940.0
946.0
945.0
942.0
940.0
940.0
941.0
944.0
943.0
944.0
939.0
934.0
936.0
940.0
940.0
938.0
936.0
938.0
939.0
942.0
944.0
944.0
940.0
936.0
939.0
947.0
952.0
951.0
952.0
953.0
962.0
966.0
971.0
973.0
977.0
986.0
996.0
1002.0
1006.0
1005.0
1004.0
1003.0
1006.0
1007.0
1004.0
996.0
984.0
974.0
970.0
969.0
963.0
959.0
949.0
948.0
943.0
943.0
945.0
937.0
937.0
937.0
938.0
940.0
939.0
937.0
934.0
934.0
933.0
930.0
920.0
908.0
905.0
919.0
966.0
1037.0
1136.0
1231.0
1309.0
1357.0
1392.0
1403.0
1397.0
1360.0
1291.0
1174.0
1046.0
921.0
877.0
893.0
920.0
928.0
922.0
922.0
927.0
928.0
926.0
925.0
924.0
924.0
927.0
927.0
922.0
918.0
923.0
926.0
927.0
923.0
920.0
917.0
922.0
924.0
927.0
925.0
923.0
923.0
925.0
927.0
931.0
928.0
927.0
928.0
931.0
933.0
932.0
927.0
928.0
927.0
930.0
935.0
938.0
939.0
936.0
934.0
938.0
938.0
943.0
941.0
941.0
942.0
945.0
947.0
951.0
952.0
953.0
952.0
959.0
964.0
963.0
962.0
961.0
965.0
967.0
975.0
974.0
977.0
976.0
980.0
983.0
994.0
1001.0
1002.0
1001.0
1003.0
1008.0
1017.0
1022.0
1027.0
1030.0
1033.0
1039.0
1049.0
1053.0
1055.0
1058.0
1063.0
1071.0
1076.0
1082.0
1082.0
1078.0
1083.0
1085.0
1085.0
1089.0
1088.0
1083.0
1081.0
1078.0
1077.0
1074.0
1066.0
1059.0
1053.0
1047.0
1050.0
1045.0
1037.0
1028.0
1018.0
1013.0
1015.0
1010.0
1003.0
995.0
991.0
992.0
990.0
989.0
988.0
981.0
973.0
968.0
967.0
966.0
968.0
965.0
962.0
960.0
961.0
961.0
961.0
956.0
951.0
954.0
956.0
959.0
956.0
953.0
953.0
952.0
954.0
959.0
958.0
951.0
950.0
952.0
957.0
957.0
960.0
959.0
957.0
959.0
966.0
967.0
966.0
962.0
957.0
958.0
961.0
962.0
962.0
962.0
962.0
962.0
965.0
965.0
965.0
964.0
963.0
966.0
966.0
964.0
962.0
959.0
958.0
962.0
967.0
966.0
970.0
966.0
965.0
966.0
967.0
967.0
964.0
960.0
959.0
960.0
963.0
964.0
960.0
959.0
958.0
959.0
958.0
960.0
959.0
956.0
956.0
954.0
959.0
958.0
955.0
952.0
951.0
953.0
956.0
956.0
953.0
953.0
953.0
951.0
953.0
953.0
953.0
950.0
947.0
947.0
949.0
951.0
952.0
947.0
948.0
946.0
945.0
946.0
943.0
945.0
945.0
948.0
950.0
948.0
944.0
946.0
944.0
949.0
949.0
950.0
946.0
941.0
942.0
939.0
946.0
946.0
948.0
945.0
943.0
946.0
947.0
948.0
947.0
945.0
945.0
946.0
950.0
952.0
945.0
946.0
943.0
944.0
947.0
947.0
945.0
942.0
941.0
946.0
947.0
943.0
943.0
942.0
942.0
946.0
950.0
950.0
950.0
951.0
950.0
956.0
963.0
967.0
969.0
969.0
973.0
980.0
994.0
1004.0
1011.0
1007.0
1004.0
1006.0
1012.0
1017.0
1014.0
1008.0
1000.0
992.0
987.0
982.0
975.0
967.0
960.0
959.0
959.0
960.0
956.0
948.0
941.0
937.0
939.0
939.0
937.0
940.0
942.0
940.0
937.0
932.0
924.0
922.0
924.0
923.0
920.0
915.0
915.0
924.0
956.0
1017.0
1096.0
1183.0
1263.0
1320.0
1358.0
1379.0
1383.0
1360.0
1307.0
1211.0
1089.0
961.0
880.0
870.0
898.0
916.0
921.0
917.0
918.0
923.0
924.0
922.0
923.0
923.0
924.0
919.0
918.0
915.0
913.0
914.0
918.0
920.0
915.0
911.0
914.0
916.0
916.0
917.0
911.0
909.0
910.0
914.0
918.0
920.0
917.0
913.0
913.0
918.0
922.0
925.0
921.0
915.0
914.0
917.0
921.0
924.0
924.0
920.0
923.0
925.0
926.0
928.0
926.0
928.0
927.0
930.0
933.0
937.0
938.0
938.0
937.0
938.0
942.0
946.0
945.0
945.0
945.0
949.0
954.0
957.0
958.0
954.0
954.0
957.0
962.0
964.0
968.0
968.0
972.0
974.0
979.0
983.0
984.0
988.0
993.0
996.0
1003.0
1008.0
1011.0
1013.0
1018.0
1024.0
1032.0
1036.0
1038.0
1042.0
1045.0
1050.0
1055.0
1059.0
1058.0
1058.0
1057.0
1062.0
1064.0
1065.0
1064.0
1059.0
1052.0
1052.0
1047.0
1046.0
1043.0
1036.0
1029.0
1027.0
1022.0
1018.0
1011.0
1002.0
999.0
997.0
993.0
990.0
985.0
979.0
975.0
973.0
972.0
975.0
969.0
963.0
957.0
956.0
957.0
957.0
955.0
951.0
948.0
944.0
945.0
943.0
938.0
935.0
935.0
936.0
939.0
938.0
935.0
931.0
933.0
933.0
937.0
936.0
933.0
929.0
925.0
925.0
934.0
937.0
933.0
932.0
927.0
930.0
932.0
936.0
935.0
933.0
928.0
927.0
930.0
930.0
931.0
927.0
929.0
931.0
937.0
936.0
936.0
933.0
933.0
935.0
935.0
938.0
935.0
933.0
933.0
934.0
937.0
936.0
934.0
938.0
936.0
936.0
938.0
937.0
935.0
930.0
927.0
929.0
931.0
932.0
930.0
931.0
925.0
930.0
930.0
927.0
925.0
923.0
923.0
923.0
923.0
926.0
922.0
920.0
915.0
916.0
916.0
917.0
915.0
913.0
913.0
916.0
919.0
917.0
913.0
908.0
909.0
912.0
914.0
913.0
910.0
903.0
900.0
906.0
909.0
911.0
911.0
908.0
907.0
910.0
911.0
913.0
911.0
909.0
909.0
909.0
915.0
917.0
913.0
910.0
908.0
907.0
907.0
909.0
907.0
907.0
907.0
907.0
909.0
909.0
910.0
907.0
905.0
906.0
910.0
913.0
910.0
906.0
908.0
909.0
913.0
915.0
913.0
911.0
912.0
913.0
915.0
918.0
918.0
918.0
918.0
922.0
925.0
926.0
928.0
930.0
933.0
941.0
951.0
962.0
966.0
968.0
966.0
965.0
970.0
975.0
974.0
969.0
962.0
957.0
954.0
949.0
945.0
937.0
930.0
925.0
919.0
918.0
916.0
911.0
910.0
912.0
915.0
917.0
914.0
916.0
914.0
911.0
911.0
914.0
914.0
907.0
905.0
898.0
896.0
896.0
899.0
922.0
971.0
1049.0
1150.0
1247.0
1317.0
1352.0
1372.0
1378.0
1359.0
1310.0
1219.0
1091.0
963.0
852.0
839.0
869.0
889.0
888.0
883.0
888.0
895.0
902.0
904.0
902.0
901.0
902.0
903.0
899.0
900.0
899.0
900.0
899.0
905.0
909.0
905.0
902.0
902.0
905.0
908.0
910.0
908.0
905.0
899.0
904.0
906.0
906.0
909.0
909.0
908.0
910.0
912.0
915.0
914.0
913.0
914.0
915.0
920.0
927.0
927.0
924.0
924.0
927.0
927.0
927.0
920.0
917.0
919.0
927.0
929.0
931.0
931.0
925.0
932.0
937.0
940.0
944.0
946.0
947.0
945.0
950.0
954.0
956.0
959.0
959.0
962.0
966.0
972.0
977.0
978.0
982.0
985.0
991.0
996.0
999.0
1007.0
1007.0
1010.0
1019.0
1028.0
1034.0
1039.0
1040.0
1044.0
1050.0
1058.0
1064.0
1064.0
1065.0
1067.0
1071.0
1074.0
1076.0
1073.0
1068.0
1064.0
1061.0
1063.0
1060.0
1055.0
1048.0
1040.0
1040.0
1039.0
1035.0
1030.0
1026.0
1017.0
1010.0
1006.0
1001.0
995.0
989.0
984.0
983.0
981.0
979.0
974.0
970.0
964.0
963.0
962.0
962.0
958.0
952.0
949.0
950.0
948.0
945.0
939.0
937.0
938.0
941.0
940.0
938.0
934.0
932.0
928.0
927.0
931.0
931.0
933.0
932.0
929.0
930.0
933.0
934.0
934.0
935.0
931.0
934.0
936.0
941.0
942.0
938.0
935.0
938.0
942.0
947.0
947.0
945.0
945.0
948.0
948.0
949.0
949.0
951.0
948.0
951.0
955.0
956.0
955.0
954.0
953.0
953.0
956.0
956.0
955.0
954.0
952.0
952.0
954.0
957.0
954.0
950.0
950.0
950.0
954.0
955.0
953.0
949.0
949.0
948.0
952.0
954.0
952.0
947.0
945.0
946.0
948.0
946.0
943.0
941.0
938.0
943.0
946.0
945.0
944.0
941.0
940.0
940.0
937.0
936.0
936.0
936.0
935.0
935.0
939.0
941.0
939.0
934.0
935.0
938.0
943.0
943.0
942.0
934.0
936.0
941.0
946.0
946.0
944.0
941.0
937.0
935.0
936.0
941.0
939.0
935.0
936.0
932.0
935.0
934.0
937.0
937.0
937.0
943.0
944.0
941.0
939.0
934.0
934.0
939.0
944.0
946.0
947.0
948.0
950.0
956.0
958.0
962.0
962.0
964.0
967.0
972.0
981.0
989.0
996.0
997.0
998.0
1001.0
1003.0
1001.0
999.0
994.0
994.0
991.0
984.0
979.0
972.0
966.0
961.0
958.0
956.0
955.0
949.0
942.0
940.0
939.0
943.0
942.0
938.0
936.0
935.0
938.0
941.0
942.0
942.0
939.0
934.0
928.0
926.0
918.0
915.0
927.0
964.0
1031.0
1113.0
1208.0
1291.0
1349.0
1386.0
1408.0
1415.0
1400.0
1351.0
1267.0
1145.0
1017.0
904.0
875.0
903.0
926.0
929.0
920.0
920.0
924.0
925.0
922.0
918.0
920.0
921.0
923.0
924.0
919.0
918.0
921.0
922.0
921.0
917.0
915.0
915.0
919.0
920.0
920.0
919.0
916.0
917.0
918.0
920.0
925.0
923.0
921.0
919.0
921.0
926.0
930.0
927.0
927.0
925.0
922.0
928.0
933.0
933.0
931.0
928.0
930.0
936.0
939.0
937.0
935.0
937.0
939.0
943.0
946.0
945.0
942.0
943.0
944.0
948.0
954.0
956.0
950.0
952.0
956.0
961.0
964.0
969.0
969.0
968.0
971.0
974.0
978.0
983.0
982.0
983.0
991.0
996.0
1003.0
1007.0
1009.0
1014.0
1021.0
1029.0
1035.0
1039.0
1041.0
1045.0
1051.0
1060.0
1066.0
1069.0
1067.0
1073.0
1081.0
1087.0
1092.0
1093.0
1092.0
1090.0
1092.0
1097.0
1095.0
1095.0
1091.0
1085.0
1083.0
1080.0
1078.0
1071.0
1062.0
1053.0
1049.0
1043.0
1040.0
1034.0
1027.0
1021.0
1019.0
1016.0
1013.0
1006.0
1002.0
993.0
992.0
991.0
989.0
986.0
980.0
974.0
976.0
978.0
976.0
971.0
966.0
961.0
963.0
965.0
964.0
960.0
952.0
953.0
954.0
956.0
958.0
955.0
952.0
949.0
949.0
950.0
949.0
949.0
945.0
945.0
947.0
950.0
951.0
947.0
946.0
947.0
943.0
949.0
952.0
950.0
947.0
946.0
949.0
951.0
951.0
951.0
950.0
947.0
951.0
954.0
954.0
953.0
949.0
950.0
950.0
950.0
955.0
951.0
950.0
950.0
955.0
956.0
959.0
956.0
952.0
949.0
952.0
954.0
956.0
952.0
953.0
951.0
951.0
956.0
955.0
948.0
947.0
944.0
945.0
949.0
950.0
950.0
947.0
945.0
946.0
948.0
947.0
948.0
944.0
943.0
944.0
946.0
947.0
945.0
942.0
942.0
943.0
942.0
942.0
942.0
939.0
938.0
939.0
943.0
946.0
945.0
941.0
937.0
939.0
941.0
942.0
937.0
938.0
938.0
939.0
943.0
943.0
939.0
940.0
938.0
940.0
941.0
940.0
941.0
939.0
937.0
938.0
941.0
943.0
942.0
941.0
939.0
940.0
939.0
941.0
944.0
940.0
942.0
942.0
945.0
944.0
943.0
943.0
940.0
943.0
945.0
946.0
943.0
940.0
941.0
946.0
952.0
956.0
955.0
956.0
956.0
960.0
967.0
970.0
976.0
980.0
987.0
998.0
1005.0
1005.0
1006.0
1002.0
1001.0
1003.0
1007.0
1006.0
1003.0
992.0
985.0
977.0
975.0
973.0
968.0
961.0
954.0
948.0
948.0
947.0
944.0
944.0
942.0
944.0
945.0
945.0
945.0
940.0
939.0
943.0
944.0
943.0
936.0
923.0
915.0
913.0
930.0
970.0
1030.0
1114.0
1212.0
1301.0
1361.0
1396.0
1410.0
1411.0
1392.0
1348.0
1267.0
1147.0
1019.0
896.0
870.0
898.0
928.0
931.0
926.0
921.0
923.0
929.0
932.0
934.0
931.0
927.0
925.0
925.0
924.0
926.0
929.0
923.0
923.0
927.0
931.0
934.0
932.0
927.0
926.0
927.0
927.0
933.0
934.0
933.0
934.0
935.0
934.0
933.0
930.0
929.0
929.0
932.0
938.0
942.0
941.0
939.0
935.0
938.0
940.0
945.0
943.0
942.0
943.0
944.0
948.0
952.0
952.0
952.0
952.0
956.0
961.0
962.0
965.0
962.0
966.0
969.0
975.0
977.0
979.0
980.0
983.0
986.0
994.0
999.0
1001.0
1000.0
1006.0
1012.0
1019.0
1023.0
1025.0
1027.0
1031.0
1039.0
1046.0
1056.0
1060.0
1061.0
1065.0
1070.0
1080.0
1083.0
1086.0
1087.0
1086.0
1092.0
1096.0
1099.0
1099.0
1096.0
1095.0
1091.0
1092.0
1092.0
1087.0
1083.0
1073.0
1069.0
1065.0
1061.0
1055.0
1045.0
1040.0
1035.0
1033.0
1028.0
1019.0
1016.0
1011.0
1008.0
1006.0
1005.0
998.0
992.0
984.0
983.0
983.0
983.0
979.0
973.0
971.0
969.0
972.0
972.0
969.0
964.0
961.0
961.0
964.0
962.0
957.0
955.0
952.0
950.0
958.0
955.0
960.0
955.0
954.0
955.0
957.0
959.0
958.0
954.0
954.0
955.0
956.0
957.0
954.0
954.0
953.0
956.0
956.0
958.0
957.0
954.0
953.0
957.0
960.0
962.0
962.0
958.0
962.0
966.0
969.0
969.0
965.0
964.0
962.0
962.0
964.0
966.0
965.0
962.0
958.0
961.0
966.0
965.0
963.0
962.0
960.0
962.0
966.0
966.0
965.0
961.0
960.0
961.0
961.0
961.0
962.0
961.0
959.0
960.0
963.0
963.0
961.0
955.0
956.0
957.0
961.0
962.0
959.0
959.0
957.0
959.0
961.0
962.0
961.0
957.0
955.0
955.0
959.0
962.0
959.0
949.0
951.0
954.0
954.0
956.0
953.0
949.0
949.0
953.0
952.0
957.0
954.0
953.0
952.0
953.0
957.0
957.0
955.0
952.0
950.0
951.0
954.0
959.0
957.0
955.0
949.0
949.0
954.0
954.0
950.0
951.0
950.0
951.0
954.0
958.0
957.0
955.0
954.0
953.0
956.0
955.0
955.0
954.0
953.0
951.0
953.0
954.0
955.0
953.0
956.0
959.0
961.0
959.0
962.0
956.0
956.0
962.0
968.0
976.0
976.0
980.0
978.0
987.0
993.0
1001.0
1008.0
1014.0
1017.0
1017.0
1021.0
1023.0
1021.0
1016.0
1015.0
1008.0
1005.0
997.0
989.0
980.0
978.0
974.0
973.0
968.0
963.0
960.0
955.0
958.0
960.0
962.0
962.0
961.0
960.0
961.0
962.0
963.0
959.0
944.0
937.0
932.0
943.0
975.0
1024.0
1099.0
1193.0
1281.0
1349.0
1391.0
1412.0
1413.0
1393.0
1345.0
1256.0
1128.0
1000.0
890.0
887.0
924.0
946.0
945.0
941.0
944.0
947.0
952.0
954.0
952.0
951.0
945.0
946.0
949.0
948.0
946.0
946.0
942.0
942.0
944.0
949.0
952.0
949.0
949.0
943.0
944.0
948.0
952.0
951.0
945.0
946.0
949.0
952.0
952.0
950.0
949.0
949.0
951.0
955.0
955.0
956.0
956.0
956.0
959.0
965.0
964.0
963.0
961.0
959.0
966.0
970.0
971.0
973.0
971.0
972.0
976.0
981.0
989.0
989.0
987.0
986.0
991.0
999.0
1005.0
1005.0
1007.0
1008.0
1015.0
1026.0
1029.0
1032.0
1033.0
1036.0
1042.0
1049.0
1057.0
1055.0
1055.0
1059.0
1067.0
1079.0
1086.0
1093.0
1093.0
1097.0
1098.0
1106.0
1109.0
1108.0
1108.0
1107.0
1110.0
1112.0
1108.0
1102.0
1094.0
1089.0
1089.0
1087.0
1084.0
1078.0
1069.0
1061.0
1056.0
1054.0
1050.0
1036.0
1027.0
1020.0
1017.0
1016.0
1013.0
1009.0
1003.0
1000.0
997.0
1000.0
995.0
993.0
987.0
982.0
981.0
979.0
980.0
978.0
975.0
971.0
969.0
964.0
965.0
966.0
965.0
963.0
963.0
968.0
965.0
965.0
959.0
958.0
959.0
964.0
966.0
965.0
963.0
962.0
958.0
962.0
963.0
963.0
961.0
958.0
961.0
961.0
965.0
964.0
963.0
960.0
963.0
968.0
968.0
966.0
961.0
964.0
968.0
971.0
975.0
974.0
974.0
980.0
990.0
1003.0
1013.0
1021.0
1030.0
1040.0
1055.0
1075.0
1096.0
1119.0
1139.0
1156.0
1162.0
1144.0
1113.0
1078.0
1040.0
1002.0
965.0
924.0
870.0
810.0
768.0
749.0
749.0
764.0
782.0
784.0
777.0
774.0
775.0
773.0
772.0
776.0
779.0
792.0
809.0
825.0
836.0
851.0
867.0
882.0
893.0
904.0
915.0
919.0
925.0
931.0
940.0
946.0
947.0
942.0
939.0
938.0
940.0
947.0
952.0
952.0
949.0
946.0
950.0
953.0
960.0
964.0
960.0
958.0
953.0
955.0
958.0
960.0
958.0
959.0
961.0
964.0
970.0
970.0
968.0
971.0
971.0
977.0
981.0
981.0
978.0
981.0
988.0
996.0
998.0
1002.0
1007.0
1013.0
1019.0
1024.0
1028.0
1034.0
1045.0
1059.0
1072.0
1083.0
1095.0
1101.0
1106.0
1116.0
1125.0
1138.0
1149.0
1154.0
1158.0
1160.0
1168.0
1178.0
1183.0
1183.0
1179.0
1174.0
1174.0
1175.0
1175.0
1171.0
1162.0
1154.0
1149.0
1144.0
1138.0
1130.0
1121.0
1109.0
1104.0
1098.0
1089.0
1075.0
1063.0
1055.0
1050.0
1050.0
1044.0
1036.0
1024.0
1014.0
1008.0
1004.0
1000.0
996.0
991.0
984.0
982.0
981.0
984.0
981.0
979.0
973.0
965.0
963.0
957.0
961.0
960.0
959.0
960.0
957.0
958.0
959.0
957.0
955.0
957.0
952.0
954.0
953.0
950.0
949.0
953.0
955.0
957.0
959.0
957.0
954.0
953.0
955.0
959.0
957.0
952.0
947.0
948.0
950.0
953.0
948.0
942.0
943.0
944.0
945.0
945.0
940.0
938.0
936.0
932.0
936.0
935.0
932.0
928.0
927.0
931.0
933.0
935.0
930.0
926.0
919.0
920.0
923.0
925.0
923.0
917.0
916.0
919.0
921.0
922.0
920.0
914.0
914.0
912.0
915.0
917.0
915.0
915.0
911.0
911.0
913.0
912.0
913.0
913.0
910.0
911.0
911.0
914.0
913.0
909.0
908.0
906.0
914.0
915.0
911.0
911.0
907.0
908.0
910.0
915.0
912.0
906.0
906.0
908.0
910.0
911.0
911.0
907.0
905.0
909.0
910.0
911.0
911.0
907.0
902.0
899.0
901.0
901.0
896.0
895.0
900.0
907.0
909.0
911.0
904.0
899.0
900.0
905.0
910.0
912.0
906.0
903.0
902.0
903.0
908.0
909.0
904.0
895.0
888.0
898.0
906.0
906.0
901.0
893.0
894.0
912.0
921.0
907.0
891.0
888.0
893.0
904.0
913.0
915.0
916.0
913.0
909.0
911.0
909.0
912.0
911.0
908.0
902.0
902.0
905.0
908.0
905.0
902.0
902.0
903.0
904.0
907.0
910.0
910.0
907.0
906.0
907.0
909.0
908.0
906.0
904.0
902.0
903.0
907.0
912.0
908.0
909.0
907.0
910.0
913.0
906.0
900.0
901.0
909.0
914.0
913.0
912.0
908.0
906.0
910.0
917.0
921.0
917.0
913.0
913.0
913.0
918.0
918.0
916.0
914.0
911.0
913.0
915.0
920.0
920.0
919.0
917.0
917.0
923.0
928.0
925.0
920.0
916.0
922.0
924.0
925.0
924.0
923.0
923.0
922.0
927.0
930.0
926.0
928.0
927.0
923.0
923.0
928.0
924.0
921.0
923.0
935.0
937.0
937.0
935.0
936.0
934.0
931.0
939.0
944.0
944.0
944.0
942.0
946.0
950.0
954.0
958.0
957.0
964.0
977.0
990.0
996.0
990.0
988.0
990.0
998.0
1001.0
997.0
989.0
983.0
977.0
979.0
978.0
976.0
970.0
964.0
958.0
960.0
957.0
954.0
952.0
949.0
947.0
954.0
962.0
957.0
953.0
954.0
954.0
955.0
959.0
965.0
979.0
1010.0
1068.0
1148.0
1229.0
1291.0
1329.0
1347.0
1342.0
1326.0
1289.0
1224.0
1130.0
1019.0
929.0
900.0
912.0
927.0
921.0
918.0
922.0
936.0
941.0
943.0
940.0
939.0
938.0
934.0
934.0
940.0
942.0
937.0
934.0
936.0
939.0
935.0
928.0
922.0
929.0
940.0
942.0
949.0
948.0
946.0
943.0
944.0
947.0
949.0
946.0
948.0
946.0
944.0
948.0
946.0
946.0
946.0
947.0
950.0
951.0
949.0
948.0
948.0
943.0
946.0
947.0
951.0
949.0
950.0
949.0
951.0
960.0
965.0
964.0
957.0
955.0
955.0
956.0
961.0
967.0
969.0
967.0
970.0
970.0
974.0
977.0
982.0
982.0
981.0
986.0
992.0
996.0
1000.0
1001.0
1005.0
1011.0
1012.0
1008.0
1010.0
1017.0
1029.0
1033.0
1035.0
1034.0
1034.0
1034.0
1039.0
1051.0
1054.0
1053.0
1051.0
1052.0
1054.0
1055.0
1057.0
1055.0
1050.0
1049.0
1049.0
1049.0
1050.0
1047.0
1035.0
1024.0
1019.0
1022.0
1026.0
1024.0
1018.0
1012.0
1007.0
998.0
996.0
995.0
989.0
984.0
979.0
980.0
980.0
980.0
974.0
971.0
972.0
969.0
969.0
963.0
963.0
963.0
962.0
965.0
967.0
963.0
959.0
958.0
960.0
963.0
972.0
971.0
964.0
959.0
964.0
970.0
971.0
970.0
972.0
974.0
975.0
975.0
978.0
983.0
981.0
979.0
980.0
983.0
984.0
979.0
980.0
983.0
982.0
986.0
991.0
981.0
969.0
974.0
979.0
984.0
983.0
982.0
981.0
976.0
974.0
971.0
977.0
975.0
967.0
965.0
969.0
972.0
971.0
968.0
963.0
961.0
962.0
966.0
968.0
967.0
964.0
962.0
954.0
948.0
954.0
959.0
956.0
950.0
951.0
955.0
956.0
954.0
949.0
947.0
948.0
950.0
951.0
943.0
938.0
941.0
946.0
951.0
952.0
950.0
950.0
948.0
948.0
945.0
940.0
932.0
934.0
941.0
945.0
943.0
943.0
942.0
945.0
942.0
942.0
941.0
942.0
943.0
942.0
940.0
940.0
946.0
950.0
950.0
944.0
935.0
936.0
945.0
946.0
943.0
940.0
939.0
942.0
944.0
943.0
940.0
938.0
941.0
941.0
944.0
948.0
944.0
939.0
936.0
942.0
945.0
950.0
950.0
945.0
941.0
945.0
953.0
956.0
956.0
955.0
953.0
953.0
958.0
971.0
974.0
970.0
974.0
984.0
997.0
999.0
999.0
997.0
996.0
996.0
998.0
1000.0
992.0
984.0
980.0
975.0
973.0
967.0
961.0
956.0
951.0
954.0
955.0
954.0
949.0
940.0
938.0
946.0
957.0
957.0
952.0
949.0
943.0
944.0
948.0
947.0
945.0
948.0
960.0
987.0
1034.0
1094.0
1169.0
1237.0
1286.0
1317.0
1336.0
1341.0
1327.0
1294.0
1232.0
1145.0
1045.0
954.0
903.0
899.0
911.0
920.0
923.0
922.0
920.0
924.0
927.0
931.0
934.0
940.0
936.0
931.0
926.0
926.0
934.0
941.0
936.0
930.0
928.0
929.0
934.0
934.0
934.0
935.0
935.0
936.0
935.0
936.0
935.0
934.0
934.0
937.0
940.0
942.0
942.0
941.0
942.0
940.0
939.0
939.0
940.0
944.0
947.0
952.0
949.0
949.0
941.0
937.0
946.0
955.0
956.0
960.0
955.0
956.0
955.0
958.0
959.0
964.0
967.0
966.0
965.0
966.0
970.0
975.0
977.0
978.0
976.0
980.0
983.0
989.0
990.0
987.0
986.0
985.0
992.0
1002.0
1007.0
1009.0
1009.0
1017.0
1021.0
1030.0
1031.0
1031.0
1035.0
1041.0
1046.0
1052.0
1059.0
1061.0
1068.0
1074.0
1080.0
1081.0
1085.0
1082.0
1080.0
1084.0
1091.0
1094.0
1096.0
1090.0
1088.0
1089.0
1088.0
1087.0
1081.0
1078.0
1073.0
1069.0
1069.0
1066.0
1062.0
1046.0
1039.0
1033.0
1034.0
1036.0
1028.0
1017.0
1013.0
1010.0
1008.0
1004.0
995.0
993.0
995.0
995.0
990.0
987.0
984.0
982.0
980.0
977.0
979.0
974.0
973.0
969.0
965.0
968.0
967.0
973.0
971.0
964.0
962.0
963.0
967.0
971.0
973.0
969.0
968.0
965.0
966.0
970.0
968.0
970.0
969.0
976.0
978.0
976.0
976.0
974.0
979.0
984.0
984.0
986.0
988.0
989.0
987.0
986.0
989.0
994.0
997.0
995.0
991.0
993.0
996.0
997.0
998.0
995.0
993.0
994.0
998.0
998.0
997.0
996.0
995.0
994.0
998.0
999.0
1000.0
995.0
992.0
991.0
994.0
995.0
993.0
991.0
990.0
990.0
994.0
995.0
992.0
989.0
986.0
985.0
986.0
987.0
986.0
987.0
985.0
984.0
985.0
986.0
984.0
982.0
983.0
982.0
984.0
986.0
986.0
981.0
977.0
979.0
984.0
987.0
987.0
981.0
979.0
981.0
981.0
984.0
982.0
984.0
982.0
981.0
983.0
986.0
984.0
980.0
979.0
978.0
981.0
984.0
983.0
982.0
982.0
980.0
982.0
980.0
981.0
982.0
980.0
980.0
980.0
984.0
982.0
980.0
979.0
981.0
981.0
984.0
986.0
983.0
983.0
982.0
983.0
986.0
986.0
982.0
982.0
982.0
985.0
991.0
989.0
988.0
985.0
989.0
994.0
999.0
999.0
1002.0
1002.0
1004.0
1009.0
1015.0
1016.0
1019.0
1025.0
1032.0
1040.0
1042.0
1042.0
1039.0
1040.0
1042.0
1042.0
1041.0
1040.0
1035.0
1031.0
1026.0
1023.0
1022.0
1012.0
1003.0
998.0
995.0
999.0
998.0
995.0
989.0
985.0
988.0
991.0
990.0
990.0
987.0
985.0
987.0
989.0
990.0
986.0
987.0
981.0
974.0
978.0
980.0
990.0
1019.0
1064.0
1127.0
1194.0
1254.0
1301.0
1330.0
1341.0
1346.0
1336.0
1308.0
1257.0
1184.0
1089.0
1001.0
951.0
948.0
964.0
972.0
969.0
965.0
968.0
968.0
966.0
966.0
961.0
963.0
962.0
962.0
962.0
960.0
960.0
957.0
962.0
965.0
962.0
960.0
958.0
958.0
962.0
966.0
968.0
966.0
964.0
957.0
955.0
956.0
955.0
959.0
962.0
964.0
963.0
965.0
966.0
966.0
966.0
968.0
970.0
973.0
973.0
973.0
972.0
972.0
979.0
981.0
980.0
979.0
977.0
980.0
981.0
983.0
986.0
989.0
991.0
991.0
993.0
995.0
996.0
995.0
998.0
1000.0
1003.0
1011.0
1012.0
1014.0
1016.0
1020.0
1023.0
1029.0
1030.0
1032.0
1033.0
1038.0
1042.0
1048.0
1047.0
1054.0
1052.0
1057.0
1065.0
1075.0
1081.0
1083.0
1086.0
1089.0
1093.0
1099.0
1104.0
1103.0
1106.0
1111.0
1116.0
1123.0
1124.0
1121.0
1123.0
1123.0
1124.0
1125.0
1120.0
1117.0
1110.0
1109.0
1104.0
1105.0
1103.0
1094.0
1086.0
1082.0
1081.0
1079.0
1072.0
1065.0
1057.0
1052.0
1049.0
1046.0
1041.0
1032.0
1027.0
1023.0
1022.0
1019.0
1009.0
1005.0
1001.0
999.0
997.0
996.0
996.0
988.0
981.0
976.0
977.0
978.0
977.0
974.0
969.0
972.0
966.0
967.0
967.0
965.0
962.0
965.0
962.0
961.0
963.0
961.0
956.0
960.0
961.0
964.0
964.0
961.0
958.0
959.0
962.0
961.0
966.0
960.0
956.0
957.0
960.0
962.0
960.0
959.0
959.0
957.0
960.0
963.0
960.0
959.0
958.0
960.0
959.0
964.0
961.0
958.0
