# Simple Text Format
# Sampling Rate (Hz):= 360.00
# Resolution:= 12
# Labels:= ECG
979.0
976.0
970.0
971.0
977.0
987.0
990.0
984.0
973.0
967.0
963.0
964.0
965.0
966.0
967.0
973.0
977.0
978.0
977.0
977.0
976.0
977.0
976.0
976.0
977.0
981.0
984.0
983.0
979.0
980.0
980.0
980.0
980.0
977.0
974.0
976.0
984.0
988.0
992.0
992.0
989.0
987.0
986.0
987.0
995.0
1006.0
1015.0
1016.0
1003.0
987.0
982.0
989.0
997.0
999.0
995.0
993.0
994.0
996.0
1000.0
1005.0
1003.0
996.0
994.0
992.0
1000.0
1010.0
1022.0
1022.0
1018.0
1013.0
1008.0
1003.0
1000.0
1004.0
1007.0
1002.0
993.0
997.0
1004.0
1011.0
1013.0
1013.0
1002.0
995.0
996.0
1000.0
1001.0
999.0
1001.0
1008.0
1006.0
1002.0
996.0
987.0
984.0
986.0
994.0
998.0
1002.0
998.0
991.0
991.0
995.0
1004.0
1003.0
987.0
969.0
960.0
959.0
961.0
964.0
967.0
973.0
976.0
972.0
970.0
969.0
970.0
973.0
980.0
986.0
983.0
975.0
968.0
966.0
964.0
961.0
958.0
952.0
940.0
937.0
952.0
967.0
973.0
963.0
952.0
944.0
944.0
947.0
951.0
953.0
954.0
948.0
948.0
950.0
948.0
947.0
944.0
944.0
947.0
949.0
951.0
944.0
940.0
942.0
956.0
968.0
971.0
962.0
950.0
939.0
935.0
946.0
966.0
976.0
970.0
963.0
956.0
951.0
942.0
942.0
951.0
954.0
955.0
956.0
954.0
959.0
963.0
964.0
964.0
961.0
960.0
964.0
962.0
958.0
954.0
952.0
955.0
963.0
971.0
977.0
971.0
964.0
957.0
960.0
963.0
963.0
960.0
956.0
954.0
957.0
960.0
961.0
960.0
961.0
960.0
955.0
950.0
949.0
959.0
967.0
970.0
968.0
966.0
964.0
965.0
968.0
965.0
962.0
955.0
950.0
951.0
957.0
960.0
958.0
959.0
964.0
974.0
976.0
976.0
971.0
976.0
981.0
984.0
987.0
989.0
990.0
990.0
993.0
1000.0
1005.0
1008.0
1005.0
999.0
993.0
999.0
1010.0
1025.0
1028.0
1017.0
1004.0
997.0
993.0
987.0
980.0
978.0
981.0
983.0
976.0
960.0
943.0
941.0
946.0
954.0
955.0
952.0
946.0
951.0
958.0
961.0
964.0
963.0
961.0
958.0
954.0
954.0
952.0
951.0
950.0
956.0
961.0
967.0
968.0
966.0
959.0
959.0
958.0
960.0
960.0
963.0
958.0
955.0
957.0
959.0
962.0
966.0
965.0
966.0
962.0
960.0
961.0
970.0
987.0
998.0
1010.0
1030.0
1049.0
1062.0
1057.0
1046.0
1045.0
1058.0
1075.0
1082.0
1083.0
1088.0
1089.0
1093.0
1097.0
1101.0
1096.0
1097.0
1098.0
1082.0
1052.0
1020.0
992.0
968.0
943.0
912.0
884.0
859.0
842.0
836.0
850.0
870.0
883.0
889.0
894.0
906.0
918.0
931.0
937.0
938.0
939.0
940.0
937.0
940.0
939.0
942.0
941.0
940.0
939.0
941.0
942.0
944.0
944.0
944.0
943.0
939.0
936.0
935.0
929.0
927.0
928.0
935.0
943.0
939.0
934.0
928.0
923.0
925.0
927.0
930.0
937.0
939.0
933.0
932.0
936.0
938.0
936.0
931.0
926.0
928.0
930.0
932.0
933.0
935.0
931.0
931.0
931.0
933.0
935.0
933.0
937.0
936.0
936.0
935.0
933.0
932.0
928.0
932.0
935.0
935.0
936.0
936.0
939.0
942.0
946.0
945.0
944.0
945.0
943.0
948.0
951.0
950.0
949.0
948.0
952.0
959.0
967.0
974.0
972.0
966.0
956.0
954.0
961.0
966.0
965.0
961.0
963.0
970.0
982.0
982.0
973.0
966.0
964.0
971.0
977.0
978.0
975.0
974.0
973.0
972.0
971.0
970.0
973.0
973.0
971.0
974.0
974.0
975.0
977.0
976.0
975.0
973.0
976.0
981.0
980.0
979.0
979.0
978.0
978.0
974.0
966.0
960.0
963.0
970.0
972.0
970.0
967.0
963.0
959.0
961.0
965.0
965.0
965.0
964.0
962.0
964.0
964.0
963.0
961.0
961.0
959.0
960.0
959.0
956.0
956.0
951.0
946.0
948.0
949.0
947.0
947.0
947.0
946.0
949.0
950.0
947.0
942.0
941.0
941.0
942.0
949.0
950.0
947.0
943.0
936.0
935.0
940.0
945.0
950.0
948.0
948.0
948.0
948.0
947.0
946.0
950.0
951.0
954.0
952.0
948.0
944.0
945.0
947.0
951.0
957.0
961.0
957.0
957.0
955.0
955.0
956.0
955.0
952.0
951.0
948.0
951.0
955.0
955.0
956.0
955.0
954.0
955.0
960.0
961.0
957.0
957.0
955.0
955.0
959.0
959.0
955.0
950.0
953.0
958.0
965.0
966.0
963.0
957.0
954.0
954.0
957.0
959.0
959.0
960.0
958.0
959.0
962.0
961.0
962.0
959.0
965.0
969.0
972.0
973.0
971.0
971.0
971.0
977.0
980.0
979.0
984.0
987.0
989.0
992.0
994.0
994.0
994.0
996.0
998.0
1001.0
1005.0
1007.0
1008.0
1013.0
1011.0
1014.0
1015.0
1014.0
1006.0
999.0
987.0
981.0
979.0
972.0
965.0
958.0
954.0
955.0
957.0
957.0
955.0
950.0
947.0
949.0
953.0
958.0
958.0
957.0
958.0
956.0
958.0
957.0
957.0
952.0
951.0
952.0
956.0
954.0
952.0
953.0
957.0
964.0
970.0
963.0
949.0
938.0
940.0
948.0
957.0
957.0
955.0
953.0
950.0
952.0
952.0
953.0
954.0
964.0
982.0
1005.0
1026.0
1043.0
1052.0
1047.0
1042.0
1045.0
1055.0
1066.0
1070.0
1073.0
1074.0
1080.0
1090.0
1094.0
1093.0
1093.0
1075.0
1046.0
1012.0
985.0
958.0
926.0
890.0
859.0
842.0
834.0
849.0
869.0
885.0
892.0
901.0
914.0
923.0
924.0
923.0
926.0
926.0
927.0
929.0
929.0
927.0
928.0
930.0
932.0
934.0
931.0
930.0
929.0
930.0
931.0
931.0
930.0
927.0
929.0
930.0
931.0
926.0
928.0
928.0
927.0
927.0
927.0
924.0
927.0
929.0
928.0
928.0
926.0
924.0
926.0
929.0
931.0
934.0
930.0
922.0
915.0
915.0
920.0
926.0
925.0
919.0
916.0
914.0
916.0
923.0
926.0
927.0
924.0
918.0
919.0
927.0
934.0
937.0
925.0
917.0
921.0
931.0
934.0
929.0
930.0
938.0
943.0
942.0
938.0
940.0
952.0
954.0
942.0
932.0
930.0
939.0
948.0
953.0
952.0
949.0
950.0
952.0
953.0
951.0
952.0
960.0
959.0
950.0
945.0
942.0
943.0
949.0
954.0
950.0
940.0
941.0
952.0
955.0
951.0
947.0
941.0
940.0
949.0
958.0
960.0
953.0
941.0
928.0
928.0
935.0
945.0
942.0
935.0
932.0
938.0
944.0
944.0
940.0
935.0
928.0
922.0
924.0
933.0
941.0
936.0
926.0
924.0
925.0
923.0
924.0
928.0
927.0
930.0
928.0
926.0
919.0
912.0
911.0
921.0
921.0
919.0
913.0
906.0
900.0
904.0
914.0
909.0
901.0
897.0
900.0
905.0
905.0
901.0
901.0
904.0
909.0
913.0
914.0
902.0
895.0
896.0
898.0
904.0
907.0
903.0
903.0
905.0
912.0
917.0
913.0
905.0
907.0
908.0
907.0
906.0
904.0
899.0
899.0
902.0
903.0
904.0
905.0
909.0
908.0
905.0
905.0
916.0
926.0
925.0
913.0
908.0
910.0
915.0
918.0
921.0
922.0
922.0
920.0
917.0
918.0
919.0
927.0
924.0
915.0
914.0
918.0
923.0
927.0
922.0
924.0
920.0
917.0
913.0
914.0
918.0
925.0
930.0
922.0
912.0
904.0
902.0
903.0
912.0
925.0
931.0
925.0
922.0
919.0
926.0
927.0
924.0
919.0
921.0
926.0
932.0
932.0
926.0
916.0
915.0
915.0
921.0
931.0
935.0
936.0
934.0
932.0
934.0
936.0
939.0
944.0
944.0
949.0
957.0
964.0
969.0
968.0
968.0
970.0
978.0
978.0
967.0
965.0
972.0
975.0
974.0
966.0
955.0
946.0
939.0
934.0
925.0
915.0
911.0
911.0
911.0
913.0
917.0
920.0
922.0
921.0
918.0
915.0
909.0
906.0
908.0
914.0
915.0
920.0
919.0
914.0
912.0
916.0
923.0
925.0
924.0
919.0
921.0
922.0
921.0
914.0
918.0
916.0
913.0
918.0
921.0
929.0
926.0
922.0
923.0
923.0
928.0
938.0
956.0
978.0
992.0
990.0
981.0
982.0
999.0
1015.0
1018.0
1012.0
1013.0
1011.0
1017.0
1021.0
1022.0
1021.0
1016.0
996.0
970.0
948.0
923.0
894.0
862.0
837.0
819.0
815.0
822.0
838.0
847.0
858.0
867.0
880.0
889.0
896.0
898.0
895.0
897.0
891.0
891.0
897.0
905.0
908.0
905.0
901.0
899.0
892.0
889.0
888.0
895.0
898.0
897.0
896.0
898.0
901.0
904.0
900.0
895.0
893.0
896.0
900.0
894.0
887.0
879.0
881.0
892.0
904.0
908.0
902.0
896.0
896.0
895.0
895.0
899.0
895.0
890.0
887.0
891.0
891.0
895.0
896.0
899.0
901.0
903.0
900.0
900.0
899.0
903.0
906.0
904.0
893.0
890.0
900.0
912.0
919.0
916.0
902.0
899.0
902.0
902.0
903.0
910.0
917.0
921.0
920.0
921.0
915.0
909.0
909.0
920.0
929.0
928.0
920.0
910.0
907.0
916.0
927.0
941.0
942.0
932.0
924.0
920.0
928.0
936.0
940.0
938.0
933.0
929.0
928.0
930.0
927.0
925.0
923.0
930.0
935.0
939.0
937.0
932.0
930.0
933.0
935.0
938.0
934.0
930.0
926.0
926.0
929.0
932.0
938.0
940.0
934.0
928.0
921.0
920.0
923.0
925.0
922.0
920.0
920.0
921.0
921.0
921.0
922.0
922.0
924.0
926.0
927.0
923.0
918.0
914.0
914.0
912.0
911.0
908.0
906.0
908.0
912.0
913.0
917.0
919.0
917.0
918.0
922.0
916.0
904.0
892.0
888.0
896.0
903.0
907.0
901.0
898.0
897.0
890.0
893.0
898.0
907.0
906.0
902.0
903.0
907.0
910.0
907.0
900.0
897.0
898.0
904.0
903.0
905.0
905.0
903.0
904.0
908.0
908.0
901.0
886.0
878.0
883.0
893.0
908.0
911.0
908.0
906.0
918.0
929.0
928.0
919.0
906.0
895.0
900.0
912.0
922.0
926.0
922.0
916.0
917.0
919.0
921.0
919.0
916.0
916.0
917.0
919.0
921.0
928.0
933.0
932.0
926.0
918.0
914.0
906.0
899.0
894.0
891.0
897.0
913.0
937.0
957.0
954.0
939.0
926.0
919.0
923.0
925.0
922.0
922.0
920.0
925.0
927.0
929.0
931.0
934.0
937.0
936.0
936.0
937.0
943.0
944.0
948.0
951.0
952.0
955.0
958.0
964.0
965.0
966.0
963.0
964.0
965.0
967.0
967.0
963.0
963.0
965.0
964.0
960.0
962.0
956.0
948.0
938.0
926.0
922.0
919.0
922.0
920.0
917.0
912.0
914.0
913.0
913.0
913.0
912.0
909.0
906.0
906.0
908.0
909.0
910.0
909.0
906.0
897.0
897.0
898.0
897.0
902.0
923.0
943.0
938.0
916.0
892.0
878.0
886.0
903.0
914.0
925.0
928.0
917.0
899.0
893.0
901.0
919.0
937.0
944.0
952.0
960.0
968.0
962.0
954.0
964.0
998.0
1031.0
1048.0
1035.0
1000.0
976.0
985.0
1012.0
1034.0
1032.0
1005.0
967.0
936.0
915.0
889.0
861.0
836.0
821.0
815.0
812.0
813.0
817.0
825.0
833.0
848.0
860.0
867.0
870.0
871.0
877.0
886.0
886.0
887.0
890.0
895.0
896.0
893.0
886.0
876.0
870.0
867.0
874.0
883.0
894.0
897.0
899.0
895.0
894.0
891.0
888.0
883.0
879.0
880.0
882.0
887.0
886.0
883.0
884.0
879.0
875.0
872.0
874.0
880.0
880.0
881.0
881.0
880.0
882.0
880.0
880.0
879.0
878.0
883.0
886.0
891.0
890.0
893.0
890.0
890.0
892.0
888.0
883.0
877.0
874.0
875.0
879.0
883.0
883.0
884.0
885.0
891.0
892.0
883.0
871.0
869.0
879.0
892.0
897.0
894.0
881.0
874.0
868.0
876.0
885.0
895.0
903.0
906.0
904.0
912.0
920.0
924.0
918.0
915.0
911.0
912.0
917.0
920.0
922.0
919.0
920.0
922.0
921.0
920.0
922.0
919.0
918.0
921.0
922.0
923.0
925.0
925.0
925.0
926.0
926.0
926.0
926.0
924.0
923.0
924.0
924.0
922.0
922.0
921.0
922.0
924.0
924.0
923.0
920.0
919.0
918.0
917.0
916.0
915.0
914.0
916.0
923.0
921.0
916.0
912.0
907.0
900.0
895.0
900.0
905.0
908.0
902.0
901.0
902.0
905.0
905.0
902.0
897.0
895.0
896.0
898.0
898.0
896.0
894.0
891.0
888.0
890.0
891.0
889.0
886.0
884.0
884.0
891.0
897.0
897.0
896.0
893.0
894.0
894.0
896.0
895.0
894.0
892.0
892.0
893.0
902.0
901.0
899.0
895.0
895.0
897.0
899.0
901.0
899.0
900.0
902.0
907.0
910.0
910.0
907.0
908.0
905.0
907.0
911.0
914.0
911.0
906.0
907.0
908.0
912.0
914.0
915.0
913.0
911.0
914.0
916.0
918.0
914.0
914.0
913.0
914.0
915.0
915.0
916.0
919.0
918.0
919.0
924.0
923.0
922.0
920.0
918.0
921.0
921.0
924.0
923.0
921.0
920.0
923.0
929.0
927.0
929.0
928.0
929.0
935.0
940.0
941.0
941.0
943.0
945.0
951.0
960.0
960.0
962.0
964.0
964.0
968.0
970.0
970.0
971.0
973.0
976.0
980.0
984.0
980.0
975.0
963.0
954.0
949.0
943.0
936.0
932.0
926.0
920.0
921.0
922.0
920.0
922.0
917.0
919.0
923.0
923.0
925.0
922.0
924.0
923.0
923.0
923.0
925.0
924.0
922.0
923.0
926.0
925.0
926.0
927.0
926.0
927.0
929.0
931.0
932.0
928.0
930.0
928.0
930.0
931.0
930.0
929.0
929.0
929.0
929.0
930.0
937.0
950.0
966.0
985.0
1008.0
1028.0
1039.0
1037.0
1028.0
1032.0
1048.0
1055.0
1064.0
1068.0
1069.0
1070.0
1076.0
1088.0
1094.0
1094.0
1081.0
1054.0
1020.0
990.0
966.0
935.0
898.0
865.0
840.0
824.0
827.0
843.0
856.0
865.0
868.0
873.0
882.0
892.0
901.0
906.0
908.0
912.0
912.0
913.0
912.0
912.0
909.0
912.0
910.0
908.0
913.0
911.0
913.0
912.0
913.0
911.0
911.0
910.0
912.0
914.0
914.0
913.0
910.0
911.0
909.0
911.0
909.0
910.0
912.0
911.0
913.0
914.0
911.0
911.0
911.0
911.0
912.0
915.0
913.0
913.0
909.0
908.0
912.0
914.0
913.0
909.0
909.0
909.0
913.0
916.0
917.0
915.0
913.0
913.0
918.0
919.0
920.0
917.0
917.0
919.0
922.0
923.0
924.0
922.0
924.0
926.0
927.0
932.0
932.0
932.0
936.0
934.0
940.0
943.0
948.0
947.0
946.0
948.0
948.0
952.0
957.0
959.0
960.0
960.0
960.0
962.0
966.0
966.0
965.0
965.0
967.0
970.0
970.0
966.0
966.0
966.0
970.0
973.0
972.0
969.0
967.0
969.0
970.0
971.0
968.0
967.0
964.0
965.0
970.0
972.0
974.0
970.0
968.0
967.0
970.0
970.0
971.0
969.0
969.0
968.0
968.0
970.0
968.0
963.0
963.0
960.0
960.0
963.0
964.0
963.0
961.0
956.0
960.0
957.0
955.0
954.0
951.0
950.0
953.0
953.0
950.0
947.0
948.0
945.0
946.0
949.0
946.0
950.0
947.0
945.0
946.0
948.0
947.0
946.0
944.0
941.0
944.0
948.0
948.0
947.0
945.0
946.0
950.0
954.0
956.0
954.0
952.0
950.0
954.0
955.0
956.0
955.0
953.0
957.0
958.0
959.0
962.0
961.0
961.0
957.0
960.0
960.0
961.0
961.0
962.0
960.0
960.0
962.0
966.0
964.0
963.0
962.0
963.0
966.0
967.0
963.0
962.0
962.0
966.0
968.0
967.0
967.0
964.0
965.0
966.0
970.0
972.0
969.0
965.0
966.0
970.0
969.0
973.0
972.0
969.0
968.0
976.0
983.0
988.0
987.0
985.0
986.0
989.0
995.0
999.0
1003.0
1004.0
1007.0
1008.0
1012.0
1016.0
1017.0
1012.0
1014.0
1019.0
1023.0
1023.0
1022.0
1017.0
1010.0
1002.0
999.0
992.0
986.0
977.0
968.0
963.0
963.0
961.0
960.0
958.0
957.0
961.0
965.0
963.0
961.0
957.0
955.0
960.0
963.0
962.0
959.0
958.0
962.0
964.0
965.0
961.0
962.0
959.0
960.0
962.0
963.0
964.0
962.0
959.0
958.0
961.0
966.0
961.0
961.0
958.0
958.0
961.0
962.0
961.0
962.0
966.0
977.0
997.0
1016.0
1030.0
1043.0
1054.0
1052.0
1046.0
1054.0
1065.0
1070.0
1075.0
1077.0
1081.0
1084.0
1085.0
1087.0
1087.0
1087.0
1083.0
1072.0
1035.0
1003.0
976.0
955.0
930.0
901.0
879.0
861.0
853.0
859.0
878.0
893.0
900.0
903.0
910.0
919.0
930.0
937.0
938.0
940.0
942.0
938.0
941.0
945.0
943.0
939.0
941.0
940.0
941.0
942.0
942.0
937.0
938.0
938.0
940.0
940.0
939.0
938.0
934.0
935.0
935.0
936.0
934.0
931.0
932.0
933.0
935.0
937.0
933.0
932.0
931.0
931.0
933.0
935.0
935.0
934.0
933.0
932.0
930.0
935.0
934.0
935.0
933.0
931.0
932.0
936.0
936.0
935.0
936.0
934.0
934.0
937.0
936.0
938.0
937.0
939.0
943.0
946.0
946.0
945.0
942.0
946.0
946.0
950.0
950.0
952.0
950.0
953.0
956.0
960.0
959.0
962.0
961.0
966.0
968.0
972.0
974.0
974.0
975.0
975.0
977.0
982.0
981.0
979.0
979.0
978.0
981.0
984.0
984.0
983.0
983.0
980.0
983.0
981.0
984.0
985.0
982.0
981.0
981.0
982.0
983.0
982.0
980.0
978.0
981.0
983.0
982.0
980.0
977.0
975.0
977.0
978.0
979.0
978.0
975.0
974.0
975.0
974.0
970.0
972.0
969.0
969.0
971.0
971.0
970.0
968.0
967.0
966.0
966.0
969.0
967.0
965.0
965.0
966.0
969.0
964.0
949.0
933.0
925.0
923.0
927.0
932.0
949.0
966.0
961.0
935.0
909.0
884.0
857.0
852.0
862.0
879.0
874.0
853.0
816.0
781.0
755.0
735.0
729.0
736.0
741.0
749.0
761.0
780.0
799.0
810.0
812.0
821.0
836.0
853.0
870.0
879.0
889.0
899.0
912.0
928.0
943.0
956.0
964.0
972.0
974.0
976.0
978.0
984.0
987.0
990.0
991.0
990.0
991.0
995.0
995.0
995.0
996.0
996.0
997.0
1001.0
1001.0
999.0
1001.0
1002.0
1005.0
1007.0
1008.0
1008.0
1012.0
1010.0
1013.0
1017.0
1016.0
1016.0
1016.0
1015.0
1019.0
1025.0
1024.0
1025.0
1027.0
1026.0
1029.0
1031.0
1031.0
1034.0
1032.0
1032.0
1035.0
1041.0
1040.0
1041.0
1040.0
1041.0
1047.0
1049.0
1047.0
1048.0
1047.0
1046.0
1049.0
1051.0
1052.0
1050.0
1050.0
1049.0
1054.0
1056.0
1060.0
1059.0
1057.0
1054.0
1057.0
1058.0
1061.0
1059.0
1061.0
1063.0
1068.0
1071.0
1069.0
1068.0
1066.0
1068.0
1069.0
1073.0
1072.0
1072.0
1071.0
1070.0
1067.0
1066.0
1061.0
1051.0
1042.0
1031.0
1026.0
1021.0
1010.0
1001.0
991.0
985.0
978.0
983.0
982.0
980.0
973.0
975.0
975.0
974.0
971.0
968.0
968.0
967.0
967.0
969.0
965.0
964.0
963.0
961.0
965.0
966.0
964.0
961.0
962.0
960.0
962.0
965.0
963.0
962.0
962.0
962.0
964.0
964.0
965.0
964.0
962.0
959.0
963.0
966.0
964.0
965.0
965.0
965.0
967.0
967.0
967.0
966.0
964.0
964.0
966.0
969.0
967.0
966.0
966.0
964.0
965.0
970.0
968.0
966.0
964.0
966.0
968.0
971.0
968.0
969.0
968.0
965.0
969.0
971.0
968.0
968.0
969.0
968.0
970.0
971.0
971.0
970.0
968.0
969.0
969.0
973.0
973.0
972.0
971.0
973.0
973.0
973.0
975.0
971.0
972.0
972.0
971.0
976.0
974.0
972.0
972.0
971.0
974.0
977.0
973.0
973.0
971.0
975.0
974.0
976.0
977.0
976.0
975.0
974.0
977.0
976.0
978.0
977.0
975.0
973.0
978.0
978.0
978.0
975.0
977.0
977.0
979.0
979.0
978.0
977.0
977.0
977.0
981.0
980.0
980.0
978.0
977.0
976.0
979.0
981.0
980.0
979.0
979.0
980.0
981.0
983.0
982.0
981.0
979.0
978.0
983.0
985.0
985.0
980.0
982.0
981.0
982.0
984.0
984.0
983.0
978.0
981.0
983.0
985.0
985.0
983.0
981.0
980.0
983.0
984.0
982.0
984.0
982.0
981.0
983.0
984.0
983.0
980.0
979.0
980.0
985.0
987.0
985.0
982.0
983.0
981.0
982.0
984.0
984.0
983.0
980.0
982.0
986.0
985.0
986.0
984.0
982.0
982.0
984.0
987.0
983.0
984.0
983.0
982.0
984.0
986.0
986.0
985.0
985.0
982.0
985.0
987.0
987.0
982.0
984.0
982.0
985.0
985.0
985.0
986.0
984.0
983.0
985.0
985.0
986.0
985.0
982.0
981.0
983.0
985.0
985.0
985.0
983.0
983.0
985.0
986.0
986.0
983.0
984.0
984.0
986.0
989.0
987.0
986.0
984.0
983.0
986.0
989.0
987.0
986.0
985.0
985.0
984.0
988.0
983.0
987.0
985.0
985.0
986.0
987.0
987.0
985.0
984.0
983.0
986.0
987.0
984.0
984.0
984.0
985.0
988.0
990.0
987.0
987.0
984.0
984.0
985.0
992.0
986.0
986.0
986.0
985.0
987.0
990.0
986.0
986.0
985.0
985.0
987.0
990.0
990.0
988.0
987.0
987.0
987.0
989.0
989.0
984.0
986.0
985.0
987.0
989.0
987.0
986.0
986.0
986.0
988.0
989.0
988.0
989.0
985.0
987.0
991.0
992.0
994.0
993.0
995.0
996.0
1000.0
1001.0
1002.0
1003.0
1001.0
1004.0
1009.0
1015.0
1016.0
1019.0
1021.0
1022.0
1027.0
1028.0
1029.0
1028.0
1027.0
1029.0
1033.0
1036.0
1036.0
1034.0
1031.0
1024.0
1021.0
1013.0
1003.0
997.0
992.0
988.0
984.0
981.0
977.0
977.0
976.0
976.0
978.0
976.0
976.0
976.0
976.0
978.0
977.0
980.0
976.0
976.0
975.0
975.0
977.0
978.0
977.0
976.0
975.0
976.0
978.0
980.0
980.0
979.0
976.0
975.0
975.0
980.0
978.0
977.0
977.0
975.0
977.0
978.0
977.0
979.0
981.0
994.0
1011.0
1029.0
1048.0
1064.0
1069.0
1061.0
1053.0
1059.0
1072.0
1079.0
1079.0
1079.0
1080.0
1082.0
1087.0
1084.0
1080.0
1078.0
1073.0
1053.0
1023.0
994.0
974.0
957.0
932.0
907.0
886.0
872.0
865.0
870.0
887.0
901.0
908.0
911.0
915.0
922.0
933.0
945.0
951.0
952.0
952.0
949.0
953.0
957.0
956.0
952.0
950.0
949.0
952.0
956.0
953.0
954.0
951.0
950.0
953.0
952.0
953.0
949.0
950.0
950.0
952.0
954.0
953.0
951.0
949.0
951.0
950.0
952.0
951.0
951.0
948.0
951.0
953.0
952.0
953.0
951.0
950.0
949.0
949.0
953.0
952.0
953.0
949.0
949.0
949.0
952.0
952.0
952.0
951.0
951.0
952.0
952.0
954.0
955.0
953.0
950.0
953.0
957.0
955.0
957.0
952.0
956.0
958.0
962.0
960.0
959.0
956.0
957.0
961.0
962.0
962.0
963.0
963.0
966.0
969.0
974.0
973.0
971.0
971.0
970.0
972.0
976.0
977.0
978.0
977.0
979.0
981.0
983.0
983.0
984.0
983.0
983.0
987.0
988.0
987.0
986.0
986.0
987.0
988.0
989.0
988.0
989.0
988.0
989.0
988.0
989.0
991.0
990.0
989.0
988.0
989.0
990.0
990.0
989.0
989.0
986.0
986.0
990.0
986.0
985.0
982.0
984.0
986.0
988.0
987.0
985.0
983.0
977.0
977.0
978.0
977.0
976.0
975.0
973.0
973.0
976.0
974.0
973.0
968.0
966.0
967.0
967.0
966.0
960.0
959.0
955.0
958.0
959.0
955.0
952.0
949.0
950.0
952.0
955.0
954.0
950.0
944.0
948.0
946.0
953.0
950.0
947.0
946.0
947.0
950.0
952.0
950.0
949.0
949.0
949.0
952.0
957.0
957.0
954.0
952.0
954.0
957.0
960.0
959.0
957.0
957.0
958.0
961.0
963.0
962.0
962.0
964.0
963.0
964.0
966.0
968.0
967.0
968.0
971.0
971.0
973.0
974.0
972.0
969.0
972.0
973.0
973.0
972.0
971.0
972.0
972.0
975.0
977.0
977.0
979.0
977.0
976.0
976.0
978.0
979.0
978.0
976.0
976.0
979.0
984.0
982.0
980.0
980.0
980.0
981.0
984.0
982.0
979.0
980.0
980.0
982.0
984.0
984.0
982.0
983.0
983.0
985.0
985.0
983.0
981.0
982.0
982.0
985.0
984.0
987.0
986.0
984.0
984.0
992.0
996.0
994.0
994.0
996.0
995.0
999.0
1004.0
1006.0
1009.0
1008.0
1012.0
1020.0
1026.0
1027.0
1026.0
1026.0
1026.0
1030.0
1037.0
1038.0
1039.0
1038.0
1035.0
1033.0
1025.0
1015.0
1007.0
999.0
993.0
988.0
980.0
976.0
972.0
974.0
976.0
977.0
979.0
979.0
976.0
975.0
975.0
979.0
981.0
977.0
978.0
978.0
975.0
980.0
981.0
980.0
978.0
978.0
976.0
980.0
982.0
982.0
978.0
980.0
980.0
979.0
984.0
983.0
984.0
980.0
980.0
979.0
983.0
982.0
979.0
982.0
987.0
1000.0
1020.0
1037.0
1060.0
1080.0
1092.0
1092.0
1088.0
1094.0
1100.0
1108.0
1116.0
1125.0
1127.0
1126.0
1131.0
1133.0
1135.0
1126.0
1102.0
1064.0
1025.0
989.0
951.0
919.0
894.0
878.0
870.0
878.0
895.0
909.0
917.0
921.0
927.0
932.0
942.0
951.0
953.0
953.0
952.0
949.0
948.0
949.0
953.0
952.0
953.0
951.0
948.0
951.0
953.0
951.0
948.0
947.0
948.0
949.0
950.0
948.0
949.0
945.0
944.0
946.0
947.0
947.0
945.0
944.0
944.0
945.0
949.0
946.0
946.0
944.0
943.0
949.0
951.0
948.0
948.0
945.0
949.0
950.0
952.0
951.0
949.0
948.0
947.0
952.0
954.0
954.0
950.0
949.0
952.0
955.0
961.0
960.0
959.0
958.0
960.0
964.0
962.0
966.0
966.0
967.0
969.0
971.0
974.0
976.0
977.0
978.0
978.0
985.0
987.0
991.0
988.0
990.0
992.0
993.0
998.0
1000.0
998.0
999.0
999.0
1000.0
1000.0
1003.0
1002.0
1002.0
1003.0
1003.0
1006.0
1006.0
1002.0
1002.0
1003.0
1003.0
1007.0
1003.0
1002.0
1001.0
1000.0
1002.0
1004.0
1002.0
1003.0
1001.0
998.0
1000.0
1002.0
1000.0
1000.0
998.0
998.0
996.0
999.0
998.0
996.0
995.0
995.0
996.0
999.0
998.0
992.0
992.0
992.0
990.0
992.0
991.0
990.0
985.0
986.0
988.0
985.0
983.0
982.0
982.0
982.0
985.0
983.0
982.0
979.0
977.0
976.0
978.0
981.0
980.0
978.0
974.0
974.0
976.0
979.0
979.0
978.0
974.0
974.0
975.0
978.0
978.0
978.0
976.0
971.0
977.0
981.0
981.0
981.0
978.0
980.0
980.0
982.0
984.0
981.0
979.0
982.0
986.0
987.0
987.0
985.0
986.0
986.0
987.0
990.0
987.0
987.0
989.0
989.0
990.0
992.0
990.0
992.0
991.0
991.0
991.0
994.0
995.0
990.0
990.0
991.0
993.0
996.0
995.0
996.0
995.0
991.0
995.0
998.0
999.0
998.0
997.0
1001.0
1005.0
1008.0
1008.0
1010.0
1008.0
1013.0
1016.0
1020.0
1022.0
1025.0
1029.0
1032.0
1036.0
1039.0
1040.0
1041.0
1040.0
1043.0
1048.0
1051.0
1053.0
1052.0
1048.0
1045.0
1040.0
1028.0
1022.0
1013.0
1006.0
1002.0
997.0
993.0
992.0
991.0
992.0
991.0
991.0
994.0
994.0
996.0
992.0
990.0
993.0
995.0
994.0
991.0
992.0
994.0
996.0
997.0
996.0
994.0
995.0
994.0
995.0
998.0
998.0
998.0
996.0
996.0
998.0
999.0
999.0
1000.0
998.0
996.0
1000.0
1015.0
1030.0
1047.0
1067.0
1086.0
1095.0
1089.0
1087.0
1093.0
1100.0
1109.0
1115.0
1119.0
1118.0
1118.0
1115.0
1117.0
1113.0
1098.0
1063.0
1026.0
997.0
972.0
944.0
919.0
903.0
888.0
890.0
902.0
922.0
931.0
935.0
941.0
949.0
960.0
969.0
977.0
977.0
978.0
976.0
975.0
976.0
977.0
978.0
979.0
979.0
978.0
979.0
980.0
980.0
977.0
976.0
974.0
977.0
978.0
977.0
976.0
974.0
974.0
978.0
980.0
978.0
977.0
976.0
972.0
975.0
978.0
977.0
976.0
974.0
974.0
976.0
978.0
977.0
976.0
975.0
976.0
974.0
976.0
976.0
976.0
975.0
975.0
975.0
979.0
977.0
976.0
976.0
974.0
979.0
980.0
981.0
979.0
981.0
980.0
983.0
986.0
987.0
985.0
985.0
984.0
990.0
991.0
992.0
991.0
992.0
994.0
1000.0
1000.0
999.0
999.0
1000.0
1001.0
1005.0
1009.0
1009.0
1008.0
1010.0
1012.0
1015.0
1016.0
1018.0
1015.0
1014.0
1016.0
1018.0
1019.0
1019.0
1015.0
1015.0
1014.0
1018.0
1018.0
1019.0
1018.0
1018.0
1019.0
1018.0
1020.0
1020.0
1019.0
1015.0
1017.0
1016.0
1017.0
1018.0
1016.0
1014.0
1012.0
1014.0
1016.0
1017.0
1015.0
1012.0
1009.0
1010.0
1017.0
1014.0
1010.0
1011.0
1009.0
1011.0
1009.0
1010.0
1010.0
1007.0
1007.0
1008.0
1007.0
1007.0
1002.0
1000.0
999.0
999.0
999.0
996.0
991.0
989.0
989.0
992.0
991.0
991.0
989.0
985.0
984.0
987.0
988.0
987.0
986.0
983.0
983.0
984.0
986.0
986.0
983.0
983.0
982.0
984.0
986.0
985.0
985.0
986.0
987.0
990.0
988.0
989.0
990.0
990.0
989.0
994.0
994.0
994.0
991.0
989.0
991.0
996.0
998.0
999.0
996.0
995.0
996.0
997.0
