# Simple Text Format
# Sampling Rate (Hz):= 360.00
# Resolution:= 12
# Labels:= ECG
1044.0
1044.0
1042.0
1039.0
1039.0
1042.0
1047.0
1044.0
1040.0
1038.0
1040.0
1040.0
1043.0
1044.0
1039.0
1035.0
1038.0
1041.0
1044.0
1042.0
1040.0
1036.0
1038.0
1038.0
1041.0
1040.0
1038.0
1036.0
1036.0
1038.0
1040.0
1042.0
1040.0
1035.0
1040.0
1040.0
1045.0
1042.0
1039.0
1037.0
1038.0
1041.0
1043.0
1043.0
1041.0
1038.0
1038.0
1042.0
1043.0
1043.0
1041.0
1041.0
1040.0
1043.0
1045.0
1043.0
1041.0
1036.0
1042.0
1044.0
1045.0
1045.0
1043.0
1042.0
1039.0
1041.0
1047.0
1045.0
1044.0
1042.0
1044.0
1046.0
1048.0
1046.0
1047.0
1041.0
1043.0
1047.0
1050.0
1049.0
1048.0
1048.0
1050.0
1052.0
1058.0
1054.0
1057.0
1054.0
1056.0
1059.0
1063.0
1061.0
1059.0
1058.0
1061.0
1062.0
1061.0
1060.0
1054.0
1053.0
1054.0
1052.0
1058.0
1057.0
1057.0
1056.0
1056.0
1057.0
1060.0
1060.0
1056.0
1055.0
1056.0
1059.0
1060.0
1056.0
1051.0
1048.0
1046.0
1052.0
1056.0
1056.0
1054.0
1049.0
1048.0
1053.0
1054.0
1053.0
1049.0
1048.0
1051.0
1054.0
1057.0
1053.0
1051.0
1050.0
1049.0
1052.0
1055.0
1052.0
1053.0
1050.0
1051.0
1051.0
1055.0
1059.0
1055.0
1054.0
1056.0
1061.0
1063.0
1066.0
1066.0
1075.0
1084.0
1097.0
1110.0
1119.0
1128.0
1145.0
1171.0
1202.0
1226.0
1250.0
1275.0
1300.0
1328.0
1369.0
1408.0
1432.0
1432.0
1403.0
1342.0
1261.0
1181.0
1118.0
1076.0
1054.0
1046.0
1050.0
1056.0
1055.0
1052.0
1051.0
1050.0
1051.0
1052.0
1049.0
1044.0
1042.0
1038.0
1043.0
1046.0
1043.0
1039.0
1039.0
1039.0
1041.0
1044.0
1042.0
1040.0
1038.0
1039.0
1041.0
1043.0
1039.0
1036.0
1033.0
1034.0
1037.0
1041.0
1036.0
1037.0
1034.0
1032.0
1036.0
1035.0
1035.0
1035.0
1031.0
1030.0
1034.0
1035.0
1034.0
1031.0
1029.0
1031.0
1034.0
1038.0
1034.0
1035.0
1029.0
1029.0
1033.0
1036.0
1035.0
1036.0
1030.0
1031.0
1037.0
1041.0
1040.0
1037.0
1036.0
1039.0
1042.0
1042.0
1041.0
1039.0
1039.0
1040.0
1046.0
1048.0
1047.0
1045.0
1044.0
1048.0
1052.0
1055.0
1057.0
1055.0
1057.0
1059.0
1064.0
1069.0
1070.0
1070.0
1073.0
1075.0
1086.0
1088.0
1091.0
1090.0
1092.0
1093.0
1099.0
1105.0
1105.0
1101.0
1098.0
1100.0
1099.0
1101.0
1102.0
1095.0
1091.0
1088.0
1089.0
1090.0
1087.0
1082.0
1077.0
1075.0
1077.0
1077.0
1073.0
1068.0
1066.0
1065.0
1067.0
1066.0
1063.0
1060.0
1060.0
1060.0
1057.0
1065.0
1061.0
1059.0
1055.0
1058.0
1060.0
1062.0
1059.0
1057.0
1053.0
1052.0
1057.0
1059.0
1058.0
1053.0
1051.0
1051.0
1053.0
1057.0
1054.0
1052.0
1049.0
1048.0
1052.0
1053.0
1050.0
1047.0
1045.0
1048.0
1048.0
1051.0
1050.0
1048.0
1043.0
1044.0
1047.0
1051.0
1046.0
1047.0
1044.0
1046.0
1046.0
1049.0
1048.0
1047.0
1045.0
1047.0
1052.0
1054.0
1049.0
1048.0
1046.0
1046.0
1051.0
1053.0
1054.0
1051.0
1046.0
1047.0
1049.0
1052.0
1049.0
1046.0
1044.0
1047.0
1051.0
1050.0
1050.0
1048.0
1043.0
1045.0
1049.0
1052.0
1051.0
1046.0
1045.0
1045.0
1046.0
1048.0
1046.0
1044.0
1043.0
1042.0
1044.0
1048.0
1043.0
1042.0
1041.0
1042.0
1045.0
1045.0
1044.0
1041.0
1040.0
1039.0
1043.0
1045.0
1045.0
1042.0
1038.0
1041.0
1042.0
1043.0
1044.0
1039.0
1039.0
1040.0
1044.0
1048.0
1044.0
1041.0
1040.0
1040.0
1043.0
1044.0
1047.0
1041.0
1040.0
1040.0
1042.0
1043.0
1043.0
1039.0
1039.0
1037.0
1044.0
1045.0
1046.0
1042.0
1040.0
1042.0
1044.0
1045.0
1044.0
1040.0
1039.0
1037.0
1042.0
1047.0
1045.0
1039.0
1038.0
1038.0
1042.0
1043.0
1041.0
1041.0
1040.0
1041.0
1046.0
1045.0
1042.0
1039.0
1036.0
1040.0
1040.0
1045.0
1043.0
1041.0
1040.0
1039.0
1043.0
1047.0
1046.0
1046.0
1044.0
1045.0
1048.0
1052.0
1052.0
1051.0
1049.0
1050.0
1054.0
1056.0
1053.0
1051.0
1045.0
1044.0
1046.0
1050.0
1047.0
1043.0
1043.0
1044.0
1045.0
1047.0
1047.0
1047.0
1047.0
1048.0
1051.0
1051.0
1050.0
1047.0
1040.0
1041.0
1042.0
1042.0
1044.0
1039.0
1035.0
1037.0
1036.0
1041.0
1040.0
1038.0
1038.0
1039.0
1038.0
1041.0
1039.0
1036.0
1036.0
1036.0
1038.0
1039.0
1038.0
1036.0
1034.0
1037.0
1039.0
1040.0
1039.0
1035.0
1034.0
1036.0
1036.0
1039.0
1041.0
1042.0
1040.0
1046.0
1051.0
1058.0
1064.0
1072.0
1081.0
1088.0
1100.0
1115.0
1136.0
1159.0
1183.0
1208.0
1238.0
1266.0
1291.0
1323.0
1360.0
1400.0
1421.0
1411.0
1359.0
1277.0
1195.0
1123.0
1077.0
1047.0
1029.0
1022.0
1023.0
1031.0
1032.0
1034.0
1032.0
1028.0
1026.0
1022.0
1021.0
1023.0
1021.0
1018.0
1015.0
1018.0
1018.0
1019.0
1018.0
1013.0
1012.0
1011.0
1015.0
1018.0
1016.0
1012.0
1010.0
1010.0
1011.0
1013.0
1014.0
1010.0
1008.0
1008.0
1011.0
1009.0
1010.0
1005.0
1007.0
1005.0
1010.0
1011.0
1007.0
1004.0
1003.0
1004.0
1006.0
1009.0
1009.0
1006.0
1003.0
1004.0
1007.0
1008.0
1005.0
1003.0
1000.0
1005.0
1007.0
1008.0
1008.0
1003.0
1005.0
1004.0
1011.0
1013.0
1011.0
1007.0
1007.0
1010.0
1012.0
1015.0
1015.0
1011.0
1013.0
1015.0
1018.0
1019.0
1020.0
1018.0
1019.0
1023.0
1026.0
1031.0
1029.0
1028.0
1030.0
1031.0
1036.0
1044.0
1044.0
1046.0
1044.0
1048.0
1054.0
1059.0
1061.0
1060.0
1063.0
1066.0
1074.0
1076.0
1077.0
1078.0
1073.0
1077.0
1078.0
1080.0
1077.0
1073.0
1070.0
1068.0
1072.0
1068.0
1066.0
1063.0
1057.0
1056.0
1056.0
1055.0
1050.0
1047.0
1043.0
1045.0
1047.0
1045.0
1044.0
1042.0
1037.0
1039.0
1042.0
1040.0
1042.0
1037.0
1038.0
1039.0
1039.0
1040.0
1038.0
1037.0
1037.0
1036.0
1038.0
1038.0
1037.0
1034.0
1030.0
1033.0
1033.0
1039.0
1033.0
1034.0
1032.0
1032.0
1034.0
1038.0
1032.0
1032.0
1030.0
1030.0
1031.0
1034.0
1031.0
1028.0
1029.0
1030.0
1034.0
1035.0
1034.0
1031.0
1030.0
1030.0
1034.0
1036.0
1036.0
1033.0
1030.0
1034.0
1034.0
1036.0
1036.0
1032.0
1034.0
1034.0
1036.0
1039.0
1038.0
1031.0
1032.0
1036.0
1037.0
1038.0
1037.0
1033.0
1030.0
1033.0
1036.0
1036.0
1036.0
1032.0
1029.0
1031.0
1036.0
1035.0
1036.0
1031.0
1031.0
1030.0
1033.0
1033.0
1030.0
1029.0
1027.0
1031.0
1032.0
1035.0
1031.0
1030.0
1028.0
1027.0
1031.0
1032.0
1030.0
1027.0
1028.0
1028.0
1030.0
1033.0
1030.0
1029.0
1029.0
1028.0
1030.0
1031.0
1028.0
1026.0
1026.0
1028.0
1032.0
1033.0
1031.0
1027.0
1025.0
1027.0
1031.0
1031.0
1032.0
1028.0
1026.0
1028.0
1031.0
1029.0
1030.0
1028.0
1024.0
1026.0
1030.0
1030.0
1028.0
1025.0
1025.0
1027.0
1030.0
1032.0
1031.0
1026.0
1023.0
1025.0
1027.0
1031.0
1030.0
1027.0
1026.0
1027.0
1028.0
1032.0
1029.0
1028.0
1026.0
1025.0
1030.0
1031.0
1030.0
1028.0
1025.0
1031.0
1032.0
1033.0
1035.0
1029.0
1031.0
1030.0
1035.0
1037.0
1039.0
1037.0
1036.0
1038.0
1041.0
1043.0
1044.0
1042.0
1041.0
1044.0
1045.0
1047.0
1044.0
1044.0
1041.0
1039.0
1041.0
1042.0
1040.0
1037.0
1035.0
1038.0
1037.0
1041.0
1040.0
1039.0
1036.0
1039.0
1042.0
1046.0
1043.0
1037.0
1035.0
1035.0
1035.0
1037.0
1033.0
1032.0
1031.0
1031.0
1035.0
1036.0
1034.0
1034.0
1031.0
1032.0
1033.0
1038.0
1032.0
1033.0
1031.0
1032.0
1035.0
1036.0
1032.0
1030.0
1029.0
1030.0
1033.0
1036.0
1034.0
1033.0
1030.0
1032.0
1031.0
1036.0
1036.0
1035.0
1037.0
1041.0
1046.0
1053.0
1058.0
1062.0
1075.0
1086.0
1096.0
1109.0
1130.0
1155.0
1184.0
1216.0
1246.0
1277.0
1306.0
1338.0
1375.0
1411.0
1433.0
1426.0
1389.0
1318.0
1233.0
1155.0
1102.0
1061.0
1038.0
1023.0
1024.0
1030.0
1036.0
1035.0
1032.0
1029.0
1026.0
1021.0
1022.0
1021.0
1020.0
1017.0
1016.0
1017.0
1018.0
1020.0
1017.0
1014.0
1012.0
1016.0
1018.0
1017.0
1014.0
1015.0
1013.0
1012.0
1016.0
1018.0
1015.0
1011.0
1008.0
1009.0
1013.0
1014.0
1011.0
1011.0
1006.0
1008.0
1013.0
1011.0
1008.0
1007.0
1005.0
1007.0
1008.0
1007.0
1009.0
1007.0
1006.0
1009.0
1010.0
1014.0
1010.0
1009.0
1010.0
1012.0
1015.0
1013.0
1015.0
1013.0
1012.0
1015.0
1020.0
1023.0
1022.0
1022.0
1022.0
1025.0
1032.0
1036.0
1037.0
1033.0
1038.0
1045.0
1052.0
1055.0
1060.0
1065.0
1065.0
1074.0
1078.0
1082.0
1080.0
1081.0
1080.0
1081.0
1087.0
1085.0
1081.0
1076.0
1071.0
1073.0
1070.0
1067.0
1062.0
1057.0
1053.0
1053.0
1057.0
1054.0
1054.0
1048.0
1046.0
1048.0
1048.0
1047.0
1045.0
1042.0
1041.0
1042.0
1046.0
1046.0
1044.0
1041.0
1040.0
1042.0
1046.0
1044.0
1042.0
1039.0
1036.0
1037.0
1041.0
1044.0
1042.0
1038.0
1035.0
1035.0
1039.0
1040.0
1038.0
1036.0
1034.0
1037.0
1040.0
1039.0
1038.0
1033.0
1033.0
1035.0
1038.0
1039.0
1038.0
1035.0
1034.0
1036.0
1039.0
1041.0
1039.0
1035.0
1036.0
1038.0
1039.0
1040.0
1040.0
1036.0
1038.0
1040.0
1041.0
1043.0
1044.0
1038.0
1039.0
1040.0
1042.0
1043.0
1042.0
1040.0
1038.0
1039.0
1043.0
1042.0
1041.0
1037.0
1036.0
1038.0
1040.0
1042.0
1040.0
1037.0
1035.0
1037.0
1039.0
1040.0
1040.0
1035.0
1035.0
1036.0
1039.0
1042.0
1036.0
1035.0
1033.0
1035.0
1041.0
1040.0
1039.0
1035.0
1034.0
1036.0
1035.0
1036.0
1037.0
1033.0
1033.0
1033.0
1034.0
1035.0
1034.0
1030.0
1029.0
1031.0
1033.0
1035.0
1031.0
1028.0
1029.0
1028.0
1032.0
1034.0
1032.0
1030.0
1027.0
1026.0
1030.0
1030.0
1030.0
1026.0
1027.0
1029.0
1032.0
1033.0
1030.0
1025.0
1025.0
1027.0
1029.0
1031.0
1029.0
1028.0
1029.0
1029.0
1032.0
1030.0
1028.0
1026.0
1026.0
1026.0
1029.0
1032.0
1031.0
1025.0
1024.0
1025.0
1030.0
1031.0
1031.0
1027.0
1024.0
1029.0
1030.0
1033.0
1029.0
1027.0
1027.0
1029.0
1029.0
1031.0
1028.0
1025.0
1022.0
1026.0
1029.0
1032.0
1029.0
1026.0
1025.0
1026.0
1030.0
1033.0
1031.0
1028.0
1028.0
1033.0
1037.0
1037.0
1035.0
1036.0
1035.0
1036.0
1040.0
1040.0
1035.0
1032.0
1030.0
1032.0
1035.0
1037.0
1034.0
1031.0
1027.0
1030.0
1036.0
1036.0
1036.0
1036.0
1035.0
1036.0
1038.0
1038.0
1034.0
1032.0
1027.0
1029.0
1031.0
1032.0
1028.0
1026.0
1025.0
1025.0
1031.0
1032.0
1028.0
1027.0
1027.0
1026.0
1029.0
1031.0
1030.0
1028.0
1027.0
1029.0
1029.0
1030.0
1026.0
1028.0
1027.0
1028.0
1029.0
1032.0
1031.0
1027.0
1026.0
1028.0
1030.0
1032.0
1033.0
1033.0
1035.0
1040.0
1047.0
1052.0
1060.0
1069.0
1077.0
1087.0
1098.0
1113.0
1131.0
1152.0
1176.0
1202.0
1230.0
1255.0
1281.0
1309.0
1347.0
1385.0
1408.0
1406.0
1366.0
1295.0
1207.0
1130.0
1081.0
1046.0
1023.0
1017.0
1019.0
1023.0
1026.0
1026.0
1027.0
1024.0
1023.0
1020.0
1020.0
1016.0
1015.0
1012.0
1009.0
1011.0
1013.0
1014.0
1010.0
1006.0
1009.0
1008.0
1012.0
1013.0
1009.0
1007.0
1006.0
1008.0
1009.0
1011.0
1007.0
1007.0
1004.0
1006.0
1008.0
1009.0
1006.0
1003.0
1003.0
1005.0
1006.0
1008.0
1003.0
1002.0
1001.0
1003.0
1005.0
1005.0
1004.0
999.0
1000.0
1002.0
1002.0
1004.0
1002.0
1001.0
998.0
998.0
1001.0
1004.0
999.0
1001.0
998.0
997.0
1002.0
1003.0
1000.0
997.0
1001.0
1003.0
1004.0
1006.0
1003.0
1001.0
1001.0
1002.0
1005.0
1007.0
1005.0
1003.0
1002.0
1006.0
1009.0
1012.0
1010.0
1008.0
1011.0
1014.0
1016.0
1020.0
1019.0
1016.0
1018.0
1023.0
1026.0
1031.0
1033.0
1032.0
1032.0
1036.0
1042.0
1043.0
1043.0
1045.0
1047.0
1053.0
1057.0
1060.0
1062.0
1059.0
1059.0
1063.0
1066.0
1065.0
1065.0
1062.0
1060.0
1060.0
1060.0
1057.0
1057.0
1052.0
1050.0
1048.0
1048.0
1046.0
1042.0
1040.0
1038.0
1037.0
1037.0
1039.0
1035.0
1032.0
1032.0
1029.0
1031.0
1030.0
1029.0
1028.0
1027.0
1028.0
1029.0
1030.0
1028.0
1026.0
1025.0
1027.0
1029.0
1026.0
1026.0
1023.0
1023.0
1023.0
1025.0
1026.0
1022.0
1020.0
1020.0
1023.0
1024.0
1024.0
1022.0
1019.0
1016.0
1019.0
1023.0
1023.0
1022.0
1018.0
1018.0
1018.0
1019.0
1021.0
1019.0
1019.0
1019.0
1020.0
1023.0
1022.0
1021.0
1017.0
1016.0
1019.0
1025.0
1025.0
1025.0
1020.0
1018.0
1023.0
1024.0
1026.0
1024.0
1020.0
1021.0
1023.0
1026.0
1027.0
1024.0
1023.0
1023.0
1027.0
1036.0
1043.0
1053.0
1067.0
1092.0
1121.0
1144.0
1158.0
1158.0
1143.0
1116.0
1074.0
1011.0
933.0
841.0
743.0
667.0
631.0
625.0
620.0
619.0
608.0
615.0
635.0
661.0
696.0
731.0
759.0
782.0
811.0
839.0
853.0
865.0
882.0
895.0
911.0
924.0
930.0
936.0
943.0
952.0
964.0
980.0
992.0
1002.0
1008.0
1018.0
1029.0
1040.0
1047.0
1050.0
1049.0
1052.0
1056.0
1061.0
1065.0
1066.0
1067.0
1069.0
1071.0
1075.0
1075.0
1072.0
1072.0
1075.0
1079.0
1083.0
1087.0
1085.0
1083.0
1085.0
1090.0
1095.0
1095.0
1098.0
1098.0
1100.0
1100.0
1106.0
1107.0
1109.0
1109.0
1111.0
1117.0
1121.0
1127.0
1127.0
1131.0
1132.0
1139.0
1148.0
1152.0
1155.0
1157.0
1162.0
1171.0
1178.0
1181.0
1186.0
1190.0
1194.0
1204.0
1211.0
1220.0
1220.0
1226.0
1231.0
1242.0
1251.0
1256.0
1260.0
1259.0
1263.0
1266.0
1273.0
1275.0
1276.0
1272.0
1273.0
1273.0
1268.0
1267.0
1262.0
1254.0
1252.0
1245.0
1243.0
1236.0
1228.0
1219.0
1213.0
1207.0
1202.0
1196.0
1184.0
1175.0
1167.0
1161.0
1154.0
1150.0
1142.0
1130.0
1126.0
1120.0
1116.0
1108.0
1102.0
1095.0
1088.0
1083.0
1083.0
1077.0
1070.0
1065.0
1062.0
1057.0
1059.0
1054.0
1050.0
1043.0
1040.0
1040.0
1044.0
1042.0
1035.0
1035.0
1031.0
1033.0
1036.0
1034.0
1030.0
1026.0
1028.0
1030.0
1030.0
1030.0
1027.0
1024.0
1024.0
1026.0
1028.0
1027.0
1024.0
1024.0
1022.0
1026.0
1026.0
1026.0
1026.0
1024.0
1022.0
1023.0
1025.0
1024.0
1021.0
1020.0
1018.0
1020.0
1022.0
1023.0
1020.0
1016.0
1013.0
1018.0
1021.0
1017.0
1016.0
1013.0
1013.0
1014.0
1017.0
1015.0
1014.0
1009.0
1012.0
1012.0
1012.0
1013.0
1012.0
1008.0
1010.0
1010.0
1013.0
1013.0
1011.0
1008.0
1008.0
1009.0
1009.0
1010.0
1007.0
1004.0
1008.0
1008.0
1011.0
1010.0
1010.0
1005.0
1004.0
1008.0
1010.0
1010.0
1007.0
1004.0
1004.0
1005.0
1008.0
1007.0
1007.0
1004.0
1004.0
1006.0
1010.0
1008.0
1008.0
1004.0
1003.0
1008.0
1010.0
1010.0
1008.0
1003.0
1003.0
1006.0
1009.0
1008.0
1006.0
1005.0
1004.0
1008.0
1007.0
1009.0
1006.0
1004.0
1005.0
1008.0
1011.0
1010.0
1008.0
1007.0
1003.0
1008.0
1010.0
1008.0
1010.0
1007.0
1006.0
1007.0
1012.0
1010.0
1009.0
1006.0
1005.0
1009.0
1010.0
1010.0
1009.0
1006.0
1007.0
1008.0
1010.0
1012.0
1010.0
1008.0
1009.0
1009.0
1013.0
1014.0
1010.0
1010.0
1010.0
1013.0
1013.0
1011.0
1011.0
1007.0
1010.0
1012.0
1017.0
1016.0
1012.0
1012.0
1011.0
1012.0
1015.0
1017.0
1015.0
1012.0
1009.0
1016.0
1017.0
1018.0
1015.0
1011.0
1012.0
1016.0
1018.0
1018.0
1016.0
1013.0
1013.0
1017.0
1017.0
1019.0
1017.0
1015.0
1012.0
1016.0
1019.0
1018.0
1021.0
1017.0
1017.0
1020.0
1024.0
1023.0
1021.0
1018.0
1016.0
1020.0
1021.0
1023.0
1020.0
1019.0
1018.0
1023.0
1023.0
1024.0
1019.0
1020.0
1018.0
1022.0
1026.0
1026.0
1024.0
1020.0
1020.0
1023.0
1023.0
1023.0
1022.0
1020.0
1020.0
1023.0
1025.0
1024.0
1023.0
1021.0
1020.0
1022.0
1025.0
1023.0
1023.0
1020.0
1022.0
1023.0
1025.0
1024.0
1023.0
1021.0
1021.0
1024.0
1025.0
1024.0
1024.0
1022.0
1023.0
1024.0
1025.0
1027.0
1025.0
1021.0
1023.0
1024.0
1028.0
1028.0
1027.0
1024.0
1026.0
1025.0
1030.0
1031.0
1026.0
1022.0
1025.0
1028.0
1030.0
1030.0
1028.0
1024.0
1025.0
1026.0
1031.0
1032.0
1031.0
1027.0
1028.0
1029.0
1031.0
1031.0
1031.0
1024.0
1027.0
1031.0
1033.0
1034.0
1033.0
1030.0
1030.0
1031.0
1032.0
1031.0
1030.0
1030.0
1031.0
1033.0
1035.0
1036.0
1033.0
1027.0
1031.0
1032.0
1034.0
1038.0
1035.0
1033.0
1031.0
1032.0
1036.0
1035.0
1032.0
1030.0
1030.0
1033.0
1035.0
1036.0
1032.0
1029.0
1032.0
1033.0
1035.0
1037.0
1035.0
1030.0
1031.0
1033.0
1036.0
1037.0
1033.0
1032.0
1031.0
1032.0
1036.0
1035.0
1031.0
1031.0
1032.0
1035.0
1037.0
1038.0
1036.0
1032.0
1033.0
1034.0
1038.0
1038.0
1035.0
1032.0
1034.0
1038.0
1037.0
1039.0
1035.0
1037.0
1036.0
1037.0
1040.0
1039.0
1040.0
1037.0
1037.0
1042.0
1046.0
1047.0
1046.0
1043.0
1041.0
1046.0
1051.0
1051.0
1048.0
1046.0
1047.0
1047.0
1049.0
1047.0
1043.0
1039.0
1041.0
1043.0
1048.0
1048.0
1046.0
1044.0
1043.0
1048.0
1051.0
1050.0
1048.0
1048.0
1048.0
1047.0
1047.0
1043.0
1039.0
1040.0
1040.0
1041.0
1045.0
1042.0
1040.0
1037.0
1038.0
1040.0
1043.0
1039.0
1037.0
1036.0
1037.0
1037.0
1041.0
1040.0
1038.0
1037.0
1037.0
1037.0
1039.0
1041.0
1038.0
1038.0
1038.0
1044.0
1047.0
1044.0
1047.0
1048.0
1056.0
1065.0
1077.0
1087.0
1092.0
1098.0
1115.0
1140.0
1171.0
1204.0
1234.0
1266.0
1297.0
1339.0
1383.0
1417.0
1436.0
1423.0
1368.0
1285.0
1192.0
1117.0
1066.0
1041.0
1042.0
1045.0
1051.0
1048.0
1042.0
1037.0
1039.0
1036.0
1035.0
1031.0
1026.0
1023.0
1022.0
1024.0
1024.0
1024.0
1019.0
1016.0
1015.0
1016.0
1017.0
1016.0
1016.0
1010.0
1009.0
1015.0
1016.0
1017.0
1013.0
1010.0
1011.0
1013.0
1017.0
1016.0
1012.0
1009.0
1010.0
1011.0
1012.0
1012.0
1010.0
1009.0
1009.0
1008.0
1015.0
1012.0
1009.0
1007.0
1009.0
1012.0
1018.0
1017.0
1015.0
1013.0
1015.0
1015.0
1019.0
1017.0
1016.0
1015.0
1014.0
1017.0
1022.0
1020.0
1020.0
1018.0
1019.0
1021.0
1023.0
1021.0
1019.0
1018.0
1021.0
1024.0
1027.0
1026.0
1025.0
1023.0
1026.0
1028.0
1032.0
1031.0
1035.0
1034.0
1035.0
1038.0
1043.0
1044.0
1043.0
1042.0
1043.0
1050.0
1054.0
1054.0
1056.0
1056.0
1062.0
1068.0
1072.0
1074.0
1074.0
1075.0
1075.0
1079.0
1081.0
1081.0
1082.0
1077.0
1080.0
1081.0
1083.0
1080.0
1078.0
1072.0
1074.0
1074.0
1074.0
1074.0
1069.0
1063.0
1061.0
1063.0
1067.0
1062.0
1060.0
1055.0
1055.0
1057.0
1057.0
1054.0
1052.0
1050.0
1049.0
1049.0
1051.0
1051.0
1050.0
1045.0
1044.0
1046.0
1050.0
1049.0
1044.0
1041.0
1042.0
1042.0
1044.0
1044.0
1041.0
1041.0
1039.0
1041.0
1044.0
1042.0
1038.0
1035.0
1038.0
1040.0
1042.0
1041.0
1038.0
1038.0
1040.0
1040.0
1041.0
1041.0
1042.0
1039.0
1039.0
1041.0
1043.0
1042.0
1041.0
1038.0
1041.0
1041.0
1042.0
1042.0
1038.0
1036.0
1037.0
1040.0
1039.0
1039.0
1036.0
1034.0
1033.0
1034.0
1035.0
1037.0
1034.0
1031.0
1031.0
1030.0
1033.0
1032.0
1030.0
1027.0
1027.0
1031.0
1033.0
1032.0
1031.0
1027.0
1026.0
1028.0
1030.0
1031.0
1028.0
1024.0
1024.0
1027.0
1029.0
1028.0
1027.0
1021.0
1024.0
1024.0
1029.0
1026.0
1022.0
1021.0
1020.0
1024.0
1024.0
1024.0
1021.0
1019.0
1019.0
1020.0
1023.0
1022.0
1020.0
1017.0
1017.0
1018.0
1020.0
1020.0
1020.0
1017.0
1016.0
1016.0
1018.0
1018.0
1014.0
1012.0
1014.0
1015.0
1018.0
1016.0
1014.0
1011.0
1013.0
1015.0
1017.0
1017.0
1015.0
1014.0
1018.0
1019.0
1021.0
1016.0
1013.0
1011.0
1011.0
1013.0
1016.0
1015.0
1011.0
1010.0
1013.0
1013.0
1017.0
1018.0
1014.0
1013.0
1011.0
1015.0
1015.0
1017.0
1013.0
1014.0
1012.0
1013.0
1016.0
1017.0
1013.0
1013.0
1015.0
1017.0
1019.0
1017.0
1016.0
1012.0
1015.0
1018.0
1020.0
1019.0
1017.0
1017.0
1021.0
1024.0
1027.0
1027.0
1024.0
1023.0
1024.0
1025.0
1030.0
1029.0
1028.0
1025.0
1027.0
1027.0
1029.0
1025.0
1022.0
1020.0
1020.0
1024.0
1026.0
1024.0
1024.0
1024.0
1025.0
1026.0
1029.0
1026.0
1024.0
1021.0
1020.0
1018.0
1020.0
1019.0
1018.0
1016.0
1015.0
1021.0
1023.0
1020.0
1018.0
1014.0
1016.0
1016.0
1020.0
1019.0
1020.0
1015.0
1016.0
1019.0
1020.0
1018.0
1017.0
1015.0
1015.0
1018.0
1021.0
1017.0
1017.0
1014.0
1015.0
1018.0
1021.0
1023.0
1022.0
1022.0
1025.0
1033.0
1041.0
1050.0
1060.0
1069.0
1076.0
1091.0
1111.0
1138.0
1166.0
1194.0
1223.0
1256.0
1289.0
1326.0
1366.0
1402.0
1421.0
1413.0
1369.0
1286.0
1191.0
1112.0
1062.0
1028.0
1018.0
1015.0
1015.0
1015.0
1016.0
1018.0
1018.0
1014.0
1009.0
1004.0
1003.0
1005.0
1005.0
1003.0
999.0
1000.0
1002.0
1002.0
1003.0
1002.0
998.0
998.0
995.0
1000.0
1000.0
999.0
997.0
996.0
994.0
996.0
998.0
999.0
996.0
994.0
992.0
996.0
998.0
998.0
994.0
990.0
990.0
992.0
996.0
996.0
995.0
992.0
992.0
993.0
997.0
995.0
995.0
993.0
994.0
996.0
998.0
998.0
996.0
994.0
996.0
996.0
997.0
997.0
994.0
993.0
994.0
999.0
998.0
999.0
1000.0
995.0
996.0
998.0
1003.0
1002.0
1001.0
999.0
1000.0
1005.0
1008.0
1005.0
1004.0
1003.0
1006.0
1008.0
1012.0
1015.0
1015.0
1013.0
1017.0
1020.0
1025.0
1026.0
1026.0
1029.0
1030.0
1035.0
1041.0
1042.0
1042.0
1042.0
1045.0
1050.0
1056.0
1055.0
1050.0
1054.0
1054.0
1056.0
1057.0
1054.0
1049.0
1048.0
1046.0
1048.0
1051.0
1044.0
1039.0
1036.0
1034.0
1035.0
1036.0
1034.0
1029.0
1026.0
1026.0
1026.0
1028.0
1027.0
1023.0
1020.0
1021.0
1021.0
1025.0
1025.0
1022.0
1020.0
1019.0
1022.0
1026.0
1023.0
1021.0
1018.0
1018.0
1019.0
1022.0
1024.0
1021.0
1018.0
1017.0
1019.0
1021.0
1019.0
1018.0
1015.0
1016.0
1020.0
1020.0
1019.0
1015.0
1016.0
1016.0
1020.0
1021.0
1018.0
1016.0
1014.0
1016.0
1018.0
1022.0
1021.0
1018.0
1016.0
1020.0
1021.0
1021.0
1021.0
1021.0
1020.0
1021.0
1022.0
1024.0
1021.0
1019.0
1020.0
1020.0
1023.0
1024.0
1023.0
1023.0
1019.0
1019.0
1021.0
1025.0
1023.0
1020.0
1016.0
1019.0
1021.0
1022.0
1021.0
1018.0
1016.0
1018.0
1021.0
1021.0
1021.0
1019.0
1016.0
1018.0
1019.0
1023.0
1020.0
1019.0
1015.0
1016.0
1018.0
1022.0
1016.0
1018.0
1015.0
1015.0
1019.0
1020.0
1018.0
1015.0
1014.0
1011.0
1018.0
1019.0
1019.0
1016.0
1014.0
1012.0
1016.0
1020.0
1019.0
1018.0
1015.0
1015.0
1019.0
1019.0
1017.0
1015.0
1015.0
1016.0
1017.0
1020.0
1017.0
1016.0
1015.0
1014.0
1016.0
1018.0
1019.0
1014.0
1014.0
1014.0
1015.0
1019.0
1017.0
1016.0
1014.0
1014.0
1018.0
1020.0
1016.0
1016.0
1014.0
1012.0
1016.0
1018.0
1018.0
1015.0
1012.0
1015.0
1017.0
1020.0
1018.0
1016.0
1016.0
1016.0
1018.0
1020.0
1018.0
1018.0
1015.0
1019.0
1016.0
1022.0
1020.0
1018.0
1016.0
1015.0
1018.0
1022.0
1023.0
1018.0
1017.0
1017.0
1018.0
1026.0
1024.0
1027.0
1024.0
1026.0
1029.0
1031.0
1030.0
1027.0
1025.0
1029.0
1031.0
1034.0
1033.0
1031.0
1027.0
1027.0
1028.0
1030.0
1027.0
1025.0
1025.0
1026.0
1027.0
1031.0
1031.0
1028.0
1025.0
1029.0
1030.0
1035.0
1033.0
1033.0
1029.0
1028.0
1025.0
1026.0
1026.0
1022.0
1021.0
1024.0
1025.0
1027.0
1025.0
1023.0
1021.0
1022.0
1025.0
1027.0
1025.0
1023.0
1021.0
1020.0
1023.0
1026.0
1023.0
1024.0
1019.0
1021.0
1021.0
1024.0
1021.0
1021.0
1018.0
1020.0
1020.0
1024.0
1025.0
1024.0
1024.0
1028.0
1034.0
1042.0
1047.0
1053.0
1064.0
1072.0
1081.0
1097.0
1117.0
1141.0
1163.0
1191.0
1221.0
1249.0
1275.0
1306.0
1343.0
1390.0
1420.0
1421.0
1382.0
1306.0
1214.0
1128.0
1070.0
1039.0
1023.0
1016.0
1016.0
1022.0
1023.0
1024.0
1022.0
1019.0
1012.0
1012.0
1011.0
1011.0
1008.0
1005.0
1005.0
1006.0
1007.0
1008.0
1008.0
1005.0
1002.0
1002.0
1003.0
1005.0
1003.0
1000.0
998.0
999.0
998.0
1001.0
1002.0
1000.0
997.0
996.0
999.0
1000.0
998.0
996.0
994.0
994.0
997.0
1003.0
998.0
995.0
993.0
996.0
995.0
1000.0
999.0
998.0
993.0
997.0
998.0
1002.0
1003.0
999.0
999.0
1001.0
1002.0
1003.0
1003.0
998.0
999.0
1003.0
1004.0
1009.0
1005.0
1004.0
1004.0
1004.0
1007.0
1008.0
1008.0
1007.0
1008.0
1010.0
1011.0
1015.0
1017.0
1017.0
1017.0
1019.0
1021.0
1027.0
1026.0
1025.0
1028.0
1031.0
1040.0
1042.0
1046.0
1045.0
1046.0
1051.0
1055.0
1064.0
1062.0
1060.0
1063.0
1065.0
1066.0
1069.0
1069.0
1063.0
1063.0
1063.0
1065.0
1064.0
1060.0
1056.0
1051.0
1050.0
1051.0
1055.0
1053.0
1045.0
1041.0
1041.0
1043.0
1044.0
1040.0
1038.0
1037.0
1039.0
1039.0
1039.0
1037.0
1035.0
1033.0
1037.0
1038.0
1042.0
1039.0
1037.0
1032.0
1032.0
1036.0
1037.0
1037.0
1035.0
1032.0
1035.0
1034.0
1037.0
1036.0
1031.0
1032.0
1035.0
1036.0
1037.0
1034.0
1032.0
1029.0
1032.0
1036.0
1035.0
1032.0
1030.0
1032.0
1032.0
1034.0
1037.0
1039.0
1034.0
1031.0
1032.0
1034.0
1038.0
1039.0
1036.0
1035.0
1036.0
1040.0
1043.0
1043.0
1039.0
1036.0
1038.0
1040.0
1044.0
1043.0
1038.0
1038.0
1039.0
1040.0
1042.0
1043.0
1040.0
1037.0
1039.0
1043.0
1042.0
1045.0
1041.0
1039.0
1037.0
1041.0
1041.0
1042.0
1041.0
1040.0
1042.0
1044.0
1044.0
1044.0
1038.0
1038.0
1040.0
1042.0
1043.0
1041.0
1038.0
1037.0
1040.0
1043.0
1044.0
1041.0
1041.0
1034.0
1037.0
1041.0
1041.0
1040.0
1039.0
1034.0
1034.0
1039.0
1040.0
1042.0
1039.0
1035.0
1035.0
1040.0
1042.0
1040.0
1036.0
1035.0
1039.0
1040.0
1042.0
1040.0
1037.0
1036.0
1035.0
1039.0
1042.0
1039.0
1036.0
1036.0
1037.0
1039.0
1041.0
1043.0
1041.0
1038.0
1039.0
1039.0
1040.0
1042.0
1038.0
1035.0
1036.0
1037.0
1041.0
1040.0
1041.0
1038.0
1038.0
1041.0
1043.0
1042.0
1039.0
1038.0
1040.0
1044.0
1047.0
1044.0
1044.0
1046.0
1050.0
1052.0
1055.0
1052.0
1050.0
1049.0
1051.0
1054.0
1056.0
1057.0
1054.0
1054.0
1050.0
1052.0
1050.0
1049.0
1044.0
1045.0
1048.0
1052.0
1054.0
1050.0
1051.0
1051.0
1051.0
1055.0
1055.0
1054.0
1049.0
1043.0
1040.0
1044.0
1046.0
1045.0
1042.0
1040.0
1042.0
1044.0
1042.0
1043.0
1038.0
1039.0
1041.0
1041.0
1041.0
1039.0
1038.0
1040.0
1039.0
1040.0
1043.0
1042.0
1036.0
1038.0
1042.0
1045.0
1047.0
1047.0
1045.0
1043.0
1043.0
1050.0
1054.0
1059.0
1061.0
1069.0
1080.0
1093.0
1103.0
1111.0
1123.0
1142.0
1169.0
1198.0
1221.0
1248.0
1272.0
1303.0
1344.0
1388.0
1417.0
1421.0
1391.0
1324.0
1233.0
1150.0
1091.0
1053.0
1032.0
1027.0
1031.0
1036.0
1040.0
1039.0
1034.0
1032.0
1032.0
1029.0
1030.0
1026.0
1023.0
1018.0
1019.0
1022.0
1023.0
1024.0
1021.0
1018.0
1016.0
1020.0
1020.0
1021.0
1019.0
1015.0
1017.0
1019.0
1021.0
1019.0
1016.0
1013.0
1012.0
1017.0
1018.0
1019.0
1013.0
1012.0
1012.0
1015.0
1018.0
1016.0
1014.0
1011.0
1013.0
1016.0
1017.0
1013.0
1009.0
1007.0
1011.0
1013.0
1016.0
1012.0
1009.0
1010.0
1010.0
1011.0
1015.0
1013.0
1008.0
1008.0
1012.0
1014.0
1016.0
1016.0
1012.0
1012.0
1012.0
1012.0
1015.0
1017.0
1012.0
1012.0
1013.0
1017.0
1016.0
1017.0
1015.0
1015.0
1015.0
1021.0
1021.0
1022.0
1018.0
1018.0
1021.0
1027.0
1029.0
1029.0
1029.0
1028.0
1030.0
1035.0
1039.0
1037.0
1037.0
1038.0
1040.0
1046.0
1048.0
1048.0
1050.0
1049.0
1054.0
1058.0
1062.0
1063.0
1064.0
1064.0
1067.0
1069.0
1073.0
1071.0
1069.0
1069.0
1068.0
1072.0
1071.0
1069.0
1061.0
1061.0
1059.0
1063.0
1061.0
1057.0
1052.0
1051.0
1050.0
1051.0
1054.0
1050.0
1047.0
1044.0
1045.0
1047.0
1048.0
1047.0
1044.0
1042.0
1044.0
1047.0
1048.0
1043.0
1043.0
1039.0
1039.0
1043.0
1042.0
1041.0
1040.0
1036.0
1037.0
1039.0
1041.0
1039.0
1037.0
1033.0
1036.0
1036.0
1037.0
1037.0
1035.0
1033.0
1035.0
1038.0
1041.0
1037.0
1035.0
1032.0
1034.0
1037.0
1037.0
1033.0
1033.0
1035.0
1035.0
1038.0
1039.0
1036.0
1035.0
1035.0
1038.0
1038.0
1040.0
1038.0
1037.0
1032.0
1036.0
1037.0
1039.0
1038.0
1034.0
1037.0
1037.0
1038.0
1043.0
1048.0
1055.0
1062.0
1077.0
1100.0
1124.0
1145.0
1159.0
1165.0
1164.0
1153.0
1134.0
1087.0
1019.0
941.0
858.0
770.0
702.0
665.0
653.0
647.0
643.0
649.0
658.0
664.0
681.0
708.0
739.0
770.0
797.0
820.0
836.0
853.0
867.0
885.0
899.0
913.0
923.0
933.0
940.0
949.0
957.0
966.0
973.0
982.0
996.0
1011.0
1023.0
1030.0
1036.0
1041.0
1049.0
1058.0
1061.0
1064.0
1063.0
1064.0
1070.0
1073.0
1073.0
1075.0
1076.0
1078.0
1081.0
1084.0
1086.0
1085.0
1083.0
1084.0
1087.0
1095.0
1098.0
1096.0
1096.0
1098.0
1099.0
1104.0
1107.0
1107.0
1105.0
1108.0
1111.0
1115.0
1116.0
1119.0
1118.0
1119.0
1125.0
1129.0
1134.0
1136.0
1140.0
1139.0
1149.0
1153.0
1158.0
1162.0
1166.0
1169.0
1175.0
1180.0
1190.0
