# Simple Text Format
# Sampling Rate (Hz):= 360.00
# Resolution:= 12
# Labels:= ECG
1011.0
1008.0
1004.0
1006.0
1007.0
1011.0
1008.0
1007.0
1004.0
1002.0
1006.0
1010.0
1007.0
1004.0
1002.0
1002.0
1002.0
1005.0
1008.0
1003.0
1001.0
999.0
1002.0
1001.0
1002.0
1000.0
999.0
995.0
998.0
999.0
1002.0
999.0
999.0
1000.0
1001.0
1003.0
1002.0
1001.0
1001.0
999.0
1002.0
1005.0
1005.0
1003.0
999.0
1001.0
1005.0
1008.0
1009.0
1008.0
1006.0
1008.0
1009.0
1014.0
1012.0
1013.0
1012.0
1015.0
1020.0
1023.0
1022.0
1021.0
1019.0
1024.0
1030.0
1035.0
1034.0
1034.0
1035.0
1035.0
1044.0
1048.0
1050.0
1052.0
1053.0
1056.0
1061.0
1066.0
1069.0
1070.0
1067.0
1073.0
1076.0
1080.0
1076.0
1076.0
1071.0
1072.0
1075.0
1072.0
1074.0
1070.0
1064.0
1063.0
1060.0
1062.0
1057.0
1055.0
1048.0
1046.0
1046.0
1047.0
1045.0
1040.0
1037.0
1040.0
1038.0
1041.0
1037.0
1036.0
1035.0
1034.0
1034.0
1038.0
1037.0
1032.0
1033.0
1035.0
1037.0
1040.0
1039.0
1035.0
1031.0
1029.0
1034.0
1034.0
1036.0
1033.0
1028.0
1030.0
1029.0
1032.0
1033.0
1031.0
1030.0
1027.0
1031.0
1034.0
1031.0
1031.0
1028.0
1027.0
1030.0
1032.0
1031.0
1030.0
1027.0
1026.0
1028.0
1031.0
1030.0
1029.0
1027.0
1028.0
1029.0
1033.0
1033.0
1030.0
1027.0
1030.0
1032.0
1034.0
1034.0
1031.0
1027.0
1031.0
1032.0
1035.0
1034.0
1032.0
1031.0
1030.0
1032.0
1033.0
1033.0
1030.0
1028.0
1031.0
1032.0
1034.0
1033.0
1031.0
1028.0
1030.0
1031.0
1035.0
1034.0
1030.0
1028.0
1027.0
1030.0
1033.0
1031.0
1029.0
1026.0
1029.0
1029.0
1031.0
1030.0
1027.0
1024.0
1023.0
1029.0
1029.0
1027.0
1027.0
1023.0
1025.0
1027.0
1028.0
1029.0
1025.0
1023.0
1023.0
1026.0
1026.0
1026.0
1023.0
1022.0
1023.0
1025.0
1029.0
1028.0
1024.0
1023.0
1023.0
1025.0
1026.0
1028.0
1025.0
1023.0
1022.0
1025.0
1029.0
1028.0
1025.0
1023.0
1023.0
1025.0
1029.0
1029.0
1023.0
1023.0
1024.0
1026.0
1026.0
1026.0
1026.0
1023.0
1024.0
1028.0
1030.0
1026.0
1028.0
1026.0
1024.0
1027.0
1031.0
1028.0
1026.0
1022.0
1023.0
1028.0
1027.0
1027.0
1026.0
1023.0
1024.0
1025.0
1031.0
1029.0
1028.0
1024.0
1024.0
1026.0
1029.0
1028.0
1028.0
1024.0
1027.0
1025.0
1028.0
1029.0
1027.0
1026.0
1029.0
1030.0
1031.0
1034.0
1035.0
1031.0
1034.0
1038.0
1039.0
1040.0
1038.0
1037.0
1039.0
1040.0
1044.0
1043.0
1042.0
1038.0
1037.0
1037.0
1038.0
1036.0
1034.0
1033.0
1034.0
1037.0
1041.0
1038.0
1038.0
1036.0
1037.0
1037.0
1044.0
1043.0
1039.0
1035.0
1033.0
1030.0
1033.0
1032.0
1030.0
1029.0
1028.0
1031.0
1034.0
1034.0
1032.0
1028.0
1028.0
1031.0
1034.0
1033.0
1030.0
1030.0
1027.0
1028.0
1033.0
1030.0
1028.0
1028.0
1030.0
1030.0
1032.0
1032.0
1029.0
1027.0
1029.0
1032.0
1036.0
1033.0
1033.0
1031.0
1034.0
1038.0
1050.0
1054.0
1058.0
1068.0
1080.0
1092.0
1105.0
1119.0
1140.0
1167.0
1197.0
1226.0
1255.0
1281.0
1309.0
1341.0
1379.0
1418.0
1436.0
1430.0
1385.0
1316.0
1228.0
1145.0
1085.0
1049.0
1026.0
1020.0
1019.0
1026.0
1031.0
1030.0
1028.0
1023.0
1022.0
1020.0
1019.0
1016.0
1013.0
1012.0
1009.0
1012.0
1015.0
1014.0
1012.0
1010.0
1008.0
1010.0
1013.0
1012.0
1009.0
1007.0
1008.0
1012.0
1011.0
1009.0
1006.0
1005.0
1006.0
1007.0
1008.0
1007.0
1005.0
1001.0
1001.0
1005.0
1008.0
1005.0
1003.0
1003.0
1000.0
1004.0
1005.0
1004.0
1001.0
1003.0
1003.0
1009.0
1006.0
1006.0
1003.0
1002.0
1000.0
1006.0
1009.0
1008.0
1005.0
1003.0
1002.0
1006.0
1009.0
1010.0
1008.0
1005.0
1006.0
1007.0
1011.0
1011.0
1010.0
1008.0
1008.0
1015.0
1018.0
1019.0
1021.0
1016.0
1019.0
1024.0
1029.0
1031.0
1031.0
1033.0
1036.0
1041.0
1044.0
1048.0
1048.0
1050.0
1054.0
1059.0
1065.0
1064.0
1065.0
1065.0
1069.0
1071.0
1075.0
1072.0
1070.0
1064.0
1065.0
1067.0
1070.0
1067.0
1062.0
1056.0
1052.0
1052.0
1051.0
1049.0
1046.0
1044.0
1042.0
1042.0
1040.0
1039.0
1034.0
1032.0
1032.0
1034.0
1037.0
1035.0
1031.0
1027.0
1032.0
1033.0
1040.0
1036.0
1032.0
1029.0
1029.0
1029.0
1032.0
1031.0
1030.0
1024.0
1027.0
1027.0
1031.0
1028.0
1026.0
1025.0
1025.0
1028.0
1030.0
1028.0
1024.0
1021.0
1022.0
1021.0
1023.0
1024.0
1022.0
1019.0
1020.0
1021.0
1022.0
1024.0
1020.0
1020.0
1020.0
1020.0
1025.0
1024.0
1022.0
1021.0
1020.0
1024.0
1028.0
1025.0
1021.0
1020.0
1021.0
1025.0
1026.0
1024.0
1021.0
1018.0
1019.0
1022.0
1024.0
1024.0
1020.0
1018.0
1021.0
1024.0
1025.0
1024.0
1023.0
1020.0
1019.0
1021.0
1026.0
1024.0
1022.0
1017.0
1019.0
1018.0
1023.0
1022.0
1020.0
1016.0
1015.0
1018.0
1021.0
1017.0
1017.0
1015.0
1014.0
1019.0
1023.0
1019.0
1016.0
1015.0
1015.0
1017.0
1019.0
1019.0
1020.0
1017.0
1016.0
1017.0
1020.0
1017.0
1017.0
1015.0
1016.0
1019.0
1018.0
1018.0
1016.0
1012.0
1013.0
1017.0
1018.0
1019.0
1018.0
1014.0
1013.0
1015.0
1019.0
1018.0
1016.0
1012.0
1013.0
1016.0
1017.0
1016.0
1015.0
1011.0
1013.0
1017.0
1021.0
1016.0
1011.0
1011.0
1013.0
1018.0
1019.0
1017.0
1014.0
1010.0
1013.0
1016.0
1019.0
1017.0
1015.0
1013.0
1010.0
1016.0
1014.0
1016.0
1015.0
1014.0
1014.0
1013.0
1016.0
1014.0
1011.0
1011.0
1015.0
1017.0
1020.0
1022.0
1021.0
1020.0
1020.0
1022.0
1027.0
1029.0
1025.0
1024.0
1026.0
1027.0
1030.0
1025.0
1021.0
1019.0
1021.0
1021.0
1024.0
1022.0
1020.0
1019.0
1022.0
1028.0
1028.0
1027.0
1024.0
1021.0
1021.0
1019.0
1021.0
1020.0
1015.0
1013.0
1016.0
1015.0
1019.0
1016.0
1015.0
1009.0
1011.0
1015.0
1017.0
1014.0
1012.0
1011.0
1013.0
1016.0
1016.0
1016.0
1014.0
1011.0
1014.0
1014.0
1020.0
1018.0
1015.0
1013.0
1015.0
1019.0
1023.0
1024.0
1024.0
1027.0
1034.0
1045.0
1060.0
1073.0
1080.0
1094.0
1113.0
1142.0
1174.0
1202.0
1228.0
1255.0
1288.0
1324.0
1368.0
1409.0
1428.0
1415.0
1364.0
1278.0
1179.0
1100.0
1043.0
1017.0
1009.0
1012.0
1017.0
1013.0
1013.0
1006.0
1005.0
1006.0
1003.0
998.0
994.0
991.0
992.0
996.0
997.0
996.0
993.0
990.0
989.0
993.0
992.0
990.0
988.0
987.0
987.0
990.0
990.0
990.0
987.0
985.0
987.0
987.0
992.0
988.0
986.0
983.0
982.0
986.0
988.0
988.0
984.0
981.0
982.0
983.0
988.0
986.0
983.0
983.0
983.0
983.0
986.0
987.0
985.0
983.0
983.0
986.0
988.0
987.0
983.0
983.0
983.0
986.0
990.0
989.0
987.0
985.0
986.0
992.0
992.0
991.0
989.0
987.0
989.0
994.0
996.0
996.0
992.0
991.0
995.0
999.0
1002.0
1004.0
1003.0
1002.0
1005.0
1009.0
1013.0
1014.0
1013.0
1014.0
1018.0
1022.0
1028.0
1029.0
1029.0
1032.0
1035.0
1039.0
1044.0
1048.0
1046.0
1047.0
1047.0
1051.0
1054.0
1054.0
1051.0
1047.0
1048.0
1048.0
1050.0
1045.0
1041.0
1039.0
1036.0
1035.0
1036.0
1035.0
1027.0
1025.0
1026.0
1026.0
1029.0
1026.0
1021.0
1019.0
1019.0
1021.0
1024.0
1021.0
1018.0
1018.0
1019.0
1018.0
1020.0
1019.0
1019.0
1015.0
1016.0
1019.0
1021.0
1016.0
1013.0
1013.0
1013.0
1018.0
1018.0
1017.0
1015.0
1012.0
1011.0
1011.0
1016.0
1016.0
1013.0
1009.0
1010.0
1012.0
1015.0
1012.0
1011.0
1009.0
1010.0
1014.0
1015.0
1011.0
1011.0
1011.0
1010.0
1013.0
1016.0
1016.0
1015.0
1009.0
1012.0
1013.0
1018.0
1017.0
1013.0
1011.0
1012.0
1011.0
1016.0
1014.0
1012.0
1011.0
1012.0
1012.0
1014.0
1012.0
1009.0
1008.0
1011.0
1014.0
1013.0
1013.0
1008.0
1004.0
1010.0
1012.0
1016.0
1011.0
1008.0
1006.0
1007.0
1008.0
1010.0
1010.0
1007.0
1005.0
1008.0
1010.0
1010.0
1008.0
1006.0
1003.0
1004.0
1008.0
1009.0
1007.0
1005.0
1005.0
1008.0
1010.0
1011.0
1009.0
1006.0
1004.0
1004.0
1009.0
1010.0
1009.0
1006.0
1007.0
1006.0
1007.0
1013.0
1007.0
1006.0
1006.0
1006.0
1007.0
1010.0
1010.0
1007.0
1005.0
1005.0
1010.0
1011.0
1010.0
1007.0
1005.0
1005.0
1010.0
1010.0
1009.0
1008.0
1005.0
1004.0
1007.0
1011.0
1009.0
1008.0
1008.0
1005.0
1009.0
1010.0
1012.0
1009.0
1007.0
1009.0
1011.0
1013.0
1011.0
1012.0
1011.0
1010.0
1015.0
1018.0
1020.0
1017.0
1017.0
1019.0
1023.0
1023.0
1023.0
1023.0
1021.0
1022.0
1025.0
1028.0
1023.0
1019.0
1015.0
1014.0
1017.0
1022.0
1020.0
1018.0
1017.0
1018.0
1019.0
1026.0
1024.0
1023.0
1018.0
1017.0
1016.0
1016.0
1014.0
1013.0
1010.0
1009.0
1014.0
1016.0
1014.0
1011.0
1009.0
1010.0
1012.0
1013.0
1014.0
1008.0
1007.0
1010.0
1013.0
1014.0
1012.0
1010.0
1010.0
1010.0
1011.0
1014.0
1015.0
1012.0
1009.0
1009.0
1010.0
1016.0
1014.0
1013.0
1011.0
1012.0
1016.0
1020.0
1023.0
1027.0
1032.0
1040.0
1053.0
1067.0
1075.0
1082.0
1094.0
1120.0
1151.0
1183.0
1214.0
1239.0
1268.0
1301.0
1336.0
1379.0
1419.0
1440.0
1436.0
1398.0
1328.0
1240.0
1150.0
1079.0
1033.0
1013.0
1008.0
1013.0
1013.0
1011.0
1010.0
1007.0
1006.0
1009.0
1004.0
998.0
994.0
995.0
994.0
996.0
994.0
990.0
988.0
987.0
991.0
993.0
994.0
990.0
989.0
990.0
994.0
996.0
992.0
988.0
985.0
985.0
988.0
991.0
991.0
989.0
986.0
988.0
990.0
991.0
990.0
988.0
989.0
987.0
992.0
994.0
993.0
993.0
989.0
990.0
993.0
995.0
997.0
993.0
991.0
992.0
994.0
997.0
996.0
997.0
995.0
995.0
997.0
1000.0
998.0
996.0
996.0
999.0
1002.0
1005.0
1004.0
1002.0
1000.0
1001.0
1007.0
1010.0
1012.0
1007.0
1005.0
1008.0
1011.0
1017.0
1018.0
1017.0
1019.0
1022.0
1027.0
1032.0
1033.0
1035.0
1038.0
1040.0
1045.0
1052.0
1054.0
1054.0
1055.0
1059.0
1064.0
1071.0
1070.0
1071.0
1069.0
1068.0
1072.0
1074.0
1071.0
1069.0
1067.0
1067.0
1065.0
1066.0
1059.0
1055.0
1049.0
1052.0
1049.0
1050.0
1046.0
1041.0
1036.0
1035.0
1034.0
1037.0
1035.0
1032.0
1030.0
1029.0
1031.0
1033.0
1033.0
1029.0
1029.0
1029.0
1032.0
1033.0
1032.0
1030.0
1027.0
1028.0
1033.0
1035.0
1031.0
1028.0
1028.0
1030.0
1030.0
1030.0
1028.0
1027.0
1023.0
1022.0
1027.0
1029.0
1027.0
1023.0
1022.0
1024.0
1026.0
1033.0
1038.0
1042.0
1054.0
1076.0
1103.0
1126.0
1136.0
1137.0
1128.0
1115.0
1091.0
1048.0
977.0
891.0
796.0
709.0
655.0
632.0
621.0
616.0
612.0
628.0
648.0
671.0
695.0
726.0
751.0
781.0
804.0
823.0
839.0
852.0
867.0
881.0
897.0
912.0
920.0
925.0
929.0
938.0
948.0
956.0
966.0
978.0
982.0
996.0
1008.0
1020.0
1029.0
1035.0
1038.0
1046.0
1053.0
1059.0
1057.0
1056.0
1053.0
1055.0
1061.0
1062.0
1065.0
1065.0
1068.0
1072.0
1075.0
1079.0
1077.0
1080.0
1076.0
1080.0
1082.0
1085.0
1083.0
1080.0
1082.0
1085.0
1089.0
1095.0
1097.0
1098.0
1097.0
1100.0
1104.0
1109.0
1112.0
1111.0
1112.0
1114.0
1120.0
1125.0
1127.0
1129.0
1132.0
1139.0
1146.0
1150.0
1152.0
1152.0
1156.0
1162.0
1172.0
1180.0
1186.0
1187.0
1187.0
1193.0
1202.0
1211.0
1214.0
1217.0
1223.0
1229.0
1235.0
1244.0
1246.0
1248.0
1251.0
1253.0
1257.0
1262.0
1264.0
1262.0
1260.0
1258.0
1255.0
1258.0
1250.0
1247.0
1241.0
1238.0
1233.0
1229.0
1221.0
1210.0
1200.0
1194.0
1189.0
1183.0
1173.0
1165.0
1157.0
1153.0
1147.0
1138.0
1129.0
1120.0
1110.0
1107.0
1103.0
1098.0
1092.0
1083.0
1076.0
1073.0
1069.0
1067.0
1061.0
1057.0
1051.0
1050.0
1052.0
1049.0
1047.0
1041.0
1038.0
1039.0
1040.0
1043.0
1038.0
1035.0
1031.0
1033.0
1035.0
1035.0
1032.0
1029.0
1028.0
1030.0
1032.0
1034.0
1032.0
1028.0
1025.0
1024.0
1027.0
1030.0
1026.0
1023.0
1024.0
1023.0
1024.0
1025.0
1025.0
1021.0
1019.0
1020.0
1021.0
1022.0
1017.0
1014.0
1012.0
1015.0
1018.0
1017.0
1015.0
1010.0
1005.0
1007.0
1011.0
1011.0
1007.0
1003.0
1002.0
1005.0
1006.0
1006.0
1005.0
1001.0
1001.0
999.0
1003.0
1004.0
1003.0
999.0
997.0
998.0
1000.0
1002.0
1001.0
997.0
997.0
999.0
999.0
1001.0
1002.0
997.0
994.0
994.0
999.0
999.0
999.0
995.0
994.0
996.0
997.0
999.0
997.0
996.0
993.0
994.0
995.0
998.0
997.0
997.0
995.0
992.0
996.0
1000.0
999.0
996.0
994.0
994.0
996.0
995.0
997.0
995.0
993.0
994.0
996.0
997.0
998.0
995.0
994.0
994.0
995.0
998.0
997.0
995.0
992.0
993.0
996.0
997.0
995.0
994.0
992.0
995.0
998.0
998.0
998.0
995.0
991.0
994.0
997.0
1000.0
998.0
994.0
994.0
994.0
998.0
998.0
997.0
993.0
990.0
995.0
998.0
999.0
995.0
996.0
993.0
995.0
997.0
998.0
999.0
994.0
993.0
994.0
997.0
999.0
996.0
996.0
993.0
994.0
998.0
998.0
999.0
995.0
992.0
993.0
997.0
996.0
996.0
993.0
991.0
994.0
996.0
996.0
998.0
993.0
991.0
993.0
998.0
999.0
995.0
995.0
992.0
995.0
997.0
1000.0
999.0
994.0
992.0
991.0
994.0
998.0
997.0
995.0
994.0
994.0
997.0
997.0
996.0
995.0
990.0
992.0
994.0
999.0
999.0
996.0
995.0
996.0
999.0
999.0
997.0
994.0
994.0
995.0
999.0
998.0
998.0
993.0
994.0
994.0
998.0
1003.0
998.0
996.0
994.0
996.0
999.0
1002.0
999.0
997.0
997.0
998.0
999.0
1001.0
1002.0
997.0
996.0
999.0
1001.0
1004.0
1002.0
999.0
998.0
999.0
1001.0
1002.0
1001.0
1000.0
998.0
1002.0
1002.0
1005.0
1001.0
998.0
997.0
998.0
1003.0
1006.0
1003.0
1001.0
999.0
999.0
1000.0
1003.0
1003.0
1001.0
1001.0
1001.0
1002.0
1005.0
1004.0
1000.0
1001.0
1001.0
1004.0
1005.0
1002.0
1000.0
998.0
1002.0
1001.0
1005.0
1004.0
1002.0
1000.0
1002.0
1003.0
1006.0
1003.0
1003.0
1000.0
1002.0
1006.0
1007.0
1005.0
1003.0
1002.0
1003.0
1005.0
1008.0
1008.0
1004.0
1003.0
1003.0
1007.0
1008.0
1007.0
1004.0
1004.0
1005.0
1008.0
1011.0
1010.0
1004.0
1006.0
1005.0
1009.0
1008.0
1009.0
1008.0
1005.0
1004.0
1003.0
1009.0
1007.0
1004.0
1001.0
1006.0
1007.0
1008.0
1006.0
1007.0
1004.0
1003.0
1007.0
1008.0
1009.0
1005.0
1003.0
1004.0
1006.0
1010.0
1008.0
1008.0
1005.0
1005.0
1006.0
1010.0
1006.0
1005.0
1005.0
1005.0
1008.0
1010.0
1007.0
1004.0
1004.0
1005.0
1009.0
1011.0
1010.0
1007.0
1005.0
1006.0
1010.0
1014.0
1011.0
1009.0
1009.0
1011.0
1013.0
1014.0
1013.0
1010.0
1011.0
1012.0
1018.0
1021.0
1022.0
1019.0
1019.0
1021.0
1024.0
1025.0
1027.0
1024.0
1021.0
1025.0
1025.0
1026.0
1026.0
1020.0
1018.0
1020.0
1023.0
1023.0
1022.0
1018.0
1016.0
1018.0
1022.0
1024.0
1025.0
1021.0
1019.0
1018.0
1020.0
1021.0
1019.0
1015.0
1012.0
1012.0
1012.0
1013.0
1013.0
1011.0
1009.0
1013.0
1014.0
1016.0
1014.0
1012.0
1010.0
1013.0
1014.0
1016.0
1013.0
1012.0
1011.0
1011.0
1014.0
1015.0
1013.0
1010.0
1012.0
1015.0
1017.0
1019.0
1018.0
1015.0
1015.0
1017.0
1021.0
1028.0
1029.0
1033.0
1036.0
1048.0
1060.0
1065.0
1072.0
1083.0
1104.0
1133.0
1161.0
1194.0
1226.0
1257.0
1292.0
1333.0
1375.0
1416.0
1431.0
1419.0
1371.0
1298.0
1212.0
1135.0
1075.0
1034.0
1019.0
1019.0
1023.0
1023.0
1020.0
1015.0
1012.0
1014.0
1011.0
1009.0
1003.0
998.0
997.0
997.0
1000.0
998.0
996.0
995.0
991.0
992.0
994.0
995.0
994.0
990.0
987.0
989.0
994.0
992.0
991.0
989.0
986.0
989.0
991.0
992.0
991.0
989.0
988.0
989.0
991.0
994.0
992.0
987.0
984.0
990.0
991.0
997.0
994.0
991.0
989.0
992.0
992.0
995.0
994.0
992.0
991.0
994.0
995.0
997.0
996.0
994.0
995.0
995.0
1000.0
1000.0
1000.0
996.0
995.0
997.0
1000.0
1002.0
1003.0
1002.0
1000.0
1003.0
1007.0
1008.0
1007.0
1002.0
1003.0
1007.0
1010.0
1013.0
1012.0
1005.0
1009.0
1010.0
1014.0
1018.0
1017.0
1014.0
1015.0
1016.0
1018.0
1021.0
1022.0
1021.0
1024.0
1027.0
1032.0
1033.0
1034.0
1031.0
1032.0
1035.0
1043.0
1050.0
1048.0
1051.0
1054.0
1052.0
1059.0
1063.0
1064.0
1064.0
1062.0
1065.0
1070.0
1073.0
1070.0
1070.0
1068.0
1069.0
1073.0
1073.0
1070.0
1064.0
1061.0
1062.0
1064.0
1063.0
1060.0
1057.0
1053.0
1052.0
1054.0
1055.0
1049.0
1046.0
1046.0
1045.0
1049.0
1048.0
1045.0
1043.0
1040.0
1040.0
1042.0
1042.0
1041.0
1039.0
1039.0
1040.0
1041.0
1040.0
1040.0
1037.0
1034.0
1035.0
1038.0
1036.0
1036.0
1033.0
1032.0
1035.0
1037.0
1037.0
1037.0
1034.0
1032.0
1032.0
1035.0
1037.0
1036.0
1034.0
1032.0
1034.0
1035.0
1035.0
1035.0
1029.0
1030.0
1032.0
1035.0
1036.0
1031.0
1029.0
1028.0
1030.0
1034.0
1035.0
1031.0
1027.0
1024.0
1027.0
1029.0
1032.0
1031.0
1026.0
1024.0
1025.0
1026.0
1027.0
1023.0
1021.0
1021.0
1023.0
1024.0
1024.0
1021.0
1020.0
1019.0
1021.0
1025.0
1024.0
1021.0
1019.0
1020.0
1019.0
1021.0
1021.0
1019.0
1015.0
1017.0
1018.0
1022.0
1021.0
1016.0
1014.0
1013.0
1018.0
1018.0
1018.0
1017.0
1016.0
1015.0
1015.0
1018.0
1022.0
1019.0
1015.0
1016.0
1012.0
1014.0
1016.0
1018.0
1016.0
1016.0
1015.0
1015.0
1017.0
1013.0
1010.0
1013.0
1013.0
1014.0
1016.0
1014.0
1011.0
1011.0
1014.0
1018.0
1017.0
1017.0
1013.0
1010.0
1013.0
1017.0
1019.0
1016.0
1015.0
1009.0
1014.0
1016.0
1016.0
1015.0
1015.0
1015.0
1014.0
1014.0
1017.0
1014.0
1013.0
1015.0
1016.0
1018.0
1022.0
1023.0
1021.0
1023.0
1024.0
1026.0
1026.0
1028.0
1023.0
1022.0
1024.0
1029.0
1029.0
1025.0
1020.0
1015.0
1019.0
1022.0
1022.0
1022.0
1019.0
1020.0
1020.0
1022.0
1025.0
1024.0
1024.0
1020.0
1023.0
1026.0
1026.0
1022.0
1015.0
1010.0
1011.0
1017.0
1019.0
1018.0
1016.0
1015.0
1011.0
1014.0
1015.0
1013.0
1013.0
1011.0
1013.0
1014.0
1016.0
1013.0
1011.0
1011.0
1011.0
1017.0
1016.0
1018.0
1014.0
1011.0
1013.0
1015.0
1016.0
1013.0
1014.0
1011.0
1016.0
1019.0
1022.0
1021.0
1018.0
1021.0
1028.0
1037.0
1046.0
1053.0
1063.0
1069.0
1079.0
1092.0
1110.0
1133.0
1159.0
1185.0
1215.0
1247.0
1276.0
1307.0
1342.0
1380.0
1409.0
1417.0
1388.0
1318.0
1223.0
1134.0
1072.0
1036.0
1017.0
1012.0
1013.0
1012.0
1013.0
1015.0
1016.0
1012.0
1007.0
1004.0
1002.0
1003.0
1003.0
999.0
992.0
989.0
992.0
994.0
995.0
994.0
994.0
989.0
992.0
993.0
995.0
992.0
990.0
987.0
991.0
991.0
991.0
991.0
984.0
984.0
985.0
987.0
990.0
989.0
984.0
982.0
986.0
987.0
989.0
988.0
986.0
981.0
984.0
984.0
986.0
986.0
984.0
984.0
984.0
990.0
988.0
989.0
984.0
984.0
984.0
987.0
988.0
987.0
987.0
985.0
988.0
989.0
989.0
987.0
984.0
983.0
985.0
987.0
989.0
987.0
986.0
987.0
989.0
989.0
992.0
989.0
988.0
990.0
992.0
993.0
996.0
997.0
993.0
995.0
997.0
1002.0
1002.0
1003.0
1001.0
1004.0
1008.0
1011.0
1014.0
1013.0
1012.0
1013.0
1019.0
1024.0
1026.0
1025.0
1026.0
1027.0
1033.0
1036.0
1038.0
1036.0
1036.0
1037.0
1038.0
1040.0
1042.0
1041.0
1035.0
1032.0
1034.0
1033.0
1036.0
1034.0
1028.0
1027.0
1026.0
1028.0
1027.0
1022.0
1020.0
1018.0
1019.0
1023.0
1023.0
1020.0
1017.0
1017.0
1019.0
1020.0
1020.0
1016.0
1015.0
1014.0
1015.0
1014.0
1015.0
1013.0
1012.0
1010.0
1013.0
1015.0
1017.0
1014.0
1011.0
1012.0
1012.0
1013.0
1014.0
1014.0
1010.0
1009.0
1011.0
1014.0
1014.0
1015.0
1013.0
1010.0
1015.0
1015.0
1020.0
1016.0
1014.0
1013.0
1015.0
1016.0
1018.0
1014.0
1014.0
1011.0
1011.0
1017.0
1016.0
1017.0
1014.0
1011.0
1014.0
1014.0
1016.0
1014.0
1012.0
1012.0
1014.0
1018.0
1018.0
1013.0
1011.0
1010.0
1012.0
1013.0
1014.0
1012.0
1010.0
1010.0
1010.0
1013.0
1015.0
1012.0
1010.0
1008.0
1010.0
1012.0
1014.0
1014.0
1008.0
1007.0
1008.0
1010.0
1009.0
1008.0
1006.0
1004.0
1004.0
1007.0
1010.0
1010.0
1007.0
1007.0
1009.0
1011.0
1011.0
1008.0
1005.0
1003.0
1008.0
1007.0
1009.0
1008.0
1007.0
1004.0
1005.0
1008.0
1010.0
1008.0
1007.0
1006.0
1007.0
1012.0
1010.0
1006.0
1006.0
1005.0
1007.0
1011.0
1013.0
1010.0
1007.0
1004.0
1007.0
1010.0
1015.0
1010.0
1008.0
1006.0
1007.0
1010.0
1012.0
1009.0
1007.0
1005.0
1010.0
1012.0
1011.0
1010.0
1009.0
1006.0
1011.0
1015.0
1017.0
1013.0
1011.0
1012.0
1013.0
1015.0
1015.0
1015.0
1014.0
1013.0
1016.0
1020.0
1020.0
1019.0
1017.0
1018.0
1020.0
1021.0
1026.0
1023.0
1023.0
1019.0
1025.0
1029.0
1030.0
1029.0
1023.0
1022.0
1026.0
1028.0
1027.0
1023.0
1019.0
1017.0
1021.0
1023.0
1023.0
1021.0
1021.0
1021.0
1024.0
1028.0
1031.0
1028.0
1024.0
1022.0
1021.0
1026.0
1024.0
1023.0
1016.0
1015.0
1017.0
1020.0
1021.0
1020.0
1017.0
1014.0
1021.0
1022.0
1023.0
1020.0
1016.0
1015.0
1019.0
1022.0
1023.0
1020.0
1018.0
1015.0
1019.0
1020.0
1022.0
1018.0
1017.0
1015.0
1017.0
1018.0
1019.0
1018.0
1019.0
1021.0
1030.0
1037.0
1046.0
1049.0
1055.0
1067.0
1077.0
1098.0
1117.0
1146.0
1176.0
1203.0
1240.0
1272.0
1303.0
1339.0
1381.0
1417.0
1443.0
1436.0
1392.0
1307.0
1208.0
1123.0
1068.0
1035.0
1022.0
1018.0
1018.0
1017.0
1020.0
1019.0
1019.0
1016.0
1011.0
1005.0
1003.0
1003.0
999.0
996.0
993.0
993.0
996.0
1001.0
1000.0
1000.0
994.0
993.0
992.0
994.0
993.0
993.0
990.0
990.0
991.0
995.0
994.0
990.0
988.0
987.0
988.0
990.0
991.0
988.0
986.0
984.0
989.0
990.0
989.0
990.0
986.0
985.0
989.0
992.0
992.0
991.0
988.0
988.0
992.0
993.0
994.0
992.0
987.0
985.0
987.0
991.0
991.0
993.0
990.0
991.0
989.0
994.0
998.0
995.0
993.0
993.0
997.0
997.0
1002.0
998.0
995.0
996.0
1001.0
1005.0
1007.0
1006.0
1007.0
1005.0
1010.0
1015.0
1015.0
1018.0
1018.0
1021.0
1024.0
1029.0
1032.0
1035.0
1035.0
1036.0
1043.0
1044.0
1048.0
1050.0
1048.0
1049.0
1056.0
1060.0
1062.0
1063.0
1061.0
1059.0
1059.0
1061.0
1060.0
1056.0
1050.0
1051.0
1052.0
1054.0
1050.0
1049.0
1044.0
1042.0
1039.0
1042.0
1041.0
1040.0
1035.0
1033.0
1035.0
1035.0
1037.0
1036.0
1033.0
1030.0
1033.0
1034.0
1033.0
1032.0
1028.0
1027.0
1030.0
1034.0
1032.0
1030.0
1027.0
1027.0
1029.0
1031.0
1030.0
1030.0
1027.0
1027.0
1027.0
1030.0
1030.0
1025.0
1025.0
1027.0
1029.0
1033.0
1032.0
1029.0
1025.0
1023.0
1025.0
1029.0
1031.0
1030.0
1026.0
1026.0
1031.0
1033.0
1034.0
1033.0
1029.0
1028.0
1032.0
1034.0
1036.0
1035.0
1033.0
1034.0
1034.0
1036.0
1033.0
1033.0
1028.0
1029.0
1031.0
1031.0
1033.0
1031.0
1028.0
1028.0
1030.0
1032.0
1032.0
1030.0
1027.0
1027.0
1028.0
1033.0
1032.0
1028.0
1025.0
1023.0
1024.0
1025.0
1027.0
1026.0
1025.0
1027.0
1028.0
1026.0
1027.0
1024.0
1024.0
1022.0
1023.0
1025.0
1027.0
1025.0
1023.0
1022.0
1024.0
1026.0
1026.0
1026.0
1020.0
1021.0
1020.0
1025.0
1026.0
1022.0
1021.0
1018.0
1021.0
1024.0
1023.0
1022.0
1020.0
1018.0
1017.0
1020.0
1023.0
1021.0
1018.0
1018.0
1024.0
1025.0
1025.0
1024.0
1020.0
1018.0
1022.0
1025.0
1024.0
1024.0
1022.0
1021.0
1023.0
1025.0
1027.0
1024.0
1020.0
1022.0
1023.0
1025.0
1025.0
1025.0
1024.0
1022.0
1023.0
1027.0
1026.0
1021.0
1020.0
1021.0
1025.0
1029.0
1030.0
1028.0
1027.0
1028.0
1029.0
1033.0
1036.0
1036.0
1032.0
1030.0
1033.0
1036.0
1034.0
1031.0
1026.0
1025.0
1024.0
1029.0
1031.0
1028.0
1025.0
1024.0
1028.0
1032.0
1031.0
1032.0
1028.0
1027.0
1026.0
1026.0
1025.0
1022.0
1018.0
1019.0
1023.0
1024.0
1023.0
1020.0
1020.0
1019.0
1021.0
1022.0
1021.0
1019.0
1017.0
1016.0
1018.0
1022.0
1022.0
1020.0
1018.0
1018.0
1020.0
1023.0
1024.0
1022.0
1022.0
1023.0
1025.0
1026.0
1027.0
1026.0
1030.0
1029.0
1039.0
1046.0
1055.0
1062.0
1069.0
1085.0
1098.0
1122.0
1150.0
1178.0
1205.0
1236.0
1267.0
1300.0
1330.0
1366.0
1400.0
1435.0
1445.0
1431.0
1379.0
1284.0
1186.0
1107.0
1063.0
1044.0
1033.0
1025.0
1021.0
1022.0
1023.0
1024.0
1020.0
1018.0
1012.0
1008.0
1005.0
1007.0
1004.0
1002.0
1001.0
998.0
999.0
1001.0
998.0
999.0
997.0
997.0
997.0
999.0
1000.0
997.0
993.0
992.0
994.0
996.0
998.0
995.0
992.0
993.0
993.0
993.0
995.0
993.0
990.0
989.0
993.0
992.0
994.0
992.0
988.0
988.0
992.0
991.0
992.0
991.0
990.0
988.0
992.0
992.0
992.0
992.0
990.0
990.0
992.0
996.0
994.0
994.0
993.0
993.0
995.0
997.0
997.0
993.0
990.0
990.0
993.0
995.0
998.0
996.0
995.0
995.0
998.0
1000.0
1002.0
1002.0
1002.0
1003.0
1007.0
1009.0
1010.0
1011.0
1012.0
1014.0
1019.0
1024.0
1024.0
1026.0
1026.0
1029.0
1036.0
1043.0
1046.0
1044.0
1044.0
1048.0
1049.0
1054.0
1055.0
1056.0
1057.0
1054.0
1056.0
1057.0
1055.0
1053.0
1050.0
1047.0
1050.0
1048.0
1045.0
1043.0
1038.0
1038.0
1037.0
1038.0
1037.0
1035.0
1030.0
1029.0
1030.0
1031.0
1030.0
1028.0
1025.0
1025.0
1027.0
1029.0
1031.0
1028.0
1024.0
1025.0
1026.0
1028.0
1027.0
1024.0
1021.0
1021.0
1023.0
1026.0
1027.0
1028.0
1024.0
1023.0
1027.0
1030.0
1034.0
1032.0
1028.0
1026.0
1027.0
1032.0
1033.0
1031.0
1026.0
1029.0
1028.0
1032.0
1030.0
1029.0
1026.0
1025.0
1028.0
1030.0
1031.0
1028.0
1026.0
1026.0
1028.0
1033.0
1030.0
1025.0
1025.0
1022.0
1025.0
1027.0
1025.0
1023.0
1021.0
1020.0
1024.0
1026.0
1027.0
1025.0
1023.0
1023.0
1024.0
1026.0
1024.0
1025.0
1021.0
1021.0
1023.0
1026.0
1026.0
1023.0
1020.0
1018.0
1021.0
1022.0
1025.0
1022.0
1021.0
1018.0
1021.0
1024.0
1023.0
1024.0
1020.0
1020.0
1021.0
1026.0
1024.0
1020.0
1019.0
1019.0
1021.0
1024.0
1024.0
1022.0
1019.0
1017.0
1018.0
1024.0
1024.0
1023.0
1020.0
1020.0
1022.0
1024.0
1021.0
1022.0
1017.0
1020.0
1022.0
1026.0
1025.0
1022.0
1020.0
1017.0
1019.0
1023.0
1023.0
1023.0
1023.0
1021.0
1020.0
1025.0
1024.0
1019.0
1017.0
1018.0
1021.0
1024.0
1024.0
1023.0
1019.0
1019.0
1022.0
1026.0
1025.0
1025.0
1020.0
1022.0
1024.0
1029.0
1032.0
1031.0
1026.0
1028.0
1031.0
1036.0
1037.0
1034.0
1031.0
1031.0
1033.0
1036.0
1037.0
1034.0
1031.0
1032.0
1032.0
1034.0
1034.0
1030.0
1027.0
1028.0
1031.0
1034.0
1035.0
1034.0
1033.0
1030.0
1033.0
1035.0
1035.0
1035.0
1027.0
1025.0
1026.0
1030.0
1030.0
1025.0
1023.0
1023.0
1025.0
1027.0
1027.0
1024.0
1020.0
1022.0
1023.0
1027.0
1026.0
1025.0
1021.0
1022.0
1025.0
1027.0
1023.0
1024.0
1022.0
1023.0
1025.0
1025.0
1025.0
1021.0
1020.0
1022.0
1025.0
1029.0
1030.0
1031.0
1029.0
1035.0
1041.0
1051.0
1064.0
1075.0
1085.0
1097.0
1119.0
1151.0
1183.0
1219.0
1249.0
1286.0
1319.0
1355.0
1393.0
1431.0
1456.0
1457.0
1423.0
1352.0
1248.0
1150.0
1080.0
1044.0
1031.0
1027.0
1030.0
1026.0
1024.0
1023.0
1022.0
1021.0
1018.0
1010.0
1003.0
1001.0
1001.0
1006.0
1004.0
1003.0
999.0
997.0
1000.0
1001.0
1004.0
1003.0
998.0
997.0
999.0
999.0
998.0
995.0
992.0
991.0
995.0
997.0
998.0
994.0
991.0
988.0
991.0
994.0
997.0
992.0
994.0
989.0
991.0
990.0
990.0
990.0
988.0
987.0
990.0
990.0
991.0
990.0
986.0
988.0
990.0
992.0
991.0
989.0
990.0
987.0
991.0
992.0
992.0
988.0
989.0
989.0
990.0
991.0
989.0
987.0
983.0
984.0
991.0
994.0
994.0
993.0
990.0
992.0
991.0
997.0
997.0
999.0
995.0
996.0
996.0
1002.0
1005.0
1006.0
1007.0
1011.0
1013.0
1018.0
1020.0
1020.0
1020.0
1020.0
1029.0
1034.0
1038.0
1035.0
1036.0
1039.0
1044.0
1050.0
1051.0
1050.0
1044.0
1046.0
1052.0
1056.0
1058.0
1054.0
1052.0
1053.0
1053.0
1051.0
1049.0
1046.0
1042.0
1041.0
1042.0
1045.0
1042.0
1037.0
1032.0
1032.0
1035.0
1033.0
1029.0
1026.0
1022.0
1019.0
1023.0
1027.0
1026.0
1025.0
1022.0
1022.0
1026.0
1026.0
1025.0
1022.0
1017.0
1019.0
1022.0
1022.0
1021.0
1019.0
1016.0
1018.0
1018.0
1017.0
1013.0
1015.0
1013.0
1013.0
1014.0
1013.0
1014.0
1015.0
1013.0
1016.0
1019.0
1022.0
1021.0
1016.0
1011.0
1011.0
1015.0
1018.0
1021.0
1019.0
1016.0
1016.0
1019.0
1021.0
1022.0
1018.0
1016.0
1019.0
1022.0
1023.0
1024.0
