# Simple Text Format
# Sampling Rate (Hz):= 360.00
# Resolution:= 12
# Labels:= ECG
1034.0
1034.0
1036.0
1035.0
1030.0
1035.0
1038.0
1036.0
1033.0
1030.0
1025.0
1029.0
1033.0
1032.0
1030.0
1026.0
1027.0
1031.0
1035.0
1039.0
1034.0
1032.0
1029.0
1033.0
1031.0
1031.0
1028.0
1022.0
1022.0
1025.0
1026.0
1027.0
1024.0
1023.0
1022.0
1024.0
1026.0
1027.0
1025.0
1023.0
1021.0
1022.0
1023.0
1024.0
1027.0
1020.0
1019.0
1021.0
1026.0
1025.0
1024.0
1023.0
1023.0
1024.0
1028.0
1028.0
1027.0
1026.0
1027.0
1031.0
1037.0
1043.0
1047.0
1049.0
1056.0
1071.0
1082.0
1090.0
1100.0
1111.0
1134.0
1164.0
1198.0
1227.0
1253.0
1283.0
1315.0
1356.0
1402.0
1436.0
1447.0
1429.0
1377.0
1296.0
1209.0
1138.0
1089.0
1052.0
1031.0
1022.0
1022.0
1026.0
1026.0
1022.0
1020.0
1022.0
1025.0
1023.0
1021.0
1013.0
1008.0
1009.0
1010.0
1011.0
1013.0
1007.0
1005.0
1009.0
1007.0
1011.0
1008.0
1006.0
1006.0
1006.0
1007.0
1009.0
1007.0
1003.0
1001.0
1004.0
1006.0
1005.0
1003.0
999.0
1001.0
1002.0
1002.0
1003.0
1000.0
999.0
997.0
999.0
1002.0
1004.0
1001.0
998.0
997.0
999.0
998.0
1000.0
999.0
999.0
1000.0
997.0
1003.0
1004.0
1001.0
1000.0
998.0
1001.0
1005.0
1005.0
1004.0
999.0
1000.0
1001.0
1006.0
1007.0
1006.0
1002.0
1003.0
1006.0
1010.0
1009.0
1011.0
1008.0
1009.0
1012.0
1013.0
1014.0
1016.0
1015.0
1015.0
1021.0
1023.0
1027.0
1028.0
1026.0
1027.0
1031.0
1035.0
1042.0
1042.0
1044.0
1049.0
1050.0
1059.0
1061.0
1063.0
1059.0
1064.0
1068.0
1077.0
1076.0
1077.0
1074.0
1074.0
1074.0
1077.0
1075.0
1072.0
1069.0
1064.0
1063.0
1065.0
1062.0
1059.0
1055.0
1051.0
1053.0
1051.0
1050.0
1045.0
1043.0
1041.0
1042.0
1041.0
1043.0
1042.0
1037.0
1033.0
1035.0
1038.0
1037.0
1037.0
1036.0
1032.0
1036.0
1037.0
1036.0
1033.0
1031.0
1033.0
1032.0
1038.0
1037.0
1033.0
1031.0
1031.0
1032.0
1033.0
1036.0
1034.0
1033.0
1028.0
1030.0
1031.0
1029.0
1030.0
1027.0
1029.0
1032.0
1033.0
1032.0
1029.0
1029.0
1027.0
1027.0
1031.0
1032.0
1031.0
1030.0
1026.0
1029.0
1034.0
1033.0
1033.0
1027.0
1030.0
1032.0
1034.0
1034.0
1033.0
1030.0
1029.0
1032.0
1036.0
1035.0
1035.0
1033.0
1033.0
1031.0
1035.0
1035.0
1034.0
1033.0
1032.0
1031.0
1032.0
1034.0
1034.0
1031.0
1031.0
1032.0
1033.0
1033.0
1035.0
1029.0
1030.0
1029.0
1035.0
1033.0
1033.0
1030.0
1027.0
1030.0
1031.0
1034.0
1031.0
1028.0
1027.0
1030.0
1030.0
1031.0
1029.0
1027.0
1026.0
1027.0
1029.0
1031.0
1031.0
1029.0
1024.0
1025.0
1031.0
1031.0
1028.0
1026.0
1024.0
1026.0
1033.0
1029.0
1027.0
1024.0
1024.0
1024.0
1027.0
1029.0
1026.0
1024.0
1024.0
1027.0
1029.0
1027.0
1028.0
1026.0
1024.0
1024.0
1029.0
1032.0
1028.0
1026.0
1026.0
1029.0
1030.0
1030.0
1029.0
1024.0
1026.0
1026.0
1029.0
1028.0
1028.0
1026.0
1025.0
1027.0
1030.0
1029.0
1028.0
1024.0
1022.0
1027.0
1030.0
1030.0
1029.0
1025.0
1024.0
1024.0
1027.0
1030.0
1026.0
1023.0
1025.0
1024.0
1029.0
1028.0
1028.0
1025.0
1022.0
1025.0
1027.0
1032.0
1030.0
1026.0
1026.0
1027.0
1033.0
1033.0
1035.0
1032.0
1033.0
1035.0
1037.0
1038.0
1037.0
1035.0
1034.0
1037.0
1040.0
1040.0
1039.0
1037.0
1037.0
1035.0
1036.0
1036.0
1035.0
1032.0
1031.0
1035.0
1037.0
1036.0
1035.0
1033.0
1032.0
1037.0
1039.0
1040.0
1039.0
1036.0
1034.0
1030.0
1035.0
1031.0
1030.0
1027.0
1026.0
1028.0
1031.0
1032.0
1029.0
1027.0
1027.0
1029.0
1030.0
1030.0
1028.0
1026.0
1027.0
1029.0
1031.0
1028.0
1028.0
1027.0
1026.0
1028.0
1031.0
1029.0
1027.0
1025.0
1026.0
1028.0
1031.0
1034.0
1033.0
1033.0
1031.0
1031.0
1040.0
1042.0
1049.0
1051.0
1059.0
1071.0
1081.0
1091.0
1105.0
1119.0
1142.0
1169.0
1198.0
1226.0
1253.0
1277.0
1309.0
1353.0
1395.0
1423.0
1422.0
1382.0
1314.0
1223.0
1137.0
1080.0
1046.0
1025.0
1021.0
1026.0
1030.0
1034.0
1029.0
1026.0
1023.0
1024.0
1025.0
1020.0
1017.0
1013.0
1013.0
1015.0
1015.0
1015.0
1015.0
1013.0
1010.0
1014.0
1015.0
1016.0
1014.0
1010.0
1014.0
1014.0
1016.0
1015.0
1012.0
1007.0
1008.0
1010.0
1013.0
1014.0
1011.0
1008.0
1006.0
1011.0
1011.0
1012.0
1009.0
1003.0
1004.0
1008.0
1010.0
1010.0
1009.0
1004.0
1006.0
1007.0
1011.0
1013.0
1011.0
1007.0
1005.0
1006.0
1012.0
1011.0
1010.0
1007.0
1005.0
1009.0
1013.0
1013.0
1012.0
1009.0
1010.0
1009.0
1013.0
1016.0
1013.0
1009.0
1011.0
1014.0
1021.0
1021.0
1021.0
1018.0
1020.0
1020.0
1025.0
1027.0
1025.0
1022.0
1028.0
1033.0
1036.0
1039.0
1039.0
1038.0
1039.0
1048.0
1054.0
1056.0
1054.0
1055.0
1056.0
1062.0
1068.0
1073.0
1073.0
1073.0
1074.0
1074.0
1078.0
1076.0
1073.0
1071.0
1069.0
1070.0
1071.0
1067.0
1065.0
1059.0
1055.0
1057.0
1056.0
1056.0
1052.0
1046.0
1040.0
1041.0
1045.0
1046.0
1045.0
1038.0
1039.0
1039.0
1044.0
1040.0
1037.0
1035.0
1033.0
1034.0
1040.0
1038.0
1035.0
1034.0
1032.0
1037.0
1038.0
1037.0
1035.0
1029.0
1030.0
1032.0
1032.0
1033.0
1031.0
1027.0
1027.0
1028.0
1032.0
1033.0
1030.0
1026.0
1023.0
1025.0
1027.0
1026.0
1023.0
1022.0
1023.0
1024.0
1024.0
1025.0
1023.0
1020.0
1022.0
1021.0
1023.0
1025.0
1026.0
1021.0
1020.0
1023.0
1026.0
1027.0
1024.0
1024.0
1019.0
1020.0
1025.0
1026.0
1024.0
1021.0
1021.0
1024.0
1026.0
1026.0
1023.0
1021.0
1021.0
1025.0
1028.0
1025.0
1024.0
1021.0
1019.0
1021.0
1024.0
1026.0
1024.0
1024.0
1021.0
1024.0
1024.0
1024.0
1021.0
1019.0
1020.0
1022.0
1023.0
1023.0
1021.0
1018.0
1017.0
1021.0
1023.0
1021.0
1019.0
1013.0
1015.0
1015.0
1020.0
1020.0
1020.0
1015.0
1018.0
1019.0
1018.0
1016.0
1019.0
1017.0
1014.0
1017.0
1019.0
1017.0
1014.0
1014.0
1015.0
1015.0
1019.0
1016.0
1016.0
1015.0
1015.0
1016.0
1021.0
1019.0
1016.0
1012.0
1013.0
1015.0
1019.0
1017.0
1014.0
1013.0
1013.0
1016.0
1016.0
1014.0
1016.0
1012.0
1011.0
1012.0
1016.0
1016.0
1015.0
1012.0
1011.0
1014.0
1017.0
1018.0
1015.0
1012.0
1013.0
1015.0
1017.0
1017.0
1016.0
1015.0
1013.0
1019.0
1020.0
1021.0
1022.0
1019.0
1021.0
1022.0
1025.0
1029.0
1027.0
1024.0
1024.0
1027.0
1030.0
1030.0
1026.0
1021.0
1021.0
1023.0
1022.0
1024.0
1022.0
1021.0
1021.0
1022.0
1026.0
1024.0
1023.0
1024.0
1023.0
1025.0
1028.0
1027.0
1025.0
1020.0
1018.0
1019.0
1020.0
1019.0
1016.0
1015.0
1015.0
1017.0
1016.0
1021.0
1018.0
1014.0
1014.0
1016.0
1019.0
1017.0
1015.0
1014.0
1013.0
1013.0
1018.0
1019.0
1016.0
1015.0
1016.0
1015.0
1019.0
1018.0
1019.0
1014.0
1016.0
1016.0
1020.0
1020.0
1016.0
1016.0
1017.0
1023.0
1033.0
1033.0
1037.0
1043.0
1054.0
1066.0
1074.0
1083.0
1100.0
1117.0
1144.0
1174.0
1204.0
1231.0
1258.0
1283.0
1319.0
1366.0
1403.0
1422.0
1415.0
1379.0
1319.0
1236.0
1161.0
1101.0
1061.0
1028.0
1010.0
1008.0
1013.0
1015.0
1015.0
1011.0
1011.0
1012.0
1010.0
1010.0
1005.0
997.0
998.0
999.0
1001.0
1001.0
999.0
996.0
996.0
997.0
1000.0
995.0
997.0
994.0
992.0
996.0
997.0
997.0
996.0
993.0
993.0
992.0
994.0
994.0
993.0
988.0
987.0
992.0
993.0
992.0
988.0
986.0
989.0
990.0
994.0
993.0
991.0
988.0
986.0
989.0
992.0
994.0
991.0
988.0
990.0
989.0
992.0
992.0
992.0
991.0
990.0
992.0
995.0
995.0
993.0
993.0
992.0
997.0
1000.0
998.0
1000.0
998.0
996.0
1001.0
1005.0
1002.0
1003.0
1003.0
1003.0
1009.0
1013.0
1013.0
1013.0
1014.0
1014.0
1021.0
1026.0
1027.0
1025.0
1024.0
1029.0
1034.0
1037.0
1042.0
1041.0
1046.0
1046.0
1051.0
1057.0
1058.0
1059.0
1058.0
1062.0
1068.0
1074.0
1072.0
1070.0
1068.0
1067.0
1065.0
1068.0
1067.0
1066.0
1058.0
1057.0
1055.0
1055.0
1053.0
1051.0
1046.0
1045.0
1045.0
1043.0
1042.0
1038.0
1033.0
1031.0
1034.0
1035.0
1034.0
1030.0
1030.0
1028.0
1030.0
1031.0
1031.0
1029.0
1027.0
1026.0
1030.0
1031.0
1028.0
1028.0
1025.0
1024.0
1028.0
1029.0
1027.0
1027.0
1023.0
1020.0
1027.0
1028.0
1027.0
1023.0
1022.0
1023.0
1025.0
1025.0
1025.0
1025.0
1021.0
1021.0
1022.0
1025.0
1023.0
1019.0
1020.0
1021.0
1023.0
1024.0
1025.0
1022.0
1022.0
1018.0
1023.0
1025.0
1025.0
1023.0
1023.0
1022.0
1023.0
1028.0
1025.0
1024.0
1022.0
1020.0
1022.0
1027.0
1025.0
1025.0
1021.0
1023.0
1024.0
1027.0
1027.0
1024.0
1023.0
1022.0
1029.0
1028.0
1026.0
1022.0
1021.0
1023.0
1023.0
1024.0
1026.0
1024.0
1022.0
1021.0
1027.0
1027.0
1026.0
1021.0
1021.0
1019.0
1022.0
1025.0
1025.0
1023.0
1021.0
1024.0
1022.0
1023.0
1024.0
1022.0
1019.0
1019.0
1020.0
1023.0
1022.0
1020.0
1018.0
1020.0
1022.0
1025.0
1026.0
1024.0
1020.0
1019.0
1023.0
1025.0
1026.0
1025.0
1022.0
1020.0
1024.0
1024.0
1026.0
1024.0
1022.0
1024.0
1028.0
1028.0
1026.0
1023.0
1021.0
1020.0
1026.0
1025.0
1028.0
1025.0
1023.0
1022.0
1023.0
1029.0
1028.0
1027.0
1023.0
1022.0
1026.0
1028.0
1028.0
1025.0
1024.0
1023.0
1027.0
1029.0
1027.0
1025.0
1023.0
1025.0
1028.0
1031.0
1030.0
1025.0
1023.0
1023.0
1026.0
1028.0
1030.0
1028.0
1026.0
1027.0
1032.0
1032.0
1029.0
1031.0
1030.0
1033.0
1034.0
1038.0
1038.0
1034.0
1034.0
1034.0
1039.0
1042.0
1043.0
1041.0
1036.0
1038.0
1039.0
1039.0
1036.0
1035.0
1032.0
1033.0
1034.0
1035.0
1034.0
1033.0
1031.0
1031.0
1037.0
1039.0
1037.0
1038.0
1032.0
1034.0
1034.0
1039.0
1032.0
1031.0
1025.0
1026.0
1030.0
1031.0
1031.0
1029.0
1028.0
1028.0
1029.0
1031.0
1031.0
1030.0
1026.0
1028.0
1031.0
1031.0
1031.0
1026.0
1025.0
1026.0
1029.0
1031.0
1032.0
1032.0
1029.0
1030.0
1031.0
1032.0
1032.0
1028.0
1029.0
1030.0
1035.0
1040.0
1042.0
1047.0
1049.0
1057.0
1070.0
1082.0
1092.0
1106.0
1124.0
1152.0
1185.0
1216.0
1245.0
1274.0
1298.0
1332.0
1375.0
1415.0
1427.0
1410.0
1360.0
1279.0
1192.0
1123.0
1075.0
1038.0
1021.0
1021.0
1023.0
1027.0
1025.0
1025.0
1023.0
1023.0
1022.0
1022.0
1018.0
1014.0
1010.0
1010.0
1014.0
1013.0
1014.0
1012.0
1008.0
1012.0
1011.0
1014.0
1013.0
1010.0
1010.0
1009.0
1011.0
1016.0
1012.0
1009.0
1007.0
1007.0
1008.0
1009.0
1010.0
1007.0
1005.0
1006.0
1010.0
1010.0
1008.0
1003.0
999.0
1002.0
1004.0
1008.0
1007.0
1005.0
1000.0
1001.0
1002.0
1006.0
1008.0
1006.0
1002.0
1003.0
1006.0
1006.0
1008.0
1006.0
1006.0
1007.0
1010.0
1011.0
1011.0
1007.0
1007.0
1007.0
1011.0
1013.0
1013.0
1012.0
1010.0
1011.0
1016.0
1022.0
1023.0
1021.0
1020.0
1020.0
1026.0
1032.0
1032.0
1032.0
1032.0
1037.0
1042.0
1048.0
1050.0
1049.0
1050.0
1055.0
1059.0
1066.0
1068.0
1069.0
1067.0
1067.0
1073.0
1073.0
1075.0
1071.0
1070.0
1069.0
1068.0
1068.0
1063.0
1057.0
1054.0
1057.0
1055.0
1055.0
1051.0
1044.0
1041.0
1041.0
1041.0
1043.0
1040.0
1041.0
1036.0
1034.0
1036.0
1037.0
1036.0
1033.0
1029.0
1029.0
1031.0
1034.0
1033.0
1032.0
1028.0
1028.0
1032.0
1035.0
1032.0
1031.0
1026.0
1026.0
1028.0
1029.0
1030.0
1027.0
1024.0
1024.0
1027.0
1027.0
1027.0
1025.0
1023.0
1022.0
1023.0
1024.0
1025.0
1022.0
1019.0
1019.0
1023.0
1024.0
1026.0
1021.0
1017.0
1021.0
1022.0
1023.0
1024.0
1021.0
1019.0
1019.0
1022.0
1024.0
1025.0
1024.0
1024.0
1021.0
1023.0
1026.0
1026.0
1024.0
1022.0
1023.0
1023.0
1025.0
1023.0
1022.0
1023.0
1022.0
1021.0
1027.0
1021.0
1022.0
1016.0
1019.0
1022.0
1023.0
1020.0
1018.0
1016.0
1018.0
1021.0
1021.0
1020.0
1017.0
1014.0
1015.0
1018.0
1019.0
1019.0
1016.0
1015.0
1014.0
1016.0
1019.0
1018.0
1017.0
1014.0
1014.0
1015.0
1016.0
1016.0
1013.0
1011.0
1012.0
1014.0
1017.0
1016.0
1012.0
1011.0
1011.0
1015.0
1017.0
1016.0
1012.0
1009.0
1010.0
1013.0
1017.0
1016.0
1012.0
1010.0
1011.0
1014.0
1016.0
1014.0
1010.0
1010.0
1009.0
1012.0
1013.0
1012.0
1009.0
1008.0
1010.0
1012.0
1016.0
1016.0
1013.0
1008.0
1012.0
1014.0
1015.0
1016.0
1012.0
1010.0
1011.0
1013.0
1015.0
1014.0
1014.0
1011.0
1012.0
1013.0
1017.0
1013.0
1011.0
1010.0
1011.0
1015.0
1016.0
1016.0
1014.0
1011.0
1010.0
1013.0
1017.0
1016.0
1015.0
1015.0
1017.0
1021.0
1024.0
1023.0
1023.0
1021.0
1022.0
1025.0
1026.0
1029.0
1026.0
1022.0
1023.0
1024.0
1024.0
1022.0
1019.0
1019.0
1018.0
1020.0
1022.0
1023.0
1021.0
1020.0
1020.0
1024.0
1026.0
1025.0
1021.0
1017.0
1018.0
1019.0
1019.0
1017.0
1015.0
1014.0
1014.0
1017.0
1020.0
1019.0
1015.0
1013.0
1014.0
1017.0
1018.0
1016.0
1015.0
1013.0
1015.0
1016.0
1018.0
1018.0
1014.0
1013.0
1013.0
1017.0
1019.0
1018.0
1017.0
1013.0
1013.0
1016.0
1020.0
1020.0
1019.0
1020.0
1024.0
1029.0
1037.0
1042.0
1051.0
1059.0
1068.0
1080.0
1097.0
1116.0
1144.0
1172.0
1205.0
1238.0
1270.0
1305.0
1342.0
1385.0
1419.0
1432.0
1412.0
1351.0
1260.0
1175.0
1106.0
1064.0
1036.0
1014.0
1009.0
1007.0
1012.0
1015.0
1018.0
1019.0
1014.0
1008.0
1004.0
1005.0
1007.0
1002.0
1002.0
999.0
1000.0
1001.0
1004.0
1001.0
999.0
1000.0
999.0
1002.0
1004.0
1000.0
999.0
997.0
997.0
1001.0
1003.0
1000.0
998.0
995.0
997.0
995.0
1000.0
998.0
995.0
993.0
993.0
995.0
999.0
997.0
996.0
992.0
994.0
995.0
998.0
997.0
995.0
992.0
993.0
995.0
999.0
1001.0
997.0
995.0
998.0
997.0
1005.0
1001.0
1001.0
998.0
1000.0
1002.0
1007.0
1007.0
1006.0
1007.0
1007.0
1009.0
1016.0
1017.0
1016.0
1017.0
1018.0
1024.0
1027.0
1032.0
1033.0
1036.0
1037.0
1043.0
1051.0
1053.0
1053.0
1056.0
1062.0
1068.0
1072.0
1072.0
1070.0
1072.0
1073.0
1074.0
1078.0
1073.0
1071.0
1066.0
1063.0
1065.0
1063.0
1059.0
1056.0
1050.0
1048.0
1049.0
1051.0
1044.0
1042.0
1038.0
1040.0
1041.0
1042.0
1037.0
1035.0
1034.0
1033.0
1036.0
1036.0
1036.0
1034.0
1032.0
1032.0
1036.0
1035.0
1034.0
1033.0
1032.0
1032.0
1035.0
1038.0
1035.0
1029.0
1029.0
1030.0
1033.0
1035.0
1034.0
1029.0
1028.0
1027.0
1030.0
1032.0
1031.0
1028.0
1027.0
1030.0
1029.0
1032.0
1031.0
1027.0
1026.0
1030.0
1030.0
1031.0
1029.0
1027.0
1026.0
1027.0
1031.0
1031.0
1030.0
1030.0
1028.0
1029.0
1031.0
1033.0
1033.0
1031.0
1029.0
1030.0
1034.0
1039.0
1039.0
1038.0
1039.0
1048.0
1061.0
1078.0
1095.0
1114.0
1129.0
1142.0
1147.0
1141.0
1125.0
1097.0
1057.0
1001.0
935.0
857.0
764.0
690.0
653.0
643.0
643.0
642.0
644.0
654.0
667.0
690.0
715.0
746.0
775.0
798.0
820.0
840.0
861.0
877.0
893.0
908.0
918.0
930.0
940.0
949.0
956.0
964.0
971.0
980.0
995.0
1006.0
1015.0
1022.0
1029.0
1036.0
1048.0
1057.0
1061.0
1062.0
1060.0
1066.0
1069.0
1073.0
1075.0
1076.0
1076.0
1081.0
1082.0
1088.0
1086.0
1083.0
1083.0
1083.0
1088.0
1094.0
1094.0
1091.0
1095.0
1093.0
1102.0
1104.0
1105.0
1106.0
1106.0
1107.0
1113.0
1116.0
1116.0
1116.0
1117.0
1119.0
1125.0
1131.0
1130.0
1131.0
1133.0
1137.0
1142.0
1150.0
1151.0
1153.0
1156.0
1159.0
1166.0
1173.0
1178.0
1179.0
1183.0
1191.0
1197.0
1204.0
1209.0
1212.0
1215.0
1223.0
1229.0
1236.0
1239.0
1241.0
1244.0
1250.0
1255.0
1260.0
1259.0
1257.0
1254.0
1256.0
1256.0
1258.0
1253.0
1246.0
1240.0
1240.0
1236.0
1232.0
1226.0
1217.0
1208.0
1204.0
1197.0
1196.0
1189.0
1181.0
1172.0
1167.0
1166.0
1160.0
1154.0
1145.0
1136.0
1130.0
1128.0
1122.0
1116.0
1111.0
1101.0
1095.0
1092.0
1092.0
1086.0
1079.0
1073.0
1069.0
1068.0
1069.0
1064.0
1057.0
1056.0
1055.0
1055.0
1056.0
1053.0
1053.0
1045.0
1047.0
1048.0
1049.0
1045.0
1044.0
1040.0
1041.0
1044.0
1045.0
1042.0
1037.0
1036.0
1037.0
1038.0
1042.0
1038.0
1037.0
1033.0
1036.0
1034.0
1042.0
1036.0
1035.0
1032.0
1033.0
1034.0
1034.0
1034.0
1030.0
1027.0
1030.0
1032.0
1034.0
1029.0
1029.0
1026.0
1025.0
1027.0
1030.0
1029.0
1023.0
1023.0
1022.0
1022.0
1026.0
1023.0
1022.0
1019.0
1020.0
1021.0
1023.0
1020.0
1017.0
1015.0
1016.0
1018.0
1020.0
1021.0
1018.0
1015.0
1018.0
1019.0
1021.0
1019.0
1016.0
1015.0
1016.0
1020.0
1019.0
1017.0
1014.0
1012.0
1013.0
1016.0
1018.0
1017.0
1014.0
1015.0
1015.0
1017.0
1017.0
1017.0
1014.0
1012.0
1014.0
1018.0
1016.0
1016.0
1015.0
1012.0
1011.0
1015.0
1017.0
1020.0
1015.0
1013.0
1014.0
1016.0
1016.0
1015.0
1014.0
1012.0
1014.0
1016.0
1020.0
1018.0
1014.0
1013.0
1014.0
1016.0
1019.0
1018.0
1017.0
1014.0
1015.0
1019.0
1019.0
1018.0
1014.0
1014.0
1013.0
1016.0
1019.0
1018.0
1015.0
1014.0
1016.0
1016.0
1019.0
1018.0
1015.0
1015.0
1015.0
1018.0
1021.0
1017.0
1016.0
1015.0
1016.0
1018.0
1022.0
1020.0
1015.0
1013.0
1015.0
1017.0
1020.0
1019.0
1016.0
1016.0
1016.0
1021.0
1022.0
1020.0
1018.0
1015.0
1018.0
1020.0
1024.0
1020.0
1017.0
1017.0
1020.0
1021.0
1024.0
1020.0
1020.0
1018.0
1020.0
1025.0
1027.0
1026.0
1021.0
1020.0
1020.0
1023.0
1026.0
1026.0
1024.0
1022.0
1026.0
1027.0
1027.0
1028.0
1027.0
1024.0
1028.0
1028.0
1029.0
1030.0
1026.0
1023.0
1027.0
1028.0
1030.0
1031.0
1030.0
1028.0
1027.0
1032.0
1035.0
1033.0
1031.0
1030.0
1030.0
1032.0
1035.0
1032.0
1026.0
1027.0
1029.0
1034.0
1036.0
1035.0
1031.0
1031.0
1031.0
1034.0
1034.0
1036.0
1032.0
1029.0
1031.0
1034.0
1036.0
1035.0
1033.0
1032.0
1034.0
1039.0
1040.0
1038.0
1035.0
1032.0
1034.0
1038.0
1040.0
1042.0
1037.0
1036.0
1038.0
1036.0
1041.0
1042.0
1038.0
1039.0
1038.0
1041.0
1042.0
1041.0
1037.0
1038.0
1039.0
1040.0
1043.0
1040.0
1039.0
1037.0
1039.0
1041.0
1042.0
1041.0
1042.0
1038.0
1039.0
1043.0
1043.0
1043.0
1039.0
1037.0
1040.0
1043.0
1042.0
1041.0
1038.0
1039.0
1040.0
1044.0
1046.0
1046.0
1044.0
1042.0
1041.0
1044.0
1044.0
1043.0
1043.0
1043.0
1044.0
1043.0
1047.0
1046.0
1044.0
1043.0
1044.0
1044.0
1044.0
1045.0
1045.0
1039.0
1043.0
1044.0
1048.0
1044.0
1044.0
1043.0
1045.0
1048.0
1049.0
1047.0
1042.0
1044.0
1044.0
1046.0
1047.0
1044.0
1042.0
1041.0
1043.0
1045.0
1047.0
1046.0
1045.0
1044.0
1042.0
1046.0
1046.0
1045.0
1045.0
1042.0
1043.0
1046.0
1049.0
1048.0
1041.0
1042.0
1044.0
1045.0
1049.0
1046.0
1045.0
1042.0
1042.0
1046.0
1049.0
1047.0
1045.0
1042.0
1045.0
1047.0
1047.0
1047.0
1045.0
1044.0
1045.0
1048.0
1052.0
1049.0
1048.0
1050.0
1050.0
1054.0
1056.0
1053.0
1052.0
1055.0
1054.0
1060.0
1060.0
1058.0
1057.0
1057.0
1054.0
1060.0
1059.0
1056.0
1054.0
1053.0
1055.0
1052.0
1057.0
1054.0
1051.0
1052.0
1053.0
1056.0
1060.0
1057.0
1057.0
1057.0
1057.0
1058.0
1058.0
1053.0
1051.0
1048.0
1048.0
1049.0
1051.0
1049.0
1048.0
1044.0
1045.0
1049.0
1051.0
1049.0
1048.0
1043.0
1042.0
1045.0
1049.0
1048.0
1044.0
1043.0
1045.0
1048.0
1047.0
1045.0
1041.0
1043.0
1042.0
1050.0
1052.0
1051.0
1049.0
1048.0
1051.0
1055.0
1059.0
1065.0
1068.0
1073.0
1084.0
1097.0
1100.0
1107.0
1118.0
1140.0
1167.0
1198.0
1224.0
1252.0
1282.0
1313.0
1351.0
1395.0
1429.0
1435.0
1411.0
1350.0
1263.0
1178.0
1115.0
1072.0
1048.0
1043.0
1052.0
1057.0
1055.0
1051.0
1046.0
1040.0
1038.0
1040.0
1038.0
1035.0
1031.0
1026.0
1030.0
1033.0
1034.0
1031.0
1026.0
1023.0
1028.0
1029.0
1030.0
1026.0
1023.0
1022.0
1024.0
1025.0
1025.0
1025.0
1021.0
1018.0
1021.0
1026.0
1022.0
1024.0
1023.0
1019.0
1019.0
1024.0
1023.0
1024.0
1022.0
1021.0
1020.0
1024.0
1025.0
1023.0
1019.0
1017.0
1020.0
1025.0
1023.0
1021.0
1020.0
1018.0
1021.0
1026.0
1023.0
1022.0
1019.0
1022.0
1023.0
1025.0
1026.0
1026.0
1025.0
1024.0
1026.0
1027.0
1032.0
1031.0
1031.0
1027.0
1030.0
1033.0
1034.0
1033.0
1033.0
1031.0
1035.0
1039.0
1038.0
1038.0
1039.0
1034.0
1037.0
1041.0
1045.0
1044.0
1044.0
1043.0
1045.0
1048.0
1055.0
1052.0
1053.0
1054.0
1058.0
1062.0
1066.0
1066.0
1067.0
1068.0
1075.0
1082.0
1085.0
1085.0
1085.0
1084.0
1087.0
1092.0
1095.0
1095.0
1096.0
1090.0
1094.0
1094.0
1094.0
1093.0
1088.0
1086.0
1087.0
1086.0
1085.0
1083.0
1081.0
1075.0
1078.0
1078.0
1079.0
1074.0
1070.0
1067.0
1070.0
1070.0
1071.0
1069.0
1067.0
1063.0
1063.0
1066.0
1066.0
1063.0
1060.0
1060.0
1062.0
1064.0
1066.0
1062.0
1060.0
1057.0
1059.0
1061.0
1063.0
1062.0
1062.0
1057.0
1059.0
1059.0
1061.0
1059.0
1059.0
1058.0
1058.0
1062.0
1064.0
1061.0
1058.0
1055.0
1058.0
1060.0
1060.0
1060.0
1057.0
1055.0
1058.0
1060.0
1061.0
1059.0
1058.0
1055.0
1056.0
1058.0
1061.0
1059.0
1055.0
1053.0
1052.0
1056.0
1058.0
1056.0
1051.0
1050.0
1052.0
1052.0
1056.0
1052.0
1049.0
1048.0
1051.0
1050.0
1052.0
1049.0
1047.0
1045.0
1045.0
1049.0
1050.0
1048.0
1044.0
1044.0
1045.0
1046.0
1045.0
1044.0
1041.0
1042.0
1041.0
1043.0
1043.0
1043.0
1038.0
1037.0
1040.0
1040.0
1042.0
1038.0
1037.0
1037.0
1037.0
1040.0
1041.0
1037.0
1034.0
1033.0
1036.0
1038.0
1038.0
1037.0
1032.0
1031.0
1034.0
1036.0
1037.0
1036.0
1031.0
1031.0
1032.0
1036.0
1037.0
1037.0
1031.0
1032.0
1033.0
1035.0
1035.0
1034.0
1032.0
1031.0
1034.0
1036.0
1036.0
1036.0
1031.0
1030.0
1030.0
1034.0
1035.0
1034.0
1033.0
1028.0
1033.0
1034.0
1034.0
1030.0
1030.0
1029.0
1031.0
1035.0
1036.0
1034.0
1028.0
1030.0
1031.0
1033.0
1034.0
1032.0
1030.0
1030.0
1031.0
1033.0
1033.0
1033.0
1031.0
1032.0
1033.0
1035.0
1035.0
1032.0
1029.0
1027.0
1031.0
1034.0
1036.0
1034.0
1031.0
1029.0
1032.0
1032.0
1034.0
1034.0
1031.0
1031.0
1032.0
1033.0
1037.0
1035.0
1030.0
1032.0
1033.0
1039.0
1040.0
1042.0
1039.0
1040.0
1044.0
1044.0
1046.0
1045.0
1043.0
1044.0
1043.0
1047.0
1046.0
1045.0
1040.0
1036.0
1040.0
1039.0
1041.0
1039.0
1038.0
1039.0
1041.0
1043.0
1046.0
1044.0
1042.0
1040.0
1041.0
1044.0
1043.0
1040.0
1033.0
1032.0
1030.0
1033.0
1038.0
1034.0
1033.0
1031.0
1031.0
1033.0
1035.0
1031.0
1029.0
1031.0
1033.0
1034.0
1034.0
1034.0
1030.0
1028.0
1032.0
1035.0
1034.0
1033.0
1029.0
1030.0
1033.0
1037.0
1038.0
1035.0
1034.0
1033.0
1035.0
1042.0
1046.0
1051.0
1056.0
1063.0
1075.0
1088.0
1098.0
1109.0
1125.0
1151.0
1188.0
1225.0
1259.0
1292.0
1321.0
1360.0
1409.0
1448.0
1461.0
1437.0
1369.0
1270.0
1175.0
1108.0
1066.0
1037.0
1027.0
1028.0
1032.0
1036.0
1035.0
1029.0
1024.0
1022.0
1021.0
1019.0
1019.0
1016.0
1012.0
1010.0
1009.0
1013.0
1015.0
1012.0
1010.0
1007.0
1007.0
1012.0
1009.0
1008.0
1005.0
1004.0
1006.0
1006.0
1004.0
1005.0
1001.0
1003.0
1004.0
1004.0
1007.0
1002.0
1001.0
997.0
1003.0
1006.0
1007.0
1006.0
1001.0
1002.0
1002.0
1003.0
1007.0
1004.0
1004.0
1001.0
1002.0
1006.0
1006.0
1005.0
1003.0
1000.0
1005.0
1009.0
1011.0
1008.0
1006.0
1006.0
1004.0
1011.0
1009.0
1010.0
1007.0
1009.0
1012.0
1013.0
1016.0
1015.0
1013.0
1011.0
1016.0
1021.0
1020.0
1020.0
1018.0
1018.0
1019.0
1024.0
1026.0
1026.0
1027.0
1026.0
1033.0
1036.0
1037.0
1037.0
1037.0
1039.0
1045.0
1050.0
1050.0
1053.0
1051.0
1051.0
1058.0
1060.0
1063.0
1065.0
1061.0
1065.0
1066.0
1069.0
1070.0
1069.0
1066.0
1064.0
1066.0
1068.0
1065.0
1063.0
1058.0
1055.0
1058.0
1057.0
1054.0
1053.0
1051.0
1046.0
1046.0
1050.0
1049.0
1044.0
1043.0
1042.0
1042.0
1046.0
1045.0
1043.0
1039.0
1038.0
1039.0
1043.0
1044.0
1041.0
1037.0
1037.0
1038.0
1039.0
1040.0
1038.0
1038.0
1035.0
1036.0
1039.0
1039.0
1037.0
1032.0
1032.0
1034.0
1036.0
1037.0
1037.0
1034.0
1031.0
1035.0
1036.0
1037.0
1036.0
1034.0
1032.0
1033.0
1037.0
1038.0
1035.0
1034.0
1034.0
1037.0
1041.0
1039.0
1040.0
1039.0
1035.0
1037.0
1041.0
1043.0
1042.0
1039.0
1036.0
1038.0
1039.0
1040.0
1039.0
1039.0
1039.0
1038.0
1041.0
1042.0
1039.0
1035.0
1035.0
1038.0
1039.0
1040.0
1040.0
1036.0
1035.0
1033.0
1038.0
1036.0
1037.0
1033.0
1032.0
1033.0
1036.0
1035.0
1033.0
1031.0
1032.0
1032.0
1035.0
1035.0
1034.0
1029.0
1028.0
1030.0
1033.0
1031.0
1033.0
1030.0
1028.0
1032.0
1035.0
1033.0
1032.0
1029.0
1027.0
1031.0
1035.0
1034.0
1031.0
1028.0
1030.0
1030.0
1032.0
1033.0
1030.0
1029.0
1026.0
1030.0
1028.0
1031.0
1030.0
1027.0
1026.0
1030.0
1032.0
1033.0
1030.0
1027.0
1027.0
1028.0
1033.0
1031.0
1030.0
1029.0
1027.0
1027.0
1032.0
1031.0
1031.0
1028.0
1029.0
1029.0
1032.0
1035.0
1030.0
1029.0
1026.0
1029.0
1033.0
1033.0
1034.0
1030.0
1030.0
1030.0
1032.0
1034.0
1033.0
1032.0
1032.0
1032.0
1033.0
1034.0
1031.0
1028.0
1029.0
1032.0
1035.0
1033.0
1033.0
1031.0
1028.0
1031.0
1035.0
1035.0
1034.0
1033.0
1031.0
1034.0
1034.0
1032.0
1032.0
1030.0
1033.0
1033.0
1036.0
1035.0
1034.0
1034.0
1035.0
1038.0
1043.0
1042.0
1041.0
1041.0
1040.0
1043.0
1046.0
1048.0
1047.0
1042.0
1042.0
1045.0
1043.0
1042.0
1037.0
1037.0
1034.0
1037.0
1039.0
1041.0
1039.0
1037.0
1035.0
1038.0
1043.0
1044.0
1041.0
1038.0
1036.0
1039.0
1039.0
1039.0
1035.0
1029.0
1028.0
1032.0
1035.0
1036.0
1034.0
1030.0
1030.0
1030.0
1034.0
1035.0
1033.0
1030.0
1030.0
1032.0
1033.0
1035.0
1031.0
1029.0
1030.0
1034.0
1035.0
1035.0
1032.0
1030.0
1029.0
1031.0
1032.0
1035.0
1032.0
1032.0
1029.0
1035.0
1040.0
1043.0
1043.0
1048.0
1052.0
1064.0
1076.0
1087.0
1092.0
1104.0
1123.0
1154.0
1185.0
1217.0
1244.0
1273.0
1307.0
1347.0
1393.0
1427.0
1435.0
1404.0
1339.0
1249.0
1165.0
1104.0
1058.0
1029.0
1018.0
1020.0
1029.0
1033.0
1029.0
1026.0
1024.0
1026.0
1026.0
1022.0
1017.0
1014.0
1015.0
1014.0
1016.0
1014.0
1016.0
1011.0
1011.0
1011.0
1014.0
1013.0
1012.0
1009.0
1009.0
1011.0
1011.0
1011.0
1010.0
1006.0
1004.0
1009.0
1009.0
1010.0
1007.0
1005.0
1002.0
1006.0
1008.0
1007.0
1008.0
1005.0
1006.0
1006.0
1008.0
1008.0
1008.0
1005.0
1004.0
1005.0
1010.0
1010.0
1008.0
1006.0
1004.0
1008.0
1010.0
1012.0
1010.0
1006.0
1005.0
1008.0
1013.0
1013.0
1015.0
1010.0
1011.0
1012.0
1014.0
1018.0
1019.0
1016.0
1017.0
1020.0
1021.0
1022.0
1024.0
1023.0
1022.0
1029.0
1034.0
1036.0
1036.0
1034.0
1038.0
1039.0
1044.0
1048.0
1048.0
1050.0
1051.0
1056.0
1060.0
1065.0
1065.0
1066.0
1067.0
1069.0
1073.0
1072.0
1071.0
1068.0
1067.0
1067.0
1071.0
1068.0
1066.0
1061.0
1059.0
1057.0
1059.0
1056.0
1055.0
1048.0
1049.0
1046.0
1047.0
1047.0
1044.0
1043.0
1042.0
1043.0
1043.0
1042.0
1039.0
1037.0
1037.0
1040.0
1041.0
1041.0
1038.0
1034.0
1034.0
1039.0
1040.0
1042.0
1038.0
1036.0
1033.0
1036.0
1040.0
1039.0
1036.0
1034.0
1034.0
1036.0
1037.0
1035.0
1035.0
1030.0
1034.0
1033.0
1037.0
1037.0
1033.0
1031.0
1030.0
1036.0
1039.0
1038.0
1038.0
1033.0
1036.0
1036.0
1038.0
1041.0
1037.0
1037.0
1039.0
1041.0
1040.0
1040.0
1040.0
1038.0
1037.0
1039.0
1041.0
1042.0
1040.0
1039.0
1035.0
1038.0
1040.0
1039.0
1037.0
1032.0
1032.0
1034.0
1035.0
1037.0
1033.0
1034.0
1034.0
1033.0
1038.0
1037.0
1035.0
1032.0
1033.0
1032.0
1034.0
1035.0
1032.0
1031.0
1030.0
1031.0
1032.0
1032.0
1032.0
1028.0
1029.0
1033.0
1033.0
1032.0
1030.0
1028.0
1027.0
1031.0
1034.0
1033.0
1032.0
1027.0
1027.0
1030.0
1030.0
1033.0
1030.0
1029.0
1030.0
1027.0
1030.0
1031.0
1031.0
1028.0
1027.0
1029.0
1034.0
1034.0
1031.0
1027.0
1028.0
1028.0
1029.0
1030.0
1029.0
1026.0
1027.0
1027.0
1030.0
1029.0
1026.0
1026.0
1027.0
1027.0
1031.0
1031.0
1028.0
1025.0
1026.0
1029.0
1033.0
1030.0
1029.0
1029.0
1025.0
1030.0
1031.0
1030.0
1029.0
1028.0
1029.0
1031.0
1031.0
1032.0
1031.0
1030.0
1030.0
1033.0
1032.0
1034.0
1030.0
1030.0
1030.0
1034.0
1036.0
1032.0
1031.0
1029.0
1031.0
1033.0
1035.0
1034.0
1035.0
1029.0
1031.0
1034.0
1038.0
1039.0
1038.0
1037.0
1038.0
1038.0
1042.0
1044.0
1041.0
1039.0
1041.0
1044.0
1048.0
1049.0
1048.0
1041.0
1038.0
1039.0
1041.0
1039.0
1038.0
1038.0
1039.0
1041.0
1046.0
