# Simple Text Format
# Sampling Rate (Hz):= 360.00
# Resolution:= 12
# Labels:= ECG
992.0
994.0
998.0
996.0
998.0
995.0
995.0
997.0
996.0
998.0
992.0
990.0
988.0
991.0
993.0
991.0
991.0
987.0
985.0
986.0
988.0
994.0
988.0
986.0
983.0
983.0
987.0
988.0
986.0
985.0
986.0
989.0
990.0
996.0
1000.0
1008.0
1014.0
1018.0
1023.0
1026.0
1023.0
1017.0
1008.0
1005.0
1004.0
1001.0
1000.0
996.0
999.0
1001.0
1003.0
1002.0
1001.0
995.0
995.0
998.0
1001.0
1004.0
1003.0
998.0
997.0
996.0
999.0
1000.0
1001.0
997.0
998.0
998.0
1000.0
1001.0
998.0
995.0
999.0
1003.0
1002.0
998.0
997.0
995.0
995.0
999.0
1001.0
1003.0
998.0
996.0
996.0
997.0
1000.0
1004.0
1000.0
998.0
998.0
1000.0
1002.0
1003.0
1002.0
996.0
997.0
999.0
1004.0
1002.0
998.0
995.0
995.0
995.0
998.0
1003.0
1001.0
999.0
999.0
1000.0
999.0
1002.0
1001.0
997.0
994.0
995.0
1002.0
1002.0
1002.0
1001.0
1001.0
1004.0
1005.0
1004.0
1002.0
1000.0
999.0
1005.0
1010.0
1014.0
1014.0
1011.0
1014.0
1013.0
1015.0
1015.0
1015.0
1013.0
1014.0
1017.0
1022.0
1020.0
1015.0
1010.0
1007.0
1008.0
1006.0
1008.0
1010.0
1006.0
1005.0
1005.0
1011.0
1011.0
1014.0
1014.0
1016.0
1016.0
1017.0
1016.0
1009.0
1003.0
1001.0
1005.0
1008.0
1007.0
1004.0
1000.0
1001.0
1004.0
1009.0
1006.0
1007.0
1007.0
1005.0
1009.0
1010.0
1010.0
1009.0
1005.0
1004.0
1005.0
1006.0
1007.0
1004.0
1004.0
1005.0
1007.0
1012.0
1012.0
1012.0
1008.0
1009.0
1010.0
1016.0
1019.0
1022.0
1025.0
1032.0
1041.0
1058.0
1071.0
1077.0
1088.0
1107.0
1138.0
1167.0
1201.0
1229.0
1259.0
1287.0
1320.0
1360.0
1404.0
1439.0
1451.0
1438.0
1393.0
1315.0
1219.0
1134.0
1071.0
1036.0
1022.0
1018.0
1017.0
1012.0
1006.0
1002.0
1003.0
1004.0
1006.0
999.0
994.0
992.0
996.0
1000.0
997.0
994.0
989.0
991.0
994.0
997.0
996.0
994.0
990.0
990.0
993.0
997.0
998.0
998.0
997.0
993.0
997.0
994.0
992.0
990.0
988.0
987.0
988.0
990.0
988.0
989.0
984.0
981.0
986.0
989.0
991.0
989.0
988.0
986.0
987.0
986.0
987.0
984.0
980.0
980.0
984.0
986.0
984.0
984.0
982.0
984.0
984.0
989.0
986.0
986.0
985.0
985.0
987.0
989.0
989.0
989.0
986.0
988.0
990.0
993.0
993.0
993.0
989.0
991.0
998.0
1000.0
1003.0
1003.0
1003.0
1005.0
1008.0
1011.0
1016.0
1020.0
1020.0
1023.0
1025.0
1033.0
1038.0
1043.0
1042.0
1046.0
1052.0
1061.0
1065.0
1066.0
1065.0
1064.0
1067.0
1066.0
1065.0
1059.0
1055.0
1050.0
1048.0
1044.0
1042.0
1039.0
1036.0
1035.0
1036.0
1034.0
1033.0
1028.0
1026.0
1026.0
1026.0
1027.0
1023.0
1019.0
1018.0
1019.0
1021.0
1023.0
1024.0
1022.0
1018.0
1015.0
1017.0
1022.0
1024.0
1022.0
1017.0
1016.0
1017.0
1020.0
1022.0
1017.0
1014.0
1013.0
1012.0
1014.0
1013.0
1012.0
1012.0
1014.0
1013.0
1015.0
1018.0
1013.0
1006.0
1007.0
1010.0
1011.0
1010.0
1009.0
1005.0
1004.0
1009.0
1009.0
1013.0
1010.0
1006.0
1006.0
1008.0
1015.0
1016.0
1014.0
1011.0
1011.0
1010.0
1013.0
1014.0
1012.0
1008.0
1011.0
1014.0
1018.0
1013.0
1010.0
1010.0
1012.0
1015.0
1016.0
1016.0
1012.0
1009.0
1011.0
1018.0
1019.0
1019.0
1014.0
1012.0
1012.0
1009.0
1012.0
1009.0
1011.0
1008.0
1009.0
1010.0
1010.0
1012.0
1012.0
1009.0
1009.0
1009.0
1011.0
1010.0
1006.0
1003.0
1000.0
1004.0
1008.0
1004.0
1003.0
1002.0
1002.0
1005.0
1007.0
1008.0
1005.0
1002.0
1004.0
1005.0
1007.0
1007.0
1008.0
1005.0
1004.0
1006.0
1008.0
1007.0
1005.0
1004.0
1007.0
1010.0
1012.0
1011.0
1007.0
1006.0
1004.0
1004.0
1010.0
1012.0
1011.0
1011.0
1008.0
1010.0
1011.0
1012.0
1010.0
1009.0
1011.0
1015.0
1017.0
1013.0
1012.0
1010.0
1007.0
1010.0
1015.0
1014.0
1014.0
1011.0
1011.0
1012.0
1015.0
1016.0
1015.0
1010.0
1010.0
1011.0
1014.0
1012.0
1009.0
1010.0
1011.0
1012.0
1016.0
1013.0
1013.0
1009.0
1010.0
1011.0
1015.0
1014.0
1012.0
1009.0
1012.0
1014.0
1016.0
1017.0
1015.0
1013.0
1016.0
1020.0
1023.0
1023.0
1025.0
1021.0
1022.0
1024.0
1028.0
1024.0
1024.0
1021.0
1022.0
1024.0
1025.0
1025.0
1022.0
1017.0
1018.0
1021.0
1021.0
1021.0
1021.0
1020.0
1021.0
1025.0
1025.0
1023.0
1024.0
1023.0
1023.0
1023.0
1025.0
1024.0
1018.0
1014.0
1014.0
1017.0
1018.0
1020.0
1017.0
1016.0
1016.0
1017.0
1017.0
1016.0
1016.0
1014.0
1015.0
1014.0
1018.0
1017.0
1015.0
1011.0
1012.0
1014.0
1019.0
1022.0
1017.0
1017.0
1014.0
1017.0
1021.0
1019.0
1019.0
1018.0
1019.0
1018.0
1022.0
1022.0
1025.0
1024.0
1030.0
1039.0
1048.0
1058.0
1067.0
1073.0
1085.0
1093.0
1113.0
1136.0
1164.0
1187.0
1217.0
1249.0
1282.0
1310.0
1341.0
1378.0
1416.0
1451.0
1465.0
1446.0
1391.0
1304.0
1211.0
1135.0
1084.0
1049.0
1026.0
1019.0
1020.0
1019.0
1022.0
1019.0
1017.0
1012.0
1010.0
1009.0
1006.0
1008.0
1002.0
995.0
994.0
998.0
999.0
997.0
994.0
992.0
993.0
995.0
995.0
993.0
993.0
989.0
990.0
992.0
996.0
997.0
991.0
989.0
987.0
989.0
991.0
992.0
990.0
988.0
987.0
986.0
988.0
988.0
985.0
981.0
983.0
983.0
986.0
987.0
984.0
981.0
982.0
984.0
987.0
986.0
983.0
981.0
983.0
983.0
985.0
984.0
982.0
983.0
983.0
986.0
987.0
985.0
985.0
980.0
984.0
988.0
989.0
991.0
989.0
986.0
990.0
991.0
997.0
997.0
995.0
997.0
996.0
998.0
1005.0
1005.0
1007.0
1005.0
1008.0
1015.0
1021.0
1023.0
1024.0
1023.0
1023.0
1028.0
1036.0
1037.0
1040.0
1038.0
1044.0
1049.0
1054.0
1057.0
1057.0
1055.0
1057.0
1057.0
1059.0
1059.0
1056.0
1051.0
1053.0
1054.0
1053.0
1049.0
1043.0
1040.0
1038.0
1037.0
1039.0
1034.0
1029.0
1025.0
1025.0
1027.0
1025.0
1024.0
1023.0
1017.0
1020.0
1023.0
1022.0
1020.0
1018.0
1017.0
1018.0
1017.0
1021.0
1017.0
1017.0
1014.0
1016.0
1017.0
1022.0
1020.0
1019.0
1014.0
1015.0
1015.0
1019.0
1017.0
1016.0
1016.0
1016.0
1019.0
1022.0
1017.0
1017.0
1015.0
1014.0
1018.0
1021.0
1017.0
1018.0
1015.0
1014.0
1018.0
1019.0
1020.0
1020.0
1021.0
1020.0
1021.0
1024.0
1026.0
1024.0
1021.0
1026.0
1028.0
1031.0
1031.0
1028.0
1025.0
1025.0
1026.0
1027.0
1026.0
1023.0
1017.0
1017.0
1021.0
1021.0
1020.0
1017.0
1012.0
1016.0
1017.0
1017.0
1015.0
1011.0
1008.0
1010.0
1009.0
1013.0
1012.0
1007.0
1007.0
1008.0
1008.0
1011.0
1008.0
1006.0
1004.0
1004.0
1008.0
1006.0
1009.0
1004.0
1001.0
1002.0
1007.0
1005.0
1003.0
1005.0
1002.0
1003.0
1001.0
1007.0
1006.0
1001.0
1000.0
1003.0
1004.0
1005.0
1004.0
1002.0
1000.0
1001.0
1003.0
1005.0
1005.0
1004.0
1000.0
1001.0
1003.0
1005.0
1004.0
1002.0
1000.0
1000.0
1003.0
1005.0
1005.0
1002.0
1001.0
1001.0
1004.0
1007.0
1006.0
1005.0
1003.0
1004.0
1005.0
1009.0
1010.0
1008.0
1005.0
1007.0
1009.0
1011.0
1010.0
1009.0
1004.0
1008.0
1010.0
1013.0
1012.0
1011.0
1007.0
1009.0
1009.0
1016.0
1011.0
1012.0
1008.0
1009.0
1012.0
1010.0
1011.0
1006.0
1006.0
1005.0
1011.0
1014.0
1013.0
1011.0
1007.0
1007.0
1008.0
1013.0
1011.0
1009.0
1005.0
1006.0
1010.0
1012.0
1011.0
1012.0
1007.0
1011.0
1014.0
1017.0
1018.0
1017.0
1015.0
1018.0
1020.0
1024.0
1023.0
1020.0
1019.0
1020.0
1024.0
1028.0
1027.0
1027.0
1022.0
1022.0
1019.0
1021.0
1022.0
1020.0
1018.0
1020.0
1025.0
1025.0
1024.0
1022.0
1019.0
1021.0
1026.0
1026.0
1026.0
1025.0
1022.0
1020.0
1019.0
1018.0
1016.0
1013.0
1014.0
1015.0
1016.0
1017.0
1017.0
1016.0
1010.0
1014.0
1018.0
1019.0
1017.0
1016.0
1012.0
1013.0
1014.0
1017.0
1017.0
1015.0
1013.0
1015.0
1016.0
1018.0
1017.0
1017.0
1011.0
1015.0
1020.0
1020.0
1020.0
1018.0
1017.0
1018.0
1026.0
1033.0
1039.0
1048.0
1055.0
1070.0
1083.0
1095.0
1110.0
1138.0
1169.0
1204.0
1239.0
1272.0
1299.0
1328.0
1364.0
1406.0
1449.0
1479.0
1483.0
1461.0
1406.0
1321.0
1228.0
1151.0
1095.0
1050.0
1024.0
1019.0
1023.0
1027.0
1026.0
1019.0
1019.0
1013.0
1014.0
1012.0
1008.0
1001.0
1001.0
1001.0
1002.0
1004.0
1004.0
999.0
999.0
999.0
998.0
1004.0
1002.0
1001.0
996.0
998.0
999.0
1002.0
999.0
995.0
995.0
994.0
996.0
998.0
998.0
994.0
993.0
990.0
994.0
995.0
994.0
993.0
988.0
989.0
992.0
997.0
997.0
992.0
991.0
993.0
995.0
997.0
996.0
996.0
993.0
994.0
994.0
998.0
996.0
994.0
994.0
996.0
999.0
1002.0
1001.0
1000.0
998.0
997.0
1000.0
1001.0
1004.0
1003.0
1003.0
1004.0
1007.0
1007.0
1007.0
1006.0
1008.0
1009.0
1012.0
1017.0
1018.0
1019.0
1021.0
1022.0
1027.0
1030.0
1033.0
1034.0
1035.0
1039.0
1043.0
1046.0
1050.0
1050.0
1053.0
1056.0
1063.0
1070.0
1071.0
1077.0
1076.0
1080.0
1079.0
1085.0
1084.0
1086.0
1084.0
1084.0
1082.0
1084.0
1082.0
1076.0
1074.0
1072.0
1072.0
1073.0
1068.0
1062.0
1057.0
1057.0
1058.0
1055.0
1055.0
1049.0
1043.0
1045.0
1043.0
1047.0
1047.0
1041.0
1039.0
1037.0
1035.0
1041.0
1038.0
1035.0
1034.0
1036.0
1040.0
1040.0
1037.0
1035.0
1033.0
1033.0
1035.0
1036.0
1034.0
1031.0
1029.0
1029.0
1031.0
1033.0
1029.0
1028.0
1023.0
1025.0
1029.0
1030.0
1029.0
1025.0
1021.0
1022.0
1023.0
1026.0
1025.0
1023.0
1024.0
1021.0
1022.0
1024.0
1022.0
1019.0
1017.0
1018.0
1019.0
1024.0
1022.0
1019.0
1017.0
1019.0
1021.0
1024.0
1025.0
1021.0
1019.0
1021.0
1022.0
1026.0
1024.0
1019.0
1021.0
1021.0
1024.0
1023.0
1021.0
1019.0
1017.0
1020.0
1024.0
1026.0
1022.0
1020.0
1015.0
1015.0
1017.0
1021.0
1022.0
1020.0
1017.0
1018.0
1019.0
1020.0
1018.0
1014.0
1015.0
1015.0
1017.0
1019.0
1016.0
1012.0
1013.0
1011.0
1015.0
1016.0
1017.0
1010.0
1010.0
1011.0
1012.0
1013.0
1014.0
1013.0
1010.0
1009.0
1011.0
1012.0
1011.0
1009.0
1008.0
1008.0
1011.0
1010.0
1012.0
1012.0
1011.0
1011.0
1011.0
1011.0
1012.0
1010.0
1008.0
1010.0
1013.0
1016.0
1011.0
1010.0
1010.0
1012.0
1013.0
1017.0
1015.0
1012.0
1010.0
1008.0
1011.0
1013.0
1010.0
1006.0
1008.0
1004.0
1008.0
1008.0
1007.0
1008.0
1005.0
1007.0
1007.0
1007.0
1005.0
1003.0
1005.0
1005.0
1005.0
1009.0
1004.0
1004.0
1000.0
1004.0
1004.0
1009.0
1010.0
1009.0
1006.0
1007.0
1013.0
1014.0
1013.0
1015.0
1013.0
1017.0
1020.0
1021.0
1018.0
1017.0
1016.0
1017.0
1019.0
1022.0
1023.0
1021.0
1019.0
1021.0
1023.0
1024.0
1025.0
1027.0
1024.0
1025.0
1028.0
1029.0
1025.0
1024.0
1022.0
1022.0
1025.0
1028.0
1026.0
1023.0
1019.0
1022.0
1023.0
1026.0
1027.0
1022.0
1022.0
1021.0
1028.0
1031.0
1029.0
1023.0
1021.0
1021.0
1021.0
1020.0
1021.0
1019.0
1015.0
1018.0
1020.0
1023.0
1020.0
1019.0
1016.0
1016.0
1020.0
1021.0
1019.0
1015.0
1014.0
1017.0
1018.0
1021.0
1018.0
1020.0
1016.0
1018.0
1018.0
1022.0
1021.0
1019.0
1017.0
1018.0
1023.0
1024.0
1020.0
1023.0
1023.0
1027.0
1028.0
1035.0
1039.0
1040.0
1050.0
1065.0
1079.0
1092.0
1104.0
1121.0
1149.0
1179.0
1214.0
1243.0
1271.0
1299.0
1328.0
1364.0
1406.0
1443.0
1459.0
1447.0
1400.0
1316.0
1226.0
1153.0
1093.0
1051.0
1029.0
1023.0
1023.0
1026.0
1022.0
1019.0
1015.0
1012.0
1012.0
1009.0
1005.0
1003.0
999.0
1001.0
1001.0
1000.0
998.0
996.0
994.0
995.0
996.0
998.0
999.0
995.0
993.0
994.0
995.0
996.0
995.0
992.0
990.0
988.0
991.0
992.0
991.0
988.0
988.0
986.0
991.0
992.0
989.0
989.0
984.0
984.0
984.0
989.0
990.0
986.0
986.0
986.0
990.0
997.0
994.0
991.0
988.0
988.0
990.0
990.0
991.0
990.0
992.0
994.0
997.0
995.0
996.0
994.0
996.0
997.0
1001.0
1005.0
1005.0
1003.0
1001.0
1004.0
1008.0
1012.0
1012.0
1012.0
1010.0
1013.0
1018.0
1020.0
1025.0
1025.0
1027.0
1029.0
1034.0
1040.0
1044.0
1043.0
1044.0
1048.0
1053.0
1060.0
1062.0
1064.0
1064.0
1066.0
1072.0
1070.0
1068.0
1063.0
1062.0
1065.0
1063.0
1064.0
1061.0
1056.0
1053.0
1053.0
1053.0
1052.0
1048.0
1043.0
1038.0
1036.0
1037.0
1039.0
1038.0
1032.0
1029.0
1027.0
1030.0
1030.0
1028.0
1028.0
1025.0
1026.0
1027.0
1029.0
1028.0
1024.0
1023.0
1023.0
1021.0
1026.0
1024.0
1024.0
1020.0
1020.0
1022.0
1022.0
1021.0
1020.0
1016.0
1018.0
1020.0
1019.0
1023.0
1019.0
1014.0
1015.0
1015.0
1016.0
1016.0
1013.0
1011.0
1012.0
1012.0
1015.0
1014.0
1013.0
1010.0
1012.0
1013.0
1015.0
1015.0
1011.0
1013.0
1014.0
1017.0
1019.0
1018.0
1016.0
1014.0
1015.0
1019.0
1020.0
1018.0
1018.0
1014.0
1014.0
1015.0
1017.0
1017.0
1016.0
1014.0
1014.0
1015.0
1020.0
1017.0
1015.0
1014.0
1013.0
1016.0
1018.0
1016.0
1015.0
1012.0
1011.0
1013.0
1017.0
1016.0
1012.0
1011.0
1012.0
1014.0
1016.0
1013.0
1010.0
1010.0
1010.0
1012.0
1015.0
1013.0
1012.0
1006.0
1008.0
1011.0
1011.0
1010.0
1008.0
1006.0
1006.0
1011.0
1010.0
1008.0
1004.0
1004.0
1006.0
1011.0
1012.0
1009.0
1008.0
1005.0
1005.0
1008.0
1011.0
1010.0
1008.0
1005.0
1005.0
1006.0
1006.0
1007.0
1002.0
1002.0
1005.0
1006.0
1010.0
1008.0
1003.0
1003.0
1005.0
1007.0
1012.0
1011.0
1007.0
1005.0
1006.0
1010.0
1011.0
1009.0
1006.0
1007.0
1005.0
1010.0
1012.0
1011.0
1005.0
1006.0
1004.0
1007.0
1010.0
1010.0
1008.0
1009.0
1008.0
1008.0
1009.0
1010.0
1007.0
1007.0
1008.0
1012.0
1014.0
1011.0
1009.0
1007.0
1009.0
1010.0
1013.0
1014.0
1011.0
1008.0
1009.0
1011.0
1014.0
1013.0
1008.0
1009.0
1013.0
1014.0
1017.0
1016.0
1012.0
1013.0
1015.0
1018.0
1021.0
1023.0
1022.0
1022.0
1023.0
1026.0
1029.0
1029.0
1024.0
1023.0
1026.0
1029.0
1029.0
1028.0
1022.0
1017.0
1019.0
1020.0
1022.0
1021.0
1021.0
1019.0
1020.0
1024.0
1028.0
1029.0
1027.0
1025.0
1024.0
1025.0
1027.0
1024.0
1021.0
1015.0
1016.0
1017.0
1021.0
1018.0
1017.0
1018.0
1018.0
1022.0
1024.0
1024.0
1020.0
1020.0
1019.0
1021.0
1023.0
1022.0
1019.0
1020.0
1021.0
1024.0
1026.0
1025.0
1023.0
1023.0
1023.0
1026.0
1027.0
1026.0
1025.0
1026.0
1027.0
1034.0
1038.0
1042.0
1048.0
1059.0
1073.0
1086.0
1102.0
1119.0
1146.0
1176.0
1209.0
1246.0
1284.0
1318.0
1352.0
1392.0
1441.0
1476.0
1483.0
1449.0
1375.0
1272.0
1177.0
1109.0
1062.0
1032.0
1019.0
1020.0
1024.0
1024.0
1025.0
1019.0
1012.0
1004.0
998.0
1001.0
1002.0
999.0
995.0
992.0
993.0
993.0
994.0
992.0
990.0
993.0
995.0
997.0
999.0
996.0
997.0
995.0
995.0
1000.0
1003.0
1002.0
999.0
994.0
995.0
999.0
1000.0
1000.0
998.0
994.0
994.0
998.0
1000.0
999.0
997.0
995.0
996.0
996.0
994.0
992.0
991.0
990.0
989.0
993.0
996.0
999.0
998.0
997.0
997.0
996.0
997.0
997.0
996.0
997.0
998.0
1000.0
1003.0
1007.0
1006.0
1012.0
1015.0
1020.0
1021.0
1022.0
1021.0
1021.0
1030.0
1037.0
1043.0
1044.0
1040.0
1036.0
1033.0
1033.0
1036.0
1038.0
1039.0
1040.0
1043.0
1050.0
1054.0
1055.0
1048.0
1052.0
1061.0
1071.0
1076.0
1083.0
1082.0
1084.0
1083.0
1082.0
1083.0
1080.0
1079.0
1078.0
1082.0
1083.0
1084.0
1080.0
1076.0
1072.0
1078.0
1085.0
1089.0
1086.0
1079.0
1076.0
1076.0
1077.0
1078.0
1073.0
1067.0
1066.0
1064.0
1061.0
1063.0
1059.0
1056.0
1055.0
1057.0
1059.0
1059.0
1060.0
1056.0
1052.0
1053.0
1057.0
1064.0
1060.0
1058.0
1049.0
1045.0
1049.0
1051.0
1051.0
1047.0
1047.0
1049.0
1048.0
1050.0
1046.0
1043.0
1039.0
1040.0
1047.0
1047.0
1043.0
1042.0
1043.0
1045.0
1049.0
1053.0
1051.0
1045.0
1040.0
1042.0
1046.0
1047.0
1046.0
1043.0
1042.0
1042.0
1046.0
1051.0
1051.0
1050.0
1045.0
1041.0
1045.0
1050.0
1051.0
1049.0
1047.0
1046.0
1050.0
1051.0
1047.0
1039.0
1041.0
1044.0
1051.0
1051.0
1047.0
1041.0
1040.0
1042.0
1048.0
1048.0
1046.0
1045.0
1042.0
1044.0
1042.0
1041.0
1039.0
1039.0
1039.0
1041.0
1042.0
1043.0
1044.0
1039.0
1033.0
1032.0
1036.0
1041.0
1043.0
1040.0
1038.0
1040.0
1039.0
1042.0
1040.0
1037.0
1033.0
1031.0
1032.0
1035.0
1038.0
1034.0
1033.0
1037.0
1043.0
1046.0
1039.0
1029.0
1025.0
1026.0
1034.0
1038.0
1038.0
1037.0
1034.0
1032.0
1034.0
1038.0
1040.0
1037.0
1036.0
1033.0
1032.0
1032.0
1031.0
1032.0
1034.0
1036.0
1039.0
1039.0
1039.0
1033.0
1028.0
1027.0
1032.0
1038.0
1039.0
1038.0
1035.0
1034.0
1030.0
1031.0
1034.0
1033.0
1031.0
1033.0
1034.0
1036.0
1034.0
1035.0
1033.0
1033.0
1034.0
1039.0
1037.0
1033.0
1032.0
1033.0
1037.0
1042.0
1042.0
1041.0
1037.0
1042.0
1047.0
1049.0
1045.0
1042.0
1040.0
1045.0
1048.0
1051.0
1050.0
1053.0
1045.0
1044.0
1045.0
1047.0
1041.0
1036.0
1034.0
1040.0
1046.0
1054.0
1054.0
1049.0
1047.0
1045.0
1046.0
1050.0
1050.0
1046.0
1040.0
1040.0
1040.0
1044.0
1041.0
1037.0
1031.0
1036.0
1041.0
1045.0
1046.0
1043.0
1042.0
1042.0
1041.0
1040.0
1037.0
1035.0
1033.0
1030.0
1029.0
1030.0
1035.0
1031.0
1029.0
1031.0
1034.0
1035.0
1036.0
1030.0
1029.0
1031.0
1038.0
1042.0
1039.0
1040.0
1043.0
1054.0
1070.0
1084.0
1096.0
1101.0
1112.0
1135.0
1165.0
1194.0
1224.0
1252.0
1282.0
1315.0
1356.0
1402.0
1435.0
1451.0
1437.0
1389.0
1312.0
1224.0
1144.0
1086.0
1051.0
1035.0
1032.0
1038.0
1036.0
1034.0
1028.0
1026.0
1029.0
1028.0
1026.0
1022.0
1017.0
1019.0
1018.0
1019.0
1018.0
1014.0
1009.0
1010.0
1013.0
1012.0
1013.0
1012.0
1006.0
1009.0
1009.0
1011.0
1012.0
1009.0
1008.0
1007.0
1005.0
1006.0
1005.0
1002.0
999.0
1000.0
1004.0
1007.0
1007.0
1006.0
1001.0
999.0
999.0
999.0
1003.0
1001.0
1000.0
1001.0
1002.0
1006.0
1005.0
1003.0
998.0
997.0
1003.0
1007.0
1008.0
1006.0
1005.0
1007.0
1009.0
1014.0
1012.0
1007.0
999.0
998.0
1001.0
1009.0
1011.0
1013.0
1013.0
1012.0
1016.0
1016.0
1012.0
1012.0
1010.0
1013.0
1022.0
1024.0
1025.0
1025.0
1019.0
1021.0
1023.0
1026.0
1028.0
1029.0
1029.0
1034.0
1041.0
1046.0
1044.0
1048.0
1053.0
1059.0
1063.0
1066.0
1064.0
1069.0
1072.0
1078.0
1077.0
1078.0
1076.0
1070.0
1069.0
1067.0
1072.0
1071.0
1072.0
1064.0
1057.0
1054.0
1054.0
1057.0
1055.0
1052.0
1048.0
1050.0
1053.0
1053.0
1042.0
1037.0
1035.0
1037.0
1039.0
1042.0
1044.0
1040.0
1042.0
1045.0
1046.0
1044.0
1039.0
1035.0
1033.0
1036.0
1039.0
1039.0
1039.0
1033.0
1029.0
1028.0
1033.0
1038.0
1039.0
1038.0
1035.0
1034.0
1034.0
1032.0
1031.0
1031.0
1028.0
1031.0
1034.0
1036.0
1035.0
1032.0
1032.0
1031.0
1032.0
1033.0
1037.0
1040.0
1045.0
1055.0
1068.0
1087.0
1107.0
1130.0
1145.0
1145.0
1126.0
1092.0
1032.0
955.0
870.0
786.0
703.0
637.0
600.0
587.0
586.0
580.0
593.0
618.0
649.0
678.0
705.0
739.0
772.0
803.0
824.0
838.0
851.0
869.0
892.0
909.0
920.0
927.0
935.0
947.0
956.0
966.0
972.0
981.0
993.0
1005.0
1022.0
1036.0
1043.0
1049.0
1053.0
1059.0
1065.0
1073.0
1071.0
1070.0
1071.0
1077.0
1085.0
1090.0
1092.0
1089.0
1088.0
1090.0
1094.0
1094.0
1096.0
1097.0
1099.0
1102.0
1106.0
1108.0
1111.0
1109.0
1111.0
1115.0
1117.0
1120.0
1123.0
1129.0
1132.0
1136.0
1143.0
1149.0
1153.0
1154.0
1157.0
1166.0
1174.0
1181.0
1183.0
1190.0
1198.0
1206.0
1214.0
1223.0
1229.0
1233.0
1238.0
1248.0
1257.0
1264.0
1269.0
1273.0
1273.0
1279.0
1283.0
1284.0
1284.0
1278.0
1281.0
1276.0
1275.0
1273.0
1265.0
1255.0
1248.0
1240.0
1233.0
1224.0
1214.0
1202.0
1193.0
1188.0
1179.0
1169.0
1158.0
1147.0
1139.0
1135.0
1128.0
1121.0
1112.0
1107.0
1099.0
1095.0
1093.0
1089.0
1081.0
1072.0
1068.0
1067.0
1068.0
1069.0
1065.0
1063.0
1056.0
1051.0
1053.0
1053.0
1050.0
1047.0
1044.0
1046.0
1047.0
1048.0
1046.0
1043.0
1039.0
1043.0
1044.0
1046.0
1040.0
1036.0
1033.0
1036.0
1039.0
1042.0
1040.0
1033.0
1032.0
1034.0
1036.0
1039.0
1035.0
1033.0
1028.0
1030.0
1030.0
1036.0
1037.0
1032.0
1027.0
1025.0
1026.0
1026.0
1025.0
1025.0
1023.0
1023.0
1025.0
1028.0
1024.0
1020.0
1019.0
1018.0
1018.0
1017.0
1017.0
1016.0
1015.0
1017.0
1018.0
1022.0
1019.0
1015.0
1011.0
1011.0
1013.0
1016.0
1015.0
1011.0
1008.0
1012.0
1011.0
1013.0
1012.0
1010.0
1008.0
1011.0
1015.0
1018.0
1018.0
1016.0
1013.0
1013.0
1015.0
1012.0
1008.0
1008.0
1006.0
1006.0
1009.0
1010.0
1009.0
1007.0
1007.0
1009.0
1012.0
1011.0
1011.0
1007.0
1006.0
1006.0
1011.0
1010.0
1009.0
1007.0
1007.0
1010.0
1010.0
1012.0
1012.0
1012.0
1010.0
1014.0
1014.0
1012.0
1005.0
1001.0
1002.0
1003.0
1008.0
1009.0
1009.0
1008.0
1009.0
1011.0
1014.0
1013.0
1010.0
1005.0
1007.0
1011.0
1011.0
1013.0
1010.0
1009.0
1009.0
1007.0
1008.0
1011.0
1013.0
1009.0
1008.0
1008.0
1008.0
1010.0
1006.0
1005.0
1001.0
1003.0
1009.0
1012.0
1009.0
1005.0
1002.0
1008.0
1011.0
1014.0
1016.0
1013.0
1009.0
1007.0
1008.0
1012.0
1014.0
1010.0
1009.0
1006.0
1008.0
1012.0
1013.0
1007.0
1008.0
1010.0
1012.0
1014.0
1015.0
1010.0
1010.0
1011.0
1015.0
1017.0
1015.0
1010.0
1006.0
1007.0
1014.0
1014.0
1011.0
1011.0
1009.0
1013.0
1014.0
1015.0
1009.0
1007.0
1008.0
1011.0
1013.0
1016.0
1014.0
1012.0
1013.0
1015.0
1017.0
1014.0
1010.0
1011.0
1012.0
1014.0
1017.0
1016.0
1013.0
1010.0
1011.0
1013.0
1016.0
1018.0
1016.0
1011.0
1008.0
1012.0
1014.0
1018.0
1014.0
1014.0
1013.0
1014.0
1014.0
1015.0
1013.0
1012.0
1008.0
1012.0
1017.0
1020.0
1019.0
1017.0
1013.0
1013.0
1016.0
1017.0
1014.0
1013.0
1010.0
1012.0
1015.0
1019.0
1019.0
1015.0
1016.0
1017.0
1016.0
1017.0
1014.0
1013.0
1013.0
1014.0
1018.0
1019.0
1016.0
1016.0
1012.0
1016.0
1016.0
1019.0
1020.0
1019.0
1018.0
1019.0
1019.0
1023.0
1022.0
1018.0
1018.0
1016.0
1018.0
1020.0
1020.0
1020.0
1018.0
1020.0
1023.0
1022.0
1022.0
1016.0
1016.0
1012.0
1015.0
1017.0
1017.0
1014.0
1017.0
1018.0
1020.0
1021.0
1023.0
1019.0
1016.0
1015.0
1017.0
1017.0
1018.0
1016.0
1016.0
1019.0
1020.0
1021.0
1019.0
1014.0
1016.0
1016.0
1020.0
1025.0
1021.0
1019.0
1016.0
1020.0
1022.0
1023.0
1020.0
1015.0
1012.0
1016.0
1017.0
1021.0
1020.0
1019.0
1019.0
1021.0
1026.0
1023.0
1019.0
1013.0
1010.0
1014.0
1023.0
1025.0
1024.0
1021.0
1021.0
1019.0
1021.0
1021.0
1020.0
1019.0
1017.0
1019.0
1019.0
1021.0
1023.0
1020.0
1018.0
1021.0
1022.0
1024.0
1020.0
1018.0
1020.0
1022.0
1022.0
1022.0
1018.0
1015.0
1019.0
1020.0
1022.0
1021.0
1020.0
1016.0
1017.0
1019.0
1023.0
1021.0
1019.0
1019.0
1018.0
1021.0
1026.0
1024.0
1020.0
1019.0
1016.0
1020.0
1023.0
1025.0
1024.0
1023.0
1022.0
1025.0
1028.0
1031.0
1031.0
1029.0
1028.0
1032.0
1034.0
1037.0
1037.0
1034.0
1034.0
1036.0
1037.0
1036.0
1032.0
1030.0
1027.0
1031.0
1030.0
1035.0
1036.0
1035.0
1035.0
1038.0
1039.0
1041.0
1039.0
1030.0
1029.0
1031.0
1036.0
1035.0
1032.0
1029.0
1025.0
1031.0
1030.0
1030.0
1028.0
1026.0
1023.0
1026.0
1027.0
1028.0
1030.0
1026.0
1025.0
1027.0
1030.0
1029.0
1027.0
1025.0
1027.0
1029.0
1031.0
1031.0
1031.0
1026.0
1023.0
1026.0
1031.0
1030.0
1030.0
1031.0
1034.0
1039.0
1046.0
1050.0
1048.0
1052.0
1064.0
1079.0
1088.0
1094.0
1106.0
1126.0
1154.0
1192.0
1224.0
1258.0
1285.0
1316.0
1352.0
1400.0
1437.0
1458.0
1444.0
1387.0
1300.0
1204.0
1126.0
1076.0
1049.0
1043.0
1044.0
1047.0
1045.0
1043.0
1032.0
1025.0
1023.0
1022.0
1022.0
1019.0
1017.0
1014.0
1013.0
1014.0
1013.0
1011.0
1007.0
1003.0
1003.0
1009.0
1012.0
1013.0
1006.0
1005.0
1004.0
1007.0
1009.0
1007.0
1002.0
999.0
1001.0
1005.0
1005.0
1003.0
1004.0
999.0
1003.0
1002.0
1005.0
1008.0
1005.0
1005.0
1002.0
1002.0
1003.0
1006.0
1009.0
1007.0
1006.0
1006.0
1003.0
1002.0
1006.0
1009.0
1008.0
1009.0
1010.0
1008.0
1007.0
1007.0
1006.0
1006.0
1009.0
1010.0
1010.0
1009.0
1008.0
1009.0
1011.0
1015.0
1015.0
1013.0
1009.0
1009.0
1015.0
1019.0
1019.0
1016.0
1016.0
1018.0
1017.0
1021.0
1021.0
1021.0
1022.0
1024.0
1028.0
1031.0
1032.0
1032.0
1029.0
1028.0
1034.0
1039.0
1039.0
1039.0
1043.0
1047.0
1051.0
1053.0
1052.0
1049.0
1050.0
1058.0
1066.0
1067.0
1069.0
1067.0
1072.0
1075.0
1081.0
1083.0
1084.0
1082.0
1080.0
1081.0
1085.0
1082.0
1079.0
1076.0
1074.0
1077.0
1076.0
1076.0
1075.0
1070.0
1064.0
1065.0
1065.0
1067.0
1067.0
1066.0
1062.0
1058.0
1053.0
1047.0
1045.0
1044.0
1046.0
1046.0
1045.0
1043.0
1046.0
1044.0
1044.0
1043.0
1044.0
1045.0
1045.0
1042.0
1042.0
1042.0
1045.0
1044.0
1044.0
1043.0
1044.0
1042.0
1041.0
1041.0
1041.0
1039.0
1038.0
1036.0
1037.0
1038.0
1037.0
1037.0
1033.0
1037.0
1040.0
1043.0
1040.0
1034.0
1033.0
1036.0
1038.0
1036.0
1031.0
1033.0
1032.0
1038.0
1039.0
1037.0
1032.0
1031.0
1032.0
1032.0
1036.0
1038.0
1036.0
1033.0
1029.0
1026.0
1026.0
1028.0
1028.0
1028.0
1026.0
1029.0
1032.0
1032.0
1025.0
1021.0
1023.0
1022.0
1023.0
1027.0
1026.0
1025.0
1023.0
1022.0
1022.0
1023.0
1022.0
1018.0
1016.0
1015.0
1019.0
1023.0
1019.0
1015.0
1015.0
1018.0
1022.0
1024.0
1022.0
1020.0
1016.0
1017.0
1021.0
1017.0
1016.0
1016.0
1017.0
1018.0
1020.0
1019.0
1019.0
1019.0
1018.0
1021.0
1021.0
1018.0
1020.0
1017.0
1016.0
1018.0
1021.0
1021.0
1022.0
1019.0
1021.0
1020.0
1023.0
1024.0
1022.0
1018.0
1016.0
1018.0
1022.0
1022.0
1023.0
1023.0
1021.0
1021.0
1020.0
1019.0
1015.0
1014.0
1014.0
1017.0
1022.0
1019.0
1018.0
1017.0
1019.0
1022.0
1023.0
1020.0
1020.0
1017.0
1018.0
1022.0
1027.0
1024.0
1024.0
1019.0
1020.0
1022.0
1025.0
1025.0
1022.0
1018.0
1016.0
1019.0
1021.0
1021.0
1020.0
1020.0
1021.0
1024.0
1026.0
1029.0
1025.0
1023.0
1019.0
1019.0
1020.0
1021.0
1022.0
1025.0
1024.0
1029.0
1030.0
1028.0
1029.0
1025.0
1028.0
1035.0
1037.0
1038.0
1036.0
1033.0
1032.0
1030.0
1036.0
1036.0
1037.0
1034.0
1027.0
1025.0
1023.0
1026.0
1028.0
1029.0
1033.0
1033.0
1037.0
1033.0
1031.0
1029.0
1029.0
1032.0
1034.0
1035.0
1030.0
1027.0
1025.0
1022.0
1025.0
1024.0
1022.0
1017.0
1018.0
1021.0
1028.0
1025.0
1021.0
1018.0
1017.0
1022.0
1023.0
1025.0
1028.0
1021.0
1023.0
1021.0
1022.0
1021.0
1020.0
1021.0
1020.0
1022.0
1023.0
1024.0
1024.0
1022.0
1023.0
1023.0
1026.0
1027.0
1026.0
1027.0
1029.0
1038.0
1044.0
1049.0
1054.0
1058.0
1068.0
1076.0
1082.0
1088.0
1099.0
1119.0
1142.0
1174.0
1204.0
1228.0
1251.0
1274.0
1308.0
1349.0
1392.0
1420.0
1424.0
1389.0
1320.0
1230.0
1148.0
1084.0
1046.0
1024.0
1017.0
1022.0
1028.0
1030.0
1026.0
1022.0
1021.0
1022.0
1023.0
1018.0
1009.0
1003.0
1002.0
1011.0
1008.0
1006.0
1003.0
1002.0
1002.0
1004.0
1007.0
1007.0
1007.0
1002.0
999.0
999.0
1002.0
1002.0
1005.0
1001.0
1003.0
1002.0
1003.0
1005.0
1001.0
1001.0
998.0
1003.0
1005.0
1006.0
1002.0
996.0
997.0
998.0
1002.0
1004.0
1003.0
1000.0
1000.0
1002.0
1006.0
1004.0
1002.0
1000.0
1001.0
1005.0
1009.0
1012.0
1010.0
1006.0
1004.0
999.0
1002.0
1006.0
1008.0
1008.0
1007.0
1008.0
1011.0
1011.0
1010.0
1007.0
1007.0
1009.0
1013.0
1016.0
1016.0
1013.0
1015.0
1015.0
1018.0
1016.0
1017.0
1017.0
1018.0
1021.0
1026.0
1030.0
1029.0
1028.0
1029.0
1034.0
1039.0
1044.0
1042.0
1040.0
1044.0
1045.0
1050.0
1050.0
1054.0
1053.0
1054.0
1055.0
1058.0
1062.0
1061.0
1060.0
1055.0
1053.0
1059.0
1061.0
1063.0
1058.0
1049.0
1049.0
1052.0
1053.0
1051.0
1042.0
1039.0
1043.0
1044.0
1045.0
1042.0
1039.0
1035.0
1036.0
1041.0
1041.0
1037.0
1032.0
1029.0
1030.0
1038.0
1038.0
1036.0
1033.0
1030.0
1032.0
1032.0
1035.0
1031.0
1029.0
1029.0
1031.0
1032.0
1033.0
1030.0
1028.0
1028.0
1028.0
1032.0
1032.0
1030.0
1028.0
1027.0
1028.0
1029.0
1033.0
1032.0
1029.0
1027.0
1032.0
1037.0
1037.0
1032.0
1027.0
1023.0
1029.0
1032.0
1033.0
1031.0
1027.0
1030.0
