# Simple Text Format
# Sampling Rate (Hz):= 360.00
# Resolution:= 12
# Labels:= ECG
1027.0
1024.0
1021.0
1019.0
1021.0
1024.0
1027.0
1025.0
1022.0
1020.0
1023.0
1022.0
1027.0
1024.0
1021.0
1019.0
1021.0
1022.0
1027.0
1024.0
1019.0
1019.0
1020.0
1023.0
1026.0
1024.0
1022.0
1019.0
1022.0
1024.0
1025.0
1027.0
1025.0
1026.0
1029.0
1033.0
1039.0
1045.0
1044.0
1054.0
1065.0
1079.0
1090.0
1099.0
1114.0
1138.0
1170.0
1202.0
1236.0
1267.0
1294.0
1323.0
1362.0
1408.0
1446.0
1468.0
1461.0
1420.0
1344.0
1254.0
1169.0
1104.0
1057.0
1031.0
1026.0
1029.0
1033.0
1033.0
1028.0
1024.0
1024.0
1021.0
1018.0
1014.0
1011.0
1009.0
1008.0
1008.0
1011.0
1009.0
1004.0
1003.0
1002.0
1008.0
1010.0
1005.0
1004.0
999.0
1001.0
1005.0
1005.0
1004.0
1001.0
999.0
1001.0
1001.0
1002.0
1002.0
999.0
996.0
999.0
1001.0
1003.0
1004.0
998.0
997.0
997.0
998.0
1002.0
1002.0
997.0
998.0
997.0
1000.0
1001.0
999.0
997.0
997.0
999.0
1003.0
1004.0
1000.0
998.0
998.0
1001.0
1004.0
1005.0
1003.0
999.0
999.0
1001.0
1003.0
1004.0
1003.0
1003.0
1001.0
1004.0
1005.0
1005.0
1005.0
1004.0
1002.0
1007.0
1011.0
1013.0
1010.0
1010.0
1011.0
1014.0
1018.0
1021.0
1023.0
1024.0
1024.0
1028.0
1032.0
1037.0
1034.0
1037.0
1038.0
1043.0
1049.0
1056.0
1058.0
1056.0
1056.0
1062.0
1065.0
1069.0
1069.0
1070.0
1067.0
1067.0
1069.0
1068.0
1068.0
1065.0
1061.0
1062.0
1062.0
1061.0
1059.0
1053.0
1050.0
1051.0
1049.0
1051.0
1047.0
1043.0
1041.0
1041.0
1042.0
1042.0
1042.0
1038.0
1035.0
1037.0
1041.0
1042.0
1040.0
1036.0
1035.0
1038.0
1039.0
1043.0
1041.0
1038.0
1035.0
1036.0
1037.0
1041.0
1040.0
1036.0
1034.0
1035.0
1035.0
1038.0
1038.0
1036.0
1035.0
1035.0
1039.0
1039.0
1036.0
1036.0
1034.0
1033.0
1034.0
1038.0
1035.0
1034.0
1035.0
1032.0
1035.0
1036.0
1037.0
1033.0
1033.0
1035.0
1036.0
1039.0
1037.0
1035.0
1032.0
1034.0
1038.0
1040.0
1039.0
1034.0
1035.0
1038.0
1041.0
1040.0
1041.0
1036.0
1035.0
1036.0
1041.0
1042.0
1038.0
1037.0
1035.0
1036.0
1038.0
1042.0
1040.0
1036.0
1034.0
1034.0
1036.0
1039.0
1036.0
1035.0
1034.0
1033.0
1036.0
1037.0
1035.0
1032.0
1030.0
1035.0
1037.0
1038.0
1036.0
1033.0
1031.0
1033.0
1035.0
1035.0
1032.0
1030.0
1031.0
1031.0
1034.0
1037.0
1032.0
1027.0
1028.0
1029.0
1032.0
1034.0
1031.0
1027.0
1026.0
1028.0
1032.0
1033.0
1032.0
1031.0
1029.0
1031.0
1031.0
1033.0
1031.0
1028.0
1025.0
1028.0
1028.0
1032.0
1030.0
1027.0
1026.0
1024.0
1029.0
1031.0
1028.0
1027.0
1028.0
1030.0
1034.0
1037.0
1038.0
1037.0
1033.0
1037.0
1038.0
1040.0
1038.0
1033.0
1033.0
1035.0
1036.0
1039.0
1038.0
1033.0
1032.0
1033.0
1034.0
1036.0
1032.0
1033.0
1030.0
1033.0
1035.0
1036.0
1033.0
1032.0
1032.0
1033.0
1034.0
1036.0
1035.0
1033.0
1033.0
1032.0
1034.0
1037.0
1035.0
1033.0
1036.0
1039.0
1042.0
1044.0
1043.0
1040.0
1039.0
1040.0
1043.0
1046.0
1047.0
1042.0
1041.0
1044.0
1045.0
1045.0
1046.0
1041.0
1038.0
1040.0
1039.0
1040.0
1039.0
1036.0
1035.0
1039.0
1044.0
1047.0
1045.0
1045.0
1041.0
1043.0
1044.0
1046.0
1044.0
1041.0
1039.0
1040.0
1039.0
1040.0
1036.0
1034.0
1031.0
1033.0
1035.0
1040.0
1037.0
1033.0
1031.0
1032.0
1034.0
1035.0
1034.0
1033.0
1032.0
1033.0
1036.0
1036.0
1036.0
1032.0
1030.0
1032.0
1036.0
1037.0
1033.0
1031.0
1033.0
1032.0
1037.0
1042.0
1039.0
1038.0
1038.0
1044.0
1051.0
1059.0
1063.0
1070.0
1081.0
1092.0
1104.0
1120.0
1138.0
1159.0
1186.0
1215.0
1244.0
1274.0
1299.0
1323.0
1349.0
1387.0
1420.0
1444.0
1442.0
1413.0
1355.0
1272.0
1188.0
1120.0
1075.0
1049.0
1034.0
1033.0
1034.0
1036.0
1036.0
1030.0
1029.0
1028.0
1029.0
1026.0
1023.0
1018.0
1013.0
1015.0
1016.0
1017.0
1013.0
1012.0
1009.0
1009.0
1012.0
1012.0
1010.0
1004.0
1006.0
1009.0
1009.0
1009.0
1007.0
1005.0
1003.0
1005.0
1008.0
1008.0
1004.0
1001.0
1000.0
1002.0
1005.0
1005.0
1004.0
1003.0
1001.0
1002.0
1003.0
1003.0
1000.0
999.0
996.0
996.0
999.0
1001.0
1001.0
997.0
998.0
998.0
998.0
1002.0
1002.0
998.0
997.0
996.0
1002.0
1004.0
999.0
996.0
997.0
998.0
1002.0
1002.0
1000.0
1000.0
999.0
999.0
999.0
1003.0
1003.0
998.0
1001.0
1004.0
1006.0
1009.0
1006.0
1005.0
1007.0
1010.0
1012.0
1013.0
1015.0
1015.0
1015.0
1018.0
1024.0
1028.0
1028.0
1025.0
1026.0
1033.0
1041.0
1044.0
1043.0
1041.0
1045.0
1046.0
1055.0
1062.0
1063.0
1062.0
1063.0
1062.0
1066.0
1072.0
1070.0
1068.0
1064.0
1065.0
1067.0
1067.0
1061.0
1057.0
1055.0
1054.0
1055.0
1053.0
1048.0
1044.0
1042.0
1044.0
1045.0
1044.0
1040.0
1037.0
1035.0
1034.0
1038.0
1039.0
1037.0
1032.0
1028.0
1027.0
1031.0
1030.0
1031.0
1030.0
1028.0
1032.0
1034.0
1034.0
1032.0
1031.0
1028.0
1028.0
1031.0
1032.0
1030.0
1025.0
1026.0
1024.0
1028.0
1028.0
1029.0
1026.0
1024.0
1025.0
1026.0
1024.0
1022.0
1021.0
1018.0
1020.0
1022.0
1026.0
1025.0
1021.0
1016.0
1018.0
1020.0
1023.0
1022.0
1019.0
1016.0
1019.0
1022.0
1024.0
1022.0
1022.0
1019.0
1019.0
1022.0
1023.0
1020.0
1020.0
1019.0
1019.0
1022.0
1026.0
1025.0
1022.0
1020.0
1018.0
1021.0
1023.0
1023.0
1023.0
1019.0
1023.0
1021.0
1022.0
1021.0
1019.0
1018.0
1021.0
1022.0
1022.0
1018.0
1018.0
1016.0
1019.0
1018.0
1020.0
1015.0
1016.0
1015.0
1013.0
1017.0
1018.0
1017.0
1013.0
1014.0
1014.0
1014.0
1018.0
1013.0
1010.0
1009.0
1010.0
1014.0
1015.0
1015.0
1014.0
1012.0
1012.0
1017.0
1017.0
1015.0
1012.0
1009.0
1010.0
1012.0
1014.0
1015.0
1011.0
1008.0
1011.0
1014.0
1015.0
1013.0
1011.0
1010.0
1014.0
1014.0
1014.0
1013.0
1011.0
1011.0
1011.0
1015.0
1015.0
1014.0
1013.0
1010.0
1011.0
1017.0
1018.0
1018.0
1013.0
1011.0
1015.0
1019.0
1021.0
1023.0
1021.0
1023.0
1024.0
1029.0
1032.0
1031.0
1030.0
1027.0
1027.0
1029.0
1029.0
1028.0
1025.0
1024.0
1026.0
1026.0
1026.0
1023.0
1017.0
1015.0
1015.0
1016.0
1019.0
1017.0
1014.0
1014.0
1016.0
1019.0
1017.0
1015.0
1013.0
1012.0
1013.0
1016.0
1017.0
1016.0
1013.0
1013.0
1013.0
1013.0
1015.0
1014.0
1013.0
1014.0
1013.0
1016.0
1017.0
1015.0
1013.0
1011.0
1015.0
1018.0
1021.0
1017.0
1015.0
1013.0
1016.0
1018.0
1018.0
1018.0
1019.0
1016.0
1019.0
1024.0
1026.0
1030.0
1031.0
1035.0
1043.0
1058.0
1070.0
1079.0
1083.0
1094.0
1118.0
1146.0
1178.0
1203.0
1231.0
1255.0
1284.0
1319.0
1360.0
1396.0
1425.0
1429.0
1404.0
1345.0
1264.0
1178.0
1107.0
1060.0
1031.0
1017.0
1015.0
1016.0
1017.0
1018.0
1016.0
1015.0
1015.0
1012.0
1005.0
1001.0
1004.0
1004.0
1002.0
999.0
999.0
994.0
996.0
997.0
996.0
998.0
996.0
992.0
993.0
996.0
997.0
992.0
991.0
990.0
991.0
993.0
993.0
990.0
987.0
985.0
985.0
991.0
990.0
989.0
985.0
984.0
987.0
988.0
989.0
987.0
984.0
985.0
986.0
986.0
987.0
988.0
984.0
981.0
983.0
988.0
990.0
986.0
984.0
982.0
986.0
987.0
988.0
988.0
987.0
986.0
988.0
988.0
991.0
991.0
987.0
988.0
990.0
994.0
995.0
993.0
992.0
993.0
995.0
998.0
1003.0
1004.0
1004.0
1004.0
1008.0
1014.0
1017.0
1020.0
1019.0
1021.0
1027.0
1032.0
1036.0
1038.0
1041.0
1044.0
1047.0
1055.0
1057.0
1060.0
1060.0
1058.0
1062.0
1065.0
1067.0
1064.0
1059.0
1059.0
1062.0
1061.0
1063.0
1057.0
1053.0
1049.0
1047.0
1047.0
1046.0
1041.0
1038.0
1035.0
1036.0
1037.0
1037.0
1032.0
1030.0
1029.0
1032.0
1033.0
1035.0
1032.0
1029.0
1026.0
1028.0
1030.0
1032.0
1030.0
1026.0
1027.0
1027.0
1030.0
1031.0
1029.0
1026.0
1026.0
1026.0
1030.0
1031.0
1026.0
1024.0
1023.0
1026.0
1029.0
1026.0
1026.0
1023.0
1020.0
1024.0
1024.0
1027.0
1024.0
1020.0
1020.0
1022.0
1026.0
1026.0
1023.0
1023.0
1022.0
1022.0
1026.0
1025.0
1023.0
1023.0
1022.0
1025.0
1030.0
1031.0
1031.0
1024.0
1025.0
1027.0
1030.0
1033.0
1030.0
1026.0
1025.0
1030.0
1030.0
1033.0
1028.0
1026.0
1026.0
1028.0
1032.0
1033.0
1032.0
1028.0
1028.0
1028.0
1030.0
1031.0
1025.0
1026.0
1024.0
1025.0
1027.0
1030.0
1025.0
1024.0
1023.0
1026.0
1027.0
1027.0
1025.0
1020.0
1022.0
1020.0
1027.0
1026.0
1025.0
1022.0
1020.0
1024.0
1024.0
1025.0
1024.0
1019.0
1019.0
1023.0
1025.0
1026.0
1027.0
1022.0
1019.0
1022.0
1024.0
1025.0
1026.0
1024.0
1023.0
1023.0
1026.0
1027.0
1026.0
1022.0
1024.0
1025.0
1025.0
1026.0
1025.0
1023.0
1021.0
1021.0
1026.0
1029.0
1026.0
1021.0
1022.0
1021.0
1025.0
1026.0
1029.0
1024.0
1024.0
1023.0
1026.0
1027.0
1026.0
1024.0
1023.0
1023.0
1027.0
1027.0
1025.0
1022.0
1021.0
1025.0
1029.0
1028.0
1027.0
1023.0
1023.0
1025.0
1028.0
1030.0
1028.0
1025.0
1026.0
1027.0
1029.0
1029.0
1027.0
1026.0
1024.0
1027.0
1029.0
1030.0
1029.0
1029.0
1026.0
1031.0
1034.0
1033.0
1036.0
1032.0
1034.0
1038.0
1039.0
1041.0
1041.0
1038.0
1038.0
1043.0
1041.0
1043.0
1043.0
1041.0
1036.0
1037.0
1037.0
1036.0
1035.0
1033.0
1037.0
1035.0
1038.0
1041.0
1040.0
1037.0
1038.0
1038.0
1042.0
1043.0
1037.0
1034.0
1029.0
1027.0
1030.0
1032.0
1029.0
1029.0
1028.0
1030.0
1033.0
1031.0
1031.0
1027.0
1027.0
1029.0
1030.0
1032.0
1031.0
1026.0
1025.0
1027.0
1030.0
1033.0
1031.0
1029.0
1027.0
1029.0
1031.0
1034.0
1033.0
1029.0
1030.0
1035.0
1037.0
1041.0
1047.0
1052.0
1061.0
1073.0
1088.0
1096.0
1109.0
1128.0
1154.0
1188.0
1221.0
1254.0
1285.0
1311.0
1344.0
1387.0
1434.0
1464.0
1474.0
1452.0
1394.0
1309.0
1216.0
1138.0
1080.0
1046.0
1032.0
1030.0
1039.0
1039.0
1038.0
1032.0
1029.0
1027.0
1026.0
1022.0
1016.0
1014.0
1011.0
1012.0
1015.0
1017.0
1013.0
1010.0
1008.0
1010.0
1016.0
1014.0
1011.0
1010.0
1005.0
1009.0
1012.0
1014.0
1011.0
1007.0
1005.0
1007.0
1010.0
1009.0
1006.0
1004.0
1004.0
1006.0
1007.0
1010.0
1007.0
1005.0
1004.0
1008.0
1008.0
1010.0
1006.0
1005.0
1002.0
1003.0
1006.0
1008.0
1007.0
1005.0
1004.0
1004.0
1008.0
1008.0
1006.0
1005.0
1006.0
1007.0
1008.0
1009.0
1007.0
1004.0
1004.0
1009.0
1010.0
1011.0
1010.0
1008.0
1009.0
1014.0
1014.0
1017.0
1014.0
1016.0
1015.0
1020.0
1026.0
1026.0
1028.0
1028.0
1029.0
1034.0
1040.0
1044.0
1042.0
1044.0
1046.0
1055.0
1060.0
1064.0
1066.0
1066.0
1069.0
1075.0
1079.0
1079.0
1081.0
1081.0
1081.0
1082.0
1085.0
1084.0
1081.0
1077.0
1073.0
1071.0
1069.0
1070.0
1065.0
1059.0
1057.0
1057.0
1060.0
1058.0
1054.0
1049.0
1045.0
1043.0
1045.0
1047.0
1044.0
1041.0
1041.0
1042.0
1043.0
1042.0
1040.0
1037.0
1035.0
1038.0
1039.0
1035.0
1036.0
1033.0
1030.0
1033.0
1034.0
1037.0
1035.0
1031.0
1030.0
1034.0
1035.0
1033.0
1034.0
1028.0
1027.0
1028.0
1033.0
1035.0
1029.0
1026.0
1025.0
1029.0
1029.0
1027.0
1023.0
1021.0
1022.0
1024.0
1026.0
1027.0
1025.0
1024.0
1021.0
1023.0
1024.0
1025.0
1025.0
1021.0
1022.0
1025.0
1027.0
1030.0
1028.0
1025.0
1024.0
1025.0
1029.0
1031.0
1032.0
1028.0
1025.0
1028.0
1031.0
1031.0
1030.0
1026.0
1027.0
1027.0
1027.0
1027.0
1027.0
1024.0
1024.0
1026.0
1029.0
1028.0
1027.0
1023.0
1021.0
1024.0
1028.0
1028.0
1027.0
1024.0
1022.0
1026.0
1029.0
1027.0
1026.0
1022.0
1019.0
1019.0
1020.0
1022.0
1024.0
1021.0
1022.0
1021.0
1020.0
1021.0
1017.0
1017.0
1016.0
1021.0
1023.0
1026.0
1021.0
1017.0
1016.0
1020.0
1024.0
1025.0
1020.0
1016.0
1015.0
1017.0
1019.0
1018.0
1019.0
1018.0
1018.0
1022.0
1023.0
1025.0
1020.0
1018.0
1015.0
1017.0
1020.0
1021.0
1019.0
1018.0
1017.0
1020.0
1023.0
1026.0
1021.0
1016.0
1017.0
1019.0
1023.0
1024.0
1023.0
1020.0
1022.0
1023.0
1025.0
1025.0
1021.0
1019.0
1018.0
1021.0
1025.0
1028.0
1027.0
1024.0
1023.0
1025.0
1030.0
1034.0
1032.0
1030.0
1028.0
1033.0
1034.0
1036.0
1033.0
1029.0
1025.0
1027.0
1029.0
1031.0
1028.0
1027.0
1025.0
1028.0
1031.0
1030.0
1029.0
1028.0
1026.0
1030.0
1033.0
1030.0
1028.0
1026.0
1022.0
1024.0
1025.0
1024.0
1022.0
1020.0
1020.0
1023.0
1025.0
1026.0
1022.0
1020.0
1015.0
1019.0
1017.0
1021.0
1021.0
1018.0
1017.0
1018.0
1020.0
1019.0
1018.0
1018.0
1021.0
1022.0
1026.0
1022.0
1024.0
1021.0
1020.0
1025.0
1028.0
1030.0
1031.0
1030.0
1035.0
1043.0
1054.0
1065.0
1076.0
1083.0
1093.0
1113.0
1140.0
1171.0
1201.0
1229.0
1256.0
1287.0
1318.0
1352.0
1392.0
1424.0
1446.0
1444.0
1409.0
1336.0
1235.0
1146.0
1085.0
1047.0
1028.0
1023.0
1023.0
1021.0
1019.0
1021.0
1019.0
1017.0
1015.0
1009.0
1005.0
1002.0
1007.0
1004.0
1002.0
997.0
996.0
998.0
999.0
998.0
998.0
994.0
994.0
995.0
997.0
999.0
994.0
990.0
992.0
993.0
997.0
996.0
994.0
988.0
988.0
988.0
993.0
991.0
990.0
990.0
990.0
989.0
992.0
990.0
987.0
986.0
986.0
990.0
990.0
990.0
988.0
985.0
986.0
987.0
990.0
990.0
988.0
984.0
985.0
986.0
989.0
990.0
986.0
984.0
986.0
989.0
993.0
991.0
990.0
986.0
988.0
990.0
995.0
997.0
995.0
994.0
993.0
1000.0
1003.0
1006.0
1005.0
1008.0
1009.0
1013.0
1017.0
1022.0
1022.0
1022.0
1026.0
1033.0
1041.0
1043.0
1047.0
1049.0
1052.0
1059.0
1063.0
1065.0
1063.0
1061.0
1062.0
1062.0
1062.0
1057.0
1054.0
1048.0
1046.0
1045.0
1045.0
1042.0
1037.0
1032.0
1031.0
1029.0
1031.0
1029.0
1025.0
1024.0
1024.0
1025.0
1027.0
1027.0
1023.0
1019.0
1019.0
1021.0
1023.0
1025.0
1023.0
1018.0
1019.0
1016.0
1022.0
1023.0
1018.0
1020.0
1016.0
1016.0
1018.0
1018.0
1016.0
1015.0
1014.0
1016.0
1015.0
1017.0
1014.0
1010.0
1012.0
1013.0
1013.0
1015.0
1014.0
1011.0
1009.0
1012.0
1013.0
1011.0
1010.0
1010.0
1012.0
1010.0
1013.0
1014.0
1013.0
1010.0
1011.0
1013.0
1016.0
1016.0
1016.0
1014.0
1011.0
1014.0
1016.0
1017.0
1017.0
1013.0
1014.0
1016.0
1019.0
1018.0
1017.0
1013.0
1015.0
1016.0
1019.0
1020.0
1016.0
1015.0
1014.0
1014.0
1016.0
1017.0
1016.0
1014.0
1013.0
1016.0
1018.0
1017.0
1013.0
1012.0
1012.0
1016.0
1016.0
1017.0
1015.0
1012.0
1010.0
1012.0
1015.0
1014.0
1013.0
1010.0
1008.0
1013.0
1016.0
1017.0
1011.0
1010.0
1008.0
1011.0
1015.0
1015.0
1014.0
1012.0
1010.0
1013.0
1015.0
1015.0
1013.0
1008.0
1010.0
1010.0
1012.0
1014.0
1009.0
1008.0
1008.0
1011.0
1014.0
1015.0
1013.0
1009.0
1010.0
1011.0
1013.0
1015.0
1012.0
1010.0
1010.0
1014.0
1016.0
1017.0
1015.0
1010.0
1011.0
1013.0
1015.0
1015.0
1013.0
1013.0
1012.0
1014.0
1017.0
1017.0
1016.0
1013.0
1015.0
1015.0
1015.0
1016.0
1015.0
1013.0
1012.0
1013.0
1017.0
1017.0
1016.0
1014.0
1015.0
1015.0
1018.0
1019.0
1015.0
1012.0
1012.0
1016.0
1019.0
1020.0
1019.0
1021.0
1020.0
1022.0
1026.0
1025.0
1026.0
1025.0
1023.0
1024.0
1031.0
1031.0
1027.0
1027.0
1025.0
1026.0
1027.0
1027.0
1023.0
1022.0
1021.0
1023.0
1027.0
1027.0
1025.0
1024.0
1023.0
1027.0
1030.0
1032.0
1030.0
1028.0
1025.0
1023.0
1022.0
1022.0
1019.0
1016.0
1017.0
1020.0
1023.0
1023.0
1021.0
1019.0
1018.0
1019.0
1023.0
1021.0
1019.0
1015.0
1016.0
1019.0
1022.0
1022.0
1019.0
1016.0
1014.0
1018.0
1022.0
1021.0
1018.0
1019.0
1019.0
1019.0
1021.0
1023.0
1023.0
1020.0
1023.0
1026.0
1031.0
1034.0
1036.0
1042.0
1048.0
1064.0
1079.0
1089.0
1099.0
1116.0
1143.0
1179.0
1214.0
1245.0
1274.0
1304.0
1335.0
1373.0
1416.0
1454.0
1469.0
1458.0
1412.0
1335.0
1245.0
1162.0
1100.0
1053.0
1027.0
1021.0
1025.0
1027.0
1024.0
1017.0
1017.0
1016.0
1016.0
1009.0
1004.0
1001.0
1001.0
1000.0
1001.0
1002.0
999.0
996.0
994.0
998.0
1000.0
1000.0
998.0
992.0
993.0
995.0
997.0
998.0
999.0
992.0
994.0
994.0
995.0
996.0
994.0
988.0
990.0
991.0
996.0
994.0
991.0
990.0
987.0
991.0
992.0
993.0
990.0
990.0
990.0
992.0
993.0
994.0
990.0
988.0
991.0
993.0
995.0
995.0
993.0
992.0
988.0
995.0
997.0
1000.0
995.0
993.0
990.0
997.0
997.0
996.0
997.0
995.0
996.0
998.0
1003.0
1002.0
999.0
999.0
1002.0
1003.0
1009.0
1010.0
1010.0
1010.0
1010.0
1014.0
1019.0
1022.0
1021.0
1024.0
1027.0
1029.0
1036.0
1039.0
1039.0
1041.0
1045.0
1051.0
1056.0
1061.0
1065.0
1064.0
1065.0
1071.0
1075.0
1078.0
1078.0
1075.0
1076.0
1078.0
1081.0
1076.0
1071.0
1068.0
1064.0
1064.0
1065.0
1061.0
1060.0
1054.0
1050.0
1050.0
1048.0
1049.0
1046.0
1041.0
1039.0
1041.0
1041.0
1038.0
1038.0
1036.0
1035.0
1035.0
1037.0
1035.0
1034.0
1030.0
1028.0
1031.0
1036.0
1035.0
1036.0
1033.0
1032.0
1036.0
1037.0
1035.0
1033.0
1031.0
1031.0
1034.0
1035.0
1036.0
1033.0
1031.0
1031.0
1027.0
1032.0
1032.0
1028.0
1027.0
1030.0
1032.0
1034.0
1032.0
1026.0
1025.0
1025.0
1028.0
1032.0
1030.0
1028.0
1023.0
1023.0
1025.0
1027.0
1027.0
1025.0
1024.0
1023.0
1027.0
1028.0
1028.0
1026.0
1022.0
1022.0
1025.0
1029.0
1027.0
1026.0
1023.0
1027.0
1029.0
1030.0
1030.0
1029.0
1027.0
1027.0
1029.0
1033.0
1034.0
1034.0
1030.0
1031.0
1030.0
1032.0
1032.0
1029.0
1028.0
1028.0
1030.0
1031.0
1029.0
1027.0
1023.0
1027.0
1029.0
1031.0
1028.0
1026.0
1024.0
1026.0
1027.0
1029.0
1029.0
1028.0
1026.0
1023.0
1024.0
1025.0
1027.0
1025.0
1023.0
1025.0
1028.0
1030.0
1028.0
1028.0
1024.0
1028.0
1030.0
1031.0
1031.0
1029.0
1025.0
1022.0
1026.0
1029.0
1030.0
1029.0
1026.0
1023.0
1026.0
1027.0
1027.0
1027.0
1024.0
1024.0
1027.0
1027.0
1026.0
1022.0
1022.0
1026.0
1028.0
1029.0
1028.0
1027.0
1022.0
1022.0
1023.0
1025.0
1024.0
1022.0
1020.0
1023.0
1022.0
1023.0
1021.0
1021.0
1017.0
1021.0
1022.0
1024.0
1024.0
1025.0
1021.0
1024.0
1026.0
1027.0
1028.0
1026.0
1023.0
1021.0
1024.0
1027.0
1026.0
1026.0
1025.0
1025.0
1029.0
1034.0
1033.0
1032.0
1028.0
1028.0
1035.0
1036.0
1037.0
1035.0
1032.0
1033.0
1034.0
1038.0
1037.0
1036.0
1029.0
1030.0
1029.0
1030.0
1031.0
1029.0
1030.0
1032.0
1034.0
1038.0
1038.0
1035.0
1032.0
1032.0
1033.0
1035.0
1032.0
1028.0
1025.0
1026.0
1027.0
1029.0
1031.0
1026.0
1025.0
1027.0
1031.0
1029.0
1027.0
1027.0
1025.0
1027.0
1026.0
1029.0
1028.0
1027.0
1025.0
1023.0
1027.0
1029.0
1028.0
1028.0
1028.0
1028.0
1029.0
1030.0
1030.0
1031.0
1030.0
1036.0
1037.0
1043.0
1047.0
1050.0
1059.0
1070.0
1085.0
1099.0
1111.0
1128.0
1146.0
1174.0
1207.0
1239.0
1270.0
1298.0
1325.0
1363.0
1406.0
1438.0
1453.0
1434.0
1385.0
1302.0
1214.0
1142.0
1089.0
1054.0
1032.0
1026.0
1028.0
1030.0
1030.0
1028.0
1025.0
1023.0
1021.0
1016.0
1012.0
1012.0
1006.0
1006.0
1007.0
1008.0
1005.0
1004.0
1004.0
1000.0
1003.0
1007.0
1007.0
1003.0
1001.0
999.0
1001.0
1004.0
1002.0
999.0
999.0
999.0
1000.0
1000.0
1002.0
999.0
995.0
994.0
996.0
996.0
998.0
999.0
992.0
994.0
996.0
999.0
1000.0
999.0
998.0
998.0
998.0
997.0
996.0
992.0
992.0
994.0
999.0
998.0
997.0
996.0
992.0
993.0
996.0
998.0
1000.0
997.0
996.0
995.0
999.0
1003.0
1001.0
999.0
997.0
999.0
999.0
1002.0
1004.0
1000.0
997.0
998.0
1004.0
1007.0
1007.0
1008.0
1008.0
1008.0
1011.0
1015.0
1017.0
1018.0
1019.0
1022.0
1025.0
1033.0
1035.0
1036.0
1035.0
1038.0
1045.0
1051.0
1054.0
1057.0
1057.0
1058.0
1062.0
1071.0
1070.0
1072.0
1068.0
1070.0
1073.0
1076.0
1072.0
1067.0
1064.0
1062.0
1062.0
1065.0
1059.0
1055.0
1051.0
1052.0
1051.0
1050.0
1048.0
1047.0
1040.0
1040.0
1041.0
1043.0
1041.0
1039.0
1035.0
1036.0
1038.0
1037.0
1038.0
1039.0
1034.0
1035.0
1037.0
1040.0
1039.0
1038.0
1033.0
1035.0
1034.0
1037.0
1036.0
1036.0
1032.0
1032.0
1035.0
1036.0
1036.0
1034.0
1031.0
1031.0
1034.0
1034.0
1033.0
1032.0
1030.0
1029.0
1032.0
1031.0
1030.0
1026.0
1022.0
1023.0
1027.0
1030.0
1025.0
1023.0
1020.0
1023.0
1024.0
1026.0
1027.0
1024.0
1021.0
1024.0
1024.0
1029.0
1029.0
1023.0
1023.0
1027.0
1026.0
1029.0
1028.0
1026.0
1024.0
1024.0
1028.0
1029.0
1030.0
1025.0
1024.0
1026.0
1025.0
1028.0
1027.0
1025.0
1023.0
1024.0
1026.0
1028.0
1027.0
1025.0
1022.0
1023.0
1024.0
1028.0
1028.0
1023.0
1021.0
1021.0
1025.0
1025.0
1024.0
1023.0
1021.0
1024.0
1024.0
1028.0
1025.0
1022.0
1020.0
1021.0
1024.0
1025.0
1024.0
1023.0
1019.0
1020.0
1022.0
1024.0
1023.0
1020.0
1019.0
1019.0
1021.0
1024.0
1025.0
1021.0
1018.0
1018.0
1020.0
1024.0
1027.0
1024.0
1019.0
1021.0
1021.0
1023.0
1023.0
1021.0
1019.0
1021.0
1023.0
1026.0
1025.0
1024.0
1023.0
1020.0
1023.0
1024.0
1026.0
1024.0
1022.0
1021.0
1025.0
1026.0
1027.0
1024.0
1022.0
1023.0
1027.0
1026.0
1028.0
1025.0
1024.0
1025.0
1026.0
1027.0
1028.0
1026.0
1023.0
1025.0
1026.0
1027.0
1026.0
1025.0
1024.0
1024.0
1027.0
1031.0
1027.0
1029.0
1023.0
1025.0
1028.0
1031.0
1034.0
1032.0
1031.0
1031.0
1033.0
1036.0
1038.0
1038.0
1035.0
1036.0
1041.0
1041.0
1041.0
1039.0
1035.0
1032.0
1037.0
1037.0
1035.0
1033.0
1031.0
1029.0
1031.0
1032.0
1030.0
1031.0
1029.0
1032.0
1034.0
1039.0
1037.0
1035.0
1034.0
1034.0
1036.0
1035.0
1032.0
1029.0
1023.0
1026.0
1026.0
1032.0
1031.0
1031.0
1025.0
1027.0
1029.0
1032.0
1030.0
1029.0
1024.0
1026.0
1027.0
1028.0
1029.0
1028.0
1025.0
1026.0
1028.0
1029.0
1028.0
1027.0
1023.0
1024.0
1028.0
1029.0
1030.0
1027.0
1027.0
1027.0
1032.0
1033.0
1036.0
1040.0
1040.0
1046.0
1053.0
1067.0
1077.0
1086.0
1094.0
1103.0
1127.0
1153.0
1185.0
1213.0
1241.0
1274.0
1307.0
1339.0
1377.0
1416.0
1455.0
1478.0
1479.0
1445.0
1374.0
1277.0
1187.0
1126.0
1084.0
1054.0
1038.0
1031.0
1030.0
1030.0
1031.0
1033.0
1030.0
1026.0
1017.0
1014.0
1012.0
1014.0
1012.0
1011.0
1007.0
1007.0
1009.0
1012.0
1011.0
1008.0
1005.0
1006.0
1006.0
1010.0
1008.0
1007.0
1004.0
1002.0
1003.0
1007.0
1005.0
1005.0
1002.0
1000.0
1002.0
1005.0
1004.0
1002.0
999.0
1001.0
1000.0
1001.0
1000.0
998.0
999.0
995.0
1000.0
1006.0
1000.0
999.0
997.0
997.0
1002.0
1005.0
1004.0
1003.0
1001.0
1001.0
1004.0
1004.0
1005.0
1004.0
1002.0
1006.0
1006.0
1009.0
1008.0
1006.0
1003.0
1009.0
1011.0
1012.0
1013.0
1012.0
1013.0
1014.0
1019.0
1025.0
1026.0
1028.0
1025.0
1031.0
1039.0
1043.0
1047.0
1052.0
1054.0
1060.0
1066.0
1073.0
1079.0
1080.0
1083.0
1082.0
1089.0
1092.0
1092.0
1090.0
1087.0
1087.0
1088.0
1086.0
1083.0
1076.0
1073.0
1070.0
1070.0
1071.0
1066.0
1062.0
1057.0
1057.0
1052.0
1055.0
1051.0
1050.0
1048.0
1044.0
1048.0
1049.0
1047.0
1044.0
1042.0
1043.0
1046.0
1046.0
1047.0
1041.0
1039.0
1036.0
1041.0
1045.0
1045.0
1041.0
1040.0
1041.0
1040.0
1044.0
1042.0
1041.0
1041.0
1039.0
1040.0
1042.0
1040.0
1038.0
1035.0
1036.0
1036.0
1039.0
1038.0
1037.0
1035.0
1035.0
1037.0
1040.0
1038.0
1035.0
1033.0
1033.0
1036.0
1037.0
1036.0
1035.0
1033.0
1034.0
1036.0
1038.0
1038.0
1039.0
1035.0
1036.0
1037.0
1041.0
1038.0
1037.0
1036.0
1037.0
1039.0
1044.0
1043.0
1041.0
1040.0
1038.0
1039.0
1043.0
1043.0
1043.0
1039.0
1037.0
1041.0
1043.0
1043.0
1041.0
1038.0
1041.0
1044.0
1046.0
1046.0
1046.0
1043.0
1042.0
1045.0
1048.0
1046.0
1044.0
1042.0
1041.0
1043.0
1046.0
1047.0
1042.0
1042.0
1044.0
1043.0
1047.0
1048.0
1048.0
1048.0
1044.0
1043.0
1044.0
1044.0
1038.0
1038.0
1039.0
1043.0
1044.0
1041.0
1045.0
1045.0
1045.0
1045.0
1046.0
1045.0
1039.0
1036.0
1038.0
1044.0
1050.0
1047.0
1043.0
1041.0
1040.0
1045.0
1046.0
1047.0
1044.0
1043.0
1043.0
1045.0
1048.0
1045.0
1043.0
1044.0
1043.0
1046.0
1047.0
1046.0
1044.0
1039.0
1040.0
1044.0
1046.0
1048.0
1045.0
1046.0
1045.0
1045.0
1047.0
1046.0
1045.0
1042.0
1046.0
1046.0
1047.0
1045.0
1044.0
1041.0
1045.0
1046.0
1051.0
1050.0
1046.0
1044.0
1046.0
1048.0
1052.0
1052.0
1049.0
1050.0
1050.0
1056.0
1059.0
1057.0
1055.0
1055.0
1055.0
1055.0
1056.0
1051.0
1048.0
1045.0
1045.0
1050.0
1051.0
1052.0
1051.0
1048.0
1050.0
1051.0
1054.0
1054.0
1051.0
1050.0
1053.0
1053.0
1053.0
1048.0
1045.0
1040.0
1041.0
1042.0
1045.0
1047.0
1045.0
1042.0
1041.0
1042.0
1043.0
1043.0
1043.0
1042.0
1041.0
1045.0
1044.0
1046.0
1044.0
1041.0
1042.0
1047.0
1047.0
1048.0
1042.0
1042.0
1045.0
1049.0
1051.0
1048.0
1046.0
1048.0
1051.0
1058.0
1067.0
1071.0
1080.0
1092.0
1103.0
1117.0
1135.0
1156.0
1192.0
1224.0
1258.0
1290.0
1320.0
1351.0
1392.0
1431.0
1460.0
1459.0
1423.0
1336.0
1230.0
1144.0
1089.0
1062.0
1053.0
1051.0
1048.0
1044.0
1042.0
1044.0
1047.0
1041.0
1036.0
1030.0
1027.0
1030.0
1030.0
1027.0
1025.0
1022.0
1023.0
1024.0
1026.0
1023.0
1020.0
1017.0
1019.0
1023.0
1023.0
1021.0
1018.0
1016.0
1018.0
1020.0
1019.0
1021.0
1018.0
1013.0
1012.0
1016.0
1017.0
1015.0
1016.0
1011.0
1011.0
1014.0
1016.0
1014.0
1013.0
1010.0
1010.0
1012.0
1013.0
1013.0
1013.0
1009.0
1009.0
1010.0
1012.0
1011.0
1010.0
1009.0
1013.0
1014.0
1017.0
1014.0
1012.0
1011.0
1015.0
1015.0
1017.0
1013.0
1012.0
1011.0
1014.0
1018.0
1023.0
1023.0
1024.0
1020.0
1023.0
1028.0
1032.0
1034.0
1033.0
1033.0
1035.0
1042.0
1046.0
1051.0
1051.0
1054.0
1058.0
1064.0
1069.0
1070.0
1074.0
1074.0
1080.0
1081.0
1090.0
1093.0
1089.0
1086.0
1088.0
1091.0
1088.0
1086.0
1084.0
1079.0
1079.0
1078.0
1080.0
1074.0
1070.0
1064.0
1061.0
1063.0
1063.0
1061.0
1056.0
1052.0
1052.0
1050.0
1051.0
1052.0
1048.0
1044.0
1045.0
1044.0
1048.0
1047.0
1044.0
1042.0
1044.0
1046.0
1048.0
1047.0
1043.0
1042.0
1039.0
1044.0
1045.0
1045.0
1039.0
1038.0
1038.0
1042.0
1043.0
1040.0
1038.0
1035.0
1035.0
1037.0
1038.0
1037.0
1033.0
1032.0
1032.0
1033.0
1034.0
1033.0
1031.0
1027.0
1028.0
1033.0
1033.0
1031.0
1030.0
1026.0
1029.0
1031.0
1031.0
1033.0
1029.0
1030.0
1029.0
1033.0
1034.0
1035.0
1031.0
1031.0
1033.0
1035.0
1039.0
1039.0
1034.0
1032.0
1033.0
1035.0
1036.0
1036.0
1035.0
1031.0
1031.0
1034.0
1036.0
1034.0
1033.0
1033.0
1032.0
1033.0
1036.0
1032.0
1030.0
1030.0
1027.0
1029.0
1031.0
1032.0
1029.0
1026.0
1027.0
1030.0
1032.0
1029.0
1028.0
1022.0
1026.0
1028.0
1030.0
1032.0
1027.0
1026.0
1025.0
1027.0
1029.0
1030.0
1028.0
1024.0
1025.0
1028.0
1030.0
1025.0
1025.0
1023.0
1024.0
1029.0
1030.0
1031.0
1026.0
1023.0
1026.0
1026.0
1030.0
1029.0
1026.0
1025.0
1026.0
1027.0
1031.0
1027.0
1026.0
1024.0
1024.0
1030.0
1030.0
1029.0
1026.0
1023.0
1024.0
1029.0
1030.0
1029.0
1029.0
1031.0
1035.0
1044.0
1055.0
1070.0
1088.0
1112.0
1138.0
1164.0
1177.0
1173.0
1158.0
1133.0
1091.0
1027.0
955.0
871.0
769.0
667.0
613.0
593.0
587.0
567.0
559.0
562.0
583.0
615.0
659.0
712.0
748.0
776.0
802.0
828.0
847.0
862.0
877.0
893.0
910.0
927.0
941.0
949.0
957.0
964.0
975.0
988.0
999.0
1008.0
1016.0
1025.0
1032.0
1046.0
1054.0
1057.0
1060.0
1063.0
1067.0
1071.0
1076.0
1076.0
1078.0
1077.0
1079.0
1082.0
1088.0
1087.0
1087.0
1085.0
1087.0
1092.0
1096.0
1096.0
1097.0
1099.0
1100.0
1104.0
1109.0
1111.0
1112.0
1111.0
1115.0
1120.0
1128.0
1129.0
1130.0
1131.0
1137.0
1144.0
1148.0
1153.0
1156.0
1158.0
1161.0
1168.0
1177.0
1181.0
1186.0
1188.0
1194.0
1204.0
1214.0
1219.0
1221.0
1225.0
1232.0
1242.0
1251.0
1258.0
1261.0
1262.0
1268.0
1276.0
1282.0
1286.0
1287.0
1288.0
1292.0
1295.0
1299.0
1297.0
1295.0
1293.0
1291.0
1292.0
1290.0
1284.0
1274.0
1266.0
1262.0
1257.0
1252.0
1244.0
1234.0
1224.0
1217.0
1210.0
1205.0
1194.0
1183.0
1176.0
1170.0
1160.0
1154.0
1146.0
1136.0
1128.0
1120.0
1117.0
1113.0
1105.0
1097.0
1088.0
1085.0
1081.0
1081.0
1073.0
1067.0
1064.0
1059.0
1060.0
1058.0
