# Simple Text Format
# Sampling Rate (Hz):= 360.00
# Resolution:= 12
# Labels:= ECG
1034.0
1033.0
1036.0
1028.0
1027.0
1022.0
1021.0
1020.0
1019.0
1019.0
1018.0
1013.0
1016.0
1017.0
1018.0
1016.0
1013.0
1011.0
1009.0
1009.0
1011.0
1014.0
1010.0
1009.0
1012.0
1012.0
1011.0
1009.0
1005.0
1006.0
1008.0
1009.0
1010.0
1009.0
1006.0
1007.0
1008.0
1012.0
1011.0
1010.0
1007.0
1005.0
1008.0
1010.0
1009.0
1008.0
1007.0
1005.0
1005.0
1008.0
1008.0
1008.0
1003.0
1002.0
1008.0
1011.0
1012.0
1010.0
1007.0
1009.0
1010.0
1012.0
1013.0
1011.0
1010.0
1008.0
1012.0
1014.0
1013.0
1012.0
1010.0
1011.0
1014.0
1016.0
1015.0
1013.0
1012.0
1011.0
1015.0
1019.0
1018.0
1015.0
1012.0
1013.0
1012.0
1011.0
1012.0
1010.0
1010.0
1009.0
1011.0
1013.0
1013.0
1012.0
1007.0
1008.0
1011.0
1010.0
1013.0
1008.0
1007.0
1007.0
1009.0
1010.0
1010.0
1011.0
1007.0
1007.0
1009.0
1009.0
1011.0
1009.0
1009.0
1008.0
1006.0
1008.0
1011.0
1010.0
1006.0
1004.0
1008.0
1011.0
1011.0
1008.0
1008.0
1005.0
1007.0
1010.0
1013.0
1010.0
1009.0
1004.0
1005.0
1009.0
1012.0
1011.0
1007.0
1005.0
1012.0
1009.0
1011.0
1010.0
1007.0
1007.0
1009.0
1011.0
1010.0
1011.0
1007.0
1007.0
1010.0
1012.0
1013.0
1010.0
1008.0
1008.0
1010.0
1013.0
1013.0
1012.0
1009.0
1011.0
1011.0
1015.0
1012.0
1014.0
1012.0
1009.0
1011.0
1014.0
1015.0
1013.0
1011.0
1013.0
1017.0
1017.0
1020.0
1020.0
1018.0
1017.0
1022.0
1027.0
1032.0
1033.0
1037.0
1045.0
1061.0
1079.0
1109.0
1133.0
1149.0
1157.0
1155.0
1145.0
1117.0
1071.0
1002.0
919.0
822.0
727.0
665.0
640.0
625.0
618.0
616.0
624.0
643.0
667.0
696.0
728.0
759.0
790.0
813.0
832.0
843.0
860.0
875.0
892.0
906.0
915.0
923.0
931.0
942.0
956.0
967.0
976.0
983.0
992.0
1001.0
1011.0
1018.0
1026.0
1026.0
1032.0
1037.0
1044.0
1050.0
1050.0
1048.0
1049.0
1055.0
1060.0
1061.0
1061.0
1062.0
1062.0
1066.0
1069.0
1071.0
1073.0
1071.0
1071.0
1075.0
1080.0
1084.0
1081.0
1082.0
1080.0
1084.0
1091.0
1093.0
1094.0
1092.0
1094.0
1096.0
1101.0
1104.0
1104.0
1103.0
1107.0
1112.0
1118.0
1121.0
1123.0
1122.0
1127.0
1134.0
1141.0
1146.0
1147.0
1149.0
1154.0
1162.0
1171.0
1179.0
1184.0
1188.0
1192.0
1202.0
1208.0
1214.0
1219.0
1219.0
1221.0
1223.0
1227.0
1225.0
1222.0
1218.0
1212.0
1210.0
1205.0
1202.0
1193.0
1185.0
1175.0
1172.0
1166.0
1162.0
1152.0
1143.0
1136.0
1133.0
1125.0
1119.0
1109.0
1101.0
1093.0
1089.0
1084.0
1079.0
1075.0
1067.0
1063.0
1061.0
1058.0
1055.0
1051.0
1047.0
1042.0
1040.0
1044.0
1040.0
1040.0
1035.0
1033.0
1032.0
1033.0
1034.0
1031.0
1029.0
1029.0
1030.0
1031.0
1030.0
1027.0
1022.0
1024.0
1024.0
1028.0
1028.0
1025.0
1022.0
1019.0
1020.0
1023.0
1025.0
1020.0
1022.0
1018.0
1019.0
1020.0
1022.0
1017.0
1016.0
1015.0
1016.0
1016.0
1018.0
1016.0
1014.0
1015.0
1013.0
1015.0
1013.0
1014.0
1009.0
1006.0
1010.0
1012.0
1012.0
1008.0
1006.0
1006.0
1009.0
1009.0
1007.0
1006.0
1003.0
1001.0
1004.0
1006.0
1006.0
1004.0
998.0
996.0
998.0
1002.0
1002.0
997.0
998.0
997.0
999.0
1001.0
999.0
998.0
997.0
996.0
999.0
1001.0
1003.0
999.0
998.0
997.0
999.0
1002.0
1001.0
998.0
996.0
995.0
998.0
1000.0
998.0
996.0
993.0
994.0
995.0
996.0
999.0
999.0
997.0
996.0
997.0
998.0
998.0
997.0
992.0
992.0
998.0
1000.0
1000.0
997.0
998.0
996.0
995.0
998.0
1000.0
995.0
992.0
994.0
995.0
998.0
998.0
998.0
995.0
996.0
1001.0
1001.0
1000.0
997.0
995.0
998.0
1000.0
1003.0
1001.0
997.0
993.0
993.0
998.0
1005.0
1002.0
999.0
996.0
997.0
998.0
1000.0
1004.0
1001.0
999.0
998.0
998.0
1000.0
999.0
999.0
998.0
998.0
998.0
1003.0
1001.0
1000.0
997.0
998.0
999.0
1004.0
1002.0
1000.0
998.0
998.0
999.0
1004.0
1003.0
1003.0
998.0
998.0
999.0
1005.0
1004.0
1002.0
1001.0
996.0
1001.0
1003.0
1003.0
1000.0
999.0
997.0
1000.0
1001.0
1001.0
999.0
997.0
997.0
1000.0
1003.0
1003.0
1000.0
1000.0
1000.0
1004.0
1005.0
1001.0
1000.0
998.0
999.0
1000.0
1004.0
1003.0
1003.0
999.0
1000.0
1001.0
1005.0
1007.0
1004.0
999.0
1004.0
1003.0
1005.0
1001.0
1004.0
998.0
1001.0
1001.0
1007.0
1006.0
1003.0
1000.0
1000.0
1005.0
1006.0
1008.0
1008.0
1009.0
1008.0
1013.0
1015.0
1015.0
1015.0
1011.0
1010.0
1015.0
1016.0
1017.0
1014.0
1009.0
1008.0
1010.0
1010.0
1011.0
1010.0
1007.0
1007.0
1011.0
1014.0
1012.0
1010.0
1010.0
1009.0
1015.0
1015.0
1016.0
1015.0
1011.0
1008.0
1008.0
1011.0
1007.0
1007.0
1004.0
1004.0
1006.0
1006.0
1007.0
1005.0
1002.0
1004.0
1006.0
1007.0
1008.0
1006.0
1005.0
1001.0
1005.0
1008.0
1009.0
1008.0
1007.0
1006.0
1007.0
1008.0
1008.0
1009.0
1008.0
1008.0
1012.0
1014.0
1015.0
1014.0
1014.0
1016.0
1026.0
1034.0
1043.0
1052.0
1061.0
1070.0
1083.0
1103.0
1128.0
1157.0
1184.0
1215.0
1246.0
1280.0
1312.0
1350.0
1389.0
1417.0
1428.0
1400.0
1328.0
1229.0
1133.0
1066.0
1032.0
1021.0
1025.0
1020.0
1016.0
1013.0
1014.0
1014.0
1010.0
1004.0
998.0
997.0
997.0
996.0
996.0
996.0
989.0
993.0
992.0
994.0
995.0
993.0
989.0
986.0
988.0
993.0
990.0
988.0
983.0
984.0
987.0
987.0
987.0
984.0
981.0
981.0
983.0
987.0
986.0
984.0
981.0
980.0
981.0
986.0
983.0
983.0
979.0
981.0
978.0
982.0
984.0
979.0
977.0
979.0
982.0
982.0
982.0
981.0
977.0
979.0
984.0
984.0
984.0
981.0
978.0
979.0
982.0
986.0
985.0
983.0
980.0
982.0
985.0
988.0
988.0
986.0
983.0
985.0
990.0
991.0
995.0
993.0
992.0
991.0
994.0
1000.0
1001.0
1001.0
1000.0
1003.0
1007.0
1012.0
1015.0
1011.0
1014.0
1016.0
1024.0
1027.0
1031.0
1032.0
1034.0
1038.0
1040.0
1047.0
1047.0
1048.0
1050.0
1049.0
1055.0
1057.0
1057.0
1055.0
1052.0
1050.0
1052.0
1052.0
1051.0
1047.0
1043.0
1042.0
1042.0
1043.0
1041.0
1038.0
1035.0
1033.0
1032.0
1034.0
1028.0
1028.0
1023.0
1023.0
1024.0
1027.0
1027.0
1023.0
1019.0
1019.0
1022.0
1023.0
1021.0
1022.0
1018.0
1017.0
1021.0
1024.0
1020.0
1019.0
1017.0
1017.0
1020.0
1022.0
1023.0
1019.0
1015.0
1017.0
1019.0
1022.0
1020.0
1019.0
1014.0
1016.0
1018.0
1019.0
1018.0
1017.0
1012.0
1013.0
1015.0
1019.0
1019.0
1016.0
1015.0
1014.0
1014.0
1017.0
1020.0
1016.0
1014.0
1014.0
1015.0
1017.0
1019.0
1016.0
1013.0
1013.0
1017.0
1018.0
1020.0
1017.0
1016.0
1016.0
1019.0
1021.0
1021.0
1019.0
1018.0
1019.0
1020.0
1024.0
1023.0
1022.0
1019.0
1020.0
1023.0
1025.0
1023.0
1022.0
1019.0
1020.0
1020.0
1024.0
1024.0
1024.0
1019.0
1019.0
1021.0
1022.0
1023.0
1020.0
1016.0
1018.0
1024.0
1022.0
1022.0
1017.0
1014.0
1015.0
1019.0
1022.0
1020.0
1018.0
1015.0
1014.0
1019.0
1021.0
1020.0
1017.0
1015.0
1014.0
1019.0
1021.0
1020.0
1017.0
1016.0
1016.0
1016.0
1020.0
1020.0
1016.0
1013.0
1015.0
1016.0
1018.0
1018.0
1017.0
1017.0
1015.0
1019.0
1021.0
1019.0
1016.0
1015.0
1014.0
1017.0
1020.0
1018.0
1017.0
1014.0
1014.0
1015.0
1019.0
1021.0
1019.0
1016.0
1015.0
1019.0
1022.0
1020.0
1018.0
1014.0
1015.0
1019.0
1023.0
1018.0
1019.0
1018.0
1017.0
1017.0
1021.0
1022.0
1018.0
1016.0
1017.0
1018.0
1021.0
1019.0
1019.0
1016.0
1018.0
1020.0
1021.0
1020.0
1019.0
1018.0
1015.0
1021.0
1022.0
1022.0
1020.0
1016.0
1020.0
1022.0
1026.0
1027.0
1025.0
1026.0
1027.0
1029.0
1031.0
1033.0
1028.0
1028.0
1030.0
1031.0
1031.0
1031.0
1027.0
1023.0
1024.0
1026.0
1028.0
1027.0
1026.0
1021.0
1026.0
1027.0
1031.0
1030.0
1030.0
1027.0
1027.0
1027.0
1031.0
1031.0
1023.0
1019.0
1019.0
1019.0
1022.0
1021.0
1020.0
1020.0
1021.0
1022.0
1024.0
1024.0
1022.0
1020.0
1021.0
1022.0
1024.0
1025.0
1020.0
1020.0
1019.0
1022.0
1021.0
1023.0
1019.0
1020.0
1020.0
1023.0
1026.0
1023.0
1019.0
1018.0
1020.0
1023.0
1028.0
1028.0
1028.0
1026.0
1030.0
1037.0
1045.0
1052.0
1062.0
1071.0
1080.0
1091.0
1107.0
1126.0
1150.0
1173.0
1201.0
1230.0
1260.0
1288.0
1320.0
1357.0
1395.0
1426.0
1441.0
1429.0
1386.0
1323.0
1244.0
1170.0
1112.0
1070.0
1042.0
1025.0
1022.0
1023.0
1027.0
1024.0
1021.0
1017.0
1018.0
1016.0
1017.0
1010.0
1007.0
1004.0
1004.0
1005.0
1006.0
1003.0
1003.0
998.0
1000.0
1002.0
1004.0
1003.0
1000.0
997.0
995.0
997.0
999.0
1000.0
999.0
998.0
995.0
996.0
998.0
996.0
995.0
994.0
994.0
997.0
998.0
998.0
994.0
990.0
992.0
994.0
995.0
996.0
995.0
996.0
995.0
996.0
998.0
998.0
994.0
992.0
993.0
999.0
1001.0
1002.0
998.0
998.0
996.0
998.0
1001.0
1002.0
1001.0
998.0
1000.0
1001.0
1005.0
1005.0
1001.0
998.0
1002.0
1005.0
1007.0
1007.0
1007.0
1003.0
1005.0
1009.0
1014.0
1013.0
1011.0
1013.0
1017.0
1021.0
1024.0
1024.0
1022.0
1025.0
1027.0
1029.0
1037.0
1039.0
1044.0
1041.0
1046.0
1051.0
1059.0
1060.0
1063.0
1061.0
1067.0
1072.0
1076.0
1078.0
1077.0
1075.0
1075.0
1080.0
1081.0
1078.0
1075.0
1072.0
1070.0
1071.0
1071.0
1069.0
1065.0
1063.0
1060.0
1058.0
1057.0
1056.0
1052.0
1051.0
1050.0
1050.0
1051.0
1047.0
1042.0
1039.0
1037.0
1040.0
1042.0
1040.0
1040.0
1037.0
1038.0
1041.0
1045.0
1043.0
1038.0
1036.0
1037.0
1040.0
1041.0
1039.0
1038.0
1039.0
1039.0
1040.0
1047.0
1040.0
1040.0
1037.0
1036.0
1038.0
1042.0
1037.0
1037.0
1035.0
1035.0
1033.0
1034.0
1031.0
1031.0
1029.0
1031.0
1032.0
1032.0
1031.0
1029.0
1024.0
1028.0
1029.0
1036.0
1033.0
1031.0
1031.0
1028.0
1031.0
1035.0
1035.0
1031.0
1029.0
1032.0
1035.0
1036.0
1035.0
1034.0
1032.0
1032.0
1037.0
1037.0
1038.0
1035.0
1035.0
1036.0
1037.0
1040.0
1038.0
1032.0
1032.0
1032.0
1035.0
1035.0
1037.0
1035.0
1034.0
1034.0
1035.0
1037.0
1036.0
1032.0
1030.0
1030.0
1031.0
1035.0
1035.0
1031.0
1027.0
1029.0
1034.0
1037.0
1034.0
1031.0
1029.0
1029.0
1030.0
1030.0
1031.0
1027.0
1025.0
1027.0
1028.0
1031.0
1031.0
1028.0
1028.0
1026.0
1031.0
1034.0
1032.0
1028.0
1027.0
1028.0
1030.0
1031.0
1031.0
1028.0
1025.0
1025.0
1030.0
1031.0
1033.0
1029.0
1029.0
1025.0
1031.0
1034.0
1032.0
1030.0
1024.0
1026.0
1029.0
1031.0
1031.0
1031.0
1026.0
1027.0
1030.0
1031.0
1028.0
1027.0
1029.0
1028.0
1028.0
1033.0
1029.0
1028.0
1027.0
1029.0
1030.0
1031.0
1029.0
1029.0
1027.0
1029.0
1032.0
1034.0
1031.0
1026.0
1027.0
1028.0
1033.0
1037.0
1037.0
1036.0
1033.0
1033.0
1033.0
1036.0
1038.0
1038.0
1038.0
1040.0
1040.0
1043.0
1041.0
1037.0
1034.0
1038.0
1038.0
1037.0
1037.0
1034.0
1034.0
1035.0
1039.0
1040.0
1039.0
1037.0
1037.0
1036.0
1038.0
1039.0
1038.0
1033.0
1032.0
1031.0
1029.0
1032.0
1030.0
1028.0
1029.0
1029.0
1032.0
1034.0
1033.0
1030.0
1026.0
1026.0
1029.0
1034.0
1032.0
1029.0
1027.0
1027.0
1031.0
1033.0
1034.0
1032.0
1033.0
1032.0
1035.0
1035.0
1036.0
1034.0
1031.0
1034.0
1038.0
1040.0
1042.0
1046.0
1051.0
1059.0
1069.0
1083.0
1092.0
1096.0
1110.0
1129.0
1159.0
1193.0
1218.0
1243.0
1267.0
1295.0
1325.0
1363.0
1398.0
1419.0
1415.0
1376.0
1299.0
1212.0
1130.0
1075.0
1043.0
1032.0
1033.0
1040.0
1037.0
1032.0
1032.0
1030.0
1030.0
1026.0
1020.0
1019.0
1015.0
1018.0
1020.0
1019.0
1018.0
1014.0
1015.0
1014.0
1017.0
1017.0
1016.0
1013.0
1010.0
1010.0
1014.0
1016.0
1015.0
1012.0
1008.0
1011.0
1013.0
1012.0
1010.0
1011.0
1010.0
1010.0
1011.0
1014.0
1012.0
1010.0
1008.0
1010.0
1010.0
1013.0
1012.0
1011.0
1008.0
1009.0
1009.0
1012.0
1011.0
1007.0
1007.0
1011.0
1010.0
1013.0
1011.0
1011.0
1010.0
1011.0
1016.0
1017.0
1016.0
1013.0
1012.0
1012.0
1018.0
1020.0
1021.0
1018.0
1015.0
1020.0
1022.0
1027.0
1027.0
1024.0
1024.0
1030.0
1033.0
1037.0
1037.0
1037.0
1039.0
1039.0
1046.0
1050.0
1053.0
1052.0
1052.0
1056.0
1061.0
1067.0
1070.0
1071.0
1071.0
1076.0
1079.0
1082.0
1082.0
1079.0
1079.0
1079.0
1082.0
1081.0
1078.0
1074.0
1071.0
1070.0
1069.0
1068.0
1065.0
1058.0
1055.0
1053.0
1055.0
1054.0
1053.0
1049.0
1045.0
1046.0
1048.0
1049.0
1046.0
1044.0
1040.0
1042.0
1044.0
1046.0
1041.0
1041.0
1040.0
1041.0
1042.0
1043.0
1044.0
1041.0
1039.0
1038.0
1040.0
1043.0
1040.0
1038.0
1039.0
1038.0
1038.0
1042.0
1040.0
1039.0
1035.0
1033.0
1037.0
1041.0
1037.0
1036.0
1031.0
1034.0
1035.0
1039.0
1036.0
1035.0
1034.0
1035.0
1036.0
1039.0
1039.0
1035.0
1037.0
1037.0
1039.0
1040.0
1041.0
1038.0
1037.0
1039.0
1045.0
1043.0
1043.0
1039.0
1036.0
1039.0
1043.0
1046.0
1044.0
1041.0
1037.0
1039.0
1042.0
1044.0
1043.0
1038.0
1040.0
1039.0
1041.0
1044.0
1042.0
1037.0
1035.0
1036.0
1038.0
1042.0
1041.0
1040.0
1036.0
1036.0
1039.0
1037.0
1038.0
1037.0
1034.0
1035.0
1039.0
1039.0
1039.0
1035.0
1034.0
1034.0
1037.0
1040.0
1036.0
1036.0
1034.0
1034.0
1036.0
1039.0
1038.0
1034.0
1032.0
1035.0
1036.0
1038.0
1034.0
1033.0
1033.0
1032.0
1035.0
1037.0
1037.0
1032.0
1029.0
1030.0
1035.0
1036.0
1033.0
1032.0
1028.0
1031.0
1035.0
1034.0
1035.0
1032.0
1032.0
1031.0
1035.0
1036.0
1035.0
1031.0
1029.0
1030.0
1034.0
1034.0
1035.0
1035.0
1030.0
1031.0
1033.0
1035.0
1037.0
1036.0
1031.0
1031.0
1036.0
1037.0
1033.0
1032.0
1028.0
1032.0
1036.0
1038.0
1037.0
1036.0
1031.0
1035.0
1039.0
1043.0
1042.0
1042.0
1041.0
1042.0
1043.0
1049.0
1048.0
1047.0
1045.0
1047.0
1049.0
1052.0
1052.0
1048.0
1046.0
1046.0
1048.0
1047.0
1047.0
1044.0
1041.0
1042.0
1044.0
1046.0
1045.0
1045.0
1047.0
1048.0
1048.0
1052.0
1050.0
1048.0
1042.0
1040.0
1041.0
1043.0
1040.0
1035.0
1037.0
1037.0
1039.0
1042.0
1042.0
1038.0
1039.0
1038.0
1040.0
1041.0
1038.0
1035.0
1034.0
1036.0
1040.0
1043.0
1040.0
1037.0
1035.0
1037.0
1041.0
1044.0
1040.0
1038.0
1037.0
1035.0
1041.0
1043.0
1045.0
1044.0
1044.0
1049.0
1057.0
1064.0
1071.0
1081.0
1086.0
1095.0
1107.0
1127.0
1150.0
1176.0
1198.0
1227.0
1259.0
1289.0
1320.0
1352.0
1393.0
1421.0
1434.0
1411.0
1359.0
1279.0
1191.0
1126.0
1082.0
1058.0
1040.0
1033.0
1034.0
1036.0
1039.0
1042.0
1040.0
1036.0
1033.0
1029.0
1027.0
1029.0
1025.0
1022.0
1020.0
1021.0
1024.0
1025.0
1024.0
1020.0
1016.0
1017.0
1020.0
1023.0
1018.0
1017.0
1014.0
1018.0
1023.0
1021.0
1023.0
1020.0
1016.0
1017.0
1016.0
1018.0
1017.0
1015.0
1015.0
1014.0
1015.0
1018.0
1016.0
1013.0
1011.0
1015.0
1018.0
1020.0
1018.0
1015.0
1015.0
1015.0
1019.0
1019.0
1017.0
1017.0
1014.0
1016.0
1018.0
1021.0
1020.0
1017.0
1015.0
1019.0
1023.0
1022.0
1023.0
1021.0
1020.0
1022.0
1023.0
1028.0
1030.0
1027.0
1025.0
1025.0
1030.0
1035.0
1035.0
1033.0
1037.0
1036.0
1042.0
1044.0
1045.0
1045.0
1047.0
1053.0
1056.0
1061.0
1063.0
1062.0
1064.0
1071.0
1074.0
1081.0
1080.0
1080.0
1085.0
1086.0
1091.0
1092.0
1091.0
1089.0
1089.0
1090.0
1088.0
1089.0
1088.0
1083.0
1075.0
1076.0
1075.0
1074.0
1071.0
1066.0
1061.0
1060.0
1058.0
1059.0
1054.0
1053.0
1050.0
1052.0
1051.0
1053.0
1051.0
1047.0
1044.0
1045.0
1048.0
1048.0
1046.0
1044.0
1044.0
1047.0
1046.0
1047.0
1048.0
1045.0
1043.0
1045.0
1046.0
1048.0
1047.0
1045.0
1043.0
1042.0
1046.0
1043.0
1043.0
1041.0
1039.0
1041.0
1042.0
1044.0
1042.0
1041.0
1042.0
1040.0
1044.0
1044.0
1040.0
1041.0
1037.0
1042.0
1041.0
1044.0
1041.0
1038.0
1037.0
1038.0
1041.0
1043.0
1041.0
1040.0
1040.0
1041.0
1044.0
1044.0
1043.0
1042.0
1041.0
1044.0
1046.0
1046.0
1046.0
1041.0
1039.0
1039.0
1043.0
1047.0
1048.0
1043.0
1040.0
1040.0
1044.0
1044.0
1046.0
1045.0
1041.0
1043.0
1046.0
1047.0
1044.0
1042.0
1039.0
1042.0
1043.0
1046.0
1042.0
1039.0
1038.0
1041.0
1043.0
1044.0
1042.0
1042.0
1039.0
1040.0
1043.0
1044.0
1043.0
1041.0
1040.0
1041.0
1045.0
1046.0
1044.0
1038.0
1040.0
1041.0
1042.0
1045.0
1041.0
1039.0
1038.0
1042.0
1041.0
1041.0
1043.0
1038.0
1039.0
1042.0
1042.0
1043.0
1040.0
1038.0
1039.0
1041.0
1045.0
1044.0
1042.0
1039.0
1040.0
1041.0
1042.0
1043.0
1043.0
1038.0
1036.0
1039.0
1041.0
1044.0
1042.0
1039.0
1038.0
1038.0
1042.0
1043.0
1043.0
1041.0
1038.0
1040.0
1042.0
1045.0
1042.0
1038.0
1037.0
1042.0
1047.0
1049.0
1044.0
1038.0
1039.0
1041.0
1044.0
1046.0
1049.0
1050.0
1048.0
1050.0
1052.0
1053.0
1053.0
1052.0
1055.0
1055.0
1057.0
1059.0
1057.0
1054.0
1050.0
1050.0
1053.0
1052.0
1051.0
1048.0
1047.0
1047.0
1050.0
1054.0
1050.0
1051.0
1049.0
1051.0
1053.0
1054.0
1053.0
1047.0
1044.0
1045.0
1043.0
1047.0
1045.0
1044.0
1040.0
1042.0
1046.0
1046.0
1044.0
1039.0
1038.0
1041.0
1044.0
1046.0
1042.0
1041.0
1041.0
1041.0
1042.0
1045.0
1041.0
1041.0
1040.0
1042.0
1045.0
1045.0
1044.0
1041.0
1042.0
1046.0
1046.0
1049.0
1051.0
1050.0
1053.0
1062.0
1073.0
1080.0
1090.0
1097.0
1103.0
1118.0
1139.0
1162.0
1187.0
1209.0
1230.0
1259.0
1286.0
1315.0
1348.0
1383.0
1415.0
1421.0
1399.0
1346.0
1260.0
1171.0
1106.0
1069.0
1045.0
1036.0
1035.0
1034.0
1037.0
1037.0
1041.0
1038.0
1033.0
1029.0
1025.0
1024.0
1025.0
1026.0
1025.0
1021.0
1018.0
1020.0
1023.0
1023.0
1022.0
1019.0
1020.0
1021.0
1022.0
1023.0
1023.0
1018.0
1018.0
1018.0
1020.0
1022.0
1019.0
1016.0
1013.0
1014.0
1017.0
1016.0
1015.0
1012.0
1012.0
1013.0
1015.0
1015.0
1014.0
1011.0
1009.0
1009.0
1012.0
1013.0
1011.0
1011.0
1008.0
1013.0
1012.0
1013.0
1012.0
1009.0
1010.0
1013.0
1015.0
1015.0
1013.0
1011.0
1011.0
1013.0
1017.0
1016.0
1016.0
1014.0
1015.0
1015.0
1021.0
1021.0
1020.0
1019.0
1018.0
1020.0
1023.0
1025.0
1026.0
1024.0
1024.0
1030.0
1035.0
1037.0
1036.0
1036.0
1040.0
1043.0
1047.0
1051.0
1052.0
1054.0
1056.0
1062.0
1070.0
1074.0
1075.0
1076.0
1075.0
1078.0
1081.0
1084.0
1081.0
1081.0
1081.0
1081.0
1080.0
1080.0
1077.0
1073.0
1069.0
1065.0
1067.0
1063.0
1062.0
1055.0
1053.0
1052.0
1054.0
1055.0
1049.0
1047.0
1046.0
1045.0
1047.0
1047.0
1046.0
1043.0
1042.0
1042.0
1044.0
1045.0
1041.0
1039.0
1039.0
1039.0
1041.0
1046.0
1042.0
1039.0
1036.0
1038.0
1040.0
1040.0
1037.0
1035.0
1033.0
1033.0
1039.0
1038.0
1036.0
1034.0
1032.0
1032.0
1031.0
1033.0
1034.0
1030.0
1028.0
1030.0
1031.0
1031.0
1031.0
1027.0
1026.0
1028.0
1033.0
1032.0
1033.0
1028.0
1029.0
1027.0
1032.0
1035.0
1032.0
1029.0
1030.0
1032.0
1033.0
1034.0
1032.0
1030.0
1030.0
1033.0
1037.0
1038.0
1032.0
1031.0
1029.0
1031.0
1033.0
1034.0
1033.0
1031.0
1027.0
1029.0
1031.0
1033.0
1029.0
1029.0
1028.0
1029.0
1033.0
1031.0
1030.0
1028.0
1025.0
1029.0
1030.0
1029.0
1029.0
1024.0
1025.0
1027.0
1028.0
1029.0
1025.0
1024.0
1023.0
1025.0
1026.0
1026.0
1027.0
1023.0
1022.0
1024.0
1025.0
1024.0
1024.0
1020.0
1017.0
1023.0
1025.0
1022.0
1021.0
1020.0
1019.0
1021.0
1025.0
1026.0
1023.0
1021.0
1020.0
1022.0
1025.0
1024.0
1024.0
1021.0
1019.0
1020.0
1021.0
1025.0
1022.0
1017.0
1016.0
1022.0
1021.0
1023.0
1022.0
1019.0
1018.0
1019.0
1025.0
1024.0
1024.0
1025.0
1025.0
1026.0
1031.0
1032.0
1030.0
1026.0
1028.0
1030.0
1034.0
1035.0
1032.0
1030.0
1029.0
1027.0
1030.0
1030.0
1027.0
1023.0
1024.0
1025.0
1030.0
1028.0
1028.0
1024.0
1024.0
1026.0
1032.0
1031.0
1029.0
1025.0
1025.0
1026.0
1026.0
1023.0
1021.0
1018.0
1018.0
1019.0
1023.0
1021.0
1020.0
1019.0
1018.0
1017.0
1021.0
1022.0
1020.0
1016.0
1016.0
1016.0
1018.0
1021.0
1019.0
1019.0
1019.0
1018.0
1020.0
1021.0
1021.0
1020.0
1018.0
1019.0
1023.0
1024.0
1022.0
1021.0
1023.0
1023.0
1025.0
1031.0
1034.0
1034.0
1040.0
1047.0
1062.0
1073.0
1081.0
1086.0
1103.0
1126.0
1157.0
1188.0
1213.0
1237.0
1266.0
1295.0
1333.0
1375.0
1411.0
1435.0
1433.0
1405.0
1347.0
1266.0
1182.0
1115.0
1070.0
1037.0
1024.0
1019.0
1019.0
1016.0
1015.0
1017.0
1020.0
1018.0
1013.0
1009.0
1004.0
1005.0
1006.0
1004.0
1001.0
998.0
1000.0
1000.0
1003.0
1001.0
1000.0
1000.0
999.0
1004.0
1003.0
1003.0
1001.0
996.0
996.0
996.0
998.0
1000.0
998.0
995.0
994.0
995.0
996.0
998.0
996.0
993.0
991.0
995.0
995.0
997.0
991.0
989.0
991.0
994.0
995.0
996.0
995.0
993.0
993.0
994.0
998.0
1000.0
997.0
995.0
995.0
996.0
1000.0
1001.0
999.0
1000.0
1001.0
1003.0
1005.0
1008.0
1005.0
1002.0
1003.0
1007.0
1012.0
1012.0
1011.0
1012.0
1010.0
1013.0
1018.0
1021.0
1023.0
1021.0
1023.0
1027.0
1031.0
1033.0
1035.0
1036.0
1038.0
1042.0
1048.0
1051.0
1051.0
1052.0
1056.0
1062.0
1069.0
1071.0
1073.0
1069.0
1073.0
1076.0
1080.0
1078.0
1079.0
1075.0
1071.0
1072.0
1072.0
1071.0
1067.0
1064.0
1060.0
1060.0
1059.0
1057.0
1054.0
1050.0
1046.0
1044.0
1047.0
1044.0
1044.0
1038.0
1037.0
1039.0
1040.0
1040.0
1036.0
1034.0
1035.0
1037.0
1039.0
1039.0
1035.0
1034.0
1033.0
1036.0
1038.0
1036.0
1035.0
1032.0
1033.0
1034.0
1036.0
1036.0
1033.0
1032.0
1030.0
1031.0
1035.0
1037.0
1032.0
1030.0
1032.0
1034.0
1035.0
1032.0
1033.0
1028.0
1030.0
1031.0
1033.0
1032.0
1033.0
1027.0
1026.0
1031.0
1031.0
1032.0
1029.0
1028.0
1029.0
1030.0
1031.0
1032.0
1034.0
1030.0
1030.0
1033.0
1035.0
1035.0
1035.0
1032.0
1032.0
1035.0
1038.0
1038.0
1037.0
1034.0
1034.0
1037.0
1037.0
1040.0
1038.0
1039.0
1034.0
1036.0
1039.0
1039.0
1036.0
1032.0
1033.0
1038.0
1039.0
1041.0
1040.0
1036.0
1034.0
1034.0
1038.0
1039.0
1038.0
1035.0
1034.0
1039.0
1040.0
1038.0
1035.0
1034.0
1033.0
1035.0
1037.0
1038.0
1037.0
1034.0
1035.0
1035.0
1038.0
1037.0
1034.0
1034.0
1036.0
1036.0
1039.0
1038.0
1038.0
1035.0
1036.0
1037.0
1041.0
1039.0
1038.0
1033.0
1036.0
1037.0
1039.0
1041.0
1039.0
1039.0
1039.0
1040.0
1043.0
1038.0
1038.0
1035.0
1036.0
1039.0
1043.0
1041.0
1039.0
1037.0
1036.0
1041.0
1043.0
1044.0
1042.0
1041.0
1039.0
1041.0
1041.0
1044.0
1041.0
1041.0
1040.0
1042.0
1045.0
1046.0
1045.0
1040.0
1040.0
1043.0
1044.0
1045.0
1044.0
1042.0
1040.0
1042.0
1045.0
1045.0
1043.0
1041.0
1045.0
1046.0
1048.0
1047.0
1044.0
1044.0
1043.0
1048.0
1049.0
1051.0
1049.0
1049.0
1050.0
1053.0
1057.0
1059.0
1059.0
1054.0
1054.0
1057.0
1061.0
1063.0
1060.0
1055.0
1052.0
1054.0
1057.0
1055.0
1053.0
1052.0
1051.0
1055.0
1058.0
1059.0
1055.0
1054.0
1056.0
1055.0
1059.0
1058.0
1058.0
1051.0
1051.0
1049.0
1050.0
1052.0
1049.0
1049.0
1047.0
1049.0
1052.0
1052.0
1049.0
1047.0
1048.0
1049.0
1052.0
1051.0
1048.0
1046.0
1048.0
1048.0
1052.0
1050.0
1048.0
1046.0
1047.0
1048.0
1051.0
1051.0
1051.0
1047.0
1051.0
1050.0
1052.0
1051.0
1052.0
1052.0
1055.0
1059.0
1070.0
1073.0
1082.0
1085.0
1098.0
1109.0
1120.0
1133.0
1153.0
1174.0
1200.0
1231.0
1259.0
1282.0
1308.0
1332.0
1368.0
1406.0
1438.0
1445.0
1424.0
1379.0
1308.0
1227.0
1163.0
1108.0
1072.0
1048.0
1042.0
1042.0
1051.0
1050.0
1050.0
1045.0
1045.0
1046.0
1045.0
1040.0
1037.0
1032.0
1032.0
1033.0
1038.0
1035.0
1033.0
1033.0
1032.0
1033.0
1034.0
1034.0
1033.0
1030.0
1028.0
1030.0
1032.0
1031.0
1029.0
1028.0
1029.0
1032.0
1033.0
1032.0
1028.0
1025.0
1024.0
1028.0
1029.0
1029.0
1026.0
1022.0
1019.0
1023.0
1024.0
1026.0
1024.0
1023.0
1023.0
1025.0
1025.0
1025.0
1023.0
1020.0
1020.0
1022.0
1026.0
1025.0
1025.0
1024.0
1024.0
1025.0
1030.0
1028.0
1027.0
1025.0
1024.0
1027.0
1028.0
1031.0
1028.0
1028.0
1029.0
1029.0
1031.0
1031.0
1030.0
1029.0
1028.0
1032.0
1038.0
1040.0
1040.0
1039.0
1037.0
1043.0
1045.0
1046.0
1047.0
1048.0
1051.0
1054.0
1060.0
1059.0
1062.0
1063.0
1066.0
1071.0
1074.0
1079.0
1080.0
1079.0
1082.0
1086.0
1092.0
1094.0
1095.0
1093.0
1095.0
1095.0
1102.0
1098.0
1097.0
1093.0
1092.0
1092.0
1092.0
1089.0
1086.0
1083.0
1081.0
1080.0
1081.0
1078.0
1074.0
1070.0
1067.0
1068.0
1069.0
1068.0
1064.0
1060.0
1060.0
1058.0
1063.0
1059.0
1058.0
1053.0
1055.0
1056.0
1059.0
1059.0
1058.0
1053.0
1054.0
1055.0
1057.0
1056.0
1054.0
1051.0
1052.0
1053.0
1056.0
1055.0
1052.0
1049.0
1048.0
1055.0
1055.0
1052.0
1048.0
1047.0
1048.0
1048.0
1049.0
1050.0
1048.0
1044.0
1045.0
1047.0
1049.0
1048.0
1044.0
1043.0
1043.0
1045.0
1047.0
1046.0
1045.0
1041.0
1042.0
1042.0
1046.0
1048.0
1046.0
1041.0
1043.0
1045.0
1047.0
1048.0
1046.0
1044.0
1043.0
1047.0
1049.0
1045.0
1044.0
1045.0
1044.0
1048.0
1050.0
1048.0
1047.0
1043.0
1044.0
1044.0
1047.0
1046.0
1044.0
1042.0
1045.0
1044.0
1046.0
1044.0
1042.0
1042.0
1041.0
1045.0
1048.0
1046.0
1041.0
1041.0
1037.0
1042.0
1044.0
1044.0
1042.0
1039.0
1039.0
1042.0
1042.0
1042.0
1040.0
1036.0
1038.0
1040.0
1041.0
1038.0
1037.0
1035.0
1037.0
1038.0
1040.0
1037.0
1037.0
1036.0
1035.0
1036.0
1037.0
1037.0
1037.0
1033.0
1035.0
1037.0
1038.0
1038.0
1036.0
1031.0
1031.0
1035.0
1037.0
1039.0
1035.0
1033.0
1033.0
1034.0
1037.0
1035.0
1033.0
1032.0
1031.0
1034.0
1033.0
1036.0
1032.0
1032.0
1033.0
1036.0
1036.0
1037.0
1034.0
1032.0
1034.0
1033.0
1035.0
1035.0
1035.0
1033.0
1033.0
1036.0
1037.0
1035.0
1035.0
1030.0
1033.0
1034.0
1036.0
1035.0
1037.0
1031.0
1033.0
1033.0
1037.0
1036.0
1038.0
1037.0
1039.0
1043.0
1046.0
1044.0
1044.0
1041.0
1043.0
1045.0
1049.0
1048.0
1045.0
1045.0
1045.0
1047.0
1047.0
1045.0
1043.0
1041.0
1040.0
1042.0
1042.0
1040.0
1040.0
1039.0
1038.0
1043.0
1045.0
1046.0
1043.0
1039.0
1038.0
1042.0
1043.0
1040.0
1037.0
1031.0
1032.0
1032.0
1037.0
1036.0
1031.0
1031.0
1027.0
1032.0
1035.0
1035.0
1033.0
1029.0
1029.0
1031.0
1034.0
1032.0
1031.0
1030.0
1028.0
1031.0
1033.0
1032.0
1029.0
1028.0
1027.0
1032.0
1035.0
1033.0
1034.0
1029.0
1030.0
1034.0
1037.0
1039.0
1038.0
1038.0
1041.0
1046.0
1053.0
1058.0
1062.0
1073.0
1081.0
1095.0
1104.0
1119.0
1137.0
1157.0
1185.0
1214.0
1244.0
1271.0
1297.0
1326.0
1365.0
1409.0
1438.0
1445.0
1423.0
1368.0
1291.0
1210.0
1146.0
1096.0
1057.0
1033.0
1024.0
1026.0
1030.0
1032.0
1029.0
1025.0
1028.0
1027.0
1025.0
1022.0
1017.0
1012.0
1012.0
1015.0
1015.0
1014.0
1010.0
1009.0
1008.0
1013.0
1014.0
1012.0
1010.0
1005.0
1008.0
1011.0
1012.0
1011.0
1007.0
1005.0
1006.0
1008.0
1009.0
1006.0
1006.0
1001.0
1002.0
1004.0
1006.0
1005.0
1003.0
1001.0
1002.0
1003.0
1005.0
1005.0
1002.0
1001.0
1001.0
1003.0
1006.0
1005.0
1003.0
1002.0
1001.0
1005.0
1007.0
1007.0
1005.0
1002.0
1003.0
1006.0
1008.0
1010.0
1007.0
1005.0
1007.0
1011.0
1012.0
1011.0
1010.0
1010.0
1010.0
1014.0
1017.0
1019.0
1015.0
1017.0
1019.0
1022.0
1027.0
1030.0
1029.0
1029.0
1031.0
1036.0
1039.0
1043.0
1044.0
1044.0
1049.0
1056.0
1060.0
1063.0
1064.0
1064.0
1072.0
1076.0
1083.0
1084.0
1083.0
1081.0
1083.0
1086.0
1088.0
1086.0
1082.0
1079.0
1075.0
1076.0
1075.0
1070.0
1067.0
1065.0
1061.0
1062.0
1062.0
1056.0
1054.0
1048.0
1049.0
1050.0
1053.0
1047.0
1046.0
1043.0
1044.0
1045.0
1048.0
1045.0
1041.0
1040.0
1042.0
1045.0
1046.0
1045.0
1041.0
1041.0
1040.0
1044.0
1045.0
1045.0
1042.0
1037.0
1040.0
1042.0
1044.0
1043.0
1040.0
1035.0
1037.0
1040.0
1040.0
1040.0
1036.0
1033.0
1036.0
1038.0
1039.0
1036.0
1037.0
1035.0
1036.0
1038.0
1039.0
1039.0
1036.0
1034.0
1035.0
1038.0
1042.0
1040.0
1038.0
1038.0
1037.0
1038.0
1044.0
1043.0
1041.0
1040.0
1039.0
1043.0
1046.0
1046.0
1041.0
1040.0
1044.0
1043.0
1048.0
1044.0
1043.0
1040.0
1042.0
1045.0
1049.0
1048.0
1045.0
1041.0
1041.0
1043.0
1045.0
1046.0
1043.0
1042.0
1041.0
1042.0
