# Simple Text Format
# Sampling Rate (Hz):= 360.00
# Resolution:= 12
# Labels:= ECG
965.0
961.0
959.0
960.0
958.0
960.0
961.0
956.0
955.0
955.0
955.0
958.0
955.0
951.0
949.0
953.0
956.0
957.0
955.0
951.0
950.0
949.0
954.0
955.0
955.0
954.0
954.0
956.0
953.0
949.0
945.0
943.0
946.0
948.0
950.0
949.0
949.0
947.0
948.0
947.0
947.0
951.0
949.0
948.0
950.0
951.0
957.0
959.0
960.0
961.0
961.0
965.0
972.0
975.0
979.0
980.0
985.0
990.0
997.0
1004.0
1006.0
1007.0
1008.0
1010.0
1012.0
1015.0
1015.0
1020.0
1017.0
1018.0
1023.0
1021.0
1022.0
1017.0
1013.0
1012.0
1013.0
1013.0
1011.0
1007.0
1004.0
1007.0
1007.0
1010.0
1010.0
1005.0
1003.0
1001.0
1003.0
1002.0
1000.0
999.0
996.0
1000.0
1005.0
1008.0
1004.0
1003.0
998.0
999.0
1000.0
1001.0
998.0
998.0
996.0
996.0
998.0
1000.0
999.0
996.0
998.0
995.0
998.0
997.0
1000.0
996.0
996.0
998.0
1004.0
1002.0
997.0
988.0
988.0
989.0
994.0
998.0
996.0
993.0
992.0
991.0
994.0
994.0
994.0
991.0
991.0
991.0
992.0
994.0
994.0
994.0
991.0
994.0
996.0
996.0
994.0
993.0
991.0
994.0
995.0
995.0
994.0
993.0
994.0
995.0
999.0
997.0
997.0
992.0
988.0
990.0
991.0
995.0
994.0
993.0
992.0
991.0
995.0
996.0
994.0
992.0
991.0
993.0
997.0
994.0
990.0
985.0
985.0
985.0
991.0
992.0
991.0
988.0
990.0
991.0
993.0
992.0
989.0
985.0
983.0
985.0
988.0
990.0
991.0
989.0
994.0
991.0
994.0
995.0
994.0
994.0
990.0
988.0
992.0
993.0
990.0
986.0
985.0
988.0
995.0
997.0
991.0
987.0
986.0
989.0
993.0
994.0
993.0
990.0
990.0
992.0
993.0
994.0
989.0
984.0
985.0
988.0
993.0
992.0
995.0
989.0
991.0
995.0
997.0
998.0
996.0
992.0
991.0
992.0
993.0
996.0
993.0
995.0
993.0
995.0
996.0
998.0
997.0
995.0
994.0
995.0
998.0
997.0
998.0
999.0
998.0
1001.0
1005.0
1008.0
1007.0
1006.0
1004.0
1007.0
1009.0
1009.0
1008.0
1003.0
1002.0
1000.0
998.0
999.0
1000.0
1001.0
999.0
1001.0
1003.0
1007.0
1007.0
1003.0
1002.0
1003.0
1009.0
1010.0
1008.0
1002.0
998.0
994.0
996.0
997.0
1000.0
999.0
999.0
997.0
997.0
997.0
996.0
993.0
995.0
998.0
1001.0
1005.0
1003.0
997.0
995.0
995.0
1000.0
1005.0
1007.0
1002.0
997.0
1000.0
998.0
1000.0
1000.0
998.0
1000.0
1002.0
1008.0
1010.0
1010.0
1011.0
1018.0
1027.0
1038.0
1047.0
1063.0
1075.0
1093.0
1117.0
1150.0
1188.0
1221.0
1250.0
1284.0
1315.0
1352.0
1387.0
1427.0
1455.0
1465.0
1456.0
1411.0
1326.0
1227.0
1142.0
1081.0
1046.0
1025.0
1022.0
1017.0
1011.0
1008.0
1008.0
1006.0
1003.0
998.0
989.0
986.0
985.0
986.0
983.0
981.0
979.0
979.0
981.0
981.0
984.0
981.0
976.0
973.0
971.0
973.0
976.0
975.0
973.0
972.0
970.0
972.0
976.0
974.0
971.0
969.0
971.0
973.0
973.0
972.0
970.0
969.0
973.0
971.0
969.0
967.0
963.0
966.0
970.0
971.0
970.0
966.0
961.0
962.0
961.0
962.0
964.0
965.0
961.0
961.0
963.0
966.0
968.0
962.0
960.0
959.0
960.0
965.0
969.0
963.0
963.0
959.0
962.0
965.0
967.0
967.0
962.0
961.0
964.0
967.0
969.0
970.0
966.0
968.0
970.0
973.0
975.0
976.0
975.0
975.0
980.0
985.0
991.0
990.0
992.0
992.0
996.0
1003.0
1011.0
1011.0
1015.0
1017.0
1024.0
1027.0
1031.0
1031.0
1031.0
1027.0
1032.0
1037.0
1037.0
1035.0
1033.0
1030.0
1028.0
1027.0
1026.0
1026.0
1023.0
1021.0
1020.0
1021.0
1021.0
1015.0
1014.0
1010.0
1016.0
1016.0
1013.0
1012.0
1007.0
1007.0
1011.0
1013.0
1012.0
1010.0
1009.0
1010.0
1014.0
1014.0
1013.0
1011.0
1009.0
1007.0
1007.0
1008.0
1012.0
1009.0
1009.0
1008.0
1008.0
1008.0
1009.0
1005.0
1004.0
1005.0
1008.0
1010.0
1009.0
1009.0
1004.0
1001.0
1002.0
1004.0
1006.0
1000.0
995.0
995.0
998.0
1000.0
1003.0
1004.0
1002.0
1001.0
1003.0
1002.0
1004.0
1004.0
1000.0
996.0
999.0
1001.0
1004.0
1001.0
999.0
1002.0
1004.0
1005.0
1004.0
998.0
995.0
997.0
1000.0
1001.0
1003.0
1000.0
999.0
1000.0
1001.0
1006.0
1000.0
999.0
996.0
998.0
999.0
1002.0
1003.0
1001.0
994.0
993.0
994.0
1001.0
1001.0
999.0
998.0
996.0
996.0
998.0
998.0
998.0
996.0
996.0
998.0
998.0
996.0
993.0
990.0
991.0
994.0
996.0
995.0
994.0
990.0
989.0
994.0
995.0
997.0
997.0
994.0
988.0
989.0
992.0
991.0
992.0
991.0
986.0
990.0
992.0
992.0
992.0
985.0
985.0
991.0
993.0
996.0
992.0
984.0
988.0
987.0
990.0
992.0
993.0
990.0
990.0
993.0
995.0
995.0
994.0
991.0
988.0
994.0
997.0
996.0
994.0
990.0
992.0
994.0
999.0
1000.0
998.0
997.0
997.0
1001.0
1005.0
1006.0
1007.0
1005.0
1004.0
1002.0
1005.0
1005.0
1007.0
1004.0
1003.0
1001.0
1003.0
1003.0
1002.0
1000.0
998.0
1001.0
1002.0
1003.0
1004.0
1004.0
1005.0
1007.0
1012.0
1007.0
1002.0
999.0
999.0
1000.0
999.0
999.0
996.0
996.0
995.0
997.0
1000.0
1001.0
999.0
997.0
999.0
998.0
1001.0
997.0
997.0
995.0
994.0
996.0
998.0
998.0
998.0
993.0
994.0
998.0
1000.0
999.0
996.0
995.0
994.0
999.0
1005.0
1009.0
1013.0
1017.0
1027.0
1042.0
1062.0
1087.0
1111.0
1149.0
1195.0
1243.0
1290.0
1329.0
1364.0
1400.0
1444.0
1481.0
1500.0
1490.0
1445.0
1367.0
1269.0
1180.0
1112.0
1066.0
1035.0
1023.0
1013.0
1013.0
1009.0
1008.0
1005.0
997.0
992.0
989.0
986.0
983.0
977.0
972.0
969.0
970.0
975.0
969.0
969.0
965.0
965.0
967.0
970.0
968.0
966.0
961.0
961.0
962.0
964.0
963.0
960.0
958.0
959.0
962.0
962.0
963.0
963.0
956.0
955.0
954.0
957.0
958.0
958.0
954.0
956.0
957.0
958.0
959.0
956.0
952.0
952.0
954.0
957.0
956.0
954.0
952.0
952.0
956.0
958.0
955.0
954.0
949.0
952.0
957.0
958.0
956.0
956.0
953.0
953.0
954.0
954.0
954.0
956.0
954.0
957.0
960.0
963.0
962.0
960.0
958.0
959.0
964.0
967.0
969.0
970.0
968.0
972.0
977.0
984.0
989.0
991.0
992.0
998.0
1004.0
1014.0
1015.0
1018.0
1021.0
1023.0
1033.0
1038.0
1038.0
1036.0
1030.0
1031.0
1032.0
1036.0
1035.0
1032.0
1029.0
1027.0
1027.0
1027.0
1023.0
1020.0
1018.0
1014.0
1018.0
1019.0
1016.0
1013.0
1011.0
1010.0
1012.0
1015.0
1016.0
1015.0
1013.0
1009.0
1008.0
1012.0
1014.0
1015.0
1012.0
1013.0
1012.0
1013.0
1014.0
1014.0
1012.0
1010.0
1009.0
1012.0
1011.0
1008.0
1006.0
1005.0
1008.0
1012.0
1011.0
1010.0
1006.0
1008.0
1008.0
1010.0
1008.0
1003.0
1001.0
1002.0
1007.0
1009.0
1010.0
1010.0
1005.0
1003.0
1001.0
1005.0
1007.0
1010.0
1007.0
1008.0
1009.0
1011.0
1010.0
1008.0
1002.0
1003.0
1006.0
1013.0
1010.0
1010.0
1007.0
1006.0
1008.0
1009.0
1009.0
1008.0
1004.0
1005.0
1006.0
1009.0
1010.0
1010.0
1007.0
1009.0
1010.0
1011.0
1010.0
1013.0
1012.0
1010.0
1012.0
1008.0
1008.0
1007.0
1008.0
1007.0
1007.0
1010.0
1009.0
1007.0
1005.0
1004.0
1004.0
1008.0
1009.0
1007.0
1005.0
1006.0
1010.0
1014.0
1014.0
1011.0
1006.0
1005.0
1005.0
1007.0
1008.0
1011.0
1008.0
1009.0
1011.0
1010.0
1009.0
1002.0
1001.0
1004.0
1006.0
1010.0
1010.0
1007.0
1004.0
1006.0
1006.0
1007.0
1008.0
1005.0
1004.0
1006.0
1009.0
1009.0
1010.0
1010.0
1008.0
1008.0
1011.0
1011.0
1012.0
1011.0
1007.0
1005.0
1006.0
1010.0
1010.0
1009.0
1009.0
1008.0
1010.0
1009.0
1008.0
1005.0
1002.0
1004.0
1009.0
1011.0
1015.0
1007.0
1005.0
1005.0
1007.0
1010.0
1011.0
1009.0
1010.0
1007.0
1011.0
1015.0
1014.0
1014.0
1013.0
1013.0
1016.0
1019.0
1020.0
1018.0
1015.0
1016.0
1018.0
1022.0
1026.0
1024.0
1020.0
1016.0
1015.0
1019.0
1017.0
1012.0
1010.0
1011.0
1016.0
1019.0
1023.0
1019.0
1018.0
1016.0
1018.0
1019.0
1022.0
1019.0
1014.0
1011.0
1009.0
1013.0
1014.0
1015.0
1014.0
1012.0
1013.0
1014.0
1013.0
1009.0
1007.0
1006.0
1008.0
1013.0
1012.0
1009.0
1006.0
1005.0
1010.0
1015.0
1016.0
1013.0
1009.0
1005.0
1008.0
1013.0
1013.0
1016.0
1016.0
1012.0
1016.0
1022.0
1026.0
1032.0
1038.0
1049.0
1063.0
1078.0
1095.0
1114.0
1142.0
1178.0
1219.0
1261.0
1298.0
1331.0
1365.0
1403.0
1444.0
1468.0
1466.0
1429.0
1354.0
1254.0
1161.0
1096.0
1055.0
1034.0
1027.0
1025.0
1023.0
1022.0
1018.0
1012.0
1002.0
995.0
993.0
996.0
994.0
993.0
986.0
982.0
982.0
984.0
984.0
984.0
979.0
978.0
982.0
979.0
982.0
980.0
976.0
975.0
977.0
982.0
979.0
979.0
972.0
970.0
973.0
975.0
975.0
975.0
971.0
969.0
971.0
972.0
968.0
966.0
966.0
965.0
965.0
968.0
966.0
966.0
965.0
964.0
963.0
964.0
964.0
964.0
961.0
963.0
964.0
966.0
967.0
965.0
958.0
960.0
961.0
964.0
965.0
965.0
964.0
962.0
961.0
965.0
969.0
970.0
969.0
968.0
970.0
973.0
977.0
976.0
974.0
975.0
983.0
988.0
990.0
991.0
989.0
993.0
998.0
1006.0
1011.0
1017.0
1018.0
1021.0
1024.0
1031.0
1030.0
1033.0
1031.0
1032.0
1034.0
1036.0
1036.0
1036.0
1033.0
1034.0
1032.0
1033.0
1031.0
1028.0
1024.0
1022.0
1022.0
1021.0
1025.0
1018.0
1017.0
1015.0
1019.0
1018.0
1019.0
1017.0
1013.0
1012.0
1014.0
1015.0
1015.0
1013.0
1009.0
1009.0
1014.0
1013.0
1013.0
1009.0
1009.0
1008.0
1010.0
1014.0
1014.0
1013.0
1009.0
1005.0
1009.0
1009.0
1009.0
1008.0
1006.0
1007.0
1011.0
1013.0
1009.0
1005.0
1002.0
999.0
1002.0
1006.0
1009.0
1006.0
1002.0
1004.0
1006.0
1007.0
1009.0
1008.0
1005.0
1006.0
1009.0
1009.0
1007.0
1006.0
1003.0
1003.0
1005.0
1008.0
1008.0
1005.0
1003.0
1003.0
1006.0
1005.0
1003.0
1003.0
1000.0
1000.0
1004.0
1009.0
1006.0
1005.0
1001.0
996.0
1001.0
1006.0
1005.0
1007.0
1001.0
1000.0
1001.0
1006.0
1004.0
1002.0
997.0
997.0
1001.0
1004.0
1003.0
998.0
998.0
997.0
1000.0
1004.0
1002.0
1002.0
998.0
997.0
1003.0
1000.0
1002.0
1000.0
997.0
998.0
997.0
997.0
1000.0
1001.0
999.0
998.0
1000.0
1001.0
1000.0
1001.0
996.0
997.0
999.0
1002.0
1002.0
1000.0
998.0
1000.0
1003.0
1002.0
1000.0
1000.0
998.0
999.0
1000.0
1003.0
1002.0
999.0
996.0
995.0
996.0
1000.0
1001.0
1000.0
996.0
996.0
999.0
1003.0
999.0
997.0
995.0
999.0
1003.0
1006.0
1003.0
998.0
997.0
998.0
999.0
1002.0
999.0
999.0
1000.0
1001.0
1006.0
1006.0
1006.0
1005.0
1006.0
1008.0
1010.0
1011.0
1012.0
1012.0
1008.0
1008.0
1012.0
1014.0
1011.0
1010.0
1007.0
1007.0
1010.0
1014.0
1012.0
1009.0
1010.0
1013.0
1014.0
1014.0
1014.0
1010.0
1007.0
1002.0
1005.0
1006.0
1002.0
997.0
995.0
999.0
1002.0
1006.0
1004.0
1002.0
996.0
997.0
996.0
1000.0
1000.0
1000.0
1000.0
996.0
1001.0
1004.0
1001.0
1000.0
999.0
998.0
1003.0
1002.0
1003.0
1002.0
1006.0
1011.0
1012.0
1016.0
1019.0
1023.0
1026.0
1034.0
1051.0
1070.0
1088.0
1111.0
1140.0
1176.0
1222.0
1262.0
1299.0
1335.0
1369.0
1409.0
1453.0
1484.0
1500.0
1483.0
1436.0
1355.0
1258.0
1174.0
1105.0
1056.0
1031.0
1024.0
1020.0
1018.0
1013.0
1010.0
1004.0
997.0
989.0
986.0
982.0
981.0
974.0
974.0
972.0
972.0
972.0
971.0
966.0
969.0
972.0
970.0
968.0
966.0
959.0
962.0
964.0
967.0
965.0
964.0
960.0
960.0
961.0
962.0
962.0
958.0
954.0
955.0
956.0
960.0
957.0
961.0
958.0
959.0
959.0
956.0
956.0
955.0
953.0
955.0
955.0
960.0
956.0
954.0
950.0
951.0
953.0
954.0
956.0
953.0
952.0
951.0
953.0
954.0
953.0
952.0
950.0
949.0
953.0
954.0
954.0
955.0
953.0
951.0
957.0
961.0
961.0
961.0
961.0
962.0
965.0
971.0
975.0
974.0
976.0
981.0
988.0
992.0
995.0
998.0
999.0
1008.0
1013.0
1021.0
1021.0
1026.0
1029.0
1029.0
1031.0
1035.0
1034.0
1032.0
1031.0
1032.0
1032.0
1033.0
1030.0
1027.0
1021.0
1018.0
1022.0
1022.0
1021.0
1017.0
1011.0
1010.0
1015.0
1014.0
1013.0
1011.0
1005.0
1007.0
1010.0
1013.0
1014.0
1011.0
1010.0
1009.0
1011.0
1012.0
1013.0
1010.0
1004.0
1004.0
1003.0
1009.0
1012.0
1010.0
1007.0
1007.0
1007.0
1010.0
1008.0
1005.0
1004.0
1005.0
1008.0
1007.0
1004.0
1004.0
1001.0
1002.0
1006.0
1007.0
1008.0
1003.0
1002.0
1001.0
1002.0
1005.0
1004.0
1000.0
996.0
997.0
999.0
1002.0
1002.0
1004.0
1002.0
1003.0
1006.0
1006.0
1006.0
1002.0
998.0
998.0
1002.0
1005.0
1006.0
1006.0
1002.0
1003.0
1001.0
1003.0
1001.0
1001.0
999.0
1001.0
1002.0
1004.0
1004.0
999.0
997.0
998.0
1001.0
1004.0
1002.0
998.0
995.0
995.0
999.0
1001.0
999.0
998.0
995.0
994.0
997.0
997.0
999.0
997.0
997.0
999.0
999.0
1001.0
1000.0
998.0
994.0
995.0
998.0
1001.0
999.0
999.0
997.0
997.0
1001.0
1002.0
1001.0
997.0
993.0
990.0
995.0
999.0
999.0
997.0
993.0
994.0
997.0
1001.0
1000.0
1001.0
995.0
995.0
999.0
1002.0
1001.0
999.0
995.0
1000.0
998.0
1002.0
1000.0
999.0
997.0
1000.0
1003.0
1003.0
1002.0
1001.0
1000.0
1000.0
1003.0
1004.0
1006.0
1004.0
1000.0
1001.0
1005.0
1011.0
1010.0
1009.0
1005.0
1008.0
1009.0
1014.0
1015.0
1015.0
1012.0
1016.0
1018.0
1019.0
1020.0
1020.0
1019.0
1016.0
1020.0
1019.0
1016.0
1012.0
1009.0
1011.0
1012.0
1016.0
1020.0
1018.0
1016.0
1017.0
1018.0
1020.0
1017.0
1017.0
1011.0
1009.0
1009.0
1010.0
1007.0
1005.0
1003.0
1006.0
1007.0
1010.0
1009.0
1008.0
1008.0
1008.0
1010.0
1009.0
1008.0
1007.0
1003.0
1005.0
1008.0
1011.0
1010.0
1008.0
1005.0
1004.0
1007.0
1011.0
1012.0
1009.0
1005.0
1005.0
1006.0
1013.0
1012.0
1014.0
1010.0
1013.0
1016.0
1023.0
1026.0
1033.0
1039.0
1051.0
1071.0
1083.0
1096.0
1113.0
1134.0
1164.0
1200.0
1240.0
1273.0
1307.0
1337.0
1367.0
1403.0
1444.0
1475.0
1487.0
1477.0
1444.0
1386.0
1305.0
1218.0
1148.0
1096.0
1064.0
1040.0
1031.0
1024.0
1017.0
1012.0
1011.0
1010.0
1008.0
1004.0
998.0
990.0
986.0
986.0
987.0
985.0
981.0
976.0
978.0
977.0
979.0
979.0
977.0
974.0
975.0
978.0
978.0
974.0
969.0
967.0
967.0
970.0
973.0
971.0
971.0
967.0
969.0
970.0
971.0
968.0
966.0
961.0
963.0
965.0
970.0
970.0
967.0
963.0
963.0
962.0
965.0
966.0
964.0
961.0
960.0
961.0
962.0
961.0
961.0
959.0
960.0
964.0
961.0
962.0
959.0
958.0
958.0
960.0
961.0
961.0
960.0
959.0
958.0
959.0
963.0
962.0
959.0
958.0
958.0
962.0
964.0
965.0
964.0
960.0
964.0
967.0
969.0
970.0
970.0
971.0
975.0
982.0
987.0
987.0
989.0
992.0
993.0
1000.0
1006.0
1007.0
1011.0
1014.0
1020.0
1027.0
1030.0
1032.0
1033.0
1032.0
1034.0
1038.0
1041.0
1040.0
1037.0
1033.0
1033.0
1036.0
1038.0
1035.0
1030.0
1028.0
1026.0
1026.0
1028.0
1024.0
1022.0
1018.0
1015.0
1015.0
1020.0
1018.0
1016.0
1015.0
1013.0
1011.0
1014.0
1014.0
1012.0
1012.0
1014.0
1014.0
1019.0
1014.0
1012.0
1012.0
1010.0
1012.0
1014.0
1016.0
1012.0
1009.0
1011.0
1014.0
1014.0
1012.0
1009.0
1007.0
1008.0
1009.0
1013.0
1013.0
1010.0
1009.0
1006.0
1010.0
1013.0
1013.0
1010.0
1008.0
1008.0
1010.0
1012.0
1010.0
1007.0
1010.0
1009.0
1012.0
1013.0
1012.0
1010.0
1004.0
1009.0
1006.0
1010.0
1010.0
1008.0
1008.0
1011.0
1017.0
1019.0
1015.0
1011.0
1010.0
1012.0
1012.0
1013.0
1014.0
1012.0
1009.0
1010.0
1015.0
1017.0
1016.0
1013.0
1008.0
1012.0
1014.0
1016.0
1013.0
1012.0
1008.0
1009.0
1012.0
1013.0
1013.0
1010.0
1007.0
1008.0
1009.0
1015.0
1013.0
1011.0
1010.0
1009.0
1013.0
1017.0
1016.0
1011.0
1010.0
1010.0
1012.0
1015.0
1014.0
1009.0
1011.0
1011.0
1015.0
1016.0
1013.0
1010.0
1007.0
1009.0
1010.0
1016.0
1014.0
1011.0
1008.0
1008.0
1010.0
1011.0
1010.0
1010.0
1008.0
1010.0
1012.0
1011.0
1008.0
1009.0
1006.0
1007.0
1008.0
1013.0
1011.0
1009.0
1007.0
1006.0
1011.0
1009.0
1006.0
1004.0
1004.0
1007.0
1011.0
1014.0
1013.0
1009.0
1005.0
1007.0
1010.0
1014.0
1016.0
1019.0
1021.0
1027.0
1039.0
1051.0
1063.0
1080.0
1099.0
1118.0
1130.0
1136.0
1128.0
1110.0
1090.0
1054.0
1006.0
937.0
850.0
753.0
661.0
600.0
576.0
572.0
551.0
551.0
553.0
567.0
594.0
620.0
657.0
693.0
732.0
768.0
796.0
818.0
836.0
846.0
857.0
871.0
889.0
903.0
913.0
922.0
930.0
942.0
953.0
967.0
980.0
992.0
1000.0
1009.0
1021.0
1032.0
1039.0
1046.0
1049.0
1054.0
1057.0
1064.0
1063.0
1062.0
1062.0
1066.0
1070.0
1075.0
1074.0
1076.0
1076.0
1078.0
1080.0
1088.0
1086.0
1085.0
1088.0
1092.0
1098.0
1101.0
1101.0
1097.0
1099.0
1102.0
1106.0
1112.0
1111.0
1115.0
1111.0
1115.0
1119.0
1124.0
1127.0
1129.0
1132.0
1137.0
1145.0
1151.0
1152.0
1156.0
1161.0
1168.0
1177.0
1181.0
1187.0
1189.0
1195.0
1201.0
1211.0
1222.0
1229.0
1234.0
1238.0
1245.0
1257.0
1264.0
1269.0
1273.0
1277.0
1282.0
1292.0
1299.0
1299.0
1298.0
1297.0
1297.0
1296.0
1297.0
1292.0
1288.0
1279.0
1277.0
1270.0
1269.0
1259.0
1249.0
1238.0
1228.0
1219.0
1212.0
1201.0
1189.0
1177.0
1171.0
1169.0
1163.0
1150.0
1137.0
1126.0
1119.0
1111.0
1106.0
1096.0
1085.0
1077.0
1075.0
1069.0
1068.0
1062.0
1053.0
1047.0
1042.0
1044.0
1042.0
1039.0
1034.0
1030.0
1030.0
1028.0
1031.0
1024.0
1023.0
1019.0
1020.0
1023.0
1025.0
1021.0
1018.0
1015.0
1018.0
1020.0
1021.0
1020.0
1019.0
1014.0
1016.0
1017.0
1019.0
1017.0
1016.0
1011.0
1009.0
1013.0
1017.0
1017.0
1012.0
1011.0
1008.0
1012.0
1016.0
1012.0
1011.0
1010.0
1011.0
1011.0
1010.0
1010.0
1006.0
1006.0
1003.0
1006.0
1010.0
1008.0
1006.0
1000.0
1000.0
1001.0
1005.0
1003.0
1002.0
997.0
997.0
1001.0
1008.0
1006.0
1005.0
998.0
1001.0
1003.0
1004.0
1002.0
999.0
997.0
995.0
1000.0
1002.0
1001.0
996.0
995.0
993.0
996.0
1000.0
998.0
997.0
994.0
995.0
999.0
1001.0
997.0
992.0
994.0
994.0
999.0
999.0
995.0
995.0
992.0
994.0
997.0
999.0
998.0
995.0
995.0
995.0
995.0
995.0
995.0
993.0
991.0
993.0
998.0
998.0
998.0
993.0
991.0
993.0
997.0
997.0
997.0
994.0
994.0
996.0
996.0
997.0
998.0
993.0
993.0
993.0
996.0
999.0
999.0
998.0
996.0
994.0
995.0
993.0
995.0
994.0
993.0
995.0
997.0
997.0
997.0
994.0
991.0
993.0
998.0
998.0
997.0
991.0
991.0
995.0
995.0
1000.0
997.0
996.0
991.0
996.0
995.0
998.0
998.0
995.0
992.0
995.0
994.0
999.0
997.0
996.0
994.0
995.0
995.0
999.0
997.0
996.0
993.0
991.0
995.0
997.0
997.0
994.0
993.0
995.0
998.0
1004.0
1000.0
995.0
991.0
992.0
995.0
998.0
999.0
995.0
992.0
994.0
997.0
999.0
996.0
996.0
996.0
1001.0
1001.0
1000.0
996.0
990.0
991.0
993.0
1001.0
1004.0
1000.0
998.0
994.0
996.0
999.0
1001.0
998.0
997.0
997.0
997.0
1002.0
1000.0
1002.0
1000.0
997.0
997.0
1000.0
1001.0
1001.0
997.0
997.0
999.0
1001.0
1001.0
1000.0
998.0
995.0
995.0
999.0
1000.0
1001.0
997.0
996.0
996.0
1003.0
1005.0
1003.0
999.0
998.0
997.0
999.0
1003.0
1002.0
998.0
995.0
995.0
999.0
1002.0
1003.0
1003.0
1005.0
1003.0
1009.0
1011.0
1011.0
1007.0
1007.0
1006.0
1012.0
1015.0
1013.0
1012.0
1010.0
1010.0
1011.0
1015.0
1013.0
1009.0
1006.0
1007.0
1013.0
1014.0
1010.0
1011.0
1008.0
1010.0
1013.0
1016.0
1016.0
1009.0
1008.0
1009.0
1007.0
1008.0
1002.0
998.0
997.0
1000.0
1003.0
1004.0
1006.0
1001.0
999.0
1001.0
1003.0
1005.0
1002.0
999.0
996.0
995.0
998.0
1004.0
1003.0
1001.0
999.0
1000.0
1001.0
1005.0
1006.0
1003.0
1001.0
1003.0
1005.0
1007.0
1006.0
1006.0
1008.0
1013.0
1021.0
1028.0
1034.0
1042.0
1054.0
1068.0
1089.0
1113.0
1142.0
1173.0
1208.0
1247.0
1287.0
1325.0
1362.0
1400.0
1436.0
1467.0
1474.0
1451.0
1387.0
1287.0
1184.0
1111.0
1063.0
1038.0
1028.0
1023.0
1016.0
1013.0
1011.0
1009.0
1005.0
999.0
993.0
990.0
988.0
986.0
988.0
984.0
980.0
979.0
979.0
980.0
978.0
977.0
977.0
977.0
979.0
980.0
979.0
972.0
971.0
967.0
969.0
969.0
966.0
967.0
967.0
969.0
972.0
973.0
971.0
969.0
965.0
963.0
966.0
967.0
965.0
962.0
963.0
963.0
965.0
966.0
967.0
966.0
963.0
962.0
965.0
968.0
964.0
962.0
960.0
961.0
962.0
962.0
963.0
961.0
961.0
963.0
964.0
963.0
964.0
960.0
959.0
956.0
959.0
964.0
965.0
966.0
962.0
963.0
965.0
966.0
963.0
963.0
964.0
965.0
969.0
970.0
971.0
969.0
969.0
972.0
976.0
984.0
984.0
982.0
986.0
988.0
991.0
996.0
998.0
1000.0
1002.0
1004.0
1011.0
1017.0
1022.0
1023.0
1023.0
1028.0
1035.0
1038.0
1037.0
1036.0
1037.0
1037.0
1039.0
1043.0
1042.0
1037.0
1034.0
1034.0
1035.0
1035.0
1030.0
1029.0
1026.0
1026.0
1028.0
1026.0
1022.0
1019.0
1016.0
1015.0
1018.0
1018.0
1022.0
1022.0
1020.0
1018.0
1018.0
1020.0
1018.0
1019.0
1016.0
1018.0
1018.0
1019.0
1018.0
1015.0
1013.0
1013.0
1013.0
1017.0
1015.0
1013.0
1013.0
1015.0
1018.0
1018.0
1017.0
1013.0
1010.0
1011.0
1013.0
1017.0
1014.0
1012.0
1011.0
1014.0
1017.0
1017.0
1018.0
1016.0
1014.0
1016.0
1016.0
1017.0
1015.0
1011.0
1008.0
1013.0
1015.0
1019.0
1016.0
1012.0
1010.0
1013.0
1016.0
1019.0
1015.0
1012.0
1010.0
1011.0
1014.0
1014.0
1012.0
1012.0
1013.0
1013.0
1014.0
1016.0
1012.0
1009.0
1011.0
1010.0
1013.0
1014.0
1013.0
1008.0
1007.0
1010.0
1011.0
1012.0
1011.0
1007.0
1009.0
1008.0
1010.0
1014.0
1014.0
1008.0
1008.0
1007.0
1010.0
1012.0
1010.0
1010.0
1005.0
1007.0
1007.0
1011.0
1008.0
1008.0
1004.0
1006.0
1006.0
1012.0
1009.0
1006.0
1001.0
1000.0
1005.0
1010.0
1012.0
1007.0
1004.0
1003.0
1005.0
1009.0
1009.0
1006.0
1003.0
1007.0
1010.0
1010.0
1008.0
1007.0
1005.0
1010.0
1009.0
1009.0
1007.0
1003.0
1002.0
1005.0
1008.0
1011.0
1007.0
1006.0
1004.0
1005.0
1006.0
1007.0
1008.0
1005.0
1007.0
1009.0
1008.0
1009.0
1005.0
1003.0
1000.0
1002.0
1005.0
1008.0
1011.0
1006.0
1006.0
1011.0
1016.0
1013.0
1015.0
1011.0
1011.0
1015.0
1017.0
1017.0
1019.0
1016.0
1018.0
1019.0
1021.0
1026.0
1022.0
1016.0
1012.0
1013.0
1013.0
1013.0
1014.0
1012.0
1013.0
1013.0
1016.0
1018.0
1018.0
1014.0
1012.0
1015.0
1016.0
1018.0
1016.0
1011.0
1007.0
1004.0
1008.0
1010.0
1007.0
1007.0
1007.0
1008.0
1008.0
1008.0
1009.0
1006.0
1007.0
1004.0
1007.0
1010.0
1009.0
1007.0
1007.0
1008.0
1011.0
1011.0
1007.0
1005.0
999.0
1002.0
1008.0
1010.0
1009.0
1006.0
1005.0
1010.0
1011.0
1016.0
1013.0
1012.0
1011.0
1017.0
1026.0
1034.0
1042.0
1050.0
1063.0
1079.0
1099.0
1127.0
1155.0
1193.0
1230.0
1269.0
1306.0
1345.0
1381.0
1419.0
1451.0
1467.0
1459.0
1412.0
1326.0
1218.0
1130.0
1072.0
1044.0
1030.0
1022.0
1019.0
1017.0
1015.0
1014.0
1011.0
1007.0
1000.0
996.0
994.0
993.0
991.0
989.0
987.0
985.0
983.0
985.0
988.0
987.0
986.0
981.0
981.0
983.0
981.0
978.0
979.0
976.0
981.0
984.0
979.0
976.0
973.0
972.0
975.0
978.0
979.0
978.0
974.0
971.0
971.0
974.0
976.0
974.0
971.0
969.0
970.0
974.0
975.0
976.0
970.0
967.0
971.0
971.0
973.0
974.0
971.0
969.0
970.0
973.0
975.0
977.0
973.0
971.0
971.0
972.0
974.0
973.0
970.0
967.0
969.0
974.0
974.0
974.0
971.0
972.0
973.0
976.0
977.0
978.0
977.0
979.0
980.0
983.0
987.0
990.0
988.0
990.0
995.0
998.0
1004.0
1006.0
1007.0
1009.0
1015.0
1024.0
1028.0
1027.0
1027.0
1032.0
1034.0
1040.0
1041.0
1041.0
1039.0
1034.0
1037.0
1038.0
1037.0
1037.0
1031.0
1030.0
1031.0
1033.0
1031.0
1027.0
1024.0
1019.0
1019.0
1021.0
1023.0
1024.0
1018.0
1015.0
1016.0
1018.0
1019.0
1018.0
1016.0
1015.0
1016.0
1018.0
1016.0
1016.0
1015.0
1013.0
1015.0
1018.0
1016.0
1017.0
1012.0
1012.0
1013.0
1015.0
1014.0
1012.0
1007.0
1010.0
1010.0
1014.0
1016.0
1014.0
1009.0
1006.0
1008.0
1011.0
1014.0
1015.0
1009.0
1008.0
1006.0
1011.0
1010.0
1008.0
1008.0
1007.0
1008.0
1011.0
1009.0
1006.0
1007.0
1009.0
1008.0
1012.0
1011.0
1008.0
1007.0
1007.0
1009.0
1009.0
1009.0
1007.0
1006.0
1007.0
1008.0
1011.0
1010.0
1008.0
1007.0
1005.0
1006.0
1011.0
1015.0
1008.0
1004.0
1004.0
1007.0
1011.0
1011.0
1009.0
1006.0
1005.0
1003.0
1004.0
1005.0
1003.0
1004.0
1004.0
1007.0
1007.0
1008.0
1006.0
1004.0
1002.0
1004.0
1008.0
1010.0
1008.0
1003.0
1001.0
1001.0
1005.0
1006.0
1006.0
1003.0
1000.0
1000.0
1002.0
1004.0
1002.0
1000.0
998.0
1000.0
1005.0
1008.0
1003.0
1000.0
998.0
1001.0
1001.0
1004.0
1002.0
999.0
997.0
999.0
1003.0
1005.0
1005.0
1002.0
1001.0
1001.0
1003.0
1001.0
1002.0
1000.0
1000.0
1000.0
1002.0
1001.0
1002.0
997.0
1000.0
1002.0
1003.0
1005.0
1006.0
1002.0
1002.0
1004.0
1005.0
1007.0
1002.0
998.0
997.0
1003.0
1004.0
1007.0
1002.0
1002.0
999.0
1003.0
1006.0
1006.0
1008.0
1004.0
1003.0
1003.0
1006.0
1006.0
1004.0
1008.0
1007.0
1008.0
1010.0
1010.0
1011.0
1010.0
1010.0
1011.0
1016.0
1018.0
1019.0
1018.0
1015.0
1016.0
1017.0
1016.0
1015.0
1015.0
1011.0
1013.0
1014.0
1013.0
1015.0
1012.0
1015.0
1017.0
1018.0
1018.0
1014.0
1012.0
1014.0
1011.0
1013.0
1012.0
1008.0
1006.0
1005.0
1007.0
1009.0
1010.0
1007.0
1005.0
999.0
1004.0
1008.0
1008.0
1008.0
1006.0
1002.0
1005.0
1005.0
1006.0
1005.0
1005.0
1002.0
1007.0
1013.0
1014.0
1011.0
1009.0
1008.0
1009.0
1013.0
1015.0
1022.0
1023.0
1026.0
1032.0
1045.0
1060.0
1071.0
1084.0
1109.0
1140.0
1180.0
1217.0
1253.0
1287.0
1320.0
1363.0
1404.0
1442.0
1467.0
1466.0
1426.0
1341.0
1231.0
1138.0
1075.0
1038.0
1019.0
1018.0
1017.0
1018.0
1014.0
1007.0
1006.0
1007.0
1004.0
1000.0
993.0
988.0
986.0
986.0
986.0
986.0
985.0
980.0
979.0
981.0
982.0
984.0
982.0
977.0
974.0
973.0
978.0
980.0
980.0
977.0
972.0
976.0
978.0
979.0
979.0
976.0
974.0
975.0
977.0
978.0
975.0
970.0
969.0
970.0
974.0
975.0
971.0
970.0
967.0
970.0
973.0
971.0
970.0
969.0
970.0
970.0
974.0
974.0
973.0
969.0
968.0
972.0
973.0
974.0
972.0
971.0
967.0
968.0
970.0
974.0
973.0
973.0
970.0
972.0
974.0
977.0
978.0
977.0
977.0
980.0
985.0
990.0
988.0
986.0
985.0
990.0
997.0
1002.0
1006.0
1007.0
1011.0
1014.0
1022.0
1027.0
1028.0
1032.0
1032.0
1036.0
1039.0
1044.0
1043.0
1038.0
1035.0
1039.0
1044.0
1040.0
1039.0
1037.0
1033.0
1034.0
1032.0
1032.0
1027.0
1021.0
1018.0
1021.0
1025.0
1023.0
1022.0
1013.0
1015.0
1015.0
1019.0
1019.0
1015.0
1014.0
1013.0
1015.0
1016.0
1017.0
1015.0
1012.0
1011.0
1013.0
1016.0
1017.0
1015.0
1013.0
1013.0
1012.0
1018.0
1016.0
1010.0
1006.0
1006.0
1011.0
1013.0
1013.0
1011.0
1010.0
1008.0
1008.0
1009.0
1009.0
1009.0
1007.0
1008.0
1008.0
1008.0
1008.0
1008.0
1008.0
1005.0
1007.0
1009.0
1009.0
1011.0
1007.0
1004.0
1007.0
1008.0
1009.0
1008.0
1005.0
1004.0
1004.0
1007.0
1010.0
1007.0
1008.0
1006.0
1010.0
1011.0
1014.0
1010.0
1006.0
1005.0
1007.0
1008.0
1007.0
1006.0
1005.0
1005.0
1010.0
1010.0
1008.0
1009.0
1008.0
1008.0
1008.0
1009.0
1009.0
1008.0
1005.0
1005.0
1004.0
1006.0
1005.0
1003.0
1002.0
1002.0
1006.0
1008.0
1010.0
1006.0
1001.0
998.0
1003.0
1006.0
1006.0
1005.0
998.0
998.0
1003.0
1006.0
1007.0
1005.0
