# Simple Text Format
# Sampling Rate (Hz):= 360.00
# Resolution:= 12
# Labels:= ECG
1009.0
1014.0
1018.0
1016.0
1018.0
1014.0
1014.0
1016.0
1017.0
1018.0
1018.0
1016.0
1013.0
1016.0
1018.0
1019.0
1017.0
1016.0
1013.0
1017.0
1018.0
1022.0
1017.0
1016.0
1015.0
1018.0
1019.0
1020.0
1019.0
1016.0
1011.0
1013.0
1017.0
1017.0
1015.0
1015.0
1011.0
1014.0
1014.0
1017.0
1015.0
1013.0
1012.0
1015.0
1016.0
1018.0
1017.0
1013.0
1010.0
1013.0
1015.0
1017.0
1013.0
1009.0
1008.0
1010.0
1017.0
1014.0
1013.0
1010.0
1011.0
1009.0
1013.0
1017.0
1012.0
1012.0
1009.0
1011.0
1011.0
1013.0
1013.0
1009.0
1010.0
1011.0
1014.0
1016.0
1014.0
1009.0
1009.0
1011.0
1012.0
1013.0
1013.0
1009.0
1010.0
1011.0
1014.0
1013.0
1012.0
1010.0
1008.0
1009.0
1013.0
1016.0
1012.0
1009.0
1009.0
1010.0
1013.0
1015.0
1014.0
1010.0
1010.0
1010.0
1016.0
1012.0
1011.0
1010.0
1012.0
1013.0
1015.0
1015.0
1012.0
1013.0
1008.0
1013.0
1012.0
1016.0
1016.0
1014.0
1013.0
1016.0
1018.0
1019.0
1020.0
1018.0
1020.0
1024.0
1024.0
1027.0
1025.0
1022.0
1022.0
1025.0
1028.0
1030.0
1027.0
1023.0
1020.0
1020.0
1023.0
1024.0
1020.0
1018.0
1019.0
1021.0
1021.0
1026.0
1024.0
1023.0
1022.0
1023.0
1024.0
1026.0
1019.0
1015.0
1012.0
1011.0
1017.0
1017.0
1018.0
1012.0
1013.0
1014.0
1015.0
1018.0
1016.0
1015.0
1011.0
1014.0
1018.0
1017.0
1015.0
1011.0
1011.0
1011.0
1016.0
1015.0
1015.0
1011.0
1010.0
1013.0
1015.0
1017.0
1017.0
1014.0
1013.0
1016.0
1019.0
1022.0
1022.0
1026.0
1031.0
1042.0
1053.0
1065.0
1073.0
1078.0
1097.0
1123.0
1154.0
1184.0
1209.0
1238.0
1268.0
1311.0
1356.0
1398.0
1414.0
1397.0
1349.0
1270.0
1181.0
1104.0
1049.0
1019.0
1003.0
1007.0
1013.0
1017.0
1013.0
1009.0
1007.0
1008.0
1009.0
1006.0
1000.0
996.0
994.0
993.0
998.0
999.0
997.0
994.0
994.0
994.0
996.0
997.0
997.0
992.0
991.0
994.0
993.0
995.0
991.0
988.0
986.0
986.0
991.0
993.0
989.0
985.0
984.0
984.0
988.0
988.0
985.0
984.0
982.0
983.0
987.0
987.0
985.0
983.0
983.0
985.0
987.0
989.0
988.0
984.0
982.0
985.0
988.0
990.0
989.0
984.0
986.0
987.0
989.0
991.0
990.0
990.0
989.0
992.0
992.0
995.0
991.0
993.0
991.0
994.0
998.0
1002.0
1000.0
1000.0
1001.0
1002.0
1005.0
1009.0
1010.0
1011.0
1012.0
1015.0
1022.0
1022.0
1024.0
1024.0
1027.0
1032.0
1036.0
1040.0
1040.0
1041.0
1045.0
1047.0
1053.0
1058.0
1055.0
1057.0
1057.0
1059.0
1061.0
1060.0
1060.0
1056.0
1054.0
1055.0
1054.0
1052.0
1048.0
1042.0
1040.0
1041.0
1038.0
1039.0
1034.0
1030.0
1028.0
1026.0
1029.0
1029.0
1029.0
1025.0
1023.0
1025.0
1026.0
1024.0
1023.0
1023.0
1021.0
1022.0
1025.0
1026.0
1026.0
1020.0
1018.0
1021.0
1021.0
1024.0
1024.0
1020.0
1021.0
1017.0
1022.0
1022.0
1023.0
1017.0
1016.0
1018.0
1022.0
1019.0
1018.0
1017.0
1016.0
1017.0
1020.0
1021.0
1019.0
1019.0
1015.0
1017.0
1019.0
1020.0
1020.0
1018.0
1016.0
1017.0
1020.0
1022.0
1020.0
1017.0
1018.0
1021.0
1023.0
1024.0
1020.0
1018.0
1018.0
1021.0
1024.0
1027.0
1024.0
1019.0
1017.0
1021.0
1021.0
1024.0
1023.0
1019.0
1019.0
1021.0
1021.0
1021.0
1020.0
1019.0
1018.0
1020.0
1022.0
1021.0
1019.0
1015.0
1014.0
1017.0
1020.0
1021.0
1020.0
1017.0
1014.0
1015.0
1020.0
1020.0
1019.0
1014.0
1016.0
1014.0
1019.0
1018.0
1016.0
1014.0
1016.0
1014.0
1020.0
1020.0
1016.0
1014.0
1013.0
1014.0
1016.0
1018.0
1019.0
1017.0
1015.0
1016.0
1018.0
1018.0
1017.0
1016.0
1016.0
1017.0
1019.0
1020.0
1019.0
1014.0
1015.0
1015.0
1016.0
1019.0
1017.0
1015.0
1014.0
1016.0
1018.0
1018.0
1019.0
1014.0
1016.0
1017.0
1019.0
1019.0
1017.0
1017.0
1015.0
1017.0
1020.0
1021.0
1020.0
1016.0
1015.0
1018.0
1018.0
1021.0
1018.0
1017.0
1014.0
1016.0
1020.0
1021.0
1019.0
1017.0
1016.0
1020.0
1021.0
1021.0
1022.0
1019.0
1018.0
1022.0
1023.0
1025.0
1026.0
1025.0
1026.0
1027.0
1030.0
1034.0
1034.0
1029.0
1028.0
1032.0
1035.0
1034.0
1034.0
1031.0
1027.0
1028.0
1027.0
1028.0
1026.0
1023.0
1025.0
1029.0
1028.0
1032.0
1029.0
1027.0
1028.0
1029.0
1033.0
1030.0
1029.0
1026.0
1024.0
1024.0
1023.0
1021.0
1022.0
1021.0
1021.0
1023.0
1025.0
1024.0
1023.0
1020.0
1019.0
1021.0
1023.0
1024.0
1020.0
1020.0
1017.0
1022.0
1024.0
1024.0
1021.0
1018.0
1018.0
1018.0
1021.0
1021.0
1021.0
1018.0
1018.0
1022.0
1025.0
1025.0
1026.0
1025.0
1027.0
1034.0
1040.0
1047.0
1055.0
1064.0
1073.0
1083.0
1099.0
1117.0
1142.0
1171.0
1198.0
1229.0
1263.0
1292.0
1321.0
1360.0
1402.0
1433.0
1441.0
1418.0
1354.0
1266.0
1175.0
1105.0
1058.0
1033.0
1018.0
1011.0
1012.0
1017.0
1022.0
1019.0
1018.0
1012.0
1011.0
1008.0
1007.0
1006.0
1003.0
999.0
999.0
1000.0
1002.0
1005.0
1001.0
997.0
997.0
1001.0
1003.0
1003.0
1001.0
999.0
999.0
998.0
1002.0
1003.0
999.0
994.0
996.0
999.0
1001.0
999.0
998.0
995.0
993.0
992.0
996.0
998.0
997.0
994.0
993.0
996.0
997.0
998.0
999.0
998.0
995.0
997.0
997.0
998.0
1000.0
992.0
998.0
1000.0
1001.0
1002.0
1002.0
999.0
999.0
1001.0
1005.0
1006.0
1005.0
1002.0
1002.0
1004.0
1006.0
1007.0
1008.0
1007.0
1009.0
1009.0
1015.0
1017.0
1018.0
1016.0
1017.0
1024.0
1027.0
1031.0
1034.0
1033.0
1037.0
1043.0
1045.0
1053.0
1054.0
1055.0
1058.0
1064.0
1069.0
1070.0
1072.0
1071.0
1070.0
1076.0
1076.0
1077.0
1074.0
1071.0
1069.0
1064.0
1066.0
1064.0
1060.0
1056.0
1052.0
1050.0
1050.0
1047.0
1044.0
1038.0
1037.0
1038.0
1040.0
1040.0
1037.0
1034.0
1033.0
1033.0
1035.0
1031.0
1034.0
1030.0
1030.0
1031.0
1035.0
1034.0
1032.0
1031.0
1031.0
1030.0
1033.0
1033.0
1030.0
1029.0
1025.0
1029.0
1031.0
1031.0
1028.0
1026.0
1024.0
1027.0
1026.0
1028.0
1025.0
1024.0
1023.0
1026.0
1027.0
1025.0
1022.0
1022.0
1021.0
1025.0
1028.0
1028.0
1027.0
1025.0
1026.0
1027.0
1030.0
1032.0
1028.0
1027.0
1025.0
1027.0
1031.0
1032.0
1030.0
1027.0
1029.0
1032.0
1037.0
1034.0
1030.0
1030.0
1027.0
1030.0
1032.0
1034.0
1032.0
1029.0
1028.0
1029.0
1033.0
1032.0
1032.0
1029.0
1028.0
1031.0
1032.0
1034.0
1030.0
1028.0
1027.0
1027.0
1030.0
1030.0
1030.0
1027.0
1027.0
1028.0
1029.0
1030.0
1029.0
1025.0
1025.0
1027.0
1029.0
1029.0
1027.0
1026.0
1025.0
1026.0
1031.0
1030.0
1027.0
1024.0
1024.0
1026.0
1028.0
1028.0
1029.0
1025.0
1025.0
1027.0
1027.0
1030.0
1026.0
1024.0
1023.0
1027.0
1029.0
1030.0
1026.0
1024.0
1021.0
1024.0
1025.0
1028.0
1027.0
1026.0
1026.0
1027.0
1027.0
1030.0
1028.0
1025.0
1024.0
1025.0
1027.0
1028.0
1026.0
1024.0
1023.0
1025.0
1029.0
1030.0
1030.0
1024.0
1026.0
1026.0
1029.0
1029.0
1028.0
1027.0
1025.0
1027.0
1026.0
1029.0
1027.0
1024.0
1024.0
1028.0
1033.0
1032.0
1028.0
1027.0
1026.0
1029.0
1032.0
1034.0
1033.0
1033.0
1033.0
1034.0
1036.0
1037.0
1037.0
1036.0
1034.0
1039.0
1042.0
1043.0
1042.0
1036.0
1035.0
1038.0
1038.0
1035.0
1033.0
1029.0
1029.0
1029.0
1036.0
1035.0
1036.0
1035.0
1035.0
1037.0
1038.0
1038.0
1038.0
1033.0
1034.0
1035.0
1033.0
1032.0
1029.0
1027.0
1026.0
1029.0
1032.0
1030.0
1030.0
1027.0
1027.0
1028.0
1031.0
1029.0
1027.0
1025.0
1025.0
1025.0
1027.0
1030.0
1028.0
1026.0
1024.0
1026.0
1029.0
1030.0
1028.0
1026.0
1025.0
1028.0
1031.0
1032.0
1032.0
1033.0
1034.0
1039.0
1046.0
1051.0
1061.0
1069.0
1080.0
1090.0
1103.0
1122.0
1145.0
1171.0
1199.0
1229.0
1259.0
1290.0
1319.0
1353.0
1392.0
1424.0
1429.0
1392.0
1315.0
1215.0
1131.0
1074.0
1043.0
1025.0
1019.0
1020.0
1022.0
1024.0
1025.0
1022.0
1019.0
1016.0
1013.0
1009.0
1010.0
1010.0
1007.0
1001.0
1000.0
1003.0
1007.0
1007.0
1006.0
1002.0
1002.0
1004.0
1004.0
1005.0
1003.0
1000.0
1000.0
1002.0
1005.0
1001.0
1001.0
997.0
995.0
999.0
1001.0
1001.0
998.0
994.0
993.0
995.0
996.0
1000.0
997.0
994.0
993.0
997.0
1001.0
1001.0
998.0
995.0
996.0
999.0
1002.0
1003.0
1001.0
998.0
997.0
999.0
1004.0
1005.0
1004.0
1000.0
1001.0
1003.0
1007.0
1009.0
1007.0
1005.0
1009.0
1012.0
1016.0
1014.0
1018.0
1020.0
1021.0
1025.0
1033.0
1034.0
1036.0
1034.0
1036.0
1045.0
1046.0
1052.0
1054.0
1050.0
1055.0
1058.0
1061.0
1065.0
1065.0
1062.0
1062.0
1062.0
1064.0
1061.0
1060.0
1057.0
1055.0
1055.0
1054.0
1053.0
1048.0
1046.0
1043.0
1043.0
1043.0
1042.0
1039.0
1037.0
1034.0
1035.0
1038.0
1035.0
1033.0
1033.0
1028.0
1031.0
1030.0
1032.0
1029.0
1026.0
1026.0
1028.0
1031.0
1029.0
1029.0
1024.0
1024.0
1025.0
1025.0
1028.0
1024.0
1021.0
1023.0
1024.0
1028.0
1027.0
1023.0
1020.0
1019.0
1021.0
1025.0
1027.0
1024.0
1021.0
1022.0
1021.0
1026.0
1023.0
1024.0
1020.0
1021.0
1024.0
1027.0
1025.0
1025.0
1020.0
1020.0
1022.0
1024.0
1026.0
1027.0
1022.0
1024.0
1025.0
1029.0
1027.0
1027.0
1024.0
1026.0
1025.0
1027.0
1028.0
1024.0
1023.0
1022.0
1025.0
1028.0
1027.0
1026.0
1023.0
1024.0
1026.0
1031.0
1030.0
1030.0
1029.0
1035.0
1041.0
1052.0
1068.0
1083.0
1104.0
1127.0
1149.0
1158.0
1156.0
1141.0
1118.0
1080.0
1026.0
955.0
878.0
788.0
708.0
654.0
633.0
628.0
622.0
615.0
619.0
626.0
640.0
666.0
694.0
722.0
750.0
778.0
806.0
828.0
842.0
855.0
866.0
886.0
901.0
914.0
922.0
929.0
930.0
941.0
955.0
969.0
983.0
992.0
1000.0
1011.0
1022.0
1033.0
1040.0
1046.0
1048.0
1052.0
1055.0
1059.0
1063.0
1063.0
1064.0
1064.0
1071.0
1077.0
1077.0
1079.0
1074.0
1075.0
1075.0
1083.0
1083.0
1087.0
1084.0
1088.0
1091.0
1099.0
1099.0
1103.0
1103.0
1106.0
1110.0
1115.0
1115.0
1115.0
1117.0
1121.0
1126.0
1132.0
1135.0
1138.0
1140.0
1145.0
1151.0
1159.0
1163.0
1169.0
1173.0
1179.0
1189.0
1197.0
1204.0
1209.0
1213.0
1220.0
1228.0
1238.0
1243.0
1251.0
1254.0
1260.0
1269.0
1280.0
1282.0
1285.0
1285.0
1289.0
1293.0
1294.0
1295.0
1289.0
1285.0
1283.0
1281.0
1277.0
1269.0
1260.0
1253.0
1244.0
1238.0
1235.0
1227.0
1218.0
1206.0
1199.0
1191.0
1187.0
1177.0
1166.0
1158.0
1148.0
1142.0
1136.0
1127.0
1119.0
1107.0
1103.0
1098.0
1093.0
1087.0
1078.0
1071.0
1064.0
1063.0
1063.0
1058.0
1054.0
1047.0
1044.0
1045.0
1046.0
1041.0
1036.0
1034.0
1033.0
1034.0
1034.0
1033.0
1032.0
1027.0
1024.0
1026.0
1027.0
1028.0
1027.0
1024.0
1023.0
1023.0
1025.0
1024.0
1025.0
1022.0
1021.0
1021.0
1023.0
1025.0
1022.0
1017.0
1016.0
1019.0
1021.0
1020.0
1018.0
1015.0
1014.0
1016.0
1017.0
1015.0
1015.0
1011.0
1012.0
1013.0
1015.0
1014.0
1012.0
1009.0
1007.0
1009.0
1013.0
1012.0
1010.0
1006.0
1006.0
1008.0
1012.0
1007.0
1007.0
1004.0
1006.0
1004.0
1008.0
1008.0
1007.0
1004.0
1000.0
1005.0
1007.0
1005.0
1002.0
1001.0
1001.0
1006.0
1005.0
1004.0
1002.0
1004.0
1002.0
1002.0
1003.0
1003.0
1002.0
999.0
1001.0
1001.0
1005.0
1003.0
1003.0
998.0
998.0
1001.0
1004.0
1003.0
1004.0
1001.0
1001.0
1001.0
1003.0
1004.0
1003.0
999.0
1000.0
1000.0
1002.0
1001.0
1000.0
998.0
997.0
999.0
1000.0
1001.0
999.0
998.0
998.0
999.0
1001.0
1001.0
1001.0
998.0
998.0
1002.0
1004.0
1001.0
1001.0
997.0
1000.0
1001.0
1003.0
1003.0
1000.0
998.0
999.0
998.0
1005.0
1002.0
1002.0
998.0
999.0
1004.0
1003.0
1003.0
1001.0
999.0
1001.0
1003.0
1006.0
1006.0
1004.0
1002.0
1000.0
1001.0
1004.0
1005.0
1004.0
1002.0
1003.0
1005.0
1006.0
1007.0
1003.0
1001.0
1002.0
1004.0
1007.0
1007.0
1006.0
1001.0
1003.0
1003.0
1007.0
1008.0
1007.0
1003.0
1005.0
1007.0
1010.0
1006.0
1006.0
1005.0
1007.0
1007.0
1010.0
1009.0
1010.0
1006.0
1007.0
1009.0
1010.0
1011.0
1008.0
1008.0
1007.0
1008.0
1010.0
1009.0
1007.0
1006.0
1007.0
1007.0
1015.0
1014.0
1010.0
1007.0
1009.0
1008.0
1014.0
1012.0
1009.0
1008.0
1008.0
1010.0
1013.0
1010.0
1011.0
1010.0
1009.0
1011.0
1012.0
1012.0
1012.0
1008.0
1012.0
1013.0
1014.0
1014.0
1013.0
1009.0
1010.0
1011.0
1015.0
1013.0
1014.0
1012.0
1013.0
1013.0
1016.0
1013.0
1014.0
1011.0
1012.0
1016.0
1014.0
1014.0
1015.0
1011.0
1011.0
1014.0
1018.0
1018.0
1015.0
1014.0
1015.0
1013.0
1017.0
1018.0
1016.0
1014.0
1012.0
1017.0
1015.0
1017.0
1014.0
1015.0
1016.0
1019.0
1020.0
1019.0
1016.0
1015.0
1015.0
1014.0
1019.0
1018.0
1016.0
1015.0
1014.0
1017.0
1020.0
1017.0
1017.0
1016.0
1017.0
1019.0
1021.0
1021.0
1018.0
1016.0
1015.0
1018.0
1022.0
1019.0
1018.0
1016.0
1015.0
1017.0
1021.0
1021.0
1019.0
1018.0
1017.0
1020.0
1023.0
1022.0
1019.0
1017.0
1018.0
1021.0
1025.0
1023.0
1022.0
1017.0
1016.0
1020.0
1023.0
1022.0
1021.0
1020.0
1018.0
1019.0
1023.0
1021.0
1022.0
1019.0
1018.0
1021.0
1026.0
1024.0
1022.0
1019.0
1021.0
1023.0
1026.0
1029.0
1025.0
1025.0
1024.0
1028.0
1032.0
1031.0
1029.0
1028.0
1030.0
1034.0
1038.0
1037.0
1034.0
1031.0
1034.0
1036.0
1036.0
1035.0
1031.0
1027.0
1025.0
1028.0
1032.0
1031.0
1029.0
1028.0
1030.0
1030.0
1034.0
1033.0
1032.0
1031.0
1031.0
1034.0
1034.0
1035.0
1029.0
1028.0
1023.0
1023.0
1026.0
1027.0
1025.0
1025.0
1025.0
1026.0
1026.0
1025.0
1024.0
1018.0
1021.0
1023.0
1027.0
1024.0
1023.0
1022.0
1022.0
1023.0
1025.0
1026.0
1023.0
1022.0
1020.0
1023.0
1027.0
1023.0
1023.0
1023.0
1024.0
1028.0
1034.0
1034.0
1038.0
1037.0
1044.0
1055.0
1068.0
1079.0
1083.0
1089.0
1105.0
1126.0
1154.0
1183.0
1212.0
1239.0
1271.0
1306.0
1342.0
1386.0
1420.0
1441.0
1444.0
1419.0
1357.0
1265.0
1173.0
1100.0
1059.0
1033.0
1032.0
1032.0
1031.0
1027.0
1026.0
1025.0
1024.0
1022.0
1015.0
1010.0
1009.0
1009.0
1009.0
1008.0
1007.0
1002.0
1000.0
1001.0
1004.0
1003.0
1001.0
1001.0
998.0
1000.0
1002.0
999.0
1000.0
999.0
996.0
1000.0
1002.0
1000.0
998.0
995.0
995.0
997.0
1001.0
999.0
998.0
994.0
996.0
997.0
1000.0
998.0
994.0
991.0
993.0
996.0
998.0
1000.0
996.0
992.0
993.0
997.0
998.0
997.0
996.0
997.0
997.0
1000.0
1000.0
1000.0
998.0
996.0
998.0
998.0
1003.0
1001.0
997.0
996.0
997.0
1000.0
1004.0
1004.0
1004.0
1000.0
1002.0
1004.0
1007.0
1006.0
1007.0
1006.0
1009.0
1011.0
1014.0
1015.0
1013.0
1012.0
1015.0
1016.0
1021.0
1023.0
1023.0
1022.0
1027.0
1029.0
1033.0
1037.0
1035.0
1037.0
1038.0
1046.0
1050.0
1052.0
1052.0
1052.0
1057.0
1063.0
1068.0
1067.0
1070.0
1069.0
1067.0
1071.0
1072.0
1072.0
1070.0
1069.0
1069.0
1069.0
1070.0
1070.0
1065.0
1059.0
1060.0
1061.0
1061.0
1059.0
1055.0
1052.0
1049.0
1048.0
1050.0
1047.0
1047.0
1043.0
1041.0
1043.0
1041.0
1040.0
1037.0
1033.0
1036.0
1038.0
1042.0
1041.0
1038.0
1035.0
1035.0
1035.0
1037.0
1035.0
1034.0
1028.0
1031.0
1036.0
1036.0
1036.0
1033.0
1030.0
1030.0
1033.0
1033.0
1035.0
1034.0
1031.0
1032.0
1032.0
1034.0
1033.0
1030.0
1028.0
1031.0
1033.0
1035.0
1033.0
1031.0
1030.0
1032.0
1033.0
1035.0
1034.0
1035.0
1031.0
1033.0
1034.0
1036.0
1033.0
1032.0
1031.0
1032.0
1036.0
1037.0
1034.0
1032.0
1029.0
1029.0
1034.0
1034.0
1033.0
1032.0
1027.0
1027.0
1029.0
1032.0
1030.0
1027.0
1024.0
1027.0
1030.0
1028.0
1026.0
1026.0
1023.0
1023.0
1024.0
1029.0
1023.0
1025.0
1022.0
1022.0
1025.0
1025.0
1023.0
1021.0
1020.0
1019.0
1022.0
1025.0
1023.0
1022.0
1016.0
1018.0
1020.0
1023.0
1022.0
1020.0
1016.0
1016.0
1019.0
1021.0
1018.0
1016.0
1016.0
1016.0
1020.0
1022.0
1018.0
1019.0
1016.0
1016.0
1021.0
1022.0
1021.0
1018.0
1017.0
1014.0
1020.0
1023.0
1020.0
1019.0
1017.0
1018.0
1019.0
1020.0
1020.0
1016.0
1014.0
1015.0
1019.0
1022.0
1020.0
1017.0
1019.0
1015.0
1018.0
1019.0
1020.0
1017.0
1016.0
1018.0
1021.0
1020.0
1020.0
1017.0
1014.0
1016.0
1017.0
1021.0
1023.0
1018.0
1015.0
1016.0
1018.0
1020.0
1022.0
1018.0
1018.0
1018.0
1021.0
1024.0
1024.0
1023.0
1021.0
1022.0
1025.0
1027.0
1026.0
1026.0
1026.0
1027.0
1031.0
1033.0
1032.0
1030.0
1030.0
1028.0
1031.0
1032.0
1027.0
1023.0
1021.0
1021.0
1025.0
1029.0
1026.0
1025.0
1022.0
1024.0
1027.0
1028.0
1030.0
1027.0
1026.0
1026.0
1027.0
1028.0
1024.0
1019.0
1018.0
1016.0
1019.0
1021.0
1023.0
1019.0
1019.0
1018.0
1020.0
1022.0
1018.0
1018.0
1016.0
1017.0
1018.0
1020.0
1022.0
1019.0
1017.0
1019.0
1019.0
1022.0
1021.0
1019.0
1018.0
1018.0
1020.0
1024.0
1023.0
1021.0
1021.0
1024.0
1029.0
1031.0
1038.0
1041.0
1047.0
1061.0
1072.0
1085.0
1097.0
1114.0
1135.0
1167.0
1200.0
1233.0
1260.0
1288.0
1322.0
1364.0
1406.0
1432.0
1425.0
1377.0
1291.0
1189.0
1105.0
1055.0
1029.0
1016.0
1014.0
1018.0
1019.0
1023.0
1019.0
1017.0
1010.0
1009.0
1007.0
1006.0
1004.0
1002.0
999.0
998.0
1002.0
1003.0
1002.0
1000.0
998.0
998.0
999.0
1002.0
1001.0
997.0
994.0
994.0
995.0
999.0
997.0
995.0
993.0
993.0
996.0
996.0
995.0
991.0
990.0
988.0
991.0
994.0
994.0
992.0
991.0
989.0
992.0
995.0
994.0
991.0
990.0
990.0
994.0
994.0
994.0
993.0
990.0
991.0
993.0
994.0
997.0
993.0
990.0
990.0
994.0
997.0
997.0
996.0
993.0
994.0
996.0
998.0
998.0
996.0
997.0
1000.0
1002.0
1006.0
1006.0
1004.0
1003.0
1009.0
1011.0
1014.0
1017.0
1017.0
1017.0
1019.0
1023.0
1029.0
1029.0
1030.0
1032.0
1038.0
1040.0
1045.0
1045.0
1044.0
1044.0
1046.0
1048.0
1050.0
1049.0
1046.0
1045.0
1043.0
1044.0
1045.0
1045.0
1042.0
1034.0
1037.0
1037.0
1039.0
1036.0
1031.0
1028.0
1028.0
1029.0
1034.0
1032.0
1027.0
1024.0
1026.0
1026.0
1026.0
1026.0
1023.0
1024.0
1021.0
1025.0
1025.0
1025.0
1020.0
1019.0
1021.0
1024.0
1026.0
1024.0
1018.0
1018.0
1019.0
1018.0
1022.0
1023.0
1021.0
1017.0
1017.0
1019.0
1021.0
1021.0
1018.0
1017.0
1019.0
1019.0
1022.0
1023.0
1020.0
1019.0
1023.0
1023.0
1027.0
1025.0
1024.0
1021.0
1022.0
1025.0
1026.0
1026.0
1023.0
1023.0
1025.0
1026.0
1029.0
1026.0
1026.0
1024.0
1024.0
1026.0
1026.0
1027.0
1024.0
1023.0
1023.0
1025.0
1025.0
1027.0
1022.0
1021.0
1021.0
1022.0
1025.0
1024.0
1021.0
1017.0
1019.0
1022.0
1024.0
1021.0
1019.0
1017.0
1018.0
1020.0
1022.0
1022.0
1018.0
1017.0
1017.0
1021.0
1023.0
1021.0
1020.0
1017.0
1015.0
1020.0
1020.0
1022.0
1019.0
1015.0
1016.0
1018.0
1020.0
1022.0
1018.0
1015.0
1015.0
1016.0
1019.0
1020.0
1018.0
1015.0
1015.0
1019.0
1022.0
1019.0
1019.0
1017.0
1017.0
1021.0
1022.0
1021.0
1019.0
1016.0
1019.0
1020.0
1022.0
1021.0
1018.0
1017.0
1017.0
1019.0
1023.0
1021.0
1019.0
1015.0
1019.0
1020.0
1024.0
1020.0
1019.0
1019.0
1018.0
1020.0
1023.0
1023.0
1021.0
1018.0
1018.0
1018.0
1023.0
1022.0
1021.0
1019.0
1020.0
1022.0
1024.0
1023.0
1020.0
1019.0
1017.0
1020.0
1026.0
1024.0
1022.0
1020.0
1021.0
1025.0
1027.0
1027.0
1026.0
1027.0
1028.0
1031.0
1033.0
1031.0
1032.0
1032.0
1033.0
1034.0
1037.0
1038.0
1032.0
1029.0
1030.0
1030.0
1031.0
1030.0
1027.0
1023.0
1026.0
1028.0
1031.0
1033.0
1030.0
1029.0
1029.0
1033.0
1036.0
1033.0
1032.0
1025.0
1024.0
1025.0
1024.0
1023.0
1022.0
1020.0
1020.0
1023.0
1028.0
1024.0
1021.0
1023.0
1021.0
1022.0
1024.0
1023.0
1021.0
1021.0
1022.0
1023.0
1024.0
1023.0
1020.0
1018.0
1020.0
1023.0
1024.0
1023.0
1020.0
1019.0
1022.0
1024.0
1029.0
1031.0
1033.0
1033.0
1042.0
1053.0
1064.0
1076.0
1085.0
1092.0
1115.0
1143.0
1176.0
1208.0
1238.0
1267.0
1300.0
1339.0
1385.0
1425.0
1443.0
1429.0
1376.0
1288.0
1192.0
1108.0
1052.0
1025.0
1017.0
1020.0
1026.0
1026.0
1022.0
1021.0
1018.0
1017.0
1014.0
1012.0
1007.0
1003.0
1004.0
1006.0
1007.0
1003.0
1002.0
999.0
1002.0
1004.0
1006.0
1006.0
1001.0
998.0
998.0
1001.0
1003.0
999.0
998.0
997.0
997.0
998.0
1000.0
998.0
996.0
995.0
995.0
995.0
998.0
997.0
992.0
990.0
993.0
994.0
999.0
996.0
994.0
993.0
993.0
995.0
997.0
994.0
994.0
991.0
995.0
997.0
997.0
998.0
992.0
992.0
994.0
998.0
998.0
1000.0
995.0
993.0
997.0
998.0
999.0
999.0
998.0
998.0
999.0
1003.0
1005.0
1007.0
1002.0
1002.0
1006.0
1010.0
1013.0
1013.0
1011.0
1012.0
1012.0
1020.0
1023.0
1023.0
1026.0
1025.0
1029.0
1034.0
1039.0
1039.0
1041.0
1043.0
1045.0
1054.0
1059.0
1057.0
1060.0
1058.0
1061.0
1066.0
1068.0
1067.0
1064.0
1061.0
1062.0
1062.0
1064.0
1059.0
1056.0
1052.0
1050.0
1050.0
1051.0
1047.0
1041.0
1038.0
1039.0
1041.0
1041.0
1037.0
1034.0
1031.0
1030.0
1033.0
1035.0
1034.0
1031.0
1029.0
1028.0
1029.0
1031.0
1030.0
1029.0
1025.0
1026.0
1028.0
1030.0
1029.0
1025.0
1025.0
1025.0
1026.0
1030.0
1027.0
1025.0
1020.0
1026.0
1024.0
1029.0
1026.0
1023.0
1022.0
1023.0
1026.0
1027.0
1026.0
1026.0
1023.0
1023.0
1027.0
1027.0
1026.0
1022.0
1019.0
1024.0
1026.0
1027.0
1026.0
1025.0
1022.0
1023.0
1027.0
1030.0
1027.0
1027.0
1022.0
1024.0
1027.0
1027.0
1027.0
1026.0
1026.0
1023.0
1028.0
1027.0
1028.0
1024.0
1021.0
1024.0
1026.0
1027.0
1027.0
1023.0
1020.0
1023.0
1024.0
1027.0
1027.0
1025.0
1020.0
1020.0
1024.0
1026.0
1025.0
1020.0
1019.0
1022.0
1024.0
1026.0
1022.0
1020.0
1018.0
1021.0
1022.0
1026.0
1024.0
1023.0
1021.0
1019.0
1022.0
1024.0
1024.0
1023.0
1020.0
1020.0
1022.0
1023.0
1022.0
1019.0
1017.0
1018.0
1023.0
1026.0
1024.0
1018.0
1017.0
1018.0
1023.0
1025.0
1022.0
1022.0
1019.0
1020.0
1023.0
1024.0
1024.0
1023.0
1022.0
1022.0
1023.0
1025.0
1025.0
1023.0
1020.0
1023.0
1024.0
1025.0
1025.0
1023.0
1017.0
1019.0
1023.0
1025.0
1023.0
1022.0
1022.0
1023.0
1026.0
1028.0
1024.0
1024.0
1022.0
1025.0
1028.0
1033.0
1031.0
1028.0
1030.0
1031.0
1035.0
1038.0
1038.0
1035.0
1034.0
1032.0
1036.0
1038.0
1040.0
1037.0
1039.0
1036.0
1036.0
1036.0
1034.0
1029.0
1030.0
1030.0
1032.0
1035.0
1036.0
1031.0
1030.0
1034.0
1037.0
1037.0
1038.0
1034.0
1030.0
1030.0
1029.0
1031.0
1026.0
1023.0
1023.0
1027.0
1030.0
1029.0
1028.0
1025.0
1022.0
1027.0
1030.0
1031.0
1027.0
1025.0
1023.0
1024.0
1026.0
1029.0
1026.0
1024.0
1024.0
1024.0
1025.0
1026.0
1026.0
1023.0
1022.0
1026.0
1028.0
1031.0
1029.0
1028.0
1027.0
1029.0
1033.0
1042.0
1047.0
1049.0
1059.0
1068.0
1083.0
1094.0
1107.0
1128.0
1152.0
1176.0
1207.0
1232.0
1257.0
1282.0
1317.0
1362.0
1400.0
1416.0
1398.0
1345.0
1262.0
1169.0
1094.0
1052.0
1026.0
1015.0
1014.0
1021.0
1026.0
1028.0
1026.0
1025.0
1020.0
1016.0
1016.0
1016.0
1012.0
1008.0
1007.0
1009.0
1011.0
1010.0
1009.0
1006.0
1008.0
1008.0
1009.0
1009.0
1005.0
1002.0
1003.0
1002.0
1006.0
1007.0
1006.0
1003.0
1002.0
1003.0
1005.0
1006.0
1004.0
1002.0
1000.0
1004.0
1003.0
1006.0
1005.0
999.0
1000.0
1000.0
1001.0
1005.0
1006.0
1002.0
1002.0
1000.0
1002.0
1006.0
1005.0
1002.0
1003.0
1004.0
1006.0
1006.0
1007.0
1002.0
1002.0
1006.0
1009.0
1010.0
1006.0
1006.0
1003.0
1006.0
1011.0
1009.0
1011.0
1010.0
1009.0
1010.0
1016.0
1015.0
1018.0
1018.0
1017.0
1020.0
1024.0
1028.0
1027.0
1026.0
1028.0
1034.0
1039.0
1041.0
1043.0
1043.0
1045.0
1050.0
1054.0
1061.0
1062.0
1061.0
1058.0
1062.0
1068.0
1065.0
1063.0
1061.0
1057.0
1057.0
1059.0
1059.0
1055.0
1051.0
1047.0
1045.0
1047.0
1047.0
1043.0
1040.0
1036.0
1035.0
1037.0
1039.0
1037.0
1030.0
1030.0
1030.0
1033.0
1035.0
1031.0
1030.0
1028.0
1028.0
1028.0
1033.0
1030.0
1025.0
1024.0
1024.0
1026.0
1028.0
1026.0
1023.0
1023.0
1023.0
1026.0
1028.0
1026.0
1024.0
1020.0
1023.0
1023.0
1024.0
1025.0
1022.0
1023.0
1023.0
1024.0
1027.0
1025.0
1022.0
1023.0
1023.0
1026.0
1029.0
1029.0
1023.0
1023.0
1024.0
1025.0
1028.0
1030.0
1026.0
1025.0
1027.0
1025.0
1029.0
1028.0
1024.0
1025.0
1026.0
1027.0
1029.0
1027.0
1023.0
1023.0
1024.0
1026.0
1028.0
1025.0
1022.0
1020.0
1021.0
1023.0
1025.0
1024.0
1022.0
1020.0
1020.0
1023.0
1025.0
1022.0
1021.0
1020.0
1020.0
1023.0
1022.0
1023.0
1020.0
1019.0
1019.0
1022.0
1025.0
1024.0
1019.0
1018.0
1022.0
1022.0
1023.0
1021.0
1020.0
1019.0
1022.0
1024.0
1027.0
1020.0
1018.0
1016.0
1020.0
1020.0
1023.0
1022.0
1019.0
1019.0
1016.0
1020.0
1023.0
1022.0
1020.0
1018.0
1017.0
1020.0
1021.0
1021.0
1019.0
1016.0
1017.0
1023.0
1024.0
1023.0
1022.0
1018.0
1021.0
1024.0
1023.0
1025.0
1020.0
1018.0
1021.0
1022.0
1025.0
1026.0
1022.0
1020.0
1021.0
1022.0
1026.0
1024.0
1022.0
1020.0
1021.0
1023.0
1027.0
1028.0
1028.0
1028.0
1028.0
1034.0
1034.0
1035.0
1034.0
1034.0
1037.0
1037.0
1037.0
1035.0
1027.0
1027.0
1030.0
1033.0
1032.0
1033.0
1029.0
1028.0
1031.0
1033.0
1037.0
1035.0
1031.0
1026.0
1026.0
1027.0
1029.0
1026.0
1025.0
1023.0
1023.0
1026.0
1028.0
1027.0
1024.0
1024.0
1023.0
1025.0
1025.0
1026.0
1024.0
1021.0
1024.0
1026.0
1028.0
1025.0
1024.0
1024.0
1024.0
1027.0
1028.0
1028.0
1027.0
1025.0
1027.0
1031.0
1034.0
1037.0
1038.0
1040.0
1051.0
1061.0
1073.0
1082.0
1087.0
1100.0
1120.0
1149.0
1177.0
1205.0
1229.0
1256.0
1288.0
1330.0
1378.0
1416.0
1421.0
1396.0
1332.0
1244.0
1154.0
1085.0
1040.0
1020.0
1016.0
1023.0
1026.0
1027.0
1022.0
1021.0
1022.0
1022.0
1020.0
1015.0
1010.0
1005.0
1008.0
1009.0
1010.0
1011.0
1007.0
1005.0
1005.0
1007.0
1009.0
1006.0
1006.0
1003.0
1004.0
1006.0
1005.0
1006.0
1001.0
1000.0
1002.0
1003.0
1004.0
1001.0
1001.0
997.0
999.0
999.0
1000.0
999.0
997.0
995.0
997.0
999.0
999.0
997.0
995.0
996.0
996.0
998.0
999.0
1000.0
998.0
997.0
996.0
999.0
1003.0
1000.0
999.0
997.0
999.0
1001.0
1003.0
1001.0
999.0
998.0
1001.0
1005.0
1007.0
1006.0
1002.0
1001.0
1001.0
1006.0
1009.0
1007.0
1006.0
1003.0
1009.0
1009.0
1013.0
1013.0
1011.0
1010.0
1012.0
1017.0
1020.0
1019.0
1016.0
1016.0
1020.0
1024.0
1025.0
1027.0
1028.0
1030.0
1032.0
1037.0
1042.0
1043.0
1043.0
1042.0
1044.0
1051.0
1055.0
1057.0
1056.0
1060.0
1060.0
1064.0
1065.0
1065.0
1064.0
1064.0
1063.0
1066.0
1067.0
1064.0
1061.0
1057.0
1058.0
1058.0
1059.0
1055.0
1050.0
1047.0
1047.0
1047.0
1046.0
1043.0
1042.0
1037.0
1040.0
1041.0
1043.0
1036.0
1036.0
1034.0
1034.0
1037.0
1036.0
1036.0
1034.0
1032.0
1033.0
1036.0
1035.0
1035.0
1029.0
1027.0
1028.0
1033.0
1033.0
1032.0
1029.0
1029.0
1028.0
1032.0
1030.0
1029.0
1026.0
1026.0
1028.0
1032.0
1031.0
1030.0
1026.0
1025.0
1028.0
1029.0
1032.0
1029.0
1027.0
1024.0
1029.0
1031.0
1031.0
1031.0
1030.0
1026.0
1032.0
1031.0
1033.0
1033.0
1028.0
1026.0
1029.0
1033.0
1033.0
1033.0
1031.0
1030.0
1033.0
1035.0
1034.0
1036.0
1032.0
1031.0
1032.0
1035.0
1036.0
1037.0
1032.0
1031.0
1032.0
1034.0
1036.0
1034.0
1030.0
1030.0
1031.0
1031.0
1033.0
1033.0
1029.0
1027.0
1032.0
1033.0
1034.0
1031.0
1030.0
1028.0
1030.0
1032.0
1033.0
1030.0
1028.0
1027.0
1028.0
1033.0
1034.0
1031.0
1030.0
1028.0
1029.0
1031.0
1031.0
1031.0
1026.0
1025.0
1029.0
1031.0
1033.0
1029.0
1029.0
1026.0
1029.0
1031.0
1031.0
1030.0
1025.0
1027.0
1025.0
1029.0
1032.0
1029.0
1025.0
1023.0
1028.0
1029.0
1032.0
1029.0
1029.0
1025.0
1028.0
1031.0
1033.0
1030.0
1026.0
1027.0
1028.0
1030.0
1031.0
1029.0
1027.0
1027.0
1030.0
1031.0
1030.0
1029.0
1027.0
1028.0
1028.0
1029.0
1033.0
1031.0
1031.0
1028.0
1029.0
1034.0
1033.0
1034.0
1030.0
1031.0
1033.0
1033.0
1034.0
1033.0
1031.0
1031.0
1029.0
1036.0
1037.0
1035.0
1033.0
1034.0
1036.0
1041.0
1045.0
1044.0
1039.0
1040.0
1041.0
1045.0
1048.0
1048.0
1044.0
1046.0
1045.0
1048.0
1045.0
1043.0
1039.0
1038.0
