# Simple Text Format
# Sampling Rate (Hz):= 360.00
# Resolution:= 12
# Labels:= ECG
1043.0
1045.0
1041.0
1042.0
1044.0
1045.0
1043.0
1036.0
1032.0
1033.0
1035.0
1038.0
1037.0
1037.0
1033.0
1030.0
1032.0
1037.0
1035.0
1035.0
1030.0
1031.0
1032.0
1033.0
1035.0
1033.0
1030.0
1033.0
1035.0
1035.0
1033.0
1032.0
1030.0
1031.0
1033.0
1036.0
1035.0
1035.0
1032.0
1033.0
1034.0
1040.0
1043.0
1046.0
1049.0
1056.0
1066.0
1079.0
1089.0
1096.0
1113.0
1133.0
1161.0
1192.0
1220.0
1249.0
1278.0
1311.0
1355.0
1401.0
1428.0
1426.0
1382.0
1303.0
1203.0
1125.0
1069.0
1035.0
1019.0
1020.0
1026.0
1032.0
1029.0
1026.0
1024.0
1024.0
1022.0
1020.0
1017.0
1014.0
1011.0
1011.0
1013.0
1017.0
1015.0
1013.0
1010.0
1012.0
1012.0
1014.0
1012.0
1011.0
1007.0
1010.0
1008.0
1009.0
1011.0
1007.0
1005.0
1006.0
1010.0
1011.0
1009.0
1005.0
1004.0
1003.0
1007.0
1009.0
1008.0
1006.0
1003.0
1003.0
1005.0
1008.0
1006.0
1005.0
1005.0
1004.0
1007.0
1010.0
1008.0
1008.0
1007.0
1008.0
1010.0
1014.0
1011.0
1010.0
1006.0
1007.0
1008.0
1014.0
1013.0
1012.0
1008.0
1009.0
1015.0
1016.0
1018.0
1015.0
1013.0
1012.0
1016.0
1021.0
1022.0
1018.0
1016.0
1020.0
1025.0
1026.0
1026.0
1028.0
1026.0
1029.0
1033.0
1039.0
1040.0
1040.0
1039.0
1041.0
1044.0
1051.0
1052.0
1052.0
1054.0
1059.0
1062.0
1065.0
1066.0
1064.0
1063.0
1061.0
1067.0
1067.0
1067.0
1064.0
1059.0
1056.0
1058.0
1060.0
1058.0
1055.0
1049.0
1049.0
1050.0
1050.0
1047.0
1045.0
1041.0
1041.0
1042.0
1046.0
1042.0
1039.0
1037.0
1036.0
1041.0
1045.0
1042.0
1038.0
1036.0
1036.0
1037.0
1039.0
1039.0
1037.0
1038.0
1035.0
1039.0
1038.0
1036.0
1036.0
1033.0
1034.0
1034.0
1038.0
1038.0
1034.0
1031.0
1032.0
1035.0
1036.0
1038.0
1034.0
1031.0
1033.0
1034.0
1040.0
1038.0
1037.0
1033.0
1033.0
1037.0
1038.0
1036.0
1037.0
1034.0
1034.0
1038.0
1040.0
1041.0
1037.0
1035.0
1036.0
1039.0
1041.0
1039.0
1040.0
1035.0
1039.0
1037.0
1037.0
1038.0
1039.0
1034.0
1035.0
1038.0
1039.0
1039.0
1035.0
1036.0
1035.0
1036.0
1038.0
1034.0
1034.0
1030.0
1031.0
1034.0
1036.0
1032.0
1030.0
1028.0
1029.0
1030.0
1033.0
1034.0
1030.0
1028.0
1027.0
1029.0
1033.0
1031.0
1030.0
1030.0
1029.0
1030.0
1031.0
1031.0
1030.0
1028.0
1029.0
1030.0
1034.0
1032.0
1031.0
1029.0
1029.0
1030.0
1031.0
1033.0
1029.0
1026.0
1028.0
1031.0
1033.0
1032.0
1031.0
1028.0
1028.0
1032.0
1034.0
1032.0
1030.0
1025.0
1028.0
1028.0
1031.0
1034.0
1029.0
1027.0
1027.0
1029.0
1031.0
1031.0
1030.0
1028.0
1026.0
1029.0
1033.0
1032.0
1029.0
1027.0
1026.0
1030.0
1037.0
1032.0
1030.0
1029.0
1028.0
1030.0
1033.0
1033.0
1031.0
1028.0
1028.0
1030.0
1033.0
1032.0
1028.0
1028.0
1029.0
1032.0
1033.0
1037.0
1032.0
1028.0
1031.0
1033.0
1039.0
1038.0
1039.0
1036.0
1039.0
1040.0
1043.0
1043.0
1041.0
1039.0
1040.0
1044.0
1045.0
1044.0
1044.0
1042.0
1041.0
1040.0
1043.0
1039.0
1037.0
1033.0
1037.0
1040.0
1041.0
1041.0
1038.0
1040.0
1039.0
1041.0
1044.0
1043.0
1040.0
1038.0
1035.0
1037.0
1039.0
1036.0
1034.0
1031.0
1029.0
1033.0
1033.0
1036.0
1033.0
1031.0
1031.0
1035.0
1036.0
1033.0
1032.0
1031.0
1029.0
1031.0
1034.0
1032.0
1031.0
1029.0
1030.0
1032.0
1033.0
1033.0
1031.0
1031.0
1030.0
1032.0
1035.0
1032.0
1031.0
1028.0
1032.0
1035.0
1035.0
1037.0
1038.0
1037.0
1039.0
1046.0
1052.0
1058.0
1070.0
1075.0
1083.0
1096.0
1110.0
1126.0
1147.0
1171.0
1198.0
1229.0
1256.0
1283.0
1310.0
1337.0
1377.0
1417.0
1440.0
1437.0
1404.0
1341.0
1258.0
1181.0
1125.0
1079.0
1048.0
1025.0
1018.0
1022.0
1031.0
1032.0
1030.0
1026.0
1028.0
1028.0
1026.0
1023.0
1020.0
1016.0
1016.0
1019.0
1020.0
1019.0
1017.0
1013.0
1014.0
1017.0
1021.0
1020.0
1017.0
1014.0
1014.0
1014.0
1019.0
1018.0
1011.0
1011.0
1011.0
1013.0
1016.0
1015.0
1012.0
1008.0
1011.0
1013.0
1017.0
1013.0
1010.0
1010.0
1011.0
1014.0
1016.0
1015.0
1010.0
1010.0
1011.0
1015.0
1014.0
1015.0
1012.0
1009.0
1014.0
1014.0
1016.0
1014.0
1013.0
1008.0
1012.0
1014.0
1015.0
1017.0
1016.0
1013.0
1013.0
1016.0
1017.0
1017.0
1017.0
1013.0
1015.0
1017.0
1018.0
1017.0
1018.0
1016.0
1019.0
1020.0
1023.0
1020.0
1021.0
1019.0
1020.0
1024.0
1027.0
1029.0
1027.0
1026.0
1028.0
1031.0
1038.0
1038.0
1037.0
1039.0
1042.0
1047.0
1051.0
1052.0
1052.0
1050.0
1054.0
1058.0
1065.0
1068.0
1067.0
1070.0
1074.0
1076.0
1080.0
1079.0
1080.0
1078.0
1076.0
1081.0
1081.0
1080.0
1077.0
1073.0
1071.0
1075.0
1072.0
1071.0
1063.0
1061.0
1056.0
1055.0
1054.0
1053.0
1051.0
1046.0
1044.0
1046.0
1045.0
1045.0
1044.0
1042.0
1041.0
1044.0
1045.0
1041.0
1040.0
1038.0
1038.0
1044.0
1045.0
1044.0
1040.0
1035.0
1037.0
1040.0
1042.0
1041.0
1039.0
1038.0
1037.0
1037.0
1039.0
1037.0
1032.0
1032.0
1035.0
1037.0
1041.0
1038.0
1035.0
1033.0
1035.0
1033.0
1037.0
1035.0
1034.0
1033.0
1031.0
1035.0
1037.0
1036.0
1032.0
1031.0
1030.0
1035.0
1035.0
1036.0
1033.0
1032.0
1034.0
1037.0
1039.0
1037.0
1034.0
1032.0
1030.0
1036.0
1036.0
1038.0
1037.0
1035.0
1034.0
1036.0
1038.0
1034.0
1034.0
1030.0
1034.0
1036.0
1038.0
1035.0
1033.0
1028.0
1029.0
1029.0
1034.0
1032.0
1029.0
1027.0
1028.0
1028.0
1031.0
1031.0
1031.0
1028.0
1026.0
1030.0
1031.0
1028.0
1027.0
1024.0
1025.0
1027.0
1030.0
1027.0
1026.0
1024.0
1023.0
1026.0
1030.0
1027.0
1025.0
1023.0
1025.0
1026.0
1029.0
1028.0
1026.0
1023.0
1024.0
1026.0
1030.0
1027.0
1025.0
1022.0
1021.0
1024.0
1025.0
1026.0
1024.0
1022.0
1021.0
1024.0
1027.0
1024.0
1022.0
1017.0
1022.0
1024.0
1024.0
1026.0
1024.0
1021.0
1021.0
1023.0
1025.0
1023.0
1022.0
1021.0
1022.0
1025.0
1027.0
1025.0
1024.0
1021.0
1023.0
1023.0
1023.0
1024.0
1024.0
1020.0
1021.0
1023.0
1025.0
1024.0
1021.0
1017.0
1022.0
1025.0
1026.0
1026.0
1023.0
1022.0
1022.0
1025.0
1028.0
1025.0
1024.0
1025.0
1024.0
1027.0
1027.0
1028.0
1024.0
1022.0
1023.0
1025.0
1029.0
1026.0
1025.0
1023.0
1023.0
1024.0
1024.0
1028.0
1028.0
1028.0
1029.0
1030.0
1035.0
1034.0
1030.0
1031.0
1030.0
1033.0
1040.0
1039.0
1039.0
1033.0
1034.0
1034.0
1037.0
1034.0
1031.0
1028.0
1028.0
1030.0
1033.0
1033.0
1029.0
1027.0
1032.0
1034.0
1040.0
1037.0
1033.0
1033.0
1033.0
1034.0
1035.0
1032.0
1028.0
1025.0
1024.0
1026.0
1027.0
1027.0
1023.0
1024.0
1026.0
1026.0
1029.0
1028.0
1025.0
1021.0
1024.0
1025.0
1027.0
1026.0
1024.0
1022.0
1022.0
1026.0
1025.0
1026.0
1024.0
1023.0
1026.0
1026.0
1030.0
1027.0
1024.0
1022.0
1027.0
1026.0
1034.0
1032.0
1031.0
1033.0
1038.0
1045.0
1054.0
1061.0
1070.0
1074.0
1084.0
1098.0
1119.0
1141.0
1170.0
1195.0
1229.0
1262.0
1294.0
1325.0
1359.0
1398.0
1424.0
1426.0
1392.0
1319.0
1228.0
1142.0
1086.0
1051.0
1029.0
1019.0
1019.0
1017.0
1022.0
1026.0
1026.0
1024.0
1018.0
1011.0
1010.0
1011.0
1012.0
1011.0
1007.0
1004.0
1004.0
1006.0
1009.0
1006.0
1004.0
1002.0
1002.0
1004.0
1005.0
1005.0
1002.0
1000.0
1000.0
1001.0
1004.0
1003.0
998.0
996.0
996.0
997.0
1003.0
1001.0
1000.0
995.0
997.0
999.0
997.0
999.0
996.0
995.0
993.0
997.0
1000.0
997.0
995.0
994.0
993.0
996.0
999.0
996.0
996.0
994.0
996.0
997.0
996.0
999.0
998.0
997.0
997.0
999.0
1001.0
1000.0
998.0
996.0
998.0
1003.0
1006.0
1002.0
1003.0
1001.0
1002.0
1005.0
1009.0
1012.0
1010.0
1007.0
1011.0
1016.0
1018.0
1018.0
1018.0
1017.0
1023.0
1026.0
1034.0
1028.0
1031.0
1030.0
1034.0
1040.0
1046.0
1049.0
1048.0
1049.0
1052.0
1058.0
1062.0
1061.0
1059.0
1059.0
1059.0
1062.0
1064.0
1058.0
1056.0
1053.0
1050.0
1054.0
1053.0
1052.0
1047.0
1041.0
1039.0
1041.0
1042.0
1041.0
1036.0
1034.0
1032.0
1034.0
1036.0
1032.0
1029.0
1029.0
1028.0
1031.0
1033.0
1031.0
1027.0
1026.0
1027.0
1029.0
1029.0
1030.0
1028.0
1025.0
1024.0
1027.0
1028.0
1026.0
1024.0
1023.0
1023.0
1023.0
1027.0
1025.0
1021.0
1019.0
1020.0
1024.0
1025.0
1024.0
1022.0
1020.0
1020.0
1023.0
1026.0
1025.0
1022.0
1021.0
1021.0
1025.0
1027.0
1025.0
1023.0
1019.0
1022.0
1025.0
1029.0
1025.0
1023.0
1023.0
1022.0
1025.0
1030.0
1028.0
1024.0
1023.0
1026.0
1029.0
1031.0
1030.0
1025.0
1023.0
1025.0
1030.0
1034.0
1028.0
1027.0
1024.0
1025.0
1027.0
1030.0
1027.0
1025.0
1025.0
1021.0
1025.0
1024.0
1025.0
1023.0
1024.0
1024.0
1026.0
1029.0
1025.0
1023.0
1019.0
1020.0
1023.0
1024.0
1023.0
1021.0
1019.0
1020.0
1023.0
1025.0
1023.0
1020.0
1018.0
1019.0
1022.0
1025.0
1023.0
1020.0
1017.0
1017.0
1020.0
1023.0
1020.0
1020.0
1015.0
1018.0
1019.0
1022.0
1021.0
1018.0
1017.0
1019.0
1021.0
1024.0
1021.0
1015.0
1015.0
1017.0
1019.0
1023.0
1021.0
1017.0
1016.0
1017.0
1019.0
1020.0
1023.0
1020.0
1016.0
1018.0
1021.0
1021.0
1018.0
1018.0
1015.0
1016.0
1020.0
1024.0
1022.0
1020.0
1016.0
1015.0
1020.0
1023.0
1021.0
1020.0
1018.0
1017.0
1019.0
1024.0
1021.0
1016.0
1016.0
1019.0
1019.0
1023.0
1022.0
1017.0
1016.0
1019.0
1020.0
1024.0
1023.0
1018.0
1018.0
1019.0
1021.0
1024.0
1023.0
1021.0
1019.0
1019.0
1023.0
1027.0
1024.0
1020.0
1018.0
1018.0
1024.0
1026.0
1022.0
1023.0
1021.0
1021.0
1026.0
1030.0
1028.0
1029.0
1025.0
1030.0
1031.0
1034.0
1032.0
1030.0
1027.0
1031.0
1034.0
1038.0
1034.0
1030.0
1029.0
1029.0
1030.0
1033.0
1032.0
1027.0
1026.0
1027.0
1030.0
1032.0
1031.0
1027.0
1027.0
1029.0
1033.0
1035.0
1035.0
1030.0
1026.0
1026.0
1029.0
1029.0
1025.0
1022.0
1020.0
1021.0
1025.0
1025.0
1024.0
1024.0
1022.0
1022.0
1025.0
1028.0
1026.0
1020.0
1018.0
1018.0
1022.0
1027.0
1026.0
1021.0
1019.0
1018.0
1023.0
1023.0
1020.0
1020.0
1017.0
1019.0
1022.0
1023.0
1024.0
1021.0
1019.0
1021.0
1025.0
1028.0
1027.0
1029.0
1028.0
1032.0
1040.0
1049.0
1056.0
1065.0
1073.0
1085.0
1100.0
1122.0
1146.0
1172.0
1196.0
1226.0
1258.0
1285.0
1314.0
1342.0
1379.0
1414.0
1438.0
1436.0
1402.0
1333.0
1250.0
1171.0
1108.0
1063.0
1032.0
1016.0
1008.0
1014.0
1020.0
1022.0
1021.0
1018.0
1013.0
1011.0
1012.0
1009.0
1007.0
1005.0
1002.0
1003.0
1007.0
1003.0
1003.0
1003.0
998.0
1002.0
1001.0
1005.0
1004.0
1002.0
998.0
998.0
1000.0
1004.0
1002.0
999.0
996.0
998.0
999.0
1001.0
1000.0
997.0
997.0
996.0
998.0
1000.0
999.0
997.0
992.0
995.0
998.0
1003.0
1000.0
995.0
994.0
996.0
999.0
1002.0
1000.0
996.0
995.0
997.0
998.0
1000.0
1000.0
996.0
997.0
998.0
1003.0
1004.0
1002.0
999.0
998.0
999.0
1002.0
1005.0
1004.0
1003.0
1001.0
1003.0
1004.0
1009.0
1010.0
1007.0
1008.0
1012.0
1015.0
1018.0
1020.0
1016.0
1020.0
1021.0
1028.0
1032.0
1032.0
1032.0
1034.0
1036.0
1043.0
1046.0
1050.0
1051.0
1053.0
1056.0
1060.0
1061.0
1061.0
1062.0
1064.0
1064.0
1065.0
1066.0
1065.0
1061.0
1054.0
1055.0
1055.0
1055.0
1053.0
1045.0
1041.0
1041.0
1041.0
1042.0
1037.0
1035.0
1031.0
1034.0
1036.0
1034.0
1031.0
1032.0
1032.0
1031.0
1033.0
1033.0
1033.0
1029.0
1026.0
1030.0
1032.0
1032.0
1028.0
1029.0
1024.0
1027.0
1028.0
1030.0
1030.0
1023.0
1024.0
1026.0
1029.0
1031.0
1029.0
1023.0
1023.0
1022.0
1028.0
1029.0
1026.0
1023.0
1023.0
1024.0
1028.0
1030.0
1029.0
1025.0
1025.0
1026.0
1028.0
1031.0
1028.0
1026.0
1026.0
1029.0
1031.0
1031.0
1031.0
1026.0
1027.0
1026.0
1030.0
1033.0
1033.0
1028.0
1025.0
1028.0
1029.0
1029.0
1029.0
1027.0
1026.0
1025.0
1030.0
1028.0
1027.0
1023.0
1023.0
1026.0
1028.0
1029.0
1028.0
1023.0
1023.0
1024.0
1025.0
1028.0
1027.0
1025.0
1023.0
1026.0
1028.0
1029.0
1028.0
1024.0
1022.0
1023.0
1025.0
1028.0
1025.0
1020.0
1022.0
1023.0
1024.0
1026.0
1024.0
1022.0
1020.0
1019.0
1025.0
1026.0
1024.0
1023.0
1019.0
1023.0
1026.0
1027.0
1026.0
1021.0
1022.0
1023.0
1024.0
1027.0
1026.0
1023.0
1021.0
1023.0
1025.0
1027.0
1026.0
1023.0
1023.0
1023.0
1023.0
1026.0
1023.0
1024.0
1023.0
1022.0
1024.0
1026.0
1026.0
1024.0
1023.0
1022.0
1025.0
1028.0
1025.0
1025.0
1023.0
1024.0
1024.0
1026.0
1024.0
1022.0
1020.0
1024.0
1026.0
1026.0
1024.0
1022.0
1021.0
1023.0
1028.0
1026.0
1027.0
1024.0
1021.0
1023.0
1026.0
1027.0
1027.0
1023.0
1024.0
1025.0
1031.0
1029.0
1026.0
1024.0
1023.0
1021.0
1025.0
1028.0
1026.0
1027.0
1023.0
1023.0
1026.0
1031.0
1029.0
1027.0
1029.0
1031.0
1036.0
1039.0
1035.0
1036.0
1032.0
1035.0
1038.0
1040.0
1039.0
1035.0
1034.0
1038.0
1035.0
1036.0
1032.0
1031.0
1031.0
1032.0
1034.0
1037.0
1034.0
1032.0
1031.0
1037.0
1038.0
1040.0
1040.0
1036.0
1033.0
1033.0
1034.0
1034.0
1031.0
1029.0
1025.0
1027.0
1029.0
1034.0
1031.0
1029.0
1028.0
1028.0
1030.0
1031.0
1031.0
1026.0
1024.0
1027.0
1028.0
1029.0
1028.0
1027.0
1025.0
1027.0
1028.0
1031.0
1029.0
1027.0
1024.0
1028.0
1029.0
1031.0
1029.0
1026.0
1026.0
1029.0
1033.0
1034.0
1035.0
1032.0
1038.0
1044.0
1052.0
1061.0
1069.0
1077.0
1081.0
1093.0
1114.0
1140.0
1167.0
1196.0
1224.0
1255.0
1289.0
1322.0
1360.0
1397.0
1419.0
1420.0
1386.0
1317.0
1227.0
1142.0
1081.0
1043.0
1027.0
1023.0
1024.0
1026.0
1026.0
1026.0
1025.0
1027.0
1023.0
1016.0
1011.0
1011.0
1016.0
1015.0
1013.0
1010.0
1008.0
1007.0
1010.0
1013.0
1012.0
1010.0
1008.0
1008.0
1011.0
1012.0
1010.0
1008.0
1007.0
1007.0
1009.0
1010.0
1009.0
1005.0
1005.0
1004.0
1007.0
1007.0
1006.0
1005.0
1002.0
1005.0
1006.0
1008.0
1006.0
1002.0
1001.0
999.0
1004.0
1006.0
1003.0
1002.0
1001.0
1002.0
1006.0
1007.0
1006.0
1000.0
1000.0
1002.0
1006.0
1008.0
1006.0
1004.0
1001.0
1003.0
1006.0
1008.0
1008.0
1005.0
1003.0
1007.0
1009.0
1012.0
1009.0
1007.0
1007.0
1010.0
1014.0
1016.0
1020.0
1016.0
1017.0
1018.0
1021.0
1023.0
1024.0
1027.0
1028.0
1034.0
1037.0
1040.0
1039.0
1038.0
1040.0
1047.0
1050.0
1056.0
1057.0
1059.0
1060.0
1062.0
1065.0
1069.0
1069.0
1067.0
1066.0
1067.0
1067.0
1067.0
1063.0
1060.0
1057.0
1056.0
1057.0
1057.0
1052.0
1047.0
1043.0
1042.0
1043.0
1044.0
1038.0
1039.0
1035.0
1034.0
1035.0
1036.0
1033.0
1029.0
1030.0
1032.0
1035.0
1036.0
1033.0
1029.0
1027.0
1028.0
1033.0
1033.0
1030.0
1027.0
1027.0
1027.0
1029.0
1031.0
1029.0
1025.0
1023.0
1027.0
1027.0
1029.0
1026.0
1023.0
1023.0
1022.0
1027.0
1027.0
1024.0
1023.0
1021.0
1021.0
1024.0
1025.0
1025.0
1024.0
1021.0
1023.0
1026.0
1024.0
1023.0
1022.0
1022.0
1022.0
1028.0
1030.0
1026.0
1023.0
1021.0
1023.0
1028.0
1030.0
1028.0
1026.0
1024.0
1025.0
1028.0
1027.0
1029.0
1025.0
1025.0
1025.0
1031.0
1030.0
1028.0
1025.0
1022.0
1025.0
1027.0
1029.0
1027.0
1024.0
1021.0
1022.0
1024.0
1026.0
1028.0
1023.0
1024.0
1024.0
1027.0
1027.0
1025.0
1022.0
1021.0
1023.0
1024.0
1025.0
1024.0
1021.0
1019.0
1019.0
1022.0
1024.0
1024.0
1024.0
1019.0
1022.0
1025.0
1025.0
1025.0
1021.0
1020.0
1021.0
1025.0
1026.0
1023.0
1021.0
1017.0
1020.0
1023.0
1025.0
1022.0
1017.0
1018.0
1020.0
1023.0
1023.0
1023.0
1020.0
1019.0
1021.0
1023.0
1024.0
1022.0
1020.0
1018.0
1023.0
1023.0
1024.0
1024.0
1019.0
1018.0
1021.0
1022.0
1025.0
1024.0
1022.0
1018.0
1020.0
1022.0
1027.0
1023.0
1021.0
1020.0
1022.0
1024.0
1025.0
1024.0
1021.0
1018.0
1021.0
1020.0
1024.0
1023.0
1019.0
1020.0
1021.0
1024.0
1025.0
1023.0
1022.0
1021.0
1022.0
1024.0
1028.0
1024.0
1021.0
1021.0
1026.0
1026.0
1027.0
1026.0
1022.0
1022.0
1025.0
1029.0
1033.0
1029.0
1030.0
1030.0
1031.0
1036.0
1038.0
1038.0
1035.0
1034.0
1036.0
1040.0
1043.0
1041.0
1039.0
1037.0
1034.0
1037.0
1036.0
1034.0
1032.0
1032.0
1033.0
1038.0
1039.0
1039.0
1037.0
1036.0
1037.0
1042.0
1041.0
1041.0
1035.0
1033.0
1033.0
1035.0
1034.0
1032.0
1031.0
1031.0
1032.0
1033.0
1035.0
1030.0
1031.0
1026.0
1031.0
1033.0
1035.0
1034.0
1031.0
1028.0
1030.0
1031.0
1035.0
1035.0
1030.0
1031.0
1030.0
1034.0
1036.0
1033.0
1033.0
1031.0
1032.0
1035.0
1039.0
1039.0
1040.0
1043.0
1054.0
1061.0
1074.0
1082.0
1087.0
1097.0
1115.0
1144.0
1173.0
1202.0
1227.0
1258.0
1293.0
1331.0
1373.0
1418.0
1444.0
1445.0
1411.0
1343.0
1251.0
1156.0
1088.0
1045.0
1025.0
1022.0
1028.0
1032.0
1031.0
1029.0
1031.0
1031.0
1030.0
1023.0
1019.0
1015.0
1015.0
1017.0
1018.0
1015.0
1014.0
1010.0
1011.0
1015.0
1017.0
1013.0
1010.0
1008.0
1010.0
1015.0
1014.0
1012.0
1008.0
1006.0
1009.0
1010.0
1009.0
1010.0
1006.0
1007.0
1008.0
1009.0
1010.0
1009.0
1004.0
1004.0
1006.0
1008.0
1008.0
1009.0
1003.0
1004.0
1005.0
1007.0
1008.0
1008.0
1003.0
1005.0
1007.0
1009.0
1011.0
1010.0
1007.0
1006.0
1007.0
1010.0
1011.0
1009.0
1008.0
1009.0
1011.0
1014.0
1012.0
1012.0
1010.0
1010.0
1011.0
1015.0
1017.0
1017.0
1013.0
1016.0
1019.0
1024.0
1023.0
1025.0
1025.0
1023.0
1029.0
1037.0
1037.0
1037.0
1037.0
1038.0
1043.0
1048.0
1052.0
1055.0
1053.0
1057.0
1060.0
1065.0
1071.0
1072.0
1071.0
1075.0
1078.0
1082.0
1081.0
1079.0
1075.0
1074.0
1076.0
1076.0
1076.0
1073.0
1066.0
1063.0
1066.0
1061.0
1062.0
1056.0
1053.0
1053.0
1052.0
1052.0
1052.0
1049.0
1043.0
1044.0
1045.0
1047.0
1047.0
1045.0
1042.0
1040.0
1040.0
1043.0
1045.0
1042.0
1040.0
1039.0
1041.0
1042.0
1043.0
1042.0
1040.0
1039.0
1040.0
1042.0
1041.0
1042.0
1039.0
1035.0
1039.0
1042.0
1043.0
1040.0
1038.0
1039.0
1040.0
1043.0
1045.0
1041.0
1039.0
1037.0
1040.0
1041.0
1042.0
1041.0
1040.0
1040.0
1044.0
1046.0
1045.0
1044.0
1044.0
1042.0
1046.0
1050.0
1050.0
1048.0
1045.0
1046.0
1048.0
1050.0
1051.0
1049.0
1046.0
1045.0
1047.0
1050.0
1050.0
1049.0
1048.0
1048.0
1047.0
1050.0
1047.0
1046.0
1045.0
1045.0
1047.0
1049.0
1048.0
1045.0
1043.0
1044.0
1047.0
1048.0
1048.0
1047.0
1048.0
1051.0
1056.0
1066.0
1078.0
1094.0
1113.0
1139.0
1165.0
1178.0
1178.0
1165.0
1137.0
1094.0
1032.0
959.0
864.0
756.0
681.0
649.0
643.0
639.0
629.0
633.0
652.0
679.0
719.0
759.0
792.0
822.0
844.0
863.0
881.0
900.0
916.0
927.0
938.0
946.0
959.0
969.0
979.0
986.0
995.0
1006.0
1020.0
1034.0
1043.0
1046.0
1053.0
1060.0
1065.0
1075.0
1078.0
1077.0
1080.0
1082.0
1087.0
1091.0
1093.0
1094.0
1089.0
1088.0
1094.0
1099.0
1100.0
1100.0
1100.0
1102.0
1106.0
1112.0
1115.0
1116.0
1117.0
1117.0
1120.0
1126.0
1130.0
1133.0
1132.0
1135.0
1139.0
1145.0
1148.0
1152.0
1154.0
1158.0
1163.0
1170.0
1178.0
1179.0
1183.0
1189.0
1197.0
1204.0
1212.0
1218.0
1222.0
1229.0
1241.0
1247.0
1256.0
1264.0
1269.0
1276.0
1282.0
1291.0
1294.0
1298.0
1295.0
1294.0
1295.0
1294.0
1289.0
1279.0
1269.0
1261.0
1255.0
1251.0
1241.0
1229.0
1219.0
1208.0
1201.0
1194.0
1186.0
1175.0
1163.0
1152.0
1143.0
1137.0
1128.0
1120.0
1108.0
1099.0
1096.0
1093.0
1090.0
1084.0
1077.0
1075.0
1073.0
1070.0
1069.0
1065.0
1060.0
1057.0
1059.0
1061.0
1057.0
1053.0
1051.0
1051.0
1053.0
1053.0
1057.0
1052.0
1049.0
1048.0
1050.0
1053.0
1052.0
1051.0
1046.0
1046.0
1049.0
1049.0
1048.0
1046.0
1040.0
1040.0
1044.0
1045.0
1044.0
1041.0
1038.0
1035.0
1035.0
1038.0
1038.0
1037.0
1035.0
1033.0
1035.0
1036.0
1035.0
1032.0
1028.0
1030.0
1028.0
1033.0
1032.0
1030.0
1027.0
1024.0
1027.0
1029.0
1026.0
1025.0
1023.0
1020.0
1021.0
1024.0
1023.0
1021.0
1020.0
1021.0
1020.0
1022.0
1024.0
1020.0
1018.0
1020.0
1022.0
1024.0
1019.0
1018.0
1014.0
1016.0
1018.0
1022.0
1022.0
1019.0
1016.0
1017.0
1017.0
1017.0
1021.0
1018.0
1017.0
1016.0
1020.0
1019.0
1016.0
1016.0
1013.0
1015.0
1016.0
1019.0
1019.0
1016.0
1014.0
1012.0
1016.0
1017.0
1017.0
1016.0
1012.0
1013.0
1015.0
1018.0
1016.0
1014.0
1012.0
1013.0
1016.0
1019.0
1018.0
1014.0
1013.0
1011.0
1015.0
1018.0
1018.0
1017.0
1014.0
1013.0
1014.0
1017.0
1018.0
1016.0
1012.0
1013.0
1014.0
1017.0
1016.0
1014.0
1010.0
1011.0
1014.0
1017.0
1019.0
1017.0
1013.0
1013.0
1014.0
1017.0
1016.0
1015.0
1012.0
1011.0
1015.0
1017.0
1016.0
1015.0
1011.0
1013.0
1015.0
1015.0
1018.0
1015.0
1012.0
1012.0
1016.0
1016.0
1016.0
1015.0
1013.0
1014.0
1018.0
1017.0
1016.0
1015.0
1013.0
1014.0
1015.0
1017.0
1017.0
1016.0
1016.0
1014.0
1013.0
1018.0
1017.0
1015.0
1015.0
1014.0
1013.0
1016.0
1017.0
1015.0
1013.0
1012.0
1016.0
1017.0
1017.0
1015.0
1011.0
1010.0
1015.0
1017.0
1017.0
1014.0
1013.0
1011.0
1016.0
1018.0
1016.0
1014.0
1012.0
1011.0
1013.0
1018.0
1019.0
1015.0
1011.0
1011.0
1013.0
1014.0
1015.0
1013.0
1011.0
1011.0
1016.0
1017.0
1014.0
1014.0
1012.0
1012.0
1013.0
1016.0
1015.0
1014.0
1013.0
1014.0
1016.0
1018.0
1017.0
1016.0
1015.0
1015.0
1015.0
1018.0
1018.0
1016.0
1012.0
1015.0
1016.0
1020.0
1017.0
1017.0
1014.0
1013.0
1016.0
1016.0
1017.0
1016.0
1016.0
1014.0
1015.0
1018.0
1018.0
1017.0
1012.0
1013.0
1014.0
1018.0
1017.0
1015.0
1014.0
1015.0
1017.0
1019.0
1019.0
1016.0
1013.0
1012.0
1016.0
1022.0
1019.0
1017.0
1014.0
1015.0
1018.0
1022.0
1020.0
1019.0
1013.0
1018.0
1019.0
1020.0
1021.0
1018.0
1017.0
1017.0
1018.0
1022.0
1021.0
1017.0
1016.0
1017.0
1017.0
1021.0
1021.0
1019.0
1017.0
1019.0
1021.0
1024.0
1021.0
1021.0
1017.0
1015.0
1018.0
1023.0
1024.0
1020.0
1017.0
1015.0
1019.0
1024.0
1024.0
1021.0
1020.0
1020.0
1022.0
1024.0
1023.0
1021.0
1019.0
1020.0
1020.0
1020.0
1023.0
1020.0
1022.0
1020.0
1022.0
1024.0
1022.0
1021.0
1019.0
1019.0
1022.0
1026.0
1023.0
1023.0
1018.0
1020.0
1019.0
1023.0
1024.0
1022.0
1021.0
1021.0
1020.0
1024.0
1024.0
1021.0
1019.0
1021.0
1022.0
1025.0
1025.0
1024.0
1021.0
1022.0
1025.0
1028.0
1028.0
1026.0
1022.0
1025.0
1029.0
1030.0
1031.0
1030.0
1029.0
1032.0
1032.0
1036.0
1034.0
1034.0
1032.0
1034.0
1035.0
1038.0
1041.0
1036.0
1033.0
1031.0
1030.0
1034.0
1033.0
1034.0
1028.0
1030.0
1033.0
1036.0
1036.0
1035.0
1031.0
1033.0
1035.0
1039.0
1037.0
1036.0
1030.0
1028.0
1029.0
1029.0
1029.0
1029.0
1027.0
1028.0
1028.0
1031.0
1028.0
1027.0
1025.0
1025.0
1026.0
1029.0
1027.0
1027.0
1025.0
1023.0
1024.0
1027.0
1026.0
1026.0
1025.0
1025.0
1026.0
1028.0
1026.0
1026.0
1023.0
1027.0
1028.0
1034.0
1031.0
1033.0
1033.0
1039.0
1046.0
1056.0
1065.0
1073.0
1077.0
1086.0
1100.0
1120.0
1144.0
1170.0
1199.0
1232.0
1270.0
1308.0
1347.0
1386.0
1426.0
1456.0
1463.0
1441.0
1380.0
1290.0
1199.0
1126.0
1075.0
1046.0
1033.0
1034.0
1035.0
1035.0
1032.0
1033.0
1032.0
1025.0
1018.0
1016.0
1013.0
1013.0
1010.0
1010.0
1006.0
1007.0
1008.0
1008.0
1006.0
1004.0
1002.0
1002.0
1002.0
1006.0
1006.0
1001.0
1000.0
999.0
998.0
1003.0
1004.0
1001.0
1000.0
998.0
1000.0
1002.0
1002.0
1001.0
999.0
998.0
1002.0
1001.0
1001.0
1002.0
996.0
997.0
1000.0
1002.0
1002.0
1002.0
998.0
999.0
1000.0
1002.0
1002.0
1001.0
998.0
1002.0
1002.0
1004.0
1002.0
1004.0
1002.0
1002.0
1007.0
1008.0
1009.0
1007.0
1007.0
1005.0
1009.0
1010.0
1013.0
1009.0
1009.0
1008.0
1011.0
1016.0
1016.0
1013.0
1012.0
1013.0
1019.0
1023.0
1022.0
1020.0
1018.0
1021.0
1023.0
1028.0
1030.0
1029.0
1030.0
1029.0
1034.0
1038.0
1039.0
1040.0
1040.0
1042.0
1048.0
1051.0
1053.0
1055.0
1058.0
1059.0
1066.0
1069.0
1072.0
1072.0
1073.0
1076.0
1076.0
1081.0
1081.0
1079.0
1078.0
1078.0
1080.0
1080.0
1080.0
1077.0
1072.0
1071.0
1073.0
1075.0
1071.0
1068.0
1067.0
1063.0
1064.0
1062.0
1061.0
1059.0
1056.0
1056.0
1057.0
1056.0
1057.0
1053.0
1051.0
1049.0
1051.0
1054.0
1053.0
1051.0
1048.0
1046.0
1049.0
1051.0
1053.0
1048.0
1048.0
1046.0
1050.0
1051.0
1052.0
1047.0
1046.0
1047.0
1048.0
1052.0
1051.0
1047.0
1048.0
1047.0
1051.0
1048.0
1051.0
1048.0
1046.0
1047.0
1051.0
1053.0
1052.0
1050.0
1046.0
1049.0
1051.0
1054.0
1054.0
1052.0
1050.0
1051.0
1050.0
1053.0
1053.0
1051.0
1049.0
1050.0
1050.0
1053.0
1051.0
1051.0
1048.0
1049.0
1053.0
1052.0
1051.0
1049.0
1044.0
1045.0
1046.0
1047.0
1048.0
1045.0
1045.0
1045.0
1044.0
1047.0
1047.0
1040.0
1042.0
1042.0
1046.0
1047.0
1042.0
1043.0
1037.0
1039.0
1039.0
1043.0
1042.0
1041.0
1038.0
1037.0
1041.0
1043.0
1040.0
1040.0
1039.0
1040.0
1041.0
1042.0
1041.0
1038.0
1036.0
1038.0
1042.0
1043.0
1042.0
1041.0
1037.0
1037.0
1039.0
1041.0
1041.0
1040.0
1037.0
1039.0
1037.0
1041.0
1043.0
1038.0
1037.0
1037.0
1039.0
1042.0
1041.0
1041.0
1037.0
1035.0
1038.0
1042.0
1040.0
1039.0
1037.0
1037.0
1039.0
1042.0
1041.0
1039.0
1036.0
1038.0
1039.0
1041.0
1041.0
1038.0
1037.0
1037.0
1039.0
1041.0
1042.0
1038.0
1035.0
1037.0
1039.0
1042.0
1042.0
1038.0
1039.0
1041.0
1040.0
1043.0
1041.0
1038.0
1037.0
1038.0
1038.0
1042.0
1042.0
1039.0
1035.0
1037.0
1039.0
1041.0
1041.0
1041.0
1039.0
1039.0
1041.0
1043.0
1041.0
1040.0
1039.0
1039.0
1042.0
1041.0
1040.0
1040.0
1039.0
1040.0
1042.0
1043.0
1042.0
1041.0
1042.0
1043.0
1048.0
1053.0
1051.0
1048.0
1047.0
1046.0
1049.0
1053.0
1054.0
1051.0
1051.0
1050.0
1054.0
1050.0
1052.0
1048.0
1045.0
1045.0
1047.0
1048.0
1050.0
1049.0
1046.0
1044.0
1051.0
1054.0
1052.0
1050.0
1047.0
1045.0
1047.0
1047.0
1043.0
1040.0
1038.0
1039.0
1041.0
1042.0
1044.0
1039.0
1037.0
1038.0
1041.0
1040.0
1041.0
1037.0
1035.0
1036.0
1040.0
1039.0
1040.0
1039.0
1036.0
1035.0
1036.0
1040.0
1040.0
1039.0
1036.0
1037.0
1040.0
1044.0
1040.0
1037.0
1037.0
1040.0
1043.0
1049.0
1050.0
1052.0
1053.0
1059.0
1074.0
1085.0
1095.0
1100.0
1109.0
1126.0
1151.0
1178.0
1201.0
1225.0
1249.0
1277.0
1308.0
1341.0
1377.0
1416.0
1441.0
1445.0
1422.0
1363.0
1277.0
1186.0
1117.0
1072.0
1049.0
1038.0
1037.0
1036.0
1036.0
1035.0
1037.0
1038.0
1035.0
1031.0
1027.0
1023.0
1025.0
1024.0
1022.0
1019.0
1015.0
1014.0
1018.0
1020.0
1019.0
1015.0
1011.0
1013.0
1012.0
1018.0
1017.0
1014.0
1013.0
1012.0
1013.0
1014.0
1012.0
1011.0
1009.0
1008.0
1011.0
1010.0
1009.0
1007.0
1006.0
1007.0
1011.0
1011.0
1012.0
1007.0
1002.0
1003.0
1006.0
1009.0
1007.0
1006.0
1005.0
1007.0
1006.0
1007.0
1006.0
1003.0
1000.0
1004.0
1005.0
1008.0
1008.0
1004.0
1002.0
1003.0
1005.0
1010.0
1009.0
1007.0
1004.0
1005.0
1007.0
1009.0
1008.0
1005.0
1005.0
1006.0
1011.0
1015.0
1014.0
1013.0
1011.0
1013.0
1016.0
1019.0
1019.0
1019.0
1018.0
1020.0
1025.0
1030.0
1030.0
1031.0
1030.0
1034.0
1037.0
1042.0
1042.0
1045.0
1045.0
1049.0
1052.0
1058.0
1060.0
1059.0
1057.0
1061.0
1065.0
1070.0
1069.0
1067.0
1065.0
1066.0
1069.0
1067.0
1065.0
1060.0
1059.0
1060.0
1060.0
1059.0
1055.0
1050.0
1048.0
1045.0
1048.0
1049.0
1048.0
1043.0
1042.0
1041.0
1042.0
1045.0
1044.0
1043.0
1041.0
1041.0
1044.0
1042.0
1042.0
1039.0
1038.0
1039.0
1041.0
1044.0
1043.0
1039.0
1036.0
1036.0
1037.0
1044.0
1041.0
1038.0
1037.0
1036.0
1039.0
1040.0
1039.0
1034.0
1032.0
1035.0
1035.0
1038.0
1035.0
1032.0
1031.0
1031.0
1034.0
1038.0
1034.0
1035.0
1032.0
1031.0
1033.0
1038.0
1036.0
1034.0
1033.0
1032.0
1035.0
1039.0
1038.0
1035.0
1033.0
1036.0
1035.0
1042.0
1038.0
1036.0
1032.0
1034.0
1034.0
1037.0
1036.0
1034.0
1031.0
1033.0
1034.0
1036.0
1036.0
1034.0
1028.0
1031.0
1033.0
1036.0
1032.0
1027.0
1028.0
1030.0
1032.0
1037.0
1031.0
1028.0
1027.0
1026.0
1030.0
1034.0
1032.0
1029.0
1028.0
1028.0
1031.0
1033.0
1031.0
1029.0
1027.0
1029.0
1030.0
1031.0
1031.0
1028.0
1027.0
1029.0
1030.0
1031.0
1028.0
1027.0
1026.0
1026.0
1030.0
1033.0
1031.0
