# Simple Text Format
# Sampling Rate (Hz):= 360.00
# Resolution:= 12
# Labels:= ECG
1029.0
1031.0
1034.0
1032.0
1034.0
1032.0
1033.0
1032.0
1034.0
1031.0
1031.0
1028.0
1028.0
1031.0
1031.0
1033.0
1031.0
1030.0
1030.0
1034.0
1037.0
1033.0
1030.0
1029.0
1030.0
1033.0
1036.0
1033.0
1030.0
1028.0
1030.0
1030.0
1031.0
1033.0
1029.0
1028.0
1027.0
1027.0
1033.0
1033.0
1029.0
1023.0
1023.0
1024.0
1027.0
1031.0
1024.0
1026.0
1022.0
1027.0
1029.0
1026.0
1025.0
1024.0
1024.0
1024.0
1028.0
1027.0
1024.0
1023.0
1023.0
1023.0
1026.0
1027.0
1025.0
1024.0
1024.0
1025.0
1023.0
1020.0
1021.0
1022.0
1023.0
1020.0
1020.0
1022.0
1017.0
1017.0
1022.0
1024.0
1025.0
1025.0
1021.0
1018.0
1018.0
1021.0
1022.0
1021.0
1019.0
1020.0
1021.0
1022.0
1021.0
1022.0
1022.0
1018.0
1017.0
1020.0
1022.0
1021.0
1017.0
1018.0
1021.0
1024.0
1027.0
1024.0
1020.0
1018.0
1020.0
1022.0
1024.0
1022.0
1015.0
1015.0
1014.0
1019.0
1024.0
1023.0
1020.0
1018.0
1020.0
1022.0
1023.0
1021.0
1019.0
1017.0
1020.0
1025.0
1028.0
1023.0
1021.0
1019.0
1020.0
1024.0
1029.0
1028.0
1024.0
1020.0
1021.0
1025.0
1029.0
1030.0
1026.0
1023.0
1022.0
1027.0
1028.0
1024.0
1020.0
1018.0
1022.0
1025.0
1027.0
1031.0
1031.0
1033.0
1034.0
1036.0
1038.0
1037.0
1035.0
1035.0
1038.0
1040.0
1044.0
1040.0
1035.0
1030.0
1028.0
1029.0
1033.0
1032.0
1030.0
1029.0
1032.0
1033.0
1033.0
1033.0
1028.0
1030.0
1030.0
1034.0
1037.0
1036.0
1032.0
1031.0
1030.0
1028.0
1026.0
1026.0
1024.0
1026.0
1028.0
1027.0
1029.0
1026.0
1029.0
1026.0
1023.0
1020.0
1023.0
1023.0
1022.0
1023.0
1024.0
1026.0
1028.0
1027.0
1025.0
1023.0
1024.0
1024.0
1027.0
1025.0
1020.0
1020.0
1023.0
1027.0
1029.0
1029.0
1028.0
1029.0
1029.0
1034.0
1038.0
1038.0
1040.0
1048.0
1064.0
1077.0
1085.0
1091.0
1098.0
1112.0
1139.0
1165.0
1190.0
1210.0
1233.0
1251.0
1282.0
1320.0
1358.0
1385.0
1391.0
1377.0
1335.0
1271.0
1190.0
1113.0
1058.0
1029.0
1017.0
1015.0
1020.0
1026.0
1025.0
1024.0
1024.0
1027.0
1026.0
1023.0
1018.0
1017.0
1018.0
1015.0
1016.0
1009.0
1009.0
1009.0
1011.0
1013.0
1014.0
1011.0
1007.0
1007.0
1007.0
1010.0
1012.0
1009.0
1007.0
1006.0
1006.0
1010.0
1011.0
1009.0
1007.0
1010.0
1009.0
1012.0
1014.0
1010.0
1005.0
1005.0
1008.0
1011.0
1011.0
1008.0
1006.0
1007.0
1006.0
1008.0
1010.0
1008.0
1008.0
1005.0
1007.0
1008.0
1011.0
1014.0
1013.0
1010.0
1010.0
1015.0
1017.0
1014.0
1011.0
1009.0
1012.0
1013.0
1015.0
1015.0
1015.0
1014.0
1015.0
1021.0
1022.0
1019.0
1017.0
1013.0
1017.0
1019.0
1022.0
1023.0
1022.0
1023.0
1026.0
1030.0
1033.0
1032.0
1031.0
1027.0
1029.0
1033.0
1041.0
1044.0
1042.0
1039.0
1037.0
1042.0
1050.0
1054.0
1055.0
1057.0
1056.0
1059.0
1062.0
1065.0
1068.0
1065.0
1070.0
1070.0
1073.0
1073.0
1075.0
1071.0
1072.0
1071.0
1072.0
1073.0
1068.0
1063.0
1062.0
1062.0
1064.0
1058.0
1054.0
1050.0
1047.0
1048.0
1051.0
1049.0
1044.0
1041.0
1039.0
1039.0
1044.0
1045.0
1041.0
1038.0
1037.0
1035.0
1037.0
1040.0
1039.0
1035.0
1038.0
1042.0
1042.0
1040.0
1037.0
1033.0
1035.0
1034.0
1037.0
1039.0
1034.0
1032.0
1030.0
1033.0
1037.0
1034.0
1034.0
1033.0
1034.0
1037.0
1037.0
1038.0
1034.0
1033.0
1034.0
1036.0
1037.0
1035.0
1033.0
1031.0
1032.0
1034.0
1033.0
1031.0
1031.0
1031.0
1033.0
1036.0
1035.0
1035.0
1033.0
1031.0
1032.0
1037.0
1042.0
1038.0
1033.0
1028.0
1028.0
1033.0
1037.0
1037.0
1035.0
1030.0
1030.0
1032.0
1036.0
1034.0
1033.0
1031.0
1031.0
1030.0
1030.0
1033.0
1031.0
1032.0
1033.0
1031.0
1031.0
1031.0
1034.0
1033.0
1036.0
1036.0
1033.0
1024.0
1023.0
1027.0
1031.0
1033.0
1035.0
1033.0
1030.0
1027.0
1029.0
1035.0
1036.0
1037.0
1033.0
1027.0
1026.0
1025.0
1030.0
1029.0
1027.0
1027.0
1031.0
1034.0
1037.0
1034.0
1029.0
1023.0
1023.0
1027.0
1031.0
1031.0
1031.0
1032.0
1032.0
1034.0
1035.0
1033.0
1030.0
1027.0
1032.0
1035.0
1034.0
1030.0
1027.0
1027.0
1028.0
1033.0
1039.0
1037.0
1031.0
1029.0
1028.0
1033.0
1039.0
1037.0
1035.0
1034.0
1035.0
1036.0
1041.0
1039.0
1035.0
1031.0
1029.0
1034.0
1036.0
1034.0
1033.0
1034.0
1033.0
1033.0
1035.0
1035.0
1035.0
1034.0
1033.0
1034.0
1035.0
1034.0
1036.0
1034.0
1035.0
1036.0
1038.0
1035.0
1035.0
1032.0
1037.0
1040.0
1040.0
1040.0
1041.0
1037.0
1039.0
1043.0
1044.0
1046.0
1046.0
1040.0
1038.0
1038.0
1042.0
1046.0
1046.0
1041.0
1044.0
1049.0
1056.0
1055.0
1052.0
1049.0
1049.0
1052.0
1051.0
1050.0
1048.0
1044.0
1047.0
1052.0
1053.0
1054.0
1049.0
1047.0
1045.0
1049.0
1050.0
1050.0
1050.0
1047.0
1050.0
1050.0
1051.0
1051.0
1045.0
1041.0
1039.0
1044.0
1044.0
1046.0
1044.0
1045.0
1046.0
1046.0
1046.0
1043.0
1041.0
1039.0
1041.0
1045.0
1045.0
1045.0
1041.0
1039.0
1042.0
1045.0
1045.0
1043.0
1039.0
1040.0
1042.0
1043.0
1048.0
1045.0
1043.0
1042.0
1043.0
1042.0
1043.0
1047.0
1046.0
1047.0
1051.0
1056.0
1065.0
1068.0
1074.0
1082.0
1088.0
1101.0
1112.0
1130.0
1148.0
1170.0
1193.0
1219.0
1241.0
1265.0
1296.0
1328.0
1367.0
1395.0
1398.0
1361.0
1293.0
1200.0
1115.0
1063.0
1040.0
1030.0
1031.0
1036.0
1040.0
1045.0
1044.0
1042.0
1039.0
1035.0
1034.0
1036.0
1034.0
1031.0
1029.0
1026.0
1028.0
1029.0
1030.0
1026.0
1023.0
1024.0
1027.0
1029.0
1033.0
1032.0
1032.0
1027.0
1024.0
1028.0
1030.0
1029.0
1024.0
1022.0
1025.0
1025.0
1026.0
1026.0
1024.0
1025.0
1025.0
1031.0
1028.0
1031.0
1024.0
1022.0
1023.0
1027.0
1027.0
1033.0
1031.0
1032.0
1031.0
1030.0
1031.0
1030.0
1031.0
1027.0
1028.0
1031.0
1034.0
1036.0
1037.0
1033.0
1034.0
1037.0
1039.0
1041.0
1040.0
1041.0
1043.0
1045.0
1048.0
1051.0
1050.0
1051.0
1049.0
1050.0
1056.0
1061.0
1061.0
1064.0
1065.0
1070.0
1074.0
1079.0
1079.0
1079.0
1081.0
1087.0
1095.0
1097.0
1095.0
1092.0
1092.0
1091.0
1088.0
1087.0
1084.0
1084.0
1085.0
1082.0
1080.0
1077.0
1071.0
1070.0
1070.0
1070.0
1070.0
1068.0
1066.0
1061.0
1059.0
1059.0
1059.0
1059.0
1061.0
1058.0
1059.0
1058.0
1059.0
1054.0
1052.0
1050.0
1054.0
1054.0
1053.0
1054.0
1051.0
1048.0
1051.0
1055.0
1058.0
1057.0
1050.0
1047.0
1046.0
1050.0
1054.0
1051.0
1051.0
1046.0
1046.0
1050.0
1053.0
1053.0
1048.0
1043.0
1045.0
1049.0
1051.0
1052.0
1051.0
1046.0
1046.0
1048.0
1051.0
1052.0
1050.0
1050.0
1049.0
1052.0
1052.0
1052.0
1051.0
1050.0
1048.0
1048.0
1045.0
1046.0
1047.0
1048.0
1051.0
1052.0
1051.0
1052.0
1048.0
1046.0
1046.0
1051.0
1054.0
1052.0
1051.0
1050.0
1051.0
1050.0
1051.0
1051.0
1047.0
1046.0
1047.0
1049.0
1052.0
1052.0
1049.0
1044.0
1045.0
1046.0
1049.0
1046.0
1046.0
1044.0
1045.0
1049.0
1050.0
1046.0
1044.0
1040.0
1043.0
1046.0
1050.0
1046.0
1044.0
1041.0
1042.0
1044.0
1047.0
1044.0
1044.0
1043.0
1046.0
1049.0
1050.0
1044.0
1038.0
1039.0
1040.0
1046.0
1049.0
1050.0
1046.0
1041.0
1039.0
1043.0
1045.0
1043.0
1040.0
1040.0
1041.0
1043.0
1042.0
1042.0
1037.0
1037.0
1041.0
1046.0
1047.0
1045.0
1039.0
1037.0
1039.0
1044.0
1046.0
1045.0
1042.0
1040.0
1042.0
1042.0
1042.0
1041.0
1040.0
1040.0
1039.0
1041.0
1042.0
1040.0
1038.0
1035.0
1037.0
1041.0
1042.0
1043.0
1040.0
1043.0
1043.0
1045.0
1045.0
1046.0
1041.0
1041.0
1041.0
1043.0
1043.0
1044.0
1039.0
1038.0
1041.0
1044.0
1046.0
1041.0
1041.0
1038.0
1042.0
1045.0
1050.0
1049.0
1047.0
1041.0
1045.0
1047.0
1051.0
1053.0
1054.0
1055.0
1057.0
1058.0
1055.0
1057.0
1050.0
1048.0
1048.0
1047.0
1046.0
1049.0
1048.0
1049.0
1050.0
1051.0
1054.0
1052.0
1051.0
1048.0
1051.0
1052.0
1050.0
1050.0
1048.0
1044.0
1044.0
1045.0
1045.0
1041.0
1037.0
1036.0
1041.0
1046.0
1046.0
1046.0
1040.0
1039.0
1039.0
1040.0
1042.0
1044.0
1043.0
1041.0
1040.0
1042.0
1041.0
1039.0
1039.0
1038.0
1041.0
1045.0
1046.0
1042.0
1039.0
1039.0
1038.0
1039.0
1045.0
1046.0
1047.0
1046.0
1054.0
1062.0
1072.0
1081.0
1088.0
1092.0
1099.0
1114.0
1132.0
1152.0
1172.0
1195.0
1219.0
1246.0
1277.0
1312.0
1348.0
1376.0
1380.0
1353.0
1290.0
1199.0
1111.0
1056.0
1032.0
1026.0
1025.0
1030.0
1028.0
1029.0
1035.0
1038.0
1038.0
1032.0
1027.0
1026.0
1028.0
1031.0
1031.0
1025.0
1020.0
1023.0
1025.0
1024.0
1025.0
1021.0
1020.0
1017.0
1023.0
1025.0
1027.0
1024.0
1020.0
1022.0
1023.0
1026.0
1027.0
1022.0
1017.0
1017.0
1020.0
1021.0
1026.0
1020.0
1019.0
1017.0
1021.0
1021.0
1023.0
1023.0
1020.0
1020.0
1023.0
1023.0
1026.0
1023.0
1020.0
1023.0
1026.0
1029.0
1029.0
1026.0
1024.0
1023.0
1022.0
1025.0
1026.0
1025.0
1025.0
1026.0
1031.0
1035.0
1034.0
1027.0
1026.0
1025.0
1030.0
1035.0
1036.0
1037.0
1031.0
1031.0
1035.0
1040.0
1045.0
1043.0
1044.0
1045.0
1049.0
1054.0
1054.0
1053.0
1050.0
1050.0
1057.0
1062.0
1067.0
1070.0
1068.0
1070.0
1074.0
1079.0
1082.0
1080.0
1075.0
1071.0
1076.0
1079.0
1082.0
1079.0
1076.0
1073.0
1074.0
1074.0
1074.0
1069.0
1063.0
1061.0
1060.0
1060.0
1060.0
1057.0
1055.0
1050.0
1049.0
1050.0
1048.0
1046.0
1044.0
1042.0
1046.0
1045.0
1047.0
1047.0
1046.0
1042.0
1045.0
1044.0
1043.0
1040.0
1039.0
1038.0
1040.0
1038.0
1036.0
1036.0
1033.0
1036.0
1037.0
1039.0
1039.0
1040.0
1037.0
1036.0
1037.0
1036.0
1036.0
1035.0
1032.0
1034.0
1035.0
1038.0
1039.0
1036.0
1035.0
1033.0
1035.0
1039.0
1040.0
1039.0
1034.0
1029.0
1029.0
1033.0
1036.0
1036.0
1031.0
1032.0
1031.0
1037.0
1036.0
1034.0
1033.0
1031.0
1035.0
1037.0
1038.0
1034.0
1033.0
1032.0
1034.0
1037.0
1038.0
1037.0
1035.0
1037.0
1044.0
1052.0
1062.0
1072.0
1084.0
1105.0
1134.0
1157.0
1169.0
1166.0
1153.0
1134.0
1099.0
1040.0
964.0
871.0
772.0
702.0
672.0
670.0
670.0
671.0
676.0
687.0
708.0
736.0
762.0
788.0
809.0
833.0
852.0
871.0
885.0
897.0
907.0
921.0
934.0
945.0
952.0
955.0
959.0
968.0
981.0
994.0
1002.0
1012.0
1019.0
1025.0
1033.0
1045.0
1053.0
1054.0
1054.0
1055.0
1061.0
1064.0
1069.0
1071.0
1071.0
1072.0
1078.0
1079.0
1079.0
1078.0
1075.0
1074.0
1077.0
1085.0
1089.0
1089.0
1088.0
1088.0
1089.0
1092.0
1099.0
1098.0
1100.0
1099.0
1102.0
1108.0
1110.0
1109.0
1107.0
1111.0
1117.0
1122.0
1129.0
1128.0
1127.0
1128.0
1131.0
1140.0
1146.0
1149.0
1153.0
1155.0
1163.0
1171.0
1177.0
1180.0
1182.0
1188.0
1196.0
1204.0
1212.0
1216.0
1218.0
1221.0
1225.0
1236.0
1244.0
1246.0
1245.0
1245.0
1249.0
1256.0
1255.0
1252.0
1245.0
1242.0
1243.0
1244.0
1242.0
1235.0
1227.0
1223.0
1220.0
1216.0
1210.0
1201.0
1189.0
1185.0
1179.0
1177.0
1172.0
1165.0
1155.0
1149.0
1145.0
1143.0
1137.0
1128.0
1115.0
1106.0
1103.0
1104.0
1100.0
1094.0
1087.0
1079.0
1077.0
1075.0
1074.0
1068.0
1063.0
1059.0
1059.0
1060.0
1058.0
1055.0
1048.0
1045.0
1045.0
1049.0
1048.0
1046.0
1042.0
1039.0
1041.0
1043.0
1045.0
1042.0
1042.0
1040.0
1040.0
1041.0
1039.0
1036.0
1034.0
1034.0
1037.0
1037.0
1035.0
1035.0
1031.0
1031.0
1031.0
1034.0
1036.0
1034.0
1034.0
1030.0
1028.0
1028.0
1030.0
1028.0
1029.0
1027.0
1025.0
1028.0
1026.0
1024.0
1022.0
1021.0
1024.0
1026.0
1026.0
1023.0
1021.0
1023.0
1027.0
1029.0
1027.0
1027.0
1022.0
1019.0
1015.0
1014.0
1015.0
1016.0
1016.0
1012.0
1015.0
1014.0
1018.0
1014.0
1009.0
1008.0
1011.0
1013.0
1016.0
1015.0
1011.0
1011.0
1011.0
1013.0
1013.0
1011.0
1009.0
1008.0
1012.0
1015.0
1014.0
1013.0
1008.0
1012.0
1014.0
1016.0
1016.0
1011.0
1005.0
1004.0
1005.0
1010.0
1016.0
1011.0
1007.0
1001.0
1002.0
1006.0
1007.0
1006.0
1002.0
1000.0
1003.0
1007.0
1007.0
1005.0
1002.0
1002.0
1004.0
1007.0
1006.0
1001.0
1002.0
998.0
1003.0
1003.0
1002.0
1000.0
998.0
1003.0
1007.0
1008.0
1008.0
1004.0
1000.0
1001.0
1002.0
1002.0
1008.0
1006.0
1003.0
1001.0
1002.0
1005.0
1004.0
1005.0
1002.0
1000.0
1001.0
1000.0
1001.0
1002.0
997.0
999.0
1002.0
1006.0
1005.0
1004.0
999.0
998.0
1001.0
1003.0
1003.0
1001.0
998.0
999.0
1001.0
1003.0
1006.0
1004.0
998.0
998.0
999.0
1002.0
1006.0
1003.0
1001.0
1002.0
1000.0
1003.0
1001.0
998.0
992.0
995.0
997.0
1000.0
1005.0
1002.0
999.0
998.0
1001.0
1005.0
1004.0
1003.0
1002.0
1002.0
1002.0
1006.0
1007.0
1006.0
1001.0
1004.0
1005.0
1006.0
1005.0
1002.0
1001.0
1003.0
1003.0
1007.0
1007.0
1006.0
1003.0
999.0
1004.0
1002.0
1004.0
1003.0
1000.0
1001.0
1002.0
1005.0
1009.0
1004.0
1003.0
1003.0
1003.0
1005.0
1007.0
1005.0
1003.0
1001.0
1003.0
1006.0
1009.0
1004.0
1006.0
1005.0
1008.0
1011.0
1008.0
1007.0
1009.0
1007.0
1010.0
1012.0
1013.0
1013.0
1009.0
1011.0
1014.0
1015.0
1015.0
1012.0
1011.0
1007.0
1011.0
1014.0
1016.0
1015.0
1009.0
1009.0
1011.0
1012.0
1015.0
1016.0
1011.0
1013.0
1012.0
1015.0
1017.0
1015.0
1012.0
1010.0
1013.0
1014.0
1016.0
1011.0
1011.0
1010.0
1010.0
1015.0
1015.0
1015.0
1013.0
1011.0
1011.0
1015.0
1014.0
1012.0
1013.0
1014.0
1014.0
1015.0
1017.0
1015.0
1013.0
1010.0
1016.0
1020.0
1021.0
1019.0
1015.0
1016.0
1016.0
1021.0
1021.0
1019.0
1018.0
1016.0
1018.0
1020.0
1021.0
1019.0
1019.0
1019.0
1022.0
1024.0
1021.0
1021.0
1018.0
1019.0
1021.0
1022.0
1025.0
1021.0
1020.0
1020.0
1020.0
1024.0
1023.0
1022.0
1019.0
1020.0
1020.0
1021.0
1021.0
1017.0
1017.0
1017.0
1015.0
1019.0
1021.0
1021.0
1023.0
1022.0
1025.0
1028.0
1027.0
1026.0
1026.0
1026.0
1029.0
1032.0
1030.0
1027.0
1021.0
1021.0
1021.0
1027.0
1026.0
1027.0
1024.0
1026.0
1028.0
1032.0
1033.0
1032.0
1026.0
1025.0
1023.0
1025.0
1026.0
1023.0
1020.0
1020.0
1022.0
1027.0
1025.0
1023.0
1021.0
1020.0
1024.0
1023.0
1024.0
1022.0
1021.0
1017.0
1023.0
1023.0
1024.0
1024.0
1021.0
1020.0
1022.0
1025.0
1029.0
1025.0
1025.0
1023.0
1026.0
1030.0
1033.0
1037.0
1041.0
1047.0
1060.0
1068.0
1075.0
1086.0
1102.0
1125.0
1154.0
1183.0
1215.0
1245.0
1281.0
1320.0
1366.0
1401.0
1403.0
1366.0
1292.0
1197.0
1115.0
1057.0
1028.0
1022.0
1022.0
1026.0
1029.0
1030.0
1028.0
1025.0
1020.0
1017.0
1017.0
1015.0
1011.0
1010.0
1008.0
1007.0
1006.0
1011.0
1011.0
1008.0
1004.0
1000.0
1002.0
1004.0
1006.0
1004.0
1002.0
1001.0
1000.0
1004.0
1004.0
1002.0
998.0
999.0
1003.0
1004.0
1004.0
1002.0
1000.0
1000.0
1003.0
1006.0
1006.0
1005.0
1002.0
998.0
1001.0
1004.0
1005.0
1004.0
1003.0
1001.0
1005.0
1007.0
1008.0
1005.0
1002.0
1001.0
1007.0
1012.0
1012.0
1009.0
1004.0
1005.0
1011.0
1012.0
1014.0
1013.0
1009.0
1011.0
1010.0
1014.0
1016.0
1013.0
1014.0
1013.0
1018.0
1020.0
1018.0
1018.0
1015.0
1018.0
1021.0
1023.0
1024.0
1024.0
1022.0
1021.0
1024.0
1029.0
1034.0
1034.0
1031.0
1034.0
1035.0
1039.0
1038.0
1042.0
1042.0
1043.0
1048.0
1054.0
1057.0
1059.0
1058.0
1060.0
1068.0
1068.0
1071.0
1071.0
1070.0
1069.0
1070.0
1072.0
1073.0
1072.0
1066.0
1063.0
1064.0
1068.0
1065.0
1063.0
1059.0
1059.0
1061.0
1061.0
1060.0
1055.0
1049.0
1047.0
1053.0
1052.0
1051.0
1044.0
1041.0
1040.0
1045.0
1047.0
1046.0
1046.0
1040.0
1039.0
1038.0
1040.0
1038.0
1039.0
1036.0
1038.0
1040.0
1041.0
1044.0
1039.0
1039.0
1037.0
1039.0
1041.0
1044.0
1039.0
1037.0
1037.0
1038.0
1040.0
1041.0
1039.0
1036.0
1038.0
1038.0
1041.0
1041.0
1040.0
1037.0
1035.0
1039.0
1039.0
1042.0
1039.0
1036.0
1035.0
1039.0
1039.0
1041.0
1039.0
1034.0
1032.0
1035.0
1037.0
1038.0
1036.0
1035.0
1032.0
1035.0
1034.0
1037.0
1033.0
1032.0
1030.0
1032.0
1033.0
1034.0
1031.0
1030.0
1026.0
1029.0
1033.0
1031.0
1030.0
1030.0
1027.0
1028.0
1030.0
1028.0
1027.0
1027.0
1025.0
1027.0
1029.0
1032.0
1027.0
1026.0
1024.0
1026.0
1030.0
1032.0
1031.0
1028.0
1029.0
1025.0
1027.0
1027.0
1024.0
1022.0
1022.0
1023.0
1028.0
1029.0
1024.0
1025.0
1026.0
1025.0
1028.0
1030.0
1025.0
1023.0
1023.0
1027.0
1029.0
1028.0
1027.0
1025.0
1025.0
1027.0
1028.0
1027.0
1025.0
1023.0
1023.0
1026.0
1029.0
1030.0
1028.0
1025.0
1022.0
1023.0
1027.0
1028.0
1026.0
1024.0
1024.0
1026.0
1028.0
1029.0
1026.0
1027.0
1024.0
1027.0
1031.0
1031.0
1027.0
1023.0
1023.0
1025.0
1030.0
1031.0
1028.0
1023.0
1022.0
1023.0
1025.0
1026.0
1028.0
1024.0
1025.0
1028.0
1026.0
1027.0
1025.0
1020.0
1024.0
1027.0
1030.0
1029.0
1026.0
1023.0
1024.0
1026.0
1027.0
1031.0
1030.0
1028.0
1032.0
1033.0
1036.0
1037.0
1037.0
1033.0
1034.0
1039.0
1042.0
1041.0
1041.0
1038.0
1038.0
1038.0
1039.0
1039.0
1036.0
1034.0
1035.0
1034.0
1037.0
1040.0
1037.0
1037.0
1036.0
1036.0
1037.0
1037.0
1035.0
1036.0
1036.0
1036.0
1036.0
1035.0
1032.0
1027.0
1030.0
1028.0
1030.0
1029.0
1029.0
1027.0
1029.0
1028.0
1029.0
1029.0
1029.0
1028.0
1028.0
1031.0
1034.0
1033.0
1031.0
1029.0
1026.0
1031.0
1030.0
1031.0
1030.0
1028.0
1032.0
1032.0
1035.0
1033.0
1032.0
1031.0
1029.0
1034.0
1036.0
1037.0
1038.0
1039.0
1044.0
1053.0
1064.0
1072.0
1079.0
1082.0
1087.0
1101.0
1115.0
1135.0
1155.0
1177.0
1200.0
1232.0
1259.0
1286.0
1320.0
1356.0
1389.0
1404.0
1396.0
1356.0
1284.0
1194.0
1124.0
1076.0
1049.0
1035.0
1030.0
1029.0
1028.0
1031.0
1031.0
1030.0
1029.0
1023.0
1020.0
1017.0
1018.0
1017.0
1013.0
1012.0
1010.0
1012.0
1011.0
1012.0
1011.0
1007.0
1006.0
1007.0
1011.0
1011.0
1010.0
1006.0
1006.0
1008.0
1011.0
1010.0
1007.0
1007.0
1005.0
1007.0
1007.0
1009.0
1005.0
1006.0
1006.0
1007.0
1008.0
1008.0
1003.0
1000.0
1003.0
1006.0
1008.0
1007.0
1006.0
1004.0
1004.0
1008.0
1009.0
1007.0
1007.0
1003.0
1003.0
1008.0
1012.0
1009.0
1009.0
1004.0
1002.0
1006.0
1013.0
1014.0
1008.0
1009.0
1007.0
1009.0
1011.0
1012.0
1010.0
1008.0
1010.0
1010.0
1011.0
1014.0
1012.0
1009.0
1011.0
1014.0
1017.0
1017.0
1016.0
1012.0
1012.0
1016.0
1020.0
1021.0
1021.0
1021.0
1020.0
1025.0
1027.0
1027.0
1028.0
1027.0
1028.0
1034.0
1036.0
1041.0
1041.0
1042.0
1044.0
1047.0
1052.0
1053.0
1053.0
1052.0
1053.0
1060.0
1060.0
1061.0
1061.0
1059.0
1058.0
1058.0
1060.0
1057.0
1055.0
1052.0
1047.0
1048.0
1048.0
1048.0
1046.0
1042.0
1040.0
1040.0
1042.0
1041.0
1040.0
1035.0
1037.0
1039.0
1039.0
1037.0
1034.0
1034.0
1034.0
1036.0
1035.0
1035.0
1032.0
1031.0
1031.0
1033.0
1037.0
1033.0
1031.0
1031.0
1031.0
1031.0
1034.0
1034.0
1033.0
1033.0
1032.0
1033.0
1034.0
1034.0
1031.0
1030.0
1030.0
1030.0
1035.0
1032.0
1032.0
1028.0
1028.0
1030.0
1031.0
1036.0
1031.0
1030.0
1031.0
1033.0
1030.0
1032.0
1032.0
1029.0
1028.0
1031.0
1031.0
1032.0
1029.0
1025.0
1028.0
1029.0
1031.0
1031.0
1027.0
1026.0
1024.0
1025.0
1028.0
1030.0
1026.0
1024.0
1025.0
1025.0
1029.0
1028.0
1024.0
1022.0
1023.0
1024.0
1026.0
1026.0
1025.0
1021.0
1020.0
1021.0
1025.0
1024.0
1024.0
1020.0
1019.0
1021.0
1023.0
1022.0
1021.0
1019.0
1021.0
1022.0
1025.0
1024.0
1023.0
1019.0
1019.0
1021.0
1023.0
1023.0
1021.0
1018.0
1016.0
1020.0
1022.0
1022.0
1023.0
1019.0
1022.0
1022.0
1023.0
1024.0
1022.0
1020.0
1020.0
1021.0
1025.0
1026.0
1024.0
1020.0
1020.0
1020.0
1021.0
1022.0
1022.0
1019.0
1022.0
1023.0
1024.0
1024.0
1021.0
1020.0
1019.0
1022.0
1025.0
1026.0
1025.0
1022.0
1021.0
1024.0
1028.0
1026.0
1027.0
1024.0
1025.0
1027.0
1030.0
1026.0
1025.0
1024.0
1021.0
1026.0
1028.0
1028.0
1028.0
1022.0
1022.0
1027.0
1029.0
1030.0
1029.0
1026.0
1025.0
1027.0
1026.0
1026.0
1024.0
1025.0
1023.0
1029.0
1029.0
1030.0
1029.0
1027.0
1027.0
1030.0
1035.0
1033.0
1035.0
1032.0
1034.0
1034.0
1037.0
1038.0
1036.0
1037.0
1038.0
1038.0
1041.0
1040.0
1038.0
1032.0
1032.0
1035.0
1037.0
1035.0
1032.0
1032.0
1031.0
1035.0
1038.0
1039.0
1037.0
1033.0
1032.0
1035.0
1038.0
1039.0
1038.0
1033.0
1031.0
1033.0
1034.0
1030.0
1030.0
1027.0
1028.0
1030.0
1032.0
1033.0
1030.0
1028.0
1028.0
1032.0
1034.0
1032.0
1031.0
1028.0
1029.0
1032.0
1035.0
1035.0
1032.0
1031.0
1032.0
1030.0
1033.0
1033.0
1032.0
1028.0
1033.0
1034.0
1038.0
1036.0
1033.0
1033.0
1034.0
1040.0
1046.0
1048.0
1051.0
1056.0
1068.0
1078.0
1091.0
1096.0
1107.0
1122.0
1147.0
1177.0
1207.0
1234.0
1257.0
1282.0
1317.0
1360.0
1400.0
1424.0
1422.0
1389.0
1327.0
1245.0
1168.0
1107.0
1063.0
1033.0
1025.0
1030.0
1032.0
1034.0
1031.0
1028.0
1027.0
1027.0
1028.0
1024.0
1020.0
1017.0
1014.0
1014.0
1016.0
1015.0
1013.0
1013.0
1010.0
1013.0
1015.0
1014.0
1013.0
1011.0
1008.0
1012.0
1013.0
1014.0
1012.0
1007.0
1009.0
1009.0
1012.0
1009.0
1010.0
1007.0
1006.0
1008.0
1010.0
1011.0
1008.0
1008.0
1006.0
1008.0
1012.0
1010.0
1006.0
1005.0
1006.0
1011.0
1014.0
1011.0
1013.0
1009.0
1010.0
1009.0
1014.0
1014.0
1012.0
1015.0
1013.0
1013.0
1019.0
1016.0
1015.0
1012.0
1014.0
1017.0
1022.0
1020.0
1020.0
1016.0
1020.0
1020.0
1023.0
1023.0
1022.0
1022.0
1023.0
1026.0
1030.0
1029.0
1028.0
1028.0
1028.0
1033.0
1036.0
1039.0
1035.0
1038.0
1039.0
1042.0
1048.0
1051.0
1053.0
1051.0
1055.0
1055.0
1062.0
1067.0
1066.0
1065.0
1069.0
1073.0
1076.0
1076.0
1077.0
1076.0
1074.0
1078.0
1081.0
1079.0
1077.0
1072.0
1075.0
1076.0
1074.0
1073.0
1069.0
1063.0
1064.0
1064.0
1062.0
1062.0
1055.0
1052.0
1051.0
1050.0
1055.0
1052.0
1050.0
1045.0
1045.0
1047.0
1048.0
1050.0
1047.0
1045.0
1044.0
1048.0
1049.0
1048.0
1046.0
1044.0
1044.0
1046.0
1049.0
1046.0
1046.0
1042.0
1042.0
1042.0
1043.0
1042.0
1041.0
1039.0
1042.0
1043.0
1046.0
1044.0
1043.0
1042.0
1039.0
1042.0
1045.0
1041.0
1041.0
1037.0
1039.0
1041.0
1043.0
1043.0
1041.0
1040.0
1041.0
1046.0
1047.0
1047.0
1044.0
1040.0
1041.0
1043.0
1048.0
1049.0
1044.0
1041.0
1040.0
1047.0
1047.0
1050.0
1044.0
1043.0
1043.0
1045.0
1046.0
1045.0
1043.0
1041.0
1040.0
1044.0
1046.0
1048.0
1045.0
1042.0
1042.0
1043.0
1044.0
1041.0
1041.0
1042.0
1041.0
1047.0
1047.0
1044.0
1043.0
1038.0
1039.0
1041.0
1041.0
1041.0
1040.0
1035.0
1038.0
1039.0
1044.0
1044.0
1040.0
1038.0
1033.0
1036.0
1038.0
1037.0
1036.0
1033.0
1036.0
1037.0
1039.0
1038.0
1034.0
1033.0
1032.0
1037.0
1038.0
1036.0
1033.0
1033.0
1031.0
1035.0
1039.0
1037.0
1035.0
1033.0
1032.0
1033.0
1033.0
1034.0
1033.0
1030.0
1032.0
1033.0
1034.0
1031.0
1031.0
1030.0
1031.0
1033.0
1035.0
1035.0
1031.0
1031.0
1030.0
1033.0
1036.0
1036.0
1032.0
1028.0
1030.0
1033.0
1034.0
1036.0
1034.0
1032.0
1029.0
1030.0
1035.0
1033.0
1032.0
1029.0
1032.0
1033.0
1036.0
1035.0
1033.0
1030.0
1032.0
1033.0
1036.0
1036.0
1036.0
1032.0
1035.0
1039.0
1045.0
1045.0
1042.0
1042.0
1042.0
1044.0
1047.0
1045.0
1044.0
1042.0
1043.0
1045.0
1043.0
1038.0
1036.0
1033.0
1036.0
1042.0
1044.0
1044.0
1040.0
1039.0
1037.0
1042.0
1043.0
1044.0
1043.0
1040.0
1039.0
1038.0
1039.0
1035.0
1035.0
1032.0
1033.0
1034.0
1036.0
1038.0
1033.0
1031.0
1031.0
1034.0
1037.0
1035.0
1033.0
1029.0
1029.0
1032.0
1037.0
1036.0
1032.0
1030.0
1034.0
1035.0
1036.0
1034.0
1034.0
1035.0
1032.0
1038.0
1037.0
1038.0
1039.0
1037.0
1040.0
1046.0
1053.0
1055.0
1063.0
1069.0
1079.0
1092.0
1103.0
1116.0
1133.0
1158.0
1186.0
1218.0
1245.0
1269.0
1297.0
1327.0
1368.0
1407.0
1420.0
1403.0
1344.0
1254.0
1166.0
1099.0
1062.0
1044.0
1036.0
1031.0
1032.0
1031.0
1033.0
1031.0
1030.0
1023.0
1022.0
1021.0
1020.0
1017.0
1017.0
1011.0
1010.0
1013.0
1014.0
1014.0
1012.0
1009.0
1009.0
1012.0
1013.0
1012.0
1009.0
1007.0
1008.0
1008.0
1011.0
1009.0
1009.0
1005.0
1007.0
1008.0
1012.0
1011.0
1007.0
1006.0
1005.0
1005.0
1009.0
1007.0
1006.0
1005.0
1006.0
1007.0
1011.0
1008.0
1007.0
1002.0
1002.0
1007.0
1010.0
1011.0
1009.0
1005.0
1008.0
1007.0
1011.0
1011.0
1009.0
1008.0
1009.0
1010.0
1011.0
1010.0
1008.0
1007.0
1007.0
1011.0
1014.0
1014.0
1011.0
1011.0
1012.0
1015.0
1020.0
1019.0
1016.0
1017.0
1019.0
1021.0
1025.0
1024.0
1025.0
1025.0
1025.0
1032.0
1034.0
1037.0
1036.0
1035.0
1040.0
1046.0
1049.0
1052.0
1051.0
1051.0
1052.0
1058.0
1063.0
1065.0
1067.0
1067.0
1067.0
1071.0
1072.0
1071.0
1067.0
1063.0
1064.0
1068.0
1066.0
1063.0
1060.0
1056.0
1055.0
1054.0
1056.0
1053.0
1048.0
1045.0
1045.0
1045.0
1047.0
1046.0
1042.0
1037.0
1039.0
1042.0
1046.0
1043.0
1040.0
1035.0
1037.0
1040.0
1041.0
1041.0
1039.0
1035.0
1035.0
1038.0
1038.0
1038.0
1035.0
1035.0
1034.0
1037.0
1039.0
1038.0
1034.0
1035.0
1035.0
1035.0
1037.0
1039.0
1036.0
1033.0
1030.0
1033.0
1034.0
1034.0
1032.0
1030.0
1030.0
1033.0
1034.0
1033.0
1033.0
1029.0
1030.0
1031.0
1033.0
1034.0
1032.0
1029.0
1030.0
1032.0
1033.0
1032.0
1033.0
1027.0
1030.0
1033.0
1034.0
1034.0
1034.0
1030.0
1031.0
1034.0
1034.0
1032.0
1032.0
1029.0
1027.0
1031.0
1034.0
1034.0
1031.0
1026.0
1029.0
1030.0
1029.0
1030.0
1027.0
1026.0
1026.0
1028.0
1030.0
1028.0
1029.0
1028.0
1026.0
1029.0
1031.0
1029.0
1026.0
1023.0
1026.0
1029.0
1032.0
1029.0
1028.0
1024.0
1026.0
1027.0
1031.0
1031.0
1028.0
1025.0
1025.0
1026.0
1032.0
1029.0
1028.0
1030.0
1026.0
1029.0
1031.0
1030.0
1026.0
1026.0
1026.0
1028.0
1032.0
1029.0
1028.0
1027.0
1026.0
1030.0
1031.0
1030.0
1029.0
1026.0
1027.0
1031.0
1032.0
1033.0
1034.0
1029.0
1027.0
1033.0
1035.0
1034.0
1032.0
1027.0
1029.0
1033.0
1035.0
1032.0
1028.0
1028.0
1029.0
1030.0
1034.0
1034.0
1030.0
1030.0
1030.0
1032.0
1035.0
1035.0
1032.0
1034.0
1033.0
1035.0
1037.0
1034.0
1035.0
1034.0
1036.0
1038.0
1043.0
1046.0
1044.0
1040.0
1044.0
1048.0
1051.0
1049.0
1046.0
1047.0
1048.0
1049.0
1050.0
1047.0
1046.0
1042.0
1040.0
1042.0
1045.0
1045.0
1043.0
1041.0
1044.0
1046.0
1048.0
1048.0
1047.0
1046.0
1044.0
1045.0
1049.0
1046.0
1039.0
1037.0
1037.0
1039.0
1042.0
1042.0
1042.0
1038.0
1038.0
1040.0
1043.0
1041.0
1039.0
1039.0
1039.0
1040.0
1042.0
1040.0
1039.0
1039.0
1038.0
1042.0
1042.0
1043.0
1040.0
1038.0
1037.0
1043.0
1045.0
1044.0
1043.0
1041.0
1044.0
1050.0
1059.0
1062.0
1072.0
1079.0
1090.0
1101.0
1114.0
1130.0
1153.0
1178.0
1210.0
1240.0
1269.0
1296.0
1325.0
1359.0
1399.0
1431.0
1442.0
1421.0
1363.0
1279.0
1191.0
1122.0
1080.0
1052.0
1032.0
1031.0
1037.0
1040.0
1042.0
1041.0
1034.0
1029.0
1029.0
1027.0
1028.0
1026.0
1022.0
1022.0
1019.0
1022.0
1024.0
1025.0
1025.0
1020.0
1022.0
1022.0
1023.0
1023.0
1020.0
1017.0
1017.0
1021.0
1023.0
1023.0
1021.0
1015.0
1019.0
1019.0
1022.0
1025.0
1020.0
1015.0
1016.0
1020.0
1019.0
1021.0
1018.0
1018.0
1018.0
1017.0
1021.0
1022.0
1019.0
1015.0
1017.0
1020.0
1022.0
1023.0
1021.0
1018.0
1020.0
1022.0
1025.0
1026.0
1024.0
1022.0
1023.0
1026.0
1025.0
1028.0
1025.0
1025.0
1026.0
1029.0
1034.0
1035.0
1033.0
1029.0
1033.0
1035.0
1038.0
1040.0
1041.0
1040.0
1040.0
1046.0
1049.0
1051.0
1053.0
1053.0
1053.0
1059.0
1064.0
1065.0
1064.0
1068.0
1072.0
1076.0
1081.0
1083.0
1082.0
1084.0
1087.0
1092.0
1094.0
1094.0
1092.0
1091.0
1092.0
1092.0
1093.0
1089.0
1085.0
1080.0
1080.0
1080.0
1079.0
1075.0
1070.0
1067.0
1067.0
1066.0
1065.0
1063.0
1057.0
1056.0
1054.0
1056.0
1057.0
1053.0
1054.0
1053.0
1049.0
1053.0
1053.0
1052.0
1050.0
1048.0
1049.0
1050.0
1052.0
1052.0
1049.0
1048.0
1046.0
1049.0
1052.0
1049.0
1047.0
1045.0
1045.0
1047.0
1049.0
1048.0
1046.0
1044.0
1045.0
1049.0
1049.0
1048.0
1044.0
1044.0
1043.0
1047.0
1048.0
1046.0
1044.0
1042.0
1042.0
1045.0
1048.0
1047.0
1046.0
1042.0
1042.0
1045.0
1048.0
1047.0
1046.0
1045.0
1043.0
