# Simple Text Format
# Sampling Rate (Hz):= 360.00
# Resolution:= 12
# Labels:= ECG
1027.0
1024.0
1027.0
1027.0
1028.0
1028.0
1027.0
1026.0
1026.0
1027.0
1029.0
1029.0
1027.0
1025.0
1026.0
1029.0
1033.0
1027.0
1025.0
1025.0
1024.0
1027.0
1031.0
1030.0
1029.0
1025.0
1026.0
1029.0
1031.0
1030.0
1029.0
1024.0
1024.0
1029.0
1030.0
1030.0
1028.0
1025.0
1028.0
1029.0
1031.0
1031.0
1026.0
1025.0
1026.0
1030.0
1031.0
1031.0
1029.0
1026.0
1028.0
1028.0
1029.0
1031.0
1028.0
1029.0
1028.0
1029.0
1030.0
1031.0
1029.0
1028.0
1030.0
1035.0
1037.0
1038.0
1036.0
1035.0
1035.0
1038.0
1042.0
1042.0
1040.0
1038.0
1041.0
1043.0
1045.0
1043.0
1039.0
1035.0
1035.0
1037.0
1038.0
1037.0
1035.0
1032.0
1034.0
1038.0
1041.0
1039.0
1038.0
1038.0
1040.0
1042.0
1044.0
1043.0
1039.0
1035.0
1033.0
1033.0
1035.0
1034.0
1033.0
1027.0
1029.0
1032.0
1033.0
1032.0
1030.0
1030.0
1031.0
1034.0
1037.0
1032.0
1030.0
1027.0
1028.0
1032.0
1035.0
1032.0
1033.0
1030.0
1030.0
1033.0
1035.0
1032.0
1031.0
1029.0
1030.0
1034.0
1036.0
1036.0
1032.0
1031.0
1034.0
1039.0
1043.0
1045.0
1048.0
1054.0
1063.0
1075.0
1089.0
1098.0
1112.0
1129.0
1154.0
1186.0
1219.0
1246.0
1273.0
1300.0
1330.0
1367.0
1407.0
1442.0
1460.0
1452.0
1417.0
1351.0
1272.0
1187.0
1119.0
1073.0
1050.0
1041.0
1039.0
1039.0
1035.0
1035.0
1035.0
1035.0
1038.0
1032.0
1024.0
1019.0
1017.0
1018.0
1020.0
1019.0
1017.0
1014.0
1015.0
1015.0
1017.0
1017.0
1014.0
1013.0
1013.0
1016.0
1018.0
1014.0
1010.0
1009.0
1010.0
1011.0
1016.0
1011.0
1010.0
1006.0
1007.0
1009.0
1012.0
1010.0
1010.0
1006.0
1007.0
1008.0
1011.0
1009.0
1006.0
1005.0
1006.0
1009.0
1012.0
1011.0
1008.0
1006.0
1005.0
1007.0
1012.0
1011.0
1012.0
1011.0
1010.0
1010.0
1013.0
1009.0
1008.0
1009.0
1011.0
1013.0
1015.0
1013.0
1012.0
1011.0
1012.0
1014.0
1020.0
1018.0
1019.0
1017.0
1020.0
1022.0
1027.0
1027.0
1028.0
1029.0
1032.0
1035.0
1041.0
1042.0
1042.0
1043.0
1048.0
1053.0
1062.0
1062.0
1066.0
1064.0
1069.0
1075.0
1083.0
1082.0
1086.0
1083.0
1085.0
1088.0
1091.0
1087.0
1086.0
1082.0
1081.0
1082.0
1082.0
1077.0
1074.0
1067.0
1069.0
1068.0
1070.0
1066.0
1058.0
1057.0
1053.0
1054.0
1056.0
1056.0
1051.0
1049.0
1048.0
1051.0
1053.0
1050.0
1047.0
1047.0
1048.0
1050.0
1052.0
1052.0
1046.0
1046.0
1044.0
1048.0
1050.0
1051.0
1047.0
1044.0
1042.0
1044.0
1045.0
1046.0
1043.0
1043.0
1041.0
1044.0
1046.0
1044.0
1041.0
1037.0
1039.0
1043.0
1045.0
1043.0
1039.0
1040.0
1034.0
1038.0
1040.0
1043.0
1038.0
1036.0
1038.0
1038.0
1041.0
1042.0
1037.0
1038.0
1039.0
1040.0
1045.0
1041.0
1039.0
1040.0
1038.0
1046.0
1045.0
1047.0
1044.0
1042.0
1045.0
1044.0
1047.0
1049.0
1045.0
1044.0
1043.0
1046.0
1050.0
1048.0
1047.0
1043.0
1047.0
1049.0
1050.0
1051.0
1046.0
1044.0
1043.0
1048.0
1052.0
1051.0
1048.0
1046.0
1046.0
1049.0
1049.0
1048.0
1046.0
1047.0
1045.0
1046.0
1048.0
1048.0
1046.0
1045.0
1046.0
1047.0
1050.0
1046.0
1046.0
1045.0
1042.0
1046.0
1048.0
1048.0
1047.0
1042.0
1044.0
1044.0
1045.0
1046.0
1043.0
1044.0
1043.0
1047.0
1050.0
1047.0
1045.0
1041.0
1044.0
1047.0
1051.0
1047.0
1044.0
1045.0
1045.0
1048.0
1048.0
1047.0
1045.0
1043.0
1045.0
1049.0
1050.0
1049.0
1047.0
1045.0
1047.0
1047.0
1053.0
1050.0
1048.0
1047.0
1045.0
1051.0
1053.0
1051.0
1049.0
1047.0
1047.0
1050.0
1053.0
1053.0
1052.0
1051.0
1054.0
1058.0
1060.0
1057.0
1058.0
1054.0
1057.0
1063.0
1066.0
1063.0
1060.0
1057.0
1058.0
1061.0
1063.0
1058.0
1054.0
1053.0
1053.0
1054.0
1055.0
1058.0
1056.0
1054.0
1054.0
1059.0
1063.0
1061.0
1058.0
1054.0
1054.0
1057.0
1058.0
1054.0
1050.0
1045.0
1045.0
1049.0
1053.0
1050.0
1048.0
1047.0
1047.0
1048.0
1051.0
1048.0
1044.0
1044.0
1048.0
1049.0
1049.0
1049.0
1046.0
1043.0
1046.0
1047.0
1049.0
1050.0
1047.0
1043.0
1047.0
1047.0
1051.0
1052.0
1048.0
1048.0
1054.0
1059.0
1065.0
1070.0
1076.0
1084.0
1097.0
1111.0
1129.0
1145.0
1168.0
1197.0
1231.0
1265.0
1298.0
1328.0
1357.0
1393.0
1431.0
1458.0
1455.0
1416.0
1340.0
1249.0
1165.0
1106.0
1070.0
1054.0
1045.0
1045.0
1048.0
1050.0
1051.0
1049.0
1040.0
1036.0
1034.0
1035.0
1037.0
1035.0
1031.0
1027.0
1027.0
1030.0
1032.0
1030.0
1029.0
1029.0
1027.0
1030.0
1031.0
1030.0
1026.0
1026.0
1025.0
1029.0
1031.0
1029.0
1025.0
1024.0
1024.0
1026.0
1027.0
1027.0
1024.0
1023.0
1024.0
1023.0
1027.0
1026.0
1024.0
1019.0
1023.0
1026.0
1027.0
1026.0
1026.0
1023.0
1023.0
1026.0
1029.0
1026.0
1023.0
1024.0
1025.0
1029.0
1030.0
1028.0
1027.0
1027.0
1028.0
1030.0
1033.0
1034.0
1033.0
1033.0
1033.0
1037.0
1042.0
1041.0
1041.0
1041.0
1047.0
1050.0
1055.0
1056.0
1059.0
1058.0
1064.0
1070.0
1074.0
1077.0
1077.0
1079.0
1087.0
1092.0
1097.0
1101.0
1101.0
1101.0
1103.0
1106.0
1110.0
1107.0
1105.0
1101.0
1102.0
1102.0
1103.0
1096.0
1093.0
1088.0
1086.0
1088.0
1086.0
1080.0
1076.0
1071.0
1071.0
1072.0
1071.0
1070.0
1066.0
1062.0
1063.0
1064.0
1066.0
1064.0
1063.0
1062.0
1061.0
1065.0
1065.0
1061.0
1060.0
1056.0
1060.0
1062.0
1064.0
1062.0
1060.0
1056.0
1058.0
1060.0
1062.0
1061.0
1058.0
1053.0
1056.0
1056.0
1058.0
1057.0
1052.0
1051.0
1053.0
1058.0
1056.0
1055.0
1051.0
1048.0
1048.0
1055.0
1054.0
1054.0
1050.0
1050.0
1050.0
1049.0
1054.0
1051.0
1048.0
1049.0
1049.0
1050.0
1053.0
1050.0
1050.0
1050.0
1051.0
1054.0
1056.0
1055.0
1054.0
1052.0
1051.0
1055.0
1058.0
1056.0
1055.0
1053.0
1055.0
1056.0
1057.0
1057.0
1053.0
1051.0
1054.0
1056.0
1055.0
1056.0
1055.0
1053.0
1054.0
1054.0
1055.0
1058.0
1056.0
1057.0
1062.0
1073.0
1084.0
1099.0
1117.0
1140.0
1167.0
1185.0
1187.0
1179.0
1155.0
1117.0
1062.0
991.0
909.0
814.0
725.0
677.0
663.0
663.0
662.0
661.0
661.0
676.0
704.0
740.0
774.0
800.0
826.0
848.0
868.0
888.0
905.0
920.0
933.0
942.0
959.0
965.0
975.0
983.0
990.0
1001.0
1012.0
1027.0
1039.0
1047.0
1056.0
1061.0
1069.0
1077.0
1083.0
1086.0
1086.0
1085.0
1091.0
1093.0
1099.0
1100.0
1099.0
1100.0
1100.0
1102.0
1108.0
1108.0
1107.0
1106.0
1110.0
1112.0
1118.0
1120.0
1120.0
1122.0
1126.0
1130.0
1132.0
1134.0
1137.0
1136.0
1139.0
1146.0
1151.0
1152.0
1153.0
1152.0
1158.0
1167.0
1172.0
1176.0
1179.0
1183.0
1188.0
1195.0
1207.0
1210.0
1214.0
1219.0
1226.0
1237.0
1245.0
1252.0
1257.0
1261.0
1270.0
1279.0
1290.0
1295.0
1296.0
1300.0
1305.0
1308.0
1315.0
1315.0
1311.0
1311.0
1310.0
1308.0
1308.0
1302.0
1295.0
1287.0
1281.0
1279.0
1273.0
1264.0
1255.0
1244.0
1236.0
1228.0
1223.0
1215.0
1199.0
1188.0
1183.0
1176.0
1173.0
1162.0
1151.0
1141.0
1136.0
1131.0
1126.0
1119.0
1111.0
1104.0
1102.0
1098.0
1096.0
1091.0
1081.0
1079.0
1075.0
1076.0
1076.0
1071.0
1070.0
1062.0
1061.0
1063.0
1061.0
1061.0
1057.0
1056.0
1055.0
1058.0
1060.0
1055.0
1052.0
1048.0
1051.0
1050.0
1054.0
1054.0
1047.0
1044.0
1049.0
1048.0
1047.0
1049.0
1045.0
1044.0
1043.0
1047.0
1048.0
1045.0
1043.0
1041.0
1042.0
1043.0
1044.0
1042.0
1038.0
1036.0
1039.0
1039.0
1040.0
1037.0
1037.0
1035.0
1034.0
1034.0
1036.0
1034.0
1035.0
1031.0
1032.0
1033.0
1034.0
1031.0
1030.0
1030.0
1032.0
1033.0
1034.0
1030.0
1029.0
1026.0
1028.0
1028.0
1031.0
1030.0
1027.0
1027.0
1026.0
1027.0
1028.0
1027.0
1025.0
1022.0
1025.0
1027.0
1027.0
1026.0
1024.0
1020.0
1025.0
1029.0
1030.0
1029.0
1025.0
1023.0
1024.0
1026.0
1029.0
1027.0
1025.0
1025.0
1023.0
1027.0
1026.0
1023.0
1021.0
1021.0
1024.0
1027.0
1029.0
1025.0
1025.0
1022.0
1023.0
1028.0
1028.0
1026.0
1024.0
1021.0
1022.0
1026.0
1029.0
1028.0
1023.0
1023.0
1025.0
1027.0
1030.0
1029.0
1026.0
1024.0
1024.0
1027.0
1030.0
1028.0
1025.0
1024.0
1024.0
1028.0
1030.0
1030.0
1027.0
1024.0
1025.0
1027.0
1029.0
1030.0
1026.0
1026.0
1027.0
1030.0
1030.0
1030.0
1026.0
1027.0
1026.0
1029.0
1030.0
1028.0
1025.0
1023.0
1028.0
1030.0
1030.0
1028.0
1026.0
1025.0
1027.0
1031.0
1032.0
1030.0
1029.0
1027.0
1029.0
1032.0
1035.0
1032.0
1029.0
1027.0
1029.0
1031.0
1034.0
1032.0
1033.0
1029.0
1031.0
1033.0
1035.0
1032.0
1030.0
1029.0
1032.0
1034.0
1035.0
1033.0
1031.0
1030.0
1031.0
1034.0
1036.0
1035.0
1033.0
1030.0
1031.0
1032.0
1035.0
1035.0
1034.0
1034.0
1031.0
1031.0
1036.0
1033.0
1034.0
1033.0
1033.0
1037.0
1036.0
1036.0
1033.0
1031.0
1034.0
1034.0
1036.0
1036.0
1033.0
1030.0
1031.0
1034.0
1037.0
1035.0
1033.0
1031.0
1034.0
1037.0
1037.0
1033.0
1031.0
1033.0
1035.0
1038.0
1042.0
1038.0
1037.0
1033.0
1036.0
1039.0
1040.0
1037.0
1036.0
1034.0
1034.0
1036.0
1042.0
1042.0
1035.0
1034.0
1037.0
1040.0
1040.0
1041.0
1036.0
1035.0
1036.0
1039.0
1040.0
1037.0
1038.0
1035.0
1038.0
1041.0
1041.0
1041.0
1040.0
1037.0
1038.0
1042.0
1043.0
1042.0
1038.0
1037.0
1038.0
1041.0
1046.0
1043.0
1038.0
1038.0
1039.0
1043.0
1045.0
1042.0
1042.0
1040.0
1041.0
1045.0
1048.0
1047.0
1045.0
1044.0
1047.0
1050.0
1053.0
1050.0
1051.0
1050.0
1050.0
1055.0
1056.0
1055.0
1054.0
1054.0
1054.0
1055.0
1059.0
1053.0
1052.0
1049.0
1046.0
1050.0
1050.0
1052.0
1050.0
1045.0
1048.0
1053.0
1055.0
1052.0
1050.0
1050.0
1051.0
1053.0
1055.0
1052.0
1050.0
1047.0
1048.0
1048.0
1048.0
1047.0
1043.0
1041.0
1046.0
1047.0
1049.0
1046.0
1045.0
1042.0
1044.0
1044.0
1047.0
1048.0
1047.0
1042.0
1042.0
1046.0
1046.0
1046.0
1044.0
1043.0
1044.0
1045.0
1048.0
1046.0
1043.0
1044.0
1046.0
1049.0
1051.0
1052.0
1049.0
1047.0
1051.0
1057.0
1062.0
1067.0
1072.0
1078.0
1090.0
1101.0
1111.0
1120.0
1136.0
1160.0
1191.0
1224.0
1254.0
1286.0
1314.0
1344.0
1386.0
1427.0
1463.0
1480.0
1468.0
1421.0
1345.0
1253.0
1176.0
1118.0
1077.0
1061.0
1059.0
1063.0
1062.0
1057.0
1052.0
1049.0
1046.0
1046.0
1044.0
1037.0
1032.0
1030.0
1027.0
1029.0
1028.0
1029.0
1025.0
1022.0
1023.0
1027.0
1029.0
1024.0
1021.0
1021.0
1022.0
1024.0
1025.0
1023.0
1020.0
1018.0
1019.0
1022.0
1022.0
1020.0
1018.0
1019.0
1019.0
1018.0
1022.0
1018.0
1014.0
1016.0
1016.0
1017.0
1019.0
1020.0
1014.0
1014.0
1014.0
1017.0
1020.0
1017.0
1015.0
1013.0
1017.0
1018.0
1021.0
1021.0
1016.0
1015.0
1019.0
1020.0
1021.0
1023.0
1019.0
1018.0
1020.0
1021.0
1026.0
1025.0
1023.0
1023.0
1023.0
1028.0
1029.0
1030.0
1027.0
1028.0
1031.0
1033.0
1038.0
1034.0
1036.0
1034.0
1039.0
1042.0
1045.0
1046.0
1044.0
1047.0
1048.0
1055.0
1057.0
1061.0
1061.0
1063.0
1067.0
1072.0
1077.0
1079.0
1080.0
1079.0
1084.0
1091.0
1093.0
1095.0
1092.0
1095.0
1097.0
1099.0
1100.0
1098.0
1096.0
1097.0
1097.0
1095.0
1097.0
1092.0
1088.0
1085.0
1087.0
1088.0
1088.0
1083.0
1082.0
1074.0
1076.0
1078.0
1078.0
1074.0
1069.0
1069.0
1069.0
1071.0
1072.0
1071.0
1067.0
1063.0
1066.0
1068.0
1069.0
1066.0
1065.0
1063.0
1064.0
1062.0
1067.0
1062.0
1061.0
1058.0
1059.0
1062.0
1066.0
1063.0
1061.0
1061.0
1062.0
1064.0
1063.0
1061.0
1062.0
1059.0
1061.0
1058.0
1062.0
1059.0
1056.0
1056.0
1061.0
1060.0
1060.0
1060.0
1056.0
1057.0
1059.0
1060.0
1063.0
1062.0
1059.0
1058.0
1057.0
1061.0
1065.0
1064.0
1059.0
1058.0
1061.0
1066.0
1064.0
1064.0
1063.0
1059.0
1060.0
1062.0
1064.0
1065.0
1061.0
1061.0
1062.0
1062.0
1063.0
1061.0
1059.0
1058.0
1061.0
1061.0
1063.0
1060.0
1057.0
1056.0
1057.0
1059.0
1060.0
1057.0
1055.0
1053.0
1053.0
1055.0
1057.0
1055.0
1053.0
1052.0
1053.0
1058.0
1056.0
1055.0
1052.0
1050.0
1053.0
1052.0
1053.0
1054.0
1051.0
1049.0
1051.0
1052.0
1053.0
1053.0
1049.0
1048.0
1049.0
1053.0
1054.0
1053.0
1048.0
1047.0
1047.0
1051.0
1052.0
1052.0
1048.0
1047.0
1049.0
1050.0
1051.0
1052.0
1048.0
1046.0
1047.0
1051.0
1052.0
1049.0
1050.0
1047.0
1046.0
1050.0
1052.0
1051.0
1047.0
1047.0
1048.0
1051.0
1051.0
1048.0
1048.0
1045.0
1046.0
1050.0
1053.0
1052.0
1046.0
1048.0
1049.0
1049.0
1052.0
1050.0
1048.0
1047.0
1051.0
1051.0
1052.0
1053.0
1049.0
1048.0
1051.0
1052.0
1054.0
1053.0
1052.0
1050.0
1051.0
1052.0
1056.0
1056.0
1054.0
1052.0
1054.0
1057.0
1060.0
1058.0
1057.0
1054.0
1058.0
1060.0
1064.0
1063.0
1061.0
1058.0
1061.0
1064.0
1064.0
1060.0
1056.0
1052.0
1052.0
1055.0
1056.0
1055.0
1055.0
1054.0
1052.0
1057.0
1057.0
1057.0
1057.0
1056.0
1058.0
1059.0
1058.0
1058.0
1050.0
1046.0
1048.0
1049.0
1050.0
1048.0
1046.0
1047.0
1048.0
1052.0
1053.0
1047.0
1046.0
1045.0
1046.0
1048.0
1050.0
1049.0
1048.0
1045.0
1048.0
1050.0
1052.0
1050.0
1047.0
1047.0
1049.0
1051.0
1051.0
1050.0
1047.0
1046.0
1052.0
1055.0
1058.0
1058.0
1057.0
1059.0
1065.0
1076.0
1087.0
1095.0
1100.0
1111.0
1128.0
1153.0
1178.0
1206.0
1233.0
1259.0
1289.0
1318.0
1348.0
1386.0
1422.0
1444.0
1441.0
1414.0
1352.0
1267.0
1182.0
1122.0
1081.0
1058.0
1050.0
1050.0
1048.0
1050.0
1051.0
1051.0
1050.0
1045.0
1040.0
1037.0
1039.0
1042.0
1040.0
1039.0
1035.0
1034.0
1036.0
1036.0
1038.0
1035.0
1034.0
1031.0
1032.0
1034.0
1035.0
1036.0
1030.0
1030.0
1033.0
1037.0
1034.0
1032.0
1030.0
1027.0
1030.0
1032.0
1033.0
1033.0
1030.0
1028.0
1028.0
1029.0
1031.0
1031.0
1027.0
1027.0
1027.0
1031.0
1033.0
1031.0
1028.0
1027.0
1027.0
1029.0
1032.0
1030.0
1029.0
1026.0
1030.0
1032.0
1033.0
1033.0
1031.0
1031.0
1034.0
1035.0
1036.0
1035.0
1031.0
1033.0
1034.0
1038.0
1039.0
1038.0
1036.0
1034.0
1037.0
1037.0
1042.0
1039.0
1038.0
1041.0
1045.0
1050.0
1049.0
1048.0
1048.0
1049.0
1054.0
1060.0
1063.0
1063.0
1062.0
1062.0
1068.0
1071.0
1075.0
1079.0
1077.0
1081.0
1084.0
1091.0
1096.0
1095.0
1093.0
1094.0
1098.0
1100.0
1104.0
1099.0
1097.0
1096.0
1096.0
1099.0
1097.0
1095.0
1090.0
1088.0
1089.0
1089.0
1088.0
1084.0
1079.0
1078.0
1074.0
1080.0
1077.0
1074.0
1071.0
1068.0
1069.0
1069.0
1071.0
1068.0
1065.0
1065.0
1067.0
1072.0
1070.0
1068.0
1062.0
1062.0
1064.0
1066.0
1067.0
1063.0
1059.0
1058.0
1062.0
1064.0
1063.0
1061.0
1057.0
1054.0
1060.0
1061.0
1062.0
1060.0
1058.0
1055.0
1058.0
1062.0
1056.0
1055.0
1055.0
1052.0
1055.0
1056.0
1058.0
1056.0
1054.0
1052.0
1055.0
1057.0
1058.0
1057.0
1054.0
1051.0
1054.0
1054.0
1057.0
1056.0
1054.0
1054.0
1055.0
1058.0
1058.0
1059.0
1055.0
1054.0
1055.0
1060.0
1060.0
1058.0
1055.0
1054.0
1060.0
1058.0
1060.0
1058.0
1055.0
1054.0
1055.0
1059.0
1060.0
1055.0
1054.0
1053.0
1056.0
1056.0
1057.0
1058.0
1054.0
1052.0
1054.0
1055.0
1055.0
1055.0
1051.0
1051.0
1052.0
1057.0
1058.0
1053.0
1049.0
1049.0
1052.0
1054.0
1057.0
1051.0
1050.0
1049.0
1052.0
1054.0
1056.0
1052.0
1049.0
1047.0
1052.0
1053.0
1054.0
1052.0
1049.0
1049.0
1049.0
1052.0
1053.0
1050.0
1046.0
1047.0
1048.0
1049.0
1053.0
1050.0
1046.0
1044.0
1048.0
1051.0
1051.0
1048.0
1045.0
1047.0
1048.0
1055.0
1051.0
1049.0
1046.0
1045.0
1049.0
1050.0
1051.0
1048.0
1046.0
1048.0
1049.0
1051.0
1052.0
1049.0
1047.0
1047.0
1049.0
1051.0
1052.0
1051.0
1045.0
1045.0
1049.0
1054.0
1054.0
1053.0
1051.0
1051.0
1054.0
1057.0
1060.0
1059.0
1054.0
1056.0
1059.0
1062.0
1060.0
1061.0
1059.0
1058.0
1059.0
1060.0
1059.0
1057.0
1049.0
1052.0
1057.0
1058.0
1059.0
1059.0
1055.0
1055.0
1057.0
1059.0
1060.0
1057.0
1056.0
1051.0
1051.0
1052.0
1048.0
1048.0
1048.0
1046.0
1047.0
1050.0
1053.0
1048.0
1045.0
1045.0
1048.0
1050.0
1050.0
1051.0
1047.0
1044.0
1048.0
1050.0
1051.0
1050.0
1047.0
1046.0
1048.0
1053.0
1050.0
1048.0
1048.0
1047.0
1051.0
1051.0
1055.0
1054.0
1053.0
1058.0
1062.0
1072.0
1078.0
1086.0
1092.0
1101.0
1111.0
1130.0
1152.0
1177.0
1204.0
1229.0
1258.0
1287.0
1317.0
1351.0
1388.0
1419.0
1429.0
1411.0
1356.0
1268.0
1177.0
1110.0
1070.0
1051.0
1044.0
1046.0
1044.0
1047.0
1048.0
1050.0
1047.0
1041.0
1036.0
1033.0
1031.0
1033.0
1031.0
1031.0
1029.0
1026.0
1027.0
1031.0
1031.0
1028.0
1025.0
1024.0
1023.0
1025.0
1025.0
1025.0
1022.0
1022.0
1023.0
1023.0
1023.0
1018.0
1017.0
1014.0
1018.0
1022.0
1021.0
1020.0
1015.0
1016.0
1017.0
1021.0
1019.0
1017.0
1013.0
1014.0
1016.0
1018.0
1018.0
1017.0
1014.0
1016.0
1016.0
1018.0
1018.0
1016.0
1013.0
1013.0
1015.0
1017.0
1019.0
1018.0
1016.0
1017.0
1017.0
1023.0
1023.0
1021.0
1020.0
1019.0
1022.0
1026.0
1028.0
1027.0
1026.0
1026.0
1028.0
1034.0
1033.0
1033.0
1030.0
1034.0
1039.0
1046.0
1048.0
1047.0
1047.0
1049.0
1055.0
1059.0
1063.0
1067.0
1065.0
1067.0
1072.0
1079.0
1082.0
1079.0
1080.0
1080.0
1081.0
1081.0
1081.0
1077.0
1073.0
1071.0
1069.0
1070.0
1066.0
1061.0
1059.0
1055.0
1058.0
1057.0
1054.0
1053.0
1051.0
1052.0
1051.0
1054.0
1051.0
1054.0
1051.0
1050.0
1049.0
1052.0
1051.0
1050.0
1048.0
1049.0
1047.0
1050.0
1050.0
1045.0
1043.0
1043.0
1045.0
1047.0
1047.0
1044.0
1042.0
1040.0
1041.0
1045.0
1044.0
1044.0
1041.0
1039.0
1040.0
1043.0
1043.0
1042.0
1039.0
1039.0
1040.0
1045.0
1043.0
1042.0
1041.0
1040.0
1043.0
1044.0
1047.0
1044.0
1040.0
1041.0
1043.0
1047.0
1049.0
1048.0
1045.0
1044.0
1046.0
1048.0
1049.0
1046.0
1042.0
1045.0
1047.0
1051.0
1051.0
1047.0
1044.0
1045.0
1046.0
1047.0
1049.0
1046.0
1043.0
1045.0
1047.0
1050.0
1048.0
1045.0
1044.0
1044.0
1046.0
1046.0
1048.0
1045.0
1043.0
1042.0
1043.0
1046.0
1045.0
1043.0
1042.0
1042.0
1043.0
1045.0
1045.0
1042.0
1039.0
1040.0
1043.0
1045.0
1044.0
1042.0
1040.0
1041.0
1041.0
1043.0
1045.0
1042.0
1040.0
1039.0
1041.0
1042.0
1044.0
1039.0
1038.0
1039.0
1040.0
1044.0
1044.0
1042.0
1038.0
1037.0
1042.0
1042.0
1046.0
1043.0
1040.0
1041.0
1041.0
1044.0
1043.0
1041.0
1037.0
1039.0
1042.0
1045.0
1046.0
1044.0
1042.0
1041.0
1041.0
1044.0
1043.0
1044.0
1041.0
1040.0
1043.0
1043.0
1044.0
1042.0
1039.0
1040.0
1044.0
1048.0
1048.0
1041.0
1041.0
1041.0
1044.0
1048.0
1048.0
1045.0
1041.0
1043.0
1044.0
1049.0
1049.0
1050.0
1047.0
1049.0
1053.0
1055.0
1055.0
1054.0
1052.0
1053.0
1055.0
1060.0
1059.0
1060.0
1056.0
1055.0
1057.0
1058.0
1057.0
1055.0
1050.0
1050.0
1052.0
1055.0
1053.0
1050.0
1050.0
1052.0
1055.0
1060.0
1059.0
1057.0
1056.0
1054.0
1054.0
1058.0
1054.0
1049.0
1046.0
1046.0
1048.0
1050.0
1050.0
1048.0
1048.0
1047.0
1049.0
1049.0
1051.0
1047.0
1046.0
1044.0
1047.0
1050.0
1049.0
1050.0
1045.0
1046.0
1044.0
1048.0
1048.0
1050.0
1044.0
1046.0
1047.0
1051.0
1050.0
1050.0
1047.0
1049.0
1051.0
1054.0
1054.0
1054.0
1056.0
1060.0
1068.0
1074.0
1085.0
1094.0
1102.0
1113.0
1127.0
1149.0
1170.0
1194.0
1218.0
1247.0
1275.0
1304.0
1333.0
1362.0
1400.0
1434.0
1454.0
1449.0
1406.0
1331.0
1242.0
1161.0
1106.0
1074.0
1059.0
1047.0
1040.0
1043.0
1049.0
1052.0
1053.0
1049.0
1044.0
1041.0
1039.0
1037.0
1035.0
1033.0
1030.0
1031.0
1031.0
1033.0
1034.0
1031.0
1029.0
1027.0
1030.0
1033.0
1032.0
1032.0
1028.0
1029.0
1029.0
1032.0
1031.0
1026.0
1025.0
1023.0
1028.0
1029.0
1028.0
1023.0
1022.0
1022.0
1025.0
1026.0
1024.0
1025.0
1023.0
1019.0
1023.0
1027.0
1027.0
1024.0
1022.0
1022.0
1023.0
1025.0
1025.0
1025.0
1022.0
1023.0
1026.0
1030.0
1026.0
1027.0
1023.0
1025.0
1030.0
1032.0
1033.0
1029.0
1026.0
1026.0
1030.0
1032.0
1032.0
1032.0
1031.0
1033.0
1034.0
1037.0
1038.0
1037.0
1037.0
1040.0
1044.0
1050.0
1049.0
1050.0
1052.0
1054.0
1061.0
1064.0
1068.0
1069.0
1069.0
1075.0
1079.0
1085.0
1090.0
1090.0
1091.0
1092.0
1096.0
1103.0
1101.0
1101.0
1098.0
1098.0
1098.0
1102.0
1100.0
1096.0
1088.0
1091.0
1088.0
1087.0
1084.0
1084.0
1077.0
1075.0
1074.0
1075.0
1075.0
1072.0
1069.0
1068.0
1067.0
1070.0
1067.0
1066.0
1064.0
1064.0
1068.0
1067.0
1066.0
1066.0
1060.0
1062.0
1061.0
1064.0
1064.0
1064.0
1061.0
1060.0
1061.0
1064.0
1063.0
1062.0
1058.0
1058.0
1059.0
1060.0
1063.0
1059.0
1056.0
1055.0
1059.0
1059.0
1060.0
1055.0
1053.0
1054.0
1057.0
1058.0
1062.0
1059.0
1056.0
1056.0
1059.0
1059.0
1058.0
1057.0
1055.0
1054.0
1059.0
1061.0
1061.0
1059.0
1054.0
1056.0
1060.0
1063.0
1061.0
1060.0
1057.0
1057.0
1060.0
1062.0
1064.0
1060.0
1061.0
1059.0
1061.0
1063.0
1063.0
1061.0
1058.0
1058.0
1059.0
1062.0
1062.0
1060.0
1056.0
1055.0
1058.0
1060.0
1061.0
1058.0
1056.0
1055.0
1058.0
1059.0
1060.0
1056.0
1055.0
1055.0
1056.0
1060.0
1060.0
1055.0
1052.0
1054.0
1055.0
1059.0
1058.0
1055.0
1054.0
1051.0
1054.0
1054.0
1055.0
1054.0
1053.0
1051.0
1056.0
1054.0
1055.0
1054.0
1051.0
1050.0
1054.0
1056.0
1055.0
1054.0
1051.0
1050.0
1052.0
1054.0
1054.0
1054.0
1051.0
1050.0
1052.0
1054.0
1053.0
1053.0
1050.0
1052.0
1052.0
1056.0
1055.0
1052.0
1051.0
1051.0
1051.0
1054.0
1053.0
1051.0
1049.0
1048.0
1051.0
1054.0
1051.0
1053.0
1051.0
1051.0
1053.0
1055.0
1055.0
1052.0
1051.0
1051.0
1054.0
1056.0
1054.0
1054.0
1052.0
1055.0
1057.0
1063.0
1061.0
1062.0
1059.0
1060.0
1061.0
1065.0
1064.0
1063.0
1061.0
1062.0
1062.0
1062.0
1060.0
1058.0
1052.0
1054.0
1056.0
1059.0
1060.0
1057.0
1053.0
1056.0
1060.0
1064.0
1060.0
1061.0
1058.0
1056.0
1055.0
1056.0
1053.0
1052.0
1048.0
1050.0
1053.0
1055.0
1054.0
1051.0
1048.0
1050.0
1054.0
1053.0
1054.0
1051.0
1048.0
1047.0
1049.0
1054.0
1053.0
1051.0
1047.0
1050.0
1050.0
1050.0
1050.0
1049.0
1047.0
1048.0
1051.0
1056.0
1053.0
1051.0
1052.0
1056.0
1064.0
1072.0
1079.0
1087.0
1093.0
1103.0
1119.0
1139.0
1162.0
1188.0
1214.0
1243.0
1271.0
1299.0
1329.0
1366.0
1402.0
1426.0
1426.0
1396.0
1322.0
1223.0
1134.0
1078.0
1053.0
1046.0
1045.0
1049.0
1050.0
1050.0
1051.0
1053.0
1049.0
1045.0
1039.0
1039.0
1039.0
1040.0
1039.0
1037.0
1034.0
1035.0
1041.0
1041.0
1039.0
1037.0
1036.0
1034.0
1034.0
1038.0
1036.0
1033.0
1031.0
1032.0
1033.0
1036.0
1033.0
1028.0
1027.0
1028.0
1030.0
1033.0
1032.0
1029.0
1024.0
1027.0
1031.0
1034.0
1031.0
1027.0
1024.0
1026.0
1029.0
1031.0
1030.0
1028.0
1026.0
1026.0
1029.0
1031.0
1032.0
1031.0
1026.0
1028.0
1031.0
1035.0
1033.0
1031.0
1029.0
1031.0
1033.0
1037.0
1038.0
1037.0
1036.0
1037.0
1043.0
1045.0
1046.0
1044.0
1044.0
1049.0
1054.0
1059.0
1060.0
1060.0
1060.0
1062.0
1070.0
1075.0
1078.0
1077.0
1078.0
1084.0
1089.0
1092.0
1094.0
1095.0
1091.0
1094.0
1098.0
1101.0
1100.0
1097.0
1091.0
1091.0
1092.0
1092.0
1090.0
1083.0
1078.0
1075.0
1078.0
1077.0
1074.0
1068.0
1065.0
1064.0
1063.0
1065.0
1063.0
1060.0
1058.0
1059.0
1059.0
1061.0
1061.0
1056.0
1055.0
1054.0
1058.0
1061.0
1059.0
1053.0
1051.0
1054.0
1055.0
1058.0
1057.0
1056.0
1051.0
1050.0
1052.0
1054.0
1053.0
1052.0
1050.0
1049.0
1050.0
1051.0
1051.0
1048.0
1045.0
1045.0
1048.0
1050.0
1048.0
1047.0
1045.0
1044.0
1044.0
1045.0
1042.0
1044.0
1042.0
1042.0
1044.0
1047.0
1045.0
1044.0
1041.0
1041.0
1045.0
1048.0
1045.0
1042.0
1041.0
1041.0
1044.0
1048.0
1049.0
1046.0
1044.0
1043.0
1044.0
1047.0
1045.0
1044.0
1042.0
1044.0
1046.0
1047.0
1046.0
1043.0
1040.0
1038.0
1041.0
1045.0
1045.0
1046.0
1042.0
1042.0
1043.0
1046.0
1044.0
1041.0
1039.0
1040.0
1041.0
1044.0
1043.0
1040.0
1038.0
1040.0
1041.0
1044.0
1040.0
1039.0
1037.0
1039.0
1041.0
1042.0
1042.0
1038.0
1037.0
1037.0
1038.0
1041.0
1043.0
1038.0
1038.0
1035.0
1038.0
1042.0
1041.0
1036.0
1033.0
1034.0
1035.0
1037.0
1036.0
1034.0
1034.0
1033.0
1037.0
1041.0
1037.0
1033.0
1033.0
1033.0
1038.0
1037.0
1039.0
1033.0
1030.0
1030.0
1033.0
1037.0
1035.0
1035.0
1032.0
1031.0
1035.0
1035.0
1034.0
1033.0
1032.0
1033.0
1035.0
1036.0
1035.0
1037.0
1033.0
1037.0
1041.0
1042.0
1043.0
1042.0
1043.0
1042.0
1044.0
1048.0
1045.0
1048.0
1046.0
1045.0
1045.0
1046.0
1043.0
1043.0
1039.0
1038.0
1043.0
1046.0
1043.0
1042.0
1039.0
1041.0
1045.0
1046.0
1046.0
1043.0
1040.0
1037.0
1037.0
1038.0
1034.0
1036.0
1033.0
1034.0
1039.0
1039.0
1037.0
1035.0
1033.0
1034.0
1034.0
1038.0
1037.0
1032.0
1030.0
1030.0
1033.0
1034.0
1034.0
1033.0
1029.0
1030.0
1034.0
1037.0
1036.0
1035.0
1033.0
1034.0
1040.0
1042.0
1047.0
1046.0
1053.0
1065.0
1081.0
1092.0
1106.0
1124.0
1153.0
1187.0
1222.0
1255.0
1287.0
1324.0
1369.0
1408.0
1422.0
1392.0
1303.0
1185.0
1095.0
1047.0
1036.0
1037.0
1041.0
1038.0
1034.0
1034.0
1034.0
1035.0
1033.0
1025.0
1021.0
1020.0
1023.0
1023.0
1022.0
1020.0
1017.0
1017.0
1020.0
1020.0
1019.0
1018.0
1016.0
1016.0
1019.0
1021.0
1018.0
1014.0
1012.0
1014.0
1016.0
1018.0
1016.0
1012.0
1011.0
1011.0
1011.0
1015.0
1012.0
1011.0
1007.0
1008.0
1009.0
1009.0
1010.0
1007.0
1005.0
1009.0
1013.0
1013.0
1010.0
1009.0
1010.0
1007.0
1009.0
1011.0
1011.0
1009.0
1007.0
1010.0
1011.0
1014.0
1014.0
1013.0
1010.0
1012.0
1015.0
1016.0
1016.0
1014.0
1013.0
1016.0
1018.0
1021.0
1021.0
1021.0
1018.0
1021.0
1025.0
1028.0
1029.0
1031.0
1029.0
1030.0
1035.0
1041.0
1044.0
1043.0
1044.0
1046.0
1054.0
1057.0
1061.0
1060.0
1061.0
1066.0
1070.0
1075.0
1076.0
1076.0
1074.0
1075.0
1077.0
1080.0
1078.0
1072.0
1072.0
1072.0
1071.0
1071.0
1070.0
1063.0
1062.0
1059.0
1058.0
1061.0
1058.0
1051.0
1048.0
1048.0
1049.0
1051.0
1049.0
1046.0
1044.0
1045.0
1046.0
1047.0
1047.0
1043.0
1043.0
1044.0
1045.0
1047.0
1047.0
1043.0
1039.0
1041.0
1044.0
1046.0
1045.0
1040.0
1037.0
1038.0
1041.0
1044.0
1043.0
1039.0
1036.0
1036.0
1038.0
1039.0
1037.0
1035.0
1033.0
1036.0
1036.0
1040.0
1039.0
1036.0
1033.0
1033.0
1037.0
1040.0
1039.0
1036.0
1037.0
1036.0
1038.0
1039.0
1039.0
1036.0
1036.0
1036.0
1040.0
1041.0
1040.0
1038.0
1034.0
1037.0
1039.0
1042.0
1040.0
1039.0
1034.0
1037.0
1041.0
1042.0
1044.0
1039.0
1036.0
1038.0
1040.0
1042.0
1041.0
1036.0
1035.0
1038.0
1039.0
1041.0
1042.0
1035.0
1037.0
1037.0
1038.0
1041.0
1042.0
1040.0
1036.0
1037.0
1037.0
1040.0
1038.0
1039.0
1035.0
1036.0
1040.0
1041.0
1040.0
1035.0
1035.0
1035.0
1037.0
1041.0
1038.0
1037.0
1034.0
1032.0
1036.0
1040.0
1039.0
1035.0
1033.0
1035.0
1037.0
1040.0
1036.0
1033.0
1030.0
1032.0
1037.0
1040.0
1039.0
1035.0
1032.0
1034.0
1036.0
1038.0
1038.0
1035.0
1034.0
1035.0
1035.0
1040.0
1038.0
1035.0
1032.0
1034.0
1036.0
1039.0
1037.0
1034.0
1030.0
1032.0
1035.0
1039.0
1039.0
1037.0
1035.0
1034.0
1037.0
1040.0
1038.0
1037.0
1033.0
1034.0
1037.0
1042.0
1039.0
1035.0
1035.0
1036.0
1038.0
1040.0
1039.0
1036.0
1037.0
1036.0
1038.0
1041.0
1040.0
1039.0
1038.0
1041.0
1046.0
1049.0
1048.0
1045.0
1044.0
1046.0
1049.0
1052.0
1051.0
1049.0
1047.0
1049.0
1052.0
1052.0
1050.0
1046.0
1042.0
1044.0
1044.0
1047.0
1044.0
1043.0
1045.0
1045.0
1046.0
1049.0
1048.0
1046.0
1046.0
1048.0
1049.0
1051.0
1048.0
1044.0
1040.0
1038.0
1040.0
1043.0
1040.0
1038.0
1037.0
1038.0
1039.0
1040.0
1039.0
1039.0
1036.0
1036.0
1040.0
1042.0
1042.0
1036.0
1035.0
1037.0
1039.0
1041.0
1038.0
1037.0
1037.0
1034.0
1038.0
1039.0
1040.0
1037.0
1037.0
1036.0
1042.0
1041.0
1040.0
1039.0
1041.0
1042.0
1046.0
1051.0
1053.0
1056.0
1060.0
1069.0
1083.0
1096.0
1105.0
1113.0
1131.0
1155.0
1186.0
1214.0
1239.0
1262.0
1290.0
1317.0
1354.0
1397.0
1427.0
1441.0
1436.0
1400.0
1336.0
1254.0
1175.0
1110.0
1071.0
1047.0
1035.0
1037.0
1038.0
1037.0
1032.0
1034.0
1035.0
1036.0
1032.0
1025.0
1020.0
1019.0
1019.0
1021.0
1019.0
1017.0
