# Simple Text Format
# Sampling Rate (Hz):= 360.00
# Resolution:= 12
# Labels:= ECG
1068.0
1068.0
1068.0
1071.0
1066.0
1060.0
1055.0
1054.0
1054.0
1058.0
1059.0
1054.0
1051.0
1053.0
1050.0
1053.0
1054.0
1051.0
1048.0
1047.0
1053.0
1053.0
1052.0
1050.0
1048.0
1047.0
1049.0
1051.0
1048.0
1047.0
1047.0
1047.0
1048.0
1050.0
1049.0
1046.0
1045.0
1045.0
1048.0
1050.0
1050.0
1049.0
1048.0
1046.0
1048.0
1051.0
1050.0
1048.0
1043.0
1044.0
1047.0
1050.0
1049.0
1050.0
1046.0
1046.0
1046.0
1050.0
1048.0
1050.0
1048.0
1048.0
1050.0
1054.0
1052.0
1047.0
1046.0
1046.0
1049.0
1054.0
1054.0
1050.0
1048.0
1048.0
1052.0
1055.0
1055.0
1053.0
1052.0
1053.0
1056.0
1059.0
1057.0
1058.0
1063.0
1066.0
1068.0
1073.0
1074.0
1076.0
1075.0
1078.0
1087.0
1089.0
1093.0
1094.0
1095.0
1100.0
1104.0
1108.0
1111.0
1111.0
1115.0
1115.0
1118.0
1124.0
1123.0
1121.0
1118.0
1116.0
1119.0
1124.0
1120.0
1117.0
1112.0
1112.0
1109.0
1109.0
1106.0
1103.0
1097.0
1097.0
1098.0
1097.0
1095.0
1089.0
1084.0
1083.0
1087.0
1089.0
1086.0
1084.0
1079.0
1080.0
1080.0
1081.0
1081.0
1078.0
1077.0
1079.0
1083.0
1084.0
1078.0
1076.0
1072.0
1077.0
1080.0
1080.0
1079.0
1076.0
1075.0
1076.0
1077.0
1078.0
1080.0
1076.0
1071.0
1074.0
1076.0
1075.0
1072.0
1071.0
1067.0
1068.0
1070.0
1074.0
1069.0
1067.0
1065.0
1068.0
1073.0
1072.0
1071.0
1067.0
1064.0
1065.0
1068.0
1071.0
1067.0
1068.0
1066.0
1068.0
1070.0
1071.0
1070.0
1069.0
1068.0
1067.0
1070.0
1071.0
1072.0
1069.0
1066.0
1067.0
1070.0
1073.0
1072.0
1070.0
1066.0
1066.0
1068.0
1070.0
1072.0
1070.0
1070.0
1069.0
1071.0
1070.0
1067.0
1065.0
1062.0
1067.0
1069.0
1071.0
1069.0
1067.0
1063.0
1066.0
1068.0
1070.0
1068.0
1065.0
1062.0
1064.0
1065.0
1068.0
1067.0
1065.0
1062.0
1061.0
1064.0
1067.0
1066.0
1064.0
1061.0
1059.0
1064.0
1067.0
1064.0
1063.0
1058.0
1062.0
1063.0
1066.0
1063.0
1062.0
1062.0
1063.0
1066.0
1067.0
1064.0
1062.0
1060.0
1062.0
1066.0
1067.0
1067.0
1065.0
1062.0
1063.0
1063.0
1067.0
1066.0
1063.0
1061.0
1063.0
1063.0
1065.0
1063.0
1063.0
1062.0
1062.0
1064.0
1066.0
1066.0
1065.0
1061.0
1062.0
1064.0
1067.0
1065.0
1066.0
1061.0
1062.0
1065.0
1066.0
1065.0
1064.0
1058.0
1060.0
1064.0
1069.0
1071.0
1064.0
1063.0
1061.0
1063.0
1066.0
1065.0
1063.0
1062.0
1065.0
1069.0
1071.0
1072.0
1070.0
1069.0
1072.0
1074.0
1077.0
1076.0
1075.0
1073.0
1073.0
1076.0
1081.0
1077.0
1072.0
1068.0
1068.0
1069.0
1070.0
1069.0
1068.0
1067.0
1068.0
1071.0
1077.0
1075.0
1074.0
1069.0
1073.0
1071.0
1076.0
1073.0
1069.0
1067.0
1064.0
1066.0
1067.0
1066.0
1064.0
1061.0
1061.0
1065.0
1068.0
1067.0
1063.0
1060.0
1059.0
1063.0
1065.0
1063.0
1061.0
1060.0
1060.0
1062.0
1063.0
1063.0
1060.0
1061.0
1060.0
1065.0
1065.0
1063.0
1064.0
1060.0
1065.0
1065.0
1071.0
1067.0
1069.0
1070.0
1077.0
1085.0
1096.0
1106.0
1115.0
1121.0
1136.0
1153.0
1176.0
1204.0
1230.0
1255.0
1284.0
1316.0
1347.0
1381.0
1416.0
1455.0
1483.0
1491.0
1466.0
1394.0
1295.0
1201.0
1138.0
1093.0
1071.0
1063.0
1062.0
1060.0
1061.0
1063.0
1061.0
1059.0
1052.0
1048.0
1045.0
1046.0
1048.0
1045.0
1042.0
1039.0
1040.0
1041.0
1043.0
1043.0
1039.0
1037.0
1040.0
1039.0
1040.0
1039.0
1036.0
1035.0
1036.0
1039.0
1039.0
1036.0
1033.0
1032.0
1031.0
1037.0
1035.0
1034.0
1032.0
1030.0
1030.0
1032.0
1031.0
1031.0
1029.0
1026.0
1027.0
1032.0
1031.0
1031.0
1030.0
1028.0
1029.0
1029.0
1033.0
1033.0
1032.0
1027.0
1030.0
1029.0
1033.0
1034.0
1033.0
1033.0
1031.0
1036.0
1038.0
1036.0
1035.0
1034.0
1035.0
1037.0
1042.0
1040.0
1037.0
1035.0
1038.0
1039.0
1045.0
1046.0
1045.0
1043.0
1046.0
1049.0
1055.0
1055.0
1054.0
1056.0
1057.0
1063.0
1066.0
1069.0
1070.0
1072.0
1076.0
1083.0
1089.0
1091.0
1089.0
1090.0
1091.0
1097.0
1104.0
1104.0
1101.0
1100.0
1103.0
1105.0
1107.0
1103.0
1098.0
1098.0
1098.0
1097.0
1096.0
1094.0
1091.0
1085.0
1082.0
1083.0
1083.0
1079.0
1075.0
1074.0
1073.0
1075.0
1075.0
1074.0
1072.0
1067.0
1068.0
1069.0
1073.0
1070.0
1069.0
1065.0
1066.0
1070.0
1071.0
1069.0
1066.0
1064.0
1063.0
1065.0
1069.0
1065.0
1061.0
1064.0
1063.0
1064.0
1066.0
1063.0
1059.0
1056.0
1060.0
1061.0
1061.0
1060.0
1057.0
1056.0
1054.0
1056.0
1061.0
1061.0
1058.0
1055.0
1057.0
1059.0
1061.0
1059.0
1056.0
1058.0
1060.0
1062.0
1063.0
1060.0
1059.0
1057.0
1059.0
1061.0
1064.0
1063.0
1061.0
1060.0
1063.0
1062.0
1064.0
1063.0
1063.0
1060.0
1063.0
1066.0
1066.0
1063.0
1064.0
1061.0
1062.0
1064.0
1066.0
1065.0
1064.0
1058.0
1060.0
1062.0
1066.0
1063.0
1061.0
1059.0
1059.0
1063.0
1063.0
1061.0
1058.0
1056.0
1058.0
1062.0
1064.0
1061.0
1056.0
1052.0
1055.0
1059.0
1061.0
1061.0
1057.0
1057.0
1055.0
1057.0
1059.0
1060.0
1056.0
1055.0
1056.0
1059.0
1060.0
1058.0
1055.0
1052.0
1056.0
1056.0
1059.0
1059.0
1055.0
1055.0
1055.0
1056.0
1060.0
1058.0
1058.0
1054.0
1059.0
1058.0
1061.0
1059.0
1056.0
1055.0
1057.0
1063.0
1062.0
1061.0
1058.0
1055.0
1056.0
1060.0
1061.0
1062.0
1060.0
1058.0
1057.0
1059.0
1064.0
1062.0
1059.0
1059.0
1056.0
1060.0
1064.0
1063.0
1059.0
1055.0
1057.0
1060.0
1065.0
1063.0
1061.0
1059.0
1060.0
1061.0
1062.0
1064.0
1062.0
1060.0
1062.0
1063.0
1067.0
1067.0
1064.0
1066.0
1068.0
1068.0
1074.0
1074.0
1068.0
1071.0
1071.0
1077.0
1078.0
1077.0
1075.0
1072.0
1073.0
1074.0
1073.0
1072.0
1067.0
1067.0
1068.0
1071.0
1075.0
1075.0
1075.0
1071.0
1072.0
1074.0
1076.0
1072.0
1068.0
1064.0
1063.0
1064.0
1067.0
1067.0
1065.0
1063.0
1063.0
1065.0
1068.0
1065.0
1065.0
1060.0
1064.0
1065.0
1065.0
1065.0
1063.0
1060.0
1060.0
1064.0
1064.0
1065.0
1065.0
1061.0
1064.0
1064.0
1070.0
1068.0
1064.0
1061.0
1065.0
1068.0
1073.0
1073.0
1075.0
1079.0
1085.0
1096.0
1108.0
1119.0
1127.0
1138.0
1157.0
1187.0
1216.0
1244.0
1271.0
1297.0
1329.0
1363.0
1403.0
1442.0
1476.0
1496.0
1488.0
1452.0
1381.0
1290.0
1206.0
1143.0
1101.0
1077.0
1065.0
1063.0
1062.0
1063.0
1064.0
1065.0
1068.0
1063.0
1059.0
1054.0
1049.0
1049.0
1052.0
1050.0
1048.0
1044.0
1044.0
1046.0
1048.0
1047.0
1044.0
1043.0
1043.0
1043.0
1046.0
1044.0
1043.0
1040.0
1039.0
1039.0
1043.0
1040.0
1040.0
1036.0
1037.0
1038.0
1040.0
1037.0
1036.0
1035.0
1035.0
1038.0
1041.0
1039.0
1037.0
1034.0
1033.0
1039.0
1040.0
1037.0
1039.0
1037.0
1036.0
1037.0
1042.0
1039.0
1039.0
1037.0
1036.0
1040.0
1041.0
1041.0
1040.0
1038.0
1037.0
1042.0
1045.0
1044.0
1043.0
1042.0
1043.0
1045.0
1047.0
1047.0
1047.0
1046.0
1048.0
1051.0
1053.0
1053.0
1052.0
1052.0
1055.0
1059.0
1063.0
1063.0
1062.0
1062.0
1066.0
1069.0
1075.0
1076.0
1076.0
1079.0
1083.0
1089.0
1094.0
1097.0
1097.0
1097.0
1103.0
1108.0
1111.0
1113.0
1114.0
1115.0
1118.0
1121.0
1128.0
1125.0
1123.0
1120.0
1121.0
1123.0
1120.0
1118.0
1115.0
1111.0
1111.0
1111.0
1110.0
1107.0
1099.0
1096.0
1095.0
1094.0
1095.0
1094.0
1088.0
1085.0
1088.0
1089.0
1090.0
1089.0
1087.0
1079.0
1080.0
1084.0
1086.0
1085.0
1084.0
1084.0
1083.0
1082.0
1086.0
1085.0
1083.0
1082.0
1082.0
1082.0
1085.0
1080.0
1078.0
1076.0
1077.0
1081.0
1083.0
1080.0
1078.0
1073.0
1075.0
1076.0
1082.0
1081.0
1078.0
1075.0
1074.0
1077.0
1079.0
1077.0
1075.0
1073.0
1072.0
1072.0
1073.0
1073.0
1073.0
1071.0
1071.0
1074.0
1078.0
1077.0
1072.0
1072.0
1074.0
1079.0
1082.0
1078.0
1076.0
1073.0
1074.0
1078.0
1080.0
1081.0
1079.0
1079.0
1077.0
1080.0
1083.0
1081.0
1077.0
1074.0
1076.0
1080.0
1081.0
1081.0
1077.0
1076.0
1078.0
1078.0
1082.0
1079.0
1076.0
1076.0
1076.0
1079.0
1081.0
1078.0
1075.0
1071.0
1074.0
1076.0
1079.0
1076.0
1075.0
1074.0
1072.0
1077.0
1077.0
1077.0
1076.0
1072.0
1071.0
1075.0
1076.0
1075.0
1076.0
1072.0
1072.0
1075.0
1076.0
1075.0
1072.0
1070.0
1071.0
1076.0
1075.0
1073.0
1069.0
1068.0
1068.0
1072.0
1073.0
1074.0
1070.0
1071.0
1071.0
1072.0
1072.0
1071.0
1068.0
1068.0
1069.0
1072.0
1076.0
1072.0
1069.0
1067.0
1067.0
1070.0
1075.0
1074.0
1073.0
1070.0
1068.0
1071.0
1072.0
1072.0
1071.0
1070.0
1071.0
1071.0
1072.0
1074.0
1068.0
1068.0
1071.0
1075.0
1076.0
1073.0
1068.0
1067.0
1070.0
1072.0
1075.0
1074.0
1070.0
1068.0
1069.0
1073.0
1076.0
1077.0
1075.0
1075.0
1078.0
1081.0
1083.0
1081.0
1081.0
1080.0
1082.0
1087.0
1088.0
1083.0
1082.0
1076.0
1075.0
1078.0
1081.0
1078.0
1077.0
1074.0
1074.0
1081.0
1082.0
1082.0
1080.0
1079.0
1077.0
1082.0
1080.0
1077.0
1073.0
1070.0
1069.0
1072.0
1071.0
1072.0
1069.0
1068.0
1067.0
1066.0
1069.0
1071.0
1070.0
1068.0
1067.0
1069.0
1072.0
1072.0
1070.0
1066.0
1064.0
1065.0
1069.0
1068.0
1062.0
1065.0
1069.0
1071.0
1073.0
1074.0
1071.0
1070.0
1073.0
1075.0
1082.0
1081.0
1085.0
1091.0
1104.0
1115.0
1126.0
1133.0
1142.0
1158.0
1187.0
1221.0
1254.0
1280.0
1305.0
1330.0
1362.0
1401.0
1447.0
1481.0
1490.0
1469.0
1415.0
1330.0
1241.0
1160.0
1106.0
1075.0
1064.0
1063.0
1069.0
1070.0
1065.0
1060.0
1061.0
1062.0
1063.0
1057.0
1050.0
1045.0
1046.0
1047.0
1048.0
1046.0
1043.0
1039.0
1041.0
1044.0
1045.0
1043.0
1040.0
1040.0
1039.0
1041.0
1043.0
1043.0
1038.0
1038.0
1036.0
1038.0
1041.0
1037.0
1034.0
1034.0
1034.0
1036.0
1037.0
1036.0
1033.0
1031.0
1030.0
1032.0
1037.0
1035.0
1032.0
1029.0
1030.0
1033.0
1034.0
1033.0
1030.0
1026.0
1030.0
1030.0
1035.0
1032.0
1031.0
1028.0
1031.0
1031.0
1035.0
1034.0
1032.0
1031.0
1032.0
1036.0
1037.0
1038.0
1035.0
1032.0
1033.0
1038.0
1042.0
1042.0
1042.0
1037.0
1039.0
1046.0
1048.0
1049.0
1048.0
1048.0
1050.0
1057.0
1061.0
1059.0
1061.0
1060.0
1069.0
1075.0
1078.0
1081.0
1079.0
1080.0
1084.0
1092.0
1094.0
1096.0
1095.0
1095.0
1095.0
1098.0
1099.0
1096.0
1098.0
1092.0
1092.0
1093.0
1090.0
1085.0
1082.0
1079.0
1078.0
1078.0
1079.0
1075.0
1069.0
1067.0
1066.0
1069.0
1070.0
1066.0
1065.0
1060.0
1061.0
1062.0
1067.0
1063.0
1061.0
1058.0
1060.0
1062.0
1064.0
1062.0
1058.0
1058.0
1058.0
1058.0
1062.0
1060.0
1058.0
1054.0
1056.0
1057.0
1058.0
1056.0
1055.0
1052.0
1053.0
1054.0
1054.0
1055.0
1052.0
1051.0
1051.0
1054.0
1053.0
1052.0
1049.0
1050.0
1051.0
1053.0
1056.0
1055.0
1051.0
1051.0
1052.0
1055.0
1057.0
1056.0
1053.0
1050.0
1052.0
1052.0
1057.0
1055.0
1057.0
1052.0
1054.0
1055.0
1054.0
1054.0
1051.0
1050.0
1050.0
1056.0
1054.0
1053.0
1048.0
1049.0
1047.0
1051.0
1051.0
1050.0
1048.0
1047.0
1046.0
1049.0
1049.0
1051.0
1046.0
1045.0
1047.0
1048.0
1049.0
1046.0
1047.0
1043.0
1046.0
1046.0
1047.0
1047.0
1045.0
1042.0
1045.0
1047.0
1046.0
1046.0
1043.0
1042.0
1039.0
1043.0
1044.0
1042.0
1041.0
1041.0
1040.0
1041.0
1041.0
1041.0
1040.0
1038.0
1041.0
1041.0
1045.0
1043.0
1037.0
1039.0
1041.0
1044.0
1044.0
1043.0
1040.0
1037.0
1040.0
1043.0
1043.0
1043.0
1041.0
1039.0
1041.0
1041.0
1046.0
1041.0
1040.0
1036.0
1040.0
1043.0
1045.0
1043.0
1040.0
1037.0
1037.0
1044.0
1046.0
1045.0
1040.0
1041.0
1040.0
1043.0
1044.0
1042.0
1040.0
1041.0
1039.0
1043.0
1044.0
1043.0
1040.0
1040.0
1043.0
1046.0
1049.0
1048.0
1048.0
1049.0
1048.0
1050.0
1054.0
1054.0
1054.0
1052.0
1053.0
1056.0
1058.0
1057.0
1053.0
1053.0
1051.0
1053.0
1054.0
1051.0
1048.0
1046.0
1047.0
1053.0
1054.0
1053.0
1049.0
1051.0
1052.0
1053.0
1056.0
1057.0
1051.0
1045.0
1042.0
1043.0
1045.0
1044.0
1041.0
1040.0
1042.0
1045.0
1050.0
1048.0
1042.0
1039.0
1040.0
1044.0
1047.0
1045.0
1044.0
1044.0
1042.0
1047.0
1043.0
1044.0
1044.0
1040.0
1043.0
1041.0
1043.0
1043.0
1039.0
1039.0
1040.0
1047.0
1051.0
1053.0
1054.0
1057.0
1067.0
1082.0
1099.0
1106.0
1118.0
1135.0
1166.0
1198.0
1233.0
1264.0
1290.0
1319.0
1355.0
1402.0
1443.0
1461.0
1445.0
1395.0
1310.0
1216.0
1139.0
1084.0
1051.0
1034.0
1036.0
1043.0
1049.0
1048.0
1045.0
1039.0
1040.0
1041.0
1037.0
1031.0
1028.0
1027.0
1028.0
1031.0
1032.0
1029.0
1027.0
1024.0
1027.0
1029.0
1030.0
1028.0
1024.0
1022.0
1024.0
1027.0
1029.0
1026.0
1022.0
1020.0
1020.0
1022.0
1024.0
1024.0
1020.0
1017.0
1018.0
1021.0
1023.0
1021.0
1019.0
1013.0
1018.0
1021.0
1020.0
1020.0
1016.0
1015.0
1015.0
1019.0
1022.0
1019.0
1019.0
1016.0
1017.0
1019.0
1023.0
1022.0
1017.0
1014.0
1018.0
1021.0
1022.0
1022.0
1020.0
1018.0
1020.0
1025.0
1027.0
1027.0
1024.0
1024.0
1025.0
1030.0
1032.0
1033.0
1031.0
1033.0
1035.0
1040.0
1045.0
1043.0
1045.0
1047.0
1049.0
1054.0
1058.0
1062.0
1061.0
1063.0
1065.0
1071.0
1078.0
1080.0
1079.0
1079.0
1084.0
1089.0
1093.0
1092.0
1089.0
1089.0
1086.0
1087.0
1088.0
1083.0
1079.0
1076.0
1076.0
1077.0
1074.0
1071.0
1066.0
1062.0
1064.0
1061.0
1062.0
1059.0
1057.0
1053.0
1053.0
1054.0
1054.0
1055.0
1051.0
1049.0
1053.0
1053.0
1055.0
1053.0
1050.0
1049.0
1049.0
1053.0
1051.0
1051.0
1051.0
1045.0
1047.0
1049.0
1049.0
1047.0
1043.0
1045.0
1043.0
1046.0
1045.0
1045.0
1041.0
1038.0
1040.0
1043.0
1043.0
1043.0
1040.0
1036.0
1038.0
1040.0
1042.0
1043.0
1039.0
1035.0
1037.0
1040.0
1042.0
1043.0
1041.0
1037.0
1040.0
1041.0
1044.0
1041.0
1038.0
1037.0
1037.0
1039.0
1044.0
1040.0
1035.0
1036.0
1037.0
1040.0
1043.0
1039.0
1037.0
1036.0
1036.0
1036.0
1039.0
1039.0
1034.0
1033.0
1033.0
1038.0
1041.0
1034.0
1035.0
1030.0
1033.0
1033.0
1036.0
1035.0
1031.0
1031.0
1032.0
1033.0
1037.0
1034.0
1030.0
1028.0
1029.0
1032.0
1034.0
1033.0
1031.0
1026.0
1028.0
1030.0
1030.0
1031.0
1029.0
1024.0
1026.0
1027.0
1031.0
1028.0
1024.0
1023.0
1024.0
1028.0
1030.0
1028.0
1024.0
1022.0
1023.0
1026.0
1029.0
1025.0
1022.0
1022.0
1021.0
1025.0
1027.0
1027.0
1025.0
1023.0
1023.0
1025.0
1027.0
1026.0
1022.0
1022.0
1023.0
1027.0
1029.0
1025.0
1023.0
1021.0
1025.0
1029.0
1029.0
1028.0
1023.0
1020.0
1022.0
1026.0
1029.0
1027.0
1027.0
1025.0
1028.0
1030.0
1033.0
1035.0
1033.0
1032.0
1033.0
1036.0
1037.0
1039.0
1035.0
1034.0
1034.0
1039.0
1039.0
1037.0
1035.0
1030.0
1031.0
1033.0
1033.0
1034.0
1033.0
1032.0
1032.0
1034.0
1037.0
1035.0
1034.0
1034.0
1033.0
1036.0
1037.0
1032.0
1026.0
1022.0
1024.0
1027.0
1029.0
1027.0
1025.0
1024.0
1024.0
1028.0
1028.0
1026.0
1026.0
1024.0
1023.0
1027.0
1027.0
1025.0
1023.0
1022.0
1023.0
1026.0
1027.0
1028.0
1024.0
1023.0
1021.0
1025.0
1027.0
1026.0
1025.0
1025.0
1024.0
1029.0
1034.0
1033.0
1037.0
1043.0
1051.0
1066.0
1076.0
1083.0
1091.0
1108.0
1132.0
1164.0
1195.0
1224.0
1249.0
1276.0
1306.0
1346.0
1387.0
1421.0
1435.0
1428.0
1392.0
1325.0
1243.0
1159.0
1090.0
1046.0
1024.0
1016.0
1017.0
1016.0
1019.0
1017.0
1017.0
1018.0
1017.0
1016.0
1008.0
1004.0
1003.0
1004.0
1006.0
1005.0
1002.0
998.0
1001.0
1001.0
1004.0
1003.0
1001.0
998.0
999.0
1000.0
1001.0
1000.0
995.0
996.0
996.0
999.0
999.0
997.0
993.0
992.0
994.0
993.0
998.0
994.0
992.0
990.0
991.0
992.0
995.0
993.0
992.0
990.0
994.0
994.0
995.0
992.0
989.0
989.0
990.0
993.0
992.0
995.0
993.0
989.0
991.0
994.0
995.0
992.0
988.0
988.0
989.0
994.0
995.0
993.0
991.0
991.0
992.0
994.0
998.0
996.0
996.0
994.0
996.0
997.0
998.0
999.0
998.0
996.0
1001.0
1004.0
1011.0
1006.0
1007.0
1004.0
1007.0
1011.0
1015.0
1020.0
1019.0
1019.0
1024.0
1028.0
1033.0
1032.0
1032.0
1035.0
1040.0
1045.0
1052.0
1052.0
1054.0
1054.0
1059.0
1062.0
1068.0
1067.0
1063.0
1065.0
1065.0
1068.0
1069.0
1066.0
1061.0
1056.0
1058.0
1062.0
1059.0
1055.0
1048.0
1045.0
1044.0
1043.0
1043.0
1042.0
1037.0
1034.0
1032.0
1034.0
1032.0
1032.0
1027.0
1027.0
1029.0
1031.0
1033.0
1029.0
1028.0
1025.0
1026.0
1030.0
1029.0
1029.0
1025.0
1024.0
1026.0
1027.0
1029.0
1026.0
1021.0
1024.0
1024.0
1026.0
1028.0
1025.0
1022.0
1020.0
1022.0
1022.0
1024.0
1026.0
1021.0
1019.0
1021.0
1022.0
1024.0
1024.0
1018.0
1019.0
1019.0
1024.0
1022.0
1022.0
1018.0
1018.0
1020.0
1020.0
1025.0
1023.0
1020.0
1020.0
1021.0
1020.0
1024.0
1023.0
1021.0
1021.0
1024.0
1026.0
1025.0
1024.0
1021.0
1023.0
1024.0
1026.0
1029.0
1029.0
1023.0
1021.0
1024.0
1026.0
1026.0
1025.0
1023.0
1020.0
1023.0
1026.0
1026.0
1023.0
1022.0
1020.0
1022.0
1026.0
1025.0
1024.0
1021.0
1021.0
1021.0
1024.0
1025.0
1023.0
1022.0
1021.0
1023.0
1024.0
1025.0
1022.0
1022.0
1019.0
1020.0
1023.0
1025.0
1023.0
1020.0
1019.0
1020.0
1023.0
1023.0
1023.0
1021.0
1021.0
1022.0
1022.0
1023.0
1021.0
1018.0
1017.0
1020.0
1023.0
1024.0
1022.0
1017.0
1016.0
1016.0
1019.0
1022.0
1022.0
1021.0
1019.0
1019.0
1023.0
1022.0
1020.0
1020.0
1017.0
1018.0
1024.0
1024.0
1022.0
1019.0
1017.0
1020.0
1022.0
1021.0
1022.0
1020.0
1020.0
1020.0
1023.0
1022.0
1024.0
1020.0
1018.0
1020.0
1022.0
1025.0
1022.0
1019.0
1020.0
1021.0
1026.0
1024.0
1024.0
1021.0
1020.0
1022.0
1024.0
1024.0
1023.0
1020.0
1019.0
1021.0
1024.0
1026.0
1025.0
1027.0
1023.0
1025.0
1028.0
1032.0
1030.0
1029.0
1030.0
1032.0
1034.0
1037.0
1033.0
1032.0
1032.0
1035.0
1037.0
1041.0
1037.0
1036.0
1035.0
1036.0
1036.0
1036.0
1034.0
1029.0
1029.0
1030.0
1034.0
1035.0
1034.0
1032.0
1031.0
1031.0
1035.0
1037.0
1036.0
1035.0
1031.0
1032.0
1032.0
1031.0
1029.0
1024.0
1021.0
1025.0
1028.0
1030.0
1027.0
1023.0
1026.0
1026.0
1028.0
1029.0
1029.0
1026.0
1023.0
1023.0
1025.0
1029.0
1027.0
1024.0
1025.0
1027.0
1027.0
1027.0
1027.0
1024.0
1023.0
1025.0
1025.0
1028.0
1026.0
1024.0
1023.0
1026.0
1028.0
1030.0
1031.0
1033.0
1035.0
1040.0
1052.0
1062.0
1072.0
1077.0
1088.0
1102.0
1124.0
1147.0
1173.0
1195.0
1223.0
1254.0
1286.0
1317.0
1355.0
1396.0
1426.0
1436.0
1418.0
1362.0
1272.0
1177.0
1100.0
1052.0
1026.0
1017.0
1016.0
1017.0
1019.0
1021.0
1022.0
1022.0
1021.0
1014.0
1012.0
1008.0
1010.0
1011.0
1008.0
1002.0
1003.0
1003.0
1003.0
1007.0
1003.0
999.0
997.0
1000.0
1004.0
1004.0
1001.0
999.0
998.0
1001.0
1002.0
1002.0
998.0
997.0
996.0
998.0
1000.0
1001.0
999.0
996.0
996.0
994.0
998.0
1000.0
997.0
994.0
991.0
994.0
996.0
999.0
997.0
994.0
994.0
995.0
998.0
997.0
996.0
993.0
993.0
994.0
998.0
1000.0
997.0
994.0
993.0
997.0
1000.0
1001.0
999.0
1000.0
994.0
996.0
1001.0
1001.0
1002.0
998.0
999.0
1001.0
1004.0
1008.0
1005.0
1004.0
1006.0
1011.0
1012.0
1017.0
1019.0
1018.0
1018.0
1023.0
1027.0
1031.0
1033.0
1033.0
1036.0
1040.0
1045.0
1051.0
1050.0
1050.0
1054.0
1059.0
1065.0
1065.0
1064.0
1064.0
1061.0
1062.0
1067.0
1065.0
1063.0
1057.0
1055.0
1053.0
1053.0
1053.0
1049.0
1042.0
1039.0
1041.0
1042.0
1039.0
1037.0
1033.0
1031.0
1033.0
1034.0
1035.0
1032.0
1030.0
1026.0
1028.0
1030.0
1031.0
1030.0
1027.0
1027.0
1026.0
1029.0
1032.0
1028.0
1025.0
1023.0
1025.0
1029.0
1030.0
1025.0
1024.0
1020.0
1022.0
1026.0
1026.0
1023.0
1021.0
1023.0
1023.0
1025.0
1028.0
1023.0
1021.0
1022.0
1022.0
1024.0
1024.0
1023.0
1019.0
1018.0
1023.0
1024.0
1025.0
1024.0
1021.0
1019.0
1022.0
1024.0
1025.0
1025.0
1022.0
1023.0
1026.0
1030.0
1028.0
1026.0
1023.0
1023.0
1026.0
1029.0
1030.0
1028.0
1027.0
1024.0
1025.0
1026.0
1027.0
1026.0
1023.0
1024.0
1027.0
1027.0
1027.0
1025.0
1024.0
1023.0
1028.0
1033.0
1034.0
1040.0
1045.0
1057.0
1075.0
1102.0
1128.0
1149.0
1160.0
1160.0
1150.0
1134.0
1099.0
1041.0
963.0
872.0
773.0
692.0
652.0
638.0
632.0
629.0
622.0
636.0
651.0
676.0
700.0
727.0
757.0
786.0
809.0
826.0
840.0
856.0
874.0
889.0
903.0
914.0
920.0
924.0
935.0
945.0
958.0
966.0
974.0
983.0
993.0
1007.0
1016.0
1023.0
1028.0
1034.0
1041.0
1045.0
1048.0
1046.0
1045.0
1051.0
1054.0
1062.0
1061.0
1065.0
1063.0
1065.0
1066.0
1070.0
1071.0
1071.0
1069.0
1071.0
1075.0
1079.0
1077.0
1081.0
1078.0
1078.0
1082.0
1088.0
1092.0
1093.0
1091.0
1090.0
1095.0
1101.0
1102.0
1105.0
1105.0
1105.0
1112.0
1119.0
1121.0
1122.0
1124.0
1128.0
1133.0
1141.0
1144.0
1150.0
1156.0
1156.0
1162.0
1171.0
1178.0
1183.0
1188.0
1192.0
1201.0
1207.0
1216.0
1220.0
1222.0
1230.0
1240.0
1248.0
1250.0
1254.0
1255.0
1254.0
1260.0
1262.0
1264.0
1263.0
1260.0
1256.0
1257.0
1254.0
1251.0
1243.0
1235.0
1229.0
1226.0
1224.0
1216.0
1206.0
1197.0
1186.0
1179.0
1174.0
1170.0
1159.0
1148.0
1140.0
1135.0
1130.0
1122.0
1114.0
1104.0
1098.0
1093.0
1089.0
1084.0
1074.0
1069.0
1062.0
1060.0
1058.0
1056.0
1051.0
1044.0
1039.0
1037.0
1040.0
1038.0
1033.0
1028.0
1026.0
1026.0
1025.0
1027.0
1025.0
1020.0
1019.0
1021.0
1022.0
1023.0
1019.0
1016.0
1017.0
1016.0
1020.0
1019.0
1018.0
1014.0
1012.0
1016.0
1016.0
1016.0
1013.0
1012.0
1010.0
1011.0
1014.0
1012.0
1012.0
1009.0
1009.0
1010.0
1011.0
1012.0
1009.0
1005.0
1004.0
1005.0
1008.0
1009.0
1008.0
1002.0
1000.0
1002.0
1004.0
1002.0
1003.0
999.0
1000.0
1001.0
1002.0
1002.0
1000.0
996.0
997.0
997.0
999.0
999.0
997.0
994.0
992.0
994.0
998.0
998.0
996.0
993.0
992.0
992.0
995.0
995.0
992.0
991.0
992.0
992.0
994.0
994.0
993.0
991.0
990.0
993.0
994.0
995.0
993.0
991.0
987.0
992.0
993.0
995.0
994.0
991.0
990.0
991.0
994.0
993.0
991.0
987.0
987.0
991.0
995.0
993.0
990.0
989.0
987.0
991.0
995.0
994.0
991.0
989.0
988.0
991.0
995.0
995.0
994.0
990.0
989.0
992.0
993.0
994.0
993.0
992.0
990.0
994.0
994.0
995.0
992.0
992.0
991.0
993.0
995.0
995.0
993.0
991.0
990.0
991.0
995.0
995.0
994.0
992.0
992.0
994.0
997.0
995.0
995.0
995.0
991.0
992.0
997.0
999.0
995.0
995.0
991.0
994.0
998.0
999.0
996.0
995.0
992.0
994.0
999.0
999.0
999.0
996.0
995.0
994.0
998.0
999.0
1000.0
997.0
995.0
996.0
998.0
1000.0
999.0
996.0
997.0
996.0
999.0
999.0
997.0
995.0
996.0
998.0
1000.0
1001.0
999.0
995.0
995.0
997.0
1000.0
1001.0
1000.0
998.0
994.0
999.0
999.0
1001.0
1001.0
997.0
1001.0
1001.0
1002.0
1003.0
1002.0
998.0
998.0
998.0
1003.0
1004.0
1002.0
1000.0
997.0
1000.0
1003.0
1001.0
1004.0
998.0
1000.0
1003.0
1004.0
1002.0
1001.0
997.0
1000.0
1003.0
1004.0
1006.0
1005.0
1000.0
999.0
1001.0
1004.0
1002.0
1002.0
1000.0
1001.0
1003.0
1004.0
1006.0
1000.0
1000.0
1000.0
1001.0
1007.0
1003.0
1004.0
999.0
997.0
1000.0
1004.0
1002.0
1004.0
1002.0
1000.0
1001.0
1005.0
1005.0
1003.0
1000.0
1000.0
1004.0
1005.0
1006.0
1002.0
1001.0
1001.0
1003.0
1006.0
1008.0
1003.0
1000.0
1003.0
1003.0
1003.0
1006.0
1003.0
1003.0
1002.0
1004.0
1007.0
1007.0
1003.0
1000.0
1002.0
1002.0
1005.0
1007.0
1005.0
1001.0
1001.0
1003.0
1005.0
1005.0
1004.0
1001.0
1003.0
1003.0
1008.0
1007.0
1004.0
1004.0
1002.0
1007.0
1008.0
1008.0
1006.0
1004.0
1004.0
1004.0
1008.0
1008.0
1004.0
1002.0
1006.0
1006.0
1008.0
1008.0
1007.0
1006.0
1009.0
1014.0
1016.0
1018.0
1016.0
1012.0
1013.0
1014.0
1017.0
1018.0
1019.0
1016.0
1016.0
1016.0
1018.0
1015.0
1014.0
1010.0
1011.0
1012.0
1014.0
1016.0
1016.0
1010.0
1010.0
1014.0
1018.0
1019.0
1016.0
1013.0
1014.0
1015.0
1016.0
1011.0
1009.0
1006.0
1004.0
1005.0
1009.0
1009.0
1007.0
1003.0
1002.0
1007.0
1009.0
1007.0
1006.0
1005.0
1005.0
1004.0
1008.0
1008.0
1003.0
1001.0
1002.0
1007.0
1011.0
1008.0
1006.0
1002.0
1003.0
1006.0
1009.0
1008.0
1007.0
1005.0
1007.0
1011.0
1013.0
1020.0
1024.0
1027.0
1038.0
1048.0
1059.0
1066.0
1078.0
1095.0
1121.0
1152.0
1185.0
1213.0
1243.0
1273.0
1311.0
1356.0
1399.0
1419.0
1412.0
1368.0
1290.0
1196.0
1112.0
1053.0
1018.0
1005.0
1008.0
1015.0
1018.0
1016.0
1011.0
1007.0
1004.0
1003.0
1001.0
998.0
994.0
990.0
988.0
986.0
991.0
991.0
986.0
983.0
983.0
982.0
989.0
988.0
985.0
978.0
979.0
981.0
982.0
980.0
980.0
977.0
977.0
978.0
981.0
981.0
978.0
977.0
977.0
980.0
982.0
983.0
978.0
976.0
977.0
979.0
982.0
980.0
981.0
977.0
978.0
980.0
980.0
981.0
980.0
977.0
979.0
980.0
982.0
984.0
980.0
979.0
980.0
982.0
984.0
983.0
981.0
980.0
979.0
982.0
985.0
986.0
986.0
982.0
986.0
986.0
988.0
989.0
989.0
984.0
984.0
985.0
990.0
992.0
990.0
987.0
990.0
991.0
995.0
996.0
997.0
995.0
998.0
1000.0
1003.0
1006.0
1006.0
1006.0
1007.0
1013.0
1015.0
1019.0
1018.0
1017.0
1021.0
1025.0
1032.0
1034.0
1035.0
1035.0
1040.0
1044.0
1048.0
1051.0
1050.0
1050.0
1050.0
1056.0
1058.0
1055.0
1054.0
1051.0
1049.0
1052.0
1052.0
1051.0
1047.0
1041.0
1039.0
1041.0
1040.0
1039.0
1037.0
1034.0
1032.0
1031.0
1035.0
1032.0
1030.0
1026.0
1025.0
1027.0
1029.0
1031.0
1029.0
1025.0
1024.0
1025.0
1029.0
1030.0
1025.0
1022.0
1023.0
1024.0
1024.0
1025.0
1025.0
1023.0
1023.0
1023.0
1025.0
1024.0
1024.0
1023.0
1023.0
1024.0
1030.0
1027.0
1026.0
1023.0
1024.0
1025.0
1031.0
1029.0
1029.0
1024.0
1025.0
1024.0
1030.0
1031.0
1028.0
1029.0
1028.0
1029.0
1031.0
1029.0
1028.0
1026.0
1029.0
1030.0
1031.0
1030.0
1028.0
1025.0
1024.0
1026.0
1030.0
1027.0
1027.0
1022.0
1022.0
1024.0
1025.0
1026.0
1024.0
1021.0
1021.0
1022.0
1021.0
1023.0
1022.0
1020.0
1021.0
1020.0
1023.0
1023.0
1020.0
1017.0
1019.0
1020.0
1023.0
1020.0
1021.0
1019.0
1017.0
1020.0
1021.0
1021.0
1019.0
1020.0
1018.0
1020.0
1022.0
1020.0
1019.0
1016.0
1018.0
1019.0
1022.0
1020.0
1018.0
1016.0
1016.0
1016.0
1020.0
1021.0
1021.0
1017.0
1016.0
1019.0
1022.0
1020.0
1018.0
1016.0
1019.0
1020.0
1023.0
1021.0
1020.0
1017.0
1017.0
1020.0
1022.0
1022.0
1021.0
1017.0
1018.0
1022.0
1023.0
1023.0
1020.0
1016.0
1018.0
1019.0
1023.0
1021.0
1021.0
1017.0
1020.0
1021.0
1025.0
1022.0
1021.0
1018.0
1020.0
1020.0
1024.0
1025.0
1022.0
1018.0
1019.0
1021.0
1025.0
1026.0
1025.0
1027.0
1027.0
1030.0
1032.0
1034.0
1032.0
1032.0
1032.0
1037.0
1038.0
1038.0
1036.0
1032.0
1035.0
1035.0
1034.0
1033.0
1032.0
1028.0
1029.0
1028.0
1034.0
1032.0
1034.0
1029.0
1031.0
1033.0
1036.0
1037.0
1032.0
1029.0
1030.0
1030.0
1032.0
1027.0
1025.0
1023.0
1020.0
1023.0
1025.0
1026.0
1024.0
1022.0
1022.0
1025.0
1027.0
1024.0
1024.0
1019.0
1020.0
1021.0
1027.0
1025.0
1024.0
1022.0
1019.0
1022.0
1028.0
1028.0
1024.0
1021.0
1024.0
1025.0
1029.0
1029.0
1031.0
1029.0
1029.0
1036.0
1044.0
1049.0
1060.0
1068.0
1079.0
1088.0
1106.0
1126.0
1150.0
1177.0
1205.0
1237.0
1267.0
1298.0
1337.0
1375.0
1407.0
1413.0
1382.0
1309.0
1215.0
1122.0
1060.0
1028.0
1016.0
1016.0
1018.0
1024.0
1025.0
1029.0
1026.0
1024.0
1019.0
1012.0
1012.0
1013.0
1013.0
1014.0
1012.0
1008.0
1007.0
1009.0
1013.0
1013.0
1011.0
1007.0
1007.0
1009.0
1008.0
1009.0
1008.0
1005.0
1006.0
1008.0
1008.0
1008.0
1003.0
1001.0
1002.0
1007.0
1007.0
1007.0
1005.0
1001.0
1001.0
1002.0
1004.0
1007.0
1005.0
1006.0
1006.0
1004.0
1009.0
1008.0
1005.0
1001.0
1004.0
1005.0
1008.0
1007.0
1006.0
1004.0
1004.0
1005.0
1010.0
1008.0
1006.0
1004.0
1004.0
1006.0
1010.0
1009.0
1008.0
1005.0
1004.0
1008.0
1010.0
1012.0
1009.0
1008.0
1011.0
1016.0
1020.0
1021.0
1020.0
1014.0
1017.0
1024.0
1028.0
1028.0
1031.0
1030.0
