# Simple Text Format
# Sampling Rate (Hz):= 360.00
# Resolution:= 12
# Labels:= ECG
1036.0
1030.0
1025.0
1024.0
1027.0
1028.0
1026.0
1025.0
1024.0
1027.0
1028.0
1030.0
1028.0
1025.0
1022.0
1027.0
1032.0
1035.0
1031.0
1029.0
1024.0
1026.0
1029.0
1034.0
1032.0
1029.0
1030.0
1032.0
1034.0
1039.0
1041.0
1044.0
1049.0
1061.0
1074.0
1087.0
1096.0
1108.0
1132.0
1160.0
1195.0
1230.0
1257.0
1292.0
1325.0
1364.0
1406.0
1445.0
1471.0
1471.0
1447.0
1392.0
1306.0
1216.0
1139.0
1084.0
1053.0
1046.0
1046.0
1044.0
1044.0
1038.0
1034.0
1030.0
1028.0
1025.0
1022.0
1018.0
1014.0
1010.0
1009.0
1008.0
1006.0
1006.0
1006.0
1005.0
1006.0
1005.0
1009.0
1005.0
1001.0
1006.0
1005.0
1007.0
1005.0
1005.0
1003.0
1003.0
1003.0
1001.0
1001.0
997.0
996.0
995.0
1000.0
1005.0
1003.0
1000.0
999.0
999.0
1001.0
1004.0
1005.0
1003.0
1000.0
998.0
1000.0
1003.0
1001.0
1000.0
1003.0
1007.0
1006.0
1007.0
1001.0
1000.0
1002.0
1000.0
1001.0
1005.0
1002.0
1004.0
1007.0
1006.0
1011.0
1011.0
1008.0
1004.0
1003.0
1009.0
1015.0
1016.0
1012.0
1009.0
1012.0
1016.0
1019.0
1017.0
1015.0
1010.0
1014.0
1018.0
1022.0
1027.0
1028.0
1028.0
1027.0
1031.0
1034.0
1038.0
1038.0
1039.0
1044.0
1052.0
1060.0
1065.0
1063.0
1055.0
1055.0
1060.0
1070.0
1076.0
1079.0
1080.0
1083.0
1082.0
1081.0
1084.0
1084.0
1083.0
1082.0
1082.0
1078.0
1080.0
1072.0
1069.0
1066.0
1067.0
1067.0
1066.0
1060.0
1058.0
1056.0
1058.0
1058.0
1055.0
1053.0
1047.0
1047.0
1049.0
1051.0
1048.0
1047.0
1047.0
1046.0
1048.0
1047.0
1051.0
1045.0
1037.0
1032.0
1038.0
1043.0
1046.0
1043.0
1037.0
1034.0
1037.0
1040.0
1045.0
1044.0
1037.0
1035.0
1036.0
1043.0
1042.0
1042.0
1036.0
1035.0
1033.0
1038.0
1043.0
1042.0
1040.0
1037.0
1037.0
1041.0
1040.0
1037.0
1034.0
1033.0
1037.0
1043.0
1046.0
1043.0
1038.0
1037.0
1040.0
1041.0
1040.0
1035.0
1033.0
1031.0
1035.0
1037.0
1038.0
1038.0
1037.0
1039.0
1033.0
1034.0
1037.0
1037.0
1032.0
1030.0
1029.0
1031.0
1034.0
1035.0
1034.0
1030.0
1031.0
1033.0
1035.0
1035.0
1033.0
1030.0
1029.0
1032.0
1032.0
1029.0
1029.0
1030.0
1038.0
1041.0
1040.0
1035.0
1029.0
1026.0
1030.0
1034.0
1035.0
1031.0
1029.0
1029.0
1032.0
1036.0
1037.0
1035.0
1035.0
1030.0
1032.0
1044.0
1044.0
1039.0
1027.0
1021.0
1028.0
1033.0
1040.0
1039.0
1031.0
1028.0
1031.0
1036.0
1038.0
1037.0
1034.0
1029.0
1031.0
1033.0
1036.0
1033.0
1034.0
1036.0
1035.0
1033.0
1032.0
1034.0
1034.0
1033.0
1033.0
1034.0
1037.0
1038.0
1034.0
1034.0
1036.0
1041.0
1045.0
1042.0
1035.0
1032.0
1035.0
1048.0
1053.0
1050.0
1045.0
1042.0
1045.0
1047.0
1050.0
1049.0
1047.0
1041.0
1042.0
1044.0
1048.0
1043.0
1037.0
1035.0
1038.0
1043.0
1046.0
1048.0
1044.0
1046.0
1047.0
1047.0
1045.0
1044.0
1043.0
1043.0
1040.0
1040.0
1037.0
1036.0
1032.0
1031.0
1034.0
1037.0
1036.0
1035.0
1031.0
1031.0
1032.0
1035.0
1037.0
1040.0
1036.0
1032.0
1032.0
1034.0
1036.0
1038.0
1038.0
1033.0
1032.0
1035.0
1040.0
1040.0
1033.0
1028.0
1030.0
1035.0
1040.0
1043.0
1038.0
1035.0
1042.0
1059.0
1074.0
1084.0
1092.0
1095.0
1106.0
1122.0
1146.0
1177.0
1205.0
1232.0
1258.0
1288.0
1317.0
1348.0
1380.0
1417.0
1449.0
1470.0
1465.0
1420.0
1344.0
1251.0
1166.0
1106.0
1068.0
1048.0
1037.0
1035.0
1040.0
1044.0
1042.0
1039.0
1031.0
1025.0
1024.0
1022.0
1024.0
1020.0
1016.0
1014.0
1018.0
1022.0
1020.0
1018.0
1015.0
1010.0
1008.0
1008.0
1012.0
1016.0
1016.0
1015.0
1014.0
1016.0
1018.0
1011.0
1000.0
997.0
997.0
1007.0
1010.0
1009.0
1005.0
1007.0
1011.0
1014.0
1016.0
1016.0
1011.0
1004.0
1006.0
1005.0
1006.0
1008.0
1006.0
1004.0
1000.0
1000.0
1008.0
1007.0
1007.0
1005.0
1004.0
1006.0
1008.0
1006.0
1005.0
1006.0
1012.0
1014.0
1015.0
1010.0
1004.0
1001.0
1005.0
1010.0
1017.0
1015.0
1012.0
1013.0
1016.0
1019.0
1018.0
1014.0
1010.0
1008.0
1008.0
1015.0
1022.0
1023.0
1022.0
1019.0
1024.0
1022.0
1018.0
1018.0
1022.0
1026.0
1029.0
1033.0
1038.0
1039.0
1042.0
1042.0
1045.0
1048.0
1050.0
1051.0
1054.0
1057.0
1061.0
1066.0
1067.0
1063.0
1063.0
1061.0
1064.0
1071.0
1074.0
1077.0
1077.0
1079.0
1078.0
1080.0
1083.0
1079.0
1075.0
1072.0
1070.0
1070.0
1069.0
1068.0
1063.0
1059.0
1057.0
1059.0
1059.0
1058.0
1054.0
1051.0
1055.0
1056.0
1054.0
1052.0
1052.0
1049.0
1049.0
1047.0
1048.0
1049.0
1047.0
1049.0
1048.0
1053.0
1054.0
1050.0
1044.0
1039.0
1043.0
1045.0
1050.0
1051.0
1048.0
1045.0
1043.0
1044.0
1043.0
1039.0
1038.0
1036.0
1041.0
1042.0
1046.0
1045.0
1042.0
1040.0
1037.0
1042.0
1043.0
1041.0
1032.0
1028.0
1030.0
1038.0
1041.0
1041.0
1038.0
1036.0
1039.0
1038.0
1037.0
1037.0
1040.0
1041.0
1040.0
1037.0
1042.0
1042.0
1037.0
1036.0
1034.0
1035.0
1040.0
1041.0
1040.0
1038.0
1039.0
1041.0
1041.0
1042.0
1040.0
1041.0
1040.0
1040.0
1041.0
1035.0
1032.0
1033.0
1036.0
1039.0
1043.0
1046.0
1041.0
1038.0
1034.0
1033.0
1031.0
1034.0
1034.0
1036.0
1037.0
1040.0
1041.0
1035.0
1033.0
1030.0
1033.0
1040.0
1041.0
1042.0
1038.0
1038.0
1032.0
1031.0
1030.0
1027.0
1025.0
1029.0
1031.0
1035.0
1038.0
1039.0
1037.0
1037.0
1036.0
1036.0
1039.0
1039.0
1033.0
1028.0
1032.0
1033.0
1034.0
1031.0
1032.0
1031.0
1034.0
1036.0
1041.0
1037.0
1037.0
1037.0
1036.0
1035.0
1035.0
1038.0
1038.0
1038.0
1035.0
1033.0
1035.0
1036.0
1036.0
1035.0
1037.0
1040.0
1044.0
1040.0
1033.0
1029.0
1026.0
1029.0
1034.0
1041.0
1040.0
1040.0
1040.0
1037.0
1034.0
1032.0
1029.0
1030.0
1030.0
1033.0
1038.0
1040.0
1039.0
1035.0
1033.0
1032.0
1035.0
1036.0
1037.0
1037.0
1041.0
1044.0
1047.0
1043.0
1038.0
1033.0
1036.0
1040.0
1050.0
1053.0
1045.0
1040.0
1037.0
1040.0
1047.0
1049.0
1046.0
1049.0
1051.0
1052.0
1054.0
1048.0
1041.0
1040.0
1041.0
1046.0
1045.0
1046.0
1045.0
1047.0
1046.0
1049.0
1052.0
1051.0
1044.0
1039.0
1039.0
1041.0
1045.0
1051.0
1045.0
1042.0
1041.0
1037.0
1038.0
1035.0
1036.0
1034.0
1032.0
1032.0
1036.0
1038.0
1038.0
1036.0
1035.0
1031.0
1029.0
1026.0
1031.0
1033.0
1032.0
1035.0
1035.0
1037.0
1037.0
1034.0
1029.0
1028.0
1030.0
1031.0
1031.0
1032.0
1033.0
1037.0
1041.0
1039.0
1034.0
1033.0
1038.0
1045.0
1057.0
1067.0
1076.0
1087.0
1094.0
1101.0
1114.0
1137.0
1168.0
1194.0
1225.0
1249.0
1276.0
1298.0
1326.0
1364.0
1404.0
1433.0
1443.0
1428.0
1375.0
1291.0
1196.0
1118.0
1071.0
1043.0
1034.0
1031.0
1033.0
1032.0
1031.0
1028.0
1027.0
1022.0
1020.0
1021.0
1025.0
1018.0
1009.0
1002.0
1005.0
1014.0
1017.0
1013.0
1010.0
1009.0
1015.0
1017.0
1016.0
1012.0
1003.0
998.0
997.0
1002.0
1012.0
1014.0
1009.0
1004.0
1001.0
1002.0
1002.0
1001.0
1002.0
1006.0
1005.0
1007.0
1005.0
999.0
996.0
996.0
1003.0
1004.0
1005.0
998.0
996.0
995.0
1003.0
1007.0
1008.0
1001.0
997.0
992.0
995.0
1001.0
1006.0
1007.0
1007.0
1001.0
1004.0
1003.0
1007.0
1006.0
1004.0
1003.0
1003.0
1011.0
1014.0
1010.0
1005.0
1002.0
1007.0
1013.0
1017.0
1014.0
1006.0
1008.0
1013.0
1018.0
1020.0
1023.0
1023.0
1022.0
1022.0
1027.0
1028.0
1030.0
1028.0
1033.0
1039.0
1045.0
1045.0
1049.0
1050.0
1049.0
1053.0
1055.0
1059.0
1061.0
1065.0
1070.0
1070.0
1075.0
1074.0
1070.0
1066.0
1065.0
1064.0
1068.0
1067.0
1064.0
1059.0
1057.0
1059.0
1057.0
1056.0
1051.0
1047.0
1047.0
1045.0
1045.0
1045.0
1041.0
1039.0
1039.0
1041.0
1040.0
1039.0
1034.0
1031.0
1029.0
1028.0
1032.0
1032.0
1030.0
1029.0
1026.0
1026.0
1029.0
1031.0
1028.0
1023.0
1022.0
1025.0
1027.0
1028.0
1023.0
1018.0
1018.0
1019.0
1020.0
1020.0
1018.0
1015.0
1012.0
1013.0
1017.0
1020.0
1020.0
1015.0
1013.0
1014.0
1017.0
1021.0
1022.0
1018.0
1017.0
1018.0
1024.0
1027.0
1025.0
1020.0
1019.0
1024.0
1025.0
1025.0
1018.0
1017.0
1014.0
1019.0
1024.0
1027.0
1025.0
1023.0
1020.0
1020.0
1025.0
1024.0
1029.0
1028.0
1026.0
1026.0
1029.0
1033.0
1034.0
1031.0
1027.0
1026.0
1030.0
1033.0
1032.0
1033.0
1031.0
1030.0
1026.0
1025.0
1020.0
1022.0
1023.0
1026.0
1021.0
1019.0
1015.0
1016.0
1018.0
1020.0
1020.0
1022.0
1023.0
1018.0
1017.0
1019.0
1021.0
1022.0
1025.0
1022.0
1018.0
1020.0
1024.0
1028.0
1026.0
1025.0
1020.0
1021.0
1022.0
1024.0
1023.0
1021.0
1019.0
1021.0
1027.0
1030.0
1027.0
1023.0
1020.0
1021.0
1023.0
1020.0
1018.0
1017.0
1022.0
1025.0
1028.0
1023.0
1020.0
1020.0
1022.0
1026.0
1028.0
1029.0
1027.0
1024.0
1024.0
1029.0
1036.0
1034.0
1031.0
1026.0
1021.0
1018.0
1024.0
1027.0
1029.0
1027.0
1025.0
1028.0
1029.0
1026.0
1017.0
1007.0
1001.0
996.0
995.0
998.0
996.0
999.0
1010.0
1022.0
1029.0
1029.0
1023.0
1022.0
1024.0
1027.0
1034.0
1035.0
1035.0
1032.0
1032.0
1035.0
1034.0
1033.0
1029.0
1022.0
1022.0
1021.0
1022.0
1023.0
1020.0
1017.0
1015.0
1013.0
1017.0
1016.0
1018.0
1019.0
1021.0
1025.0
1027.0
1031.0
1031.0
1029.0
1023.0
1018.0
1018.0
1020.0
1021.0
1023.0
1023.0
1025.0
1025.0
1021.0
1017.0
1017.0
1016.0
1019.0
1019.0
1020.0
1018.0
1013.0
1010.0
1008.0
1010.0
1015.0
1017.0
1016.0
1014.0
1014.0
1016.0
1016.0
1017.0
1016.0
1016.0
1018.0
1019.0
1021.0
1019.0
1018.0
1021.0
1030.0
1042.0
1054.0
1065.0
1076.0
1086.0
1097.0
1110.0
1132.0
1157.0
1181.0
1204.0
1234.0
1264.0
1296.0
1330.0
1366.0
1404.0
1436.0
1443.0
1425.0
1375.0
1295.0
1203.0
1124.0
1072.0
1041.0
1027.0
1021.0
1021.0
1027.0
1032.0
1033.0
1026.0
1019.0
1017.0
1015.0
1013.0
1016.0
1017.0
1013.0
1008.0
1003.0
1003.0
1002.0
1002.0
1000.0
998.0
1000.0
1002.0
1004.0
1001.0
999.0
999.0
1001.0
1003.0
1006.0
1006.0
1006.0
1008.0
1007.0
1005.0
1001.0
993.0
988.0
992.0
999.0
1004.0
1002.0
1000.0
996.0
994.0
995.0
996.0
997.0
996.0
996.0
995.0
996.0
999.0
1000.0
999.0
994.0
996.0
995.0
998.0
998.0
998.0
994.0
995.0
994.0
997.0
1000.0
1004.0
1004.0
1005.0
1002.0
1002.0
997.0
1000.0
1001.0
1001.0
1002.0
1001.0
1006.0
1006.0
1005.0
1006.0
1003.0
1009.0
1008.0
1007.0
1007.0
1008.0
1007.0
1011.0
1016.0
1020.0
1019.0
1019.0
1023.0
1029.0
1034.0
1033.0
1031.0
1027.0
1030.0
1037.0
1046.0
1048.0
1046.0
1050.0
1053.0
1058.0
1062.0
1062.0
1063.0
1063.0
1063.0
1067.0
1066.0
1063.0
1064.0
1063.0
1066.0
1069.0
1070.0
1066.0
1065.0
1058.0
1054.0
1053.0
1051.0
1047.0
1046.0
1045.0
1045.0
1053.0
1049.0
1047.0
1044.0
1039.0
1041.0
1044.0
1046.0
1041.0
1035.0
1035.0
1041.0
1045.0
1046.0
1042.0
1033.0
1030.0
1029.0
1035.0
1044.0
1044.0
1041.0
1036.0
1033.0
1036.0
1035.0
1039.0
1042.0
1051.0
1068.0
1088.0
1109.0
1123.0
1127.0
1122.0
1107.0
1079.0
1019.0
931.0
829.0
724.0
647.0
609.0
602.0
588.0
592.0
611.0
638.0
668.0
708.0
744.0
776.0
804.0
824.0
849.0
864.0
876.0
887.0
904.0
921.0
934.0
947.0
955.0
965.0
978.0
991.0
1005.0
1015.0
1023.0
1034.0
1045.0
1056.0
1063.0
1067.0
1068.0
1068.0
1069.0
1076.0
1083.0
1084.0
1081.0
1079.0
1083.0
1088.0
1091.0
1092.0
1092.0
1089.0
1089.0
1093.0
1097.0
1100.0
1099.0
1098.0
1100.0
1103.0
1114.0
1119.0
1121.0
1122.0
1122.0
1130.0
1137.0
1134.0
1132.0
1131.0
1141.0
1151.0
1157.0
1160.0
1164.0
1167.0
1178.0
1188.0
1192.0
1199.0
1200.0
1203.0
1208.0
1212.0
1219.0
1229.0
1234.0
1237.0
1243.0
1247.0
1251.0
1255.0
1250.0
1252.0
1252.0
1261.0
1262.0
1263.0
1261.0
1252.0
1248.0
1246.0
1246.0
1244.0
1239.0
1231.0
1223.0
1218.0
1215.0
1213.0
1202.0
1192.0
1181.0
1177.0
1173.0
1168.0
1161.0
1150.0
1143.0
1137.0
1135.0
1130.0
1119.0
1108.0
1100.0
1096.0
1092.0
1087.0
1084.0
1078.0
1075.0
1071.0
1070.0
1069.0
1064.0
1060.0
1058.0
1053.0
1054.0
1055.0
1054.0
1049.0
1049.0
1051.0
1050.0
1048.0
1042.0
1040.0
1040.0
1038.0
1040.0
1041.0
1038.0
1036.0
1036.0
1036.0
1040.0
1041.0
1040.0
1034.0
1034.0
1033.0
1036.0
1037.0
1036.0
1032.0
1030.0
1035.0
1032.0
1033.0
1030.0
1025.0
1021.0
1024.0
1028.0
1031.0
1030.0
1028.0
1026.0
1027.0
1026.0
1023.0
1020.0
1018.0
1019.0
1017.0
1019.0
1021.0
1020.0
1017.0
1016.0
1017.0
1018.0
1018.0
1013.0
1010.0
1009.0
1010.0
1014.0
1016.0
1013.0
1009.0
1008.0
1011.0
1015.0
1016.0
1012.0
1008.0
1009.0
1008.0
1009.0
1007.0
1005.0
1004.0
1005.0
1008.0
1010.0
1013.0
1012.0
1004.0
1001.0
1002.0
1008.0
1013.0
1012.0
1009.0
1005.0
1004.0
1002.0
1001.0
1003.0
1003.0
1003.0
1002.0
1004.0
1004.0
1001.0
1001.0
1003.0
1005.0
1009.0
1008.0
1005.0
998.0
999.0
1003.0
1007.0
1011.0
1011.0
1006.0
1002.0
998.0
997.0
1001.0
1004.0
1007.0
1003.0
1003.0
1005.0
1003.0
999.0
996.0
997.0
1002.0
1005.0
1006.0
1004.0
1000.0
1002.0
1002.0
1005.0
1007.0
999.0
994.0
993.0
999.0
1004.0
1005.0
1001.0
998.0
999.0
1003.0
1003.0
1003.0
998.0
996.0
999.0
1000.0
1004.0
1007.0
1006.0
1000.0
1001.0
1002.0
1007.0
1005.0
1004.0
1002.0
999.0
1000.0
1004.0
998.0
996.0
994.0
997.0
1003.0
1005.0
1007.0
1003.0
999.0
1000.0
1005.0
1009.0
1014.0
1009.0
1005.0
999.0
1001.0
1001.0
1005.0
1003.0
1002.0
1003.0
1005.0
1010.0
1010.0
1007.0
1002.0
999.0
998.0
1002.0
1006.0
1007.0
1004.0
1005.0
1005.0
1003.0
1003.0
1004.0
1001.0
1004.0
1006.0
1009.0
1009.0
1009.0
1005.0
1001.0
1001.0
1006.0
1008.0
1006.0
1003.0
1001.0
1001.0
1009.0
1013.0
1011.0
1003.0
1001.0
1003.0
1008.0
1009.0
1006.0
1003.0
1000.0
1003.0
1006.0
1009.0
1005.0
998.0
999.0
1001.0
1005.0
1006.0
1007.0
1007.0
1002.0
1004.0
1006.0
1007.0
1005.0
1006.0
1002.0
1003.0
1006.0
1006.0
1005.0
1001.0
1000.0
1002.0
1007.0
1009.0
1008.0
1004.0
1002.0
1003.0
1006.0
1005.0
1005.0
1005.0
1008.0
1010.0
1008.0
1007.0
1007.0
1005.0
1001.0
1006.0
1008.0
1007.0
1003.0
1001.0
999.0
1005.0
1008.0
1010.0
1008.0
1002.0
1006.0
1009.0
1013.0
1012.0
1009.0
1006.0
1004.0
1005.0
1010.0
1011.0
1009.0
1009.0
1008.0
1008.0
1010.0
1008.0
1005.0
1003.0
1006.0
1010.0
1013.0
1013.0
1015.0
1009.0
1010.0
1011.0
1014.0
1011.0
1010.0
1006.0
1008.0
1011.0
1014.0
1015.0
1015.0
1009.0
1007.0
1010.0
1012.0
1013.0
1012.0
1008.0
1008.0
1011.0
1010.0
1012.0
1012.0
1011.0
1010.0
1008.0
1010.0
1010.0
1010.0
1008.0
1009.0
1011.0
1013.0
1012.0
1013.0
1013.0
1011.0
1013.0
1012.0
1014.0
1020.0
1017.0
1017.0
1020.0
1023.0
1025.0
1023.0
1020.0
1019.0
1023.0
1025.0
1024.0
1026.0
1024.0
1021.0
1022.0
1023.0
1022.0
1022.0
1021.0
1021.0
1025.0
1026.0
1024.0
1025.0
1023.0
1023.0
1023.0
1024.0
1022.0
1021.0
1019.0
1017.0
1017.0
1019.0
1021.0
1020.0
1016.0
1016.0
1019.0
1019.0
1021.0
1015.0
1013.0
1013.0
1017.0
1019.0
1019.0
1015.0
1014.0
1018.0
1022.0
1021.0
1022.0
1017.0
1013.0
1014.0
1017.0
1022.0
1021.0
1018.0
1017.0
1020.0
1028.0
1037.0
1045.0
1053.0
1057.0
1066.0
1079.0
1090.0
1110.0
1133.0
1159.0
1186.0
1212.0
1247.0
1280.0
1317.0
1359.0
1389.0
1398.0
1374.0
1308.0
1212.0
1119.0
1060.0
1033.0
1023.0
1024.0
1024.0
1020.0
1018.0
1020.0
1023.0
1022.0
1016.0
1011.0
1008.0
1009.0
1007.0
1005.0
999.0
996.0
994.0
996.0
1000.0
1001.0
998.0
996.0
993.0
994.0
995.0
999.0
997.0
996.0
994.0
992.0
995.0
995.0
995.0
990.0
989.0
993.0
996.0
997.0
995.0
988.0
988.0
992.0
997.0
996.0
995.0
991.0
989.0
993.0
997.0
998.0
998.0
991.0
990.0
990.0
993.0
996.0
997.0
998.0
999.0
1001.0
1004.0
1004.0
999.0
996.0
997.0
998.0
1004.0
1007.0
1005.0
998.0
994.0
996.0
1000.0
1001.0
999.0
997.0
997.0
1000.0
1001.0
1004.0
1003.0
1001.0
1002.0
1003.0
1004.0
1007.0
1006.0
1005.0
1004.0
1007.0
1013.0
1015.0
1016.0
1016.0
1017.0
1023.0
1028.0
1032.0
1034.0
1032.0
1035.0
1037.0
1045.0
1047.0
1050.0
1054.0
1057.0
1060.0
1064.0
1069.0
1068.0
1071.0
1069.0
1068.0
1072.0
1076.0
1081.0
1078.0
1077.0
1076.0
1072.0
1073.0
1069.0
1069.0
1066.0
1065.0
1062.0
1061.0
1063.0
1063.0
1060.0
1061.0
1064.0
1061.0
1056.0
1051.0
1049.0
1049.0
1053.0
1053.0
1049.0
1047.0
1043.0
1043.0
1045.0
1047.0
1043.0
1039.0
1037.0
1037.0
1037.0
1037.0
1035.0
1038.0
1038.0
1038.0
1039.0
1037.0
1034.0
1029.0
1030.0
1031.0
1034.0
1034.0
1032.0
1027.0
1026.0
1028.0
1029.0
1027.0
1029.0
1029.0
1029.0
1027.0
1029.0
1028.0
1025.0
1023.0
1020.0
1023.0
1026.0
1028.0
1028.0
1022.0
1020.0
1023.0
1023.0
1022.0
1017.0
1012.0
1012.0
1015.0
1022.0
1023.0
1021.0
1012.0
1011.0
1013.0
1018.0
1017.0
1014.0
1010.0
1014.0
1016.0
1018.0
1016.0
1015.0
1011.0
1010.0
1010.0
1012.0
1013.0
1015.0
1013.0
1011.0
1011.0
1013.0
1011.0
1010.0
1010.0
1012.0
1013.0
1016.0
1015.0
1012.0
1009.0
1007.0
1012.0
1014.0
1014.0
1012.0
1005.0
1007.0
1009.0
1013.0
1014.0
1014.0
1011.0
1012.0
1011.0
1015.0
1012.0
1010.0
1009.0
1009.0
1011.0
1014.0
1013.0
1009.0
1008.0
1010.0
1012.0
1012.0
1012.0
1012.0
1013.0
1013.0
1015.0
1014.0
1015.0
1013.0
1010.0
1009.0
1013.0
1015.0
1016.0
1011.0
1008.0
1008.0
1012.0
1017.0
1018.0
1015.0
1014.0
1013.0
1015.0
1016.0
1013.0
1012.0
1012.0
1012.0
1014.0
1018.0
1020.0
1021.0
1020.0
1018.0
1022.0
1022.0
1024.0
1024.0
1024.0
1026.0
1025.0
1030.0
1031.0
1030.0
1024.0
1020.0
1020.0
1025.0
1024.0
1023.0
1020.0
1021.0
1023.0
1026.0
1027.0
1024.0
1022.0
1021.0
1024.0
1025.0
1026.0
1023.0
1022.0
1018.0
1019.0
1021.0
1019.0
1021.0
1019.0
1016.0
1016.0
1018.0
1020.0
1019.0
1016.0
1015.0
1016.0
1018.0
1022.0
1019.0
1015.0
1017.0
1017.0
1021.0
1021.0
1016.0
1014.0
1015.0
1018.0
1022.0
1024.0
1021.0
1014.0
1012.0
1014.0
1020.0
1023.0
1022.0
1023.0
1028.0
1036.0
1043.0
1054.0
1062.0
1067.0
1076.0
1092.0
1120.0
1149.0
1176.0
1200.0
1226.0
1256.0
1288.0
1326.0
1366.0
1396.0
1404.0
1380.0
1322.0
1230.0
1132.0
1060.0
1025.0
1011.0
1010.0
1012.0
1016.0
1016.0
1010.0
1012.0
1012.0
1012.0
1007.0
1003.0
1001.0
999.0
1002.0
998.0
997.0
998.0
993.0
994.0
995.0
995.0
996.0
992.0
992.0
994.0
995.0
995.0
992.0
989.0
988.0
989.0
993.0
993.0
990.0
986.0
985.0
988.0
994.0
993.0
992.0
989.0
989.0
992.0
993.0
990.0
988.0
987.0
988.0
988.0
993.0
992.0
989.0
991.0
992.0
994.0
997.0
995.0
994.0
993.0
993.0
994.0
997.0
996.0
995.0
996.0
994.0
998.0
1001.0
999.0
1000.0
998.0
998.0
1005.0
1008.0
1006.0
1003.0
998.0
1000.0
1004.0
1010.0
1008.0
1007.0
1003.0
1002.0
1006.0
1012.0
1014.0
1015.0
1015.0
1017.0
1019.0
1023.0
1025.0
1024.0
1025.0
1026.0
1030.0
1034.0
1039.0
1044.0
1042.0
1043.0
1050.0
1051.0
1051.0
1049.0
1046.0
1047.0
1048.0
1049.0
1046.0
1043.0
1038.0
1036.0
1036.0
1038.0
1039.0
1037.0
1033.0
1031.0
1029.0
1033.0
1032.0
1028.0
1028.0
1026.0
1029.0
1033.0
1036.0
1033.0
1029.0
1026.0
1024.0
1028.0
1030.0
1032.0
1026.0
1026.0
1027.0
1029.0
1028.0
1028.0
1027.0
1027.0
1030.0
1032.0
1034.0
1037.0
1032.0
1028.0
1029.0
1031.0
1031.0
1031.0
1028.0
1026.0
1029.0
1032.0
1034.0
1032.0
1030.0
1031.0
1034.0
1035.0
1032.0
1030.0
1026.0
1027.0
1030.0
1031.0
1030.0
1027.0
1026.0
1027.0
1028.0
1031.0
1027.0
1027.0
1025.0
1023.0
1027.0
1028.0
1030.0
1029.0
1026.0
1026.0
1028.0
1032.0
1031.0
1028.0
1021.0
1018.0
1020.0
1026.0
1028.0
1030.0
1025.0
1024.0
1028.0
1029.0
1027.0
1026.0
1025.0
1025.0
1024.0
1027.0
1026.0
1022.0
1022.0
1024.0
1026.0
1028.0
1025.0
1028.0
1023.0
1024.0
1026.0
1030.0
1032.0
1024.0
1020.0
1021.0
1025.0
1026.0
1028.0
1028.0
1027.0
1031.0
1031.0
1030.0
1029.0
1023.0
1022.0
1026.0
1027.0
1031.0
1031.0
1029.0
1028.0
1025.0
1027.0
1032.0
1032.0
1031.0
1031.0
1031.0
1033.0
1034.0
1035.0
1029.0
1027.0
1030.0
1031.0
1033.0
1034.0
1032.0
1029.0
1030.0
1029.0
1033.0
1037.0
1038.0
1034.0
1033.0
1034.0
1040.0
1041.0
1043.0
1039.0
1037.0
1041.0
1047.0
1044.0
1041.0
1037.0
1036.0
1038.0
1042.0
1040.0
1037.0
1036.0
1037.0
1040.0
1039.0
1040.0
1043.0
1040.0
1040.0
1039.0
1038.0
1035.0
1034.0
1033.0
1035.0
1033.0
1033.0
1031.0
1030.0
1025.0
1026.0
1029.0
1031.0
1033.0
1031.0
1028.0
1029.0
1035.0
1038.0
1037.0
1029.0
1029.0
1028.0
1031.0
1033.0
1033.0
1031.0
1028.0
1026.0
1026.0
1034.0
1034.0
1035.0
1030.0
1030.0
1030.0
1034.0
1034.0
1034.0
1034.0
1037.0
1043.0
1048.0
1052.0
1056.0
1064.0
1074.0
1084.0
1099.0
1118.0
1137.0
1162.0
1185.0
1209.0
1235.0
1259.0
1285.0
1315.0
1354.0
1393.0
1413.0
1408.0
1369.0
1297.0
1209.0
1131.0
1077.0
1046.0
1026.0
1014.0
1014.0
1021.0
1026.0
1027.0
1027.0
1021.0
1020.0
1019.0
1020.0
1017.0
1011.0
1010.0
1008.0
1011.0
1015.0
1017.0
1012.0
1009.0
1009.0
1009.0
1010.0
1011.0
1010.0
1008.0
1013.0
1011.0
1013.0
1011.0
1007.0
1004.0
1007.0
1009.0
1011.0
1011.0
1008.0
1006.0
1005.0
1008.0
1009.0
1010.0
1008.0
1004.0
1005.0
1008.0
1009.0
1012.0
1008.0
1006.0
1008.0
1012.0
1016.0
1016.0
1012.0
1013.0
1011.0
1013.0
1014.0
1016.0
1015.0
1016.0
1015.0
1016.0
1019.0
1018.0
1017.0
1017.0
1018.0
1021.0
1024.0
1021.0
1019.0
1016.0
1018.0
1020.0
1023.0
1028.0
1027.0
1026.0
1023.0
1030.0
1032.0
1033.0
1034.0
1035.0
1036.0
1038.0
1041.0
1043.0
1042.0
1040.0
1040.0
1042.0
1047.0
1049.0
1047.0
1047.0
1051.0
1059.0
1061.0
1065.0
1062.0
1062.0
1063.0
1072.0
1076.0
1079.0
1079.0
1079.0
1079.0
1082.0
1086.0
1088.0
1085.0
1084.0
1086.0
1083.0
1084.0
1081.0
1078.0
1078.0
1077.0
1078.0
1077.0
1074.0
1068.0
1065.0
1063.0
1062.0
1061.0
1059.0
1058.0
1054.0
1053.0
1051.0
1051.0
1052.0
1048.0
1048.0
1049.0
1051.0
1053.0
1050.0
1047.0
1044.0
1043.0
1044.0
1050.0
1048.0
1046.0
1042.0
1043.0
1046.0
1049.0
1046.0
1044.0
1039.0
1039.0
1040.0
1040.0
1038.0
1036.0
1035.0
1036.0
1042.0
1046.0
1045.0
1043.0
1040.0
1039.0
1038.0
1039.0
1040.0
1037.0
1033.0
1032.0
1033.0
1037.0
1037.0
1041.0
1042.0
1039.0
1039.0
1042.0
1042.0
1039.0
1036.0
1035.0
1037.0
1040.0
1041.0
1037.0
1034.0
1033.0
1033.0
1036.0
1033.0
1033.0
1031.0
1031.0
1036.0
1043.0
1039.0
1034.0
1031.0
1027.0
1028.0
1033.0
1033.0
1033.0
1033.0
1039.0
1041.0
1044.0
1040.0
1037.0
1033.0
1031.0
1031.0
1036.0
1035.0
1032.0
1032.0
1034.0
1036.0
1037.0
1036.0
1032.0
1030.0
1033.0
1035.0
1038.0
1035.0
1032.0
1029.0
1028.0
1031.0
1032.0
1031.0
1027.0
1025.0
1031.0
1031.0
1032.0
1030.0
1027.0
1025.0
1024.0
1027.0
1032.0
1035.0
1028.0
1026.0
1026.0
1025.0
1024.0
1022.0
1020.0
1023.0
1024.0
1026.0
1024.0
1028.0
1031.0
1027.0
1031.0
1027.0
1025.0
1024.0
1022.0
1020.0
1020.0
1018.0
1023.0
1025.0
1024.0
1021.0
1021.0
1025.0
1029.0
1027.0
1027.0
1021.0
1022.0
1024.0
1025.0
1018.0
1014.0
1012.0
1017.0
1025.0
1032.0
1029.0
1023.0
1017.0
1014.0
1018.0
1024.0
1022.0
1023.0
1021.0
1023.0
1026.0
1030.0
1029.0
1025.0
1024.0
1026.0
1028.0
1032.0
1035.0
1031.0
1025.0
1025.0
1032.0
1032.0
1038.0
1032.0
1029.0
1026.0
1026.0
1028.0
1029.0
1028.0
1030.0
1030.0
1029.0
1030.0
1029.0
1029.0
1029.0
1034.0
1033.0
1034.0
1031.0
1024.0
1018.0
1013.0
1013.0
1014.0
1018.0
1019.0
1022.0
1023.0
1022.0
1020.0
1019.0
1016.0
1014.0
1013.0
1015.0
1020.0
1026.0
1027.0
1023.0
1019.0
1020.0
1025.0
1026.0
1027.0
1023.0
1021.0
1023.0
1021.0
1019.0
1020.0
1025.0
1028.0
1031.0
1035.0
1033.0
1039.0
1041.0
1050.0
1062.0
1075.0
1083.0
1092.0
1107.0
1124.0
1151.0
1179.0
1204.0
1231.0
1257.0
1287.0
1322.0
1366.0
1401.0
1415.0
1402.0
1365.0
1300.0
1222.0
1141.0
1083.0
1049.0
1035.0
1033.0
1034.0
1039.0
1042.0
1035.0
1037.0
1038.0
1037.0
1033.0
1026.0
1018.0
1015.0
1023.0
1031.0
1027.0
1026.0
1019.0
1019.0
1025.0
1028.0
1029.0
1023.0
1024.0
1024.0
1025.0
1028.0
1024.0
1022.0
1016.0
1018.0
1015.0
1018.0
1022.0
1021.0
1017.0
1012.0
1009.0
1012.0
1017.0
1015.0
1014.0
1013.0
1013.0
1016.0
1015.0
1012.0
1008.0
1012.0
1012.0
1012.0
1013.0
1010.0
1010.0
1012.0
1011.0
1013.0
1012.0
1010.0
1007.0
1008.0
1011.0
1016.0
1013.0
1012.0
1011.0
1007.0
1013.0
1018.0
1015.0
1012.0
1010.0
1013.0
1019.0
1019.0
1019.0
1013.0
1009.0
1012.0
1018.0
1028.0
1028.0
1024.0
1019.0
1016.0
1016.0
1020.0
1022.0
1025.0
1025.0
1025.0
1028.0
1030.0
1035.0
1036.0
1035.0
1035.0
1036.0
1043.0
1047.0
1047.0
1048.0
1051.0
1055.0
1059.0
1061.0
1058.0
1053.0
1055.0
1064.0
1072.0
1076.0
1072.0
1069.0
1069.0
1075.0
1072.0
1070.0
1066.0
1066.0
1066.0
1064.0
1063.0
1056.0
1049.0
1046.0
1048.0
1053.0
1052.0
1048.0
1045.0
1046.0
1048.0
1051.0
1051.0
1047.0
1043.0
1042.0
1045.0
1050.0
1049.0
1046.0
1044.0
1041.0
1042.0
1043.0
1047.0
1046.0
1043.0
1040.0
1039.0
1043.0
1046.0
1043.0
1039.0
1039.0
1038.0
1042.0
1043.0
1039.0
1034.0
1032.0
1033.0
1036.0
1040.0
1042.0
1044.0
1041.0
1043.0
1046.0
1047.0
1043.0
1041.0
1039.0
1040.0
1039.0
1042.0
1041.0
1038.0
1035.0
1041.0
1047.0
1050.0
1047.0
1046.0
1045.0
1043.0
1041.0
1040.0
1043.0
1041.0
1043.0
1043.0
1045.0
1043.0
1040.0
1037.0
1041.0
1046.0
1047.0
1046.0
1037.0
1027.0
1022.0
1029.0
1041.0
1050.0
1043.0
1037.0
1034.0
1035.0
1037.0
1036.0
1035.0
1031.0
1034.0
1035.0
1038.0
1037.0
1033.0
1030.0
1026.0
1027.0
1029.0
1036.0
1038.0
1036.0
1029.0
1029.0
1033.0
1042.0
1043.0
1037.0
1028.0
1025.0
1026.0
1024.0
1024.0
1027.0
1032.0
1033.0
1032.0
1034.0
1031.0
1030.0
1029.0
1033.0
1034.0
1030.0
1024.0
1022.0
1028.0
1036.0
1042.0
1037.0
1031.0
1028.0
1025.0
1021.0
1022.0
1031.0
1032.0
1031.0
1029.0
1033.0
1039.0
1041.0
1040.0
1033.0
1029.0
1035.0
1040.0
1042.0
1034.0
1022.0
1021.0
1027.0
1033.0
1038.0
1036.0
1034.0
1032.0
1034.0
1029.0
1031.0
1030.0
1036.0
1043.0
1050.0
1051.0
1046.0
1034.0
1029.0
1033.0
1042.0
1049.0
1053.0
1051.0
1045.0
1045.0
1048.0
1044.0
1040.0
1038.0
1039.0
1038.0
1042.0
1043.0
1046.0
1045.0
1039.0
1034.0
1034.0
1044.0
1046.0
1042.0
1038.0
1034.0
1036.0
1037.0
1035.0
1030.0
1033.0
1035.0
1034.0
1031.0
1033.0
1036.0
1037.0
1036.0
1031.0
1029.0
1029.0
1026.0
1025.0
1022.0
1023.0
1032.0
1042.0
1040.0
1035.0
1031.0
1033.0
1034.0
1034.0
1029.0
1021.0
1016.0
1021.0
1028.0
1038.0
1043.0
1037.0
1033.0
1036.0
1040.0
1052.0
1061.0
1072.0
1082.0
1086.0
1095.0
1112.0
1137.0
1170.0
1197.0
1225.0
1256.0
1282.0
1308.0
1341.0
1378.0
1420.0
1449.0
1456.0
1431.0
1373.0
1284.0
1188.0
1117.0
1075.0
1049.0
1038.0
1033.0
1035.0
1036.0
1036.0
1031.0
1020.0
1014.0
1011.0
1016.0
1018.0
1018.0
1010.0
1003.0
1002.0
1012.0
1015.0
1016.0
1010.0
1006.0
1006.0
1011.0
1014.0
1011.0
1006.0
1003.0
1003.0
1003.0
1001.0
998.0
996.0
996.0
999.0
1003.0
1008.0
1004.0
1003.0
1004.0
1000.0
994.0
997.0
1000.0
1001.0
998.0
994.0
995.0
1003.0
1004.0
1003.0
993.0
989.0
992.0
999.0
1003.0
1001.0
997.0
994.0
999.0
1003.0
1004.0
1000.0
997.0
998.0
1004.0
1009.0
1004.0
1002.0
1006.0
1007.0
1011.0
1019.0
1021.0
1017.0
1013.0
1008.0
1004.0
1006.0
1009.0
1012.0
1010.0
1014.0
1020.0
1026.0
1029.0
1027.0
1020.0
1017.0
1020.0
1032.0
1039.0
1044.0
1043.0
1045.0
1047.0
1052.0
1058.0
1060.0
1064.0
1065.0
1073.0
1080.0
1079.0
1076.0
1072.0
1070.0
1075.0
1084.0
1083.0
1078.0
1071.0
1069.0
1069.0
1070.0
1068.0
1057.0
1051.0
1051.0
1054.0
1054.0
1049.0
