# Simple Text Format
# Sampling Rate (Hz):= 360.00
# Resolution:= 12
# Labels:= ECG
1029.0
1027.0
1027.0
1026.0
1023.0
1028.0
1029.0
1028.0
1028.0
1024.0
1024.0
1028.0
1030.0
1031.0
1028.0
1026.0
1024.0
1029.0
1031.0
1033.0
1028.0
1028.0
1027.0
1027.0
1031.0
1029.0
1030.0
1027.0
1027.0
1030.0
1033.0
1030.0
1029.0
1028.0
1028.0
1030.0
1032.0
1035.0
1031.0
1027.0
1027.0
1028.0
1033.0
1032.0
1031.0
1029.0
1029.0
1031.0
1034.0
1032.0
1031.0
1028.0
1029.0
1032.0
1035.0
1033.0
1032.0
1030.0
1030.0
1031.0
1034.0
1035.0
1034.0
1032.0
1035.0
1038.0
1041.0
1045.0
1043.0
1038.0
1041.0
1040.0
1044.0
1046.0
1046.0
1045.0
1043.0
1048.0
1052.0
1051.0
1050.0
1046.0
1045.0
1044.0
1047.0
1045.0
1041.0
1041.0
1044.0
1046.0
1049.0
1050.0
1046.0
1045.0
1048.0
1051.0
1050.0
1051.0
1047.0
1043.0
1040.0
1039.0
1041.0
1040.0
1038.0
1037.0
1035.0
1039.0
1039.0
1041.0
1038.0
1036.0
1034.0
1038.0
1041.0
1042.0
1041.0
1037.0
1037.0
1038.0
1040.0
1038.0
1038.0
1036.0
1035.0
1039.0
1041.0
1040.0
1041.0
1037.0
1038.0
1043.0
1043.0
1045.0
1045.0
1045.0
1049.0
1058.0
1067.0
1077.0
1091.0
1099.0
1110.0
1127.0
1153.0
1182.0
1214.0
1238.0
1267.0
1297.0
1323.0
1355.0
1392.0
1423.0
1441.0
1436.0
1403.0
1327.0
1229.0
1141.0
1083.0
1053.0
1041.0
1036.0
1037.0
1037.0
1036.0
1037.0
1037.0
1034.0
1032.0
1026.0
1024.0
1024.0
1025.0
1025.0
1020.0
1018.0
1021.0
1020.0
1024.0
1023.0
1022.0
1019.0
1017.0
1019.0
1020.0
1018.0
1019.0
1015.0
1016.0
1018.0
1018.0
1019.0
1012.0
1009.0
1011.0
1012.0
1014.0
1012.0
1010.0
1006.0
1007.0
1009.0
1011.0
1010.0
1009.0
1008.0
1008.0
1009.0
1010.0
1007.0
1007.0
1003.0
1003.0
1008.0
1011.0
1012.0
1010.0
1005.0
1002.0
1006.0
1009.0
1010.0
1009.0
1003.0
1005.0
1007.0
1011.0
1010.0
1009.0
1008.0
1008.0
1012.0
1014.0
1015.0
1013.0
1010.0
1010.0
1013.0
1018.0
1020.0
1019.0
1019.0
1017.0
1024.0
1026.0
1028.0
1028.0
1029.0
1031.0
1038.0
1039.0
1041.0
1040.0
1043.0
1047.0
1052.0
1058.0
1060.0
1062.0
1065.0
1065.0
1070.0
1074.0
1076.0
1077.0
1079.0
1079.0
1082.0
1081.0
1081.0
1080.0
1076.0
1077.0
1076.0
1076.0
1075.0
1071.0
1068.0
1065.0
1060.0
1058.0
1057.0
1055.0
1048.0
1049.0
1051.0
1049.0
1049.0
1048.0
1046.0
1043.0
1047.0
1045.0
1048.0
1043.0
1040.0
1040.0
1043.0
1046.0
1047.0
1046.0
1041.0
1041.0
1041.0
1042.0
1042.0
1040.0
1038.0
1038.0
1039.0
1039.0
1039.0
1039.0
1038.0
1035.0
1039.0
1039.0
1036.0
1033.0
1033.0
1034.0
1036.0
1036.0
1035.0
1035.0
1030.0
1031.0
1032.0
1034.0
1033.0
1028.0
1027.0
1026.0
1026.0
1029.0
1028.0
1030.0
1026.0
1028.0
1029.0
1031.0
1030.0
1028.0
1027.0
1025.0
1026.0
1029.0
1031.0
1032.0
1028.0
1027.0
1031.0
1033.0
1036.0
1033.0
1031.0
1029.0
1032.0
1035.0
1034.0
1030.0
1028.0
1026.0
1030.0
1035.0
1033.0
1031.0
1027.0
1025.0
1029.0
1031.0
1032.0
1028.0
1027.0
1032.0
1032.0
1035.0
1033.0
1030.0
1026.0
1025.0
1029.0
1029.0
1030.0
1029.0
1026.0
1024.0
1028.0
1031.0
1032.0
1030.0
1027.0
1027.0
1029.0
1030.0
1030.0
1026.0
1023.0
1024.0
1025.0
1028.0
1027.0
1024.0
1023.0
1023.0
1026.0
1030.0
1030.0
1025.0
1024.0
1023.0
1024.0
1026.0
1027.0
1024.0
1022.0
1022.0
1025.0
1027.0
1028.0
1025.0
1025.0
1024.0
1027.0
1030.0
1030.0
1026.0
1025.0
1025.0
1025.0
1028.0
1028.0
1027.0
1025.0
1025.0
1025.0
1026.0
1026.0
1026.0
1024.0
1023.0
1028.0
1030.0
1029.0
1026.0
1023.0
1023.0
1028.0
1030.0
1033.0
1026.0
1025.0
1024.0
1026.0
1029.0
1029.0
1029.0
1026.0
1030.0
1030.0
1032.0
1035.0
1035.0
1033.0
1033.0
1038.0
1041.0
1039.0
1038.0
1036.0
1036.0
1039.0
1042.0
1037.0
1034.0
1031.0
1032.0
1033.0
1036.0
1036.0
1035.0
1031.0
1032.0
1035.0
1038.0
1038.0
1037.0
1035.0
1034.0
1036.0
1039.0
1038.0
1033.0
1028.0
1027.0
1026.0
1029.0
1030.0
1028.0
1023.0
1026.0
1028.0
1031.0
1030.0
1026.0
1024.0
1025.0
1027.0
1029.0
1027.0
1024.0
1024.0
1024.0
1026.0
1027.0
1028.0
1024.0
1023.0
1022.0
1024.0
1027.0
1026.0
1025.0
1027.0
1026.0
1026.0
1031.0
1031.0
1029.0
1031.0
1031.0
1034.0
1042.0
1049.0
1052.0
1061.0
1075.0
1085.0
1099.0
1115.0
1134.0
1156.0
1185.0
1218.0
1245.0
1272.0
1296.0
1325.0
1359.0
1400.0
1436.0
1453.0
1443.0
1400.0
1318.0
1224.0
1146.0
1089.0
1049.0
1022.0
1016.0
1020.0
1026.0
1026.0
1023.0
1019.0
1019.0
1019.0
1017.0
1011.0
1006.0
1002.0
1002.0
1003.0
1004.0
1003.0
1002.0
1000.0
999.0
1001.0
1004.0
1002.0
1001.0
997.0
996.0
995.0
998.0
997.0
995.0
991.0
993.0
995.0
1000.0
996.0
993.0
990.0
991.0
992.0
995.0
992.0
992.0
989.0
988.0
988.0
990.0
992.0
987.0
985.0
985.0
988.0
990.0
989.0
987.0
985.0
984.0
987.0
990.0
989.0
988.0
987.0
985.0
986.0
990.0
988.0
987.0
984.0
986.0
988.0
991.0
989.0
988.0
985.0
986.0
988.0
989.0
993.0
992.0
989.0
991.0
992.0
999.0
1001.0
1000.0
997.0
1001.0
1007.0
1009.0
1010.0
1009.0
1010.0
1015.0
1019.0
1026.0
1026.0
1028.0
1029.0
1034.0
1039.0
1045.0
1049.0
1050.0
1053.0
1056.0
1060.0
1063.0
1063.0
1063.0
1061.0
1061.0
1062.0
1065.0
1063.0
1060.0
1056.0
1052.0
1053.0
1052.0
1050.0
1045.0
1039.0
1038.0
1040.0
1039.0
1036.0
1034.0
1030.0
1029.0
1030.0
1033.0
1030.0
1030.0
1028.0
1029.0
1030.0
1033.0
1031.0
1030.0
1028.0
1027.0
1028.0
1031.0
1034.0
1027.0
1027.0
1024.0
1030.0
1029.0
1029.0
1028.0
1025.0
1023.0
1024.0
1026.0
1028.0
1024.0
1023.0
1023.0
1023.0
1023.0
1024.0
1022.0
1021.0
1021.0
1026.0
1026.0
1022.0
1023.0
1023.0
1023.0
1024.0
1027.0
1023.0
1020.0
1021.0
1024.0
1024.0
1027.0
1028.0
1024.0
1023.0
1023.0
1026.0
1029.0
1027.0
1026.0
1023.0
1023.0
1023.0
1028.0
1027.0
1027.0
1024.0
1025.0
1029.0
1030.0
1026.0
1025.0
1023.0
1025.0
1025.0
1029.0
1027.0
1024.0
1024.0
1022.0
1026.0
1027.0
1026.0
1025.0
1020.0
1022.0
1023.0
1026.0
1024.0
1021.0
1018.0
1019.0
1021.0
1022.0
1025.0
1022.0
1019.0
1019.0
1020.0
1024.0
1026.0
1023.0
1022.0
1020.0
1022.0
1023.0
1022.0
1021.0
1019.0
1021.0
1023.0
1026.0
1024.0
1023.0
1020.0
1018.0
1018.0
1025.0
1026.0
1021.0
1022.0
1020.0
1021.0
1025.0
1025.0
1021.0
1020.0
1020.0
1021.0
1025.0
1024.0
1024.0
1020.0
1022.0
1023.0
1027.0
1026.0
1023.0
1021.0
1024.0
1024.0
1027.0
1028.0
1024.0
1024.0
1023.0
1024.0
1025.0
1028.0
1024.0
1022.0
1023.0
1024.0
1027.0
1026.0
1025.0
1022.0
1022.0
1025.0
1025.0
1028.0
1026.0
1025.0
1026.0
1029.0
1033.0
1034.0
1034.0
1034.0
1035.0
1037.0
1041.0
1040.0
1040.0
1036.0
1037.0
1041.0
1041.0
1042.0
1041.0
1036.0
1035.0
1035.0
1038.0
1035.0
1033.0
1032.0
1033.0
1038.0
1040.0
1040.0
1037.0
1037.0
1038.0
1039.0
1044.0
1043.0
1037.0
1031.0
1031.0
1030.0
1032.0
1034.0
1030.0
1029.0
1029.0
1033.0
1034.0
1033.0
1031.0
1028.0
1030.0
1032.0
1034.0
1034.0
1030.0
1027.0
1026.0
1029.0
1033.0
1031.0
1033.0
1028.0
1025.0
1030.0
1033.0
1033.0
1031.0
1029.0
1030.0
1032.0
1035.0
1037.0
1037.0
1040.0
1045.0
1054.0
1067.0
1076.0
1082.0
1091.0
1104.0
1126.0
1155.0
1182.0
1212.0
1236.0
1270.0
1302.0
1340.0
1378.0
1424.0
1453.0
1464.0
1447.0
1394.0
1305.0
1204.0
1125.0
1074.0
1043.0
1031.0
1030.0
1030.0
1028.0
1029.0
1029.0
1030.0
1026.0
1021.0
1013.0
1014.0
1016.0
1015.0
1011.0
1011.0
1008.0
1008.0
1010.0
1012.0
1012.0
1009.0
1008.0
1009.0
1009.0
1010.0
1010.0
1007.0
1003.0
1004.0
1002.0
1007.0
1004.0
1003.0
999.0
1000.0
1003.0
1003.0
1002.0
999.0
996.0
998.0
1001.0
1005.0
1005.0
1000.0
1000.0
1002.0
999.0
1005.0
1006.0
1000.0
1001.0
1002.0
1003.0
1003.0
1005.0
1002.0
999.0
1004.0
1004.0
1006.0
1003.0
1002.0
998.0
1002.0
1006.0
1008.0
1010.0
1008.0
1007.0
1008.0
1012.0
1012.0
1013.0
1012.0
1013.0
1016.0
1019.0
1023.0
1020.0
1024.0
1025.0
1025.0
1032.0
1037.0
1038.0
1039.0
1039.0
1041.0
1049.0
1055.0
1057.0
1060.0
1059.0
1064.0
1072.0
1077.0
1079.0
1079.0
1078.0
1077.0
1083.0
1084.0
1080.0
1078.0
1074.0
1074.0
1073.0
1072.0
1070.0
1063.0
1059.0
1056.0
1056.0
1057.0
1055.0
1051.0
1044.0
1044.0
1044.0
1043.0
1043.0
1042.0
1044.0
1039.0
1042.0
1042.0
1039.0
1035.0
1033.0
1036.0
1039.0
1040.0
1040.0
1038.0
1033.0
1035.0
1038.0
1041.0
1037.0
1036.0
1031.0
1034.0
1036.0
1038.0
1037.0
1035.0
1027.0
1031.0
1031.0
1034.0
1034.0
1030.0
1027.0
1028.0
1032.0
1035.0
1031.0
1028.0
1024.0
1025.0
1027.0
1032.0
1030.0
1028.0
1024.0
1027.0
1028.0
1031.0
1029.0
1024.0
1028.0
1028.0
1032.0
1031.0
1031.0
1030.0
1029.0
1029.0
1033.0
1035.0
1035.0
1031.0
1030.0
1030.0
1034.0
1039.0
1036.0
1035.0
1032.0
1033.0
1032.0
1035.0
1035.0
1032.0
1033.0
1031.0
1037.0
1036.0
1033.0
1031.0
1032.0
1032.0
1033.0
1035.0
1034.0
1030.0
1027.0
1030.0
1034.0
1034.0
1035.0
1031.0
1029.0
1030.0
1030.0
1031.0
1028.0
1029.0
1028.0
1027.0
1033.0
1033.0
1031.0
1031.0
1027.0
1028.0
1032.0
1033.0
1032.0
1029.0
1029.0
1027.0
1027.0
1032.0
1031.0
1030.0
1027.0
1026.0
1029.0
1030.0
1028.0
1028.0
1029.0
1027.0
1030.0
1032.0
1031.0
1027.0
1025.0
1025.0
1027.0
1031.0
1030.0
1029.0
1027.0
1027.0
1030.0
1032.0
1029.0
1025.0
1026.0
1027.0
1030.0
1029.0
1030.0
1028.0
1028.0
1029.0
1029.0
1033.0
1030.0
1027.0
1026.0
1027.0
1029.0
1032.0
1031.0
1029.0
1028.0
1031.0
1032.0
1036.0
1038.0
1036.0
1035.0
1035.0
1042.0
1041.0
1041.0
1041.0
1039.0
1042.0
1044.0
1045.0
1041.0
1036.0
1035.0
1037.0
1039.0
1039.0
1039.0
1037.0
1035.0
1037.0
1037.0
1041.0
1039.0
1037.0
1038.0
1039.0
1041.0
1042.0
1041.0
1033.0
1029.0
1027.0
1030.0
1033.0
1035.0
1032.0
1030.0
1030.0
1030.0
1033.0
1033.0
1031.0
1032.0
1031.0
1033.0
1034.0
1030.0
1029.0
1028.0
1028.0
1030.0
1032.0
1031.0
1031.0
1027.0
1027.0
1030.0
1033.0
1034.0
1033.0
1030.0
1033.0
1037.0
1042.0
1042.0
1045.0
1049.0
1060.0
1072.0
1086.0
1094.0
1105.0
1117.0
1140.0
1171.0
1204.0
1232.0
1260.0
1285.0
1316.0
1354.0
1396.0
1432.0
1443.0
1428.0
1372.0
1283.0
1191.0
1115.0
1064.0
1035.0
1024.0
1024.0
1031.0
1032.0
1030.0
1025.0
1023.0
1025.0
1025.0
1019.0
1015.0
1012.0
1009.0
1012.0
1011.0
1010.0
1008.0
1006.0
1004.0
1009.0
1013.0
1008.0
1010.0
1004.0
1005.0
1005.0
1008.0
1007.0
1005.0
1003.0
1001.0
1004.0
1005.0
1002.0
1000.0
998.0
998.0
1000.0
1002.0
1001.0
996.0
992.0
997.0
998.0
1000.0
1000.0
998.0
995.0
993.0
995.0
996.0
998.0
995.0
994.0
993.0
995.0
996.0
995.0
993.0
992.0
994.0
995.0
999.0
998.0
996.0
993.0
992.0
995.0
1001.0
999.0
996.0
995.0
997.0
1000.0
1001.0
1003.0
1000.0
998.0
1002.0
1005.0
1008.0
1009.0
1008.0
1007.0
1008.0
1012.0
1018.0
1019.0
1020.0
1019.0
1023.0
1029.0
1033.0
1036.0
1039.0
1038.0
1042.0
1046.0
1056.0
1054.0
1055.0
1056.0
1060.0
1065.0
1069.0
1069.0
1066.0
1061.0
1063.0
1065.0
1069.0
1064.0
1062.0
1058.0
1057.0
1058.0
1059.0
1052.0
1049.0
1046.0
1045.0
1045.0
1047.0
1045.0
1040.0
1038.0
1038.0
1037.0
1040.0
1040.0
1038.0
1034.0
1033.0
1035.0
1038.0
1038.0
1034.0
1034.0
1032.0
1035.0
1036.0
1034.0
1030.0
1030.0
1030.0
1032.0
1036.0
1033.0
1030.0
1026.0
1028.0
1030.0
1030.0
1030.0
1029.0
1028.0
1027.0
1029.0
1033.0
1031.0
1025.0
1023.0
1023.0
1028.0
1032.0
1029.0
1025.0
1023.0
1022.0
1026.0
1032.0
1029.0
1026.0
1024.0
1025.0
1026.0
1032.0
1033.0
1034.0
1038.0
1049.0
1064.0
1085.0
1109.0
1129.0
1141.0
1139.0
1129.0
1109.0
1075.0
1019.0
945.0
868.0
786.0
700.0
630.0
597.0
577.0
577.0
581.0
596.0
617.0
636.0
663.0
706.0
748.0
779.0
805.0
826.0
842.0
860.0
882.0
901.0
915.0
924.0
932.0
940.0
950.0
965.0
973.0
984.0
995.0
1008.0
1021.0
1034.0
1039.0
1047.0
1050.0
1058.0
1064.0
1069.0
1070.0
1067.0
1071.0
1072.0
1080.0
1084.0
1086.0
1086.0
1087.0
1089.0
1090.0
1093.0
1094.0
1096.0
1096.0
1101.0
1104.0
1108.0
1110.0
1111.0
1109.0
1113.0
1116.0
1121.0
1123.0
1123.0
1125.0
1127.0
1133.0
1138.0
1139.0
1139.0
1144.0
1148.0
1155.0
1162.0
1164.0
1167.0
1172.0
1177.0
1185.0
1192.0
1199.0
1201.0
1207.0
1212.0
1223.0
1233.0
1236.0
1243.0
1244.0
1255.0
1261.0
1271.0
1277.0
1277.0
1282.0
1283.0
1287.0
1289.0
1288.0
1284.0
1281.0
1279.0
1278.0
1275.0
1269.0
1260.0
1253.0
1245.0
1242.0
1234.0
1226.0
1212.0
1202.0
1192.0
1186.0
1181.0
1170.0
1161.0
1151.0
1142.0
1139.0
1131.0
1124.0
1116.0
1107.0
1102.0
1097.0
1096.0
1091.0
1084.0
1077.0
1072.0
1072.0
1071.0
1069.0
1063.0
1060.0
1061.0
1061.0
1061.0
1057.0
1054.0
1051.0
1051.0
1053.0
1054.0
1051.0
1050.0
1048.0
1048.0
1052.0
1053.0
1049.0
1045.0
1041.0
1046.0
1044.0
1048.0
1045.0
1044.0
1040.0
1041.0
1042.0
1043.0
1041.0
1039.0
1036.0
1037.0
1038.0
1040.0
1038.0
1034.0
1031.0
1032.0
1034.0
1036.0
1035.0
1032.0
1027.0
1027.0
1032.0
1032.0
1031.0
1027.0
1025.0
1025.0
1025.0
1028.0
1027.0
1024.0
1022.0
1021.0
1025.0
1024.0
1026.0
1023.0
1018.0
1022.0
1022.0
1024.0
1023.0
1020.0
1020.0
1019.0
1022.0
1024.0
1022.0
1017.0
1017.0
1019.0
1022.0
1024.0
1022.0
1018.0
1017.0
1018.0
1021.0
1021.0
1019.0
1019.0
1017.0
1015.0
1021.0
1020.0
1022.0
1020.0
1017.0
1018.0
1019.0
1023.0
1023.0
1017.0
1019.0
1017.0
1021.0
1023.0
1018.0
1016.0
1015.0
1018.0
1020.0
1024.0
1022.0
1018.0
1015.0
1018.0
1019.0
1021.0
1021.0
1021.0
1018.0
1020.0
1021.0
1024.0
1023.0
1018.0
1015.0
1018.0
1021.0
1024.0
1023.0
1019.0
1017.0
1017.0
1020.0
1025.0
1023.0
1023.0
1018.0
1019.0
1022.0
1023.0
1022.0
1019.0
1020.0
1021.0
1022.0
1025.0
1024.0
1020.0
1019.0
1019.0
1022.0
1029.0
1023.0
1022.0
1020.0
1019.0
1023.0
1025.0
1025.0
1020.0
1018.0
1020.0
1021.0
1024.0
1023.0
1020.0
1019.0
1020.0
1022.0
1027.0
1025.0
1022.0
1021.0
1021.0
1025.0
1025.0
1025.0
1022.0
1020.0
1022.0
1024.0
1026.0
1025.0
1023.0
1022.0
1026.0
1028.0
1029.0
1028.0
1024.0
1023.0
1025.0
1025.0
1030.0
1027.0
1024.0
1022.0
1025.0
1024.0
1028.0
1029.0
1025.0
1022.0
1024.0
1030.0
1028.0
1026.0
1024.0
1024.0
1025.0
1029.0
1031.0
1028.0
1026.0
1025.0
1023.0
1029.0
1031.0
1029.0
1027.0
1026.0
1025.0
1029.0
1030.0
1030.0
1025.0
1024.0
1027.0
1030.0
1032.0
1031.0
1028.0
1026.0
1027.0
1031.0
1032.0
1032.0
1029.0
1027.0
1027.0
1031.0
1034.0
1032.0
1033.0
1031.0
1031.0
1032.0
1031.0
1032.0
1030.0
1031.0
1033.0
1036.0
1035.0
1036.0
1033.0
1032.0
1032.0
1035.0
1037.0
1037.0
1034.0
1032.0
1033.0
1036.0
1037.0
1037.0
1034.0
1034.0
1033.0
1037.0
1037.0
1037.0
1035.0
1035.0
1038.0
1041.0
1042.0
1039.0
1038.0
1035.0
1034.0
1037.0
1041.0
1040.0
1036.0
1037.0
1038.0
1042.0
1043.0
1041.0
1038.0
1038.0
1041.0
1043.0
1042.0
1043.0
1041.0
1036.0
1038.0
1045.0
1043.0
1043.0
1039.0
1038.0
1039.0
1043.0
1046.0
1044.0
1040.0
1041.0
1044.0
1047.0
1047.0
1046.0
1043.0
1040.0
1040.0
1044.0
1048.0
1047.0
1044.0
1043.0
1043.0
1047.0
1050.0
1049.0
1045.0
1042.0
1043.0
1047.0
1045.0
1049.0
1048.0
1047.0
1054.0
1055.0
1058.0
1057.0
1053.0
1053.0
1051.0
1059.0
1060.0
1061.0
1059.0
1057.0
1056.0
1058.0
1059.0
1055.0
1054.0
1051.0
1053.0
1055.0
1056.0
1055.0
1051.0
1049.0
1052.0
1054.0
1059.0
1057.0
1055.0
1054.0
1055.0
1058.0
1058.0
1055.0
1050.0
1048.0
1048.0
1051.0
1052.0
1049.0
1049.0
1045.0
1047.0
1049.0
1050.0
1048.0
1049.0
1048.0
1046.0
1049.0
1052.0
1049.0
1045.0
1045.0
1046.0
1048.0
1050.0
1054.0
1049.0
1046.0
1048.0
1053.0
1052.0
1052.0
1047.0
1050.0
1053.0
1056.0
1061.0
1062.0
1063.0
1067.0
1076.0
1087.0
1100.0
1107.0
1111.0
1122.0
1146.0
1178.0
1210.0
1240.0
1270.0
1298.0
1335.0
1368.0
1411.0
1451.0
1469.0
1452.0
1397.0
1307.0
1212.0
1141.0
1093.0
1068.0
1064.0
1066.0
1068.0
1064.0
1058.0
1050.0
1050.0
1049.0
1046.0
1041.0
1034.0
1031.0
1030.0
1030.0
1033.0
1029.0
1027.0
1023.0
1023.0
1026.0
1027.0
1028.0
1022.0
1018.0
1023.0
1024.0
1026.0
1023.0
1019.0
1020.0
1018.0
1019.0
1022.0
1019.0
1017.0
1018.0
1020.0
1022.0
1022.0
1018.0
1013.0
1013.0
1017.0
1020.0
1022.0
1017.0
1012.0
1011.0
1011.0
1012.0
1014.0
1014.0
1013.0
1008.0
1014.0
1014.0
1014.0
1013.0
1011.0
1009.0
1013.0
1016.0
1021.0
1021.0
1016.0
1014.0
1013.0
1017.0
1022.0
1022.0
1018.0
1016.0
1017.0
1023.0
1025.0
1023.0
1019.0
1016.0
1017.0
1022.0
1025.0
1023.0
1021.0
1023.0
1027.0
1030.0
1030.0
1030.0
1025.0
1028.0
1029.0
1037.0
1043.0
1042.0
1042.0
1043.0
1043.0
1043.0
1046.0
1047.0
1049.0
1051.0
1059.0
1064.0
1071.0
1072.0
1073.0
1072.0
1076.0
1078.0
1083.0
1083.0
1081.0
1085.0
1084.0
1088.0
1087.0
1086.0
1086.0
1081.0
1082.0
1085.0
1087.0
1085.0
1078.0
1074.0
1072.0
1075.0
1076.0
1073.0
1071.0
1067.0
1067.0
1064.0
1068.0
1069.0
1064.0
1062.0
1063.0
1065.0
1066.0
1063.0
1062.0
1058.0
1051.0
1051.0
1055.0
1057.0
1055.0
1052.0
1051.0
1055.0
1056.0
1056.0
1052.0
1048.0
1050.0
1051.0
1050.0
1052.0
1049.0
1046.0
1049.0
1047.0
1051.0
1047.0
1049.0
1047.0
1048.0
1049.0
1051.0
1048.0
1047.0
1044.0
1044.0
1045.0
1047.0
1047.0
1043.0
1040.0
1043.0
1046.0
1049.0
1047.0
1042.0
1041.0
1043.0
1044.0
1047.0
1046.0
1043.0
1042.0
1045.0
1047.0
1049.0
1047.0
1043.0
1039.0
1038.0
1042.0
1044.0
1043.0
1043.0
1042.0
1043.0
1045.0
1044.0
1042.0
1038.0
1038.0
1034.0
1032.0
1035.0
1034.0
1030.0
1029.0
1030.0
1033.0
1037.0
1034.0
1032.0
1027.0
1027.0
1030.0
1033.0
1032.0
1031.0
1028.0
1029.0
1029.0
1025.0
1023.0
1023.0
1023.0
1024.0
1025.0
1025.0
1026.0
1020.0
1021.0
1022.0
1027.0
1027.0
1024.0
1020.0
1018.0
1020.0
1023.0
1027.0
1026.0
1022.0
1017.0
1019.0
1024.0
1027.0
1026.0
1024.0
1017.0
1019.0
1021.0
1022.0
1022.0
1019.0
1018.0
1019.0
1023.0
1025.0
1024.0
1021.0
1019.0
1020.0
1021.0
1023.0
1023.0
1022.0
1022.0
1023.0
1027.0
1027.0
1024.0
1020.0
1020.0
1022.0
1023.0
1025.0
1022.0
1019.0
1021.0
1020.0
1023.0
1025.0
1026.0
1020.0
1016.0
1015.0
1019.0
1027.0
1025.0
1021.0
1018.0
1019.0
1021.0
1024.0
1024.0
1021.0
1020.0
1022.0
1027.0
1028.0
1023.0
1019.0
1018.0
1021.0
1025.0
1030.0
1033.0
1031.0
1028.0
1029.0
1030.0
1032.0
1030.0
1030.0
1032.0
1037.0
1039.0
1039.0
1037.0
1034.0
1030.0
1030.0
1030.0
1033.0
1032.0
1028.0
1029.0
1032.0
1034.0
1035.0
1030.0
1030.0
1028.0
1031.0
1035.0
1037.0
1037.0
1034.0
1029.0
1026.0
1025.0
1025.0
1025.0
1026.0
1025.0
1023.0
1025.0
1027.0
1028.0
1030.0
1024.0
1023.0
1026.0
1028.0
1030.0
1026.0
1024.0
1022.0
1025.0
1026.0
1024.0
1022.0
1020.0
1022.0
1026.0
1032.0
1029.0
1025.0
1023.0
1027.0
1033.0
1032.0
1031.0
1029.0
1029.0
1037.0
1041.0
1044.0
1049.0
1054.0
1059.0
1069.0
1085.0
1097.0
1109.0
1127.0
1150.0
1181.0
1215.0
1243.0
1272.0
1296.0
1324.0
1361.0
1400.0
1440.0
1473.0
1492.0
1487.0
1457.0
1396.0
1316.0
1228.0
1159.0
1105.0
1069.0
1052.0
1044.0
1043.0
1039.0
1041.0
1038.0
1037.0
1035.0
1031.0
1025.0
1019.0
1018.0
1018.0
1016.0
1015.0
1010.0
1005.0
1002.0
1005.0
1007.0
1010.0
1008.0
1004.0
1007.0
1007.0
1011.0
1008.0
1006.0
1006.0
1005.0
1011.0
1010.0
1006.0
1004.0
1002.0
1002.0
1007.0
1010.0
1007.0
1000.0
998.0
999.0
1002.0
1004.0
1001.0
997.0
995.0
999.0
1002.0
1003.0
998.0
994.0
990.0
998.0
1002.0
1006.0
1004.0
1001.0
996.0
997.0
1001.0
1002.0
1002.0
999.0
997.0
999.0
1005.0
1006.0
1004.0
1004.0
1000.0
1001.0
1008.0
1008.0
1008.0
1005.0
1004.0
1004.0
1009.0
1009.0
1010.0
1007.0
1007.0
1006.0
1011.0
1012.0
1014.0
1014.0
1016.0
1016.0
1022.0
1026.0
1029.0
1032.0
1033.0
1032.0
1038.0
1045.0
1047.0
1047.0
1049.0
1051.0
1060.0
1065.0
1066.0
1064.0
1067.0
1072.0
1078.0
1083.0
1082.0
1080.0
1080.0
1077.0
1081.0
1081.0
1082.0
1076.0
1075.0
1076.0
1075.0
1072.0
1070.0
1065.0
1062.0
1060.0
1063.0
1066.0
1061.0
1053.0
1051.0
1050.0
1053.0
1055.0
1053.0
1053.0
1049.0
1054.0
1055.0
1055.0
1049.0
1046.0
1047.0
1050.0
1055.0
1057.0
1055.0
1052.0
1051.0
1054.0
1054.0
1054.0
1052.0
1052.0
1052.0
1050.0
1052.0
1056.0
1052.0
1049.0
1047.0
1048.0
1050.0
1051.0
1052.0
1048.0
1044.0
1043.0
1048.0
1050.0
1048.0
1045.0
1044.0
1046.0
1051.0
1050.0
1050.0
1045.0
1044.0
1048.0
1050.0
1050.0
1049.0
1049.0
1050.0
1050.0
1053.0
1057.0
1053.0
1051.0
1051.0
1053.0
1055.0
1059.0
1055.0
1055.0
1052.0
1053.0
1050.0
1052.0
1049.0
1052.0
1057.0
1055.0
1062.0
1064.0
1058.0
1056.0
1052.0
1055.0
1058.0
1060.0
1058.0
1054.0
1048.0
1049.0
1054.0
1056.0
1053.0
1049.0
1045.0
1052.0
1057.0
1058.0
1058.0
1053.0
1053.0
1055.0
1059.0
1060.0
1060.0
1055.0
1052.0
1052.0
1054.0
1056.0
1057.0
1055.0
1056.0
1054.0
1057.0
1059.0
1056.0
1053.0
1053.0
1056.0
1062.0
1064.0
1062.0
1059.0
1060.0
1060.0
1057.0
1061.0
1057.0
1053.0
1056.0
1061.0
1063.0
1064.0
1060.0
1056.0
1054.0
1057.0
1063.0
1064.0
1058.0
1055.0
1054.0
1059.0
1058.0
1059.0
1052.0
1055.0
1057.0
1061.0
1059.0
1059.0
1055.0
1053.0
1052.0
1054.0
1058.0
1060.0
1059.0
1053.0
1050.0
1051.0
1056.0
1060.0
1055.0
1052.0
1052.0
1056.0
1060.0
1064.0
1058.0
1056.0
1056.0
1058.0
1060.0
1063.0
1065.0
1064.0
1067.0
1067.0
1066.0
1065.0
1067.0
1069.0
1070.0
1068.0
1069.0
1076.0
1074.0
1071.0
1065.0
1063.0
1061.0
1061.0
1061.0
1061.0
1058.0
1060.0
1066.0
1074.0
1074.0
1066.0
1066.0
1072.0
1073.0
1073.0
1068.0
1063.0
1064.0
1062.0
1060.0
1058.0
1054.0
1055.0
1056.0
1061.0
1062.0
1064.0
1064.0
1062.0
1061.0
1060.0
1062.0
1059.0
1061.0
1059.0
1058.0
1060.0
1059.0
1056.0
1056.0
1055.0
1057.0
1063.0
1064.0
1065.0
1061.0
1057.0
1057.0
1058.0
1058.0
1061.0
1061.0
1059.0
1063.0
1070.0
1082.0
1092.0
1098.0
1106.0
1114.0
1132.0
1160.0
1198.0
1236.0
1270.0
1308.0
1347.0
1393.0
1446.0
1496.0
1523.0
1515.0
1467.0
1374.0
1270.0
1182.0
1116.0
1079.0
1067.0
1072.0
1074.0
1069.0
1063.0
1059.0
1055.0
1052.0
1050.0
1044.0
1037.0
1037.0
1037.0
1041.0
1040.0
1034.0
1029.0
1030.0
1029.0
1032.0
1035.0
1034.0
1033.0
1029.0
1027.0
1026.0
1029.0
1030.0
1031.0
1025.0
1024.0
1026.0
1031.0
1028.0
1021.0
1017.0
1018.0
1021.0
1026.0
1021.0
1022.0
1021.0
1021.0
1024.0
1030.0
1029.0
1025.0
1021.0
1020.0
1022.0
1024.0
1023.0
1019.0
1014.0
1014.0
1019.0
1025.0
1027.0
1023.0
1023.0
1021.0
1022.0
1024.0
1019.0
1017.0
1015.0
1019.0
1024.0
1025.0
1023.0
1020.0
1017.0
1022.0
1027.0
1030.0
1028.0
1025.0
1024.0
1029.0
1033.0
1040.0
1037.0
1034.0
1035.0
1038.0
1044.0
1047.0
1049.0
1044.0
1046.0
1056.0
1062.0
1072.0
1073.0
1069.0
1069.0
1076.0
1085.0
1088.0
1092.0
1094.0
1095.0
1094.0
1093.0
1093.0
1094.0
1092.0
1088.0
1087.0
1088.0
1090.0
1085.0
1080.0
1075.0
1073.0
1078.0
1079.0
1076.0
1071.0
1067.0
1065.0
1067.0
1068.0
1066.0
1063.0
1064.0
1068.0
1070.0
1069.0
1067.0
1062.0
1060.0
1058.0
1064.0
1067.0
1066.0
1063.0
1064.0
1063.0
1066.0
1064.0
1059.0
1058.0
1057.0
1059.0
1061.0
1063.0
1060.0
1058.0
1054.0
1054.0
1056.0
1058.0
1054.0
1057.0
1058.0
1061.0
1061.0
1061.0
1057.0
1058.0
1053.0
1051.0
1056.0
1060.0
1061.0
1059.0
1061.0
1065.0
1072.0
1073.0
1066.0
1062.0
1058.0
1063.0
1064.0
1066.0
1064.0
1061.0
1063.0
1067.0
1072.0
1072.0
1070.0
1066.0
1061.0
1058.0
1060.0
1063.0
1062.0
1061.0
1062.0
1065.0
1072.0
1072.0
1067.0
1057.0
1057.0
1060.0
1061.0
1064.0
1065.0
1062.0
1062.0
1060.0
1063.0
1065.0
1061.0
1059.0
1060.0
1061.0
1061.0
1060.0
1057.0
1055.0
1055.0
1058.0
1059.0
1063.0
1061.0
1056.0
1050.0
1055.0
1061.0
1063.0
1061.0
1052.0
1046.0
1050.0
1056.0
1062.0
1063.0
1055.0
1050.0
1050.0
1051.0
1053.0
1055.0
1051.0
1052.0
1054.0
1056.0
1059.0
1059.0
1056.0
1054.0
1054.0
1053.0
1053.0
1051.0
1054.0
1055.0
1057.0
1062.0
1064.0
1060.0
1056.0
1052.0
1052.0
1057.0
1063.0
1061.0
1057.0
1056.0
1054.0
1055.0
1055.0
1053.0
1054.0
1053.0
1057.0
1060.0
1061.0
1056.0
1050.0
1051.0
1053.0
1057.0
1060.0
1058.0
1058.0
1056.0
1054.0
1055.0
1059.0
1059.0
1057.0
1053.0
1056.0
1060.0
1063.0
1062.0
1061.0
1064.0
1066.0
1069.0
1068.0
1064.0
1060.0
1062.0
1066.0
1069.0
1071.0
1070.0
1067.0
1070.0
1070.0
1072.0
1072.0
1074.0
1070.0
1068.0
1068.0
1068.0
1068.0
1062.0
1057.0
1060.0
1067.0
1074.0
1074.0
1070.0
1068.0
1067.0
1065.0
1059.0
1057.0
1059.0
1063.0
1065.0
1063.0
1061.0
1060.0
1060.0
1062.0
1061.0
1063.0
1064.0
1064.0
1059.0
1061.0
1059.0
1061.0
1064.0
1060.0
1059.0
1061.0
1060.0
1067.0
1065.0
1064.0
1062.0
1059.0
1056.0
1059.0
1062.0
1063.0
1064.0
1063.0
1068.0
1076.0
1088.0
1092.0
1094.0
1098.0
1105.0
1124.0
1149.0
1176.0
1209.0
1240.0
1274.0
1313.0
1350.0
1388.0
1432.0
1470.0
1500.0
1508.0
1483.0
1417.0
1320.0
1225.0
1153.0
1102.0
1075.0
1062.0
1061.0
1066.0
1066.0
1065.0
1059.0
1051.0
1048.0
1047.0
1048.0
1047.0
1048.0
1042.0
1038.0
1031.0
1030.0
1036.0
1034.0
1037.0
1036.0
1035.0
1034.0
1032.0
1031.0
1035.0
1035.0
1028.0
1025.0
1027.0
1027.0
1028.0
1023.0
1023.0
1022.0
1025.0
1024.0
1026.0
1026.0
1024.0
1025.0
1023.0
1025.0
1023.0
1020.0
1015.0
1018.0
1022.0
1026.0
1024.0
1023.0
1024.0
1019.0
1020.0
1021.0
1024.0
1026.0
1022.0
1021.0
1019.0
1017.0
1020.0
1019.0
1020.0
1024.0
1026.0
1029.0
1023.0
1015.0
1011.0
1018.0
1026.0
1028.0
1034.0
1035.0
1029.0
1022.0
1019.0
1023.0
1031.0
1038.0
1042.0
1039.0
1038.0
1037.0
1041.0
1042.0
1045.0
1049.0
1057.0
1065.0
1067.0
1069.0
1068.0
1069.0
1079.0
1082.0
1085.0
1085.0
1082.0
1085.0
1086.0
1089.0
1091.0
1086.0
1080.0
1081.0
1086.0
1089.0
1084.0
1075.0
1068.0
1073.0
1075.0
1077.0
1078.0
1073.0
1071.0
1069.0
1069.0
1062.0
1061.0
1056.0
1059.0
1058.0
1063.0
1064.0
1063.0
1059.0
1056.0
1058.0
1060.0
1059.0
1060.0
1062.0
1057.0
1056.0
1053.0
1053.0
1054.0
1053.0
1052.0
1054.0
1068.0
1081.0
1094.0
1106.0
1124.0
1140.0
1150.0
1145.0
1127.0
1097.0
1044.0
958.0
852.0
740.0
653.0
596.0
579.0
581.0
593.0
619.0
644.0
674.0
712.0
759.0
797.0
835.0
856.0
874.0
888.0
910.0
932.0
949.0
960.0
964.0
965.0
973.0
988.0
1003.0
1017.0
1031.0
1036.0
1049.0
1065.0
1078.0
1079.0
1077.0
1074.0
1079.0
1086.0
1092.0
1092.0
1092.0
1092.0
1095.0
1097.0
1099.0
1103.0
1103.0
1102.0
1100.0
1104.0
1105.0
1106.0
1105.0
1111.0
1121.0
1120.0
1113.0
1106.0
1110.0
1121.0
1122.0
1120.0
1124.0
1131.0
1135.0
1133.0
1131.0
1134.0
1140.0
1150.0
1159.0
1163.0
1165.0
1171.0
1178.0
1176.0
1171.0
1170.0
1174.0
1185.0
1197.0
1205.0
1212.0
1210.0
1212.0
1217.0
1227.0
1230.0
1232.0
1238.0
1245.0
1254.0
1259.0
1263.0
1261.0
1256.0
1260.0
1268.0
1270.0
1270.0
1272.0
1276.0
1275.0
1271.0
1270.0
1265.0
1259.0
1248.0
1236.0
1225.0
1223.0
1227.0
1224.0
1215.0
1206.0
1196.0
1191.0
1185.0
1173.0
1166.0
1158.0
1148.0
1142.0
1131.0
1122.0
1115.0
1116.0
1115.0
1111.0
1108.0
1107.0
1096.0
1083.0
1074.0
1077.0
1083.0
1082.0
1072.0
1067.0
1068.0
1075.0
1071.0
1060.0
1047.0
1044.0
1055.0
1061.0
1065.0
1070.0
1075.0
1064.0
1045.0
1040.0
1048.0
1061.0
1060.0
1057.0
1059.0
1065.0
1062.0
1057.0
1053.0
1050.0
1048.0
1045.0
1048.0
1049.0
1041.0
1039.0
1043.0
1056.0
