# Simple Text Format
# Sampling Rate (Hz):= 360.00
# Resolution:= 12
# Labels:= ECG
1058.0
1051.0
1047.0
1045.0
1045.0
1046.0
1045.0
1039.0
1036.0
1037.0
1037.0
1040.0
1035.0
1034.0
1030.0
1031.0
1033.0
1036.0
1034.0
1032.0
1031.0
1031.0
1035.0
1036.0
1035.0
1032.0
1026.0
1029.0
1032.0
1034.0
1032.0
1028.0
1026.0
1027.0
1026.0
1032.0
1028.0
1024.0
1021.0
1021.0
1021.0
1022.0
1022.0
1021.0
1017.0
1017.0
1018.0
1020.0
1017.0
1015.0
1014.0
1012.0
1014.0
1017.0
1013.0
1007.0
1010.0
1011.0
1013.0
1014.0
1010.0
1009.0
1006.0
1005.0
1008.0
1010.0
1008.0
1007.0
1005.0
1005.0
1007.0
1008.0
1007.0
1002.0
1002.0
1003.0
1006.0
1009.0
1006.0
1003.0
1003.0
1000.0
1005.0
1007.0
1006.0
1003.0
1001.0
1003.0
1003.0
1007.0
1005.0
1006.0
1001.0
1002.0
1004.0
1006.0
1006.0
1006.0
1002.0
1003.0
1004.0
1009.0
1005.0
1003.0
1002.0
1005.0
1006.0
1007.0
1006.0
1005.0
1004.0
1004.0
1006.0
1008.0
1009.0
1006.0
1003.0
1005.0
1007.0
1009.0
1006.0
1005.0
1004.0
1005.0
1008.0
1008.0
1008.0
1004.0
1005.0
1009.0
1008.0
1012.0
1010.0
1006.0
1003.0
1005.0
1008.0
1008.0
1006.0
1004.0
1006.0
1007.0
1007.0
1010.0
1009.0
1007.0
1003.0
1006.0
1009.0
1013.0
1012.0
1008.0
1004.0
1008.0
1008.0
1010.0
1010.0
1008.0
1006.0
1006.0
1009.0
1010.0
1009.0
1008.0
1006.0
1009.0
1009.0
1011.0
1009.0
1008.0
1006.0
1004.0
1009.0
1014.0
1013.0
1011.0
1008.0
1009.0
1008.0
1013.0
1013.0
1009.0
1008.0
1009.0
1012.0
1014.0
1013.0
1008.0
1009.0
1010.0
1012.0
1015.0
1012.0
1011.0
1008.0
1008.0
1011.0
1015.0
1013.0
1013.0
1009.0
1009.0
1011.0
1015.0
1013.0
1009.0
1011.0
1010.0
1014.0
1018.0
1015.0
1013.0
1014.0
1013.0
1015.0
1019.0
1017.0
1015.0
1014.0
1017.0
1016.0
1020.0
1019.0
1018.0
1015.0
1017.0
1018.0
1019.0
1019.0
1015.0
1014.0
1015.0
1019.0
1026.0
1023.0
1023.0
1022.0
1024.0
1028.0
1030.0
1031.0
1029.0
1027.0
1029.0
1031.0
1033.0
1031.0
1028.0
1024.0
1026.0
1029.0
1029.0
1027.0
1026.0
1025.0
1026.0
1028.0
1031.0
1030.0
1029.0
1028.0
1029.0
1030.0
1030.0
1026.0
1021.0
1021.0
1021.0
1023.0
1027.0
1027.0
1024.0
1022.0
1021.0
1024.0
1027.0
1025.0
1022.0
1021.0
1022.0
1023.0
1025.0
1025.0
1021.0
1023.0
1022.0
1026.0
1031.0
1030.0
1029.0
1033.0
1040.0
1054.0
1070.0
1083.0
1094.0
1112.0
1146.0
1189.0
1235.0
1275.0
1313.0
1355.0
1407.0
1456.0
1465.0
1424.0
1327.0
1213.0
1120.0
1069.0
1047.0
1040.0
1039.0
1036.0
1035.0
1034.0
1033.0
1032.0
1025.0
1020.0
1015.0
1015.0
1013.0
1013.0
1012.0
1009.0
1008.0
1010.0
1013.0
1008.0
1004.0
1002.0
1002.0
1006.0
1008.0
1007.0
1003.0
1000.0
1001.0
1003.0
1006.0
1003.0
999.0
999.0
1001.0
1001.0
1002.0
1001.0
999.0
998.0
998.0
1000.0
1001.0
1001.0
997.0
993.0
993.0
996.0
1000.0
1001.0
997.0
994.0
997.0
996.0
999.0
1000.0
997.0
996.0
997.0
1001.0
1002.0
999.0
996.0
995.0
998.0
1001.0
1004.0
1005.0
1000.0
1000.0
1002.0
1003.0
1007.0
1005.0
1004.0
1003.0
1004.0
1007.0
1009.0
1011.0
1006.0
1008.0
1011.0
1013.0
1019.0
1018.0
1021.0
1020.0
1025.0
1029.0
1033.0
1035.0
1034.0
1037.0
1042.0
1047.0
1052.0
1053.0
1052.0
1055.0
1062.0
1066.0
1070.0
1073.0
1071.0
1074.0
1078.0
1080.0
1083.0
1084.0
1081.0
1078.0
1081.0
1083.0
1083.0
1078.0
1074.0
1073.0
1073.0
1072.0
1074.0
1071.0
1066.0
1060.0
1060.0
1059.0
1058.0
1058.0
1054.0
1051.0
1050.0
1051.0
1049.0
1047.0
1042.0
1041.0
1042.0
1046.0
1048.0
1046.0
1043.0
1043.0
1044.0
1043.0
1046.0
1046.0
1042.0
1042.0
1038.0
1042.0
1045.0
1041.0
1041.0
1039.0
1038.0
1043.0
1044.0
1041.0
1039.0
1038.0
1037.0
1037.0
1037.0
1036.0
1035.0
1030.0
1032.0
1036.0
1037.0
1035.0
1032.0
1031.0
1029.0
1035.0
1035.0
1035.0
1030.0
1031.0
1031.0
1032.0
1034.0
1029.0
1029.0
1027.0
1030.0
1034.0
1037.0
1033.0
1029.0
1030.0
1032.0
1032.0
1037.0
1033.0
1032.0
1029.0
1028.0
1032.0
1038.0
1036.0
1032.0
1032.0
1033.0
1034.0
1037.0
1036.0
1035.0
1032.0
1032.0
1034.0
1035.0
1037.0
1035.0
1033.0
1033.0
1035.0
1036.0
1033.0
1032.0
1031.0
1034.0
1035.0
1032.0
1034.0
1032.0
1027.0
1032.0
1032.0
1034.0
1033.0
1031.0
1028.0
1030.0
1031.0
1032.0
1031.0
1028.0
1028.0
1030.0
1030.0
1032.0
1030.0
1027.0
1023.0
1025.0
1029.0
1030.0
1030.0
1026.0
1026.0
1028.0
1028.0
1029.0
1029.0
1024.0
1023.0
1028.0
1029.0
1030.0
1028.0
1024.0
1023.0
1027.0
1029.0
1031.0
1031.0
1028.0
1023.0
1026.0
1029.0
1028.0
1030.0
1027.0
1024.0
1027.0
1029.0
1030.0
1029.0
1027.0
1025.0
1025.0
1031.0
1031.0
1031.0
1027.0
1025.0
1028.0
1029.0
1032.0
1032.0
1030.0
1027.0
1029.0
1031.0
1032.0
1030.0
1029.0
1027.0
1030.0
1031.0
1034.0
1035.0
1029.0
1026.0
1029.0
1034.0
1038.0
1035.0
1034.0
1034.0
1035.0
1039.0
1039.0
1042.0
1041.0
1037.0
1039.0
1042.0
1044.0
1041.0
1039.0
1038.0
1036.0
1037.0
1039.0
1038.0
1036.0
1034.0
1033.0
1039.0
1041.0
1043.0
1042.0
1038.0
1041.0
1039.0
1040.0
1038.0
1031.0
1030.0
1030.0
1033.0
1031.0
1033.0
1028.0
1025.0
1029.0
1033.0
1034.0
1031.0
1031.0
1028.0
1029.0
1031.0
1032.0
1032.0
1032.0
1029.0
1028.0
1032.0
1035.0
1031.0
1029.0
1029.0
1030.0
1033.0
1036.0
1035.0
1032.0
1030.0
1035.0
1035.0
1039.0
1039.0
1038.0
1040.0
1047.0
1055.0
1063.0
1071.0
1081.0
1088.0
1098.0
1115.0
1138.0
1161.0
1190.0
1221.0
1251.0
1285.0
1315.0
1344.0
1380.0
1417.0
1452.0
1472.0
1466.0
1429.0
1358.0
1273.0
1193.0
1133.0
1090.0
1057.0
1036.0
1029.0
1031.0
1035.0
1037.0
1034.0
1031.0
1024.0
1023.0
1023.0
1020.0
1017.0
1012.0
1008.0
1009.0
1011.0
1013.0
1011.0
1008.0
1005.0
1006.0
1008.0
1009.0
1010.0
1005.0
1003.0
1004.0
1007.0
1005.0
1005.0
999.0
1001.0
1004.0
1003.0
1007.0
1003.0
1000.0
1001.0
1001.0
1003.0
1004.0
1001.0
999.0
997.0
999.0
999.0
1001.0
1000.0
996.0
999.0
996.0
1001.0
1005.0
1003.0
999.0
994.0
997.0
1000.0
1004.0
1003.0
998.0
999.0
1000.0
1001.0
1002.0
1000.0
1000.0
997.0
1000.0
1005.0
1006.0
1007.0
1001.0
1001.0
1004.0
1009.0
1010.0
1009.0
1007.0
1007.0
1011.0
1013.0
1015.0
1016.0
1015.0
1015.0
1019.0
1023.0
1027.0
1029.0
1028.0
1029.0
1034.0
1041.0
1044.0
1047.0
1048.0
1050.0
1053.0
1060.0
1064.0
1067.0
1068.0
1071.0
1074.0
1079.0
1085.0
1087.0
1083.0
1084.0
1085.0
1087.0
1091.0
1087.0
1086.0
1080.0
1082.0
1080.0
1081.0
1077.0
1071.0
1069.0
1066.0
1068.0
1067.0
1064.0
1056.0
1053.0
1055.0
1054.0
1057.0
1053.0
1049.0
1048.0
1048.0
1048.0
1049.0
1049.0
1046.0
1043.0
1046.0
1048.0
1050.0
1047.0
1045.0
1044.0
1045.0
1048.0
1050.0
1046.0
1045.0
1041.0
1041.0
1045.0
1044.0
1045.0
1043.0
1040.0
1041.0
1040.0
1045.0
1040.0
1038.0
1035.0
1037.0
1040.0
1042.0
1040.0
1038.0
1038.0
1037.0
1039.0
1041.0
1039.0
1037.0
1033.0
1035.0
1039.0
1040.0
1040.0
1036.0
1036.0
1036.0
1042.0
1041.0
1044.0
1039.0
1040.0
1040.0
1045.0
1044.0
1044.0
1041.0
1041.0
1042.0
1042.0
1046.0
1045.0
1041.0
1040.0
1043.0
1043.0
1045.0
1043.0
1041.0
1041.0
1043.0
1043.0
1044.0
1045.0
1039.0
1038.0
1042.0
1044.0
1047.0
1044.0
1041.0
1039.0
1042.0
1041.0
1043.0
1042.0
1038.0
1038.0
1038.0
1041.0
1043.0
1040.0
1038.0
1038.0
1041.0
1041.0
1043.0
1041.0
1039.0
1037.0
1038.0
1039.0
1043.0
1040.0
1037.0
1036.0
1035.0
1039.0
1038.0
1038.0
1038.0
1036.0
1035.0
1038.0
1040.0
1038.0
1037.0
1035.0
1036.0
1039.0
1042.0
1041.0
1039.0
1037.0
1038.0
1039.0
1044.0
1041.0
1039.0
1039.0
1041.0
1041.0
1045.0
1041.0
1037.0
1037.0
1037.0
1042.0
1043.0
1042.0
1038.0
1037.0
1041.0
1042.0
1044.0
1045.0
1042.0
1040.0
1041.0
1044.0
1044.0
1042.0
1040.0
1038.0
1041.0
1046.0
1046.0
1046.0
1040.0
1042.0
1046.0
1050.0
1051.0
1051.0
1049.0
1051.0
1052.0
1055.0
1056.0
1056.0
1054.0
1054.0
1054.0
1055.0
1057.0
1056.0
1054.0
1053.0
1051.0
1052.0
1055.0
1055.0
1050.0
1050.0
1051.0
1055.0
1059.0
1058.0
1056.0
1053.0
1056.0
1058.0
1060.0
1057.0
1055.0
1052.0
1051.0
1052.0
1049.0
1051.0
1047.0
1046.0
1046.0
1050.0
1050.0
1049.0
1046.0
1044.0
1048.0
1049.0
1050.0
1048.0
1048.0
1045.0
1047.0
1049.0
1050.0
1048.0
1045.0
1042.0
1044.0
1049.0
1051.0
1051.0
1048.0
1046.0
1047.0
1049.0
1050.0
1050.0
1050.0
1051.0
1055.0
1060.0
1066.0
1072.0
1080.0
1088.0
1103.0
1115.0
1129.0
1146.0
1167.0
1193.0
1225.0
1257.0
1286.0
1310.0
1333.0
1359.0
1394.0
1431.0
1461.0
1467.0
1452.0
1405.0
1333.0
1244.0
1169.0
1110.0
1076.0
1055.0
1045.0
1049.0
1049.0
1049.0
1043.0
1041.0
1042.0
1044.0
1039.0
1034.0
1028.0
1026.0
1025.0
1029.0
1028.0
1026.0
1023.0
1022.0
1022.0
1023.0
1025.0
1022.0
1022.0
1019.0
1020.0
1023.0
1024.0
1020.0
1019.0
1016.0
1019.0
1022.0
1024.0
1022.0
1018.0
1017.0
1017.0
1019.0
1020.0
1019.0
1014.0
1012.0
1012.0
1013.0
1014.0
1013.0
1016.0
1011.0
1016.0
1016.0
1017.0
1015.0
1009.0
1008.0
1012.0
1015.0
1018.0
1014.0
1012.0
1010.0
1014.0
1016.0
1021.0
1018.0
1015.0
1014.0
1013.0
1018.0
1018.0
1016.0
1013.0
1014.0
1017.0
1017.0
1017.0
1018.0
1018.0
1017.0
1017.0
1022.0
1024.0
1025.0
1026.0
1024.0
1027.0
1030.0
1036.0
1035.0
1036.0
1035.0
1040.0
1046.0
1050.0
1050.0
1052.0
1056.0
1062.0
1067.0
1072.0
1075.0
1075.0
1076.0
1082.0
1081.0
1087.0
1086.0
1087.0
1089.0
1090.0
1092.0
1092.0
1090.0
1085.0
1081.0
1079.0
1082.0
1078.0
1077.0
1070.0
1068.0
1068.0
1066.0
1064.0
1059.0
1055.0
1052.0
1053.0
1057.0
1055.0
1052.0
1047.0
1047.0
1049.0
1049.0
1047.0
1047.0
1046.0
1044.0
1044.0
1045.0
1045.0
1047.0
1045.0
1043.0
1042.0
1045.0
1046.0
1044.0
1042.0
1039.0
1040.0
1040.0
1041.0
1038.0
1038.0
1036.0
1036.0
1039.0
1043.0
1037.0
1036.0
1035.0
1034.0
1035.0
1036.0
1032.0
1027.0
1027.0
1030.0
1032.0
1033.0
1029.0
1024.0
1025.0
1025.0
1028.0
1030.0
1027.0
1027.0
1028.0
1025.0
1031.0
1030.0
1029.0
1026.0
1026.0
1028.0
1031.0
1034.0
1030.0
1029.0
1025.0
1026.0
1031.0
1030.0
1028.0
1029.0
1027.0
1032.0
1033.0
1033.0
1032.0
1028.0
1028.0
1029.0
1034.0
1034.0
1035.0
1034.0
1031.0
1032.0
1034.0
1035.0
1031.0
1030.0
1030.0
1031.0
1034.0
1033.0
1033.0
1029.0
1030.0
1031.0
1035.0
1035.0
1030.0
1027.0
1028.0
1028.0
1029.0
1033.0
1030.0
1028.0
1027.0
1026.0
1028.0
1033.0
1030.0
1028.0
1027.0
1029.0
1030.0
1031.0
1030.0
1027.0
1026.0
1025.0
1028.0
1030.0
1030.0
1028.0
1026.0
1026.0
1028.0
1029.0
1027.0
1028.0
1025.0
1027.0
1028.0
1030.0
1027.0
1025.0
1024.0
1025.0
1027.0
1030.0
1028.0
1025.0
1025.0
1025.0
1029.0
1030.0
1027.0
1025.0
1024.0
1026.0
1031.0
1035.0
1030.0
1026.0
1027.0
1028.0
1032.0
1035.0
1031.0
1029.0
1029.0
1029.0
1032.0
1032.0
1031.0
1031.0
1029.0
1029.0
1036.0
1036.0
1035.0
1035.0
1037.0
1037.0
1041.0
1042.0
1039.0
1039.0
1037.0
1041.0
1046.0
1047.0
1045.0
1044.0
1039.0
1039.0
1041.0
1042.0
1038.0
1036.0
1037.0
1039.0
1044.0
1042.0
1043.0
1039.0
1040.0
1043.0
1044.0
1045.0
1042.0
1039.0
1033.0
1032.0
1037.0
1038.0
1037.0
1033.0
1032.0
1035.0
1035.0
1039.0
1036.0
1033.0
1033.0
1034.0
1037.0
1037.0
1038.0
1035.0
1033.0
1038.0
1039.0
1039.0
1037.0
1035.0
1035.0
1039.0
1040.0
1041.0
1043.0
1040.0
1046.0
1050.0
1060.0
1069.0
1079.0
1087.0
1093.0
1106.0
1122.0
1144.0
1171.0
1198.0
1224.0
1251.0
1282.0
1311.0
1341.0
1376.0
1416.0
1454.0
1474.0
1461.0
1408.0
1323.0
1232.0
1156.0
1103.0
1067.0
1043.0
1035.0
1037.0
1040.0
1042.0
1043.0
1037.0
1032.0
1027.0
1026.0
1026.0
1026.0
1022.0
1018.0
1017.0
1017.0
1020.0
1024.0
1020.0
1019.0
1017.0
1018.0
1020.0
1020.0
1017.0
1015.0
1015.0
1017.0
1018.0
1018.0
1017.0
1013.0
1012.0
1012.0
1014.0
1015.0
1015.0
1011.0
1008.0
1007.0
1012.0
1014.0
1011.0
1009.0
1010.0
1009.0
1011.0
1012.0
1010.0
1010.0
1009.0
1012.0
1013.0
1012.0
1008.0
1008.0
1008.0
1012.0
1016.0
1015.0
1016.0
1013.0
1011.0
1011.0
1017.0
1018.0
1017.0
1016.0
1016.0
1017.0
1021.0
1025.0
1023.0
1023.0
1020.0
1024.0
1028.0
1033.0
1029.0
1032.0
1031.0
1034.0
1042.0
1044.0
1045.0
1047.0
1046.0
1054.0
1059.0
1062.0
1064.0
1064.0
1066.0
1071.0
1076.0
1083.0
1085.0
1087.0
1086.0
1092.0
1096.0
1100.0
1102.0
1099.0
1101.0
1100.0
1101.0
1097.0
1096.0
1090.0
1086.0
1087.0
1088.0
1087.0
1081.0
1076.0
1071.0
1070.0
1071.0
1072.0
1067.0
1060.0
1057.0
1056.0
1060.0
1060.0
1058.0
1053.0
1055.0
1056.0
1058.0
1056.0
1055.0
1052.0
1050.0
1051.0
1056.0
1057.0
1053.0
1051.0
1046.0
1050.0
1051.0
1051.0
1051.0
1048.0
1047.0
1048.0
1048.0
1052.0
1049.0
1047.0
1043.0
1042.0
1048.0
1047.0
1046.0
1042.0
1044.0
1044.0
1047.0
1045.0
1045.0
1042.0
1043.0
1043.0
1046.0
1045.0
1043.0
1037.0
1039.0
1042.0
1046.0
1045.0
1042.0
1042.0
1040.0
1043.0
1045.0
1044.0
1042.0
1041.0
1043.0
1045.0
1050.0
1049.0
1046.0
1042.0
1043.0
1046.0
1049.0
1049.0
1047.0
1045.0
1046.0
1045.0
1048.0
1050.0
1050.0
1049.0
1049.0
1050.0
1055.0
1061.0
1066.0
1074.0
1088.0
1112.0
1140.0
1168.0
1182.0
1176.0
1160.0
1132.0
1090.0
1021.0
935.0
839.0
736.0
650.0
614.0
608.0
603.0
588.0
591.0
608.0
638.0
680.0
719.0
752.0
784.0
815.0
843.0
863.0
876.0
887.0
908.0
925.0
944.0
953.0
960.0
967.0
976.0
990.0
1007.0
1018.0
1030.0
1038.0
1045.0
1058.0
1068.0
1073.0
1077.0
1079.0
1081.0
1085.0
1091.0
1095.0
1096.0
1098.0
1098.0
1100.0
1105.0
1103.0
1103.0
1101.0
1107.0
1112.0
1117.0
1120.0
1120.0
1121.0
1123.0
1128.0
1132.0
1137.0
1135.0
1136.0
1137.0
1141.0
1146.0
1152.0
1154.0
1153.0
1156.0
1162.0
1169.0
1172.0
1177.0
1182.0
1184.0
1193.0
1202.0
1209.0
1217.0
1219.0
1225.0
1234.0
1243.0
1249.0
1252.0
1260.0
1265.0
1272.0
1281.0
1285.0
1288.0
1291.0
1293.0
1300.0
1303.0
1307.0
1303.0
1300.0
1296.0
1297.0
1294.0
1291.0
1283.0
1278.0
1269.0
1265.0
1264.0
1252.0
1243.0
1235.0
1225.0
1219.0
1211.0
1204.0
1194.0
1185.0
1177.0
1169.0
1165.0
1157.0
1146.0
1137.0
1129.0
1124.0
1122.0
1117.0
1110.0
1104.0
1097.0
1094.0
1089.0
1085.0
1084.0
1078.0
1075.0
1075.0
1074.0
1072.0
1070.0
1067.0
1065.0
1066.0
1065.0
1065.0
1061.0
1056.0
1057.0
1057.0
1059.0
1060.0
1059.0
1053.0
1052.0
1053.0
1059.0
1055.0
1051.0
1052.0
1051.0
1050.0
1051.0
1050.0
1046.0
1043.0
1043.0
1048.0
1049.0
1051.0
1047.0
1041.0
1039.0
1044.0
1044.0
1046.0
1043.0
1040.0
1040.0
1040.0
1041.0
1039.0
1038.0
1033.0
1034.0
1038.0
1039.0
1037.0
1033.0
1030.0
1030.0
1031.0
1032.0
1033.0
1032.0
1029.0
1030.0
1031.0
1032.0
1033.0
1029.0
1028.0
1026.0
1031.0
1032.0
1031.0
1026.0
1024.0
1024.0
1028.0
1033.0
1031.0
1029.0
1025.0
1024.0
1022.0
1025.0
1027.0
1024.0
1021.0
1021.0
1025.0
1026.0
1024.0
1026.0
1022.0
1020.0
1024.0
1027.0
1028.0
1026.0
1022.0
1018.0
1020.0
1024.0
1026.0
1025.0
1021.0
1018.0
1020.0
1024.0
1022.0
1022.0
1020.0
1017.0
1018.0
1016.0
1016.0
1014.0
1016.0
1016.0
1020.0
1023.0
1024.0
1019.0
1015.0
1016.0
1018.0
1018.0
1020.0
1018.0
1017.0
1016.0
1020.0
1020.0
1022.0
1019.0
1017.0
1018.0
1017.0
1018.0
1019.0
1019.0
1016.0
1017.0
1017.0
1019.0
1019.0
1019.0
1016.0
1016.0
1017.0
1023.0
1022.0
1018.0
1017.0
1014.0
1019.0
1021.0
1022.0
1017.0
1018.0
1018.0
1020.0
1021.0
1019.0
1017.0
1015.0
1015.0
1016.0
1020.0
1021.0
1021.0
1020.0
1019.0
1019.0
1021.0
1022.0
1019.0
1015.0
1015.0
1020.0
1018.0
1017.0
1015.0
1010.0
1014.0
1019.0
1022.0
1021.0
1019.0
1018.0
1016.0
1019.0
1024.0
1021.0
1018.0
1015.0
1015.0
1014.0
1017.0
1018.0
1017.0
1015.0
1012.0
1014.0
1018.0
1016.0
1017.0
1016.0
1015.0
1016.0
1014.0
1016.0
1016.0
1014.0
1014.0
1018.0
1022.0
1022.0
1018.0
1016.0
1013.0
1016.0
1020.0
1021.0
1021.0
1018.0
1019.0
1021.0
1023.0
1023.0
1019.0
1018.0
1017.0
1019.0
1022.0
1021.0
1020.0
1018.0
1018.0
1023.0
1024.0
1025.0
1021.0
1019.0
1016.0
1020.0
1025.0
1025.0
1024.0
1018.0
1017.0
1023.0
1024.0
1027.0
1022.0
1017.0
1017.0
1020.0
1024.0
1025.0
1019.0
1018.0
1019.0
1021.0
1027.0
1024.0
1018.0
1016.0
1015.0
1019.0
1027.0
1025.0
1022.0
1019.0
1019.0
1021.0
1027.0
1025.0
1023.0
1026.0
1022.0
1024.0
1025.0
1026.0
1024.0
1021.0
1020.0
1021.0
1026.0
1027.0
1024.0
1021.0
1021.0
1023.0
1024.0
1025.0
1027.0
1026.0
1023.0
1026.0
1025.0
1027.0
1026.0
1023.0
1027.0
1028.0
1030.0
1031.0
1031.0
1025.0
1022.0
1024.0
1028.0
1032.0
1029.0
1029.0
1029.0
1032.0
1034.0
1036.0
1038.0
1035.0
1036.0
1035.0
1040.0
1038.0
1035.0
1031.0
1030.0
1029.0
1033.0
1033.0
1030.0
1027.0
1027.0
1027.0
1030.0
1032.0
1034.0
1033.0
1034.0
1033.0
1037.0
1035.0
1034.0
1030.0
1028.0
1031.0
1032.0
1032.0
1027.0
1025.0
1022.0
1024.0
1030.0
1028.0
1029.0
1027.0
1024.0
1026.0
1030.0
1027.0
1029.0
1028.0
1027.0
1030.0
1031.0
1029.0
1027.0
1026.0
1028.0
1027.0
1030.0
1028.0
1026.0
1025.0
1026.0
1027.0
1027.0
1030.0
1039.0
1047.0
1060.0
1074.0
1080.0
1084.0
1097.0
1117.0
1147.0
1181.0
1220.0
1257.0
1289.0
1325.0
1372.0
1420.0
1456.0
1460.0
1422.0
1342.0
1245.0
1155.0
1091.0
1055.0
1038.0
1033.0
1033.0
1034.0
1031.0
1030.0
1024.0
1018.0
1011.0
1011.0
1009.0
1009.0
1012.0
1005.0
1003.0
1001.0
1007.0
1010.0
1007.0
1000.0
994.0
997.0
999.0
999.0
997.0
995.0
995.0
1000.0
999.0
1000.0
998.0
993.0
997.0
996.0
999.0
998.0
996.0
994.0
995.0
996.0
1000.0
997.0
998.0
991.0
994.0
1000.0
999.0
997.0
995.0
996.0
999.0
1001.0
999.0
998.0
995.0
996.0
999.0
1000.0
1000.0
998.0
997.0
997.0
997.0
1002.0
1002.0
1002.0
1003.0
1005.0
1005.0
1007.0
1008.0
1007.0
1009.0
1010.0
1017.0
1021.0
1019.0
1021.0
1024.0
1021.0
1020.0
1022.0
1028.0
1028.0
1029.0
1032.0
1034.0
1039.0
1044.0
1051.0
1049.0
1048.0
1049.0
1056.0
1064.0
1069.0
1075.0
1073.0
1072.0
1078.0
1082.0
1085.0
1084.0
1083.0
1086.0
1084.0
1084.0
1083.0
1083.0
1082.0
1077.0
1077.0
1078.0
1075.0
1074.0
1069.0
1068.0
1068.0
1066.0
1062.0
1057.0
1056.0
1058.0
1060.0
1061.0
1057.0
1050.0
1049.0
1047.0
1052.0
1054.0
1052.0
1047.0
1046.0
1046.0
1049.0
1048.0
1050.0
1047.0
1045.0
1042.0
1041.0
1043.0
1044.0
1045.0
1043.0
1039.0
1042.0
1043.0
1042.0
1042.0
1040.0
1041.0
1044.0
1046.0
1044.0
1039.0
1038.0
1044.0
1050.0
1058.0
1067.0
1085.0
1107.0
1131.0
1145.0
1136.0
1100.0
1037.0
932.0
810.0
688.0
606.0
584.0
582.0
604.0
636.0
681.0
724.0
764.0
801.0
829.0
852.0
870.0
891.0
908.0
924.0
938.0
946.0
956.0
971.0
987.0
1001.0
1006.0
1017.0
1035.0
1051.0
1064.0
1069.0
1065.0
1065.0
1072.0
1076.0
1076.0
1082.0
1080.0
1084.0
1084.0
1089.0
1092.0
1091.0
1088.0
1090.0
1100.0
1106.0
1107.0
1103.0
1101.0
1104.0
1108.0
1112.0
1116.0
1114.0
1109.0
1110.0
1114.0
1122.0
1128.0
1129.0
1125.0
1127.0
1135.0
1140.0
1140.0
1143.0
1144.0
1150.0
1154.0
1158.0
1160.0
1161.0
1165.0
1170.0
1177.0
1185.0
1186.0
1195.0
1198.0
1203.0
1210.0
1217.0
1225.0
1228.0
1230.0
1228.0
1232.0
1240.0
1245.0
1245.0
1243.0
1245.0
1246.0
1249.0
1246.0
1242.0
1239.0
1234.0
1234.0
1230.0
1224.0
1222.0
1212.0
1204.0
1192.0
1189.0
1184.0
1177.0
1169.0
1160.0
1156.0
1152.0
1145.0
1136.0
1121.0
1116.0
1117.0
1114.0
1111.0
1104.0
1098.0
1092.0
1086.0
1088.0
1085.0
1081.0
1076.0
1073.0
1072.0
1071.0
1070.0
1066.0
1066.0
1063.0
1066.0
1063.0
1063.0
1063.0
1057.0
1055.0
1052.0
1053.0
1056.0
1059.0
1059.0
1056.0
1054.0
1054.0
1058.0
1059.0
1057.0
1052.0
1052.0
1056.0
1056.0
1050.0
1046.0
1048.0
1052.0
1053.0
1053.0
1052.0
1050.0
1047.0
1044.0
1040.0
1043.0
1045.0
1043.0
1038.0
1044.0
1048.0
1047.0
1041.0
1035.0
1036.0
1039.0
1045.0
1042.0
1039.0
1037.0
1041.0
1043.0
1039.0
1034.0
1032.0
1030.0
1032.0
1034.0
1036.0
1040.0
1037.0
1031.0
1031.0
1035.0
1042.0
1040.0
1039.0
1029.0
1027.0
1028.0
1033.0
1036.0
1034.0
1032.0
1033.0
1032.0
1032.0
1033.0
1032.0
1029.0
1030.0
1028.0
1032.0
1032.0
1031.0
1027.0
1029.0
1029.0
1034.0
1033.0
1030.0
1029.0
1027.0
1026.0
1027.0
1032.0
1033.0
1033.0
1027.0
1027.0
1028.0
1032.0
1033.0
1032.0
1030.0
1025.0
1025.0
1025.0
1027.0
1027.0
1028.0
1029.0
1029.0
1027.0
1024.0
1022.0
1026.0
1028.0
1033.0
1031.0
1027.0
1023.0
1023.0
1025.0
1032.0
1033.0
1034.0
1026.0
1024.0
1031.0
1035.0
1033.0
1030.0
1025.0
1027.0
1027.0
1031.0
1031.0
1030.0
1027.0
1028.0
1027.0
1028.0
1026.0
1023.0
1019.0
1022.0
1025.0
1028.0
1024.0
1025.0
1023.0
1023.0
1028.0
1032.0
1030.0
1027.0
1026.0
1025.0
1027.0
1033.0
1032.0
1027.0
1025.0
1024.0
1031.0
1030.0
1028.0
1022.0
1018.0
1018.0
1024.0
1032.0
1030.0
1029.0
1025.0
1026.0
1029.0
1031.0
1031.0
1026.0
1025.0
1027.0
1029.0
1028.0
1024.0
1021.0
1019.0
1022.0
1027.0
1029.0
1027.0
1025.0
1022.0
1020.0
1020.0
1029.0
1030.0
1029.0
1023.0
1026.0
1024.0
1026.0
1022.0
1021.0
1019.0
1026.0
1030.0
1034.0
1032.0
1024.0
1019.0
1011.0
1019.0
1027.0
1032.0
1030.0
1024.0
1021.0
1022.0
1026.0
1028.0
1027.0
1024.0
1021.0
1022.0
1024.0
1021.0
1022.0
1022.0
1025.0
1023.0
1025.0
1026.0
1027.0
1022.0
1023.0
1021.0
1021.0
1021.0
1018.0
1017.0
1024.0
1028.0
1028.0
1026.0
1020.0
1020.0
1019.0
1021.0
1027.0
1025.0
1024.0
1022.0
1024.0
1022.0
1023.0
1024.0
1028.0
1025.0
1020.0
1017.0
1020.0
1022.0
1022.0
1021.0
1022.0
1026.0
1027.0
1021.0
1016.0
1014.0
1017.0
1021.0
1025.0
1026.0
1023.0
1021.0
1018.0
1019.0
1022.0
1024.0
1019.0
1012.0
1016.0
1017.0
1022.0
1023.0
1021.0
1018.0
1018.0
1020.0
1027.0
1025.0
1022.0
1015.0
1012.0
1017.0
1023.0
1027.0
1024.0
1024.0
1025.0
1024.0
1023.0
1021.0
1018.0
1012.0
1015.0
1018.0
1021.0
1020.0
1022.0
1020.0
1021.0
1022.0
1023.0
1022.0
1021.0
1023.0
1023.0
1021.0
1024.0
1021.0
1020.0
1017.0
1016.0
1018.0
1021.0
1023.0
1020.0
1018.0
1017.0
1021.0
1026.0
1027.0
1021.0
1018.0
1016.0
1021.0
1025.0
1025.0
1024.0
1022.0
1022.0
1023.0
1026.0
1025.0
1022.0
1020.0
1023.0
1024.0
1029.0
1025.0
1023.0
1020.0
1023.0
1024.0
1027.0
1029.0
1027.0
1030.0
1028.0
1030.0
1033.0
1033.0
1031.0
1031.0
1031.0
1032.0
1033.0
1030.0
1033.0
1027.0
1026.0
1030.0
1033.0
1035.0
1030.0
1028.0
1033.0
1034.0
1034.0
1030.0
1030.0
1027.0
1026.0
1032.0
1035.0
1039.0
1038.0
1034.0
1030.0
1027.0
1023.0
1022.0
1027.0
1030.0
1030.0
1028.0
1029.0
1022.0
1020.0
1020.0
1022.0
1026.0
1029.0
1028.0
1023.0
1019.0
1021.0
1023.0
1027.0
1023.0
1024.0
1021.0
1019.0
1024.0
1029.0
1029.0
1027.0
1023.0
1023.0
1025.0
1030.0
1032.0
1032.0
1033.0
1035.0
1045.0
1056.0
1069.0
1080.0
1085.0
1095.0
1114.0
1142.0
1172.0
1205.0
1232.0
1264.0
1304.0
1341.0
1382.0
1422.0
1451.0
1455.0
1432.0
1367.0
1271.0
1175.0
1099.0
1049.0
1034.0
1037.0
1040.0
1035.0
1031.0
1028.0
1028.0
1024.0
1018.0
1009.0
1002.0
1001.0
1003.0
1004.0
1001.0
1002.0
996.0
996.0
997.0
997.0
998.0
996.0
996.0
996.0
996.0
992.0
991.0
989.0
986.0
986.0
988.0
996.0
997.0
995.0
991.0
991.0
989.0
992.0
995.0
992.0
992.0
991.0
988.0
992.0
992.0
988.0
986.0
987.0
991.0
990.0
993.0
991.0
988.0
987.0
990.0
990.0
988.0
991.0
987.0
992.0
990.0
990.0
990.0
990.0
986.0
992.0
997.0
1001.0
1002.0
998.0
994.0
994.0
992.0
1000.0
1000.0
994.0
992.0
996.0
997.0
998.0
998.0
998.0
999.0
1002.0
1002.0
1003.0
1002.0
1001.0
999.0
996.0
1000.0
1006.0
1009.0
1010.0
1009.0
1009.0
1013.0
1017.0
1019.0
1016.0
1016.0
1020.0
1025.0
1030.0
1033.0
1034.0
1036.0
1039.0
1044.0
1051.0
1054.0
1055.0
1055.0
1058.0
1065.0
1067.0
1069.0
1070.0
1070.0
1071.0
1071.0
1071.0
1072.0
1072.0
1069.0
1068.0
1063.0
1062.0
1060.0
1059.0
1055.0
1060.0
1063.0
1065.0
1061.0
1057.0
1049.0
1050.0
1052.0
1053.0
1052.0
1049.0
1047.0
1045.0
1048.0
1046.0
1047.0
1046.0
1045.0
1046.0
1050.0
1053.0
1049.0
1047.0
1044.0
1044.0
1045.0
1049.0
1048.0
1045.0
1045.0
1045.0
1045.0
1048.0
1046.0
1046.0
1045.0
1045.0
1046.0
1048.0
1050.0
1049.0
1043.0
1045.0
1046.0
1048.0
1048.0
1042.0
1042.0
1042.0
1047.0
1049.0
1049.0
1045.0
1042.0
1040.0
1043.0
1046.0
1045.0
1043.0
1037.0
1039.0
1040.0
1043.0
1047.0
1046.0
1039.0
1041.0
1041.0
1040.0
1043.0
1038.0
1036.0
1036.0
1037.0
1039.0
1038.0
1034.0
1031.0
1034.0
1035.0
1037.0
1033.0
1032.0
1029.0
1032.0
1033.0
1033.0
1033.0
1032.0
1032.0
1028.0
1031.0
1033.0
1032.0
1032.0
1029.0
1028.0
1030.0
1031.0
1029.0
1028.0
1025.0
1023.0
1028.0
1031.0
1031.0
1027.0
1024.0
1025.0
1032.0
1036.0
1033.0
1031.0
1027.0
1030.0
1031.0
1033.0
1034.0
1029.0
1027.0
1031.0
1033.0
1032.0
1030.0
1029.0
1029.0
1032.0
1037.0
1038.0
1033.0
1030.0
1030.0
1029.0
1033.0
1030.0
1030.0
1032.0
1031.0
1031.0
1030.0
1031.0
1031.0
1031.0
1030.0
1032.0
1033.0
1037.0
1035.0
1029.0
1029.0
1031.0
1033.0
1038.0
1036.0
1034.0
1034.0
1033.0
1034.0
1037.0
1036.0
1034.0
1031.0
1034.0
1036.0
1040.0
1041.0
1044.0
1042.0
1044.0
1044.0
1044.0
1042.0
1043.0
1043.0
1049.0
1054.0
1054.0
1049.0
1047.0
1047.0
1046.0
1050.0
1049.0
1044.0
1041.0
1039.0
1040.0
1039.0
1044.0
1045.0
1044.0
1045.0
1048.0
1051.0
1054.0
1051.0
1050.0
1046.0
1044.0
1043.0
1045.0
1042.0
1040.0
1037.0
1037.0
1043.0
1046.0
1043.0
1043.0
1041.0
1041.0
1039.0
1039.0
1037.0
1038.0
1040.0
1038.0
1041.0
1044.0
1042.0
1040.0
1037.0
1036.0
1039.0
1042.0
1039.0
1034.0
1035.0
1037.0
1038.0
1041.0
1040.0
1040.0
1040.0
1042.0
1047.0
1047.0
1050.0
1054.0
1060.0
1070.0
1083.0
1096.0
1106.0
1114.0
1130.0
1155.0
1185.0
1212.0
1235.0
1262.0
1287.0
1314.0
1343.0
1376.0
1414.0
1444.0
1457.0
1444.0
1408.0
1332.0
1237.0
1151.0
1091.0
1061.0
1048.0
1045.0
1047.0
1045.0
1041.0
1038.0
1041.0
1042.0
1038.0
1033.0
1028.0
1025.0
1026.0
1028.0
1024.0
1020.0
1017.0
1017.0
1020.0
1022.0
1022.0
1018.0
1017.0
1015.0
1018.0
1017.0
1015.0
1010.0
1008.0
1009.0
1011.0
1015.0
1020.0
1019.0
1013.0
1010.0
1011.0
1013.0
1016.0
1015.0
1013.0
1010.0
1011.0
1014.0
1013.0
1010.0
1010.0
1009.0
1011.0
1014.0
1010.0
1009.0
1005.0
1009.0
1010.0
1014.0
1014.0
1008.0
1006.0
1006.0
1007.0
1011.0
1012.0
1013.0
1007.0
1008.0
1012.0
1013.0
1010.0
1010.0
1007.0
1004.0
1008.0
1012.0
1009.0
1007.0
1009.0
1012.0
1015.0
1016.0
1015.0
1013.0
1009.0
1008.0
1011.0
1016.0
1019.0
1020.0
1022.0
1024.0
1024.0
1029.0
1030.0
1028.0
1025.0
1029.0
1035.0
1040.0
1042.0
1041.0
1044.0
1048.0
1050.0
1051.0
1055.0
1056.0
1056.0
1060.0
1063.0
1068.0
1070.0
1070.0
1071.0
1071.0
1070.0
1071.0
1067.0
1064.0
1063.0
1058.0
1059.0
1059.0
1059.0
1056.0
1054.0
1052.0
1052.0
1050.0
1045.0
1039.0
1040.0
1037.0
1042.0
1045.0
1048.0
1045.0
1042.0
1040.0
1041.0
1043.0
1040.0
1037.0
1034.0
1037.0
1041.0
1045.0
1042.0
1035.0
1031.0
1031.0
1034.0
1034.0
1036.0
1033.0
1029.0
1032.0
1037.0
1038.0
1033.0
1028.0
1025.0
1027.0
1031.0
1032.0
1029.0
1024.0
1021.0
1022.0
1031.0
1032.0
1035.0
1031.0
1027.0
1030.0
1028.0
1031.0
1030.0
1030.0
1030.0
1028.0
1030.0
1032.0
1034.0
1032.0
1031.0
1032.0
1033.0
1035.0
1034.0
1031.0
1028.0
1029.0
1030.0
1034.0
1034.0
1030.0
1026.0
1027.0
1031.0
1034.0
1034.0
