# Simple Text Format
# Sampling Rate (Hz):= 360.00
# Resolution:= 12
# Labels:= ECG
816.0
814.0
810.0
808.0
807.0
809.0
813.0
816.0
821.0
824.0
833.0
833.0
830.0
828.0
824.0
822.0
822.0
819.0
821.0
820.0
821.0
816.0
809.0
810.0
799.0
797.0
791.0
782.0
778.0
774.0
772.0
773.0
775.0
780.0
780.0
779.0
783.0
782.0
778.0
782.0
782.0
780.0
776.0
779.0
776.0
779.0
780.0
789.0
803.0
824.0
858.0
911.0
975.0
1056.0
1149.0
1253.0
1353.0
1433.0
1486.0
1510.0
1498.0
1447.0
1353.0
1225.0
1097.0
969.0
841.0
713.0
674.0
735.0
798.0
848.0
868.0
864.0
844.0
817.0
796.0
789.0
783.0
783.0
787.0
789.0
790.0
792.0
791.0
788.0
793.0
790.0
792.0
792.0
790.0
791.0
794.0
795.0
796.0
798.0
797.0
801.0
798.0
800.0
799.0
801.0
806.0
807.0
811.0
810.0
810.0
815.0
820.0
818.0
819.0
820.0
816.0
812.0
816.0
820.0
825.0
833.0
841.0
846.0
852.0
856.0
859.0
860.0
864.0
871.0
871.0
873.0
881.0
888.0
894.0
899.0
902.0
906.0
910.0
910.0
913.0
913.0
920.0
924.0
932.0
939.0
942.0
941.0
943.0
944.0
943.0
939.0
940.0
938.0
931.0
929.0
926.0
925.0
919.0
915.0
907.0
898.0
889.0
879.0
868.0
861.0
848.0
842.0
834.0
829.0
826.0
824.0
819.0
815.0
811.0
803.0
801.0
794.0
790.0
787.0
788.0
792.0
794.0
798.0
795.0
796.0
795.0
790.0
784.0
782.0
778.0
778.0
785.0
789.0
788.0
792.0
793.0
794.0
796.0
792.0
789.0
790.0
786.0
788.0
788.0
789.0
790.0
793.0
793.0
795.0
793.0
794.0
792.0
795.0
794.0
787.0
788.0
789.0
790.0
791.0
791.0
796.0
794.0
793.0
791.0
788.0
785.0
785.0
786.0
787.0
790.0
791.0
790.0
786.0
784.0
783.0
782.0
783.0
781.0
778.0
778.0
776.0
775.0
779.0
778.0
777.0
777.0
776.0
775.0
774.0
771.0
771.0
770.0
771.0
773.0
776.0
778.0
773.0
772.0
767.0
765.0
764.0
764.0
762.0
762.0
765.0
768.0
773.0
773.0
768.0
769.0
767.0
764.0
768.0
770.0
773.0
779.0
785.0
790.0
793.0
794.0
791.0
790.0
787.0
785.0
780.0
781.0
785.0
790.0
794.0
798.0
806.0
809.0
811.0
810.0
803.0
798.0
790.0
788.0
789.0
790.0
792.0
794.0
793.0
791.0
789.0
786.0
778.0
773.0
764.0
756.0
753.0
749.0
748.0
748.0
754.0
756.0
759.0
760.0
757.0
760.0
758.0
754.0
753.0
753.0
752.0
755.0
754.0
757.0
757.0
759.0
769.0
787.0
820.0
864.0
922.0
996.0
1078.0
1161.0
1245.0
1322.0
1395.0
1450.0
1477.0
1475.0
1437.0
1342.0
1214.0
1086.0
958.0
830.0
702.0
677.0
730.0
784.0
820.0
828.0
818.0
798.0
777.0
765.0
760.0
763.0
766.0
767.0
766.0
764.0
761.0
758.0
756.0
757.0
756.0
763.0
764.0
766.0
769.0
767.0
769.0
770.0
769.0
769.0
773.0
775.0
777.0
776.0
777.0
780.0
785.0
784.0
787.0
787.0
791.0
785.0
788.0
789.0
794.0
798.0
800.0
804.0
807.0
814.0
814.0
814.0
819.0
823.0
824.0
827.0
830.0
833.0
840.0
847.0
857.0
865.0
868.0
871.0
874.0
878.0
884.0
890.0
894.0
897.0
902.0
904.0
911.0
915.0
913.0
917.0
914.0
912.0
907.0
902.0
895.0
890.0
882.0
874.0
869.0
859.0
853.0
835.0
824.0
816.0
808.0
798.0
792.0
787.0
787.0
787.0
786.0
786.0
778.0
775.0
769.0
764.0
757.0
758.0
754.0
754.0
755.0
754.0
757.0
761.0
759.0
762.0
762.0
761.0
758.0
753.0
749.0
749.0
754.0
759.0
765.0
767.0
765.0
767.0
764.0
761.0
760.0
759.0
760.0
762.0
765.0
768.0
771.0
772.0
772.0
771.0
766.0
761.0
756.0
756.0
759.0
764.0
765.0
767.0
764.0
765.0
764.0
762.0
760.0
758.0
754.0
753.0
753.0
752.0
754.0
759.0
763.0
767.0
766.0
766.0
762.0
760.0
757.0
756.0
756.0
756.0
757.0
755.0
759.0
757.0
754.0
752.0
752.0
749.0
748.0
748.0
750.0
754.0
755.0
756.0
756.0
756.0
754.0
754.0
752.0
751.0
748.0
747.0
747.0
748.0
752.0
754.0
754.0
760.0
761.0
760.0
762.0
767.0
765.0
765.0
769.0
772.0
778.0
781.0
784.0
785.0
785.0
783.0
783.0
784.0
783.0
788.0
789.0
791.0
794.0
794.0
793.0
794.0
789.0
786.0
784.0
780.0
777.0
778.0
777.0
776.0
772.0
768.0
768.0
766.0
760.0
756.0
752.0
745.0
742.0
741.0
744.0
746.0
750.0
754.0
756.0
760.0
760.0
758.0
760.0
760.0
755.0
754.0
753.0
759.0
771.0
794.0
828.0
883.0
953.0
1037.0
1133.0
1233.0
1326.0
1406.0
1461.0
1482.0
1475.0
1431.0
1340.0
1212.0
1084.0
956.0
828.0
700.0
632.0
673.0
734.0
791.0
826.0
829.0
821.0
802.0
783.0
768.0
756.0
752.0
754.0
756.0
762.0
765.0
771.0
773.0
773.0
775.0
771.0
769.0
771.0
769.0
763.0
764.0
770.0
773.0
778.0
782.0
785.0
786.0
787.0
790.0
789.0
788.0
786.0
788.0
787.0
788.0
794.0
797.0
800.0
806.0
809.0
810.0
813.0
817.0
818.0
821.0
821.0
824.0
831.0
836.0
844.0
851.0
857.0
860.0
859.0
863.0
863.0
868.0
872.0
881.0
890.0
896.0
898.0
902.0
910.0
910.0
915.0
914.0
915.0
916.0
917.0
920.0
925.0
928.0
931.0
931.0
927.0
919.0
916.0
908.0
901.0
890.0
880.0
869.0
863.0
855.0
846.0
838.0
831.0
825.0
816.0
807.0
799.0
796.0
792.0
789.0
792.0
790.0
787.0
786.0
783.0
780.0
780.0
775.0
776.0
775.0
768.0
770.0
768.0
772.0
774.0
778.0
781.0
780.0
777.0
775.0
774.0
775.0
776.0
783.0
782.0
781.0
783.0
783.0
785.0
788.0
787.0
785.0
788.0
786.0
787.0
792.0
790.0
789.0
791.0
795.0
796.0
793.0
792.0
790.0
789.0
786.0
785.0
780.0
778.0
779.0
781.0
783.0
786.0
788.0
785.0
783.0
781.0
778.0
776.0
776.0
775.0
776.0
780.0
781.0
785.0
783.0
783.0
781.0
778.0
776.0
774.0
769.0
772.0
775.0
780.0
781.0
784.0
785.0
780.0
775.0
774.0
772.0
768.0
767.0
771.0
775.0
778.0
779.0
781.0
781.0
779.0
777.0
775.0
773.0
773.0
781.0
785.0
789.0
794.0
796.0
800.0
799.0
797.0
795.0
793.0
792.0
793.0
796.0
799.0
800.0
806.0
810.0
814.0
817.0
816.0
815.0
812.0
811.0
807.0
806.0
805.0
808.0
811.0
811.0
810.0
804.0
796.0
792.0
784.0
777.0
774.0
770.0
768.0
768.0
768.0
772.0
772.0
772.0
773.0
770.0
768.0
770.0
766.0
768.0
774.0
775.0
778.0
776.0
773.0
769.0
766.0
769.0
777.0
792.0
815.0
852.0
911.0
982.0
1065.0
1167.0
1265.0
1358.0
1432.0
1483.0
1505.0
1503.0
1478.0
1429.0
1334.0
1206.0
1078.0
950.0
822.0
694.0
667.0
717.0
779.0
826.0
852.0
852.0
834.0
813.0
795.0
784.0
775.0
776.0
778.0
781.0
779.0
779.0
780.0
779.0
781.0
783.0
784.0
785.0
786.0
784.0
786.0
784.0
785.0
780.0
783.0
783.0
786.0
790.0
794.0
797.0
800.0
800.0
800.0
800.0
800.0
799.0
801.0
805.0
807.0
812.0
813.0
813.0
815.0
813.0
818.0
822.0
825.0
827.0
830.0
830.0
837.0
843.0
849.0
855.0
860.0
865.0
865.0
869.0
875.0
882.0
886.0
887.0
893.0
902.0
907.0
914.0
916.0
920.0
922.0
924.0
926.0
931.0
932.0
934.0
939.0
938.0
940.0
941.0
940.0
937.0
935.0
932.0
927.0
922.0
915.0
910.0
904.0
900.0
894.0
886.0
875.0
865.0
855.0
847.0
837.0
831.0
825.0
819.0
815.0
814.0
812.0
812.0
810.0
805.0
799.0
795.0
795.0
793.0
787.0
786.0
787.0
789.0
792.0
792.0
792.0
794.0
794.0
792.0
790.0
787.0
786.0
785.0
788.0
789.0
791.0
791.0
792.0
794.0
797.0
800.0
801.0
800.0
798.0
798.0
798.0
799.0
803.0
804.0
805.0
804.0
806.0
805.0
801.0
801.0
801.0
800.0
798.0
793.0
798.0
800.0
804.0
802.0
803.0
802.0
801.0
798.0
796.0
795.0
795.0
793.0
796.0
797.0
795.0
795.0
793.0
791.0
788.0
784.0
781.0
782.0
783.0
788.0
786.0
790.0
789.0
787.0
789.0
783.0
786.0
783.0
780.0
781.0
782.0
783.0
784.0
787.0
788.0
790.0
788.0
784.0
783.0
776.0
779.0
778.0
776.0
778.0
784.0
786.0
785.0
784.0
785.0
783.0
783.0
783.0
784.0
787.0
791.0
797.0
803.0
808.0
809.0
809.0
810.0
808.0
804.0
803.0
802.0
802.0
805.0
812.0
817.0
823.0
825.0
824.0
824.0
821.0
817.0
813.0
813.0
815.0
814.0
812.0
809.0
808.0
810.0
809.0
806.0
798.0
792.0
783.0
779.0
773.0
768.0
772.0
775.0
779.0
781.0
779.0
776.0
769.0
766.0
767.0
763.0
768.0
773.0
772.0
774.0
778.0
782.0
786.0
795.0
814.0
842.0
896.0
963.0
1046.0
1134.0
1230.0
1319.0
1404.0
1465.0
1499.0
1507.0
1489.0
1439.0
1348.0
1220.0
1092.0
964.0
836.0
708.0
705.0
757.0
810.0
848.0
856.0
844.0
825.0
801.0
784.0
776.0
773.0
778.0
784.0
787.0
787.0
787.0
782.0
777.0
778.0
778.0
780.0
783.0
785.0
788.0
793.0
795.0
795.0
794.0
789.0
785.0
783.0
785.0
786.0
790.0
796.0
800.0
802.0
804.0
805.0
802.0
801.0
801.0
803.0
805.0
809.0
812.0
819.0
820.0
828.0
829.0
833.0
833.0
836.0
839.0
838.0
841.0
845.0
851.0
856.0
860.0
871.0
877.0
879.0
885.0
886.0
890.0
890.0
895.0
900.0
907.0
914.0
923.0
927.0
930.0
931.0
933.0
931.0
933.0
929.0
927.0
927.0
924.0
927.0
926.0
926.0
917.0
912.0
901.0
896.0
889.0
878.0
869.0
859.0
850.0
845.0
837.0
833.0
824.0
821.0
815.0
807.0
803.0
798.0
794.0
784.0
783.0
785.0
788.0
788.0
784.0
782.0
779.0
777.0
776.0
777.0
777.0
776.0
776.0
775.0
777.0
778.0
778.0
781.0
781.0
780.0
778.0
780.0
777.0
779.0
780.0
786.0
788.0
787.0
784.0
783.0
783.0
783.0
783.0
788.0
785.0
787.0
786.0
790.0
787.0
791.0
789.0
785.0
784.0
781.0
779.0
776.0
773.0
774.0
777.0
781.0
781.0
782.0
780.0
778.0
778.0
780.0
779.0
777.0
776.0
775.0
773.0
773.0
777.0
776.0
778.0
777.0
780.0
775.0
775.0
774.0
772.0
769.0
771.0
772.0
775.0
775.0
774.0
772.0
773.0
770.0
772.0
774.0
771.0
769.0
768.0
767.0
769.0
773.0
775.0
776.0
777.0
777.0
773.0
770.0
767.0
769.0
768.0
777.0
781.0
788.0
791.0
791.0
795.0
791.0
789.0
790.0
789.0
787.0
790.0
795.0
796.0
804.0
806.0
807.0
810.0
806.0
808.0
804.0
799.0
796.0
792.0
792.0
792.0
792.0
792.0
789.0
781.0
776.0
767.0
761.0
756.0
752.0
752.0
749.0
752.0
753.0
758.0
757.0
756.0
752.0
749.0
751.0
744.0
746.0
749.0
754.0
756.0
759.0
757.0
760.0
763.0
771.0
781.0
810.0
847.0
904.0
976.0
1063.0
1162.0
1268.0
1367.0
1445.0
1490.0
1491.0
1441.0
1323.0
1195.0
1067.0
939.0
811.0
683.0
676.0
741.0
795.0
831.0
839.0
828.0
806.0
786.0
769.0
763.0
765.0
770.0
777.0
779.0
779.0
779.0
775.0
774.0
775.0
778.0
780.0
783.0
785.0
787.0
790.0
789.0
789.0
790.0
791.0
793.0
795.0
795.0
797.0
797.0
800.0
800.0
805.0
808.0
812.0
815.0
813.0
813.0
816.0
816.0
818.0
826.0
831.0
837.0
844.0
843.0
847.0
846.0
853.0
858.0
865.0
870.0
876.0
886.0
892.0
899.0
907.0
914.0
916.0
917.0
919.0
920.0
921.0
921.0
925.0
927.0
931.0
934.0
935.0
936.0
935.0
932.0
922.0
916.0
908.0
897.0
886.0
877.0
871.0
864.0
858.0
854.0
849.0
844.0
835.0
826.0
818.0
810.0
805.0
801.0
800.0
799.0
796.0
793.0
791.0
791.0
787.0
788.0
790.0
791.0
789.0
789.0
791.0
790.0
792.0
790.0
791.0
791.0
789.0
790.0
791.0
788.0
793.0
796.0
798.0
795.0
797.0
800.0
799.0
798.0
800.0
799.0
795.0
795.0
797.0
796.0
799.0
799.0
801.0
800.0
802.0
803.0
803.0
799.0
798.0
795.0
792.0
790.0
792.0
796.0
800.0
800.0
798.0
796.0
793.0
790.0
790.0
790.0
788.0
790.0
790.0
790.0
791.0
791.0
788.0
790.0
789.0
786.0
786.0
783.0
783.0
785.0
784.0
785.0
787.0
789.0
788.0
787.0
784.0
781.0
783.0
782.0
783.0
784.0
785.0
786.0
788.0
786.0
783.0
780.0
781.0
779.0
780.0
776.0
778.0
777.0
778.0
779.0
785.0
783.0
782.0
783.0
786.0
787.0
788.0
791.0
793.0
800.0
803.0
805.0
805.0
803.0
805.0
803.0
802.0
804.0
801.0
804.0
808.0
815.0
820.0
821.0
823.0
824.0
824.0
819.0
815.0
812.0
813.0
808.0
808.0
808.0
807.0
814.0
812.0
811.0
806.0
800.0
792.0
783.0
781.0
776.0
773.0
771.0
773.0
775.0
778.0
781.0
782.0
783.0
779.0
778.0
776.0
779.0
780.0
781.0
782.0
781.0
783.0
783.0
784.0
791.0
802.0
823.0
859.0
908.0
970.0
1038.0
1114.0
1192.0
1276.0
1355.0
1428.0
1480.0
1504.0
1498.0
1452.0
1352.0
1224.0
1096.0
968.0
840.0
712.0
723.0
782.0
836.0
862.0
867.0
852.0
826.0
806.0
789.0
782.0
780.0
788.0
790.0
788.0
791.0
787.0
787.0
785.0
788.0
788.0
787.0
789.0
792.0
797.0
797.0
799.0
797.0
796.0
795.0
793.0
795.0
797.0
798.0
803.0
805.0
810.0
815.0
816.0
815.0
811.0
811.0
813.0
815.0
816.0
820.0
827.0
830.0
836.0
840.0
844.0
848.0
848.0
850.0
852.0
856.0
861.0
868.0
877.0
882.0
891.0
896.0
900.0
905.0
908.0
910.0
914.0
919.0
922.0
929.0
934.0
937.0
940.0
940.0
942.0
939.0
938.0
938.0
935.0
931.0
932.0
928.0
926.0
919.0
917.0
910.0
898.0
884.0
874.0
864.0
858.0
850.0
843.0
837.0
833.0
828.0
826.0
821.0
818.0
811.0
806.0
805.0
799.0
796.0
794.0
792.0
793.0
792.0
794.0
797.0
793.0
791.0
788.0
787.0
786.0
785.0
787.0
785.0
791.0
794.0
795.0
797.0
796.0
795.0
791.0
792.0
791.0
794.0
797.0
799.0
802.0
805.0
805.0
805.0
803.0
803.0
802.0
802.0
801.0
799.0
798.0
799.0
798.0
798.0
802.0
805.0
806.0
802.0
803.0
798.0
795.0
786.0
787.0
788.0
791.0
792.0
795.0
792.0
790.0
786.0
788.0
786.0
787.0
786.0
780.0
780.0
781.0
783.0
784.0
788.0
787.0
784.0
784.0
781.0
777.0
779.0
777.0
781.0
782.0
784.0
786.0
785.0
786.0
788.0
784.0
785.0
784.0
781.0
779.0
780.0
781.0
785.0
783.0
789.0
790.0
788.0
786.0
782.0
781.0
779.0
783.0
784.0
793.0
801.0
808.0
812.0
814.0
813.0
811.0
806.0
803.0
801.0
804.0
805.0
808.0
814.0
820.0
825.0
829.0
829.0
826.0
827.0
821.0
815.0
811.0
808.0
807.0
811.0
818.0
820.0
819.0
815.0
809.0
799.0
793.0
788.0
780.0
778.0
776.0
774.0
776.0
778.0
782.0
783.0
783.0
780.0
777.0
777.0
779.0
779.0
782.0
783.0
782.0
786.0
782.0
781.0
785.0
793.0
808.0
837.0
882.0
944.0
1020.0
1098.0
1177.0
1253.0
1323.0
1392.0
1446.0
1486.0
1506.0
1505.0
1480.0
1427.0
1318.0
1190.0
1062.0
934.0
806.0
691.0
729.0
786.0
832.0
854.0
848.0
830.0
808.0
792.0
785.0
784.0
784.0
786.0
788.0
785.0
784.0
784.0
781.0
783.0
787.0
790.0
791.0
795.0
794.0
795.0
795.0
791.0
788.0
786.0
793.0
795.0
799.0
800.0
801.0
802.0
802.0
804.0
803.0
806.0
805.0
807.0
804.0
810.0
813.0
816.0
823.0
830.0
830.0
834.0
836.0
836.0
836.0
835.0
835.0
836.0
837.0
847.0
851.0
860.0
865.0
868.0
874.0
878.0
877.0
886.0
890.0
897.0
904.0
908.0
916.0
922.0
924.0
919.0
919.0
917.0
913.0
912.0
914.0
916.0
915.0
920.0
923.0
916.0
913.0
903.0
898.0
889.0
877.0
861.0
850.0
842.0
834.0
833.0
826.0
824.0
819.0
810.0
799.0
794.0
792.0
794.0
791.0
788.0
786.0
782.0
779.0
780.0
775.0
772.0
772.0
771.0
771.0
770.0
769.0
767.0
770.0
772.0
776.0
779.0
778.0
777.0
775.0
773.0
770.0
774.0
774.0
774.0
775.0
776.0
776.0
784.0
787.0
787.0
783.0
782.0
778.0
776.0
775.0
774.0
776.0
779.0
780.0
781.0
784.0
786.0
784.0
780.0
778.0
771.0
768.0
769.0
770.0
772.0
774.0
775.0
774.0
772.0
767.0
766.0
764.0
759.0
759.0
758.0
764.0
768.0
769.0
770.0
769.0
769.0
764.0
762.0
756.0
756.0
759.0
758.0
761.0
759.0
760.0
764.0
764.0
765.0
763.0
763.0
760.0
754.0
753.0
752.0
756.0
758.0
757.0
759.0
757.0
754.0
755.0
752.0
750.0
749.0
749.0
743.0
743.0
744.0
751.0
758.0
766.0
771.0
774.0
774.0
771.0
769.0
767.0
769.0
771.0
775.0
776.0
779.0
780.0
783.0
784.0
784.0
779.0
779.0
787.0
787.0
790.0
790.0
791.0
792.0
788.0
787.0
781.0
777.0
774.0
772.0
767.0
764.0
761.0
757.0
754.0
751.0
748.0
746.0
742.0
744.0
743.0
746.0
743.0
743.0
746.0
748.0
751.0
753.0
749.0
751.0
749.0
745.0
748.0
748.0
752.0
764.0
790.0
832.0
893.0
975.0
1070.0
1172.0
1276.0
1369.0
1442.0
1487.0
1505.0
1502.0
1481.0
1445.0
1367.0
1244.0
1116.0
988.0
860.0
732.0
657.0
689.0
743.0
787.0
814.0
816.0
806.0
791.0
773.0
759.0
752.0
749.0
752.0
753.0
757.0
753.0
751.0
748.0
750.0
751.0
752.0
754.0
757.0
761.0
758.0
758.0
758.0
759.0
760.0
762.0
765.0
765.0
765.0
771.0
769.0
772.0
773.0
772.0
772.0
774.0
777.0
778.0
781.0
788.0
789.0
792.0
793.0
794.0
796.0
798.0
798.0
801.0
805.0
808.0
816.0
819.0
827.0
831.0
833.0
834.0
835.0
839.0
844.0
851.0
859.0
864.0
874.0
878.0
885.0
889.0
890.0
889.0
889.0
891.0
893.0
895.0
896.0
901.0
903.0
908.0
908.0
907.0
902.0
896.0
888.0
880.0
873.0
864.0
857.0
847.0
839.0
831.0
822.0
817.0
808.0
805.0
799.0
793.0
788.0
780.0
777.0
771.0
769.0
764.0
765.0
765.0
763.0
759.0
757.0
751.0
754.0
752.0
752.0
751.0
754.0
757.0
757.0
754.0
752.0
754.0
755.0
752.0
751.0
754.0
751.0
754.0
755.0
761.0
760.0
760.0
756.0
757.0
756.0
755.0
753.0
756.0
757.0
761.0
763.0
766.0
765.0
767.0
761.0
760.0
758.0
757.0
751.0
752.0
755.0
758.0
760.0
760.0
760.0
758.0
755.0
750.0
749.0
745.0
746.0
750.0
749.0
748.0
748.0
752.0
753.0
754.0
752.0
751.0
749.0
748.0
744.0
741.0
742.0
742.0
746.0
750.0
752.0
750.0
751.0
747.0
747.0
744.0
743.0
744.0
743.0
743.0
741.0
743.0
745.0
743.0
743.0
737.0
737.0
739.0
738.0
736.0
741.0
746.0
746.0
747.0
750.0
750.0
752.0
751.0
756.0
756.0
761.0
766.0
766.0
769.0
771.0
773.0
769.0
767.0
765.0
768.0
768.0
768.0
774.0
779.0
782.0
784.0
790.0
787.0
785.0
782.0
783.0
779.0
776.0
776.0
773.0
774.0
776.0
777.0
777.0
780.0
775.0
771.0
761.0
755.0
750.0
746.0
743.0
737.0
740.0
743.0
750.0
756.0
756.0
756.0
754.0
753.0
754.0
753.0
755.0
756.0
758.0
756.0
760.0
767.0
776.0
795.0
818.0
858.0
915.0
987.0
1060.0
1140.0
1222.0
1301.0
1374.0
1434.0
1470.0
1477.0
1445.0
1362.0
1234.0
1106.0
978.0
850.0
722.0
668.0
709.0
766.0
811.0
831.0
832.0
816.0
797.0
778.0
767.0
767.0
764.0
769.0
768.0
774.0
777.0
776.0
779.0
778.0
776.0
773.0
774.0
775.0
780.0
783.0
784.0
791.0
790.0
793.0
793.0
793.0
793.0
793.0
794.0
793.0
795.0
799.0
801.0
807.0
809.0
814.0
813.0
815.0
814.0
819.0
822.0
827.0
835.0
839.0
840.0
844.0
847.0
849.0
850.0
856.0
859.0
864.0
866.0
867.0
877.0
885.0
892.0
894.0
901.0
905.0
908.0
909.0
910.0
914.0
920.0
921.0
926.0
930.0
933.0
935.0
935.0
933.0
930.0
926.0
921.0
915.0
912.0
908.0
904.0
897.0
893.0
882.0
874.0
866.0
856.0
846.0
845.0
840.0
832.0
822.0
820.0
815.0
813.0
812.0
809.0
807.0
805.0
802.0
800.0
800.0
797.0
795.0
794.0
795.0
794.0
794.0
796.0
796.0
793.0
795.0
792.0
793.0
791.0
797.0
797.0
800.0
801.0
807.0
809.0
816.0
819.0
823.0
826.0
833.0
837.0
849.0
861.0
877.0
896.0
911.0
927.0
946.0
963.0
982.0
1005.0
1026.0
1045.0
1062.0
1079.0
1094.0
1109.0
1127.0
1150.0
1171.0
1201.0
1234.0
1273.0
1304.0
1332.0
1349.0
1367.0
1375.0
1389.0
1408.0
1435.0
1461.0
1494.0
1517.0
1536.0
1545.0
1546.0
1541.0
1529.0
1516.0
1489.0
1428.0
1322.0
1194.0
1066.0
938.0
810.0
734.0
723.0
730.0
735.0
732.0
722.0
711.0
695.0
685.0
676.0
671.0
669.0
672.0
673.0
675.0
676.0
677.0
676.0
679.0
673.0
670.0
664.0
659.0
652.0
647.0
643.0
645.0
642.0
639.0
638.0
637.0
635.0
632.0
628.0
624.0
621.0
617.0
613.0
608.0
604.0
602.0
599.0
602.0
599.0
595.0
593.0
587.0
581.0
579.0
575.0
570.0
570.0
571.0
573.0
576.0
579.0
583.0
585.0
589.0
592.0
597.0
602.0
611.0
617.0
629.0
638.0
651.0
665.0
677.0
687.0
700.0
709.0
721.0
736.0
750.0
763.0
771.0
780.0
787.0
790.0
794.0
792.0
791.0
793.0
793.0
791.0
787.0
787.0
787.0
786.0
785.0
783.0
784.0
783.0
783.0
783.0
781.0
775.0
775.0
773.0
782.0
781.0
785.0
787.0
783.0
784.0
776.0
774.0
771.0
772.0
772.0
774.0
775.0
781.0
785.0
781.0
781.0
777.0
772.0
771.0
769.0
771.0
769.0
772.0
773.0
776.0
774.0
776.0
776.0
773.0
772.0
772.0
772.0
772.0
771.0
771.0
768.0
768.0
769.0
771.0
770.0
770.0
766.0
767.0
765.0
763.0
761.0
761.0
762.0
766.0
769.0
771.0
771.0
771.0
766.0
764.0
764.0
764.0
763.0
763.0
767.0
766.0
766.0
766.0
768.0
774.0
775.0
777.0
775.0
769.0
765.0
765.0
767.0
771.0
775.0
773.0
774.0
774.0
772.0
769.0
767.0
768.0
769.0
771.0
773.0
772.0
774.0
777.0
775.0
776.0
774.0
772.0
772.0
771.0
770.0
773.0
771.0
774.0
780.0
779.0
777.0
774.0
777.0
774.0
775.0
773.0
769.0
769.0
771.0
774.0
779.0
783.0
785.0
780.0
778.0
776.0
773.0
772.0
771.0
774.0
776.0
778.0
781.0
782.0
781.0
783.0
780.0
778.0
777.0
779.0
780.0
782.0
783.0
781.0
783.0
784.0
784.0
784.0
780.0
782.0
782.0
781.0
780.0
783.0
783.0
786.0
789.0
788.0
785.0
784.0
783.0
783.0
785.0
787.0
785.0
784.0
786.0
784.0
792.0
789.0
790.0
790.0
789.0
786.0
787.0
784.0
785.0
787.0
791.0
793.0
795.0
796.0
793.0
792.0
788.0
789.0
790.0
787.0
787.0
788.0
794.0
794.0
797.0
797.0
795.0
793.0
787.0
787.0
791.0
793.0
789.0
792.0
792.0
794.0
793.0
796.0
796.0
797.0
797.0
798.0
797.0
795.0
798.0
797.0
803.0
813.0
819.0
822.0
824.0
825.0
822.0
821.0
818.0
816.0
817.0
821.0
826.0
829.0
833.0
836.0
838.0
840.0
839.0
838.0
835.0
832.0
829.0
830.0
831.0
832.0
833.0
836.0
835.0
833.0
833.0
828.0
830.0
823.0
818.0
813.0
811.0
809.0
808.0
805.0
800.0
797.0
797.0
797.0
799.0
797.0
796.0
795.0
799.0
797.0
804.0
810.0
807.0
802.0
799.0
805.0
813.0
824.0
848.0
886.0
939.0
1010.0
1095.0
1182.0
1274.0
1365.0
1440.0
1493.0
1524.0
1534.0
1529.0
1510.0
1481.0
1421.0
1317.0
1189.0
1061.0
933.0
805.0
740.0
771.0
822.0
863.0
881.0
881.0
862.0
843.0
823.0
809.0
803.0
801.0
807.0
806.0
807.0
803.0
801.0
801.0
800.0
805.0
807.0
809.0
810.0
811.0
803.0
806.0
800.0
805.0
805.0
806.0
811.0
814.0
817.0
816.0
818.0
818.0
815.0
817.0
818.0
820.0
823.0
827.0
826.0
830.0
830.0
833.0
836.0
838.0
839.0
839.0
841.0
844.0
846.0
854.0
859.0
863.0
865.0
869.0
874.0
876.0
880.0
886.0
887.0
894.0
899.0
908.0
915.0
924.0
927.0
931.0
938.0
940.0
945.0
948.0
956.0
963.0
969.0
975.0
981.0
987.0
992.0
993.0
1001.0
1002.0
1002.0
999.0
1000.0
1001.0
1002.0
1006.0
1002.0
1001.0
996.0
989.0
980.0
968.0
954.0
942.0
933.0
925.0
918.0
911.0
905.0
899.0
894.0
887.0
877.0
870.0
861.0
856.0
847.0
843.0
839.0
842.0
844.0
845.0
846.0
845.0
842.0
837.0
834.0
832.0
831.0
831.0
830.0
831.0
833.0
835.0
835.0
835.0
833.0
825.0
825.0
823.0
822.0
826.0
826.0
829.0
831.0
832.0
830.0
829.0
827.0
826.0
822.0
823.0
820.0
816.0
815.0
815.0
818.0
819.0
818.0
817.0
818.0
816.0
813.0
812.0
810.0
807.0
803.0
804.0
806.0
807.0
809.0
809.0
808.0
808.0
803.0
799.0
794.0
793.0
787.0
786.0
789.0
794.0
799.0
800.0
800.0
795.0
793.0
789.0
787.0
788.0
786.0
788.0
792.0
794.0
790.0
794.0
788.0
787.0
781.0
783.0
785.0
787.0
788.0
789.0
792.0
792.0
794.0
796.0
800.0
801.0
803.0
805.0
804.0
804.0
801.0
803.0
804.0
810.0
812.0
812.0
811.0
816.0
817.0
819.0
819.0
818.0
820.0
820.0
816.0
814.0
814.0
809.0
807.0
807.0
806.0
805.0
804.0
799.0
797.0
792.0
789.0
788.0
785.0
782.0
776.0
776.0
771.0
767.0
769.0
773.0
778.0
779.0
776.0
775.0
780.0
777.0
777.0
779.0
774.0
775.0
773.0
779.0
789.0
806.0
835.0
885.0
953.0
1037.0
1131.0
1227.0
1328.0
1408.0
1471.0
1505.0
1507.0
1478.0
1417.0
1311.0
1183.0
1055.0
927.0
799.0
671.0
684.0
730.0
783.0
825.0
842.0
838.0
826.0
810.0
794.0
789.0
784.0
780.0
779.0
781.0
782.0
782.0
782.0
782.0
779.0
781.0
782.0
782.0
784.0
787.0
789.0
789.0
788.0
790.0
792.0
795.0
795.0
802.0
802.0
804.0
805.0
805.0
802.0
801.0
802.0
803.0
807.0
807.0
818.0
819.0
822.0
823.0
821.0
821.0
823.0
824.0
827.0
834.0
838.0
842.0
847.0
850.0
854.0
857.0
858.0
860.0
864.0
868.0
873.0
878.0
885.0
891.0
898.0
905.0
906.0
906.0
906.0
911.0
910.0
912.0
916.0
917.0
919.0
920.0
921.0
919.0
916.0
913.0
913.0
910.0
904.0
902.0
892.0
886.0
877.0
868.0
862.0
855.0
849.0
843.0
833.0
826.0
821.0
817.0
814.0
813.0
809.0
809.0
805.0
803.0
802.0
799.0
798.0
795.0
793.0
790.0
788.0
789.0
793.0
794.0
796.0
798.0
799.0
797.0
795.0
795.0
794.0
794.0
795.0
795.0
799.0
805.0
817.0
826.0
834.0
845.0
855.0
868.0
881.0
899.0
917.0
941.0
962.0
986.0
1005.0
1023.0
1039.0
1049.0
1058.0
1068.0
1081.0
1097.0
1119.0
1148.0
1185.0
1226.0
1264.0
1297.0
1324.0
1340.0
1352.0
1361.0
1367.0
1376.0
1401.0
1425.0
1454.0
1482.0
1506.0
1517.0
1526.0
1530.0
1517.0
1494.0
1450.0
1376.0
1263.0
1135.0
1007.0
879.0
777.0
742.0
732.0
736.0
741.0
737.0
728.0
716.0
700.0
686.0
681.0
679.0
679.0
684.0
683.0
683.0
682.0
683.0
679.0
678.0
671.0
667.0
665.0
