# Simple Text Format
# Sampling Rate (Hz):= 360.00
# Resolution:= 12
# Labels:= ECG
813.0
813.0
816.0
819.0
818.0
816.0
814.0
814.0
812.0
814.0
817.0
820.0
830.0
849.0
884.0
931.0
989.0
1055.0
1124.0
1196.0
1275.0
1354.0
1429.0
1480.0
1504.0
1486.0
1405.0
1277.0
1149.0
1021.0
893.0
765.0
715.0
771.0
835.0
877.0
893.0
887.0
870.0
848.0
829.0
819.0
818.0
816.0
819.0
818.0
820.0
823.0
824.0
824.0
829.0
830.0
832.0
826.0
830.0
832.0
830.0
831.0
831.0
832.0
834.0
836.0
838.0
838.0
837.0
837.0
837.0
838.0
843.0
845.0
851.0
854.0
857.0
857.0
861.0
859.0
861.0
862.0
869.0
870.0
876.0
878.0
885.0
891.0
895.0
899.0
905.0
911.0
913.0
920.0
920.0
921.0
924.0
929.0
933.0
939.0
945.0
949.0
955.0
955.0
958.0
955.0
956.0
951.0
952.0
954.0
954.0
954.0
956.0
955.0
955.0
949.0
943.0
937.0
925.0
917.0
911.0
907.0
898.0
894.0
888.0
883.0
879.0
875.0
867.0
862.0
855.0
854.0
849.0
843.0
841.0
842.0
844.0
843.0
844.0
844.0
842.0
841.0
836.0
833.0
831.0
829.0
830.0
831.0
835.0
835.0
839.0
842.0
839.0
841.0
841.0
838.0
836.0
842.0
840.0
840.0
842.0
844.0
844.0
846.0
844.0
843.0
844.0
842.0
843.0
847.0
845.0
848.0
849.0
856.0
861.0
869.0
874.0
883.0
885.0
890.0
893.0
900.0
912.0
926.0
940.0
965.0
982.0
993.0
1007.0
1024.0
1047.0
1070.0
1095.0
1123.0
1150.0
1183.0
1216.0
1249.0
1285.0
1319.0
1348.0
1383.0
1416.0
1449.0
1480.0
1507.0
1523.0
1539.0
1547.0
1554.0
1556.0
1552.0
1545.0
1537.0
1521.0
1489.0
1420.0
1300.0
1172.0
1044.0
916.0
831.0
807.0
802.0
797.0
789.0
775.0
758.0
743.0
723.0
713.0
704.0
707.0
711.0
718.0
723.0
726.0
725.0
723.0
716.0
709.0
702.0
697.0
695.0
691.0
691.0
691.0
686.0
685.0
679.0
671.0
668.0
666.0
662.0
660.0
659.0
657.0
656.0
657.0
650.0
649.0
643.0
637.0
629.0
625.0
620.0
617.0
614.0
612.0
609.0
604.0
599.0
594.0
589.0
579.0
573.0
571.0
572.0
573.0
573.0
576.0
579.0
581.0
580.0
574.0
574.0
578.0
582.0
591.0
598.0
606.0
617.0
630.0
642.0
660.0
671.0
683.0
696.0
707.0
718.0
727.0
735.0
742.0
749.0
752.0
761.0
766.0
775.0
775.0
779.0
780.0
779.0
779.0
778.0
781.0
780.0
783.0
787.0
791.0
791.0
790.0
789.0
783.0
783.0
779.0
781.0
777.0
775.0
780.0
783.0
783.0
783.0
782.0
782.0
779.0
780.0
778.0
776.0
778.0
778.0
779.0
781.0
780.0
782.0
779.0
779.0
777.0
774.0
770.0
772.0
768.0
772.0
772.0
776.0
777.0
776.0
780.0
778.0
777.0
774.0
774.0
772.0
771.0
773.0
772.0
776.0
774.0
769.0
769.0
767.0
769.0
768.0
771.0
767.0
769.0
770.0
769.0
771.0
773.0
772.0
773.0
769.0
768.0
767.0
763.0
763.0
765.0
766.0
768.0
774.0
778.0
777.0
776.0
774.0
772.0
769.0
767.0
767.0
767.0
767.0
772.0
774.0
776.0
775.0
776.0
773.0
770.0
769.0
768.0
766.0
767.0
772.0
774.0
776.0
776.0
771.0
772.0
774.0
771.0
769.0
773.0
769.0
769.0
771.0
773.0
776.0
777.0
778.0
777.0
777.0
777.0
771.0
771.0
772.0
773.0
775.0
777.0
780.0
781.0
780.0
779.0
779.0
774.0
772.0
774.0
774.0
775.0
775.0
777.0
782.0
784.0
784.0
784.0
780.0
778.0
776.0
777.0
777.0
776.0
775.0
776.0
781.0
781.0
783.0
783.0
782.0
783.0
782.0
782.0
783.0
784.0
783.0
784.0
785.0
786.0
785.0
783.0
787.0
783.0
778.0
779.0
779.0
783.0
785.0
788.0
792.0
794.0
787.0
787.0
786.0
786.0
783.0
784.0
782.0
783.0
786.0
788.0
790.0
796.0
798.0
795.0
789.0
788.0
787.0
787.0
784.0
787.0
794.0
797.0
799.0
802.0
800.0
799.0
796.0
794.0
792.0
794.0
797.0
806.0
811.0
816.0
823.0
822.0
822.0
822.0
822.0
818.0
816.0
818.0
822.0
825.0
832.0
838.0
842.0
843.0
840.0
834.0
836.0
828.0
826.0
822.0
822.0
824.0
823.0
827.0
827.0
826.0
820.0
817.0
811.0
803.0
800.0
796.0
792.0
792.0
799.0
801.0
805.0
809.0
807.0
809.0
808.0
804.0
801.0
799.0
800.0
801.0
807.0
811.0
825.0
843.0
875.0
915.0
974.0
1043.0
1123.0
1208.0
1296.0
1378.0
1448.0
1488.0
1500.0
1469.0
1385.0
1258.0
1130.0
1002.0
874.0
746.0
683.0
718.0
777.0
827.0
858.0
866.0
857.0
839.0
820.0
809.0
802.0
799.0
801.0
805.0
808.0
810.0
811.0
810.0
807.0
808.0
807.0
808.0
807.0
807.0
807.0
807.0
806.0
812.0
816.0
821.0
826.0
824.0
824.0
821.0
819.0
819.0
818.0
823.0
827.0
830.0
833.0
837.0
841.0
840.0
840.0
842.0
843.0
843.0
845.0
849.0
854.0
858.0
864.0
868.0
871.0
874.0
876.0
876.0
879.0
881.0
884.0
890.0
897.0
904.0
909.0
917.0
918.0
924.0
927.0
931.0
937.0
939.0
938.0
940.0
944.0
948.0
954.0
959.0
963.0
967.0
971.0
972.0
972.0
972.0
971.0
971.0
969.0
975.0
974.0
969.0
965.0
957.0
949.0
942.0
932.0
925.0
918.0
913.0
907.0
905.0
901.0
896.0
889.0
882.0
875.0
863.0
857.0
852.0
845.0
845.0
847.0
846.0
844.0
850.0
847.0
846.0
845.0
840.0
841.0
839.0
841.0
841.0
845.0
847.0
849.0
850.0
850.0
848.0
845.0
844.0
844.0
842.0
845.0
842.0
848.0
848.0
848.0
851.0
851.0
847.0
846.0
845.0
842.0
843.0
839.0
840.0
840.0
841.0
840.0
843.0
844.0
843.0
842.0
838.0
835.0
833.0
830.0
831.0
832.0
836.0
836.0
836.0
835.0
833.0
830.0
826.0
826.0
825.0
824.0
825.0
824.0
822.0
822.0
825.0
827.0
825.0
823.0
820.0
818.0
816.0
815.0
815.0
817.0
819.0
822.0
824.0
825.0
822.0
819.0
817.0
815.0
812.0
812.0
809.0
812.0
813.0
817.0
819.0
817.0
817.0
816.0
815.0
813.0
811.0
812.0
811.0
812.0
813.0
814.0
818.0
817.0
817.0
822.0
822.0
825.0
826.0
833.0
836.0
838.0
838.0
839.0
840.0
844.0
843.0
845.0
845.0
848.0
848.0
849.0
847.0
847.0
845.0
844.0
845.0
845.0
842.0
843.0
839.0
837.0
834.0
832.0
827.0
823.0
818.0
816.0
813.0
811.0
810.0
809.0
808.0
805.0
805.0
804.0
803.0
807.0
807.0
808.0
812.0
809.0
807.0
807.0
807.0
803.0
804.0
801.0
803.0
806.0
813.0
824.0
846.0
873.0
913.0
962.0
1021.0
1084.0
1156.0
1233.0
1315.0
1392.0
1453.0
1488.0
1497.0
1463.0
1382.0
1254.0
1126.0
998.0
870.0
742.0
681.0
726.0
783.0
838.0
869.0
878.0
868.0
848.0
830.0
818.0
812.0
810.0
812.0
816.0
816.0
817.0
818.0
818.0
817.0
815.0
816.0
813.0
817.0
816.0
819.0
822.0
825.0
828.0
831.0
828.0
828.0
829.0
827.0
827.0
829.0
829.0
829.0
830.0
834.0
838.0
843.0
848.0
850.0
849.0
853.0
855.0
855.0
857.0
855.0
855.0
861.0
864.0
873.0
875.0
879.0
878.0
880.0
883.0
886.0
891.0
898.0
904.0
911.0
916.0
920.0
921.0
924.0
925.0
926.0
933.0
934.0
936.0
938.0
940.0
946.0
948.0
953.0
954.0
957.0
955.0
951.0
946.0
946.0
943.0
941.0
937.0
935.0
935.0
929.0
925.0
916.0
910.0
901.0
892.0
885.0
877.0
872.0
865.0
863.0
861.0
857.0
854.0
851.0
848.0
844.0
841.0
836.0
832.0
830.0
830.0
831.0
835.0
836.0
835.0
833.0
830.0
828.0
826.0
825.0
824.0
826.0
825.0
831.0
833.0
833.0
830.0
836.0
834.0
834.0
832.0
835.0
833.0
833.0
836.0
837.0
838.0
842.0
842.0
841.0
838.0
838.0
837.0
835.0
834.0
837.0
838.0
840.0
841.0
843.0
841.0
839.0
838.0
835.0
833.0
834.0
830.0
829.0
830.0
831.0
834.0
835.0
836.0
834.0
834.0
832.0
832.0
831.0
830.0
827.0
824.0
824.0
824.0
830.0
830.0
829.0
831.0
828.0
827.0
825.0
825.0
824.0
827.0
830.0
834.0
840.0
836.0
837.0
835.0
832.0
829.0
827.0
827.0
824.0
826.0
828.0
832.0
834.0
832.0
832.0
832.0
829.0
829.0
830.0
829.0
827.0
830.0
830.0
830.0
833.0
833.0
837.0
839.0
840.0
845.0
846.0
848.0
849.0
848.0
850.0
855.0
859.0
858.0
857.0
856.0
856.0
860.0
860.0
861.0
863.0
869.0
870.0
871.0
872.0
871.0
866.0
864.0
859.0
856.0
852.0
851.0
851.0
850.0
848.0
842.0
841.0
836.0
831.0
828.0
824.0
821.0
824.0
821.0
820.0
820.0
826.0
830.0
832.0
830.0
828.0
825.0
823.0
822.0
820.0
821.0
827.0
834.0
849.0
873.0
913.0
970.0
1040.0
1121.0
1211.0
1302.0
1388.0
1457.0
1506.0
1533.0
1529.0
1500.0
1433.0
1310.0
1182.0
1054.0
926.0
798.0
722.0
761.0
817.0
867.0
895.0
895.0
886.0
864.0
849.0
835.0
831.0
828.0
829.0
830.0
829.0
831.0
830.0
829.0
835.0
835.0
834.0
837.0
839.0
841.0
842.0
840.0
840.0
840.0
841.0
842.0
846.0
847.0
848.0
850.0
848.0
848.0
849.0
849.0
849.0
855.0
858.0
865.0
869.0
873.0
873.0
876.0
877.0
879.0
880.0
878.0
883.0
890.0
892.0
898.0
901.0
905.0
908.0
913.0
913.0
918.0
925.0
928.0
932.0
939.0
945.0
948.0
955.0
961.0
961.0
965.0
964.0
967.0
966.0
968.0
967.0
969.0
971.0
973.0
974.0
974.0
970.0
966.0
961.0
952.0
948.0
940.0
930.0
923.0
912.0
905.0
896.0
892.0
889.0
881.0
874.0
867.0
859.0
853.0
846.0
844.0
844.0
841.0
845.0
839.0
838.0
835.0
835.0
829.0
831.0
828.0
826.0
826.0
828.0
830.0
832.0
830.0
832.0
833.0
828.0
831.0
833.0
831.0
832.0
830.0
830.0
831.0
832.0
836.0
839.0
841.0
842.0
842.0
837.0
838.0
840.0
841.0
846.0
849.0
856.0
863.0
865.0
873.0
885.0
895.0
909.0
921.0
937.0
953.0
969.0
981.0
998.0
1015.0
1036.0
1063.0
1086.0
1107.0
1130.0
1158.0
1187.0
1230.0
1273.0
1317.0
1365.0
1408.0
1448.0
1482.0
1509.0
1527.0
1537.0
1547.0
1551.0
1551.0
1551.0
1549.0
1546.0
1535.0
1514.0
1467.0
1368.0
1240.0
1112.0
984.0
856.0
790.0
782.0
779.0
779.0
773.0
766.0
749.0
730.0
715.0
704.0
698.0
696.0
699.0
706.0
713.0
719.0
722.0
719.0
714.0
708.0
696.0
690.0
684.0
680.0
679.0
680.0
680.0
680.0
675.0
672.0
674.0
668.0
671.0
666.0
660.0
652.0
647.0
645.0
641.0
639.0
637.0
633.0
631.0
629.0
622.0
616.0
608.0
605.0
601.0
600.0
597.0
597.0
594.0
590.0
585.0
581.0
574.0
574.0
578.0
578.0
581.0
585.0
589.0
593.0
600.0
604.0
610.0
616.0
621.0
630.0
637.0
647.0
656.0
669.0
681.0
695.0
709.0
719.0
730.0
739.0
743.0
750.0
756.0
758.0
761.0
766.0
767.0
775.0
777.0
777.0
777.0
774.0
778.0
777.0
778.0
771.0
774.0
777.0
778.0
779.0
779.0
780.0
778.0
776.0
779.0
779.0
781.0
776.0
777.0
777.0
778.0
779.0
778.0
779.0
777.0
776.0
773.0
774.0
773.0
770.0
770.0
774.0
775.0
778.0
779.0
778.0
779.0
772.0
774.0
774.0
773.0
775.0
774.0
777.0
777.0
779.0
778.0
778.0
776.0
776.0
776.0
776.0
775.0
772.0
772.0
775.0
779.0
779.0
783.0
781.0
781.0
776.0
777.0
778.0
777.0
777.0
775.0
778.0
780.0
780.0
784.0
784.0
782.0
781.0
777.0
778.0
778.0
778.0
784.0
784.0
786.0
789.0
791.0
791.0
787.0
789.0
787.0
785.0
784.0
788.0
786.0
787.0
788.0
790.0
791.0
791.0
794.0
794.0
791.0
792.0
792.0
792.0
791.0
795.0
794.0
796.0
799.0
800.0
798.0
798.0
796.0
794.0
794.0
793.0
797.0
799.0
801.0
800.0
804.0
805.0
806.0
804.0
804.0
802.0
801.0
802.0
801.0
804.0
807.0
806.0
812.0
811.0
811.0
811.0
808.0
809.0
807.0
807.0
807.0
804.0
808.0
811.0
814.0
812.0
814.0
816.0
812.0
811.0
811.0
811.0
808.0
813.0
815.0
820.0
821.0
823.0
823.0
820.0
820.0
818.0
820.0
818.0
823.0
824.0
822.0
824.0
821.0
824.0
822.0
817.0
814.0
816.0
818.0
820.0
820.0
824.0
823.0
826.0
825.0
827.0
828.0
825.0
824.0
822.0
823.0
825.0
826.0
825.0
830.0
832.0
833.0
833.0
836.0
832.0
830.0
830.0
827.0
827.0
826.0
828.0
830.0
833.0
835.0
836.0
834.0
835.0
833.0
832.0
832.0
832.0
835.0
837.0
840.0
840.0
846.0
855.0
856.0
856.0
856.0
857.0
853.0
852.0
854.0
858.0
862.0
865.0
871.0
870.0
873.0
872.0
874.0
872.0
872.0
870.0
869.0
870.0
871.0
876.0
878.0
876.0
876.0
871.0
869.0
867.0
865.0
862.0
862.0
859.0
856.0
856.0
849.0
846.0
840.0
835.0
835.0
833.0
837.0
838.0
839.0
839.0
841.0
842.0
845.0
845.0
844.0
843.0
839.0
838.0
839.0
842.0
856.0
875.0
908.0
956.0
1015.0
1084.0
1159.0
1239.0
1323.0
1401.0
1462.0
1506.0
1528.0
1531.0
1505.0
1459.0
1365.0
1237.0
1109.0
981.0
853.0
752.0
758.0
807.0
853.0
892.0
903.0
900.0
888.0
867.0
852.0
840.0
835.0
835.0
838.0
842.0
843.0
847.0
848.0
848.0
848.0
846.0
843.0
838.0
841.0
843.0
843.0
842.0
844.0
845.0
849.0
850.0
854.0
857.0
857.0
858.0
855.0
854.0
853.0
855.0
856.0
858.0
863.0
871.0
874.0
878.0
879.0
883.0
882.0
883.0
882.0
885.0
888.0
893.0
900.0
903.0
906.0
912.0
914.0
914.0
918.0
921.0
926.0
929.0
935.0
942.0
950.0
957.0
960.0
968.0
970.0
974.0
977.0
977.0
983.0
985.0
990.0
994.0
1001.0
1005.0
1008.0
1010.0
1012.0
1011.0
1010.0
1007.0
1005.0
1003.0
1000.0
999.0
994.0
990.0
988.0
985.0
980.0
971.0
965.0
957.0
949.0
941.0
934.0
931.0
926.0
919.0
916.0
908.0
902.0
895.0
889.0
887.0
883.0
878.0
879.0
878.0
876.0
877.0
879.0
874.0
877.0
875.0
874.0
868.0
871.0
868.0
869.0
874.0
878.0
879.0
881.0
880.0
874.0
873.0
874.0
874.0
871.0
872.0
873.0
875.0
873.0
873.0
874.0
873.0
875.0
872.0
871.0
867.0
865.0
865.0
865.0
868.0
868.0
869.0
865.0
867.0
867.0
866.0
865.0
861.0
861.0
861.0
858.0
858.0
858.0
858.0
859.0
854.0
857.0
854.0
850.0
848.0
847.0
843.0
846.0
849.0
852.0
852.0
850.0
850.0
851.0
848.0
848.0
847.0
846.0
845.0
842.0
843.0
845.0
848.0
848.0
845.0
845.0
841.0
841.0
840.0
837.0
838.0
839.0
839.0
838.0
841.0
843.0
843.0
846.0
846.0
846.0
849.0
850.0
852.0
855.0
861.0
862.0
866.0
866.0
867.0
859.0
859.0
859.0
858.0
858.0
861.0
867.0
871.0
877.0
878.0
879.0
878.0
874.0
870.0
866.0
864.0
864.0
863.0
860.0
862.0
857.0
855.0
851.0
848.0
842.0
834.0
831.0
826.0
822.0
822.0
825.0
828.0
826.0
830.0
831.0
825.0
829.0
830.0
825.0
825.0
825.0
824.0
821.0
823.0
825.0
829.0
843.0
862.0
895.0
943.0
1005.0
1076.0
1155.0
1236.0
1321.0
1399.0
1463.0
1501.0
1503.0
1461.0
1357.0
1229.0
1101.0
973.0
845.0
717.0
746.0
803.0
859.0
891.0
900.0
888.0
866.0
845.0
832.0
828.0
827.0
828.0
834.0
836.0
837.0
836.0
837.0
834.0
833.0
831.0
829.0
835.0
836.0
835.0
839.0
841.0
843.0
845.0
849.0
846.0
850.0
847.0
846.0
847.0
844.0
849.0
851.0
854.0
858.0
861.0
863.0
865.0
866.0
866.0
869.0
868.0
871.0
874.0
877.0
880.0
885.0
888.0
894.0
894.0
899.0
902.0
903.0
908.0
911.0
913.0
921.0
928.0
933.0
938.0
944.0
944.0
947.0
949.0
951.0
956.0
956.0
960.0
962.0
968.0
969.0
971.0
972.0
967.0
965.0
967.0
960.0
956.0
951.0
945.0
939.0
940.0
939.0
933.0
931.0
924.0
912.0
904.0
897.0
891.0
882.0
879.0
871.0
869.0
869.0
865.0
864.0
860.0
859.0
852.0
848.0
849.0
845.0
845.0
844.0
846.0
849.0
848.0
850.0
850.0
849.0
848.0
845.0
842.0
843.0
840.0
840.0
842.0
844.0
847.0
848.0
848.0
850.0
849.0
845.0
843.0
844.0
842.0
842.0
846.0
845.0
849.0
850.0
849.0
848.0
845.0
844.0
841.0
842.0
841.0
839.0
843.0
844.0
847.0
848.0
847.0
845.0
842.0
840.0
834.0
830.0
831.0
832.0
835.0
836.0
837.0
836.0
837.0
836.0
834.0
835.0
832.0
831.0
827.0
827.0
828.0
825.0
826.0
830.0
831.0
830.0
829.0
830.0
828.0
824.0
827.0
828.0
831.0
831.0
832.0
831.0
829.0
829.0
827.0
824.0
822.0
818.0
821.0
826.0
829.0
828.0
827.0
830.0
830.0
834.0
838.0
839.0
841.0
842.0
847.0
844.0
844.0
848.0
847.0
848.0
852.0
853.0
854.0
855.0
854.0
857.0
859.0
857.0
858.0
860.0
857.0
857.0
855.0
851.0
846.0
848.0
843.0
840.0
838.0
835.0
828.0
824.0
822.0
821.0
815.0
816.0
812.0
813.0
814.0
814.0
813.0
811.0
813.0
812.0
817.0
819.0
819.0
820.0
818.0
816.0
815.0
818.0
825.0
841.0
871.0
910.0
963.0
1030.0
1110.0
1194.0
1284.0
1371.0
1440.0
1486.0
1502.0
1480.0
1406.0
1278.0
1150.0
1022.0
894.0
766.0
708.0
754.0
812.0
852.0
870.0
869.0
855.0
836.0
824.0
816.0
811.0
813.0
814.0
815.0
816.0
816.0
817.0
815.0
817.0
820.0
819.0
827.0
823.0
825.0
822.0
822.0
823.0
825.0
826.0
829.0
830.0
831.0
836.0
836.0
834.0
833.0
832.0
836.0
832.0
835.0
835.0
838.0
842.0
844.0
850.0
856.0
860.0
862.0
865.0
865.0
866.0
865.0
865.0
870.0
872.0
878.0
879.0
885.0
892.0
898.0
902.0
905.0
908.0
912.0
913.0
920.0
926.0
931.0
938.0
942.0
943.0
945.0
944.0
945.0
943.0
944.0
943.0
948.0
952.0
950.0
952.0
950.0
947.0
946.0
939.0
930.0
922.0
912.0
904.0
895.0
889.0
882.0
877.0
874.0
869.0
862.0
855.0
850.0
841.0
838.0
833.0
833.0
831.0
829.0
828.0
826.0
824.0
820.0
818.0
815.0
812.0
815.0
813.0
813.0
814.0
816.0
821.0
826.0
826.0
830.0
829.0
824.0
819.0
817.0
819.0
818.0
826.0
830.0
838.0
845.0
849.0
850.0
858.0
866.0
875.0
884.0
896.0
910.0
924.0
942.0
957.0
975.0
992.0
1011.0
1030.0
1050.0
1067.0
1087.0
1102.0
1121.0
1144.0
1173.0
1202.0
1235.0
1265.0
1291.0
1309.0
1316.0
1326.0
1333.0
1344.0
1355.0
1373.0
1398.0
1431.0
1466.0
1492.0
1513.0
1524.0
1522.0
1505.0
1472.0
1415.0
1330.0
1222.0
1094.0
967.0
867.0
803.0
770.0
760.0
759.0
760.0
756.0
744.0
736.0
723.0
711.0
707.0
707.0
708.0
709.0
709.0
706.0
706.0
709.0
705.0
705.0
704.0
701.0
700.0
697.0
691.0
688.0
682.0
678.0
676.0
672.0
671.0
669.0
670.0
666.0
665.0
666.0
664.0
658.0
651.0
644.0
636.0
634.0
629.0
625.0
624.0
623.0
620.0
622.0
620.0
618.0
617.0
613.0
609.0
608.0
608.0
610.0
617.0
622.0
629.0
636.0
645.0
651.0
658.0
667.0
671.0
683.0
693.0
702.0
711.0
721.0
736.0
746.0
758.0
768.0
776.0
781.0
789.0
796.0
800.0
804.0
809.0
811.0
816.0
818.0
820.0
818.0
815.0
814.0
810.0
811.0
807.0
807.0
811.0
812.0
812.0
816.0
817.0
817.0
817.0
819.0
817.0
818.0
815.0
814.0
816.0
812.0
814.0
815.0
811.0
811.0
809.0
806.0
805.0
800.0
804.0
804.0
805.0
807.0
810.0
810.0
809.0
806.0
805.0
803.0
801.0
801.0
801.0
801.0
804.0
804.0
807.0
812.0
811.0
811.0
807.0
804.0
801.0
799.0
795.0
793.0
798.0
798.0
798.0
802.0
801.0
801.0
801.0
797.0
797.0
794.0
793.0
801.0
799.0
804.0
805.0
807.0
805.0
801.0
802.0
799.0
797.0
798.0
798.0
800.0
803.0
803.0
807.0
806.0
805.0
805.0
803.0
803.0
805.0
800.0
797.0
796.0
799.0
800.0
805.0
802.0
806.0
809.0
809.0
808.0
804.0
801.0
801.0
802.0
804.0
807.0
811.0
812.0
811.0
808.0
807.0
806.0
804.0
804.0
801.0
801.0
801.0
804.0
806.0
808.0
807.0
811.0
809.0
805.0
803.0
799.0
798.0
803.0
807.0
807.0
807.0
812.0
813.0
814.0
809.0
807.0
803.0
804.0
805.0
807.0
807.0
808.0
809.0
812.0
814.0
810.0
811.0
808.0
808.0
808.0
805.0
805.0
807.0
809.0
810.0
810.0
809.0
809.0
811.0
812.0
810.0
811.0
810.0
809.0
810.0
811.0
811.0
812.0
817.0
819.0
817.0
815.0
810.0
808.0
810.0
810.0
813.0
814.0
815.0
819.0
820.0
817.0
817.0
818.0
816.0
814.0
813.0
815.0
817.0
816.0
819.0
823.0
820.0
819.0
820.0
819.0
817.0
817.0
817.0
818.0
818.0
821.0
823.0
823.0
824.0
820.0
820.0
822.0
821.0
822.0
824.0
826.0
830.0
835.0
837.0
846.0
849.0
851.0
849.0
848.0
844.0
844.0
843.0
842.0
845.0
846.0
853.0
859.0
863.0
866.0
867.0
865.0
860.0
856.0
853.0
854.0
856.0
854.0
856.0
858.0
851.0
848.0
846.0
839.0
834.0
832.0
831.0
829.0
827.0
826.0
825.0
828.0
825.0
825.0
823.0
819.0
815.0
816.0
816.0
817.0
820.0
821.0
821.0
826.0
830.0
836.0
844.0
866.0
900.0
949.0
1008.0
1078.0
1163.0
1256.0
1346.0
1425.0
1479.0
1506.0
1503.0
1462.0
1376.0
1248.0
1120.0
992.0
864.0
736.0
724.0
769.0
827.0
870.0
889.0
888.0
870.0
847.0
831.0
822.0
821.0
823.0
825.0
830.0
830.0
825.0
823.0
820.0
825.0
827.0
824.0
821.0
826.0
826.0
829.0
832.0
831.0
833.0
831.0
833.0
830.0
833.0
835.0
835.0
839.0
843.0
845.0
852.0
856.0
855.0
856.0
854.0
858.0
857.0
858.0
862.0
868.0
873.0
876.0
883.0
890.0
889.0
891.0
891.0
895.0
897.0
898.0
903.0
909.0
915.0
921.0
930.0
936.0
941.0
945.0
948.0
953.0
955.0
959.0
962.0
968.0
974.0
975.0
980.0
982.0
985.0
985.0
989.0
990.0
994.0
993.0
996.0
995.0
996.0
994.0
998.0
989.0
986.0
979.0
969.0
963.0
954.0
946.0
938.0
929.0
927.0
921.0
916.0
912.0
904.0
899.0
890.0
887.0
880.0
875.0
871.0
866.0
868.0
869.0
867.0
869.0
865.0
861.0
861.0
858.0
857.0
852.0
852.0
856.0
860.0
862.0
866.0
861.0
860.0
863.0
859.0
858.0
856.0
853.0
850.0
853.0
859.0
860.0
859.0
859.0
860.0
858.0
856.0
851.0
850.0
849.0
848.0
849.0
849.0
849.0
849.0
846.0
848.0
845.0
841.0
844.0
843.0
840.0
839.0
837.0
836.0
839.0
840.0
840.0
840.0
837.0
834.0
832.0
829.0
826.0
822.0
826.0
824.0
829.0
830.0
829.0
828.0
825.0
824.0
821.0
820.0
816.0
815.0
818.0
820.0
821.0
824.0
823.0
819.0
817.0
815.0
810.0
813.0
808.0
810.0
812.0
815.0
817.0
818.0
816.0
816.0
817.0
811.0
812.0
813.0
815.0
817.0
825.0
831.0
836.0
837.0
838.0
840.0
838.0
831.0
831.0
834.0
835.0
837.0
845.0
847.0
851.0
855.0
851.0
850.0
845.0
839.0
833.0
830.0
828.0
827.0
830.0
830.0
828.0
829.0
824.0
819.0
811.0
801.0
798.0
792.0
790.0
789.0
792.0
795.0
798.0
802.0
803.0
804.0
803.0
803.0
799.0
797.0
794.0
790.0
792.0
792.0
798.0
803.0
807.0
818.0
838.0
866.0
912.0
971.0
1045.0
1125.0
1217.0
1304.0
1383.0
1442.0
1474.0
1471.0
1422.0
1323.0
1195.0
1067.0
939.0
811.0
683.0
685.0
736.0
796.0
838.0
856.0
855.0
839.0
821.0
808.0
797.0
792.0
795.0
798.0
799.0
803.0
799.0
799.0
797.0
798.0
797.0
796.0
798.0
802.0
806.0
808.0
808.0
808.0
807.0
809.0
803.0
804.0
806.0
805.0
807.0
808.0
808.0
815.0
818.0
823.0
826.0
824.0
827.0
824.0
824.0
821.0
822.0
822.0
829.0
832.0
837.0
840.0
844.0
847.0
849.0
852.0
852.0
855.0
856.0
859.0
864.0
869.0
876.0
886.0
890.0
891.0
893.0
896.0
897.0
902.0
906.0
910.0
914.0
919.0
920.0
923.0
924.0
925.0
926.0
926.0
925.0
924.0
921.0
920.0
914.0
910.0
911.0
908.0
904.0
896.0
890.0
882.0
871.0
864.0
849.0
842.0
837.0
831.0
827.0
823.0
819.0
812.0
811.0
811.0
807.0
804.0
802.0
800.0
798.0
797.0
797.0
804.0
803.0
797.0
794.0
795.0
794.0
791.0
790.0
789.0
792.0
795.0
795.0
798.0
797.0
795.0
795.0
795.0
792.0
796.0
793.0
793.0
794.0
797.0
798.0
802.0
800.0
797.0
799.0
797.0
796.0
795.0
793.0
792.0
794.0
793.0
795.0
800.0
799.0
799.0
797.0
797.0
791.0
790.0
789.0
789.0
788.0
789.0
791.0
795.0
795.0
791.0
790.0
785.0
781.0
783.0
781.0
783.0
783.0
785.0
787.0
791.0
789.0
788.0
787.0
783.0
785.0
785.0
784.0
781.0
778.0
782.0
782.0
787.0
786.0
784.0
787.0
784.0
784.0
782.0
783.0
783.0
784.0
784.0
786.0
788.0
789.0
786.0
786.0
785.0
786.0
790.0
793.0
800.0
804.0
805.0
806.0
809.0
807.0
805.0
804.0
803.0
804.0
811.0
812.0
813.0
818.0
824.0
822.0
824.0
824.0
822.0
815.0
812.0
809.0
808.0
806.0
807.0
808.0
809.0
806.0
806.0
803.0
795.0
790.0
782.0
777.0
772.0
775.0
776.0
780.0
782.0
783.0
787.0
785.0
783.0
784.0
782.0
784.0
785.0
783.0
785.0
783.0
786.0
790.0
805.0
824.0
858.0
903.0
960.0
1027.0
1103.0
1181.0
1261.0
1333.0
1401.0
1446.0
1469.0
1456.0
1396.0
1283.0
1155.0
1027.0
899.0
771.0
664.0
694.0
749.0
799.0
835.0
845.0
839.0
823.0
804.0
791.0
786.0
785.0
785.0
788.0
790.0
793.0
796.0
795.0
793.0
794.0
791.0
793.0
794.0
794.0
791.0
795.0
802.0
804.0
808.0
807.0
809.0
805.0
805.0
802.0
809.0
806.0
804.0
808.0
810.0
817.0
822.0
824.0
826.0
831.0
831.0
829.0
831.0
830.0
833.0
837.0
844.0
848.0
857.0
862.0
865.0
868.0
868.0
871.0
873.0
870.0
879.0
883.0
891.0
896.0
908.0
914.0
919.0
921.0
925.0
927.0
927.0
929.0
931.0
933.0
933.0
933.0
936.0
933.0
930.0
928.0
924.0
920.0
915.0
909.0
898.0
890.0
886.0
880.0
874.0
868.0
860.0
852.0
846.0
836.0
829.0
822.0
816.0
815.0
814.0
815.0
814.0
813.0
811.0
809.0
807.0
806.0
800.0
799.0
794.0
794.0
797.0
801.0
802.0
800.0
798.0
796.0
794.0
793.0
800.0
797.0
795.0
795.0
797.0
801.0
805.0
805.0
806.0
805.0
805.0
804.0
802.0
802.0
800.0
801.0
805.0
806.0
810.0
809.0
809.0
810.0
806.0
806.0
805.0
803.0
801.0
803.0
803.0
805.0
806.0
805.0
805.0
804.0
799.0
797.0
797.0
796.0
793.0
792.0
792.0
792.0
797.0
797.0
796.0
796.0
788.0
787.0
789.0
786.0
788.0
788.0
789.0
791.0
789.0
792.0
792.0
790.0
789.0
786.0
784.0
782.0
780.0
782.0
784.0
787.0
791.0
790.0
791.0
789.0
786.0
782.0
782.0
779.0
779.0
778.0
780.0
781.0
787.0
787.0
792.0
790.0
789.0
788.0
789.0
791.0
793.0
797.0
803.0
805.0
808.0
810.0
809.0
806.0
803.0
805.0
804.0
811.0
812.0
818.0
818.0
819.0
819.0
817.0
813.0
808.0
805.0
800.0
801.0
798.0
798.0
