# Simple Text Format
# Sampling Rate (Hz):= 360.00
# Resolution:= 12
# Labels:= ECG
783.0
780.0
780.0
778.0
780.0
782.0
785.0
788.0
789.0
790.0
792.0
789.0
786.0
786.0
786.0
787.0
786.0
789.0
792.0
794.0
795.0
797.0
793.0
791.0
787.0
785.0
787.0
786.0
787.0
790.0
791.0
794.0
797.0
799.0
800.0
801.0
805.0
807.0
810.0
810.0
815.0
815.0
819.0
821.0
823.0
822.0
825.0
827.0
825.0
831.0
832.0
833.0
836.0
836.0
835.0
837.0
835.0
834.0
832.0
827.0
826.0
826.0
822.0
821.0
815.0
813.0
809.0
804.0
802.0
796.0
793.0
792.0
787.0
788.0
790.0
787.0
791.0
795.0
797.0
801.0
800.0
801.0
796.0
796.0
798.0
804.0
816.0
837.0
871.0
919.0
976.0
1044.0
1116.0
1188.0
1269.0
1349.0
1425.0
1483.0
1520.0
1524.0
1500.0
1430.0
1311.0
1183.0
1055.0
927.0
799.0
721.0
762.0
815.0
859.0
875.0
871.0
855.0
835.0
812.0
804.0
798.0
795.0
793.0
796.0
794.0
793.0
790.0
794.0
795.0
798.0
800.0
802.0
805.0
802.0
803.0
802.0
798.0
799.0
802.0
802.0
807.0
807.0
810.0
815.0
814.0
815.0
811.0
810.0
813.0
815.0
818.0
822.0
824.0
826.0
829.0
833.0
837.0
841.0
842.0
841.0
842.0
845.0
850.0
849.0
857.0
862.0
869.0
874.0
877.0
881.0
882.0
884.0
888.0
895.0
898.0
905.0
915.0
921.0
929.0
938.0
941.0
947.0
950.0
953.0
953.0
958.0
960.0
963.0
968.0
975.0
982.0
990.0
995.0
999.0
998.0
999.0
998.0
998.0
995.0
990.0
986.0
977.0
977.0
970.0
962.0
952.0
944.0
936.0
923.0
915.0
907.0
900.0
896.0
890.0
884.0
877.0
868.0
857.0
852.0
845.0
839.0
837.0
834.0
832.0
831.0
831.0
830.0
832.0
832.0
829.0
827.0
825.0
824.0
820.0
820.0
818.0
821.0
821.0
822.0
824.0
824.0
825.0
824.0
823.0
819.0
819.0
818.0
818.0
820.0
823.0
822.0
828.0
826.0
824.0
821.0
816.0
813.0
808.0
805.0
807.0
809.0
812.0
814.0
816.0
814.0
812.0
809.0
806.0
805.0
804.0
802.0
801.0
798.0
797.0
796.0
798.0
799.0
803.0
800.0
795.0
792.0
790.0
788.0
785.0
783.0
786.0
787.0
788.0
791.0
790.0
786.0
782.0
783.0
778.0
781.0
779.0
781.0
781.0
783.0
784.0
781.0
779.0
780.0
777.0
776.0
774.0
775.0
775.0
775.0
778.0
777.0
780.0
779.0
780.0
779.0
779.0
780.0
781.0
786.0
791.0
795.0
797.0
798.0
799.0
798.0
795.0
794.0
791.0
795.0
798.0
800.0
800.0
810.0
811.0
815.0
819.0
818.0
815.0
809.0
806.0
799.0
794.0
794.0
788.0
794.0
790.0
789.0
784.0
779.0
775.0
771.0
762.0
760.0
761.0
758.0
761.0
765.0
768.0
765.0
766.0
763.0
766.0
765.0
761.0
761.0
758.0
756.0
760.0
763.0
766.0
775.0
792.0
813.0
848.0
891.0
949.0
1016.0
1086.0
1165.0
1249.0
1339.0
1420.0
1479.0
1500.0
1485.0
1419.0
1291.0
1163.0
1035.0
907.0
779.0
655.0
696.0
758.0
806.0
833.0
835.0
820.0
798.0
777.0
761.0
754.0
756.0
758.0
760.0
762.0
765.0
767.0
769.0
766.0
765.0
765.0
764.0
764.0
766.0
769.0
768.0
774.0
775.0
781.0
782.0
783.0
781.0
778.0
777.0
778.0
778.0
779.0
783.0
787.0
792.0
791.0
797.0
803.0
801.0
803.0
803.0
804.0
804.0
807.0
811.0
816.0
820.0
826.0
834.0
834.0
837.0
841.0
846.0
848.0
852.0
857.0
862.0
871.0
877.0
881.0
886.0
888.0
888.0
890.0
894.0
898.0
899.0
901.0
903.0
905.0
904.0
907.0
909.0
906.0
905.0
903.0
897.0
891.0
883.0
877.0
873.0
867.0
864.0
864.0
856.0
849.0
840.0
831.0
822.0
812.0
806.0
797.0
793.0
790.0
787.0
787.0
784.0
779.0
777.0
772.0
768.0
765.0
765.0
763.0
764.0
770.0
774.0
775.0
775.0
774.0
769.0
765.0
765.0
763.0
760.0
765.0
768.0
770.0
774.0
776.0
774.0
775.0
773.0
772.0
770.0
770.0
771.0
772.0
773.0
774.0
773.0
777.0
777.0
775.0
775.0
772.0
770.0
771.0
769.0
769.0
768.0
771.0
769.0
771.0
775.0
774.0
772.0
772.0
772.0
769.0
766.0
766.0
768.0
767.0
770.0
772.0
774.0
771.0
769.0
766.0
763.0
765.0
766.0
763.0
765.0
764.0
771.0
772.0
770.0
772.0
768.0
764.0
767.0
765.0
767.0
764.0
765.0
769.0
770.0
771.0
769.0
769.0
766.0
764.0
766.0
766.0
764.0
763.0
767.0
764.0
765.0
769.0
772.0
771.0
772.0
767.0
772.0
772.0
772.0
777.0
781.0
788.0
793.0
794.0
797.0
794.0
794.0
790.0
790.0
790.0
790.0
793.0
799.0
804.0
811.0
816.0
818.0
815.0
812.0
806.0
805.0
805.0
800.0
796.0
799.0
801.0
801.0
804.0
799.0
793.0
790.0
782.0
776.0
771.0
764.0
761.0
762.0
763.0
766.0
771.0
773.0
774.0
773.0
768.0
769.0
767.0
767.0
768.0
767.0
769.0
770.0
775.0
782.0
799.0
823.0
861.0
923.0
1004.0
1092.0
1191.0
1292.0
1384.0
1459.0
1506.0
1515.0
1492.0
1418.0
1293.0
1165.0
1037.0
909.0
781.0
653.0
645.0
705.0
773.0
825.0
847.0
845.0
826.0
802.0
783.0
770.0
767.0
772.0
775.0
781.0
787.0
789.0
790.0
787.0
782.0
783.0
784.0
784.0
785.0
786.0
787.0
791.0
793.0
795.0
795.0
797.0
798.0
800.0
802.0
800.0
801.0
802.0
806.0
809.0
815.0
815.0
820.0
825.0
825.0
825.0
826.0
827.0
829.0
835.0
840.0
846.0
853.0
857.0
863.0
868.0
871.0
876.0
880.0
886.0
890.0
897.0
902.0
910.0
915.0
921.0
924.0
927.0
931.0
931.0
936.0
936.0
939.0
940.0
949.0
951.0
954.0
952.0
949.0
950.0
941.0
935.0
934.0
925.0
919.0
913.0
907.0
898.0
892.0
881.0
878.0
870.0
863.0
851.0
843.0
840.0
831.0
825.0
823.0
821.0
819.0
817.0
814.0
812.0
810.0
806.0
803.0
799.0
801.0
803.0
803.0
806.0
808.0
807.0
807.0
806.0
807.0
805.0
806.0
806.0
804.0
806.0
808.0
809.0
813.0
815.0
820.0
820.0
821.0
821.0
822.0
820.0
819.0
820.0
822.0
825.0
833.0
838.0
847.0
855.0
861.0
873.0
883.0
893.0
906.0
920.0
941.0
957.0
975.0
991.0
1008.0
1028.0
1051.0
1076.0
1105.0
1136.0
1169.0
1213.0
1260.0
1304.0
1348.0
1390.0
1425.0
1460.0
1489.0
1512.0
1531.0
1540.0
1546.0
1552.0
1555.0
1553.0
1551.0
1547.0
1538.0
1523.0
1498.0
1446.0
1348.0
1220.0
1092.0
964.0
838.0
803.0
792.0
791.0
785.0
775.0
758.0
738.0
714.0
693.0
680.0
675.0
674.0
678.0
684.0
690.0
693.0
693.0
687.0
680.0
672.0
664.0
659.0
655.0
659.0
658.0
659.0
657.0
653.0
648.0
642.0
635.0
630.0
625.0
621.0
618.0
620.0
617.0
614.0
611.0
602.0
597.0
591.0
583.0
579.0
574.0
570.0
569.0
567.0
565.0
564.0
560.0
553.0
546.0
537.0
531.0
528.0
522.0
519.0
518.0
521.0
524.0
528.0
529.0
529.0
533.0
533.0
537.0
541.0
550.0
559.0
571.0
582.0
594.0
604.0
610.0
620.0
623.0
640.0
654.0
668.0
682.0
694.0
707.0
719.0
727.0
737.0
747.0
748.0
752.0
752.0
755.0
752.0
755.0
756.0
758.0
762.0
764.0
767.0
769.0
765.0
764.0
762.0
760.0
759.0
755.0
755.0
756.0
757.0
760.0
760.0
758.0
760.0
762.0
756.0
756.0
756.0
754.0
756.0
753.0
753.0
753.0
755.0
753.0
752.0
756.0
753.0
749.0
744.0
745.0
739.0
745.0
747.0
749.0
754.0
750.0
751.0
754.0
749.0
750.0
749.0
742.0
738.0
740.0
746.0
745.0
747.0
747.0
749.0
748.0
747.0
746.0
743.0
743.0
740.0
743.0
746.0
746.0
748.0
749.0
749.0
745.0
742.0
738.0
739.0
738.0
739.0
742.0
746.0
747.0
748.0
745.0
741.0
743.0
744.0
743.0
743.0
742.0
742.0
743.0
746.0
743.0
745.0
743.0
748.0
746.0
744.0
742.0
740.0
742.0
739.0
742.0
743.0
745.0
749.0
749.0
746.0
746.0
742.0
739.0
741.0
735.0
735.0
735.0
743.0
745.0
750.0
753.0
752.0
749.0
747.0
743.0
744.0
743.0
740.0
743.0
746.0
748.0
747.0
748.0
748.0
745.0
748.0
744.0
743.0
743.0
741.0
740.0
746.0
748.0
752.0
751.0
750.0
747.0
747.0
744.0
742.0
742.0
742.0
745.0
745.0
748.0
752.0
751.0
751.0
751.0
749.0
746.0
747.0
744.0
748.0
748.0
752.0
752.0
756.0
758.0
756.0
753.0
746.0
746.0
744.0
742.0
742.0
744.0
749.0
752.0
754.0
755.0
756.0
757.0
754.0
755.0
754.0
754.0
753.0
754.0
751.0
755.0
758.0
755.0
753.0
754.0
752.0
750.0
749.0
752.0
751.0
754.0
755.0
756.0
757.0
762.0
762.0
763.0
766.0
766.0
771.0
771.0
777.0
777.0
779.0
778.0
777.0
777.0
781.0
782.0
785.0
787.0
791.0
792.0
794.0
795.0
796.0
796.0
795.0
793.0
792.0
788.0
785.0
780.0
776.0
778.0
778.0
775.0
775.0
771.0
768.0
763.0
756.0
752.0
748.0
744.0
744.0
747.0
749.0
751.0
752.0
757.0
758.0
760.0
760.0
758.0
756.0
754.0
757.0
766.0
774.0
794.0
822.0
860.0
911.0
974.0
1043.0
1114.0
1192.0
1271.0
1354.0
1423.0
1475.0
1495.0
1481.0
1421.0
1304.0
1176.0
1048.0
920.0
792.0
664.0
673.0
722.0
773.0
804.0
818.0
819.0
808.0
792.0
777.0
764.0
755.0
754.0
757.0
760.0
762.0
764.0
766.0
769.0
773.0
776.0
779.0
778.0
777.0
774.0
776.0
778.0
782.0
784.0
785.0
784.0
790.0
789.0
793.0
791.0
789.0
794.0
795.0
795.0
798.0
802.0
808.0
814.0
819.0
825.0
828.0
829.0
831.0
831.0
836.0
838.0
843.0
848.0
851.0
857.0
860.0
866.0
866.0
871.0
876.0
880.0
890.0
893.0
899.0
910.0
916.0
922.0
932.0
939.0
944.0
949.0
948.0
946.0
948.0
950.0
952.0
955.0
963.0
967.0
974.0
981.0
980.0
976.0
975.0
970.0
966.0
963.0
956.0
951.0
947.0
940.0
934.0
927.0
921.0
914.0
905.0
896.0
889.0
883.0
877.0
870.0
862.0
858.0
852.0
850.0
847.0
847.0
842.0
840.0
839.0
836.0
837.0
836.0
839.0
839.0
842.0
843.0
844.0
839.0
837.0
834.0
835.0
833.0
833.0
834.0
836.0
836.0
837.0
842.0
842.0
841.0
834.0
834.0
840.0
840.0
841.0
840.0
841.0
842.0
839.0
839.0
839.0
837.0
833.0
833.0
833.0
827.0
828.0
827.0
830.0
830.0
833.0
832.0
832.0
830.0
828.0
824.0
822.0
821.0
819.0
818.0
818.0
820.0
818.0
821.0
819.0
820.0
815.0
815.0
812.0
810.0
809.0
808.0
810.0
814.0
814.0
813.0
811.0
813.0
811.0
807.0
805.0
806.0
804.0
804.0
803.0
803.0
804.0
808.0
807.0
807.0
806.0
805.0
803.0
806.0
805.0
802.0
804.0
806.0
812.0
817.0
820.0
825.0
826.0
827.0
825.0
826.0
824.0
824.0
827.0
828.0
830.0
833.0
840.0
843.0
845.0
844.0
843.0
842.0
843.0
837.0
836.0
838.0
836.0
838.0
835.0
835.0
830.0
827.0
820.0
815.0
807.0
804.0
804.0
803.0
802.0
797.0
791.0
791.0
789.0
789.0
790.0
791.0
794.0
795.0
795.0
798.0
798.0
803.0
801.0
798.0
797.0
798.0
800.0
815.0
836.0
871.0
928.0
998.0
1081.0
1172.0
1266.0
1357.0
1433.0
1486.0
1521.0
1523.0
1493.0
1432.0
1318.0
1190.0
1062.0
934.0
806.0
708.0
739.0
793.0
839.0
864.0
868.0
852.0
831.0
816.0
808.0
801.0
805.0
804.0
804.0
802.0
800.0
800.0
797.0
800.0
803.0
812.0
814.0
817.0
815.0
816.0
815.0
816.0
813.0
818.0
817.0
819.0
821.0
822.0
825.0
826.0
832.0
835.0
836.0
837.0
835.0
835.0
835.0
836.0
845.0
847.0
854.0
858.0
862.0
864.0
865.0
867.0
871.0
874.0
878.0
880.0
883.0
888.0
897.0
903.0
911.0
916.0
919.0
922.0
927.0
929.0
932.0
939.0
944.0
950.0
955.0
962.0
963.0
960.0
958.0
958.0
960.0
959.0
957.0
960.0
957.0
956.0
952.0
947.0
941.0
935.0
926.0
914.0
910.0
901.0
888.0
882.0
873.0
868.0
862.0
858.0
851.0
847.0
841.0
836.0
828.0
824.0
817.0
815.0
813.0
810.0
812.0
814.0
812.0
808.0
807.0
801.0
798.0
795.0
795.0
794.0
795.0
797.0
799.0
799.0
803.0
803.0
801.0
800.0
796.0
795.0
795.0
795.0
794.0
797.0
797.0
801.0
799.0
798.0
797.0
795.0
795.0
796.0
798.0
797.0
799.0
800.0
801.0
801.0
800.0
800.0
799.0
800.0
794.0
792.0
790.0
788.0
791.0
792.0
793.0
797.0
796.0
794.0
792.0
792.0
786.0
782.0
782.0
783.0
785.0
785.0
788.0
789.0
787.0
789.0
787.0
783.0
780.0
778.0
779.0
782.0
781.0
782.0
784.0
785.0
785.0
784.0
784.0
782.0
779.0
777.0
779.0
779.0
782.0
778.0
781.0
779.0
781.0
782.0
781.0
780.0
777.0
775.0
775.0
776.0
780.0
783.0
787.0
792.0
797.0
803.0
802.0
801.0
798.0
795.0
795.0
795.0
795.0
793.0
796.0
800.0
804.0
808.0
808.0
811.0
815.0
815.0
813.0
813.0
814.0
813.0
812.0
812.0
806.0
806.0
804.0
803.0
800.0
798.0
792.0
789.0
785.0
776.0
777.0
774.0
771.0
768.0
765.0
764.0
764.0
764.0
764.0
766.0
769.0
772.0
772.0
771.0
772.0
772.0
770.0
768.0
771.0
778.0
788.0
810.0
845.0
886.0
942.0
1009.0
1082.0
1157.0
1242.0
1326.0
1409.0
1475.0
1508.0
1502.0
1436.0
1308.0
1180.0
1052.0
924.0
796.0
668.0
702.0
758.0
801.0
826.0
834.0
823.0
801.0
791.0
779.0
772.0
768.0
768.0
770.0
770.0
770.0
771.0
771.0
773.0
774.0
777.0
779.0
781.0
783.0
783.0
787.0
786.0
785.0
784.0
786.0
789.0
789.0
790.0
793.0
794.0
795.0
795.0
797.0
798.0
799.0
795.0
800.0
806.0
812.0
816.0
818.0
821.0
826.0
827.0
829.0
829.0
830.0
835.0
838.0
843.0
851.0
858.0
865.0
870.0
879.0
883.0
888.0
893.0
893.0
900.0
903.0
913.0
915.0
921.0
923.0
924.0
925.0
926.0
926.0
925.0
923.0
922.0
919.0
918.0
915.0
914.0
908.0
902.0
893.0
884.0
876.0
863.0
853.0
850.0
842.0
837.0
832.0
827.0
822.0
818.0
813.0
804.0
797.0
793.0
788.0
783.0
781.0
782.0
787.0
790.0
789.0
787.0
787.0
784.0
785.0
782.0
782.0
781.0
786.0
785.0
788.0
789.0
791.0
789.0
787.0
791.0
787.0
788.0
790.0
788.0
793.0
790.0
795.0
797.0
800.0
802.0
801.0
798.0
799.0
798.0
796.0
795.0
796.0
798.0
802.0
806.0
812.0
816.0
821.0
828.0
834.0
843.0
847.0
851.0
859.0
871.0
889.0
905.0
927.0
938.0
955.0
968.0
987.0
1010.0
1040.0
1072.0
1098.0
1126.0
1157.0
1197.0
1233.0
1268.0
1300.0
1331.0
1363.0
1396.0
1430.0
1459.0
1486.0
1514.0
1530.0
1545.0
1559.0
1568.0
1570.0
1568.0
1561.0
1553.0
1534.0
1506.0
1437.0
1316.0
1188.0
1060.0
932.0
804.0
778.0
778.0
782.0
777.0
762.0
743.0
721.0
710.0
699.0
695.0
700.0
704.0
707.0
708.0
707.0
702.0
694.0
690.0
683.0
683.0
681.0
679.0
676.0
672.0
667.0
664.0
659.0
653.0
648.0
644.0
644.0
641.0
641.0
642.0
640.0
638.0
636.0
634.0
628.0
625.0
621.0
614.0
615.0
611.0
605.0
605.0
598.0
594.0
590.0
583.0
581.0
578.0
576.0
570.0
566.0
568.0
569.0
569.0
572.0
572.0
575.0
576.0
578.0
580.0
584.0
587.0
592.0
599.0
609.0
621.0
632.0
645.0
656.0
664.0
677.0
686.0
693.0
706.0
712.0
726.0
736.0
747.0
754.0
762.0
767.0
768.0
770.0
772.0
774.0
776.0
776.0
779.0
782.0
785.0
790.0
789.0
789.0
789.0
789.0
789.0
785.0
784.0
785.0
786.0
790.0
790.0
792.0
794.0
790.0
790.0
786.0
785.0
784.0
784.0
784.0
786.0
786.0
787.0
789.0
788.0
786.0
782.0
783.0
780.0
780.0
781.0
783.0
785.0
787.0
789.0
789.0
787.0
784.0
782.0
781.0
781.0
782.0
783.0
779.0
781.0
785.0
785.0
786.0
790.0
788.0
783.0
782.0
779.0
779.0
778.0
777.0
780.0
781.0
784.0
784.0
784.0
783.0
784.0
783.0
783.0
782.0
782.0
779.0
783.0
785.0
785.0
789.0
787.0
786.0
785.0
781.0
782.0
781.0
781.0
781.0
783.0
786.0
785.0
785.0
786.0
783.0
784.0
785.0
787.0
791.0
787.0
786.0
786.0
786.0
791.0
793.0
797.0
797.0
795.0
789.0
788.0
788.0
786.0
786.0
787.0
791.0
792.0
794.0
795.0
798.0
796.0
793.0
792.0
788.0
785.0
785.0
783.0
786.0
789.0
794.0
798.0
801.0
797.0
797.0
797.0
794.0
790.0
788.0
790.0
794.0
797.0
799.0
798.0
794.0
795.0
794.0
792.0
794.0
795.0
792.0
796.0
794.0
796.0
796.0
801.0
799.0
800.0
799.0
797.0
797.0
795.0
793.0
794.0
795.0
800.0
802.0
803.0
803.0
803.0
797.0
797.0
802.0
801.0
798.0
802.0
803.0
805.0
808.0
808.0
806.0
805.0
805.0
802.0
804.0
800.0
800.0
802.0
806.0
809.0
815.0
818.0
822.0
824.0
825.0
825.0
826.0
825.0
822.0
822.0
826.0
832.0
836.0
840.0
843.0
845.0
841.0
845.0
843.0
843.0
840.0
840.0
839.0
840.0
839.0
836.0
836.0
834.0
828.0
825.0
818.0
812.0
809.0
806.0
804.0
803.0
802.0
800.0
798.0
799.0
798.0
797.0
795.0
796.0
794.0
797.0
798.0
801.0
805.0
807.0
805.0
812.0
817.0
830.0
855.0
887.0
932.0
982.0
1038.0
1103.0
1174.0
1246.0
1330.0
1412.0
1480.0
1519.0
1530.0
1510.0
1446.0
1337.0
1209.0
1081.0
953.0
825.0
710.0
735.0
784.0
834.0
863.0
869.0
860.0
841.0
823.0
809.0
804.0
799.0
801.0
801.0
799.0
797.0
795.0
794.0
792.0
792.0
794.0
796.0
802.0
800.0
804.0
805.0
804.0
803.0
803.0
801.0
800.0
802.0
806.0
808.0
811.0
814.0
816.0
816.0
817.0
819.0
819.0
819.0
818.0
822.0
827.0
833.0
837.0
839.0
844.0
844.0
843.0
843.0
843.0
849.0
853.0
861.0
866.0
872.0
879.0
884.0
888.0
890.0
894.0
895.0
901.0
905.0
913.0
924.0
933.0
940.0
946.0
952.0
955.0
954.0
957.0
955.0
962.0
965.0
971.0
979.0
984.0
989.0
990.0
993.0
994.0
992.0
992.0
986.0
983.0
979.0
972.0
966.0
961.0
952.0
946.0
939.0
930.0
918.0
907.0
891.0
880.0
869.0
861.0
855.0
850.0
844.0
839.0
830.0
822.0
819.0
824.0
820.0
820.0
816.0
815.0
813.0
809.0
809.0
810.0
810.0
806.0
808.0
807.0
805.0
806.0
806.0
805.0
806.0
807.0
812.0
816.0
814.0
813.0
815.0
814.0
816.0
814.0
813.0
810.0
813.0
811.0
812.0
813.0
815.0
812.0
811.0
810.0
805.0
804.0
800.0
797.0
800.0
799.0
799.0
803.0
805.0
804.0
802.0
799.0
800.0
798.0
792.0
793.0
791.0
793.0
792.0
792.0
790.0
791.0
790.0
791.0
785.0
782.0
777.0
778.0
777.0
778.0
778.0
780.0
781.0
781.0
778.0
778.0
773.0
772.0
769.0
772.0
773.0
772.0
775.0
779.0
777.0
776.0
774.0
771.0
767.0
768.0
768.0
772.0
775.0
781.0
783.0
789.0
792.0
792.0
793.0
790.0
785.0
790.0
790.0
788.0
793.0
800.0
806.0
812.0
814.0
815.0
813.0
807.0
802.0
798.0
795.0
792.0
791.0
793.0
792.0
793.0
791.0
786.0
783.0
775.0
766.0
764.0
761.0
758.0
757.0
761.0
763.0
765.0
770.0
764.0
765.0
768.0
764.0
761.0
763.0
766.0
768.0
773.0
781.0
794.0
812.0
839.0
876.0
925.0
976.0
1034.0
1094.0
1160.0
1232.0
1301.0
1359.0
1402.0
1418.0
1388.0
1304.0
1176.0
1048.0
920.0
792.0
664.0
655.0
710.0
769.0
815.0
835.0
835.0
822.0
806.0
788.0
780.0
774.0
772.0
780.0
786.0
788.0
791.0
792.0
792.0
791.0
791.0
789.0
788.0
792.0
794.0
800.0
803.0
807.0
807.0
813.0
811.0
811.0
811.0
809.0
809.0
811.0
813.0
817.0
821.0
824.0
835.0
836.0
841.0
839.0
837.0
840.0
843.0
848.0
849.0
855.0
857.0
861.0
864.0
872.0
877.0
881.0
883.0
889.0
893.0
898.0
901.0
906.0
912.0
917.0
927.0
931.0
934.0
937.0
938.0
944.0
943.0
941.0
940.0
937.0
937.0
940.0
941.0
943.0
940.0
933.0
928.0
928.0
920.0
910.0
904.0
896.0
889.0
885.0
880.0
873.0
866.0
858.0
850.0
842.0
835.0
828.0
824.0
820.0
819.0
815.0
815.0
815.0
812.0
810.0
807.0
803.0
802.0
798.0
798.0
799.0
799.0
799.0
800.0
802.0
801.0
802.0
799.0
799.0
799.0
799.0
799.0
804.0
804.0
805.0
808.0
809.0
809.0
810.0
807.0
807.0
804.0
803.0
802.0
805.0
806.0
811.0
815.0
813.0
812.0
808.0
808.0
808.0
809.0
805.0
804.0
805.0
802.0
807.0
808.0
808.0
808.0
806.0
803.0
804.0
800.0
798.0
798.0
800.0
802.0
806.0
805.0
805.0
803.0
800.0
799.0
794.0
795.0
792.0
794.0
797.0
799.0
801.0
808.0
808.0
806.0
803.0
798.0
794.0
792.0
791.0
786.0
791.0
793.0
794.0
798.0
800.0
799.0
798.0
798.0
798.0
797.0
797.0
801.0
803.0
806.0
813.0
817.0
823.0
826.0
825.0
824.0
824.0
822.0
815.0
814.0
816.0
820.0
827.0
835.0
836.0
837.0
841.0
839.0
834.0
837.0
834.0
831.0
828.0
829.0
826.0
826.0
825.0
823.0
817.0
814.0
806.0
801.0
795.0
793.0
789.0
790.0
786.0
786.0
787.0
787.0
785.0
787.0
787.0
783.0
783.0
781.0
783.0
787.0
788.0
793.0
790.0
791.0
790.0
793.0
804.0
823.0
859.0
908.0
967.0
1032.0
1096.0
1167.0
1239.0
1319.0
1395.0
1451.0
1478.0
1460.0
1385.0
1257.0
1129.0
1001.0
873.0
745.0
674.0
722.0
781.0
830.0
855.0
857.0
841.0
820.0
800.0
789.0
782.0
786.0
792.0
795.0
796.0
796.0
793.0
790.0
790.0
789.0
787.0
790.0
793.0
795.0
799.0
802.0
801.0
799.0
802.0
806.0
806.0
805.0
807.0
813.0
816.0
818.0
819.0
819.0
818.0
819.0
817.0
820.0
820.0
826.0
826.0
829.0
829.0
833.0
839.0
844.0
844.0
849.0
849.0
853.0
856.0
855.0
860.0
865.0
875.0
885.0
892.0
896.0
899.0
900.0
903.0
907.0
913.0
919.0
921.0
929.0
937.0
945.0
950.0
954.0
955.0
952.0
951.0
948.0
947.0
947.0
947.0
946.0
942.0
940.0
935.0
931.0
921.0
915.0
905.0
896.0
885.0
876.0
867.0
861.0
853.0
849.0
845.0
837.0
829.0
822.0
819.0
817.0
815.0
811.0
812.0
809.0
813.0
811.0
810.0
807.0
807.0
803.0
803.0
801.0
794.0
794.0
793.0
796.0
800.0
801.0
804.0
805.0
806.0
801.0
798.0
797.0
794.0
794.0
795.0
799.0
802.0
803.0
803.0
804.0
800.0
799.0
798.0
797.0
795.0
793.0
794.0
794.0
795.0
797.0
799.0
799.0
796.0
794.0
790.0
789.0
784.0
783.0
784.0
785.0
791.0
795.0
798.0
804.0
805.0
802.0
797.0
792.0
793.0
790.0
789.0
791.0
792.0
797.0
797.0
796.0
795.0
794.0
792.0
787.0
786.0
781.0
782.0
782.0
780.0
786.0
787.0
782.0
784.0
781.0
779.0
776.0
775.0
774.0
774.0
777.0
776.0
778.0
780.0
779.0
777.0
774.0
772.0
772.0
772.0
771.0
776.0
781.0
786.0
792.0
793.0
793.0
793.0
789.0
789.0
787.0
786.0
786.0
787.0
791.0
795.0
804.0
809.0
812.0
811.0
808.0
802.0
801.0
797.0
797.0
793.0
798.0
798.0
797.0
794.0
793.0
786.0
781.0
777.0
769.0
768.0
761.0
756.0
756.0
755.0
755.0
759.0
762.0
762.0
764.0
763.0
760.0
760.0
751.0
755.0
755.0
759.0
762.0
763.0
763.0
774.0
782.0
800.0
824.0
861.0
902.0
952.0
1005.0
1071.0
1140.0
1216.0
1294.0
1368.0
1426.0
1449.0
1448.0
1392.0
1288.0
1160.0
1032.0
904.0
776.0
658.0
679.0
725.0
774.0
803.0
814.0
807.0
791.0
778.0
767.0
761.0
763.0
769.0
771.0
771.0
769.0
768.0
765.0
764.0
760.0
762.0
763.0
766.0
772.0
776.0
774.0
775.0
774.0
773.0
776.0
779.0
780.0
780.0
780.0
780.0
789.0
790.0
791.0
792.0
794.0
795.0
794.0
797.0
794.0
800.0
806.0
812.0
817.0
821.0
825.0
825.0
823.0
825.0
825.0
828.0
829.0
837.0
841.0
845.0
852.0
854.0
856.0
865.0
871.0
878.0
883.0
888.0
891.0
894.0
901.0
905.0
911.0
913.0
912.0
912.0
911.0
909.0
911.0
909.0
909.0
908.0
907.0
904.0
896.0
893.0
886.0
878.0
864.0
854.0
840.0
828.0
821.0
817.0
814.0
811.0
803.0
800.0
797.0
790.0
784.0
779.0
778.0
776.0
773.0
773.0
774.0
772.0
771.0
770.0
766.0
767.0
767.0
767.0
764.0
764.0
761.0
758.0
760.0
759.0
764.0
767.0
769.0
769.0
767.0
763.0
763.0
757.0
760.0
763.0
766.0
771.0
770.0
772.0
773.0
777.0
772.0
772.0
771.0
771.0
767.0
770.0
768.0
769.0
769.0
772.0
776.0
772.0
766.0
767.0
766.0
765.0
764.0
766.0
767.0
767.0
768.0
773.0
771.0
771.0
769.0
769.0
767.0
766.0
768.0
769.0
770.0
768.0
769.0
772.0
769.0
771.0
767.0
770.0
769.0
768.0
769.0
770.0
776.0
777.0
778.0
781.0
780.0
779.0
779.0
778.0
776.0
773.0
774.0
774.0
778.0
781.0
785.0
791.0
794.0
800.0
802.0
805.0
805.0
805.0
804.0
805.0
805.0
803.0
807.0
813.0
819.0
825.0
832.0
836.0
839.0
840.0
837.0
835.0
834.0
834.0
834.0
833.0
834.0
830.0
830.0
827.0
825.0
822.0
822.0
819.0
818.0
817.0
814.0
808.0
804.0
800.0
801.0
800.0
801.0
804.0
805.0
805.0
813.0
813.0
819.0
823.0
821.0
821.0
821.0
826.0
832.0
844.0
854.0
870.0
895.0
932.0
977.0
1033.0
1094.0
1158.0
1228.0
1290.0
1346.0
1390.0
1395.0
1352.0
1259.0
1131.0
1003.0
875.0
747.0
710.0
734.0
782.0
834.0
871.0
889.0
884.0
874.0
861.0
851.0
846.0
841.0
843.0
843.0
843.0
843.0
850.0
849.0
851.0
852.0
849.0
851.0
856.0
859.0
862.0
860.0
859.0
857.0
854.0
859.0
867.0
868.0
872.0
873.0
876.0
881.0
883.0
885.0
895.0
907.0
920.0
928.0
932.0
934.0
934.0
932.0
934.0
933.0
934.0
937.0
941.0
942.0
948.0
951.0
956.0
962.0
966.0
970.0
979.0
986.0
992.0
996.0
996.0
997.0
1002.0
1003.0
1010.0
1011.0
1021.0
1022.0
1027.0
1027.0
1027.0
1026.0
1026.0
1025.0
1022.0
1022.0
1020.0
1020.0
1021.0
1025.0
1025.0
1020.0
1012.0
1004.0
996.0
987.0
981.0
975.0
969.0
965.0
959.0
952.0
949.0
943.0
942.0
941.0
939.0
941.0
938.0
933.0
930.0
929.0
925.0
924.0
926.0
925.0
923.0
919.0
918.0
916.0
918.0
922.0
920.0
920.0
918.0
920.0
920.0
920.0
928.0
928.0
929.0
927.0
924.0
925.0
927.0
929.0
930.0
934.0
938.0
940.0
943.0
946.0
947.0
948.0
953.0
954.0
953.0
957.0
959.0
967.0
970.0
976.0
977.0
976.0
976.0
975.0
973.0
975.0
980.0
984.0
983.0
988.0
992.0
996.0
1000.0
1003.0
1000.0
995.0
991.0
989.0
994.0
997.0
1003.0
1006.0
1007.0
1005.0
1003.0
1000.0
999.0
997.0
997.0
1001.0
1002.0
1006.0
1009.0
1013.0
1014.0
1015.0
1015.0
1012.0
1009.0
1007.0
1008.0
1007.0
1008.0
1013.0
1014.0
1021.0
1029.0
1035.0
1037.0
1035.0
1039.0
1041.0
1042.0
1042.0
1042.0
1043.0
1038.0
1039.0
1038.0
1035.0
1039.0
1044.0
1048.0
1052.0
1051.0
1054.0
1048.0
1046.0
1046.0
1043.0
1040.0
1036.0
