# Simple Text Format
# Sampling Rate (Hz):= 360.00
# Resolution:= 12
# Labels:= ECG
825.0
828.0
831.0
829.0
831.0
830.0
827.0
825.0
823.0
821.0
822.0
821.0
825.0
827.0
828.0
826.0
825.0
826.0
824.0
820.0
819.0
817.0
816.0
815.0
819.0
818.0
821.0
824.0
822.0
821.0
822.0
818.0
818.0
817.0
817.0
816.0
817.0
821.0
823.0
824.0
824.0
817.0
815.0
815.0
815.0
814.0
813.0
814.0
816.0
818.0
826.0
827.0
831.0
835.0
837.0
838.0
836.0
838.0
838.0
838.0
841.0
841.0
842.0
847.0
849.0
849.0
850.0
853.0
858.0
857.0
854.0
857.0
858.0
855.0
849.0
850.0
853.0
848.0
844.0
843.0
839.0
839.0
835.0
830.0
826.0
821.0
821.0
820.0
815.0
812.0
807.0
806.0
803.0
808.0
806.0
808.0
810.0
810.0
814.0
816.0
816.0
816.0
815.0
815.0
812.0
811.0
809.0
813.0
820.0
836.0
863.0
900.0
947.0
1008.0
1071.0
1138.0
1209.0
1291.0
1376.0
1450.0
1504.0
1523.0
1493.0
1403.0
1275.0
1147.0
1019.0
891.0
763.0
723.0
781.0
840.0
878.0
889.0
881.0
860.0
841.0
824.0
813.0
812.0
811.0
812.0
813.0
815.0
811.0
812.0
816.0
819.0
819.0
819.0
818.0
821.0
819.0
817.0
818.0
821.0
822.0
825.0
824.0
829.0
825.0
828.0
826.0
826.0
826.0
828.0
829.0
832.0
834.0
839.0
841.0
845.0
846.0
847.0
845.0
848.0
846.0
847.0
852.0
854.0
857.0
863.0
868.0
874.0
879.0
884.0
887.0
890.0
892.0
898.0
899.0
902.0
910.0
915.0
923.0
926.0
929.0
936.0
940.0
941.0
943.0
944.0
943.0
947.0
952.0
951.0
950.0
945.0
945.0
940.0
932.0
929.0
918.0
913.0
908.0
900.0
894.0
887.0
876.0
872.0
863.0
854.0
845.0
838.0
831.0
823.0
819.0
817.0
818.0
820.0
820.0
819.0
820.0
815.0
812.0
807.0
805.0
803.0
801.0
801.0
802.0
803.0
806.0
809.0
808.0
810.0
809.0
807.0
808.0
805.0
804.0
805.0
807.0
810.0
811.0
813.0
815.0
814.0
812.0
810.0
810.0
810.0
809.0
804.0
808.0
808.0
810.0
811.0
810.0
808.0
806.0
803.0
803.0
805.0
805.0
805.0
805.0
805.0
804.0
810.0
803.0
804.0
801.0
800.0
798.0
801.0
798.0
799.0
799.0
801.0
799.0
803.0
804.0
805.0
804.0
797.0
796.0
796.0
795.0
793.0
797.0
799.0
798.0
799.0
800.0
800.0
798.0
795.0
793.0
795.0
792.0
793.0
795.0
795.0
799.0
799.0
796.0
792.0
798.0
796.0
794.0
791.0
792.0
795.0
802.0
805.0
811.0
814.0
816.0
818.0
815.0
813.0
812.0
812.0
813.0
813.0
818.0
820.0
825.0
831.0
834.0
836.0
834.0
830.0
828.0
825.0
820.0
820.0
819.0
819.0
822.0
824.0
823.0
822.0
814.0
808.0
799.0
794.0
786.0
782.0
778.0
780.0
783.0
787.0
792.0
790.0
789.0
788.0
788.0
788.0
786.0
786.0
791.0
790.0
791.0
792.0
790.0
793.0
799.0
809.0
822.0
852.0
894.0
952.0
1024.0
1103.0
1190.0
1282.0
1368.0
1437.0
1491.0
1515.0
1503.0
1460.0
1370.0
1242.0
1114.0
986.0
858.0
730.0
697.0
734.0
783.0
821.0
844.0
842.0
829.0
813.0
798.0
791.0
789.0
789.0
794.0
794.0
796.0
794.0
791.0
790.0
790.0
788.0
789.0
794.0
797.0
798.0
799.0
797.0
803.0
799.0
799.0
799.0
796.0
800.0
801.0
808.0
812.0
818.0
818.0
817.0
814.0
812.0
811.0
813.0
815.0
818.0
821.0
825.0
831.0
836.0
838.0
840.0
840.0
836.0
837.0
844.0
848.0
851.0
857.0
860.0
865.0
871.0
879.0
881.0
885.0
884.0
883.0
888.0
894.0
899.0
907.0
912.0
915.0
920.0
920.0
919.0
917.0
915.0
914.0
913.0
917.0
914.0
914.0
919.0
915.0
912.0
909.0
898.0
889.0
876.0
864.0
857.0
849.0
843.0
839.0
834.0
831.0
831.0
829.0
823.0
820.0
812.0
806.0
801.0
799.0
796.0
794.0
796.0
796.0
797.0
799.0
796.0
796.0
791.0
792.0
794.0
794.0
796.0
798.0
800.0
800.0
801.0
802.0
799.0
797.0
797.0
798.0
796.0
796.0
798.0
800.0
799.0
802.0
807.0
809.0
806.0
804.0
796.0
796.0
800.0
801.0
796.0
804.0
808.0
811.0
810.0
813.0
812.0
807.0
808.0
805.0
802.0
803.0
802.0
804.0
805.0
810.0
812.0
813.0
810.0
808.0
808.0
804.0
805.0
802.0
805.0
804.0
807.0
809.0
813.0
812.0
808.0
808.0
808.0
808.0
806.0
810.0
811.0
812.0
816.0
816.0
818.0
817.0
817.0
814.0
813.0
810.0
811.0
811.0
812.0
815.0
817.0
819.0
823.0
824.0
824.0
820.0
820.0
817.0
817.0
816.0
816.0
820.0
823.0
828.0
833.0
837.0
841.0
842.0
841.0
842.0
843.0
843.0
843.0
844.0
845.0
847.0
849.0
849.0
852.0
857.0
857.0
861.0
861.0
862.0
860.0
858.0
859.0
859.0
858.0
856.0
855.0
854.0
847.0
849.0
844.0
837.0
832.0
830.0
825.0
823.0
822.0
821.0
818.0
819.0
822.0
820.0
821.0
820.0
817.0
820.0
819.0
821.0
824.0
824.0
826.0
825.0
821.0
819.0
820.0
825.0
835.0
853.0
877.0
912.0
958.0
1012.0
1067.0
1126.0
1191.0
1256.0
1331.0
1397.0
1449.0
1474.0
1462.0
1395.0
1274.0
1146.0
1018.0
890.0
762.0
708.0
749.0
801.0
850.0
878.0
884.0
877.0
862.0
847.0
836.0
829.0
827.0
827.0
828.0
827.0
829.0
827.0
830.0
829.0
830.0
837.0
837.0
837.0
839.0
837.0
837.0
838.0
838.0
840.0
842.0
845.0
845.0
846.0
847.0
847.0
847.0
845.0
846.0
846.0
851.0
853.0
854.0
862.0
866.0
868.0
868.0
865.0
867.0
867.0
868.0
869.0
872.0
877.0
881.0
885.0
890.0
894.0
898.0
901.0
902.0
909.0
910.0
913.0
914.0
923.0
928.0
937.0
944.0
947.0
949.0
951.0
953.0
954.0
956.0
956.0
958.0
960.0
962.0
965.0
967.0
966.0
961.0
961.0
956.0
953.0
950.0
946.0
937.0
936.0
929.0
930.0
925.0
919.0
910.0
902.0
895.0
888.0
882.0
876.0
870.0
868.0
865.0
860.0
857.0
856.0
851.0
848.0
843.0
841.0
840.0
837.0
836.0
838.0
839.0
841.0
842.0
844.0
844.0
842.0
840.0
837.0
838.0
838.0
840.0
841.0
844.0
846.0
849.0
848.0
849.0
847.0
842.0
844.0
844.0
844.0
845.0
846.0
848.0
851.0
852.0
853.0
850.0
851.0
846.0
846.0
846.0
844.0
842.0
847.0
846.0
849.0
850.0
844.0
850.0
847.0
844.0
843.0
842.0
841.0
838.0
837.0
842.0
841.0
845.0
844.0
841.0
839.0
838.0
837.0
836.0
834.0
835.0
836.0
838.0
837.0
842.0
838.0
838.0
839.0
834.0
832.0
834.0
831.0
833.0
837.0
836.0
836.0
840.0
840.0
837.0
836.0
835.0
832.0
832.0
831.0
828.0
832.0
834.0
834.0
840.0
839.0
840.0
838.0
835.0
832.0
833.0
833.0
837.0
842.0
847.0
851.0
855.0
859.0
861.0
861.0
858.0
856.0
855.0
855.0
855.0
859.0
865.0
869.0
876.0
877.0
876.0
876.0
872.0
866.0
866.0
862.0
857.0
859.0
863.0
861.0
860.0
856.0
855.0
847.0
840.0
832.0
827.0
823.0
820.0
819.0
824.0
826.0
828.0
831.0
828.0
826.0
825.0
820.0
824.0
821.0
822.0
824.0
821.0
822.0
822.0
826.0
833.0
844.0
861.0
891.0
938.0
992.0
1059.0
1126.0
1202.0
1277.0
1359.0
1430.0
1482.0
1505.0
1482.0
1404.0
1276.0
1148.0
1020.0
892.0
764.0
732.0
782.0
838.0
875.0
894.0
884.0
866.0
845.0
829.0
821.0
819.0
823.0
828.0
830.0
828.0
825.0
825.0
820.0
820.0
821.0
819.0
821.0
824.0
827.0
828.0
832.0
834.0
834.0
835.0
833.0
833.0
833.0
831.0
831.0
832.0
837.0
839.0
844.0
844.0
845.0
848.0
846.0
848.0
850.0
849.0
855.0
856.0
860.0
863.0
868.0
867.0
874.0
876.0
877.0
879.0
882.0
884.0
890.0
896.0
903.0
910.0
914.0
919.0
923.0
926.0
927.0
929.0
932.0
932.0
935.0
938.0
944.0
948.0
949.0
952.0
947.0
946.0
943.0
942.0
936.0
934.0
928.0
924.0
918.0
916.0
909.0
902.0
895.0
890.0
883.0
876.0
867.0
860.0
856.0
851.0
847.0
838.0
839.0
834.0
831.0
827.0
821.0
819.0
815.0
814.0
812.0
812.0
814.0
814.0
815.0
814.0
809.0
808.0
808.0
806.0
808.0
808.0
803.0
809.0
814.0
814.0
818.0
816.0
813.0
811.0
811.0
809.0
811.0
811.0
810.0
810.0
813.0
814.0
816.0
815.0
817.0
814.0
814.0
810.0
810.0
806.0
807.0
808.0
810.0
809.0
813.0
811.0
811.0
810.0
806.0
802.0
804.0
801.0
799.0
799.0
803.0
802.0
803.0
800.0
799.0
798.0
801.0
798.0
798.0
797.0
793.0
793.0
799.0
799.0
802.0
803.0
800.0
799.0
796.0
794.0
794.0
794.0
793.0
790.0
793.0
796.0
798.0
799.0
798.0
800.0
797.0
794.0
793.0
790.0
789.0
790.0
792.0
793.0
798.0
799.0
801.0
803.0
804.0
808.0
808.0
808.0
806.0
804.0
808.0
811.0
814.0
816.0
816.0
815.0
817.0
820.0
823.0
823.0
827.0
827.0
828.0
827.0
827.0
827.0
820.0
818.0
812.0
812.0
812.0
808.0
807.0
805.0
802.0
801.0
796.0
790.0
785.0
782.0
781.0
778.0
780.0
777.0
779.0
780.0
783.0
785.0
786.0
788.0
789.0
789.0
786.0
786.0
782.0
781.0
784.0
795.0
823.0
861.0
917.0
981.0
1054.0
1132.0
1217.0
1302.0
1377.0
1434.0
1470.0
1456.0
1391.0
1263.0
1135.0
1007.0
879.0
751.0
672.0
710.0
760.0
803.0
828.0
834.0
825.0
804.0
789.0
785.0
782.0
781.0
780.0
779.0
777.0
782.0
781.0
779.0
779.0
782.0
786.0
791.0
794.0
792.0
793.0
793.0
791.0
787.0
788.0
789.0
792.0
795.0
803.0
803.0
802.0
800.0
801.0
803.0
803.0
807.0
807.0
812.0
814.0
817.0
820.0
819.0
823.0
824.0
824.0
824.0
827.0
825.0
831.0
835.0
841.0
847.0
851.0
856.0
856.0
858.0
861.0
867.0
868.0
874.0
877.0
883.0
891.0
897.0
902.0
904.0
907.0
907.0
906.0
905.0
904.0
902.0
902.0
903.0
903.0
902.0
902.0
901.0
894.0
889.0
881.0
872.0
866.0
858.0
848.0
842.0
838.0
834.0
832.0
827.0
822.0
816.0
811.0
809.0
803.0
801.0
798.0
797.0
795.0
794.0
795.0
797.0
795.0
796.0
792.0
792.0
789.0
788.0
789.0
790.0
792.0
794.0
800.0
803.0
803.0
803.0
804.0
805.0
807.0
808.0
812.0
820.0
833.0
844.0
862.0
877.0
894.0
913.0
935.0
953.0
971.0
992.0
1010.0
1030.0
1050.0
1064.0
1081.0
1099.0
1120.0
1140.0
1164.0
1187.0
1214.0
1230.0
1253.0
1265.0
1274.0
1285.0
1291.0
1300.0
1317.0
1338.0
1364.0
1390.0
1419.0
1447.0
1470.0
1498.0
1508.0
1508.0
1481.0
1414.0
1311.0
1183.0
1055.0
927.0
809.0
759.0
738.0
738.0
743.0
746.0
744.0
735.0
726.0
713.0
703.0
697.0
693.0
692.0
693.0
695.0
697.0
703.0
705.0
707.0
704.0
700.0
693.0
687.0
686.0
680.0
675.0
677.0
678.0
675.0
676.0
676.0
671.0
667.0
660.0
657.0
652.0
650.0
645.0
643.0
643.0
643.0
638.0
638.0
635.0
631.0
626.0
620.0
615.0
614.0
611.0
606.0
608.0
610.0
610.0
611.0
609.0
605.0
605.0
602.0
603.0
606.0
606.0
615.0
623.0
629.0
638.0
650.0
653.0
660.0
667.0
676.0
682.0
690.0
701.0
714.0
726.0
734.0
746.0
754.0
762.0
768.0
775.0
781.0
785.0
791.0
795.0
795.0
797.0
802.0
803.0
807.0
806.0
809.0
804.0
802.0
800.0
798.0
799.0
796.0
800.0
801.0
803.0
800.0
802.0
799.0
803.0
798.0
797.0
796.0
797.0
794.0
797.0
797.0
799.0
801.0
803.0
797.0
793.0
792.0
792.0
792.0
790.0
794.0
795.0
796.0
798.0
796.0
795.0
794.0
794.0
789.0
787.0
787.0
788.0
791.0
789.0
791.0
794.0
795.0
796.0
793.0
795.0
793.0
790.0
786.0
785.0
787.0
789.0
789.0
791.0
790.0
791.0
791.0
789.0
785.0
784.0
782.0
786.0
782.0
787.0
788.0
792.0
790.0
791.0
793.0
788.0
785.0
783.0
782.0
782.0
785.0
785.0
790.0
789.0
793.0
794.0
791.0
790.0
786.0
788.0
788.0
787.0
787.0
791.0
791.0
793.0
794.0
794.0
794.0
794.0
789.0
789.0
785.0
785.0
787.0
788.0
791.0
788.0
791.0
790.0
792.0
790.0
792.0
790.0
789.0
790.0
791.0
790.0
794.0
796.0
796.0
798.0
793.0
790.0
792.0
789.0
789.0
788.0
789.0
791.0
793.0
795.0
798.0
800.0
800.0
797.0
797.0
792.0
790.0
790.0
790.0
791.0
793.0
798.0
799.0
801.0
797.0
797.0
796.0
793.0
794.0
793.0
794.0
794.0
797.0
800.0
798.0
800.0
796.0
797.0
796.0
792.0
793.0
795.0
793.0
799.0
799.0
800.0
800.0
799.0
798.0
795.0
795.0
792.0
794.0
793.0
792.0
797.0
799.0
802.0
799.0
801.0
800.0
804.0
798.0
800.0
801.0
797.0
798.0
804.0
803.0
804.0
809.0
810.0
807.0
806.0
801.0
801.0
799.0
799.0
799.0
802.0
805.0
805.0
810.0
806.0
805.0
805.0
804.0
803.0
804.0
801.0
804.0
805.0
810.0
814.0
816.0
818.0
821.0
823.0
824.0
826.0
829.0
827.0
827.0
827.0
833.0
835.0
835.0
837.0
840.0
842.0
842.0
844.0
846.0
846.0
846.0
845.0
847.0
849.0
846.0
847.0
843.0
845.0
842.0
838.0
837.0
835.0
829.0
826.0
822.0
818.0
815.0
812.0
810.0
805.0
804.0
801.0
804.0
805.0
806.0
805.0
806.0
808.0
812.0
811.0
810.0
810.0
810.0
810.0
823.0
836.0
860.0
897.0
952.0
1016.0
1086.0
1164.0
1254.0
1339.0
1417.0
1474.0
1504.0
1496.0
1442.0
1336.0
1208.0
1080.0
952.0
824.0
712.0
722.0
768.0
820.0
855.0
868.0
860.0
846.0
828.0
813.0
807.0
802.0
802.0
803.0
802.0
802.0
803.0
801.0
799.0
799.0
802.0
802.0
808.0
806.0
807.0
807.0
804.0
804.0
804.0
804.0
805.0
809.0
809.0
810.0
815.0
814.0
814.0
817.0
817.0
817.0
816.0
818.0
822.0
825.0
826.0
828.0
832.0
834.0
836.0
835.0
835.0
835.0
840.0
844.0
846.0
849.0
852.0
856.0
862.0
865.0
869.0
869.0
872.0
874.0
879.0
880.0
885.0
890.0
898.0
904.0
911.0
915.0
920.0
922.0
925.0
926.0
931.0
933.0
936.0
938.0
941.0
944.0
948.0
949.0
953.0
952.0
952.0
952.0
951.0
947.0
945.0
943.0
945.0
942.0
938.0
931.0
922.0
914.0
905.0
897.0
888.0
884.0
877.0
872.0
870.0
863.0
858.0
851.0
846.0
840.0
833.0
830.0
830.0
825.0
825.0
825.0
824.0
824.0
825.0
826.0
826.0
823.0
822.0
817.0
813.0
813.0
814.0
814.0
819.0
819.0
819.0
815.0
818.0
814.0
812.0
808.0
810.0
808.0
807.0
809.0
810.0
811.0
810.0
809.0
810.0
809.0
805.0
802.0
801.0
796.0
799.0
801.0
799.0
800.0
800.0
798.0
796.0
797.0
795.0
791.0
790.0
790.0
790.0
792.0
790.0
791.0
794.0
792.0
791.0
789.0
786.0
786.0
783.0
781.0
781.0
780.0
781.0
783.0
784.0
783.0
783.0
784.0
781.0
779.0
774.0
775.0
776.0
778.0
777.0
781.0
780.0
783.0
779.0
776.0
775.0
772.0
770.0
773.0
775.0
778.0
781.0
782.0
787.0
791.0
791.0
792.0
789.0
790.0
787.0
789.0
788.0
792.0
790.0
797.0
801.0
805.0
808.0
812.0
808.0
805.0
801.0
797.0
793.0
796.0
798.0
797.0
796.0
798.0
794.0
790.0
784.0
780.0
774.0
772.0
767.0
764.0
761.0
760.0
762.0
762.0
765.0
764.0
765.0
764.0
764.0
765.0
770.0
775.0
785.0
801.0
820.0
842.0
873.0
912.0
960.0
1022.0
1094.0
1171.0
1251.0
1320.0
1363.0
1369.0
1336.0
1249.0
1133.0
1005.0
877.0
749.0
629.0
569.0
553.0
581.0
629.0
680.0
727.0
756.0
765.0
768.0
767.0
761.0
758.0
757.0
758.0
760.0
764.0
765.0
770.0
770.0
772.0
773.0
771.0
770.0
772.0
770.0
774.0
778.0
779.0
784.0
786.0
787.0
789.0
790.0
789.0
788.0
790.0
795.0
799.0
799.0
804.0
810.0
812.0
814.0
816.0
817.0
819.0
821.0
826.0
833.0
838.0
841.0
846.0
853.0
858.0
864.0
870.0
875.0
879.0
881.0
890.0
894.0
898.0
907.0
914.0
920.0
926.0
930.0
932.0
935.0
935.0
933.0
935.0
936.0
938.0
940.0
939.0
938.0
936.0
934.0
927.0
920.0
911.0
902.0
893.0
881.0
872.0
863.0
857.0
850.0
841.0
828.0
818.0
813.0
805.0
794.0
790.0
782.0
780.0
775.0
777.0
779.0
778.0
779.0
775.0
773.0
771.0
770.0
768.0
770.0
771.0
771.0
772.0
774.0
778.0
778.0
780.0
778.0
779.0
778.0
780.0
781.0
779.0
781.0
782.0
787.0
787.0
788.0
789.0
785.0
782.0
780.0
780.0
779.0
779.0
782.0
783.0
782.0
782.0
782.0
786.0
784.0
781.0
779.0
781.0
781.0
781.0
779.0
784.0
784.0
786.0
787.0
784.0
785.0
781.0
779.0
777.0
777.0
775.0
776.0
779.0
776.0
782.0
781.0
782.0
779.0
777.0
777.0
775.0
775.0
773.0
776.0
776.0
780.0
784.0
781.0
784.0
778.0
776.0
776.0
778.0
779.0
776.0
779.0
783.0
783.0
787.0
788.0
783.0
786.0
782.0
780.0
782.0
783.0
779.0
783.0
784.0
788.0
789.0
788.0
790.0
790.0
792.0
792.0
795.0
797.0
799.0
803.0
802.0
805.0
809.0
808.0
809.0
808.0
811.0
810.0
812.0
820.0
819.0
823.0
825.0
825.0
825.0
823.0
821.0
821.0
813.0
814.0
810.0
806.0
805.0
803.0
802.0
800.0
800.0
797.0
796.0
792.0
787.0
783.0
776.0
776.0
776.0
781.0
783.0
786.0
790.0
793.0
792.0
792.0
791.0
788.0
784.0
781.0
781.0
785.0
791.0
803.0
825.0
849.0
888.0
937.0
1006.0
1083.0
1173.0
1266.0
1355.0
1427.0
1473.0
1478.0
1431.0
1318.0
1190.0
1062.0
934.0
806.0
678.0
684.0
743.0
803.0
847.0
861.0
855.0
840.0
818.0
799.0
789.0
785.0
786.0
789.0
794.0
796.0
798.0
799.0
803.0
802.0
802.0
802.0
803.0
803.0
803.0
801.0
803.0
802.0
805.0
806.0
812.0
811.0
814.0
812.0
811.0
809.0
816.0
813.0
813.0
813.0
820.0
822.0
826.0
830.0
830.0
831.0
830.0
829.0
831.0
834.0
840.0
842.0
844.0
849.0
855.0
861.0
864.0
867.0
867.0
871.0
875.0
876.0
881.0
887.0
894.0
898.0
906.0
910.0
913.0
914.0
915.0
916.0
916.0
917.0
916.0
919.0
919.0
923.0
925.0
924.0
921.0
915.0
911.0
906.0
902.0
897.0
891.0
890.0
885.0
886.0
880.0
875.0
865.0
856.0
850.0
842.0
837.0
830.0
830.0
828.0
828.0
828.0
825.0
826.0
823.0
822.0
820.0
819.0
818.0
819.0
817.0
814.0
817.0
817.0
819.0
820.0
821.0
818.0
817.0
817.0
819.0
818.0
820.0
823.0
825.0
825.0
825.0
825.0
822.0
819.0
816.0
816.0
815.0
813.0
817.0
815.0
819.0
819.0
821.0
824.0
820.0
820.0
819.0
817.0
815.0
812.0
811.0
814.0
813.0
814.0
816.0
818.0
813.0
817.0
815.0
813.0
809.0
809.0
807.0
806.0
810.0
810.0
813.0
812.0
810.0
810.0
810.0
806.0
806.0
804.0
808.0
807.0
803.0
809.0
809.0
810.0
809.0
808.0
806.0
803.0
804.0
802.0
800.0
803.0
805.0
805.0
807.0
807.0
806.0
805.0
806.0
804.0
802.0
801.0
799.0
803.0
804.0
810.0
815.0
818.0
823.0
826.0
824.0
821.0
820.0
822.0
821.0
823.0
824.0
829.0
836.0
838.0
841.0
842.0
840.0
836.0
832.0
830.0
825.0
825.0
826.0
826.0
827.0
825.0
824.0
817.0
811.0
804.0
799.0
790.0
788.0
787.0
785.0
785.0
790.0
792.0
794.0
790.0
790.0
786.0
785.0
783.0
780.0
782.0
784.0
785.0
789.0
787.0
789.0
792.0
798.0
808.0
829.0
859.0
904.0
961.0
1026.0
1100.0
1178.0
1261.0
1345.0
1420.0
1468.0
1488.0
1462.0
1379.0
1251.0
1123.0
995.0
867.0
739.0
689.0
732.0
787.0
830.0
850.0
846.0
828.0
811.0
795.0
788.0
782.0
789.0
792.0
795.0
795.0
792.0
786.0
785.0
786.0
784.0
787.0
789.0
790.0
794.0
795.0
798.0
799.0
797.0
793.0
795.0
793.0
797.0
801.0
802.0
807.0
808.0
810.0
807.0
807.0
807.0
806.0
809.0
811.0
812.0
816.0
820.0
826.0
829.0
833.0
834.0
837.0
838.0
837.0
838.0
842.0
842.0
848.0
855.0
863.0
867.0
872.0
872.0
877.0
878.0
879.0
883.0
882.0
887.0
892.0
897.0
898.0
905.0
906.0
907.0
908.0
907.0
905.0
902.0
901.0
897.0
895.0
892.0
890.0
885.0
880.0
869.0
864.0
854.0
848.0
841.0
836.0
831.0
827.0
826.0
824.0
821.0
817.0
813.0
808.0
802.0
801.0
795.0
794.0
790.0
790.0
791.0
793.0
795.0
795.0
796.0
795.0
794.0
791.0
792.0
791.0
792.0
790.0
793.0
795.0
798.0
799.0
799.0
801.0
798.0
797.0
796.0
794.0
794.0
794.0
798.0
799.0
800.0
801.0
797.0
798.0
793.0
794.0
792.0
794.0
789.0
790.0
789.0
791.0
794.0
793.0
795.0
792.0
790.0
786.0
784.0
782.0
780.0
779.0
785.0
786.0
789.0
788.0
788.0
786.0
783.0
782.0
781.0
782.0
783.0
783.0
785.0
788.0
789.0
789.0
785.0
782.0
785.0
784.0
784.0
779.0
779.0
778.0
781.0
784.0
789.0
785.0
784.0
785.0
783.0
779.0
780.0
780.0
777.0
779.0
781.0
786.0
789.0
793.0
797.0
799.0
799.0
797.0
800.0
798.0
798.0
799.0
800.0
803.0
806.0
807.0
809.0
810.0
811.0
815.0
816.0
817.0
815.0
814.0
812.0
812.0
812.0
810.0
809.0
808.0
806.0
804.0
804.0
798.0
791.0
788.0
785.0
781.0
779.0
777.0
772.0
772.0
770.0
770.0
774.0
775.0
775.0
777.0
776.0
777.0
776.0
778.0
780.0
778.0
776.0
777.0
781.0
785.0
799.0
822.0
856.0
901.0
960.0
1025.0
1098.0
1171.0
1251.0
1324.0
1390.0
1437.0
1452.0
1431.0
1360.0
1236.0
1108.0
980.0
852.0
724.0
661.0
692.0
744.0
790.0
820.0
829.0
819.0
805.0
792.0
783.0
781.0
779.0
781.0
780.0
781.0
780.0
779.0
777.0
778.0
783.0
787.0
786.0
791.0
790.0
789.0
790.0
790.0
790.0
790.0
795.0
799.0
800.0
802.0
804.0
803.0
807.0
807.0
805.0
803.0
804.0
808.0
811.0
815.0
820.0
825.0
830.0
831.0
833.0
833.0
831.0
832.0
834.0
838.0
843.0
849.0
852.0
860.0
864.0
864.0
868.0
870.0
872.0
875.0
880.0
881.0
886.0
889.0
891.0
895.0
900.0
904.0
907.0
907.0
909.0
911.0
912.0
910.0
910.0
915.0
913.0
916.0
917.0
912.0
910.0
907.0
902.0
903.0
898.0
890.0
885.0
884.0
880.0
877.0
875.0
867.0
863.0
856.0
853.0
846.0
840.0
838.0
833.0
830.0
826.0
824.0
824.0
826.0
825.0
824.0
822.0
820.0
817.0
817.0
817.0
817.0
821.0
821.0
823.0
825.0
825.0
821.0
821.0
821.0
824.0
824.0
823.0
826.0
829.0
830.0
831.0
831.0
830.0
826.0
824.0
822.0
821.0
821.0
822.0
827.0
826.0
827.0
829.0
824.0
828.0
824.0
824.0
821.0
819.0
818.0
819.0
820.0
820.0
821.0
822.0
821.0
819.0
818.0
812.0
810.0
811.0
813.0
812.0
815.0
816.0
818.0
817.0
816.0
816.0
817.0
816.0
815.0
813.0
813.0
816.0
817.0
819.0
819.0
823.0
822.0
821.0
819.0
817.0
814.0
812.0
810.0
814.0
815.0
815.0
817.0
820.0
819.0
819.0
818.0
817.0
814.0
811.0
815.0
814.0
820.0
819.0
823.0
826.0
830.0
831.0
833.0
838.0
837.0
838.0
839.0
840.0
843.0
842.0
841.0
843.0
847.0
847.0
855.0
854.0
856.0
857.0
855.0
852.0
849.0
848.0
851.0
851.0
850.0
848.0
845.0
841.0
834.0
826.0
822.0
818.0
819.0
817.0
819.0
817.0
810.0
809.0
808.0
808.0
808.0
807.0
807.0
809.0
809.0
810.0
814.0
815.0
812.0
811.0
811.0
810.0
809.0
809.0
824.0
843.0
880.0
926.0
990.0
1068.0
1153.0
1245.0
1338.0
1420.0
1475.0
1493.0
1456.0
1352.0
1224.0
1096.0
968.0
840.0
712.0
723.0
779.0
835.0
868.0
881.0
869.0
849.0
832.0
818.0
810.0
815.0
818.0
818.0
820.0
820.0
819.0
817.0
814.0
817.0
816.0
818.0
824.0
826.0
828.0
826.0
826.0
823.0
821.0
821.0
823.0
825.0
831.0
834.0
836.0
838.0
839.0
840.0
840.0
840.0
839.0
840.0
839.0
838.0
847.0
851.0
855.0
858.0
858.0
859.0
861.0
860.0
861.0
864.0
867.0
874.0
879.0
884.0
889.0
895.0
901.0
902.0
905.0
907.0
909.0
909.0
913.0
917.0
923.0
928.0
930.0
935.0
936.0
937.0
937.0
938.0
937.0
938.0
936.0
937.0
935.0
935.0
931.0
930.0
927.0
921.0
914.0
910.0
904.0
897.0
887.0
884.0
879.0
872.0
868.0
863.0
856.0
849.0
847.0
841.0
837.0
833.0
830.0
828.0
830.0
829.0
831.0
836.0
834.0
836.0
832.0
829.0
825.0
820.0
823.0
824.0
826.0
830.0
833.0
833.0
833.0
835.0
834.0
834.0
833.0
831.0
831.0
831.0
833.0
834.0
836.0
838.0
839.0
838.0
836.0
835.0
832.0
833.0
831.0
830.0
831.0
831.0
832.0
831.0
830.0
828.0
826.0
825.0
825.0
825.0
822.0
822.0
822.0
826.0
828.0
829.0
826.0
824.0
821.0
818.0
816.0
812.0
812.0
813.0
815.0
819.0
817.0
820.0
820.0
821.0
817.0
814.0
813.0
812.0
810.0
808.0
809.0
811.0
811.0
813.0
811.0
812.0
808.0
807.0
807.0
805.0
804.0
801.0
806.0
807.0
809.0
811.0
809.0
807.0
803.0
805.0
801.0
806.0
805.0
810.0
813.0
818.0
821.0
827.0
828.0
828.0
829.0
829.0
824.0
822.0
824.0
826.0
831.0
834.0
842.0
848.0
847.0
845.0
842.0
835.0
831.0
827.0
825.0
825.0
821.0
826.0
827.0
826.0
823.0
820.0
813.0
803.0
799.0
793.0
790.0
788.0
788.0
788.0
792.0
794.0
794.0
794.0
793.0
792.0
789.0
789.0
789.0
790.0
789.0
788.0
789.0
792.0
793.0
796.0
803.0
812.0
831.0
860.0
897.0
950.0
1016.0
1090.0
1174.0
1266.0
1355.0
1428.0
1477.0
1485.0
1439.0
1325.0
1197.0
1069.0
941.0
813.0
685.0
699.0
757.0
815.0
847.0
852.0
839.0
820.0
801.0
788.0
786.0
787.0
792.0
794.0
793.0
791.0
789.0
787.0
788.0
787.0
788.0
788.0
792.0
797.0
799.0
801.0
803.0
801.0
800.0
798.0
797.0
800.0
800.0
802.0
803.0
806.0
809.0
815.0
816.0
819.0
821.0
820.0
816.0
817.0
818.0
821.0
824.0
829.0
832.0
838.0
839.0
843.0
843.0
845.0
849.0
855.0
856.0
859.0
862.0
872.0
875.0
879.0
884.0
886.0
888.0
889.0
892.0
897.0
900.0
903.0
907.0
912.0
916.0
915.0
914.0
914.0
910.0
908.0
908.0
904.0
904.0
905.0
902.0
898.0
894.0
893.0
888.0
880.0
869.0
864.0
854.0
847.0
841.0
835.0
831.0
826.0
819.0
820.0
821.0
816.0
812.0
807.0
807.0
803.0
797.0
797.0
796.0
797.0
802.0
803.0
801.0
802.0
801.0
799.0
798.0
798.0
797.0
800.0
800.0
801.0
803.0
808.0
808.0
807.0
807.0
804.0
804.0
806.0
801.0
804.0
803.0
806.0
807.0
813.0
813.0
809.0
803.0
802.0
801.0
798.0
798.0
793.0
795.0
796.0
795.0
801.0
798.0
799.0
799.0
795.0
793.0
791.0
790.0
787.0
789.0
794.0
794.0
795.0
794.0
793.0
788.0
786.0
784.0
787.0
784.0
785.0
785.0
786.0
786.0
787.0
788.0
788.0
788.0
783.0
782.0
781.0
778.0
776.0
779.0
781.0
785.0
786.0
786.0
783.0
784.0
781.0
779.0
778.0
