# Simple Text Format
# Sampling Rate (Hz):= 360.00
# Resolution:= 12
# Labels:= ECG
835.0
824.0
815.0
805.0
798.0
798.0
794.0
792.0
788.0
785.0
783.0
779.0
776.0
775.0
773.0
773.0
774.0
775.0
772.0
775.0
774.0
775.0
773.0
772.0
771.0
771.0
772.0
772.0
774.0
774.0
777.0
784.0
784.0
783.0
782.0
783.0
778.0
781.0
778.0
778.0
778.0
781.0
780.0
780.0
782.0
782.0
781.0
777.0
776.0
775.0
772.0
773.0
775.0
773.0
771.0
775.0
781.0
777.0
776.0
774.0
773.0
768.0
767.0
766.0
770.0
773.0
773.0
775.0
773.0
773.0
772.0
770.0
766.0
764.0
763.0
764.0
765.0
768.0
768.0
771.0
773.0
773.0
772.0
770.0
767.0
766.0
763.0
762.0
766.0
761.0
762.0
766.0
766.0
766.0
763.0
761.0
760.0
758.0
758.0
758.0
761.0
766.0
765.0
769.0
770.0
769.0
768.0
766.0
763.0
763.0
761.0
761.0
763.0
766.0
769.0
775.0
779.0
783.0
788.0
787.0
789.0
786.0
784.0
785.0
782.0
790.0
789.0
791.0
793.0
793.0
796.0
797.0
799.0
801.0
799.0
800.0
801.0
800.0
799.0
799.0
798.0
798.0
793.0
791.0
788.0
791.0
790.0
783.0
779.0
777.0
774.0
775.0
771.0
767.0
763.0
760.0
764.0
762.0
764.0
762.0
765.0
766.0
766.0
768.0
770.0
775.0
774.0
773.0
773.0
773.0
773.0
780.0
796.0
819.0
861.0
920.0
994.0
1078.0
1176.0
1276.0
1366.0
1440.0
1487.0
1498.0
1462.0
1376.0
1248.0
1120.0
992.0
864.0
736.0
653.0
696.0
755.0
805.0
834.0
838.0
826.0
810.0
794.0
784.0
781.0
779.0
776.0
777.0
778.0
781.0
779.0
783.0
786.0
787.0
787.0
790.0
788.0
794.0
790.0
791.0
790.0
791.0
793.0
792.0
797.0
802.0
804.0
807.0
810.0
807.0
804.0
805.0
807.0
811.0
810.0
815.0
817.0
821.0
826.0
830.0
833.0
832.0
833.0
836.0
838.0
837.0
838.0
844.0
853.0
856.0
863.0
874.0
879.0
884.0
886.0
890.0
893.0
897.0
901.0
907.0
913.0
917.0
925.0
929.0
931.0
932.0
934.0
934.0
935.0
932.0
932.0
933.0
932.0
935.0
934.0
931.0
924.0
918.0
904.0
899.0
891.0
884.0
881.0
876.0
869.0
865.0
859.0
854.0
846.0
840.0
831.0
826.0
819.0
813.0
810.0
806.0
805.0
807.0
807.0
807.0
806.0
802.0
799.0
796.0
797.0
796.0
794.0
795.0
797.0
796.0
801.0
803.0
802.0
805.0
803.0
805.0
804.0
805.0
805.0
808.0
809.0
811.0
812.0
815.0
814.0
814.0
810.0
806.0
808.0
806.0
808.0
805.0
807.0
809.0
812.0
813.0
814.0
811.0
810.0
805.0
804.0
800.0
800.0
801.0
803.0
805.0
805.0
806.0
803.0
800.0
798.0
796.0
794.0
795.0
793.0
795.0
796.0
797.0
797.0
799.0
797.0
795.0
796.0
794.0
793.0
793.0
793.0
795.0
796.0
798.0
797.0
797.0
795.0
793.0
792.0
786.0
784.0
786.0
789.0
783.0
782.0
785.0
791.0
793.0
790.0
788.0
788.0
787.0
789.0
786.0
784.0
789.0
790.0
787.0
790.0
792.0
791.0
794.0
792.0
794.0
798.0
803.0
808.0
808.0
811.0
814.0
815.0
814.0
815.0
815.0
813.0
813.0
812.0
811.0
816.0
816.0
822.0
823.0
829.0
830.0
830.0
827.0
825.0
818.0
817.0
816.0
812.0
813.0
815.0
815.0
814.0
812.0
805.0
801.0
795.0
786.0
781.0
778.0
777.0
777.0
778.0
783.0
787.0
785.0
787.0
787.0
783.0
781.0
783.0
783.0
782.0
785.0
785.0
787.0
791.0
798.0
814.0
842.0
890.0
957.0
1037.0
1134.0
1237.0
1339.0
1429.0
1495.0
1532.0
1538.0
1506.0
1438.0
1320.0
1192.0
1064.0
936.0
808.0
680.0
705.0
762.0
818.0
853.0
858.0
849.0
825.0
805.0
793.0
782.0
782.0
785.0
789.0
789.0
795.0
797.0
797.0
795.0
788.0
790.0
790.0
791.0
793.0
792.0
793.0
798.0
801.0
804.0
804.0
802.0
803.0
802.0
801.0
803.0
803.0
806.0
804.0
810.0
815.0
820.0
820.0
823.0
822.0
824.0
824.0
823.0
828.0
831.0
835.0
842.0
845.0
852.0
858.0
860.0
863.0
865.0
867.0
867.0
873.0
875.0
883.0
889.0
898.0
904.0
911.0
915.0
920.0
923.0
923.0
926.0
929.0
933.0
936.0
938.0
939.0
941.0
938.0
937.0
936.0
932.0
929.0
926.0
920.0
915.0
913.0
907.0
903.0
893.0
884.0
874.0
862.0
852.0
844.0
837.0
833.0
828.0
828.0
823.0
822.0
820.0
817.0
816.0
812.0
808.0
803.0
804.0
799.0
798.0
800.0
799.0
801.0
803.0
803.0
802.0
801.0
801.0
799.0
800.0
801.0
800.0
802.0
803.0
802.0
805.0
807.0
808.0
807.0
806.0
805.0
803.0
803.0
802.0
803.0
810.0
809.0
809.0
806.0
807.0
804.0
806.0
802.0
796.0
798.0
797.0
801.0
802.0
804.0
805.0
803.0
802.0
800.0
796.0
790.0
791.0
790.0
789.0
791.0
792.0
795.0
797.0
796.0
796.0
795.0
790.0
789.0
787.0
787.0
786.0
786.0
787.0
785.0
790.0
788.0
786.0
782.0
783.0
783.0
782.0
782.0
781.0
782.0
783.0
784.0
787.0
785.0
782.0
781.0
780.0
777.0
779.0
777.0
777.0
778.0
780.0
783.0
785.0
782.0
779.0
781.0
779.0
773.0
778.0
778.0
780.0
785.0
790.0
796.0
801.0
802.0
801.0
802.0
799.0
797.0
796.0
796.0
798.0
800.0
800.0
804.0
810.0
812.0
814.0
812.0
809.0
811.0
807.0
805.0
803.0
804.0
802.0
803.0
802.0
800.0
799.0
798.0
790.0
785.0
778.0
774.0
765.0
763.0
760.0
765.0
770.0
771.0
771.0
771.0
767.0
767.0
766.0
765.0
763.0
770.0
770.0
770.0
773.0
772.0
769.0
771.0
769.0
775.0
785.0
801.0
834.0
876.0
935.0
1004.0
1085.0
1173.0
1260.0
1347.0
1418.0
1471.0
1496.0
1489.0
1440.0
1331.0
1203.0
1075.0
947.0
819.0
691.0
695.0
745.0
797.0
827.0
833.0
821.0
806.0
789.0
779.0
775.0
775.0
772.0
771.0
772.0
770.0
766.0
764.0
766.0
768.0
772.0
774.0
775.0
777.0
778.0
776.0
775.0
773.0
774.0
775.0
773.0
776.0
775.0
779.0
782.0
787.0
785.0
788.0
784.0
785.0
784.0
786.0
788.0
793.0
799.0
802.0
804.0
807.0
805.0
807.0
808.0
808.0
813.0
816.0
819.0
824.0
829.0
832.0
838.0
842.0
846.0
852.0
856.0
859.0
861.0
867.0
874.0
881.0
886.0
895.0
899.0
904.0
908.0
907.0
909.0
907.0
909.0
912.0
913.0
914.0
915.0
916.0
916.0
909.0
906.0
901.0
894.0
887.0
880.0
868.0
864.0
858.0
853.0
849.0
840.0
836.0
829.0
823.0
814.0
809.0
804.0
798.0
792.0
790.0
787.0
786.0
783.0
783.0
780.0
777.0
774.0
768.0
768.0
766.0
765.0
770.0
773.0
772.0
775.0
773.0
772.0
768.0
765.0
768.0
767.0
768.0
768.0
774.0
773.0
778.0
780.0
782.0
780.0
777.0
775.0
776.0
771.0
771.0
772.0
777.0
778.0
778.0
779.0
782.0
782.0
778.0
779.0
777.0
775.0
775.0
774.0
775.0
776.0
776.0
778.0
777.0
779.0
776.0
774.0
772.0
770.0
768.0
770.0
770.0
771.0
770.0
771.0
770.0
771.0
769.0
764.0
764.0
761.0
761.0
762.0
763.0
766.0
766.0
769.0
770.0
773.0
769.0
766.0
762.0
761.0
761.0
761.0
761.0
764.0
764.0
763.0
763.0
764.0
762.0
758.0
760.0
763.0
763.0
765.0
766.0
763.0
765.0
764.0
768.0
769.0
767.0
764.0
764.0
766.0
770.0
775.0
779.0
785.0
785.0
789.0
787.0
787.0
789.0
785.0
785.0
785.0
789.0
794.0
798.0
799.0
801.0
805.0
804.0
801.0
799.0
794.0
787.0
785.0
784.0
782.0
787.0
787.0
787.0
784.0
775.0
772.0
767.0
762.0
757.0
755.0
755.0
751.0
758.0
761.0
764.0
768.0
767.0
767.0
765.0
765.0
762.0
762.0
759.0
761.0
762.0
765.0
768.0
776.0
791.0
806.0
830.0
861.0
905.0
968.0
1039.0
1121.0
1207.0
1297.0
1379.0
1443.0
1479.0
1483.0
1434.0
1338.0
1210.0
1082.0
954.0
826.0
698.0
658.0
711.0
769.0
814.0
837.0
833.0
818.0
795.0
775.0
768.0
765.0
768.0
774.0
777.0
781.0
780.0
780.0
778.0
774.0
773.0
774.0
776.0
775.0
782.0
786.0
789.0
791.0
795.0
794.0
794.0
793.0
793.0
792.0
792.0
791.0
798.0
802.0
805.0
810.0
812.0
815.0
815.0
816.0
814.0
815.0
819.0
820.0
825.0
829.0
834.0
840.0
843.0
850.0
851.0
854.0
857.0
862.0
863.0
869.0
876.0
885.0
889.0
896.0
903.0
907.0
911.0
914.0
916.0
919.0
921.0
923.0
930.0
932.0
937.0
938.0
937.0
936.0
933.0
927.0
920.0
917.0
913.0
909.0
905.0
900.0
895.0
891.0
884.0
876.0
867.0
856.0
846.0
840.0
832.0
826.0
823.0
820.0
817.0
815.0
811.0
807.0
805.0
802.0
798.0
798.0
797.0
796.0
797.0
796.0
797.0
799.0
799.0
800.0
796.0
796.0
795.0
794.0
793.0
795.0
799.0
798.0
799.0
804.0
806.0
807.0
804.0
800.0
802.0
806.0
805.0
804.0
806.0
808.0
810.0
813.0
814.0
810.0
810.0
811.0
802.0
799.0
804.0
803.0
803.0
806.0
805.0
809.0
809.0
811.0
809.0
805.0
802.0
799.0
794.0
797.0
797.0
799.0
800.0
803.0
803.0
800.0
802.0
800.0
794.0
794.0
792.0
797.0
795.0
797.0
799.0
803.0
801.0
799.0
793.0
794.0
793.0
792.0
793.0
791.0
794.0
797.0
796.0
795.0
793.0
795.0
793.0
792.0
790.0
791.0
791.0
792.0
791.0
792.0
794.0
797.0
793.0
792.0
790.0
789.0
789.0
786.0
785.0
791.0
795.0
796.0
799.0
803.0
809.0
814.0
814.0
814.0
812.0
813.0
812.0
811.0
814.0
815.0
818.0
820.0
823.0
825.0
827.0
827.0
829.0
830.0
830.0
832.0
829.0
832.0
836.0
833.0
834.0
832.0
828.0
825.0
820.0
815.0
812.0
807.0
800.0
797.0
795.0
792.0
790.0
789.0
787.0
790.0
792.0
791.0
789.0
790.0
790.0
791.0
789.0
793.0
796.0
795.0
795.0
793.0
792.0
794.0
805.0
823.0
856.0
905.0
969.0
1050.0
1140.0
1234.0
1328.0
1412.0
1478.0
1519.0
1536.0
1530.0
1506.0
1449.0
1342.0
1214.0
1086.0
958.0
830.0
706.0
734.0
784.0
829.0
855.0
858.0
848.0
827.0
812.0
801.0
797.0
793.0
797.0
793.0
798.0
800.0
799.0
803.0
799.0
804.0
807.0
807.0
805.0
807.0
806.0
806.0
803.0
804.0
806.0
807.0
812.0
812.0
820.0
820.0
820.0
819.0
820.0
819.0
820.0
819.0
817.0
821.0
824.0
828.0
831.0
836.0
841.0
843.0
842.0
842.0
841.0
848.0
849.0
854.0
861.0
869.0
875.0
879.0
883.0
884.0
888.0
894.0
899.0
906.0
911.0
919.0
925.0
928.0
935.0
938.0
943.0
943.0
941.0
942.0
943.0
943.0
940.0
941.0
938.0
943.0
944.0
940.0
936.0
930.0
923.0
909.0
900.0
893.0
884.0
873.0
870.0
863.0
861.0
857.0
849.0
842.0
836.0
832.0
824.0
818.0
815.0
812.0
811.0
812.0
813.0
809.0
805.0
805.0
803.0
803.0
798.0
797.0
797.0
797.0
798.0
798.0
803.0
800.0
798.0
799.0
801.0
799.0
800.0
801.0
799.0
800.0
799.0
803.0
809.0
808.0
809.0
804.0
804.0
809.0
809.0
807.0
808.0
809.0
813.0
810.0
812.0
815.0
811.0
812.0
807.0
806.0
804.0
803.0
801.0
801.0
803.0
808.0
811.0
809.0
807.0
805.0
799.0
800.0
801.0
796.0
797.0
797.0
798.0
799.0
800.0
798.0
798.0
795.0
792.0
790.0
790.0
788.0
787.0
790.0
789.0
790.0
793.0
792.0
792.0
789.0
788.0
787.0
786.0
783.0
781.0
781.0
782.0
782.0
784.0
785.0
786.0
785.0
783.0
780.0
781.0
781.0
778.0
779.0
782.0
782.0
783.0
784.0
781.0
781.0
780.0
778.0
779.0
777.0
776.0
778.0
782.0
787.0
792.0
797.0
796.0
799.0
794.0
795.0
793.0
792.0
788.0
792.0
798.0
803.0
806.0
811.0
813.0
815.0
814.0
813.0
813.0
809.0
806.0
804.0
805.0
806.0
804.0
803.0
800.0
802.0
799.0
795.0
790.0
783.0
777.0
775.0
771.0
771.0
771.0
768.0
765.0
766.0
764.0
763.0
763.0
766.0
764.0
766.0
767.0
769.0
775.0
767.0
767.0
768.0
767.0
762.0
763.0
768.0
775.0
795.0
823.0
862.0
915.0
990.0
1068.0
1155.0
1246.0
1337.0
1413.0
1468.0
1499.0
1494.0
1450.0
1356.0
1228.0
1100.0
972.0
844.0
716.0
663.0
707.0
765.0
811.0
830.0
833.0
818.0
799.0
780.0
767.0
761.0
761.0
762.0
763.0
763.0
765.0
764.0
768.0
765.0
766.0
769.0
767.0
767.0
769.0
768.0
767.0
765.0
767.0
770.0
771.0
776.0
780.0
779.0
781.0
780.0
780.0
782.0
784.0
784.0
782.0
785.0
790.0
794.0
799.0
801.0
801.0
802.0
800.0
804.0
808.0
810.0
813.0
822.0
828.0
835.0
842.0
849.0
852.0
854.0
854.0
859.0
863.0
867.0
873.0
879.0
884.0
891.0
898.0
903.0
907.0
910.0
909.0
910.0
909.0
909.0
904.0
904.0
906.0
905.0
901.0
898.0
894.0
886.0
881.0
873.0
862.0
852.0
843.0
833.0
827.0
825.0
819.0
810.0
805.0
797.0
793.0
785.0
783.0
775.0
770.0
767.0
767.0
772.0
772.0
771.0
769.0
766.0
763.0
759.0
759.0
757.0
758.0
760.0
762.0
763.0
767.0
766.0
768.0
766.0
767.0
764.0
767.0
765.0
768.0
766.0
770.0
771.0
774.0
775.0
774.0
771.0
768.0
767.0
768.0
767.0
767.0
769.0
772.0
771.0
775.0
775.0
775.0
775.0
771.0
770.0
766.0
767.0
766.0
766.0
765.0
768.0
767.0
767.0
766.0
767.0
761.0
760.0
759.0
758.0
757.0
758.0
763.0
764.0
766.0
770.0
763.0
764.0
757.0
756.0
758.0
755.0
753.0
755.0
758.0
759.0
762.0
761.0
763.0
760.0
757.0
756.0
755.0
754.0
751.0
754.0
758.0
758.0
760.0
763.0
761.0
761.0
759.0
757.0
755.0
753.0
755.0
756.0
758.0
756.0
759.0
761.0
760.0
760.0
760.0
762.0
762.0
767.0
773.0
777.0
781.0
782.0
787.0
787.0
783.0
785.0
783.0
779.0
778.0
782.0
783.0
788.0
793.0
797.0
801.0
799.0
797.0
793.0
789.0
788.0
788.0
783.0
782.0
780.0
781.0
785.0
784.0
782.0
778.0
773.0
767.0
762.0
755.0
752.0
749.0
749.0
750.0
753.0
758.0
759.0
761.0
759.0
754.0
756.0
755.0
753.0
756.0
756.0
758.0
761.0
763.0
766.0
772.0
780.0
796.0
821.0
863.0
921.0
995.0
1076.0
1160.0
1251.0
1340.0
1416.0
1470.0
1501.0
1505.0
1474.0
1401.0
1273.0
1145.0
1017.0
889.0
761.0
659.0
689.0
742.0
791.0
818.0
824.0
808.0
790.0
772.0
762.0
763.0
762.0
767.0
772.0
770.0
768.0
766.0
768.0
768.0
765.0
767.0
770.0
770.0
776.0
777.0
781.0
783.0
780.0
780.0
780.0
781.0
783.0
783.0
783.0
789.0
792.0
796.0
796.0
797.0
799.0
800.0
803.0
803.0
807.0
808.0
811.0
814.0
816.0
821.0
828.0
830.0
832.0
834.0
836.0
838.0
842.0
848.0
853.0
860.0
867.0
872.0
880.0
884.0
885.0
893.0
896.0
900.0
904.0
910.0
914.0
919.0
919.0
927.0
933.0
931.0
934.0
930.0
929.0
926.0
922.0
921.0
919.0
918.0
917.0
913.0
909.0
900.0
888.0
879.0
867.0
857.0
850.0
844.0
835.0
832.0
827.0
821.0
818.0
814.0
813.0
806.0
803.0
800.0
796.0
795.0
793.0
795.0
793.0
795.0
796.0
793.0
793.0
795.0
791.0
792.0
791.0
791.0
794.0
797.0
799.0
801.0
803.0
805.0
804.0
804.0
801.0
800.0
801.0
800.0
800.0
803.0
806.0
807.0
809.0
810.0
809.0
806.0
805.0
802.0
801.0
798.0
803.0
805.0
805.0
806.0
808.0
806.0
805.0
804.0
801.0
799.0
797.0
796.0
796.0
798.0
801.0
798.0
800.0
800.0
796.0
798.0
796.0
798.0
795.0
794.0
792.0
795.0
795.0
794.0
795.0
793.0
795.0
795.0
794.0
791.0
791.0
789.0
787.0
789.0
789.0
788.0
792.0
794.0
794.0
794.0
791.0
789.0
792.0
790.0
790.0
792.0
792.0
793.0
796.0
797.0
795.0
794.0
793.0
789.0
788.0
786.0
791.0
794.0
798.0
802.0
806.0
808.0
810.0
815.0
814.0
811.0
808.0
809.0
813.0
814.0
816.0
815.0
821.0
823.0
827.0
830.0
832.0
833.0
833.0
832.0
827.0
825.0
826.0
825.0
828.0
826.0
826.0
822.0
818.0
815.0
811.0
806.0
800.0
800.0
796.0
792.0
790.0
788.0
789.0
787.0
784.0
784.0
785.0
785.0
784.0
790.0
790.0
794.0
791.0
793.0
792.0
791.0
789.0
787.0
788.0
789.0
793.0
804.0
824.0
855.0
901.0
956.0
1025.0
1105.0
1184.0
1267.0
1350.0
1421.0
1475.0
1510.0
1516.0
1499.0
1446.0
1340.0
1212.0
1084.0
956.0
828.0
700.0
723.0
776.0
825.0
856.0
863.0
854.0
835.0
814.0
800.0
795.0
794.0
795.0
797.0
797.0
799.0
799.0
799.0
799.0
798.0
798.0
796.0
794.0
793.0
793.0
795.0
796.0
798.0
802.0
803.0
806.0
806.0
808.0
808.0
809.0
810.0
807.0
811.0
813.0
816.0
816.0
820.0
821.0
825.0
827.0
827.0
831.0
830.0
833.0
834.0
837.0
839.0
843.0
848.0
855.0
858.0
858.0
862.0
866.0
868.0
871.0
876.0
880.0
887.0
894.0
897.0
909.0
912.0
912.0
919.0
923.0
925.0
930.0
934.0
938.0
940.0
943.0
948.0
950.0
953.0
952.0
950.0
949.0
944.0
941.0
936.0
932.0
929.0
922.0
918.0
912.0
903.0
893.0
881.0
875.0
864.0
858.0
850.0
846.0
838.0
835.0
833.0
830.0
827.0
825.0
819.0
817.0
809.0
809.0
806.0
805.0
806.0
807.0
807.0
808.0
807.0
804.0
803.0
802.0
802.0
802.0
802.0
802.0
802.0
806.0
807.0
810.0
811.0
811.0
811.0
808.0
810.0
809.0
810.0
811.0
814.0
815.0
816.0
819.0
819.0
819.0
816.0
814.0
814.0
813.0
809.0
811.0
812.0
814.0
814.0
813.0
812.0
812.0
812.0
810.0
806.0
804.0
801.0
803.0
802.0
804.0
804.0
809.0
809.0
806.0
802.0
801.0
801.0
798.0
793.0
793.0
794.0
794.0
795.0
798.0
796.0
798.0
796.0
792.0
791.0
792.0
791.0
792.0
792.0
792.0
792.0
793.0
793.0
793.0
794.0
792.0
791.0
787.0
787.0
787.0
786.0
790.0
789.0
791.0
787.0
785.0
782.0
783.0
781.0
782.0
782.0
782.0
789.0
792.0
794.0
799.0
802.0
803.0
805.0
801.0
803.0
804.0
804.0
802.0
805.0
810.0
810.0
815.0
816.0
820.0
825.0
826.0
826.0
822.0
821.0
819.0
817.0
813.0
811.0
811.0
809.0
808.0
806.0
804.0
802.0
794.0
789.0
785.0
785.0
779.0
777.0
776.0
776.0
776.0
775.0
774.0
771.0
770.0
771.0
773.0
775.0
776.0
777.0
780.0
782.0
777.0
775.0
775.0
773.0
780.0
792.0
809.0
840.0
880.0
937.0
1004.0
1080.0
1158.0
1242.0
1329.0
1405.0
1468.0
1496.0
1491.0
1443.0
1338.0
1210.0
1082.0
954.0
826.0
698.0
686.0
738.0
795.0
830.0
843.0
839.0
819.0
802.0
787.0
780.0
776.0
774.0
773.0
775.0
778.0
777.0
777.0
777.0
780.0
784.0
784.0
784.0
785.0
784.0
780.0
782.0
781.0
784.0
782.0
783.0
788.0
790.0
790.0
792.0
796.0
794.0
794.0
794.0
796.0
798.0
800.0
801.0
808.0
811.0
817.0
817.0
819.0
818.0
818.0
821.0
822.0
826.0
829.0
833.0
837.0
844.0
855.0
859.0
863.0
867.0
868.0
872.0
877.0
880.0
885.0
891.0
897.0
903.0
907.0
914.0
915.0
915.0
919.0
916.0
917.0
919.0
917.0
921.0
918.0
917.0
916.0
912.0
908.0
901.0
891.0
879.0
876.0
863.0
857.0
847.0
841.0
837.0
835.0
829.0
816.0
811.0
806.0
797.0
792.0
789.0
787.0
786.0
781.0
783.0
782.0
783.0
781.0
778.0
775.0
772.0
773.0
770.0
770.0
772.0
775.0
779.0
776.0
779.0
778.0
775.0
775.0
775.0
772.0
775.0
773.0
777.0
780.0
783.0
786.0
785.0
787.0
785.0
781.0
781.0
780.0
778.0
779.0
777.0
780.0
783.0
784.0
783.0
783.0
778.0
774.0
775.0
775.0
774.0
772.0
775.0
775.0
776.0
777.0
774.0
775.0
771.0
772.0
771.0
767.0
765.0
764.0
766.0
770.0
771.0
774.0
775.0
773.0
772.0
770.0
771.0
770.0
768.0
768.0
766.0
764.0
765.0
763.0
767.0
768.0
766.0
765.0
768.0
764.0
766.0
764.0
764.0
766.0
767.0
769.0
765.0
765.0
764.0
762.0
762.0
761.0
756.0
756.0
762.0
761.0
766.0
769.0
769.0
770.0
768.0
765.0
765.0
765.0
765.0
767.0
773.0
779.0
782.0
788.0
789.0
789.0
786.0
783.0
781.0
780.0
780.0
780.0
788.0
790.0
794.0
800.0
803.0
807.0
804.0
800.0
796.0
796.0
795.0
792.0
792.0
792.0
789.0
790.0
791.0
789.0
785.0
782.0
777.0
769.0
766.0
763.0
759.0
759.0
759.0
762.0
764.0
761.0
762.0
761.0
757.0
758.0
754.0
754.0
758.0
761.0
764.0
767.0
766.0
765.0
764.0
764.0
765.0
771.0
783.0
803.0
839.0
880.0
935.0
999.0
1067.0
1144.0
1230.0
1314.0
1393.0
1450.0
1474.0
1461.0
1394.0
1272.0
1144.0
1016.0
888.0
760.0
667.0
698.0
747.0
790.0
816.0
824.0
815.0
801.0
785.0
780.0
772.0
771.0
772.0
770.0
767.0
769.0
767.0
767.0
766.0
770.0
772.0
775.0
779.0
781.0
780.0
777.0
778.0
779.0
775.0
780.0
778.0
782.0
786.0
787.0
790.0
792.0
792.0
793.0
787.0
789.0
790.0
796.0
799.0
805.0
807.0
814.0
814.0
816.0
816.0
817.0
819.0
819.0
825.0
831.0
835.0
835.0
845.0
853.0
860.0
864.0
869.0
870.0
873.0
879.0
880.0
888.0
893.0
898.0
908.0
913.0
915.0
920.0
920.0
922.0
922.0
920.0
922.0
923.0
920.0
924.0
924.0
926.0
923.0
915.0
914.0
907.0
899.0
890.0
886.0
875.0
869.0
864.0
859.0
856.0
847.0
842.0
833.0
827.0
819.0
815.0
811.0
807.0
806.0
803.0
804.0
804.0
799.0
798.0
794.0
790.0
790.0
791.0
790.0
788.0
789.0
792.0
794.0
799.0
798.0
797.0
797.0
797.0
797.0
798.0
798.0
798.0
799.0
801.0
801.0
805.0
804.0
805.0
804.0
803.0
803.0
802.0
802.0
802.0
805.0
801.0
802.0
804.0
805.0
804.0
803.0
800.0
798.0
798.0
796.0
796.0
796.0
795.0
797.0
800.0
797.0
799.0
799.0
797.0
792.0
793.0
789.0
790.0
792.0
791.0
792.0
795.0
794.0
794.0
792.0
790.0
786.0
785.0
786.0
786.0
783.0
783.0
785.0
789.0
788.0
788.0
787.0
783.0
782.0
780.0
781.0
778.0
783.0
785.0
785.0
791.0
790.0
788.0
784.0
786.0
784.0
786.0
785.0
783.0
783.0
784.0
787.0
788.0
789.0
788.0
787.0
785.0
785.0
784.0
784.0
785.0
786.0
785.0
788.0
795.0
797.0
796.0
795.0
799.0
800.0
804.0
804.0
805.0
809.0
813.0
814.0
815.0
816.0
815.0
815.0
821.0
820.0
819.0
821.0
818.0
820.0
828.0
828.0
829.0
827.0
824.0
821.0
820.0
816.0
816.0
815.0
811.0
811.0
807.0
802.0
797.0
795.0
791.0
786.0
782.0
781.0
778.0
778.0
778.0
779.0
779.0
780.0
785.0
787.0
788.0
780.0
783.0
785.0
783.0
781.0
781.0
782.0
783.0
791.0
806.0
825.0
853.0
895.0
948.0
1009.0
1079.0
1149.0
1226.0
1309.0
1387.0
1448.0
1493.0
1502.0
1475.0
1405.0
1280.0
1152.0
1024.0
896.0
768.0
684.0
727.0
785.0
836.0
860.0
859.0
843.0
819.0
801.0
790.0
785.0
785.0
789.0
791.0
795.0
796.0
793.0
791.0
791.0
789.0
790.0
792.0
791.0
789.0
792.0
796.0
800.0
802.0
804.0
807.0
805.0
804.0
803.0
804.0
801.0
802.0
806.0
812.0
815.0
818.0
818.0
818.0
821.0
822.0
822.0
826.0
824.0
825.0
827.0
838.0
840.0
845.0
849.0
852.0
857.0
858.0
857.0
862.0
863.0
864.0
870.0
883.0
891.0
899.0
902.0
911.0
917.0
920.0
924.0
925.0
927.0
929.0
933.0
937.0
941.0
945.0
946.0
944.0
946.0
942.0
938.0
938.0
931.0
924.0
919.0
916.0
906.0
901.0
892.0
882.0
872.0
861.0
854.0
847.0
838.0
832.0
829.0
827.0
826.0
824.0
824.0
818.0
814.0
810.0
807.0
803.0
802.0
797.0
798.0
798.0
798.0
802.0
798.0
801.0
801.0
801.0
800.0
800.0
800.0
801.0
797.0
801.0
806.0
806.0
807.0
808.0
807.0
804.0
806.0
806.0
807.0
806.0
807.0
812.0
812.0
818.0
817.0
819.0
817.0
815.0
815.0
813.0
810.0
812.0
809.0
815.0
817.0
820.0
822.0
826.0
827.0
828.0
828.0
835.0
838.0
842.0
852.0
861.0
870.0
882.0
893.0
912.0
931.0
953.0
977.0
1003.0
1024.0
1041.0
1054.0
1069.0
1085.0
1106.0
1125.0
1136.0
1145.0
1148.0
1147.0
1143.0
1138.0
1130.0
1122.0
1113.0
1102.0
1096.0
1098.0
1104.0
1113.0
1119.0
1117.0
1105.0
1091.0
1087.0
1102.0
1138.0
1194.0
1261.0
1316.0
1356.0
1377.0
1370.0
1331.0
1262.0
1172.0
1073.0
979.0
898.0
834.0
788.0
756.0
737.0
727.0
725.0
725.0
720.0
713.0
700.0
692.0
691.0
687.0
694.0
699.0
706.0
710.0
710.0
706.0
703.0
699.0
694.0
691.0
694.0
692.0
693.0
693.0
691.0
688.0
683.0
682.0
684.0
677.0
676.0
677.0
676.0
682.0
686.0
688.0
688.0
688.0
692.0
691.0
691.0
693.0
693.0
699.0
702.0
712.0
722.0
726.0
737.0
749.0
760.0
773.0
788.0
803.0
820.0
835.0
854.0
869.0
885.0
901.0
916.0
927.0
937.0
949.0
953.0
957.0
962.0
967.0
972.0
973.0
974.0
972.0
962.0
955.0
943.0
933.0
927.0
913.0
906.0
896.0
888.0
881.0
873.0
862.0
855.0
846.0
835.0
826.0
817.0
811.0
805.0
801.0
801.0
795.0
796.0
792.0
791.0
786.0
780.0
780.0
774.0
771.0
770.0
769.0
768.0
769.0
769.0
769.0
769.0
767.0
762.0
761.0
759.0
758.0
757.0
752.0
755.0
753.0
757.0
758.0
756.0
755.0
750.0
751.0
747.0
745.0
744.0
748.0
751.0
750.0
752.0
751.0
749.0
750.0
748.0
745.0
744.0
742.0
741.0
743.0
742.0
743.0
747.0
744.0
746.0
745.0
744.0
744.0
742.0
740.0
741.0
740.0
744.0
747.0
745.0
746.0
745.0
744.0
742.0
740.0
739.0
738.0
737.0
739.0
741.0
744.0
745.0
750.0
748.0
746.0
742.0
741.0
741.0
739.0
739.0
742.0
741.0
743.0
745.0
744.0
746.0
746.0
745.0
742.0
742.0
739.0
738.0
741.0
741.0
742.0
743.0
744.0
748.0
743.0
744.0
739.0
743.0
740.0
740.0
742.0
741.0
741.0
744.0
746.0
743.0
742.0
742.0
739.0
743.0
739.0
741.0
742.0
745.0
748.0
751.0
748.0
747.0
746.0
746.0
745.0
742.0
743.0
743.0
745.0
745.0
747.0
750.0
750.0
751.0
749.0
746.0
746.0
743.0
743.0
741.0
741.0
745.0
746.0
749.0
747.0
747.0
753.0
749.0
748.0
746.0
746.0
744.0
746.0
749.0
747.0
751.0
752.0
749.0
748.0
750.0
749.0
751.0
751.0
750.0
752.0
753.0
755.0
756.0
755.0
756.0
753.0
753.0
750.0
752.0
752.0
753.0
755.0
757.0
759.0
766.0
769.0
777.0
775.0
776.0
774.0
770.0
770.0
770.0
770.0
772.0
777.0
782.0
786.0
790.0
791.0
795.0
795.0
794.0
791.0
790.0
789.0
787.0
788.0
789.0
787.0
791.0
785.0
783.0
783.0
782.0
780.0
776.0
771.0
771.0
763.0
762.0
760.0
758.0
755.0
752.0
752.0
752.0
751.0
754.0
755.0
756.0
758.0
762.0
764.0
765.0
764.0
759.0
757.0
756.0
760.0
769.0
783.0
805.0
834.0
875.0
935.0
1001.0
1084.0
1169.0
1261.0
1344.0
1413.0
1456.0
1475.0
1464.0
1411.0
1316.0
1188.0
1060.0
