# Simple Text Format
# Sampling Rate (Hz):= 360.00
# Resolution:= 12
# Labels:= ECG
1035.0
1037.0
1035.0
1035.0
1030.0
1023.0
1020.0
1015.0
1011.0
1011.0
1009.0
1005.0
1003.0
1005.0
1001.0
1003.0
1004.0
1000.0
998.0
1000.0
1004.0
1007.0
1012.0
1010.0
1010.0
1009.0
1006.0
1006.0
1013.0
1023.0
1039.0
1064.0
1099.0
1145.0
1203.0
1267.0
1335.0
1406.0
1465.0
1506.0
1530.0
1520.0
1468.0
1366.0
1238.0
1110.0
982.0
882.0
880.0
920.0
977.0
1022.0
1048.0
1046.0
1035.0
1019.0
1004.0
996.0
995.0
994.0
998.0
997.0
994.0
996.0
993.0
989.0
986.0
989.0
989.0
989.0
987.0
988.0
988.0
986.0
984.0
983.0
985.0
987.0
988.0
988.0
989.0
993.0
989.0
994.0
999.0
1001.0
1002.0
1001.0
1000.0
1000.0
998.0
1002.0
1006.0
1009.0
1011.0
1006.0
1005.0
1004.0
1005.0
1006.0
1008.0
1006.0
1010.0
1014.0
1022.0
1029.0
1038.0
1046.0
1054.0
1054.0
1053.0
1057.0
1057.0
1059.0
1061.0
1066.0
1073.0
1076.0
1082.0
1084.0
1080.0
1080.0
1078.0
1078.0
1076.0
1073.0
1073.0
1075.0
1073.0
1068.0
1068.0
1067.0
1067.0
1064.0
1058.0
1050.0
1039.0
1027.0
1014.0
1008.0
1005.0
1003.0
1005.0
1003.0
1000.0
995.0
986.0
979.0
969.0
966.0
963.0
965.0
965.0
962.0
962.0
958.0
954.0
951.0
946.0
945.0
943.0
937.0
935.0
931.0
937.0
940.0
946.0
944.0
945.0
940.0
934.0
927.0
927.0
922.0
923.0
925.0
932.0
936.0
936.0
934.0
932.0
928.0
928.0
926.0
922.0
918.0
914.0
916.0
919.0
923.0
929.0
931.0
929.0
925.0
918.0
913.0
909.0
910.0
909.0
910.0
907.0
906.0
909.0
909.0
909.0
908.0
904.0
898.0
895.0
892.0
895.0
900.0
900.0
903.0
900.0
893.0
887.0
886.0
880.0
878.0
880.0
879.0
878.0
880.0
879.0
877.0
877.0
875.0
870.0
869.0
871.0
870.0
871.0
870.0
869.0
867.0
864.0
864.0
864.0
863.0
861.0
859.0
854.0
854.0
855.0
850.0
848.0
847.0
848.0
851.0
856.0
860.0
864.0
864.0
860.0
856.0
852.0
850.0
849.0
848.0
851.0
850.0
858.0
859.0
861.0
862.0
863.0
860.0
859.0
857.0
855.0
852.0
850.0
847.0
845.0
841.0
835.0
835.0
830.0
830.0
826.0
820.0
808.0
802.0
797.0
796.0
795.0
793.0
788.0
786.0
784.0
783.0
785.0
780.0
780.0
780.0
782.0
784.0
787.0
789.0
786.0
787.0
781.0
782.0
785.0
790.0
807.0
834.0
872.0
922.0
986.0
1054.0
1132.0
1216.0
1297.0
1364.0
1414.0
1433.0
1415.0
1350.0
1234.0
1106.0
978.0
850.0
722.0
631.0
658.0
711.0
765.0
800.0
813.0
806.0
789.0
773.0
765.0
755.0
753.0
754.0
754.0
753.0
754.0
753.0
752.0
752.0
757.0
758.0
759.0
761.0
761.0
761.0
754.0
751.0
750.0
750.0
753.0
756.0
762.0
762.0
761.0
764.0
765.0
764.0
765.0
768.0
770.0
767.0
768.0
768.0
769.0
773.0
777.0
782.0
784.0
784.0
785.0
784.0
785.0
788.0
787.0
792.0
801.0
807.0
818.0
823.0
826.0
833.0
833.0
836.0
836.0
842.0
846.0
850.0
853.0
856.0
859.0
864.0
864.0
865.0
863.0
860.0
856.0
855.0
853.0
853.0
855.0
852.0
849.0
844.0
834.0
827.0
819.0
811.0
804.0
796.0
787.0
781.0
773.0
771.0
767.0
761.0
755.0
746.0
735.0
728.0
728.0
727.0
728.0
727.0
732.0
731.0
732.0
729.0
726.0
723.0
720.0
720.0
722.0
724.0
722.0
724.0
724.0
723.0
724.0
726.0
726.0
726.0
728.0
726.0
727.0
726.0
725.0
725.0
725.0
725.0
727.0
725.0
726.0
726.0
727.0
724.0
723.0
717.0
714.0
718.0
719.0
724.0
727.0
727.0
725.0
722.0
718.0
717.0
720.0
718.0
718.0
717.0
717.0
717.0
718.0
716.0
715.0
709.0
709.0
708.0
705.0
704.0
704.0
704.0
705.0
706.0
704.0
708.0
712.0
714.0
712.0
708.0
706.0
701.0
702.0
705.0
707.0
710.0
714.0
713.0
710.0
704.0
699.0
694.0
694.0
697.0
702.0
712.0
719.0
724.0
728.0
726.0
725.0
722.0
721.0
721.0
723.0
725.0
726.0
731.0
734.0
738.0
742.0
750.0
750.0
752.0
747.0
741.0
736.0
731.0
731.0
733.0
730.0
729.0
730.0
729.0
732.0
731.0
730.0
727.0
721.0
714.0
708.0
704.0
702.0
703.0
705.0
705.0
705.0
709.0
707.0
709.0
710.0
711.0
714.0
715.0
716.0
718.0
720.0
719.0
717.0
722.0
727.0
744.0
770.0
812.0
866.0
937.0
1002.0
1077.0
1152.0
1220.0
1273.0
1307.0
1317.0
1292.0
1228.0
1115.0
987.0
859.0
731.0
619.0
603.0
624.0
671.0
710.0
742.0
755.0
754.0
742.0
729.0
720.0
715.0
714.0
719.0
723.0
724.0
723.0
720.0
720.0
721.0
722.0
722.0
725.0
729.0
736.0
737.0
736.0
736.0
734.0
732.0
733.0
733.0
735.0
735.0
737.0
739.0
741.0
742.0
743.0
748.0
749.0
749.0
752.0
754.0
755.0
757.0
760.0
761.0
762.0
765.0
768.0
773.0
776.0
782.0
782.0
786.0
782.0
787.0
795.0
797.0
802.0
807.0
809.0
814.0
818.0
819.0
821.0
824.0
823.0
825.0
825.0
829.0
835.0
839.0
840.0
838.0
834.0
829.0
825.0
824.0
822.0
819.0
816.0
810.0
804.0
795.0
788.0
780.0
771.0
766.0
764.0
762.0
754.0
749.0
743.0
738.0
736.0
736.0
730.0
724.0
718.0
709.0
706.0
703.0
699.0
700.0
709.0
712.0
714.0
714.0
711.0
706.0
702.0
699.0
695.0
693.0
695.0
693.0
697.0
699.0
700.0
706.0
704.0
701.0
702.0
700.0
693.0
692.0
693.0
695.0
697.0
700.0
701.0
705.0
704.0
695.0
690.0
690.0
691.0
690.0
691.0
693.0
695.0
691.0
694.0
696.0
698.0
698.0
696.0
690.0
687.0
681.0
677.0
674.0
675.0
682.0
684.0
689.0
688.0
688.0
687.0
685.0
684.0
684.0
683.0
683.0
682.0
682.0
678.0
677.0
675.0
675.0
676.0
673.0
671.0
669.0
672.0
672.0
674.0
676.0
674.0
677.0
674.0
674.0
673.0
669.0
671.0
673.0
679.0
681.0
688.0
692.0
694.0
695.0
695.0
694.0
692.0
695.0
691.0
691.0
691.0
693.0
698.0
700.0
701.0
706.0
704.0
701.0
697.0
695.0
690.0
688.0
683.0
682.0
682.0
678.0
674.0
672.0
667.0
659.0
653.0
648.0
644.0
640.0
643.0
645.0
649.0
655.0
658.0
660.0
659.0
658.0
656.0
654.0
650.0
651.0
648.0
648.0
652.0
653.0
661.0
675.0
698.0
731.0
776.0
831.0
899.0
972.0
1050.0
1124.0
1193.0
1245.0
1277.0
1271.0
1208.0
1080.0
952.0
824.0
696.0
568.0
526.0
575.0
629.0
674.0
698.0
699.0
684.0
667.0
652.0
642.0
639.0
640.0
641.0
643.0
641.0
644.0
644.0
649.0
647.0
650.0
651.0
650.0
648.0
647.0
646.0
644.0
643.0
648.0
652.0
656.0
659.0
659.0
662.0
660.0
658.0
658.0
658.0
658.0
659.0
661.0
663.0
665.0
669.0
668.0
676.0
675.0
678.0
675.0
679.0
680.0
683.0
688.0
694.0
701.0
707.0
710.0
711.0
708.0
709.0
708.0
713.0
714.0
719.0
722.0
728.0
733.0
740.0
743.0
747.0
746.0
752.0
752.0
754.0
755.0
758.0
762.0
763.0
767.0
764.0
767.0
763.0
758.0
756.0
751.0
744.0
741.0
740.0
736.0
728.0
722.0
718.0
712.0
704.0
693.0
689.0
683.0
679.0
679.0
680.0
682.0
680.0
684.0
679.0
677.0
671.0
668.0
662.0
657.0
663.0
664.0
665.0
669.0
667.0
667.0
668.0
664.0
662.0
659.0
660.0
667.0
667.0
667.0
668.0
668.0
671.0
673.0
675.0
673.0
672.0
671.0
672.0
675.0
675.0
677.0
677.0
682.0
685.0
691.0
691.0
696.0
703.0
707.0
713.0
721.0
729.0
739.0
749.0
766.0
781.0
797.0
815.0
830.0
850.0
873.0
901.0
934.0
964.0
996.0
1032.0
1069.0
1103.0
1141.0
1178.0
1214.0
1250.0
1286.0
1317.0
1349.0
1375.0
1403.0
1429.0
1457.0
1479.0
1493.0
1497.0
1493.0
1466.0
1405.0
1294.0
1166.0
1038.0
910.0
782.0
656.0
651.0
658.0
667.0
667.0
657.0
639.0
619.0
606.0
598.0
595.0
597.0
604.0
607.0
611.0
611.0
611.0
608.0
601.0
595.0
589.0
586.0
581.0
579.0
579.0
576.0
572.0
572.0
568.0
562.0
559.0
555.0
556.0
552.0
550.0
544.0
546.0
545.0
545.0
540.0
535.0
532.0
529.0
527.0
522.0
520.0
512.0
506.0
503.0
502.0
500.0
496.0
493.0
489.0
484.0
479.0
476.0
478.0
475.0
475.0
475.0
476.0
482.0
483.0
483.0
487.0
488.0
490.0
497.0
505.0
511.0
519.0
529.0
539.0
550.0
563.0
569.0
581.0
590.0
596.0
601.0
610.0
619.0
629.0
636.0
646.0
649.0
655.0
657.0
659.0
659.0
658.0
658.0
660.0
657.0
662.0
666.0
666.0
674.0
675.0
673.0
674.0
671.0
671.0
671.0
668.0
669.0
668.0
671.0
672.0
672.0
673.0
673.0
670.0
670.0
668.0
666.0
664.0
666.0
666.0
668.0
668.0
667.0
670.0
671.0
668.0
674.0
672.0
668.0
666.0
664.0
664.0
665.0
667.0
671.0
670.0
671.0
667.0
669.0
664.0
664.0
663.0
662.0
661.0
664.0
667.0
669.0
673.0
670.0
670.0
668.0
666.0
663.0
663.0
666.0
664.0
666.0
669.0
672.0
674.0
673.0
672.0
670.0
668.0
666.0
662.0
662.0
663.0
668.0
672.0
678.0
678.0
675.0
675.0
673.0
671.0
668.0
669.0
668.0
671.0
674.0
673.0
674.0
676.0
676.0
679.0
677.0
673.0
674.0
674.0
676.0
673.0
675.0
676.0
674.0
677.0
679.0
681.0
679.0
676.0
671.0
674.0
674.0
671.0
675.0
675.0
680.0
678.0
681.0
683.0
681.0
679.0
678.0
675.0
674.0
673.0
674.0
678.0
681.0
683.0
681.0
682.0
679.0
672.0
672.0
670.0
677.0
675.0
677.0
679.0
683.0
684.0
685.0
686.0
683.0
682.0
679.0
678.0
679.0
681.0
684.0
687.0
687.0
688.0
690.0
685.0
683.0
681.0
682.0
680.0
683.0
683.0
686.0
685.0
686.0
690.0
690.0
692.0
689.0
687.0
686.0
684.0
685.0
684.0
685.0
689.0
689.0
695.0
693.0
694.0
694.0
695.0
695.0
702.0
704.0
706.0
712.0
711.0
712.0
717.0
714.0
714.0
712.0
713.0
709.0
710.0
718.0
723.0
729.0
732.0
733.0
734.0
728.0
724.0
720.0
721.0
717.0
717.0
716.0
718.0
718.0
719.0
718.0
717.0
713.0
710.0
705.0
696.0
693.0
690.0
686.0
693.0
694.0
698.0
702.0
702.0
702.0
703.0
701.0
701.0
700.0
699.0
702.0
705.0
711.0
723.0
739.0
762.0
792.0
836.0
891.0
952.0
1023.0
1092.0
1170.0
1231.0
1274.0
1287.0
1262.0
1188.0
1061.0
933.0
805.0
677.0
595.0
595.0
634.0
683.0
721.0
750.0
755.0
752.0
740.0
731.0
723.0
717.0
716.0
718.0
716.0
715.0
725.0
730.0
732.0
736.0
736.0
735.0
736.0
735.0
736.0
737.0
739.0
740.0
743.0
748.0
750.0
751.0
752.0
750.0
751.0
752.0
751.0
754.0
754.0
756.0
760.0
764.0
770.0
774.0
776.0
780.0
782.0
783.0
784.0
783.0
786.0
790.0
794.0
799.0
805.0
813.0
817.0
819.0
823.0
823.0
825.0
823.0
827.0
835.0
842.0
844.0
854.0
858.0
863.0
864.0
866.0
868.0
871.0
876.0
876.0
880.0
881.0
885.0
889.0
893.0
891.0
893.0
891.0
888.0
884.0
879.0
874.0
875.0
871.0
867.0
866.0
861.0
858.0
846.0
842.0
834.0
829.0
827.0
823.0
821.0
819.0
815.0
812.0
809.0
805.0
804.0
799.0
795.0
793.0
794.0
794.0
787.0
791.0
793.0
793.0
791.0
792.0
792.0
791.0
790.0
790.0
791.0
790.0
793.0
797.0
799.0
803.0
803.0
806.0
803.0
803.0
801.0
800.0
797.0
798.0
799.0
796.0
798.0
799.0
803.0
804.0
807.0
805.0
804.0
801.0
802.0
802.0
801.0
800.0
801.0
802.0
805.0
803.0
801.0
797.0
794.0
793.0
791.0
788.0
792.0
794.0
799.0
800.0
805.0
804.0
803.0
798.0
795.0
792.0
791.0
790.0
790.0
792.0
798.0
801.0
803.0
802.0
800.0
796.0
796.0
792.0
790.0
790.0
789.0
795.0
796.0
801.0
803.0
803.0
802.0
801.0
802.0
806.0
812.0
814.0
816.0
820.0
822.0
823.0
825.0
825.0
826.0
824.0
826.0
828.0
832.0
836.0
835.0
842.0
842.0
843.0
841.0
837.0
833.0
831.0
827.0
824.0
823.0
822.0
819.0
817.0
814.0
812.0
810.0
807.0
801.0
798.0
791.0
787.0
785.0
789.0
787.0
790.0
789.0
794.0
796.0
797.0
800.0
797.0
795.0
795.0
792.0
791.0
790.0
793.0
805.0
814.0
829.0
850.0
873.0
906.0
948.0
996.0
1051.0
1111.0
1182.0
1250.0
1304.0
1345.0
1343.0
1289.0
1177.0
1049.0
921.0
793.0
679.0
671.0
703.0
757.0
810.0
841.0
854.0
847.0
834.0
818.0
808.0
803.0
801.0
802.0
807.0
811.0
813.0
813.0
810.0
814.0
813.0
815.0
814.0
815.0
817.0
816.0
815.0
817.0
819.0
823.0
826.0
825.0
825.0
826.0
825.0
823.0
825.0
822.0
828.0
830.0
832.0
834.0
840.0
841.0
841.0
841.0
842.0
844.0
846.0
845.0
849.0
852.0
857.0
862.0
866.0
870.0
871.0
872.0
873.0
869.0
875.0
878.0
881.0
887.0
894.0
897.0
902.0
906.0
907.0
909.0
909.0
911.0
917.0
915.0
915.0
920.0
923.0
930.0
932.0
932.0
932.0
927.0
924.0
922.0
919.0
917.0
913.0
911.0
907.0
904.0
902.0
899.0
892.0
886.0
878.0
871.0
867.0
861.0
859.0
855.0
850.0
851.0
850.0
848.0
845.0
844.0
842.0
839.0
835.0
836.0
833.0
837.0
836.0
839.0
842.0
840.0
841.0
839.0
836.0
837.0
836.0
835.0
838.0
840.0
839.0
839.0
842.0
843.0
842.0
843.0
842.0
838.0
837.0
832.0
834.0
834.0
838.0
841.0
845.0
849.0
848.0
844.0
839.0
837.0
836.0
837.0
838.0
839.0
840.0
841.0
846.0
850.0
848.0
848.0
846.0
844.0
840.0
842.0
838.0
839.0
837.0
841.0
841.0
842.0
844.0
843.0
841.0
837.0
837.0
838.0
838.0
838.0
838.0
840.0
840.0
841.0
839.0
838.0
837.0
834.0
834.0
836.0
836.0
839.0
841.0
844.0
844.0
844.0
846.0
842.0
837.0
838.0
840.0
845.0
846.0
854.0
857.0
861.0
861.0
861.0
861.0
862.0
860.0
858.0
858.0
862.0
864.0
865.0
870.0
879.0
881.0
879.0
879.0
873.0
867.0
863.0
864.0
864.0
863.0
866.0
867.0
865.0
864.0
858.0
854.0
848.0
839.0
834.0
829.0
824.0
821.0
823.0
827.0
827.0
833.0
833.0
832.0
832.0
830.0
826.0
823.0
824.0
823.0
826.0
829.0
837.0
845.0
861.0
885.0
925.0
976.0
1039.0
1113.0
1193.0
1272.0
1348.0
1406.0
1441.0
1443.0
1399.0
1301.0
1173.0
1045.0
917.0
789.0
705.0
714.0
758.0
811.0
853.0
875.0
874.0
859.0
842.0
828.0
821.0
818.0
822.0
824.0
829.0
831.0
832.0
832.0
833.0
833.0
831.0
828.0
827.0
827.0
828.0
829.0
828.0
834.0
836.0
840.0
840.0
838.0
838.0
837.0
838.0
839.0
839.0
843.0
843.0
841.0
847.0
850.0
852.0
855.0
855.0
856.0
854.0
858.0
859.0
863.0
865.0
870.0
875.0
880.0
885.0
885.0
885.0
885.0
889.0
893.0
895.0
899.0
904.0
910.0
911.0
920.0
923.0
927.0
927.0
932.0
931.0
933.0
932.0
934.0
937.0
939.0
941.0
940.0
938.0
932.0
929.0
925.0
922.0
921.0
917.0
910.0
909.0
902.0
898.0
888.0
884.0
876.0
868.0
862.0
856.0
852.0
842.0
843.0
842.0
839.0
840.0
837.0
838.0
832.0
829.0
827.0
823.0
818.0
815.0
814.0
815.0
816.0
816.0
821.0
825.0
826.0
825.0
822.0
821.0
819.0
818.0
819.0
820.0
820.0
822.0
823.0
823.0
824.0
822.0
822.0
819.0
816.0
817.0
817.0
817.0
817.0
819.0
822.0
824.0
822.0
819.0
818.0
815.0
817.0
815.0
814.0
817.0
817.0
818.0
819.0
817.0
814.0
813.0
810.0
807.0
807.0
807.0
806.0
809.0
810.0
810.0
811.0
808.0
808.0
805.0
801.0
799.0
797.0
797.0
798.0
798.0
797.0
800.0
803.0
802.0
803.0
804.0
802.0
801.0
797.0
795.0
795.0
797.0
798.0
803.0
806.0
808.0
810.0
812.0
810.0
812.0
812.0
812.0
813.0
812.0
814.0
817.0
818.0
822.0
821.0
824.0
830.0
831.0
829.0
827.0
827.0
825.0
827.0
829.0
830.0
826.0
820.0
819.0
814.0
809.0
806.0
804.0
801.0
798.0
795.0
792.0
793.0
791.0
787.0
787.0
786.0
782.0
781.0
784.0
786.0
787.0
787.0
792.0
795.0
793.0
793.0
790.0
789.0
789.0
792.0
798.0
811.0
830.0
865.0
910.0
968.0
1032.0
1100.0
1176.0
1242.0
1303.0
1341.0
1355.0
1328.0
1245.0
1117.0
989.0
861.0
733.0
656.0
676.0
726.0
775.0
815.0
831.0
829.0
818.0
802.0
795.0
792.0
790.0
795.0
799.0
801.0
801.0
801.0
793.0
788.0
788.0
793.0
799.0
804.0
804.0
805.0
808.0
807.0
806.0
803.0
805.0
805.0
807.0
812.0
813.0
817.0
819.0
819.0
818.0
819.0
820.0
819.0
820.0
824.0
829.0
837.0
839.0
845.0
847.0
848.0
849.0
849.0
852.0
854.0
858.0
860.0
864.0
871.0
874.0
877.0
883.0
889.0
890.0
893.0
894.0
898.0
899.0
904.0
910.0
914.0
917.0
923.0
923.0
921.0
923.0
918.0
918.0
916.0
916.0
917.0
919.0
916.0
912.0
910.0
906.0
900.0
893.0
887.0
879.0
871.0
867.0
860.0
859.0
860.0
860.0
861.0
858.0
853.0
848.0
842.0
839.0
836.0
833.0
831.0
828.0
829.0
831.0
834.0
834.0
833.0
834.0
830.0
825.0
827.0
826.0
828.0
829.0
832.0
834.0
834.0
835.0
834.0
834.0
834.0
834.0
837.0
836.0
835.0
838.0
837.0
839.0
843.0
841.0
845.0
843.0
842.0
840.0
840.0
839.0
840.0
842.0
842.0
844.0
847.0
847.0
847.0
847.0
843.0
840.0
839.0
838.0
839.0
840.0
841.0
844.0
848.0
846.0
845.0
842.0
839.0
840.0
839.0
837.0
833.0
836.0
841.0
842.0
844.0
842.0
839.0
839.0
839.0
836.0
838.0
837.0
837.0
839.0
844.0
847.0
849.0
848.0
845.0
846.0
846.0
841.0
841.0
840.0
842.0
843.0
845.0
845.0
848.0
848.0
845.0
854.0
853.0
853.0
856.0
858.0
861.0
863.0
865.0
868.0
874.0
869.0
872.0
871.0
872.0
875.0
879.0
880.0
882.0
885.0
886.0
886.0
888.0
884.0
880.0
877.0
873.0
872.0
873.0
870.0
868.0
868.0
868.0
864.0
861.0
857.0
852.0
847.0
845.0
841.0
839.0
837.0
837.0
837.0
842.0
842.0
845.0
846.0
844.0
846.0
841.0
840.0
840.0
837.0
841.0
843.0
850.0
854.0
867.0
885.0
907.0
939.0
979.0
1027.0
1087.0
1150.0
1223.0
1298.0
1363.0
1406.0
1421.0
1389.0
1304.0
1176.0
1048.0
920.0
792.0
698.0
715.0
770.0
829.0
874.0
900.0
902.0
890.0
879.0
861.0
852.0
851.0
850.0
850.0
856.0
856.0
858.0
860.0
862.0
862.0
861.0
859.0
857.0
856.0
853.0
857.0
859.0
863.0
866.0
871.0
876.0
875.0
871.0
871.0
870.0
866.0
865.0
867.0
872.0
880.0
880.0
884.0
888.0
886.0
889.0
890.0
891.0
893.0
891.0
895.0
898.0
902.0
908.0
914.0
920.0
922.0
926.0
928.0
929.0
930.0
934.0
939.0
943.0
949.0
958.0
963.0
965.0
962.0
965.0
967.0
967.0
974.0
975.0
969.0
973.0
975.0
979.0
978.0
977.0
974.0
971.0
964.0
959.0
955.0
947.0
940.0
932.0
933.0
928.0
927.0
922.0
913.0
909.0
907.0
899.0
893.0
889.0
885.0
882.0
878.0
878.0
881.0
881.0
884.0
884.0
886.0
883.0
879.0
878.0
875.0
875.0
879.0
880.0
883.0
882.0
877.0
878.0
875.0
874.0
876.0
874.0
878.0
878.0
884.0
881.0
888.0
887.0
884.0
883.0
881.0
880.0
879.0
878.0
880.0
881.0
880.0
883.0
887.0
888.0
888.0
887.0
885.0
882.0
882.0
876.0
874.0
873.0
875.0
877.0
877.0
876.0
878.0
880.0
880.0
878.0
879.0
878.0
872.0
871.0
872.0
871.0
872.0
872.0
868.0
870.0
869.0
868.0
866.0
867.0
865.0
868.0
867.0
871.0
872.0
872.0
869.0
867.0
864.0
862.0
858.0
858.0
861.0
864.0
865.0
866.0
868.0
870.0
868.0
863.0
867.0
868.0
871.0
872.0
875.0
879.0
880.0
880.0
884.0
885.0
887.0
885.0
885.0
883.0
882.0
886.0
890.0
892.0
895.0
897.0
896.0
892.0
887.0
887.0
884.0
881.0
877.0
876.0
876.0
875.0
873.0
873.0
872.0
868.0
863.0
859.0
852.0
844.0
836.0
837.0
834.0
834.0
836.0
841.0
844.0
842.0
842.0
840.0
837.0
842.0
837.0
833.0
832.0
834.0
842.0
845.0
851.0
866.0
885.0
915.0
956.0
1009.0
1075.0
1145.0
1229.0
1314.0
1392.0
1446.0
1476.0
1461.0
1392.0
1267.0
1139.0
1011.0
883.0
755.0
699.0
735.0
793.0
845.0
880.0
892.0
884.0
867.0
850.0
838.0
829.0
829.0
831.0
831.0
835.0
835.0
837.0
839.0
838.0
837.0
836.0
835.0
836.0
836.0
833.0
833.0
840.0
840.0
844.0
846.0
844.0
843.0
840.0
841.0
842.0
842.0
843.0
845.0
849.0
851.0
856.0
856.0
859.0
855.0
856.0
854.0
857.0
859.0
863.0
864.0
870.0
874.0
879.0
881.0
881.0
878.0
880.0
886.0
887.0
893.0
894.0
901.0
908.0
913.0
918.0
923.0
926.0
926.0
928.0
926.0
928.0
932.0
935.0
935.0
940.0
945.0
949.0
948.0
944.0
942.0
933.0
929.0
930.0
923.0
920.0
917.0
912.0
903.0
902.0
898.0
890.0
883.0
878.0
870.0
865.0
858.0
851.0
847.0
844.0
842.0
842.0
842.0
839.0
833.0
826.0
826.0
826.0
823.0
823.0
823.0
827.0
826.0
829.0
828.0
829.0
828.0
827.0
821.0
819.0
816.0
816.0
819.0
820.0
820.0
823.0
825.0
825.0
825.0
826.0
826.0
823.0
827.0
824.0
825.0
828.0
827.0
832.0
831.0
832.0
825.0
820.0
818.0
817.0
815.0
817.0
817.0
818.0
820.0
821.0
821.0
820.0
819.0
815.0
812.0
808.0
811.0
811.0
813.0
814.0
815.0
817.0
818.0
814.0
816.0
813.0
811.0
809.0
808.0
806.0
804.0
807.0
809.0
813.0
814.0
815.0
815.0
812.0
809.0
806.0
802.0
802.0
798.0
806.0
811.0
811.0
813.0
814.0
817.0
821.0
822.0
826.0
824.0
826.0
830.0
831.0
832.0
833.0
835.0
833.0
832.0
834.0
837.0
843.0
844.0
850.0
849.0
847.0
844.0
841.0
841.0
840.0
842.0
837.0
834.0
830.0
825.0
820.0
817.0
815.0
814.0
814.0
808.0
806.0
804.0
805.0
805.0
805.0
804.0
804.0
805.0
808.0
809.0
811.0
813.0
812.0
814.0
811.0
817.0
822.0
832.0
854.0
884.0
930.0
980.0
1042.0
1110.0
1183.0
1257.0
1320.0
1364.0
1377.0
1342.0
1249.0
1121.0
993.0
865.0
737.0
679.0
698.0
743.0
799.0
836.0
851.0
851.0
845.0
833.0
822.0
817.0
819.0
819.0
819.0
821.0
820.0
820.0
813.0
816.0
814.0
818.0
818.0
822.0
829.0
833.0
832.0
833.0
835.0
837.0
833.0
833.0
832.0
832.0
831.0
834.0
841.0
842.0
843.0
846.0
842.0
843.0
847.0
849.0
853.0
854.0
858.0
857.0
860.0
865.0
865.0
864.0
867.0
866.0
867.0
873.0
875.0
877.0
885.0
889.0
894.0
898.0
902.0
908.0
910.0
913.0
913.0
916.0
918.0
915.0
924.0
927.0
934.0
937.0
936.0
938.0
937.0
935.0
938.0
936.0
936.0
934.0
935.0
931.0
930.0
928.0
923.0
918.0
913.0
907.0
902.0
894.0
886.0
884.0
881.0
877.0
875.0
873.0
870.0
865.0
860.0
858.0
849.0
846.0
844.0
845.0
845.0
841.0
843.0
849.0
849.0
849.0
847.0
844.0
842.0
841.0
839.0
843.0
843.0
848.0
849.0
852.0
850.0
850.0
850.0
849.0
845.0
847.0
847.0
851.0
852.0
854.0
856.0
856.0
859.0
862.0
859.0
865.0
866.0
867.0
870.0
876.0
883.0
895.0
908.0
918.0
930.0
938.0
953.0
966.0
981.0
991.0
1010.0
1027.0
1046.0
1070.0
1095.0
1120.0
1145.0
1171.0
1198.0
1228.0
1255.0
1285.0
1318.0
1353.0
1384.0
1416.0
1438.0
1458.0
1478.0
1498.0
1520.0
1538.0
1555.0
1573.0
1576.0
1569.0
1554.0
1499.0
1396.0
1268.0
1140.0
1012.0
884.0
814.0
807.0
813.0
816.0
814.0
807.0
797.0
785.0
774.0
764.0
759.0
758.0
759.0
762.0
766.0
767.0
763.0
762.0
759.0
756.0
757.0
748.0
743.0
734.0
731.0
731.0
728.0
724.0
727.0
721.0
720.0
719.0
715.0
711.0
710.0
707.0
701.0
698.0
694.0
694.0
686.0
683.0
676.0
673.0
673.0
671.0
667.0
661.0
658.0
654.0
649.0
647.0
650.0
648.0
647.0
643.0
642.0
643.0
641.0
640.0
643.0
643.0
644.0
651.0
656.0
665.0
674.0
684.0
692.0
701.0
710.0
713.0
722.0
727.0
740.0
749.0
762.0
771.0
779.0
791.0
798.0
802.0
808.0
811.0
819.0
821.0
822.0
824.0
821.0
825.0
826.0
827.0
832.0
835.0
837.0
837.0
834.0
831.0
832.0
829.0
830.0
835.0
834.0
838.0
841.0
836.0
839.0
831.0
835.0
832.0
831.0
831.0
836.0
838.0
839.0
840.0
839.0
836.0
834.0
832.0
831.0
828.0
827.0
823.0
825.0
828.0
832.0
832.0
836.0
835.0
837.0
834.0
834.0
832.0
829.0
832.0
832.0
834.0
836.0
833.0
835.0
832.0
832.0
830.0
828.0
829.0
827.0
829.0
830.0
836.0
838.0
833.0
836.0
833.0
834.0
832.0
832.0
826.0
830.0
830.0
828.0
830.0
832.0
833.0
834.0
835.0
835.0
834.0
835.0
834.0
833.0
830.0
831.0
831.0
834.0
833.0
837.0
832.0
836.0
833.0
833.0
835.0
836.0
833.0
833.0
831.0
832.0
836.0
840.0
841.0
838.0
835.0
837.0
836.0
834.0
833.0
832.0
838.0
840.0
841.0
845.0
842.0
843.0
841.0
837.0
833.0
833.0
832.0
834.0
837.0
840.0
843.0
847.0
846.0
848.0
844.0
842.0
841.0
839.0
837.0
835.0
837.0
840.0
839.0
842.0
844.0
843.0
844.0
842.0
841.0
839.0
839.0
839.0
839.0
840.0
842.0
845.0
845.0
845.0
844.0
841.0
839.0
838.0
835.0
842.0
844.0
846.0
848.0
846.0
850.0
848.0
844.0
843.0
841.0
841.0
843.0
843.0
843.0
847.0
848.0
848.0
850.0
849.0
849.0
844.0
844.0
843.0
844.0
845.0
850.0
854.0
859.0
862.0
867.0
869.0
870.0
872.0
870.0
869.0
867.0
865.0
866.0
870.0
877.0
884.0
888.0
888.0
885.0
885.0
883.0
880.0
880.0
879.0
880.0
883.0
880.0
883.0
879.0
873.0
870.0
864.0
855.0
853.0
847.0
843.0
842.0
835.0
842.0
845.0
846.0
846.0
847.0
846.0
844.0
842.0
840.0
841.0
841.0
843.0
846.0
849.0
849.0
855.0
860.0
869.0
890.0
923.0
968.0
1021.0
1084.0
1157.0
1238.0
1324.0
1399.0
1457.0
1488.0
1485.0
1427.0
1313.0
1185.0
1057.0
929.0
801.0
731.0
768.0
820.0
864.0
887.0
891.0
878.0
860.0
845.0
838.0
831.0
833.0
840.0
843.0
844.0
841.0
839.0
837.0
835.0
835.0
833.0
836.0
837.0
841.0
845.0
845.0
849.0
849.0
845.0
843.0
842.0
842.0
846.0
848.0
850.0
856.0
857.0
857.0
857.0
858.0
859.0
857.0
860.0
858.0
860.0
865.0
864.0
869.0
873.0
875.0
878.0
877.0
880.0
881.0
884.0
886.0
891.0
894.0
900.0
903.0
907.0
910.0
915.0
914.0
918.0
919.0
924.0
928.0
933.0
939.0
943.0
953.0
957.0
961.0
962.0
963.0
961.0
962.0
960.0
961.0
963.0
964.0
965.0
964.0
968.0
972.0
973.0
976.0
975.0
969.0
964.0
958.0
945.0
939.0
936.0
928.0
922.0
916.0
911.0
902.0
900.0
892.0
885.0
879.0
875.0
872.0
870.0
865.0
869.0
865.0
863.0
862.0
858.0
853.0
850.0
846.0
846.0
846.0
847.0
849.0
852.0
