# Simple Text Format
# Sampling Rate (Hz):= 360.00
# Resolution:= 12
# Labels:= ECG
777.0
776.0
779.0
783.0
786.0
791.0
794.0
797.0
798.0
799.0
799.0
799.0
796.0
799.0
799.0
800.0
803.0
805.0
809.0
811.0
813.0
814.0
814.0
813.0
813.0
810.0
812.0
810.0
807.0
807.0
806.0
806.0
809.0
802.0
799.0
794.0
789.0
786.0
783.0
781.0
779.0
778.0
777.0
775.0
773.0
771.0
775.0
774.0
774.0
773.0
775.0
776.0
779.0
782.0
783.0
781.0
781.0
778.0
776.0
775.0
780.0
786.0
797.0
813.0
838.0
870.0
914.0
969.0
1032.0
1109.0
1190.0
1277.0
1354.0
1417.0
1448.0
1439.0
1378.0
1260.0
1132.0
1004.0
876.0
748.0
657.0
680.0
729.0
778.0
818.0
835.0
837.0
828.0
813.0
801.0
793.0
787.0
785.0
784.0
786.0
788.0
787.0
788.0
790.0
791.0
792.0
792.0
793.0
793.0
789.0
793.0
793.0
794.0
798.0
799.0
802.0
806.0
805.0
804.0
806.0
807.0
804.0
805.0
805.0
807.0
810.0
814.0
818.0
822.0
825.0
827.0
827.0
824.0
827.0
828.0
828.0
832.0
837.0
842.0
849.0
853.0
855.0
858.0
862.0
861.0
865.0
865.0
868.0
875.0
879.0
887.0
891.0
896.0
899.0
900.0
902.0
903.0
905.0
905.0
906.0
909.0
914.0
915.0
918.0
920.0
920.0
919.0
916.0
910.0
903.0
901.0
898.0
895.0
893.0
891.0
889.0
886.0
878.0
875.0
868.0
861.0
855.0
845.0
839.0
833.0
827.0
824.0
824.0
827.0
824.0
821.0
817.0
814.0
812.0
811.0
810.0
808.0
807.0
810.0
810.0
810.0
812.0
810.0
809.0
811.0
809.0
808.0
808.0
810.0
813.0
815.0
817.0
820.0
818.0
819.0
817.0
815.0
814.0
814.0
813.0
813.0
814.0
816.0
818.0
821.0
819.0
819.0
816.0
811.0
812.0
810.0
808.0
806.0
807.0
807.0
808.0
809.0
811.0
809.0
806.0
804.0
803.0
803.0
802.0
801.0
799.0
800.0
798.0
799.0
800.0
801.0
797.0
798.0
797.0
795.0
796.0
796.0
796.0
797.0
798.0
799.0
797.0
797.0
795.0
791.0
791.0
789.0
791.0
788.0
789.0
790.0
795.0
797.0
799.0
797.0
798.0
795.0
794.0
790.0
789.0
785.0
790.0
794.0
798.0
801.0
807.0
810.0
814.0
815.0
816.0
818.0
815.0
816.0
818.0
819.0
819.0
819.0
824.0
823.0
826.0
831.0
830.0
833.0
833.0
832.0
830.0
832.0
829.0
833.0
833.0
831.0
828.0
824.0
816.0
820.0
812.0
807.0
803.0
799.0
796.0
794.0
789.0
791.0
790.0
783.0
785.0
789.0
792.0
788.0
788.0
790.0
794.0
795.0
795.0
791.0
790.0
786.0
786.0
787.0
793.0
806.0
829.0
862.0
906.0
962.0
1024.0
1092.0
1164.0
1242.0
1322.0
1395.0
1450.0
1476.0
1466.0
1405.0
1289.0
1161.0
1033.0
905.0
777.0
689.0
724.0
777.0
822.0
850.0
855.0
844.0
826.0
812.0
799.0
796.0
794.0
795.0
794.0
795.0
795.0
793.0
792.0
793.0
793.0
796.0
799.0
797.0
796.0
793.0
795.0
794.0
795.0
795.0
797.0
797.0
802.0
805.0
806.0
807.0
807.0
808.0
807.0
808.0
808.0
810.0
811.0
816.0
820.0
824.0
826.0
825.0
826.0
826.0
826.0
831.0
834.0
835.0
841.0
845.0
848.0
853.0
859.0
862.0
863.0
867.0
868.0
872.0
878.0
879.0
885.0
893.0
898.0
903.0
903.0
909.0
912.0
911.0
913.0
915.0
913.0
913.0
913.0
915.0
917.0
924.0
919.0
916.0
909.0
903.0
896.0
893.0
888.0
881.0
876.0
877.0
872.0
871.0
862.0
858.0
849.0
837.0
833.0
829.0
822.0
817.0
818.0
817.0
818.0
817.0
810.0
807.0
806.0
803.0
800.0
800.0
796.0
795.0
798.0
802.0
799.0
804.0
805.0
807.0
806.0
804.0
806.0
804.0
801.0
797.0
802.0
802.0
804.0
808.0
809.0
810.0
812.0
811.0
805.0
807.0
805.0
804.0
808.0
810.0
811.0
813.0
815.0
810.0
809.0
804.0
806.0
806.0
803.0
802.0
803.0
804.0
803.0
804.0
804.0
803.0
800.0
797.0
796.0
791.0
791.0
790.0
791.0
793.0
794.0
794.0
792.0
793.0
790.0
786.0
781.0
783.0
781.0
783.0
782.0
784.0
786.0
787.0
783.0
786.0
786.0
785.0
781.0
779.0
777.0
776.0
776.0
776.0
779.0
781.0
780.0
779.0
777.0
776.0
776.0
775.0
773.0
774.0
777.0
778.0
777.0
781.0
784.0
785.0
789.0
790.0
790.0
790.0
793.0
794.0
793.0
793.0
796.0
800.0
802.0
804.0
805.0
806.0
809.0
810.0
809.0
808.0
806.0
804.0
802.0
805.0
801.0
800.0
798.0
796.0
793.0
787.0
782.0
773.0
774.0
769.0
765.0
762.0
761.0
762.0
762.0
761.0
764.0
762.0
760.0
761.0
764.0
764.0
765.0
767.0
768.0
762.0
763.0
758.0
761.0
766.0
778.0
798.0
831.0
878.0
935.0
1010.0
1092.0
1184.0
1279.0
1368.0
1439.0
1474.0
1455.0
1375.0
1247.0
1119.0
991.0
863.0
735.0
665.0
714.0
768.0
808.0
827.0
824.0
805.0
788.0
776.0
765.0
765.0
766.0
767.0
768.0
764.0
762.0
759.0
760.0
760.0
762.0
763.0
768.0
773.0
773.0
773.0
772.0
769.0
769.0
769.0
769.0
770.0
773.0
773.0
775.0
779.0
781.0
782.0
782.0
784.0
783.0
784.0
786.0
788.0
791.0
794.0
796.0
800.0
804.0
807.0
806.0
809.0
813.0
818.0
820.0
825.0
831.0
838.0
844.0
850.0
855.0
859.0
862.0
862.0
864.0
867.0
869.0
871.0
877.0
879.0
886.0
888.0
890.0
887.0
885.0
884.0
884.0
881.0
877.0
871.0
868.0
872.0
870.0
868.0
866.0
860.0
852.0
845.0
836.0
826.0
816.0
809.0
806.0
802.0
796.0
796.0
793.0
790.0
783.0
780.0
778.0
776.0
773.0
770.0
769.0
771.0
772.0
772.0
768.0
767.0
766.0
765.0
766.0
767.0
767.0
771.0
770.0
774.0
779.0
780.0
777.0
776.0
776.0
776.0
774.0
774.0
774.0
771.0
773.0
776.0
778.0
782.0
782.0
781.0
780.0
775.0
772.0
770.0
769.0
769.0
767.0
772.0
772.0
775.0
778.0
776.0
774.0
771.0
769.0
769.0
767.0
767.0
768.0
767.0
768.0
769.0
773.0
770.0
769.0
767.0
764.0
760.0
758.0
759.0
763.0
765.0
766.0
770.0
767.0
770.0
767.0
765.0
763.0
762.0
757.0
755.0
759.0
761.0
762.0
768.0
765.0
766.0
763.0
764.0
760.0
759.0
758.0
756.0
755.0
758.0
765.0
766.0
765.0
765.0
764.0
762.0
761.0
757.0
758.0
759.0
762.0
766.0
774.0
781.0
786.0
784.0
783.0
781.0
775.0
778.0
775.0
778.0
780.0
784.0
788.0
797.0
801.0
803.0
800.0
799.0
796.0
795.0
791.0
787.0
787.0
787.0
787.0
785.0
786.0
786.0
786.0
778.0
772.0
770.0
763.0
760.0
760.0
757.0
756.0
756.0
758.0
761.0
761.0
757.0
754.0
753.0
753.0
756.0
754.0
757.0
759.0
761.0
762.0
763.0
765.0
766.0
771.0
784.0
804.0
841.0
886.0
950.0
1021.0
1107.0
1198.0
1287.0
1365.0
1424.0
1456.0
1446.0
1385.0
1271.0
1143.0
1015.0
887.0
759.0
655.0
670.0
722.0
767.0
802.0
816.0
814.0
801.0
783.0
773.0
768.0
768.0
773.0
771.0
772.0
768.0
765.0
764.0
765.0
765.0
766.0
770.0
775.0
777.0
781.0
782.0
782.0
780.0
779.0
780.0
782.0
780.0
781.0
788.0
786.0
791.0
789.0
793.0
794.0
792.0
794.0
792.0
795.0
798.0
801.0
806.0
812.0
812.0
818.0
823.0
825.0
824.0
826.0
829.0
832.0
835.0
834.0
841.0
847.0
855.0
862.0
867.0
869.0
875.0
876.0
881.0
882.0
882.0
887.0
892.0
895.0
900.0
903.0
897.0
896.0
899.0
896.0
897.0
891.0
891.0
884.0
882.0
880.0
876.0
871.0
864.0
856.0
850.0
845.0
841.0
831.0
831.0
823.0
821.0
815.0
812.0
813.0
810.0
807.0
799.0
794.0
791.0
791.0
791.0
789.0
792.0
793.0
794.0
794.0
790.0
794.0
792.0
790.0
791.0
793.0
793.0
796.0
797.0
798.0
800.0
803.0
803.0
803.0
799.0
801.0
801.0
801.0
801.0
800.0
801.0
805.0
807.0
804.0
805.0
807.0
803.0
801.0
798.0
799.0
798.0
797.0
801.0
801.0
804.0
804.0
803.0
802.0
801.0
798.0
797.0
795.0
793.0
793.0
793.0
795.0
798.0
797.0
798.0
798.0
794.0
792.0
787.0
789.0
788.0
789.0
789.0
793.0
791.0
791.0
791.0
792.0
789.0
786.0
784.0
785.0
782.0
783.0
787.0
786.0
792.0
792.0
793.0
791.0
788.0
788.0
784.0
785.0
783.0
784.0
785.0
787.0
789.0
789.0
792.0
788.0
790.0
789.0
790.0
791.0
797.0
800.0
803.0
806.0
808.0
814.0
814.0
813.0
809.0
807.0
806.0
806.0
808.0
815.0
818.0
820.0
827.0
827.0
823.0
822.0
817.0
812.0
814.0
813.0
811.0
811.0
813.0
810.0
809.0
807.0
802.0
798.0
790.0
781.0
777.0
773.0
773.0
773.0
779.0
779.0
781.0
785.0
787.0
785.0
783.0
779.0
776.0
777.0
777.0
778.0
778.0
779.0
784.0
790.0
802.0
824.0
859.0
906.0
965.0
1034.0
1110.0
1190.0
1274.0
1357.0
1428.0
1477.0
1502.0
1493.0
1434.0
1318.0
1190.0
1062.0
934.0
806.0
685.0
719.0
780.0
826.0
851.0
852.0
834.0
816.0
792.0
781.0
779.0
777.0
783.0
784.0
790.0
793.0
792.0
790.0
786.0
785.0
782.0
784.0
784.0
786.0
788.0
791.0
791.0
794.0
794.0
796.0
795.0
793.0
791.0
790.0
789.0
792.0
792.0
793.0
801.0
804.0
807.0
809.0
810.0
805.0
807.0
807.0
809.0
815.0
817.0
822.0
825.0
829.0
833.0
833.0
837.0
839.0
839.0
844.0
844.0
850.0
855.0
862.0
870.0
875.0
880.0
885.0
885.0
887.0
886.0
893.0
894.0
899.0
903.0
907.0
911.0
913.0
913.0
911.0
911.0
909.0
907.0
904.0
902.0
901.0
901.0
899.0
898.0
894.0
884.0
877.0
868.0
856.0
849.0
841.0
836.0
831.0
826.0
820.0
818.0
816.0
810.0
804.0
806.0
802.0
798.0
795.0
794.0
795.0
794.0
797.0
797.0
797.0
795.0
791.0
788.0
792.0
790.0
790.0
787.0
791.0
792.0
796.0
798.0
801.0
805.0
805.0
800.0
801.0
799.0
798.0
798.0
797.0
799.0
802.0
805.0
806.0
805.0
804.0
803.0
798.0
795.0
798.0
799.0
797.0
801.0
803.0
803.0
802.0
800.0
802.0
800.0
797.0
794.0
793.0
790.0
791.0
792.0
794.0
793.0
795.0
793.0
790.0
790.0
790.0
789.0
788.0
786.0
781.0
783.0
785.0
786.0
790.0
791.0
788.0
788.0
786.0
785.0
783.0
781.0
778.0
782.0
783.0
786.0
793.0
790.0
792.0
789.0
786.0
784.0
782.0
779.0
781.0
782.0
783.0
784.0
785.0
784.0
790.0
786.0
786.0
784.0
785.0
783.0
786.0
788.0
789.0
794.0
797.0
799.0
800.0
801.0
802.0
804.0
802.0
803.0
802.0
803.0
806.0
809.0
813.0
815.0
818.0
819.0
819.0
819.0
817.0
813.0
811.0
808.0
809.0
811.0
810.0
809.0
806.0
803.0
798.0
792.0
787.0
781.0
778.0
774.0
773.0
771.0
766.0
770.0
769.0
766.0
767.0
765.0
766.0
763.0
765.0
767.0
770.0
773.0
770.0
769.0
768.0
765.0
764.0
764.0
772.0
790.0
816.0
853.0
908.0
976.0
1063.0
1161.0
1259.0
1352.0
1430.0
1479.0
1493.0
1465.0
1378.0
1250.0
1122.0
994.0
866.0
738.0
664.0
710.0
766.0
811.0
833.0
831.0
815.0
793.0
776.0
771.0
767.0
768.0
769.0
772.0
766.0
766.0
765.0
762.0
764.0
767.0
769.0
771.0
776.0
777.0
777.0
776.0
773.0
772.0
772.0
771.0
774.0
777.0
777.0
779.0
782.0
785.0
787.0
785.0
788.0
789.0
791.0
790.0
793.0
793.0
798.0
800.0
801.0
801.0
806.0
808.0
809.0
810.0
815.0
814.0
820.0
825.0
832.0
839.0
844.0
847.0
849.0
851.0
853.0
851.0
855.0
860.0
862.0
867.0
877.0
885.0
889.0
893.0
895.0
893.0
895.0
897.0
895.0
895.0
893.0
896.0
895.0
898.0
899.0
896.0
895.0
888.0
882.0
875.0
872.0
864.0
856.0
851.0
851.0
844.0
840.0
828.0
819.0
811.0
808.0
805.0
801.0
797.0
794.0
792.0
794.0
792.0
793.0
788.0
786.0
782.0
780.0
779.0
775.0
772.0
771.0
771.0
774.0
777.0
779.0
780.0
779.0
779.0
780.0
778.0
777.0
779.0
774.0
778.0
781.0
781.0
783.0
781.0
785.0
783.0
782.0
783.0
781.0
778.0
777.0
784.0
781.0
783.0
784.0
783.0
783.0
781.0
778.0
773.0
771.0
770.0
773.0
772.0
775.0
776.0
777.0
779.0
778.0
775.0
774.0
772.0
766.0
766.0
765.0
770.0
771.0
773.0
775.0
775.0
772.0
771.0
769.0
767.0
767.0
764.0
761.0
761.0
763.0
768.0
770.0
771.0
771.0
769.0
767.0
765.0
766.0
762.0
764.0
765.0
767.0
769.0
769.0
770.0
767.0
766.0
761.0
758.0
756.0
761.0
761.0
760.0
766.0
767.0
772.0
771.0
770.0
771.0
774.0
774.0
777.0
775.0
774.0
780.0
782.0
784.0
786.0
786.0
786.0
787.0
787.0
789.0
790.0
796.0
801.0
801.0
803.0
807.0
802.0
797.0
797.0
792.0
788.0
786.0
783.0
782.0
783.0
785.0
784.0
782.0
778.0
776.0
770.0
765.0
757.0
755.0
755.0
752.0
755.0
758.0
759.0
763.0
763.0
762.0
762.0
761.0
759.0
756.0
754.0
754.0
754.0
757.0
766.0
778.0
806.0
842.0
889.0
950.0
1021.0
1095.0
1171.0
1256.0
1341.0
1416.0
1464.0
1474.0
1433.0
1323.0
1195.0
1067.0
939.0
811.0
683.0
681.0
735.0
786.0
821.0
827.0
820.0
800.0
783.0
771.0
762.0
760.0
761.0
763.0
763.0
764.0
765.0
766.0
769.0
770.0
771.0
771.0
770.0
769.0
765.0
764.0
770.0
774.0
777.0
775.0
781.0
782.0
782.0
782.0
782.0
782.0
783.0
784.0
789.0
793.0
797.0
800.0
800.0
805.0
807.0
808.0
811.0
810.0
809.0
811.0
813.0
819.0
828.0
830.0
835.0
840.0
843.0
848.0
850.0
853.0
853.0
859.0
866.0
870.0
873.0
881.0
884.0
887.0
892.0
893.0
895.0
895.0
899.0
898.0
898.0
900.0
900.0
900.0
898.0
896.0
893.0
892.0
885.0
880.0
876.0
873.0
867.0
863.0
859.0
852.0
851.0
844.0
838.0
829.0
822.0
815.0
809.0
805.0
796.0
796.0
795.0
794.0
799.0
798.0
795.0
795.0
791.0
791.0
791.0
787.0
787.0
785.0
783.0
786.0
790.0
791.0
790.0
791.0
790.0
788.0
789.0
791.0
793.0
795.0
799.0
797.0
801.0
802.0
800.0
799.0
798.0
795.0
796.0
797.0
797.0
801.0
800.0
802.0
804.0
805.0
803.0
801.0
798.0
796.0
794.0
791.0
788.0
792.0
791.0
795.0
797.0
798.0
796.0
793.0
787.0
787.0
786.0
784.0
783.0
787.0
786.0
786.0
789.0
791.0
790.0
790.0
790.0
789.0
787.0
786.0
783.0
782.0
786.0
785.0
792.0
792.0
792.0
791.0
788.0
785.0
786.0
785.0
784.0
782.0
785.0
786.0
788.0
788.0
787.0
785.0
784.0
782.0
783.0
779.0
781.0
783.0
783.0
784.0
792.0
795.0
798.0
799.0
799.0
799.0
802.0
803.0
802.0
805.0
804.0
805.0
808.0
809.0
810.0
811.0
812.0
817.0
820.0
823.0
822.0
824.0
824.0
825.0
827.0
823.0
821.0
817.0
814.0
814.0
811.0
807.0
804.0
802.0
801.0
792.0
795.0
790.0
785.0
782.0
780.0
779.0
779.0
781.0
780.0
782.0
784.0
784.0
788.0
789.0
789.0
787.0
786.0
785.0
783.0
780.0
778.0
785.0
794.0
807.0
838.0
875.0
932.0
1003.0
1088.0
1185.0
1287.0
1385.0
1461.0
1500.0
1487.0
1405.0
1277.0
1149.0
1021.0
893.0
765.0
685.0
739.0
802.0
845.0
860.0
854.0
837.0
813.0
795.0
784.0
786.0
783.0
787.0
787.0
788.0
790.0
790.0
793.0
794.0
796.0
797.0
796.0
794.0
793.0
797.0
797.0
797.0
798.0
799.0
799.0
805.0
808.0
809.0
812.0
811.0
810.0
806.0
810.0
810.0
808.0
814.0
820.0
824.0
830.0
826.0
830.0
831.0
832.0
835.0
838.0
842.0
843.0
847.0
851.0
858.0
862.0
868.0
870.0
872.0
874.0
879.0
882.0
883.0
888.0
894.0
899.0
906.0
911.0
916.0
922.0
920.0
921.0
921.0
923.0
922.0
919.0
921.0
921.0
922.0
922.0
921.0
918.0
913.0
910.0
904.0
896.0
891.0
880.0
875.0
871.0
867.0
861.0
856.0
849.0
842.0
835.0
827.0
826.0
819.0
816.0
817.0
815.0
817.0
820.0
819.0
814.0
810.0
807.0
804.0
803.0
800.0
795.0
797.0
804.0
804.0
810.0
809.0
809.0
807.0
806.0
806.0
806.0
807.0
810.0
811.0
814.0
814.0
820.0
818.0
815.0
813.0
813.0
815.0
812.0
811.0
810.0
814.0
814.0
817.0
820.0
817.0
813.0
809.0
806.0
803.0
806.0
803.0
803.0
804.0
805.0
807.0
809.0
809.0
807.0
806.0
803.0
799.0
797.0
797.0
794.0
798.0
798.0
796.0
799.0
799.0
798.0
798.0
795.0
794.0
794.0
794.0
791.0
792.0
794.0
794.0
796.0
798.0
799.0
797.0
796.0
794.0
793.0
791.0
792.0
793.0
794.0
796.0
797.0
798.0
799.0
795.0
792.0
792.0
789.0
789.0
787.0
791.0
793.0
794.0
798.0
798.0
796.0
796.0
798.0
798.0
802.0
804.0
807.0
809.0
811.0
814.0
818.0
817.0
817.0
814.0
810.0
814.0
813.0
816.0
818.0
826.0
830.0
834.0
837.0
838.0
835.0
831.0
827.0
822.0
820.0
818.0
817.0
814.0
816.0
817.0
817.0
810.0
805.0
798.0
791.0
787.0
781.0
777.0
775.0
776.0
778.0
781.0
786.0
787.0
787.0
786.0
783.0
783.0
782.0
780.0
779.0
784.0
785.0
785.0
789.0
786.0
784.0
787.0
795.0
808.0
829.0
859.0
902.0
956.0
1020.0
1088.0
1154.0
1226.0
1302.0
1377.0
1439.0
1479.0
1490.0
1463.0
1384.0
1256.0
1128.0
1000.0
872.0
744.0
705.0
750.0
801.0
839.0
854.0
846.0
826.0
809.0
794.0
786.0
784.0
783.0
787.0
789.0
784.0
783.0
779.0
778.0
779.0
779.0
781.0
785.0
786.0
788.0
787.0
787.0
788.0
787.0
786.0
784.0
785.0
789.0
792.0
795.0
797.0
799.0
800.0
798.0
798.0
800.0
798.0
801.0
802.0
803.0
807.0
810.0
816.0
816.0
822.0
821.0
820.0
821.0
821.0
823.0
826.0
829.0
834.0
835.0
842.0
847.0
853.0
857.0
859.0
862.0
866.0
870.0
872.0
878.0
883.0
890.0
894.0
897.0
898.0
902.0
905.0
905.0
907.0
907.0
909.0
908.0
912.0
909.0
916.0
914.0
911.0
906.0
899.0
892.0
886.0
882.0
874.0
866.0
863.0
859.0
856.0
851.0
842.0
833.0
824.0
814.0
807.0
801.0
797.0
796.0
793.0
792.0
793.0
794.0
791.0
785.0
783.0
781.0
782.0
779.0
777.0
775.0
779.0
780.0
782.0
783.0
785.0
783.0
781.0
779.0
782.0
783.0
785.0
784.0
784.0
786.0
792.0
793.0
792.0
787.0
788.0
787.0
785.0
784.0
785.0
786.0
791.0
790.0
791.0
792.0
793.0
794.0
789.0
785.0
787.0
785.0
782.0
783.0
787.0
787.0
788.0
787.0
788.0
789.0
787.0
784.0
777.0
777.0
776.0
781.0
780.0
782.0
783.0
784.0
786.0
782.0
783.0
779.0
776.0
775.0
775.0
775.0
777.0
777.0
777.0
777.0
779.0
777.0
773.0
775.0
772.0
773.0
771.0
774.0
775.0
778.0
780.0
778.0
779.0
773.0
771.0
774.0
771.0
771.0
772.0
771.0
776.0
777.0
784.0
788.0
791.0
795.0
793.0
788.0
794.0
791.0
790.0
793.0
793.0
794.0
799.0
804.0
807.0
809.0
812.0
813.0
811.0
809.0
807.0
806.0
806.0
803.0
801.0
802.0
800.0
801.0
803.0
800.0
798.0
791.0
783.0
780.0
775.0
770.0
773.0
772.0
770.0
770.0
770.0
769.0
771.0
771.0
772.0
771.0
773.0
776.0
777.0
778.0
778.0
779.0
776.0
773.0
775.0
783.0
800.0
829.0
871.0
933.0
1004.0
1083.0
1167.0
1250.0
1330.0
1402.0
1458.0
1492.0
1495.0
1463.0
1384.0
1256.0
1128.0
1000.0
872.0
744.0
680.0
712.0
761.0
805.0
826.0
832.0
823.0
810.0
798.0
787.0
781.0
780.0
779.0
780.0
779.0
778.0
775.0
779.0
781.0
783.0
786.0
788.0
789.0
789.0
789.0
788.0
788.0
790.0
790.0
789.0
791.0
793.0
799.0
799.0
800.0
800.0
799.0
797.0
797.0
805.0
807.0
807.0
813.0
815.0
818.0
823.0
821.0
825.0
826.0
830.0
830.0
832.0
835.0
838.0
844.0
850.0
854.0
861.0
863.0
867.0
872.0
876.0
877.0
880.0
886.0
890.0
895.0
898.0
902.0
905.0
904.0
905.0
909.0
911.0
911.0
910.0
910.0
913.0
911.0
913.0
912.0
911.0
908.0
903.0
895.0
891.0
881.0
875.0
867.0
863.0
859.0
855.0
850.0
842.0
838.0
836.0
829.0
823.0
816.0
812.0
808.0
805.0
807.0
808.0
808.0
804.0
804.0
801.0
797.0
794.0
790.0
788.0
788.0
791.0
793.0
798.0
801.0
801.0
803.0
804.0
805.0
804.0
804.0
805.0
806.0
809.0
813.0
815.0
821.0
829.0
831.0
838.0
844.0
853.0
862.0
880.0
898.0
920.0
942.0
965.0
989.0
1011.0
1034.0
1054.0
1067.0
1080.0
1096.0
1107.0
1126.0
1142.0
1163.0
1185.0
1213.0
1242.0
1272.0
1301.0
1318.0
1336.0
1350.0
1366.0
1384.0
1412.0
1447.0
1489.0
1526.0
1556.0
1568.0
1567.0
1563.0
1548.0
1517.0
1469.0
1384.0
1256.0
1128.0
1000.0
872.0
762.0
728.0
721.0
722.0
723.0
715.0
706.0
693.0
678.0
676.0
671.0
673.0
678.0
680.0
680.0
681.0
680.0
676.0
670.0
663.0
662.0
658.0
658.0
654.0
654.0
651.0
646.0
642.0
638.0
635.0
630.0
627.0
623.0
622.0
623.0
619.0
618.0
615.0
609.0
602.0
597.0
591.0
586.0
582.0
577.0
576.0
574.0
574.0
573.0
571.0
568.0
567.0
564.0
563.0
563.0
566.0
573.0
578.0
587.0
596.0
602.0
611.0
617.0
626.0
636.0
646.0
660.0
670.0
682.0
698.0
707.0
723.0
735.0
743.0
751.0
757.0
762.0
772.0
773.0
777.0
781.0
786.0
785.0
786.0
790.0
790.0
786.0
782.0
783.0
779.0
779.0
780.0
780.0
781.0
783.0
780.0
785.0
781.0
781.0
780.0
775.0
777.0
775.0
775.0
777.0
776.0
777.0
777.0
779.0
777.0
778.0
777.0
776.0
775.0
770.0
771.0
770.0
773.0
775.0
774.0
776.0
774.0
774.0
773.0
770.0
769.0
769.0
768.0
768.0
769.0
770.0
773.0
773.0
771.0
772.0
771.0
771.0
768.0
765.0
766.0
767.0
767.0
769.0
767.0
771.0
771.0
768.0
768.0
769.0
765.0
765.0
763.0
766.0
768.0
766.0
768.0
770.0
767.0
768.0
770.0
767.0
768.0
762.0
762.0
763.0
767.0
768.0
769.0
771.0
770.0
770.0
769.0
762.0
767.0
767.0
766.0
765.0
767.0
769.0
768.0
774.0
775.0
775.0
774.0
772.0
769.0
767.0
770.0
768.0
771.0
770.0
773.0
777.0
777.0
775.0
773.0
772.0
768.0
768.0
768.0
767.0
769.0
769.0
771.0
774.0
775.0
773.0
771.0
770.0
767.0
767.0
767.0
768.0
769.0
774.0
772.0
771.0
771.0
773.0
770.0
768.0
768.0
768.0
765.0
766.0
770.0
772.0
777.0
778.0
777.0
777.0
779.0
777.0
774.0
772.0
771.0
770.0
773.0
773.0
775.0
776.0
777.0
779.0
778.0
776.0
774.0
774.0
775.0
774.0
776.0
779.0
781.0
784.0
783.0
783.0
781.0
776.0
776.0
775.0
774.0
773.0
776.0
778.0
777.0
780.0
783.0
781.0
781.0
779.0
779.0
777.0
778.0
779.0
781.0
780.0
780.0
782.0
783.0
786.0
782.0
780.0
778.0
777.0
778.0
776.0
781.0
782.0
785.0
786.0
785.0
784.0
783.0
785.0
781.0
782.0
785.0
784.0
787.0
787.0
789.0
792.0
794.0
798.0
803.0
804.0
805.0
808.0
807.0
805.0
806.0
810.0
811.0
815.0
815.0
818.0
821.0
820.0
823.0
824.0
827.0
826.0
825.0
824.0
826.0
827.0
825.0
822.0
822.0
819.0
817.0
815.0
810.0
806.0
800.0
799.0
798.0
796.0
792.0
790.0
786.0
785.0
779.0
783.0
781.0
781.0
783.0
785.0
788.0
789.0
793.0
791.0
788.0
785.0
783.0
787.0
794.0
806.0
825.0
852.0
896.0
960.0
1034.0
1126.0
1223.0
1327.0
1417.0
1484.0
1521.0
1520.0
1475.0
1375.0
1247.0
1119.0
991.0
863.0
735.0
691.0
744.0
807.0
845.0
859.0
856.0
834.0
812.0
795.0
784.0
781.0
783.0
784.0
787.0
786.0
780.0
781.0
786.0
784.0
786.0
787.0
790.0
789.0
789.0
788.0
785.0
786.0
784.0
786.0
790.0
793.0
798.0
799.0
798.0
799.0
797.0
795.0
796.0
799.0
803.0
805.0
810.0
813.0
817.0
819.0
822.0
823.0
827.0
830.0
830.0
832.0
836.0
839.0
846.0
853.0
858.0
865.0
868.0
872.0
876.0
876.0
881.0
886.0
889.0
892.0
896.0
906.0
914.0
921.0
926.0
928.0
931.0
934.0
937.0
940.0
943.0
947.0
950.0
955.0
961.0
963.0
961.0
965.0
967.0
963.0
963.0
959.0
957.0
954.0
951.0
944.0
941.0
932.0
927.0
921.0
913.0
902.0
892.0
884.0
874.0
866.0
865.0
858.0
854.0
852.0
849.0
841.0
839.0
835.0
832.0
827.0
829.0
829.0
830.0
830.0
831.0
831.0
828.0
827.0
824.0
824.0
822.0
823.0
822.0
820.0
822.0
822.0
824.0
826.0
827.0
823.0
823.0
820.0
817.0
815.0
817.0
815.0
816.0
816.0
815.0
817.0
816.0
814.0
812.0
808.0
807.0
799.0
801.0
803.0
803.0
804.0
803.0
805.0
804.0
805.0
799.0
794.0
796.0
795.0
793.0
793.0
794.0
794.0
795.0
793.0
792.0
787.0
788.0
781.0
785.0
784.0
782.0
784.0
785.0
786.0
785.0
788.0
787.0
785.0
786.0
781.0
778.0
778.0
777.0
776.0
777.0
777.0
783.0
784.0
784.0
780.0
777.0
773.0
771.0
774.0
774.0
774.0
777.0
781.0
783.0
786.0
793.0
794.0
797.0
795.0
792.0
790.0
789.0
786.0
787.0
786.0
784.0
789.0
792.0
792.0
792.0
794.0
793.0
793.0
787.0
784.0
787.0
788.0
786.0
786.0
783.0
781.0
778.0
777.0
773.0
769.0
765.0
759.0
756.0
752.0
750.0
754.0
750.0
753.0
753.0
752.0
750.0
749.0
746.0
750.0
752.0
755.0
754.0
758.0
756.0
754.0
755.0
756.0
761.0
775.0
798.0
838.0
893.0
964.0
1043.0
1128.0
1215.0
1301.0
1383.0
1449.0
1489.0
1504.0
1478.0
1403.0
1275.0
1147.0
1019.0
891.0
763.0
660.0
696.0
746.0
792.0
816.0
819.0
809.0
789.0
776.0
769.0
765.0
763.0
762.0
762.0
761.0
760.0
759.0
760.0
761.0
762.0
767.0
770.0
772.0
775.0
775.0
774.0
773.0
773.0
774.0
774.0
774.0
775.0
778.0
779.0
784.0
786.0
785.0
790.0
787.0
785.0
788.0
788.0
790.0
792.0
796.0
799.0
807.0
806.0
809.0
813.0
814.0
813.0
813.0
819.0
823.0
827.0
834.0
837.0
843.0
851.0
857.0
862.0
863.0
867.0
871.0
871.0
876.0
879.0
883.0
885.0
886.0
886.0
885.0
882.0
881.0
880.0
878.0
875.0
871.0
870.0
870.0
867.0
866.0
861.0
851.0
846.0
835.0
829.0
822.0
815.0
809.0
807.0
807.0
805.0
801.0
797.0
792.0
788.0
781.0
779.0
779.0
774.0
773.0
771.0
773.0
770.0
771.0
774.0
774.0
774.0
771.0
770.0
770.0
769.0
771.0
771.0
774.0
776.0
780.0
779.0
777.0
778.0
775.0
772.0
773.0
772.0
773.0
774.0
775.0
777.0
780.0
778.0
779.0
778.0
776.0
773.0
773.0
770.0
769.0
771.0
773.0
774.0
776.0
775.0
773.0
772.0
769.0
768.0
769.0
767.0
763.0
767.0
768.0
769.0
771.0
771.0
770.0
770.0
765.0
766.0
763.0
760.0
763.0
764.0
767.0
766.0
766.0
764.0
764.0
762.0
763.0
761.0
762.0
761.0
762.0
762.0
764.0
769.0
771.0
770.0
767.0
766.0
766.0
763.0
762.0
761.0
760.0
763.0
765.0
769.0
769.0
771.0
771.0
772.0
770.0
