# Simple Text Format
# Sampling Rate (Hz):= 360.00
# Resolution:= 12
# Labels:= ECG
832.0
832.0
831.0
831.0
828.0
829.0
828.0
832.0
835.0
836.0
840.0
838.0
836.0
832.0
831.0
831.0
832.0
831.0
832.0
830.0
835.0
832.0
835.0
839.0
842.0
844.0
842.0
838.0
838.0
838.0
838.0
844.0
851.0
856.0
858.0
859.0
859.0
860.0
854.0
857.0
856.0
860.0
862.0
865.0
868.0
871.0
872.0
880.0
881.0
885.0
885.0
883.0
886.0
887.0
889.0
890.0
893.0
897.0
901.0
903.0
905.0
908.0
906.0
905.0
903.0
903.0
903.0
905.0
905.0
905.0
906.0
902.0
899.0
893.0
889.0
889.0
884.0
880.0
871.0
868.0
868.0
866.0
865.0
865.0
859.0
857.0
851.0
849.0
848.0
847.0
843.0
845.0
843.0
843.0
846.0
845.0
845.0
841.0
837.0
833.0
833.0
836.0
832.0
834.0
836.0
837.0
837.0
838.0
837.0
837.0
838.0
835.0
837.0
835.0
828.0
830.0
832.0
833.0
838.0
839.0
840.0
838.0
837.0
837.0
833.0
835.0
834.0
838.0
840.0
841.0
844.0
847.0
845.0
846.0
845.0
842.0
843.0
843.0
841.0
842.0
844.0
846.0
848.0
848.0
849.0
849.0
845.0
845.0
846.0
842.0
842.0
844.0
845.0
846.0
847.0
849.0
849.0
847.0
842.0
841.0
839.0
836.0
836.0
838.0
840.0
842.0
842.0
845.0
840.0
841.0
837.0
834.0
835.0
830.0
829.0
835.0
834.0
834.0
837.0
837.0
839.0
834.0
834.0
831.0
831.0
827.0
824.0
826.0
827.0
829.0
831.0
833.0
834.0
831.0
830.0
828.0
827.0
823.0
825.0
826.0
827.0
829.0
831.0
831.0
831.0
828.0
826.0
823.0
823.0
822.0
824.0
824.0
825.0
824.0
827.0
828.0
831.0
830.0
824.0
824.0
827.0
822.0
823.0
822.0
825.0
825.0
825.0
827.0
828.0
828.0
826.0
828.0
827.0
825.0
825.0
824.0
826.0
831.0
834.0
833.0
830.0
832.0
830.0
825.0
828.0
825.0
828.0
828.0
831.0
834.0
830.0
833.0
834.0
834.0
832.0
829.0
825.0
829.0
827.0
828.0
830.0
831.0
833.0
834.0
832.0
829.0
826.0
824.0
824.0
824.0
827.0
827.0
829.0
830.0
833.0
835.0
835.0
838.0
841.0
840.0
840.0
844.0
845.0
845.0
849.0
853.0
857.0
859.0
862.0
864.0
868.0
871.0
874.0
874.0
871.0
870.0
868.0
865.0
865.0
866.0
866.0
861.0
863.0
861.0
859.0
858.0
854.0
847.0
843.0
838.0
835.0
833.0
831.0
828.0
825.0
825.0
824.0
821.0
818.0
818.0
820.0
821.0
826.0
825.0
825.0
821.0
821.0
823.0
818.0
819.0
820.0
822.0
824.0
825.0
828.0
828.0
829.0
828.0
824.0
824.0
825.0
824.0
824.0
827.0
829.0
833.0
833.0
838.0
835.0
834.0
837.0
837.0
837.0
835.0
840.0
842.0
850.0
865.0
896.0
932.0
979.0
1032.0
1084.0
1135.0
1191.0
1248.0
1280.0
1284.0
1244.0
1168.0
1067.0
949.0
834.0
735.0
669.0
645.0
652.0
678.0
719.0
750.0
772.0
786.0
791.0
796.0
804.0
813.0
825.0
829.0
832.0
833.0
831.0
834.0
832.0
833.0
834.0
835.0
833.0
835.0
833.0
832.0
833.0
832.0
831.0
835.0
837.0
837.0
838.0
839.0
840.0
838.0
840.0
837.0
835.0
831.0
831.0
834.0
838.0
837.0
838.0
840.0
837.0
839.0
840.0
838.0
835.0
834.0
834.0
832.0
835.0
838.0
842.0
841.0
843.0
842.0
845.0
841.0
843.0
841.0
842.0
844.0
845.0
843.0
849.0
849.0
852.0
850.0
851.0
852.0
850.0
851.0
851.0
855.0
858.0
859.0
862.0
866.0
870.0
869.0
873.0
872.0
872.0
877.0
880.0
880.0
885.0
887.0
890.0
896.0
896.0
893.0
901.0
902.0
902.0
904.0
903.0
907.0
910.0
916.0
918.0
920.0
925.0
924.0
924.0
927.0
925.0
924.0
924.0
926.0
925.0
925.0
924.0
927.0
925.0
920.0
917.0
914.0
908.0
903.0
897.0
894.0
892.0
890.0
887.0
885.0
881.0
876.0
872.0
868.0
860.0
858.0
858.0
858.0
858.0
858.0
858.0
858.0
858.0
856.0
853.0
852.0
847.0
848.0
847.0
847.0
847.0
849.0
852.0
854.0
851.0
851.0
853.0
850.0
848.0
847.0
849.0
849.0
850.0
851.0
855.0
854.0
856.0
855.0
852.0
852.0
850.0
851.0
850.0
849.0
851.0
855.0
856.0
859.0
858.0
860.0
857.0
855.0
856.0
856.0
856.0
856.0
857.0
861.0
862.0
863.0
863.0
862.0
857.0
859.0
858.0
854.0
857.0
857.0
859.0
860.0
861.0
863.0
859.0
860.0
860.0
858.0
854.0
853.0
854.0
853.0
857.0
858.0
855.0
859.0
859.0
860.0
858.0
856.0
853.0
851.0
851.0
849.0
851.0
851.0
853.0
856.0
853.0
849.0
849.0
852.0
850.0
848.0
847.0
848.0
848.0
849.0
851.0
853.0
852.0
852.0
849.0
849.0
845.0
845.0
843.0
841.0
842.0
846.0
846.0
848.0
849.0
847.0
846.0
843.0
838.0
838.0
841.0
843.0
840.0
842.0
842.0
843.0
843.0
844.0
844.0
843.0
840.0
841.0
837.0
840.0
839.0
841.0
844.0
845.0
844.0
843.0
841.0
839.0
840.0
840.0
841.0
842.0
842.0
844.0
842.0
842.0
843.0
844.0
841.0
838.0
842.0
838.0
839.0
838.0
839.0
844.0
844.0
847.0
848.0
847.0
844.0
842.0
840.0
839.0
839.0
840.0
841.0
844.0
845.0
846.0
846.0
847.0
844.0
844.0
843.0
838.0
837.0
840.0
842.0
845.0
842.0
844.0
847.0
848.0
846.0
846.0
843.0
842.0
842.0
842.0
841.0
844.0
844.0
848.0
848.0
847.0
846.0
846.0
847.0
844.0
842.0
845.0
845.0
849.0
849.0
850.0
847.0
849.0
848.0
845.0
844.0
844.0
843.0
845.0
846.0
848.0
853.0
853.0
854.0
852.0
858.0
859.0
861.0
864.0
867.0
869.0
873.0
875.0
875.0
877.0
880.0
883.0
884.0
882.0
881.0
878.0
877.0
874.0
872.0
872.0
873.0
871.0
873.0
869.0
871.0
868.0
864.0
860.0
858.0
856.0
854.0
852.0
849.0
848.0
844.0
842.0
837.0
833.0
832.0
832.0
829.0
828.0
828.0
831.0
834.0
834.0
833.0
833.0
832.0
832.0
826.0
828.0
826.0
827.0
829.0
832.0
833.0
836.0
835.0
837.0
834.0
835.0
834.0
831.0
830.0
832.0
834.0
837.0
835.0
840.0
840.0
843.0
843.0
842.0
845.0
845.0
844.0
851.0
856.0
866.0
880.0
904.0
939.0
984.0
1030.0
1077.0
1121.0
1176.0
1223.0
1263.0
1275.0
1252.0
1187.0
1096.0
980.0
862.0
759.0
692.0
664.0
677.0
713.0
755.0
790.0
812.0
818.0
820.0
818.0
821.0
824.0
829.0
837.0
841.0
842.0
840.0
839.0
840.0
841.0
840.0
838.0
840.0
842.0
842.0
843.0
841.0
838.0
839.0
839.0
841.0
844.0
846.0
846.0
848.0
844.0
842.0
844.0
839.0
838.0
842.0
840.0
842.0
844.0
845.0
844.0
846.0
846.0
842.0
842.0
844.0
841.0
842.0
844.0
845.0
845.0
848.0
847.0
847.0
849.0
845.0
845.0
845.0
847.0
847.0
849.0
853.0
855.0
858.0
856.0
859.0
859.0
861.0
860.0
859.0
861.0
858.0
861.0
866.0
868.0
873.0
875.0
878.0
877.0
879.0
879.0
880.0
882.0
884.0
888.0
891.0
893.0
899.0
904.0
904.0
907.0
909.0
910.0
913.0
914.0
914.0
921.0
921.0
927.0
931.0
932.0
935.0
936.0
937.0
935.0
940.0
941.0
941.0
942.0
941.0
943.0
941.0
939.0
934.0
932.0
926.0
923.0
919.0
912.0
909.0
906.0
902.0
901.0
899.0
896.0
891.0
886.0
879.0
876.0
872.0
872.0
869.0
867.0
871.0
869.0
868.0
865.0
867.0
866.0
864.0
860.0
858.0
858.0
859.0
858.0
857.0
859.0
859.0
858.0
863.0
861.0
857.0
859.0
858.0
856.0
855.0
858.0
858.0
862.0
863.0
864.0
863.0
864.0
861.0
858.0
859.0
856.0
855.0
856.0
859.0
863.0
863.0
864.0
865.0
863.0
862.0
859.0
858.0
857.0
856.0
859.0
862.0
864.0
866.0
867.0
866.0
864.0
858.0
861.0
860.0
859.0
861.0
858.0
861.0
861.0
860.0
865.0
864.0
862.0
861.0
859.0
855.0
856.0
855.0
858.0
860.0
859.0
860.0
859.0
861.0
857.0
855.0
853.0
849.0
852.0
853.0
852.0
851.0
854.0
852.0
853.0
853.0
851.0
852.0
848.0
847.0
847.0
844.0
847.0
849.0
852.0
848.0
847.0
847.0
848.0
846.0
846.0
844.0
844.0
843.0
843.0
844.0
845.0
846.0
847.0
846.0
845.0
843.0
844.0
842.0
842.0
838.0
841.0
843.0
845.0
849.0
847.0
847.0
845.0
844.0
844.0
843.0
844.0
841.0
841.0
840.0
846.0
846.0
847.0
849.0
844.0
843.0
844.0
840.0
839.0
838.0
842.0
844.0
843.0
843.0
843.0
842.0
840.0
837.0
836.0
833.0
831.0
832.0
837.0
837.0
839.0
841.0
844.0
843.0
841.0
839.0
835.0
837.0
834.0
831.0
837.0
838.0
843.0
841.0
843.0
843.0
843.0
842.0
839.0
837.0
839.0
839.0
837.0
841.0
840.0
842.0
840.0
841.0
841.0
839.0
837.0
839.0
838.0
837.0
839.0
839.0
842.0
840.0
838.0
839.0
841.0
838.0
841.0
836.0
835.0
836.0
837.0
838.0
839.0
843.0
845.0
844.0
844.0
842.0
843.0
844.0
845.0
848.0
853.0
862.0
864.0
868.0
869.0
871.0
874.0
873.0
873.0
872.0
870.0
870.0
867.0
866.0
865.0
862.0
861.0
860.0
858.0
858.0
858.0
855.0
851.0
845.0
844.0
846.0
843.0
841.0
840.0
833.0
833.0
826.0
827.0
823.0
822.0
818.0
823.0
821.0
821.0
821.0
822.0
824.0
823.0
822.0
820.0
818.0
817.0
817.0
818.0
819.0
823.0
825.0
829.0
828.0
827.0
824.0
824.0
822.0
819.0
817.0
822.0
822.0
826.0
829.0
828.0
832.0
835.0
832.0
835.0
833.0
834.0
837.0
842.0
855.0
874.0
908.0
950.0
998.0
1048.0
1097.0
1151.0
1203.0
1232.0
1232.0
1187.0
1107.0
1004.0
889.0
785.0
706.0
664.0
660.0
677.0
709.0
739.0
762.0
775.0
785.0
792.0
801.0
806.0
816.0
820.0
825.0
826.0
825.0
821.0
821.0
822.0
825.0
825.0
829.0
827.0
828.0
831.0
828.0
826.0
822.0
823.0
823.0
826.0
829.0
828.0
834.0
832.0
831.0
826.0
825.0
825.0
825.0
826.0
825.0
826.0
827.0
826.0
828.0
828.0
829.0
828.0
827.0
825.0
827.0
827.0
824.0
827.0
830.0
832.0
834.0
832.0
832.0
832.0
829.0
830.0
830.0
830.0
826.0
829.0
832.0
839.0
842.0
842.0
845.0
846.0
845.0
842.0
841.0
842.0
843.0
845.0
850.0
853.0
856.0
858.0
858.0
860.0
859.0
861.0
864.0
866.0
869.0
868.0
873.0
877.0
882.0
883.0
887.0
888.0
889.0
888.0
889.0
889.0
892.0
894.0
897.0
903.0
906.0
910.0
910.0
912.0
909.0
907.0
905.0
905.0
904.0
905.0
903.0
905.0
903.0
902.0
898.0
895.0
889.0
883.0
880.0
871.0
868.0
867.0
866.0
863.0
863.0
861.0
857.0
856.0
850.0
846.0
845.0
843.0
839.0
838.0
837.0
839.0
840.0
842.0
843.0
839.0
838.0
835.0
834.0
831.0
829.0
833.0
832.0
835.0
836.0
835.0
838.0
835.0
834.0
837.0
836.0
833.0
832.0
836.0
838.0
839.0
840.0
843.0
840.0
840.0
842.0
838.0
837.0
836.0
835.0
837.0
839.0
842.0
842.0
846.0
846.0
843.0
842.0
845.0
842.0
840.0
838.0
841.0
845.0
845.0
848.0
849.0
849.0
847.0
846.0
842.0
839.0
839.0
838.0
837.0
842.0
843.0
843.0
843.0
842.0
842.0
840.0
836.0
837.0
834.0
836.0
836.0
840.0
839.0
842.0
842.0
840.0
838.0
839.0
836.0
833.0
833.0
831.0
832.0
835.0
834.0
835.0
838.0
835.0
834.0
831.0
830.0
828.0
826.0
826.0
827.0
828.0
828.0
829.0
832.0
831.0
831.0
830.0
823.0
826.0
825.0
826.0
827.0
827.0
826.0
828.0
831.0
832.0
830.0
826.0
825.0
823.0
823.0
819.0
824.0
827.0
830.0
831.0
832.0
832.0
830.0
831.0
828.0
827.0
826.0
825.0
826.0
829.0
833.0
833.0
835.0
830.0
829.0
828.0
825.0
827.0
827.0
826.0
827.0
828.0
831.0
829.0
829.0
832.0
832.0
828.0
827.0
824.0
820.0
822.0
822.0
823.0
829.0
825.0
828.0
825.0
829.0
825.0
825.0
827.0
827.0
828.0
825.0
827.0
829.0
834.0
833.0
837.0
841.0
842.0
844.0
845.0
846.0
846.0
851.0
852.0
856.0
858.0
867.0
871.0
867.0
866.0
864.0
858.0
853.0
849.0
848.0
847.0
846.0
851.0
850.0
852.0
853.0
848.0
843.0
835.0
827.0
818.0
816.0
817.0
817.0
819.0
822.0
820.0
816.0
813.0
810.0
809.0
807.0
808.0
810.0
807.0
808.0
812.0
812.0
812.0
812.0
810.0
808.0
810.0
809.0
810.0
810.0
811.0
810.0
814.0
816.0
816.0
818.0
819.0
817.0
813.0
814.0
813.0
815.0
817.0
821.0
823.0
824.0
823.0
827.0
828.0
827.0
829.0
831.0
838.0
853.0
883.0
926.0
974.0
1028.0
1082.0
1136.0
1192.0
1237.0
1265.0
1253.0
1203.0
1117.0
1015.0
896.0
787.0
698.0
645.0
631.0
641.0
668.0
697.0
726.0
745.0
755.0
766.0
777.0
789.0
800.0
808.0
815.0
815.0
814.0
809.0
810.0
813.0
812.0
815.0
816.0
816.0
818.0
818.0
819.0
819.0
817.0
816.0
813.0
812.0
815.0
818.0
820.0
825.0
825.0
824.0
822.0
820.0
818.0
818.0
816.0
815.0
816.0
817.0
818.0
822.0
825.0
822.0
823.0
821.0
819.0
816.0
819.0
817.0
818.0
816.0
819.0
821.0
817.0
822.0
822.0
823.0
823.0
823.0
824.0
823.0
826.0
830.0
832.0
834.0
835.0
836.0
837.0
836.0
838.0
835.0
835.0
836.0
838.0
839.0
847.0
850.0
854.0
851.0
853.0
853.0
852.0
855.0
855.0
857.0
860.0
863.0
863.0
867.0
873.0
876.0
878.0
882.0
883.0
884.0
886.0
887.0
889.0
894.0
896.0
901.0
905.0
906.0
910.0
909.0
909.0
908.0
905.0
907.0
909.0
909.0
910.0
910.0
908.0
904.0
901.0
896.0
890.0
887.0
884.0
878.0
874.0
873.0
872.0
868.0
867.0
864.0
861.0
858.0
854.0
850.0
847.0
846.0
847.0
847.0
848.0
846.0
848.0
847.0
846.0
844.0
842.0
843.0
835.0
834.0
833.0
834.0
840.0
845.0
847.0
845.0
846.0
844.0
840.0
841.0
837.0
835.0
837.0
837.0
842.0
841.0
843.0
845.0
846.0
844.0
842.0
844.0
843.0
844.0
840.0
843.0
847.0
848.0
853.0
854.0
853.0
850.0
846.0
845.0
846.0
845.0
847.0
851.0
852.0
854.0
853.0
850.0
848.0
850.0
848.0
846.0
847.0
844.0
848.0
849.0
851.0
852.0
855.0
853.0
853.0
852.0
850.0
847.0
846.0
845.0
846.0
845.0
851.0
852.0
852.0
850.0
850.0
850.0
847.0
844.0
843.0
842.0
840.0
843.0
845.0
845.0
847.0
848.0
846.0
845.0
842.0
840.0
834.0
835.0
835.0
837.0
835.0
835.0
841.0
838.0
843.0
836.0
837.0
833.0
836.0
832.0
830.0
831.0
834.0
837.0
838.0
835.0
836.0
832.0
835.0
834.0
833.0
834.0
832.0
836.0
840.0
836.0
839.0
840.0
841.0
838.0
838.0
835.0
833.0
829.0
833.0
832.0
838.0
839.0
842.0
840.0
840.0
839.0
835.0
834.0
833.0
833.0
833.0
836.0
836.0
839.0
841.0
839.0
837.0
837.0
837.0
836.0
836.0
834.0
833.0
834.0
835.0
836.0
837.0
840.0
840.0
834.0
832.0
832.0
831.0
829.0
831.0
835.0
835.0
836.0
839.0
839.0
840.0
841.0
839.0
840.0
841.0
843.0
850.0
852.0
859.0
861.0
867.0
865.0
867.0
868.0
869.0
870.0
872.0
871.0
872.0
869.0
868.0
868.0
868.0
864.0
865.0
859.0
855.0
857.0
857.0
855.0
853.0
850.0
848.0
846.0
842.0
838.0
837.0
834.0
829.0
827.0
824.0
823.0
821.0
819.0
824.0
823.0
828.0
828.0
829.0
825.0
825.0
825.0
822.0
822.0
822.0
826.0
826.0
828.0
829.0
831.0
829.0
830.0
826.0
826.0
828.0
827.0
831.0
831.0
834.0
835.0
839.0
838.0
838.0
838.0
836.0
839.0
842.0
841.0
844.0
852.0
859.0
865.0
890.0
924.0
965.0
1014.0
1058.0
1107.0
1154.0
1210.0
1256.0
1276.0
1266.0
1214.0
1127.0
1017.0
900.0
791.0
707.0
667.0
663.0
692.0
733.0
770.0
794.0
806.0
814.0
817.0
819.0
823.0
826.0
831.0
834.0
836.0
837.0
837.0
840.0
839.0
840.0
841.0
841.0
842.0
841.0
839.0
838.0
838.0
837.0
841.0
840.0
840.0
842.0
843.0
843.0
841.0
840.0
841.0
839.0
839.0
837.0
841.0
839.0
844.0
843.0
844.0
847.0
844.0
843.0
840.0
839.0
835.0
838.0
838.0
843.0
847.0
849.0
847.0
848.0
850.0
848.0
843.0
842.0
845.0
844.0
850.0
853.0
856.0
855.0
854.0
856.0
859.0
860.0
855.0
856.0
860.0
859.0
863.0
866.0
866.0
873.0
875.0
875.0
878.0
877.0
879.0
880.0
881.0
883.0
890.0
894.0
899.0
901.0
906.0
908.0
911.0
909.0
912.0
915.0
916.0
920.0
925.0
928.0
932.0
935.0
938.0
939.0
939.0
941.0
936.0
938.0
939.0
940.0
940.0
941.0
945.0
942.0
937.0
934.0
931.0
925.0
917.0
914.0
910.0
905.0
902.0
900.0
898.0
895.0
891.0
887.0
883.0
878.0
873.0
869.0
869.0
866.0
867.0
868.0
867.0
867.0
867.0
865.0
862.0
862.0
861.0
860.0
860.0
861.0
858.0
861.0
865.0
868.0
867.0
867.0
866.0
865.0
867.0
868.0
871.0
875.0
885.0
891.0
898.0
907.0
917.0
920.0
929.0
933.0
936.0
942.0
946.0
952.0
961.0
976.0
990.0
1017.0
1043.0
1073.0
1100.0
1126.0
1147.0
1162.0
1167.0
1167.0
1159.0
1147.0
1132.0
1114.0
1093.0
1075.0
1054.0
1033.0
1012.0
986.0
963.0
943.0
925.0
917.0
914.0
925.0
941.0
959.0
971.0
975.0
968.0
956.0
945.0
930.0
915.0
896.0
876.0
857.0
843.0
836.0
829.0
824.0
818.0
812.0
808.0
807.0
801.0
800.0
800.0
796.0
793.0
792.0
788.0
785.0
780.0
781.0
778.0
778.0
778.0
777.0
779.0
776.0
776.0
780.0
777.0
779.0
775.0
773.0
773.0
772.0
774.0
775.0
776.0
775.0
781.0
779.0
778.0
777.0
776.0
774.0
775.0
776.0
778.0
779.0
779.0
780.0
783.0
780.0
780.0
778.0
779.0
778.0
781.0
782.0
785.0
789.0
793.0
798.0
803.0
804.0
805.0
809.0
807.0
812.0
816.0
818.0
826.0
834.0
843.0
852.0
856.0
859.0
864.0
868.0
875.0
878.0
886.0
889.0
896.0
903.0
908.0
912.0
916.0
923.0
925.0
927.0
925.0
925.0
928.0
932.0
933.0
938.0
940.0
940.0
939.0
938.0
934.0
931.0
927.0
927.0
922.0
920.0
919.0
920.0
920.0
919.0
921.0
922.0
918.0
918.0
915.0
911.0
910.0
907.0
907.0
910.0
911.0
913.0
916.0
912.0
908.0
904.0
895.0
893.0
889.0
888.0
890.0
889.0
888.0
890.0
891.0
888.0
886.0
881.0
875.0
872.0
868.0
864.0
863.0
860.0
859.0
856.0
857.0
851.0
851.0
851.0
846.0
844.0
843.0
841.0
844.0
845.0
846.0
849.0
848.0
847.0
845.0
839.0
838.0
837.0
837.0
837.0
837.0
838.0
841.0
841.0
839.0
842.0
839.0
836.0
837.0
837.0
836.0
834.0
835.0
837.0
839.0
842.0
842.0
841.0
843.0
841.0
840.0
838.0
838.0
835.0
837.0
842.0
843.0
845.0
843.0
845.0
843.0
843.0
842.0
840.0
843.0
840.0
844.0
847.0
853.0
856.0
861.0
863.0
870.0
874.0
894.0
926.0
972.0
1027.0
1089.0
1152.0
1215.0
1259.0
1272.0
1243.0
1165.0
1063.0
942.0
826.0
738.0
689.0
679.0
696.0
728.0
764.0
788.0
803.0
808.0
808.0
811.0
818.0
822.0
826.0
832.0
836.0
838.0
840.0
838.0
837.0
833.0
834.0
833.0
833.0
835.0
831.0
833.0
834.0
834.0
836.0
839.0
837.0
836.0
836.0
833.0
832.0
829.0
830.0
830.0
832.0
837.0
836.0
838.0
837.0
835.0
832.0
832.0
830.0
830.0
831.0
833.0
833.0
836.0
838.0
837.0
837.0
837.0
836.0
832.0
834.0
832.0
831.0
832.0
836.0
841.0
844.0
842.0
846.0
845.0
840.0
840.0
842.0
841.0
838.0
841.0
844.0
848.0
850.0
852.0
851.0
850.0
853.0
854.0
853.0
853.0
855.0
857.0
863.0
867.0
871.0
874.0
873.0
874.0
872.0
873.0
874.0
873.0
878.0
883.0
888.0
890.0
893.0
894.0
897.0
899.0
900.0
898.0
897.0
898.0
897.0
898.0
901.0
901.0
903.0
901.0
898.0
896.0
889.0
883.0
881.0
876.0
873.0
869.0
868.0
867.0
869.0
864.0
863.0
858.0
851.0
851.0
848.0
849.0
849.0
848.0
849.0
849.0
852.0
852.0
851.0
848.0
847.0
845.0
847.0
844.0
843.0
847.0
848.0
849.0
852.0
854.0
853.0
855.0
851.0
849.0
850.0
848.0
847.0
848.0
851.0
852.0
857.0
854.0
855.0
856.0
854.0
854.0
849.0
843.0
847.0
850.0
855.0
856.0
857.0
856.0
856.0
853.0
851.0
849.0
849.0
847.0
846.0
847.0
849.0
849.0
851.0
851.0
852.0
849.0
850.0
846.0
842.0
841.0
838.0
839.0
835.0
841.0
840.0
843.0
845.0
843.0
840.0
838.0
838.0
835.0
833.0
831.0
834.0
838.0
839.0
839.0
840.0
842.0
839.0
835.0
831.0
828.0
829.0
833.0
835.0
837.0
839.0
838.0
837.0
834.0
832.0
831.0
828.0
827.0
829.0
827.0
829.0
831.0
835.0
836.0
839.0
835.0
831.0
828.0
825.0
827.0
826.0
831.0
834.0
832.0
829.0
830.0
832.0
833.0
833.0
832.0
830.0
830.0
829.0
828.0
828.0
829.0
832.0
835.0
834.0
835.0
834.0
833.0
831.0
829.0
829.0
829.0
837.0
845.0
848.0
852.0
855.0
857.0
856.0
855.0
858.0
857.0
862.0
865.0
868.0
872.0
870.0
868.0
866.0
862.0
858.0
855.0
852.0
850.0
848.0
850.0
852.0
853.0
850.0
844.0
842.0
836.0
830.0
823.0
822.0
820.0
819.0
818.0
819.0
820.0
818.0
819.0
818.0
820.0
818.0
813.0
811.0
814.0
811.0
814.0
817.0
819.0
821.0
825.0
823.0
817.0
817.0
820.0
818.0
815.0
818.0
818.0
819.0
823.0
821.0
824.0
822.0
827.0
825.0
826.0
822.0
821.0
821.0
824.0
827.0
829.0
831.0
832.0
832.0
834.0
836.0
841.0
855.0
882.0
922.0
974.0
1030.0
1087.0
1151.0
1209.0
1248.0
1251.0
1213.0
1130.0
1023.0
901.0
788.0
707.0
664.0
658.0
673.0
702.0
727.0
755.0
771.0
779.0
785.0
795.0
801.0
809.0
814.0
821.0
825.0
824.0
824.0
821.0
821.0
818.0
816.0
818.0
818.0
819.0
821.0
827.0
823.0
826.0
824.0
823.0
822.0
823.0
819.0
823.0
818.0
819.0
820.0
822.0
823.0
823.0
825.0
823.0
822.0
820.0
819.0
819.0
818.0
814.0
818.0
819.0
822.0
826.0
827.0
827.0
823.0
825.0
820.0
823.0
826.0
824.0
826.0
829.0
829.0
831.0
832.0
833.0
833.0
831.0
832.0
833.0
833.0
834.0
835.0
830.0
839.0
841.0
840.0
844.0
845.0
843.0
841.0
840.0
843.0
847.0
851.0
852.0
855.0
858.0
859.0
861.0
862.0
860.0
861.0
862.0
864.0
866.0
868.0
875.0
877.0
881.0
882.0
881.0
883.0
883.0
883.0
884.0
888.0
886.0
892.0
893.0
896.0
897.0
897.0
892.0
890.0
887.0
882.0
877.0
874.0
873.0
873.0
872.0
871.0
871.0
868.0
866.0
862.0
859.0
852.0
848.0
842.0
844.0
846.0
848.0
848.0
846.0
844.0
842.0
842.0
839.0
836.0
836.0
835.0
836.0
839.0
840.0
843.0
842.0
842.0
845.0
845.0
844.0
843.0
841.0
838.0
839.0
841.0
842.0
844.0
847.0
849.0
848.0
850.0
846.0
846.0
845.0
846.0
844.0
850.0
851.0
852.0
852.0
855.0
854.0
850.0
846.0
846.0
850.0
845.0
850.0
851.0
853.0
853.0
855.0
854.0
856.0
851.0
850.0
848.0
848.0
843.0
844.0
847.0
848.0
850.0
847.0
848.0
850.0
847.0
845.0
842.0
844.0
844.0
843.0
843.0
842.0
845.0
845.0
844.0
842.0
845.0
840.0
838.0
837.0
838.0
837.0
841.0
842.0
844.0
841.0
841.0
846.0
839.0
840.0
839.0
836.0
838.0
838.0
837.0
840.0
838.0
840.0
839.0
842.0
836.0
838.0
836.0
832.0
833.0
833.0
835.0
837.0
841.0
842.0
840.0
839.0
839.0
837.0
833.0
834.0
835.0
836.0
836.0
837.0
843.0
842.0
844.0
842.0
842.0
839.0
839.0
836.0
835.0
835.0
840.0
838.0
839.0
839.0
842.0
841.0
839.0
840.0
837.0
837.0
836.0
837.0
840.0
841.0
841.0
845.0
847.0
847.0
847.0
847.0
843.0
846.0
852.0
855.0
858.0
863.0
865.0
867.0
867.0
871.0
871.0
877.0
879.0
877.0
878.0
873.0
872.0
871.0
870.0
869.0
871.0
870.0
866.0
867.0
867.0
864.0
859.0
856.0
855.0
850.0
849.0
846.0
843.0
841.0
837.0
837.0
835.0
832.0
831.0
831.0
832.0
833.0
832.0
836.0
836.0
835.0
833.0
832.0
832.0
827.0
828.0
827.0
830.0
831.0
835.0
837.0
835.0
836.0
834.0
834.0
833.0
832.0
834.0
832.0
836.0
836.0
839.0
842.0
842.0
843.0
842.0
841.0
842.0
842.0
844.0
844.0
848.0
853.0
858.0
868.0
879.0
902.0
934.0
973.0
1021.0
1070.0
1122.0
1175.0
1227.0
1269.0
1280.0
1256.0
1188.0
1097.0
986.0
870.0
767.0
702.0
675.0
685.0
713.0
753.0
785.0
805.0
815.0
818.0
821.0
823.0
826.0
835.0
839.0
844.0
845.0
847.0
846.0
849.0
848.0
848.0
848.0
847.0
846.0
844.0
846.0
845.0
846.0
849.0
848.0
851.0
848.0
850.0
847.0
845.0
842.0
843.0
844.0
844.0
845.0
846.0
847.0
849.0
848.0
849.0
848.0
845.0
844.0
840.0
841.0
838.0
845.0
844.0
850.0
851.0
852.0
851.0
849.0
849.0
848.0
851.0
851.0
850.0
848.0
852.0
855.0
858.0
860.0
861.0
859.0
861.0
858.0
857.0
859.0
863.0
866.0
871.0
875.0
877.0
874.0
880.0
880.0
880.0
880.0
882.0
884.0
884.0
887.0
889.0
893.0
898.0
902.0
903.0
904.0
907.0
903.0
906.0
906.0
908.0
912.0
916.0
921.0
924.0
928.0
926.0
927.0
927.0
929.0
925.0
922.0
923.0
925.0
924.0
926.0
922.0
919.0
915.0
912.0
907.0
902.0
898.0
891.0
893.0
889.0
889.0
887.0
886.0
884.0
882.0
879.0
872.0
868.0
869.0
868.0
865.0
863.0
865.0
864.0
869.0
867.0
868.0
865.0
863.0
863.0
859.0
859.0
860.0
860.0
860.0
862.0
864.0
862.0
864.0
863.0
859.0
858.0
857.0
857.0
858.0
860.0
860.0
863.0
864.0
863.0
864.0
862.0
862.0
862.0
861.0
862.0
862.0
862.0
866.0
866.0
870.0
869.0
872.0
869.0
867.0
864.0
866.0
866.0
865.0
866.0
870.0
870.0
871.0
869.0
872.0
871.0
869.0
865.0
861.0
861.0
862.0
868.0
870.0
868.0
872.0
870.0
869.0
870.0
864.0
863.0
861.0
860.0
860.0
862.0
861.0
860.0
863.0
860.0
863.0
861.0
860.0
856.0
853.0
855.0
856.0
858.0
860.0
861.0
862.0
860.0
861.0
860.0
858.0
858.0
856.0
856.0
856.0
855.0
857.0
858.0
860.0
862.0
861.0
860.0
856.0
855.0
853.0
852.0
851.0
853.0
855.0
858.0
861.0
859.0
860.0
857.0
854.0
853.0
850.0
850.0
851.0
853.0
853.0
854.0
856.0
855.0
858.0
859.0
854.0
854.0
854.0
851.0
850.0
855.0
855.0
858.0
859.0
862.0
860.0
861.0
858.0
856.0
855.0
854.0
852.0
855.0
856.0
856.0
860.0
860.0
858.0
857.0
860.0
858.0
858.0
862.0
864.0
867.0
872.0
876.0
879.0
884.0
883.0
881.0
880.0
884.0
881.0
887.0
884.0
888.0
886.0
886.0
885.0
882.0
879.0
880.0
876.0
875.0
872.0
871.0
869.0
868.0
867.0
867.0
866.0
860.0
858.0
856.0
849.0
847.0
846.0
842.0
843.0
843.0
843.0
