# Simple Text Format
# Sampling Rate (Hz):= 360.00
# Resolution:= 12
# Labels:= ECG
1019.0
1019.0
1018.0
1020.0
1021.0
1021.0
1020.0
1017.0
1015.0
1016.0
1016.0
1016.0
1012.0
1008.0
1004.0
1004.0
1003.0
1001.0
999.0
993.0
990.0
990.0
989.0
989.0
983.0
981.0
980.0
981.0
981.0
979.0
977.0
975.0
976.0
974.0
975.0
975.0
974.0
971.0
971.0
974.0
973.0
973.0
973.0
971.0
972.0
973.0
974.0
972.0
971.0
969.0
969.0
970.0
972.0
971.0
971.0
971.0
969.0
971.0
973.0
972.0
970.0
970.0
969.0
972.0
972.0
973.0
969.0
969.0
969.0
969.0
970.0
971.0
970.0
969.0
969.0
973.0
973.0
971.0
969.0
967.0
968.0
969.0
969.0
969.0
968.0
967.0
968.0
969.0
969.0
970.0
970.0
967.0
967.0
968.0
969.0
968.0
969.0
966.0
966.0
968.0
968.0
968.0
964.0
966.0
966.0
967.0
968.0
968.0
968.0
965.0
967.0
968.0
967.0
966.0
967.0
966.0
965.0
965.0
968.0
968.0
964.0
965.0
967.0
968.0
969.0
968.0
968.0
965.0
965.0
964.0
966.0
966.0
966.0
965.0
965.0
966.0
966.0
965.0
964.0
966.0
963.0
965.0
969.0
967.0
967.0
964.0
963.0
967.0
969.0
966.0
967.0
964.0
962.0
964.0
965.0
965.0
965.0
964.0
963.0
964.0
967.0
966.0
965.0
964.0
965.0
967.0
967.0
965.0
965.0
966.0
964.0
965.0
967.0
967.0
967.0
965.0
964.0
965.0
966.0
966.0
966.0
965.0
964.0
966.0
968.0
966.0
966.0
965.0
964.0
966.0
969.0
969.0
967.0
964.0
964.0
967.0
968.0
965.0
967.0
966.0
965.0
964.0
965.0
965.0
966.0
966.0
965.0
966.0
969.0
966.0
967.0
965.0
964.0
965.0
968.0
968.0
966.0
967.0
965.0
968.0
968.0
970.0
967.0
968.0
968.0
969.0
969.0
969.0
970.0
969.0
969.0
967.0
970.0
969.0
969.0
968.0
968.0
970.0
969.0
970.0
970.0
966.0
966.0
968.0
971.0
971.0
972.0
970.0
969.0
970.0
971.0
972.0
972.0
971.0
969.0
971.0
972.0
972.0
972.0
972.0
970.0
972.0
973.0
972.0
972.0
972.0
970.0
970.0
974.0
974.0
972.0
972.0
970.0
973.0
975.0
973.0
973.0
971.0
972.0
972.0
975.0
975.0
973.0
971.0
971.0
972.0
975.0
975.0
975.0
974.0
975.0
976.0
977.0
977.0
973.0
974.0
974.0
976.0
980.0
982.0
985.0
983.0
985.0
985.0
989.0
991.0
990.0
990.0
993.0
993.0
993.0
997.0
998.0
998.0
999.0
998.0
999.0
996.0
995.0
992.0
993.0
992.0
992.0
990.0
989.0
985.0
984.0
982.0
982.0
980.0
978.0
974.0
974.0
974.0
975.0
977.0
975.0
972.0
972.0
974.0
976.0
977.0
976.0
973.0
974.0
973.0
977.0
977.0
975.0
973.0
974.0
975.0
977.0
977.0
976.0
975.0
977.0
980.0
985.0
990.0
992.0
993.0
997.0
1011.0
1033.0
1056.0
1082.0
1107.0
1131.0
1153.0
1177.0
1201.0
1221.0
1224.0
1202.0
1169.0
1124.0
1079.0
1042.0
1014.0
989.0
971.0
964.0
968.0
976.0
980.0
980.0
979.0
976.0
973.0
971.0
970.0
969.0
969.0
970.0
969.0
969.0
966.0
963.0
965.0
970.0
969.0
967.0
967.0
967.0
970.0
971.0
969.0
967.0
969.0
968.0
970.0
971.0
971.0
972.0
971.0
969.0
971.0
974.0
973.0
972.0
973.0
972.0
974.0
975.0
977.0
978.0
977.0
977.0
980.0
982.0
981.0
984.0
982.0
980.0
983.0
985.0
986.0
983.0
982.0
985.0
987.0
991.0
991.0
991.0
990.0
991.0
994.0
995.0
996.0
994.0
996.0
997.0
999.0
1001.0
1003.0
1005.0
1005.0
1003.0
1008.0
1009.0
1012.0
1010.0
1010.0
1011.0
1013.0
1015.0
1015.0
1016.0
1016.0
1016.0
1019.0
1021.0
1022.0
1018.0
1017.0
1016.0
1017.0
1020.0
1020.0
1016.0
1011.0
1013.0
1013.0
1013.0
1008.0
1009.0
1006.0
1003.0
1001.0
1004.0
1001.0
999.0
996.0
996.0
996.0
998.0
996.0
993.0
992.0
991.0
992.0
993.0
994.0
993.0
992.0
990.0
991.0
994.0
993.0
992.0
990.0
991.0
991.0
991.0
991.0
992.0
991.0
989.0
989.0
995.0
994.0
994.0
991.0
989.0
992.0
993.0
993.0
994.0
990.0
990.0
992.0
994.0
992.0
991.0
990.0
990.0
990.0
991.0
990.0
988.0
988.0
989.0
991.0
993.0
993.0
991.0
990.0
989.0
990.0
993.0
990.0
988.0
989.0
988.0
991.0
992.0
991.0
991.0
988.0
988.0
989.0
990.0
988.0
988.0
985.0
984.0
988.0
989.0
988.0
987.0
986.0
984.0
988.0
988.0
987.0
986.0
983.0
981.0
983.0
984.0
986.0
987.0
983.0
982.0
986.0
988.0
987.0
985.0
983.0
982.0
986.0
986.0
987.0
984.0
983.0
982.0
984.0
987.0
985.0
983.0
984.0
982.0
983.0
985.0
984.0
985.0
983.0
981.0
984.0
985.0
983.0
984.0
981.0
983.0
985.0
985.0
984.0
985.0
983.0
980.0
983.0
985.0
983.0
984.0
983.0
984.0
984.0
986.0
984.0
983.0
981.0
983.0
983.0
984.0
983.0
983.0
983.0
982.0
984.0
985.0
984.0
983.0
984.0
983.0
984.0
986.0
985.0
985.0
982.0
981.0
984.0
985.0
985.0
984.0
983.0
980.0
982.0
984.0
983.0
984.0
983.0
982.0
983.0
985.0
987.0
986.0
985.0
984.0
984.0
988.0
986.0
985.0
983.0
984.0
985.0
988.0
988.0
986.0
984.0
983.0
985.0
987.0
986.0
984.0
984.0
983.0
985.0
988.0
987.0
985.0
985.0
985.0
988.0
990.0
988.0
985.0
986.0
985.0
985.0
988.0
987.0
986.0
984.0
986.0
988.0
988.0
988.0
988.0
986.0
986.0
986.0
987.0
989.0
986.0
986.0
984.0
988.0
991.0
989.0
985.0
985.0
987.0
990.0
991.0
991.0
989.0
989.0
988.0
992.0
994.0
995.0
997.0
997.0
1000.0
1003.0
1005.0
1006.0
1005.0
1005.0
1008.0
1010.0
1011.0
1008.0
1006.0
1010.0
1009.0
1013.0
1014.0
1011.0
1009.0
1005.0
1004.0
1004.0
1005.0
1003.0
1002.0
1002.0
999.0
999.0
998.0
998.0
993.0
990.0
988.0
987.0
988.0
987.0
985.0
984.0
983.0
984.0
986.0
987.0
984.0
985.0
983.0
984.0
985.0
984.0
985.0
982.0
982.0
985.0
985.0
984.0
984.0
983.0
982.0
983.0
984.0
985.0
985.0
985.0
986.0
991.0
997.0
999.0
1003.0
1001.0
1004.0
1020.0
1038.0
1054.0
1074.0
1093.0
1114.0
1138.0
1154.0
1174.0
1191.0
1200.0
1189.0
1166.0
1134.0
1096.0
1058.0
1029.0
1007.0
994.0
986.0
983.0
988.0
991.0
993.0
989.0
987.0
986.0
982.0
979.0
977.0
979.0
979.0
977.0
977.0
973.0
976.0
977.0
981.0
978.0
978.0
976.0
976.0
977.0
980.0
979.0
980.0
980.0
978.0
980.0
982.0
980.0
981.0
979.0
980.0
981.0
981.0
981.0
982.0
981.0
980.0
980.0
983.0
983.0
983.0
982.0
983.0
985.0
988.0
988.0
988.0
987.0
986.0
988.0
991.0
991.0
992.0
991.0
992.0
994.0
996.0
996.0
997.0
996.0
996.0
999.0
1003.0
1002.0
1005.0
1004.0
1005.0
1009.0
1011.0
1011.0
1011.0
1010.0
1012.0
1016.0
1019.0
1019.0
1020.0
1020.0
1021.0
1025.0
1027.0
1028.0
1028.0
1025.0
1026.0
1030.0
1030.0
1028.0
1028.0
1025.0
1027.0
1028.0
1028.0
1026.0
1025.0
1023.0
1021.0
1021.0
1022.0
1018.0
1017.0
1013.0
1010.0
1009.0
1008.0
1006.0
1003.0
1002.0
999.0
1000.0
1000.0
996.0
997.0
995.0
992.0
992.0
994.0
993.0
990.0
987.0
987.0
990.0
990.0
991.0
991.0
989.0
989.0
990.0
990.0
991.0
989.0
988.0
988.0
989.0
989.0
988.0
988.0
987.0
986.0
989.0
990.0
989.0
990.0
988.0
988.0
990.0
991.0
991.0
989.0
986.0
986.0
987.0
990.0
989.0
988.0
987.0
987.0
987.0
990.0
987.0
988.0
986.0
986.0
987.0
989.0
989.0
987.0
987.0
987.0
987.0
990.0
988.0
988.0
986.0
984.0
987.0
989.0
989.0
986.0
985.0
985.0
986.0
989.0
988.0
987.0
984.0
982.0
985.0
987.0
986.0
984.0
983.0
984.0
985.0
987.0
986.0
987.0
985.0
983.0
986.0
986.0
985.0
984.0
982.0
980.0
984.0
985.0
985.0
985.0
984.0
982.0
984.0
987.0
985.0
983.0
982.0
981.0
981.0
984.0
983.0
981.0
982.0
981.0
984.0
986.0
985.0
984.0
983.0
981.0
981.0
983.0
982.0
982.0
980.0
981.0
981.0
985.0
983.0
983.0
982.0
979.0
980.0
983.0
982.0
981.0
981.0
981.0
982.0
984.0
980.0
978.0
979.0
979.0
981.0
983.0
981.0
980.0
982.0
981.0
982.0
981.0
983.0
982.0
978.0
980.0
982.0
985.0
983.0
982.0
979.0
980.0
982.0
982.0
982.0
979.0
979.0
978.0
980.0
983.0
982.0
980.0
978.0
978.0
978.0
982.0
980.0
979.0
979.0
978.0
980.0
983.0
980.0
980.0
980.0
978.0
981.0
983.0
984.0
983.0
980.0
980.0
980.0
983.0
982.0
982.0
980.0
980.0
982.0
984.0
982.0
981.0
980.0
979.0
981.0
983.0
981.0
984.0
981.0
978.0
983.0
984.0
982.0
981.0
982.0
981.0
984.0
984.0
982.0
982.0
982.0
982.0
984.0
985.0
984.0
984.0
981.0
980.0
982.0
983.0
984.0
984.0
983.0
981.0
983.0
986.0
984.0
984.0
981.0
982.0
983.0
985.0
984.0
982.0
981.0
982.0
984.0
984.0
985.0
984.0
982.0
983.0
984.0
988.0
985.0
985.0
984.0
984.0
986.0
987.0
985.0
985.0
986.0
985.0
986.0
987.0
986.0
985.0
984.0
984.0
988.0
990.0
990.0
991.0
992.0
993.0
998.0
999.0
999.0
999.0
1001.0
1000.0
1002.0
1006.0
1006.0
1004.0
1004.0
1004.0
1007.0
1010.0
1010.0
1010.0
1008.0
1007.0
1006.0
1007.0
1006.0
1003.0
1001.0
1000.0
1001.0
1002.0
998.0
995.0
993.0
991.0
992.0
992.0
989.0
987.0
984.0
983.0
984.0
985.0
984.0
983.0
981.0
981.0
982.0
982.0
983.0
982.0
979.0
979.0
983.0
983.0
984.0
981.0
981.0
980.0
980.0
984.0
982.0
981.0
977.0
977.0
981.0
982.0
981.0
981.0
980.0
980.0
982.0
985.0
986.0
990.0
991.0
995.0
998.0
1002.0
1007.0
1019.0
1034.0
1054.0
1080.0
1104.0
1125.0
1144.0
1159.0
1176.0
1201.0
1219.0
1225.0
1216.0
1193.0
1158.0
1119.0
1083.0
1050.0
1021.0
997.0
977.0
967.0
968.0
973.0
982.0
984.0
985.0
984.0
984.0
981.0
978.0
977.0
972.0
974.0
976.0
976.0
973.0
973.0
971.0
972.0
973.0
975.0
973.0
974.0
972.0
974.0
976.0
975.0
974.0
972.0
974.0
974.0
976.0
978.0
978.0
975.0
977.0
977.0
978.0
978.0
980.0
978.0
978.0
982.0
982.0
984.0
983.0
981.0
981.0
984.0
987.0
986.0
985.0
984.0
981.0
984.0
988.0
988.0
987.0
986.0
987.0
989.0
992.0
993.0
993.0
992.0
992.0
994.0
997.0
998.0
999.0
997.0
1000.0
1002.0
1006.0
1006.0
1005.0
1006.0
1006.0
1010.0
1014.0
1015.0
1015.0
1015.0
1018.0
1018.0
1021.0
1020.0
1020.0
1020.0
1020.0
1022.0
1024.0
1025.0
1025.0
1023.0
1024.0
1024.0
1027.0
1029.0
1027.0
1024.0
1023.0
1023.0
1024.0
1024.0
1021.0
1019.0
1014.0
1018.0
1017.0
1015.0
1011.0
1008.0
1008.0
1008.0
1008.0
1005.0
1000.0
999.0
998.0
999.0
998.0
997.0
998.0
993.0
993.0
993.0
993.0
995.0
993.0
992.0
988.0
991.0
992.0
991.0
990.0
989.0
989.0
989.0
992.0
989.0
990.0
987.0
986.0
990.0
993.0
990.0
990.0
990.0
988.0
990.0
991.0
990.0
990.0
988.0
988.0
990.0
992.0
992.0
992.0
989.0
988.0
991.0
992.0
993.0
990.0
989.0
987.0
990.0
992.0
990.0
988.0
989.0
988.0
990.0
990.0
990.0
990.0
989.0
988.0
990.0
990.0
988.0
988.0
987.0
986.0
989.0
990.0
990.0
989.0
986.0
985.0
987.0
987.0
988.0
988.0
986.0
986.0
988.0
988.0
986.0
986.0
982.0
983.0
985.0
987.0
984.0
984.0
983.0
982.0
984.0
984.0
984.0
981.0
982.0
981.0
982.0
985.0
984.0
982.0
982.0
980.0
981.0
984.0
982.0
981.0
979.0
982.0
984.0
983.0
982.0
981.0
980.0
979.0
982.0
984.0
984.0
982.0
980.0
980.0
979.0
983.0
982.0
981.0
982.0
979.0
983.0
984.0
984.0
984.0
980.0
982.0
983.0
985.0
983.0
981.0
981.0
980.0
982.0
984.0
982.0
981.0
980.0
981.0
982.0
985.0
984.0
984.0
980.0
982.0
983.0
986.0
984.0
983.0
981.0
980.0
981.0
983.0
985.0
984.0
981.0
982.0
984.0
984.0
985.0
982.0
981.0
981.0
982.0
984.0
985.0
983.0
980.0
980.0
981.0
982.0
985.0
983.0
982.0
980.0
983.0
985.0
983.0
983.0
981.0
982.0
983.0
984.0
983.0
983.0
982.0
981.0
983.0
982.0
986.0
985.0
984.0
982.0
984.0
987.0
986.0
985.0
984.0
983.0
985.0
986.0
987.0
984.0
985.0
985.0
986.0
987.0
988.0
986.0
985.0
984.0
986.0
989.0
987.0
986.0
986.0
985.0
987.0
987.0
986.0
988.0
985.0
985.0
985.0
988.0
989.0
988.0
984.0
984.0
986.0
989.0
986.0
987.0
986.0
987.0
987.0
990.0
987.0
987.0
985.0
985.0
989.0
991.0
989.0
988.0
987.0
987.0
989.0
991.0
990.0
989.0
988.0
988.0
990.0
991.0
989.0
989.0
988.0
987.0
989.0
991.0
991.0
989.0
989.0
988.0
990.0
992.0
990.0
991.0
988.0
990.0
989.0
993.0
994.0
990.0
988.0
989.0
992.0
993.0
996.0
995.0
993.0
993.0
997.0
997.0
999.0
999.0
998.0
1000.0
1003.0
1004.0
1005.0
1001.0
1001.0
999.0
1001.0
999.0
1001.0
1003.0
1002.0
999.0
998.0
1000.0
1001.0
999.0
997.0
996.0
1000.0
1001.0
1001.0
996.0
994.0
992.0
993.0
992.0
991.0
989.0
987.0
985.0
985.0
986.0
988.0
984.0
981.0
982.0
985.0
987.0
987.0
986.0
985.0
983.0
984.0
986.0
985.0
984.0
983.0
984.0
983.0
987.0
987.0
986.0
985.0
984.0
987.0
989.0
988.0
993.0
996.0
1000.0
1003.0
1007.0
1018.0
1034.0
1054.0
1073.0
1099.0
1123.0
1143.0
1163.0
1184.0
1195.0
1193.0
1164.0
1124.0
1079.0
1042.0
1015.0
998.0
986.0
980.0
982.0
986.0
990.0
991.0
989.0
983.0
981.0
979.0
978.0
978.0
979.0
977.0
974.0
974.0
975.0
975.0
977.0
977.0
975.0
974.0
974.0
976.0
977.0
977.0
978.0
977.0
976.0
978.0
980.0
979.0
978.0
977.0
978.0
979.0
981.0
980.0
979.0
978.0
978.0
982.0
982.0
985.0
980.0
982.0
982.0
984.0
985.0
985.0
985.0
983.0
986.0
988.0
988.0
989.0
991.0
990.0
991.0
993.0
998.0
996.0
995.0
998.0
999.0
1001.0
1003.0
1004.0
1005.0
1006.0
1008.0
1009.0
1013.0
1015.0
1016.0
1015.0
1015.0
1018.0
1020.0
1022.0
1020.0
1018.0
1019.0
1023.0
1025.0
1027.0
1026.0
1025.0
1025.0
1026.0
1027.0
1026.0
1027.0
1023.0
1022.0
1022.0
1022.0
1021.0
1017.0
1013.0
1010.0
1013.0
1012.0
1008.0
1005.0
1002.0
1001.0
998.0
997.0
997.0
994.0
991.0
990.0
992.0
993.0
993.0
991.0
989.0
985.0
989.0
991.0
991.0
988.0
987.0
986.0
989.0
988.0
990.0
987.0
986.0
985.0
987.0
988.0
986.0
985.0
985.0
984.0
985.0
987.0
985.0
986.0
986.0
985.0
985.0
986.0
986.0
985.0
983.0
981.0
983.0
986.0
985.0
985.0
983.0
984.0
985.0
985.0
985.0
983.0
982.0
981.0
982.0
984.0
985.0
984.0
982.0
982.0
982.0
984.0
982.0
981.0
982.0
981.0
982.0
986.0
984.0
984.0
981.0
980.0
981.0
985.0
984.0
981.0
981.0
980.0
982.0
985.0
984.0
983.0
982.0
981.0
982.0
985.0
981.0
981.0
981.0
979.0
981.0
984.0
982.0
984.0
980.0
981.0
981.0
982.0
981.0
979.0
979.0
978.0
979.0
981.0
979.0
978.0
976.0
977.0
978.0
981.0
982.0
980.0
978.0
978.0
979.0
978.0
978.0
978.0
977.0
978.0
980.0
979.0
979.0
975.0
978.0
977.0
978.0
979.0
976.0
976.0
975.0
975.0
977.0
978.0
980.0
977.0
975.0
973.0
975.0
979.0
979.0
978.0
977.0
976.0
977.0
978.0
979.0
976.0
976.0
977.0
977.0
979.0
979.0
975.0
975.0
974.0
977.0
979.0
978.0
977.0
976.0
977.0
978.0
980.0
980.0
978.0
976.0
975.0
977.0
980.0
978.0
978.0
977.0
977.0
978.0
979.0
980.0
979.0
975.0
976.0
978.0
979.0
977.0
978.0
977.0
974.0
976.0
980.0
979.0
977.0
976.0
978.0
978.0
980.0
981.0
977.0
976.0
977.0
975.0
981.0
978.0
976.0
977.0
974.0
977.0
979.0
981.0
979.0
977.0
980.0
977.0
979.0
980.0
979.0
977.0
976.0
978.0
980.0
981.0
979.0
978.0
978.0
980.0
981.0
981.0
980.0
979.0
978.0
979.0
982.0
981.0
980.0
980.0
978.0
981.0
982.0
982.0
978.0
979.0
981.0
980.0
982.0
982.0
981.0
980.0
981.0
983.0
984.0
985.0
984.0
983.0
985.0
988.0
992.0
994.0
994.0
992.0
993.0
995.0
1001.0
1003.0
1003.0
1002.0
1001.0
1001.0
1006.0
1007.0
1006.0
1006.0
1002.0
1002.0
1004.0
1001.0
999.0
996.0
995.0
995.0
997.0
997.0
994.0
990.0
989.0
988.0
987.0
986.0
983.0
981.0
980.0
980.0
983.0
981.0
979.0
976.0
977.0
977.0
981.0
980.0
979.0
977.0
977.0
979.0
980.0
979.0
979.0
976.0
976.0
977.0
978.0
978.0
976.0
974.0
975.0
976.0
978.0
979.0
979.0
980.0
984.0
988.0
995.0
996.0
1001.0
1016.0
1032.0
1054.0
1083.0
1108.0
1128.0
1147.0
1167.0
1192.0
1211.0
1216.0
1200.0
1170.0
1129.0
1088.0
1054.0
1024.0
998.0
975.0
965.0
963.0
973.0
981.0
983.0
981.0
979.0
977.0
977.0
976.0
973.0
970.0
969.0
971.0
973.0
972.0
970.0
970.0
967.0
970.0
971.0
970.0
969.0
968.0
968.0
970.0
972.0
972.0
971.0
972.0
970.0
972.0
974.0
976.0
973.0
975.0
973.0
976.0
977.0
977.0
976.0
976.0
975.0
979.0
981.0
980.0
976.0
977.0
978.0
982.0
983.0
984.0
983.0
982.0
982.0
986.0
988.0
988.0
986.0
986.0
987.0
991.0
993.0
994.0
993.0
994.0
997.0
999.0
1002.0
1002.0
1002.0
1004.0
1004.0
1007.0
1010.0
1010.0
1010.0
1012.0
1012.0
1015.0
1017.0
1017.0
1018.0
1018.0
1019.0
1021.0
1025.0
1024.0
1023.0
1022.0
1022.0
1023.0
1023.0
1022.0
1020.0
1020.0
1016.0
1016.0
1016.0
1014.0
1009.0
1006.0
1002.0
1003.0
1003.0
1001.0
997.0
995.0
991.0
990.0
991.0
990.0
990.0
987.0
986.0
988.0
988.0
986.0
986.0
983.0
983.0
986.0
987.0
986.0
983.0
981.0
982.0
984.0
986.0
986.0
983.0
983.0
981.0
985.0
985.0
986.0
984.0
983.0
981.0
984.0
986.0
984.0
981.0
982.0
983.0
983.0
986.0
985.0
984.0
983.0
981.0
982.0
984.0
982.0
984.0
982.0
981.0
984.0
983.0
982.0
981.0
980.0
980.0
984.0
982.0
982.0
982.0
983.0
982.0
983.0
983.0
985.0
983.0
981.0
979.0
979.0
984.0
982.0
982.0
978.0
977.0
978.0
980.0
980.0
980.0
977.0
976.0
979.0
980.0
980.0
980.0
977.0
975.0
978.0
979.0
979.0
980.0
977.0
976.0
978.0
978.0
979.0
978.0
976.0
975.0
978.0
978.0
978.0
978.0
976.0
976.0
977.0
979.0
977.0
976.0
976.0
975.0
978.0
979.0
978.0
976.0
975.0
972.0
977.0
980.0
978.0
976.0
976.0
975.0
977.0
978.0
979.0
976.0
976.0
976.0
977.0
981.0
978.0
978.0
976.0
976.0
979.0
980.0
981.0
979.0
977.0
977.0
978.0
981.0
980.0
979.0
979.0
979.0
980.0
980.0
979.0
979.0
978.0
977.0
981.0
982.0
981.0
981.0
979.0
980.0
981.0
983.0
984.0
981.0
981.0
980.0
981.0
983.0
982.0
982.0
980.0
979.0
982.0
982.0
982.0
983.0
979.0
981.0
982.0
984.0
982.0
983.0
982.0
981.0
983.0
983.0
981.0
982.0
980.0
980.0
982.0
982.0
982.0
982.0
981.0
979.0
980.0
983.0
984.0
982.0
981.0
981.0
982.0
984.0
983.0
984.0
982.0
982.0
983.0
985.0
983.0
980.0
977.0
980.0
981.0
980.0
980.0
980.0
981.0
980.0
980.0
983.0
983.0
980.0
978.0
981.0
983.0
982.0
983.0
981.0
982.0
981.0
981.0
984.0
983.0
982.0
981.0
978.0
979.0
982.0
982.0
982.0
979.0
979.0
980.0
983.0
984.0
982.0
981.0
979.0
982.0
985.0
984.0
983.0
983.0
980.0
983.0
986.0
983.0
983.0
982.0
981.0
984.0
984.0
984.0
984.0
983.0
984.0
986.0
985.0
986.0
988.0
987.0
986.0
987.0
991.0
991.0
991.0
989.0
992.0
995.0
997.0
999.0
995.0
996.0
994.0
998.0
997.0
995.0
994.0
993.0
995.0
996.0
998.0
996.0
994.0
990.0
989.0
991.0
992.0
993.0
992.0
989.0
987.0
986.0
985.0
985.0
984.0
981.0
979.0
978.0
981.0
978.0
975.0
974.0
975.0
977.0
978.0
978.0
977.0
977.0
976.0
977.0
978.0
978.0
976.0
974.0
974.0
979.0
979.0
979.0
976.0
973.0
977.0
981.0
983.0
985.0
987.0
988.0
991.0
996.0
1000.0
1007.0
1018.0
1036.0
1058.0
1082.0
1109.0
1130.0
1147.0
1167.0
1187.0
1194.0
1182.0
1151.0
1113.0
1075.0
1039.0
1012.0
990.0
974.0
964.0
964.0
971.0
980.0
983.0
980.0
977.0
974.0
971.0
972.0
971.0
972.0
970.0
967.0
968.0
969.0
969.0
970.0
969.0
966.0
966.0
967.0
969.0
969.0
968.0
966.0
966.0
969.0
970.0
970.0
968.0
968.0
967.0
969.0
972.0
971.0
970.0
969.0
969.0
971.0
974.0
975.0
974.0
971.0
972.0
973.0
976.0
974.0
973.0
973.0
973.0
978.0
979.0
980.0
980.0
978.0
979.0
982.0
982.0
982.0
983.0
984.0
984.0
986.0
988.0
988.0
991.0
989.0
991.0
991.0
994.0
997.0
998.0
999.0
999.0
1002.0
1005.0
1005.0
1007.0
1007.0
1006.0
1009.0
1012.0
1012.0
1013.0
1014.0
1014.0
1018.0
1020.0
1019.0
1018.0
1016.0
1017.0
1018.0
1019.0
1020.0
1017.0
1014.0
1014.0
1015.0
1014.0
1013.0
1010.0
1008.0
1003.0
1004.0
1003.0
1001.0
999.0
995.0
993.0
995.0
995.0
993.0
991.0
989.0
987.0
987.0
989.0
986.0
985.0
984.0
982.0
983.0
984.0
984.0
983.0
981.0
979.0
982.0
984.0
983.0
982.0
979.0
980.0
981.0
982.0
981.0
981.0
981.0
980.0
980.0
983.0
982.0
982.0
980.0
978.0
981.0
985.0
983.0
982.0
980.0
980.0
982.0
983.0
982.0
982.0
981.0
981.0
982.0
983.0
981.0
981.0
979.0
980.0
980.0
982.0
980.0
980.0
979.0
979.0
982.0
981.0
980.0
979.0
979.0
980.0
981.0
983.0
982.0
980.0
977.0
977.0
981.0
982.0
980.0
981.0
978.0
980.0
979.0
982.0
980.0
978.0
978.0
977.0
979.0
981.0
978.0
976.0
976.0
977.0
979.0
981.0
979.0
979.0
974.0
975.0
975.0
978.0
979.0
977.0
976.0
977.0
978.0
979.0
978.0
976.0
975.0
976.0
977.0
979.0
979.0
977.0
977.0
975.0
977.0
979.0
978.0
978.0
976.0
976.0
976.0
979.0
978.0
978.0
975.0
975.0
975.0
978.0
977.0
975.0
972.0
974.0
978.0
981.0
979.0
979.0
974.0
975.0
975.0
978.0
978.0
977.0
974.0
975.0
977.0
977.0
977.0
975.0
974.0
972.0
976.0
977.0
978.0
975.0
975.0
975.0
975.0
978.0
977.0
977.0
975.0
974.0
976.0
979.0
979.0
977.0
973.0
973.0
976.0
978.0
978.0
976.0
975.0
974.0
978.0
979.0
979.0
977.0
975.0
976.0
977.0
980.0
977.0
978.0
976.0
974.0
977.0
979.0
977.0
979.0
977.0
975.0
978.0
980.0
978.0
978.0
977.0
977.0
979.0
981.0
980.0
980.0
976.0
978.0
979.0
983.0
980.0
981.0
979.0
979.0
981.0
984.0
982.0
979.0
977.0
978.0
979.0
981.0
982.0
981.0
980.0
979.0
982.0
984.0
981.0
982.0
979.0
978.0
980.0
983.0
981.0
982.0
981.0
980.0
983.0
984.0
984.0
982.0
981.0
981.0
982.0
985.0
984.0
981.0
983.0
981.0
985.0
987.0
985.0
985.0
982.0
986.0
991.0
994.0
995.0
996.0
996.0
996.0
998.0
1000.0
1002.0
1004.0
1004.0
1002.0
1006.0
1007.0
1007.0
1008.0
1009.0
1008.0
1009.0
1008.0
1006.0
1004.0
1001.0
999.0
1001.0
999.0
998.0
996.0
994.0
991.0
990.0
991.0
987.0
985.0
985.0
982.0
983.0
985.0
985.0
981.0
979.0
978.0
979.0
982.0
980.0
981.0
979.0
978.0
981.0
982.0
981.0
980.0
978.0
980.0
979.0
984.0
982.0
981.0
979.0
979.0
979.0
982.0
982.0
981.0
979.0
981.0
983.0
988.0
989.0
992.0
992.0
994.0
998.0
1008.0
1019.0
1039.0
1055.0
1076.0
1102.0
1128.0
1143.0
1166.0
1188.0
1207.0
1212.0
1196.0
1163.0
1122.0
1080.0
1048.0
1023.0
1002.0
982.0
970.0
967.0
972.0
982.0
990.0
988.0
985.0
981.0
977.0
978.0
978.0
976.0
975.0
976.0
974.0
975.0
976.0
976.0
975.0
973.0
975.0
976.0
976.0
976.0
975.0
975.0
975.0
978.0
980.0
979.0
978.0
977.0
977.0
978.0
981.0
979.0
979.0
980.0
979.0
981.0
983.0
981.0
982.0
981.0
982.0
984.0
985.0
985.0
988.0
990.0
991.0
993.0
997.0
999.0
1000.0
1002.0
1006.0
1009.0
1011.0
1010.0
1008.0
1008.0
1008.0
1008.0
1011.0
1009.0
1006.0
1003.0
1000.0
1003.0
1005.0
1004.0
1004.0
1004.0
1005.0
1010.0
1013.0
1016.0
1014.0
1014.0
1013.0
1016.0
1018.0
1019.0
1018.0
1019.0
1018.0
1022.0
1024.0
1020.0
1022.0
1017.0
1018.0
1020.0
1022.0
1019.0
1019.0
1016.0
1015.0
1016.0
1017.0
1014.0
1012.0
1012.0
1009.0
1009.0
1010.0
1007.0
1004.0
1001.0
998.0
1001.0
999.0
998.0
994.0
991.0
989.0
990.0
992.0
989.0
987.0
984.0
984.0
983.0
985.0
983.0
980.0
979.0
978.0
980.0
981.0
981.0
979.0
979.0
980.0
980.0
983.0
982.0
981.0
980.0
979.0
980.0
981.0
982.0
982.0
981.0
981.0
982.0
983.0
983.0
983.0
983.0
981.0
983.0
986.0
985.0
984.0
983.0
983.0
984.0
986.0
982.0
983.0
981.0
981.0
983.0
985.0
983.0
985.0
982.0
982.0
984.0
986.0
982.0
983.0
982.0
983.0
983.0
985.0
984.0
982.0
983.0
980.0
984.0
985.0
982.0
983.0
982.0
983.0
984.0
986.0
983.0
983.0
981.0
981.0
983.0
983.0
979.0
983.0
981.0
981.0
982.0
985.0
984.0
981.0
979.0
980.0
981.0
982.0
982.0
981.0
980.0
979.0
980.0
984.0
983.0
979.0
980.0
980.0
982.0
983.0
981.0
981.0
979.0
979.0
981.0
982.0
980.0
980.0
978.0
979.0
981.0
983.0
981.0
980.0
977.0
977.0
980.0
980.0
981.0
978.0
976.0
977.0
979.0
978.0
979.0
980.0
978.0
979.0
980.0
981.0
980.0
981.0
978.0
978.0
980.0
981.0
980.0
978.0
977.0
978.0
979.0
981.0
981.0
978.0
978.0
977.0
979.0
981.0
979.0
977.0
978.0
980.0
981.0
978.0
980.0
979.0
978.0
981.0
982.0
982.0
982.0
980.0
978.0
977.0
981.0
983.0
983.0
982.0
979.0
980.0
982.0
983.0
980.0
979.0
979.0
979.0
981.0
982.0
982.0
982.0
979.0
980.0
981.0
982.0
981.0
982.0
980.0
980.0
981.0
982.0
982.0
981.0
980.0
979.0
982.0
984.0
981.0
981.0
980.0
979.0
981.0
983.0
981.0
981.0
981.0
979.0
982.0
985.0
985.0
989.0
989.0
993.0
1001.0
1008.0
1014.0
1020.0
1025.0
1031.0
1039.0
1045.0
1043.0
1032.0
1018.0
1002.0
982.0
958.0
927.0
892.0
864.0
857.0
867.0
883.0
890.0
891.0
894.0
896.0
896.0
896.0
897.0
898.0
898.0
899.0
902.0
907.0
907.0
902.0
895.0
890.0
890.0
891.0
892.0
897.0
901.0
914.0
934.0
954.0
967.0
978.0
981.0
981.0
988.0
991.0
992.0
993.0
992.0
993.0
996.0
1001.0
1001.0
1001.0
1002.0
1002.0
1006.0
1007.0
1006.0
1008.0
1009.0
1009.0
1011.0
1014.0
1016.0
1016.0
1013.0
1017.0
1019.0
1020.0
1021.0
1018.0
1018.0
1023.0
1029.0
1032.0
1031.0
1031.0
1031.0
1034.0
1035.0
1039.0
1044.0
1045.0
1044.0
1048.0
1051.0
1058.0
1059.0
1062.0
1063.0
1068.0
1072.0
1076.0
1082.0
