# Simple Text Format
# Sampling Rate (Hz):= 360.00
# Resolution:= 12
# Labels:= ECG
1050.0
1052.0
1052.0
1052.0
1051.0
1049.0
1048.0
1042.0
1041.0
1033.0
1027.0
1028.0
1030.0
1028.0
1018.0
1015.0
1010.0
1013.0
1012.0
1004.0
997.0
993.0
990.0
991.0
992.0
988.0
985.0
981.0
982.0
985.0
986.0
984.0
979.0
975.0
971.0
975.0
979.0
977.0
973.0
971.0
973.0
975.0
977.0
977.0
972.0
971.0
972.0
974.0
977.0
979.0
974.0
969.0
968.0
970.0
974.0
972.0
971.0
971.0
970.0
971.0
973.0
974.0
972.0
969.0
968.0
971.0
976.0
977.0
975.0
971.0
968.0
968.0
973.0
971.0
970.0
972.0
975.0
980.0
985.0
983.0
976.0
970.0
965.0
971.0
974.0
976.0
974.0
971.0
975.0
979.0
979.0
982.0
980.0
981.0
985.0
985.0
988.0
990.0
991.0
991.0
991.0
992.0
994.0
989.0
989.0
988.0
991.0
994.0
992.0
988.0
984.0
982.0
982.0
984.0
986.0
984.0
982.0
981.0
982.0
983.0
984.0
982.0
979.0
977.0
979.0
984.0
987.0
984.0
973.0
964.0
962.0
966.0
967.0
964.0
964.0
965.0
966.0
967.0
971.0
971.0
969.0
964.0
963.0
963.0
966.0
967.0
967.0
967.0
961.0
960.0
959.0
956.0
955.0
954.0
973.0
1006.0
1044.0
1082.0
1128.0
1179.0
1225.0
1267.0
1277.0
1233.0
1158.0
1066.0
967.0
888.0
849.0
851.0
869.0
887.0
903.0
923.0
936.0
941.0
948.0
952.0
952.0
955.0
956.0
958.0
954.0
955.0
956.0
962.0
964.0
964.0
961.0
962.0
958.0
953.0
960.0
963.0
961.0
960.0
960.0
963.0
963.0
965.0
966.0
966.0
968.0
971.0
974.0
975.0
971.0
975.0
972.0
973.0
979.0
989.0
992.0
989.0
981.0
990.0
998.0
1004.0
1002.0
1001.0
996.0
999.0
1012.0
1023.0
1029.0
1025.0
1022.0
1023.0
1030.0
1039.0
1042.0
1039.0
1033.0
1030.0
1034.0
1036.0
1039.0
1043.0
1042.0
1046.0
1048.0
1048.0
1047.0
1045.0
1041.0
1040.0
1040.0
1039.0
1038.0
1033.0
1030.0
1034.0
1034.0
1035.0
1028.0
1022.0
1014.0
1008.0
1006.0
1000.0
993.0
990.0
990.0
995.0
995.0
989.0
981.0
977.0
973.0
969.0
969.0
969.0
965.0
967.0
968.0
970.0
974.0
976.0
972.0
968.0
970.0
972.0
973.0
976.0
974.0
969.0
972.0
976.0
980.0
980.0
980.0
976.0
971.0
966.0
964.0
970.0
969.0
965.0
965.0
970.0
975.0
977.0
974.0
970.0
966.0
968.0
972.0
975.0
974.0
970.0
968.0
966.0
970.0
973.0
974.0
972.0
966.0
964.0
969.0
976.0
976.0
973.0
971.0
974.0
976.0
978.0
978.0
977.0
975.0
980.0
985.0
983.0
985.0
980.0
980.0
981.0
987.0
988.0
990.0
990.0
994.0
998.0
996.0
996.0
991.0
987.0
982.0
984.0
989.0
988.0
989.0
984.0
984.0
991.0
989.0
981.0
974.0
975.0
976.0
981.0
982.0
983.0
979.0
974.0
974.0
978.0
984.0
980.0
970.0
961.0
960.0
964.0
964.0
964.0
964.0
961.0
955.0
951.0
953.0
960.0
963.0
963.0
961.0
966.0
966.0
969.0
969.0
963.0
953.0
948.0
947.0
949.0
951.0
955.0
962.0
979.0
998.0
1022.0
1060.0
1112.0
1162.0
1212.0
1241.0
1233.0
1195.0
1139.0
1074.0
995.0
916.0
863.0
848.0
851.0
862.0
882.0
908.0
929.0
939.0
943.0
946.0
952.0
964.0
966.0
955.0
950.0
948.0
953.0
961.0
967.0
963.0
954.0
950.0
952.0
954.0
954.0
957.0
958.0
955.0
958.0
958.0
963.0
962.0
959.0
962.0
969.0
977.0
979.0
980.0
981.0
979.0
979.0
980.0
980.0
981.0
979.0
980.0
988.0
997.0
1003.0
1004.0
1004.0
1003.0
1008.0
1007.0
1010.0
1014.0
1019.0
1024.0
1030.0
1030.0
1028.0
1028.0
1028.0
1032.0
1039.0
1042.0
1046.0
1047.0
1045.0
1044.0
1043.0
1041.0
1042.0
1041.0
1038.0
1031.0
1031.0
1032.0
1029.0
1025.0
1023.0
1021.0
1014.0
1009.0
1005.0
1001.0
999.0
997.0
994.0
994.0
991.0
987.0
982.0
979.0
977.0
982.0
977.0
977.0
976.0
977.0
974.0
975.0
975.0
978.0
977.0
971.0
968.0
967.0
972.0
973.0
969.0
968.0
971.0
972.0
977.0
972.0
971.0
967.0
968.0
970.0
971.0
971.0
971.0
972.0
974.0
976.0
976.0
976.0
973.0
974.0
981.0
981.0
977.0
977.0
973.0
973.0
976.0
983.0
985.0
983.0
976.0
971.0
971.0
979.0
984.0
983.0
981.0
978.0
981.0
979.0
976.0
973.0
972.0
976.0
980.0
984.0
985.0
987.0
988.0
991.0
998.0
1003.0
1004.0
996.0
989.0
985.0
985.0
989.0
999.0
998.0
993.0
989.0
989.0
993.0
996.0
995.0
994.0
993.0
994.0
994.0
993.0
990.0
988.0
987.0
991.0
993.0
991.0
982.0
982.0
986.0
992.0
990.0
987.0
985.0
982.0
977.0
971.0
968.0
968.0
972.0
971.0
969.0
970.0
969.0
973.0
974.0
975.0
971.0
973.0
978.0
981.0
981.0
979.0
976.0
971.0
971.0
970.0
968.0
960.0
957.0
960.0
964.0
978.0
1006.0
1039.0
1085.0
1142.0
1200.0
1245.0
1261.0
1240.0
1193.0
1123.0
1044.0
958.0
889.0
863.0
866.0
882.0
897.0
918.0
930.0
940.0
947.0
954.0
956.0
958.0
958.0
959.0
963.0
967.0
969.0
970.0
969.0
965.0
968.0
965.0
972.0
975.0
974.0
975.0
967.0
965.0
965.0
969.0
974.0
976.0
977.0
980.0
980.0
980.0
978.0
979.0
980.0
987.0
992.0
997.0
998.0
1000.0
1002.0
1002.0
1001.0
998.0
1000.0
1008.0
1012.0
1016.0
1014.0
1014.0
1018.0
1017.0
1016.0
1023.0
1033.0
1039.0
1037.0
1041.0
1046.0
1051.0
1055.0
1058.0
1056.0
1057.0
1059.0
1063.0
1065.0
1065.0
1065.0
1067.0
1066.0
1062.0
1061.0
1062.0
1058.0
1050.0
1042.0
1038.0
1036.0
1032.0
1027.0
1023.0
1020.0
1016.0
1012.0
1010.0
1006.0
1001.0
1000.0
1000.0
999.0
999.0
998.0
997.0
995.0
994.0
997.0
995.0
991.0
987.0
987.0
990.0
990.0
993.0
992.0
987.0
983.0
979.0
983.0
983.0
984.0
984.0
984.0
989.0
990.0
989.0
989.0
986.0
986.0
988.0
992.0
992.0
991.0
989.0
989.0
991.0
992.0
993.0
993.0
989.0
991.0
991.0
995.0
993.0
992.0
989.0
988.0
989.0
988.0
991.0
993.0
994.0
992.0
992.0
991.0
993.0
995.0
990.0
992.0
994.0
998.0
1001.0
1000.0
994.0
1001.0
1004.0
1006.0
1010.0
1012.0
1009.0
1006.0
1006.0
1007.0
1010.0
1012.0
1009.0
1007.0
1005.0
1004.0
1007.0
1008.0
1003.0
999.0
1005.0
1007.0
1002.0
997.0
990.0
994.0
998.0
1002.0
1003.0
998.0
998.0
999.0
999.0
995.0
992.0
988.0
984.0
990.0
995.0
998.0
989.0
980.0
974.0
974.0
980.0
983.0
984.0
985.0
982.0
976.0
982.0
980.0
986.0
986.0
985.0
977.0
973.0
971.0
971.0
972.0
975.0
979.0
997.0
1024.0
1064.0
1113.0
1162.0
1213.0
1260.0
1287.0
1272.0
1217.0
1137.0
1048.0
951.0
885.0
869.0
882.0
902.0
926.0
946.0
958.0
967.0
973.0
978.0
975.0
976.0
978.0
980.0
979.0
976.0
976.0
978.0
980.0
981.0
984.0
983.0
986.0
984.0
985.0
987.0
986.0
987.0
988.0
991.0
991.0
989.0
990.0
987.0
988.0
993.0
998.0
999.0
1002.0
1000.0
1000.0
1003.0
1011.0
1012.0
1012.0
1013.0
1011.0
1013.0
1018.0
1025.0
1027.0
1024.0
1021.0
1026.0
1035.0
1041.0
1039.0
1043.0
1046.0
1051.0
1054.0
1058.0
1061.0
1061.0
1063.0
1066.0
1073.0
1073.0
1071.0
1070.0
1072.0
1073.0
1077.0
1080.0
1081.0
1079.0
1075.0
1063.0
1057.0
1054.0
1051.0
1045.0
1046.0
1043.0
1039.0
1039.0
1034.0
1026.0
1021.0
1014.0
1014.0
1010.0
1010.0
1012.0
1009.0
1007.0
1004.0
1000.0
999.0
997.0
995.0
998.0
998.0
1001.0
999.0
998.0
1000.0
1003.0
1005.0
1010.0
1007.0
1007.0
1005.0
999.0
998.0
995.0
997.0
994.0
994.0
994.0
993.0
992.0
989.0
988.0
987.0
992.0
997.0
996.0
997.0
998.0
1000.0
1001.0
1002.0
1002.0
998.0
994.0
991.0
992.0
994.0
998.0
999.0
1000.0
998.0
999.0
999.0
1000.0
1000.0
997.0
995.0
998.0
1001.0
1001.0
998.0
999.0
1000.0
1002.0
1007.0
1007.0
1008.0
1005.0
1005.0
1005.0
1011.0
1008.0
1007.0
1014.0
1019.0
1022.0
1016.0
1009.0
1008.0
1013.0
1015.0
1019.0
1016.0
1014.0
1007.0
1004.0
1005.0
1010.0
1017.0
1017.0
1018.0
1014.0
1009.0
1011.0
1011.0
1010.0
1007.0
1006.0
1009.0
1008.0
1008.0
1009.0
1007.0
1009.0
1005.0
1006.0
1010.0
1010.0
1005.0
997.0
990.0
992.0
991.0
990.0
987.0
981.0
979.0
981.0
987.0
993.0
994.0
991.0
984.0
982.0
983.0
988.0
994.0
993.0
992.0
989.0
987.0
985.0
983.0
980.0
979.0
986.0
1004.0
1029.0
1068.0
1113.0
1160.0
1208.0
1248.0
1269.0
1258.0
1217.0
1156.0
1070.0
979.0
904.0
880.0
884.0
897.0
912.0
927.0
946.0
962.0
971.0
972.0
973.0
973.0
981.0
988.0
992.0
989.0
985.0
980.0
982.0
983.0
984.0
983.0
985.0
986.0
987.0
982.0
981.0
983.0
983.0
992.0
996.0
994.0
991.0
990.0
995.0
999.0
1003.0
1005.0
1006.0
1005.0
1005.0
1007.0
1007.0
1009.0
1009.0
1008.0
1012.0
1019.0
1026.0
1031.0
1027.0
1024.0
1025.0
1033.0
1041.0
1041.0
1049.0
1055.0
1060.0
1064.0
1064.0
1060.0
1057.0
1062.0
1067.0
1077.0
1081.0
1078.0
1076.0
1072.0
1070.0
1074.0
1079.0
1081.0
1074.0
1066.0
1059.0
1061.0
1065.0
1062.0
1058.0
1056.0
1052.0
1046.0
1043.0
1036.0
1030.0
1026.0
1017.0
1013.0
1014.0
1012.0
1008.0
1006.0
1007.0
1001.0
1002.0
1001.0
1000.0
1004.0
1004.0
1001.0
1000.0
996.0
994.0
997.0
999.0
1002.0
1002.0
998.0
991.0
988.0
990.0
994.0
997.0
994.0
991.0
990.0
993.0
992.0
994.0
993.0
991.0
994.0
1001.0
1003.0
993.0
992.0
993.0
997.0
997.0
996.0
996.0
998.0
999.0
998.0
997.0
998.0
999.0
1000.0
994.0
994.0
994.0
996.0
1002.0
1006.0
1007.0
1009.0
1013.0
1015.0
1010.0
1003.0
996.0
999.0
1009.0
1015.0
1014.0
1006.0
1004.0
1008.0
1013.0
1016.0
1018.0
1014.0
1016.0
1019.0
1027.0
1035.0
1043.0
1041.0
1039.0
1038.0
1043.0
1045.0
1047.0
1050.0
1054.0
1062.0
1075.0
1088.0
1108.0
1137.0
1165.0
1192.0
1216.0
1235.0
1254.0
1268.0
1282.0
1297.0
1307.0
1313.0
1314.0
1316.0
1323.0
1332.0
1344.0
1348.0
1353.0
1358.0
1368.0
1374.0
1380.0
1384.0
1385.0
1384.0
1388.0
1390.0
1393.0
1398.0
1401.0
1399.0
1381.0
1333.0
1263.0
1184.0
1123.0
1071.0
1026.0
982.0
947.0
925.0
909.0
896.0
882.0
874.0
870.0
863.0
861.0
857.0
850.0
845.0
841.0
833.0
826.0
822.0
818.0
814.0
813.0
813.0
805.0
797.0
788.0
785.0
782.0
780.0
778.0
774.0
770.0
763.0
755.0
754.0
755.0
756.0
750.0
744.0
738.0
737.0
741.0
741.0
736.0
735.0
738.0
739.0
737.0
734.0
737.0
742.0
749.0
756.0
760.0
766.0
775.0
783.0
790.0
802.0
812.0
820.0
822.0
825.0
838.0
853.0
866.0
873.0
878.0
884.0
890.0
899.0
905.0
910.0
919.0
929.0
935.0
941.0
943.0
946.0
948.0
951.0
956.0
960.0
961.0
964.0
961.0
960.0
960.0
962.0
966.0
967.0
964.0
964.0
965.0
969.0
969.0
967.0
967.0
965.0
966.0
965.0
962.0
965.0
961.0
960.0
963.0
964.0
967.0
967.0
966.0
969.0
974.0
980.0
982.0
977.0
970.0
968.0
969.0
973.0
976.0
977.0
977.0
978.0
980.0
981.0
983.0
980.0
977.0
973.0
971.0
975.0
981.0
985.0
988.0
988.0
988.0
989.0
991.0
992.0
988.0
982.0
979.0
981.0
986.0
990.0
989.0
985.0
988.0
990.0
989.0
991.0
983.0
987.0
988.0
992.0
993.0
995.0
995.0
995.0
993.0
989.0
983.0
986.0
990.0
993.0
995.0
995.0
997.0
997.0
999.0
1002.0
1009.0
1008.0
1002.0
1009.0
1011.0
1008.0
1005.0
1008.0
1015.0
1018.0
1013.0
1007.0
1005.0
1005.0
1007.0
1008.0
1009.0
1006.0
1002.0
1003.0
1007.0
1010.0
1009.0
1013.0
1015.0
1011.0
1000.0
992.0
987.0
989.0
987.0
992.0
993.0
995.0
992.0
990.0
988.0
984.0
985.0
988.0
994.0
990.0
990.0
990.0
991.0
995.0
993.0
989.0
980.0
977.0
983.0
992.0
1009.0
1031.0
1061.0
1107.0
1159.0
1215.0
1265.0
1298.0
1304.0
1272.0
1219.0
1140.0
1046.0
952.0
893.0
878.0
888.0
905.0
923.0
941.0
962.0
975.0
979.0
976.0
971.0
974.0
978.0
982.0
984.0
984.0
984.0
987.0
989.0
991.0
993.0
992.0
993.0
990.0
988.0
989.0
992.0
992.0
993.0
991.0
993.0
991.0
992.0
998.0
1002.0
999.0
999.0
1006.0
1008.0
1011.0
1006.0
1004.0
1009.0
1012.0
1017.0
1021.0
1021.0
1026.0
1030.0
1038.0
1048.0
1054.0
1054.0
1054.0
1057.0
1065.0
1070.0
1069.0
1073.0
1076.0
1078.0
1083.0
1087.0
1088.0
1085.0
1081.0
1078.0
1072.0
1077.0
1080.0
1077.0
1070.0
1072.0
1069.0
1065.0
1056.0
1051.0
1047.0
1044.0
1044.0
1037.0
1029.0
1022.0
1018.0
1018.0
1016.0
1014.0
1010.0
1008.0
1008.0
1008.0
1008.0
1004.0
1001.0
1002.0
999.0
1007.0
1010.0
1007.0
1002.0
998.0
995.0
994.0
995.0
999.0
1003.0
1002.0
998.0
1000.0
1000.0
1001.0
999.0
998.0
999.0
1001.0
1004.0
1004.0
1004.0
998.0
995.0
995.0
997.0
1000.0
1000.0
1000.0
997.0
997.0
994.0
1001.0
1002.0
1007.0
1006.0
1006.0
1004.0
1003.0
1000.0
999.0
999.0
998.0
1005.0
1009.0
1011.0
1004.0
997.0
994.0
994.0
996.0
1002.0
1002.0
1003.0
1001.0
1003.0
1008.0
1012.0
1010.0
1011.0
1013.0
1017.0
1019.0
1017.0
1012.0
1011.0
1010.0
1010.0
1008.0
1010.0
1011.0
1013.0
1014.0
1012.0
1009.0
1006.0
1003.0
1007.0
1008.0
1006.0
1005.0
1002.0
1003.0
1001.0
1002.0
1005.0
1011.0
1013.0
1004.0
991.0
987.0
992.0
993.0
991.0
988.0
983.0
988.0
991.0
988.0
989.0
988.0
984.0
981.0
979.0
985.0
989.0
984.0
982.0
981.0
983.0
982.0
977.0
977.0
987.0
1001.0
1027.0
1060.0
1096.0
1135.0
1183.0
1235.0
1275.0
1284.0
1253.0
1188.0
1105.0
1004.0
916.0
869.0
866.0
889.0
912.0
936.0
954.0
967.0
975.0
979.0
977.0
971.0
968.0
972.0
977.0
977.0
976.0
977.0
980.0
983.0
981.0
979.0
980.0
984.0
984.0
981.0
980.0
979.0
981.0
987.0
993.0
995.0
993.0
991.0
990.0
988.0
986.0
986.0
995.0
1002.0
1002.0
999.0
994.0
1000.0
1006.0
1016.0
1021.0
1023.0
1026.0
1029.0
1033.0
1040.0
1040.0
1047.0
1053.0
1057.0
1055.0
1053.0
1053.0
1058.0
1063.0
1065.0
1066.0
1064.0
1059.0
1057.0
1058.0
1058.0
1051.0
1046.0
1042.0
1045.0
1047.0
1045.0
1038.0
1024.0
1020.0
1016.0
1018.0
1016.0
1016.0
1013.0
1006.0
999.0
997.0
996.0
996.0
995.0
994.0
993.0
994.0
998.0
998.0
992.0
986.0
983.0
986.0
987.0
987.0
987.0
984.0
986.0
992.0
991.0
989.0
983.0
985.0
986.0
990.0
991.0
989.0
984.0
976.0
975.0
980.0
982.0
981.0
979.0
980.0
984.0
987.0
991.0
989.0
986.0
983.0
984.0
987.0
993.0
994.0
994.0
992.0
995.0
995.0
993.0
985.0
981.0
983.0
984.0
989.0
989.0
989.0
991.0
991.0
996.0
999.0
999.0
995.0
995.0
993.0
997.0
998.0
1000.0
1004.0
1001.0
1003.0
1005.0
1008.0
1005.0
1002.0
1000.0
1000.0
1002.0
1006.0
1007.0
1004.0
999.0
994.0
995.0
993.0
996.0
997.0
992.0
990.0
993.0
997.0
997.0
991.0
985.0
985.0
986.0
982.0
978.0
978.0
976.0
974.0
972.0
973.0
978.0
978.0
977.0
977.0
977.0
980.0
980.0
977.0
971.0
972.0
974.0
975.0
975.0
974.0
973.0
970.0
968.0
971.0
978.0
990.0
1009.0
1036.0
1075.0
1126.0
1174.0
1224.0
1260.0
1271.0
1245.0
1186.0
1107.0
1013.0
917.0
857.0
853.0
874.0
897.0
913.0
930.0
946.0
957.0
963.0
965.0
958.0
954.0
958.0
963.0
963.0
962.0
964.0
958.0
960.0
960.0
963.0
963.0
966.0
967.0
966.0
964.0
967.0
969.0
971.0
972.0
968.0
971.0
975.0
979.0
976.0
974.0
976.0
977.0
980.0
983.0
981.0
981.0
983.0
983.0
984.0
990.0
992.0
995.0
995.0
995.0
999.0
1006.0
1011.0
1013.0
1013.0
1016.0
1019.0
1023.0
1026.0
1029.0
1028.0
1029.0
1038.0
1043.0
1041.0
1038.0
1038.0
1044.0
1046.0
1049.0
1045.0
1041.0
1037.0
1042.0
1044.0
1048.0
1042.0
1038.0
1035.0
1034.0
1033.0
1033.0
1025.0
1015.0
1010.0
1007.0
1007.0
1003.0
1000.0
993.0
987.0
986.0
986.0
985.0
985.0
980.0
976.0
972.0
972.0
973.0
971.0
968.0
969.0
972.0
974.0
971.0
970.0
967.0
965.0
962.0
962.0
963.0
965.0
961.0
962.0
961.0
960.0
960.0
960.0
962.0
960.0
963.0
964.0
970.0
971.0
961.0
955.0
958.0
960.0
963.0
960.0
958.0
957.0
962.0
964.0
961.0
960.0
956.0
955.0
958.0
960.0
966.0
967.0
967.0
963.0
962.0
968.0
969.0
970.0
968.0
968.0
962.0
962.0
963.0
969.0
970.0
969.0
965.0
965.0
970.0
974.0
973.0
971.0
970.0
976.0
977.0
976.0
974.0
975.0
976.0
977.0
978.0
978.0
978.0
972.0
971.0
972.0
977.0
975.0
973.0
975.0
974.0
972.0
968.0
966.0
965.0
962.0
956.0
958.0
963.0
963.0
962.0
957.0
954.0
952.0
950.0
946.0
944.0
945.0
946.0
946.0
943.0
944.0
944.0
945.0
949.0
954.0
958.0
950.0
946.0
944.0
945.0
951.0
951.0
946.0
938.0
938.0
938.0
940.0
941.0
942.0
949.0
959.0
979.0
1015.0
1066.0
1120.0
1174.0
1213.0
1230.0
1215.0
1175.0
1112.0
1032.0
941.0
870.0
842.0
845.0
854.0
865.0
878.0
895.0
911.0
922.0
926.0
926.0
930.0
933.0
940.0
941.0
940.0
941.0
943.0
945.0
941.0
939.0
940.0
940.0
937.0
934.0
937.0
942.0
945.0
945.0
947.0
951.0
953.0
953.0
954.0
951.0
948.0
945.0
949.0
960.0
962.0
959.0
958.0
960.0
966.0
968.0
965.0
962.0
962.0
966.0
976.0
979.0
979.0
975.0
978.0
990.0
998.0
1005.0
1015.0
1014.0
1014.0
1012.0
1017.0
1022.0
1017.0
1014.0
1011.0
1016.0
1022.0
1023.0
1024.0
1021.0
1018.0
1010.0
1013.0
1014.0
1014.0
1013.0
1013.0
1010.0
1008.0
1003.0
1002.0
999.0
996.0
992.0
988.0
984.0
978.0
969.0
963.0
964.0
964.0
960.0
955.0
952.0
952.0
952.0
950.0
956.0
951.0
950.0
947.0
950.0
953.0
958.0
956.0
953.0
951.0
950.0
949.0
948.0
946.0
946.0
947.0
949.0
954.0
955.0
954.0
951.0
952.0
952.0
952.0
948.0
944.0
944.0
947.0
950.0
954.0
961.0
968.0
969.0
967.0
959.0
954.0
953.0
953.0
954.0
958.0
957.0
954.0
954.0
950.0
955.0
956.0
955.0
960.0
963.0
964.0
964.0
965.0
964.0
967.0
969.0
968.0
965.0
962.0
966.0
970.0
975.0
977.0
978.0
976.0
977.0
981.0
982.0
978.0
974.0
971.0
973.0
978.0
982.0
978.0
971.0
966.0
963.0
965.0
965.0
961.0
962.0
961.0
964.0
966.0
966.0
966.0
964.0
963.0
965.0
966.0
968.0
963.0
955.0
942.0
939.0
944.0
950.0
955.0
956.0
957.0
956.0
953.0
949.0
943.0
940.0
940.0
940.0
942.0
947.0
949.0
949.0
945.0
943.0
943.0
943.0
941.0
934.0
928.0
930.0
947.0
972.0
999.0
1036.0
1076.0
1123.0
1175.0
1220.0
1241.0
1235.0
1200.0
1137.0
1067.0
981.0
901.0
857.0
853.0
863.0
871.0
878.0
891.0
902.0
908.0
914.0
919.0
921.0
927.0
932.0
934.0
937.0
940.0
942.0
941.0
941.0
940.0
937.0
943.0
940.0
939.0
941.0
941.0
942.0
946.0
952.0
952.0
954.0
957.0
955.0
956.0
955.0
953.0
951.0
953.0
958.0
960.0
964.0
963.0
963.0
965.0
967.0
970.0
976.0
975.0
976.0
974.0
981.0
987.0
992.0
992.0
995.0
996.0
1001.0
1009.0
1014.0
1013.0
1011.0
1014.0
1021.0
1028.0
1033.0
1037.0
1037.0
1034.0
1035.0
1036.0
1034.0
1028.0
1030.0
1033.0
1033.0
1038.0
1040.0
1035.0
1029.0
1025.0
1021.0
1020.0
1018.0
1010.0
1002.0
998.0
992.0
990.0
993.0
993.0
991.0
990.0
987.0
985.0
980.0
974.0
969.0
967.0
968.0
969.0
970.0
967.0
964.0
962.0
964.0
966.0
967.0
967.0
965.0
967.0
964.0
965.0
961.0
959.0
957.0
952.0
955.0
961.0
958.0
960.0
961.0
963.0
963.0
961.0
962.0
962.0
962.0
960.0
959.0
960.0
965.0
966.0
965.0
966.0
963.0
966.0
971.0
975.0
973.0
970.0
968.0
969.0
972.0
971.0
968.0
963.0
969.0
969.0
971.0
969.0
965.0
966.0
968.0
972.0
973.0
973.0
974.0
977.0
979.0
985.0
986.0
984.0
982.0
982.0
986.0
992.0
996.0
992.0
982.0
976.0
973.0
978.0
982.0
986.0
987.0
985.0
984.0
977.0
970.0
969.0
970.0
971.0
972.0
974.0
977.0
974.0
978.0
976.0
976.0
972.0
970.0
968.0
963.0
954.0
953.0
953.0
957.0
956.0
955.0
955.0
957.0
960.0
962.0
957.0
954.0
951.0
957.0
959.0
957.0
960.0
958.0
960.0
962.0
966.0
969.0
963.0
953.0
942.0
944.0
954.0
978.0
1003.0
1037.0
1080.0
1134.0
1194.0
1244.0
1265.0
1250.0
1198.0
1118.0
1025.0
933.0
867.0
847.0
855.0
869.0
885.0
907.0
923.0
936.0
941.0
943.0
946.0
949.0
946.0
950.0
951.0
954.0
953.0
956.0
959.0
958.0
959.0
957.0
959.0
961.0
963.0
962.0
958.0
955.0
960.0
960.0
963.0
960.0
958.0
957.0
955.0
960.0
964.0
966.0
967.0
964.0
967.0
974.0
978.0
979.0
977.0
976.0
978.0
981.0
985.0
986.0
988.0
988.0
994.0
999.0
1005.0
1008.0
1010.0
1012.0
1013.0
1016.0
1019.0
1023.0
1028.0
1033.0
1037.0
1035.0
1036.0
1035.0
1036.0
1036.0
1039.0
1044.0
1047.0
1043.0
1038.0
1038.0
1042.0
1041.0
1039.0
1031.0
1028.0
1023.0
1024.0
1019.0
1017.0
1009.0
1006.0
1001.0
1003.0
999.0
994.0
990.0
989.0
989.0
986.0
986.0
983.0
980.0
980.0
978.0
980.0
976.0
974.0
973.0
971.0
972.0
978.0
977.0
976.0
971.0
968.0
970.0
972.0
973.0
972.0
967.0
961.0
965.0
971.0
974.0
976.0
969.0
965.0
966.0
969.0
973.0
968.0
958.0
955.0
957.0
959.0
966.0
965.0
965.0
968.0
969.0
969.0
970.0
971.0
968.0
968.0
965.0
966.0
970.0
969.0
971.0
970.0
967.0
971.0
974.0
977.0
975.0
972.0
966.0
966.0
968.0
972.0
974.0
973.0
977.0
980.0
984.0
985.0
984.0
985.0
983.0
987.0
992.0
991.0
986.0
984.0
983.0
986.0
991.0
991.0
990.0
983.0
980.0
984.0
989.0
990.0
988.0
982.0
978.0
983.0
982.0
983.0
978.0
978.0
980.0
983.0
979.0
978.0
977.0
972.0
967.0
965.0
970.0
973.0
974.0
971.0
964.0
962.0
966.0
970.0
967.0
963.0
963.0
969.0
970.0
968.0
966.0
961.0
955.0
952.0
957.0
958.0
957.0
953.0
958.0
965.0
982.0
1011.0
1045.0
1092.0
1144.0
1198.0
1253.0
1284.0
1269.0
1207.0
1120.0
1019.0
922.0
859.0
846.0
860.0
889.0
914.0
935.0
938.0
938.0
941.0
949.0
956.0
959.0
960.0
954.0
950.0
945.0
951.0
952.0
955.0
954.0
954.0
958.0
966.0
967.0
964.0
957.0
959.0
960.0
962.0
964.0
964.0
961.0
956.0
961.0
962.0
965.0
967.0
968.0
970.0
966.0
967.0
968.0
971.0
975.0
979.0
979.0
974.0
979.0
978.0
984.0
987.0
991.0
992.0
999.0
1005.0
1010.0
1015.0
1023.0
1028.0
1028.0
1028.0
1028.0
1031.0
1037.0
1042.0
1047.0
1044.0
1038.0
1036.0
1034.0
1035.0
1039.0
1041.0
1041.0
1036.0
1032.0
1031.0
1029.0
1026.0
1021.0
1016.0
1014.0
1015.0
1016.0
1009.0
1002.0
996.0
997.0
997.0
993.0
989.0
986.0
979.0
977.0
978.0
982.0
982.0
979.0
973.0
970.0
973.0
975.0
975.0
973.0
970.0
971.0
972.0
970.0
965.0
964.0
970.0
972.0
975.0
973.0
967.0
964.0
962.0
963.0
969.0
975.0
977.0
973.0
973.0
975.0
976.0
973.0
972.0
970.0
971.0
977.0
982.0
985.0
977.0
969.0
965.0
969.0
973.0
976.0
975.0
973.0
971.0
974.0
977.0
977.0
982.0
980.0
979.0
971.0
971.0
979.0
980.0
978.0
982.0
984.0
992.0
998.0
994.0
994.0
990.0
987.0
988.0
990.0
994.0
992.0
993.0
992.0
992.0
993.0
990.0
988.0
991.0
991.0
993.0
991.0
983.0
979.0
979.0
980.0
984.0
987.0
983.0
977.0
975.0
979.0
985.0
991.0
987.0
978.0
973.0
963.0
968.0
974.0
973.0
969.0
966.0
960.0
964.0
968.0
966.0
963.0
960.0
965.0
974.0
973.0
972.0
968.0
961.0
960.0
964.0
962.0
955.0
948.0
949.0
958.0
973.0
1001.0
1030.0
1064.0
1104.0
1156.0
1216.0
1264.0
1274.0
1242.0
1181.0
1111.0
1033.0
945.0
872.0
849.0
864.0
888.0
910.0
928.0
941.0
947.0
952.0
954.0
960.0
963.0
964.0
961.0
962.0
959.0
959.0
963.0
966.0
966.0
965.0
963.0
964.0
970.0
966.0
965.0
964.0
965.0
968.0
971.0
969.0
969.0
972.0
975.0
980.0
979.0
981.0
984.0
982.0
983.0
986.0
988.0
991.0
990.0
992.0
993.0
992.0
991.0
992.0
1000.0
1005.0
1009.0
1014.0
1017.0
1021.0
1025.0
1029.0
1028.0
1031.0
1037.0
1041.0
1045.0
1045.0
1044.0
1045.0
1048.0
1050.0
1053.0
1048.0
1046.0
1049.0
1059.0
1060.0
1053.0
1043.0
1040.0
1042.0
1043.0
1041.0
1035.0
1023.0
1015.0
1017.0
1024.0
1023.0
1015.0
1008.0
999.0
996.0
998.0
999.0
994.0
990.0
985.0
984.0
983.0
985.0
983.0
975.0
974.0
975.0
983.0
985.0
983.0
979.0
980.0
978.0
982.0
981.0
981.0
980.0
981.0
982.0
987.0
984.0
979.0
976.0
969.0
970.0
975.0
979.0
973.0
972.0
971.0
976.0
980.0
982.0
978.0
974.0
971.0
973.0
972.0
977.0
979.0
982.0
984.0
984.0
984.0
981.0
979.0
978.0
978.0
979.0
982.0
982.0
975.0
972.0
973.0
978.0
984.0
985.0
981.0
977.0
981.0
988.0
997.0
1000.0
997.0
995.0
994.0
998.0
1004.0
1004.0
999.0
993.0
992.0
990.0
988.0
987.0
989.0
993.0
989.0
990.0
993.0
994.0
991.0
989.0
985.0
985.0
989.0
990.0
985.0
985.0
986.0
989.0
987.0
986.0
985.0
982.0
979.0
970.0
971.0
971.0
969.0
964.0
958.0
963.0
963.0
974.0
976.0
971.0
964.0
961.0
966.0
966.0
967.0
967.0
967.0
965.0
964.0
961.0
958.0
961.0
968.0
989.0
1020.0
1055.0
1096.0
1142.0
1191.0
1235.0
1246.0
1222.0
1171.0
1106.0
1026.0
934.0
871.0
853.0
863.0
880.0
900.0
922.0
937.0
950.0
950.0
951.0
952.0
960.0
964.0
968.0
968.0
962.0
958.0
958.0
961.0
960.0
955.0
955.0
960.0
965.0
965.0
962.0
961.0
964.0
966.0
968.0
968.0
972.0
976.0
975.0
971.0
975.0
982.0
987.0
985.0
980.0
978.0
984.0
993.0
993.0
991.0
986.0
991.0
999.0
1004.0
1012.0
1015.0
1015.0
1016.0
1021.0
1026.0
1026.0
1029.0
1039.0
1042.0
1043.0
1044.0
1046.0
1043.0
1039.0
1036.0
1043.0
1043.0
1043.0
1043.0
1039.0
1033.0
1029.0
1031.0
1030.0
1027.0
1024.0
1017.0
1004.0
1001.0
1001.0
997.0
992.0
990.0
990.0
990.0
985.0
978.0
974.0
975.0
979.0
983.0
981.0
977.0
974.0
969.0
972.0
973.0
972.0
966.0
964.0
965.0
968.0
965.0
962.0
963.0
965.0
963.0
961.0
960.0
960.0
954.0
953.0
957.0
963.0
965.0
961.0
960.0
961.0
964.0
966.0
968.0
973.0
971.0
968.0
963.0
961.0
965.0
968.0
969.0
976.0
977.0
978.0
976.0
974.0
970.0
970.0
972.0
975.0
976.0
971.0
971.0
970.0
963.0
964.0
965.0
972.0
971.0
975.0
970.0
975.0
974.0
976.0
983.0
988.0
985.0
976.0
970.0
972.0
978.0
979.0
976.0
976.0
980.0
984.0
980.0
981.0
981.0
980.0
979.0
976.0
976.0
977.0
982.0
982.0
979.0
975.0
970.0
969.0
964.0
963.0
966.0
969.0
969.0
966.0
959.0
956.0
956.0
958.0
956.0
959.0
957.0
954.0
958.0
953.0
946.0
944.0
943.0
