# Simple Text Format
# Sampling Rate (Hz):= 360.00
# Resolution:= 12
# Labels:= ECG
977.0
974.0
967.0
954.0
940.0
928.0
912.0
907.0
901.0
898.0
895.0
894.0
893.0
896.0
894.0
896.0
898.0
898.0
898.0
896.0
896.0
894.0
893.0
894.0
898.0
898.0
900.0
901.0
899.0
898.0
897.0
894.0
892.0
890.0
885.0
883.0
890.0
908.0
952.0
1010.0
1084.0
1170.0
1260.0
1341.0
1403.0
1429.0
1416.0
1370.0
1306.0
1232.0
1155.0
1080.0
1012.0
948.0
890.0
844.0
807.0
785.0
783.0
794.0
817.0
841.0
859.0
868.0
873.0
865.0
861.0
854.0
849.0
847.0
845.0
845.0
846.0
844.0
846.0
849.0
850.0
849.0
848.0
845.0
843.0
841.0
841.0
843.0
845.0
843.0
844.0
844.0
848.0
848.0
850.0
852.0
856.0
855.0
856.0
857.0
857.0
857.0
860.0
867.0
873.0
879.0
885.0
887.0
888.0
891.0
894.0
898.0
906.0
915.0
928.0
933.0
937.0
942.0
947.0
952.0
957.0
968.0
976.0
985.0
993.0
998.0
1003.0
1013.0
1021.0
1030.0
1043.0
1051.0
1054.0
1059.0
1060.0
1063.0
1066.0
1073.0
1082.0
1089.0
1096.0
1100.0
1100.0
1100.0
1098.0
1097.0
1098.0
1099.0
1100.0
1100.0
1100.0
1096.0
1094.0
1092.0
1090.0
1087.0
1087.0
1082.0
1080.0
1074.0
1067.0
1062.0
1059.0
1055.0
1051.0
1050.0
1046.0
1040.0
1033.0
1026.0
1019.0
1013.0
1009.0
1008.0
1008.0
1007.0
1003.0
998.0
991.0
985.0
980.0
977.0
979.0
979.0
979.0
977.0
974.0
973.0
974.0
973.0
976.0
975.0
974.0
976.0
978.0
979.0
982.0
989.0
996.0
1005.0
1015.0
1021.0
1025.0
1029.0
1027.0
1029.0
1031.0
1032.0
1033.0
1033.0
1028.0
1020.0
1008.0
994.0
987.0
976.0
968.0
963.0
958.0
954.0
948.0
947.0
951.0
952.0
958.0
959.0
958.0
958.0
956.0
952.0
951.0
949.0
952.0
956.0
961.0
962.0
963.0
961.0
960.0
957.0
954.0
949.0
949.0
943.0
938.0
937.0
948.0
967.0
1007.0
1060.0
1121.0
1182.0
1252.0
1321.0
1387.0
1433.0
1448.0
1429.0
1378.0
1307.0
1224.0
1137.0
1050.0
975.0
922.0
886.0
866.0
855.0
855.0
863.0
876.0
895.0
915.0
931.0
942.0
943.0
937.0
932.0
927.0
924.0
924.0
924.0
924.0
928.0
928.0
931.0
932.0
931.0
927.0
925.0
921.0
922.0
921.0
924.0
926.0
929.0
927.0
928.0
930.0
932.0
933.0
939.0
944.0
945.0
948.0
949.0
954.0
958.0
963.0
968.0
976.0
980.0
983.0
985.0
988.0
992.0
998.0
1007.0
1019.0
1028.0
1035.0
1045.0
1052.0
1056.0
1062.0
1068.0
1072.0
1082.0
1086.0
1093.0
1098.0
1108.0
1114.0
1125.0
1132.0
1137.0
1143.0
1148.0
1148.0
1149.0
1152.0
1157.0
1161.0
1165.0
1168.0
1167.0
1165.0
1163.0
1160.0
1160.0
1159.0
1160.0
1155.0
1150.0
1144.0
1143.0
1137.0
1135.0
1129.0
1125.0
1117.0
1110.0
1101.0
1095.0
1088.0
1082.0
1074.0
1073.0
1071.0
1062.0
1057.0
1051.0
1044.0
1036.0
1030.0
1023.0
1018.0
1010.0
1002.0
995.0
990.0
986.0
987.0
980.0
976.0
971.0
965.0
955.0
952.0
951.0
951.0
959.0
962.0
966.0
965.0
967.0
966.0
967.0
967.0
967.0
966.0
966.0
967.0
971.0
977.0
988.0
997.0
1008.0
1012.0
1015.0
1015.0
1018.0
1020.0
1025.0
1027.0
1026.0
1027.0
1020.0
1008.0
995.0
981.0
967.0
955.0
949.0
944.0
944.0
945.0
945.0
951.0
948.0
946.0
944.0
940.0
941.0
937.0
937.0
938.0
941.0
945.0
952.0
952.0
951.0
948.0
945.0
943.0
938.0
938.0
934.0
929.0
925.0
920.0
925.0
941.0
970.0
1013.0
1071.0
1143.0
1221.0
1304.0
1378.0
1426.0
1437.0
1408.0
1345.0
1262.0
1167.0
1068.0
982.0
911.0
860.0
826.0
805.0
792.0
791.0
799.0
815.0
836.0
858.0
875.0
886.0
888.0
883.0
873.0
863.0
859.0
857.0
857.0
860.0
866.0
869.0
864.0
866.0
858.0
854.0
856.0
856.0
859.0
861.0
862.0
864.0
864.0
863.0
870.0
871.0
876.0
879.0
881.0
881.0
882.0
881.0
883.0
888.0
892.0
899.0
903.0
904.0
906.0
911.0
915.0
922.0
930.0
937.0
943.0
944.0
946.0
948.0
955.0
959.0
965.0
974.0
982.0
987.0
989.0
995.0
1001.0
1006.0
1014.0
1022.0
1028.0
1035.0
1038.0
1042.0
1047.0
1051.0
1058.0
1066.0
1071.0
1075.0
1075.0
1076.0
1071.0
1069.0
1073.0
1072.0
1071.0
1069.0
1065.0
1060.0
1058.0
1055.0
1052.0
1049.0
1046.0
1043.0
1038.0
1031.0
1023.0
1014.0
1010.0
1004.0
1002.0
1000.0
995.0
990.0
984.0
976.0
968.0
963.0
957.0
953.0
947.0
942.0
935.0
926.0
922.0
920.0
918.0
918.0
917.0
916.0
910.0
909.0
906.0
905.0
907.0
909.0
911.0
912.0
911.0
910.0
907.0
909.0
909.0
910.0
912.0
915.0
917.0
918.0
923.0
925.0
933.0
941.0
946.0
954.0
955.0
958.0
957.0
959.0
961.0
964.0
969.0
973.0
970.0
966.0
957.0
947.0
933.0
920.0
909.0
904.0
902.0
897.0
895.0
892.0
893.0
889.0
891.0
890.0
891.0
891.0
889.0
888.0
890.0
889.0
890.0
892.0
895.0
896.0
896.0
892.0
889.0
887.0
887.0
887.0
888.0
887.0
881.0
879.0
877.0
888.0
913.0
961.0
1026.0
1100.0
1190.0
1279.0
1355.0
1409.0
1425.0
1402.0
1350.0
1283.0
1212.0
1139.0
1065.0
987.0
913.0
853.0
805.0
774.0
763.0
768.0
785.0
806.0
827.0
840.0
851.0
850.0
847.0
843.0
839.0
835.0
833.0
833.0
832.0
832.0
833.0
834.0
833.0
829.0
827.0
822.0
822.0
828.0
831.0
833.0
834.0
833.0
833.0
831.0
828.0
829.0
833.0
838.0
841.0
844.0
847.0
848.0
851.0
855.0
858.0
863.0
866.0
867.0
873.0
879.0
887.0
897.0
898.0
908.0
912.0
916.0
924.0
930.0
936.0
947.0
956.0
967.0
974.0
982.0
988.0
996.0
1003.0
1011.0
1018.0
1022.0
1028.0
1030.0
1034.0
1043.0
1051.0
1059.0
1065.0
1069.0
1071.0
1071.0
1070.0
1070.0
1069.0
1071.0
1072.0
1072.0
1073.0
1073.0
1070.0
1067.0
1062.0
1059.0
1057.0
1051.0
1047.0
1040.0
1035.0
1028.0
1025.0
1023.0
1022.0
1015.0
1010.0
1007.0
996.0
990.0
984.0
982.0
979.0
978.0
975.0
973.0
968.0
963.0
962.0
959.0
964.0
962.0
962.0
960.0
959.0
955.0
955.0
957.0
960.0
964.0
967.0
970.0
975.0
982.0
991.0
996.0
1002.0
1007.0
1009.0
1012.0
1015.0
1018.0
1022.0
1023.0
1023.0
1023.0
1014.0
1003.0
991.0
978.0
970.0
963.0
959.0
952.0
947.0
940.0
934.0
933.0
932.0
934.0
937.0
938.0
940.0
940.0
941.0
939.0
934.0
934.0
932.0
929.0
931.0
931.0
927.0
930.0
928.0
926.0
929.0
922.0
916.0
908.0
910.0
920.0
945.0
987.0
1052.0
1126.0
1210.0
1297.0
1376.0
1429.0
1445.0
1416.0
1357.0
1283.0
1196.0
1107.0
1027.0
963.0
916.0
881.0
859.0
843.0
841.0
848.0
867.0
884.0
899.0
905.0
906.0
903.0
897.0
889.0
889.0
887.0
887.0
886.0
888.0
887.0
889.0
886.0
883.0
880.0
882.0
879.0
883.0
885.0
888.0
885.0
883.0
881.0
879.0
878.0
880.0
886.0
889.0
893.0
895.0
898.0
900.0
897.0
899.0
904.0
910.0
913.0
916.0
920.0
926.0
928.0
937.0
944.0
953.0
958.0
965.0
968.0
970.0
973.0
980.0
989.0
1002.0
1010.0
1020.0
1027.0
1035.0
1040.0
1043.0
1053.0
1059.0
1066.0
1070.0
1076.0
1078.0
1082.0
1088.0
1093.0
1098.0
1103.0
1101.0
1102.0
1099.0
1098.0
1098.0
1099.0
1100.0
1099.0
1097.0
1092.0
1092.0
1087.0
1082.0
1078.0
1074.0
1067.0
1061.0
1058.0
1055.0
1050.0
1046.0
1044.0
1039.0
1037.0
1029.0
1022.0
1014.0
1005.0
1002.0
1000.0
1000.0
997.0
994.0
989.0
979.0
973.0
967.0
962.0
959.0
956.0
952.0
948.0
945.0
944.0
944.0
945.0
942.0
942.0
947.0
945.0
945.0
942.0
939.0
939.0
943.0
948.0
957.0
966.0
975.0
978.0
980.0
983.0
984.0
986.0
990.0
997.0
1001.0
1006.0
1009.0
1007.0
1006.0
1003.0
998.0
993.0
984.0
969.0
956.0
947.0
937.0
929.0
931.0
933.0
937.0
938.0
936.0
937.0
933.0
931.0
929.0
929.0
934.0
936.0
937.0
934.0
935.0
932.0
931.0
931.0
934.0
932.0
932.0
932.0
929.0
924.0
924.0
917.0
914.0
914.0
929.0
949.0
987.0
1037.0
1106.0
1187.0
1269.0
1348.0
1408.0
1450.0
1464.0
1449.0
1410.0
1356.0
1287.0
1216.0
1143.0
1075.0
1008.0
946.0
893.0
855.0
834.0
833.0
848.0
871.0
888.0
900.0
897.0
890.0
882.0
872.0
869.0
868.0
871.0
870.0
868.0
864.0
861.0
858.0
856.0
857.0
858.0
862.0
861.0
860.0
857.0
853.0
850.0
850.0
852.0
852.0
852.0
852.0
852.0
852.0
853.0
856.0
861.0
863.0
865.0
866.0
865.0
866.0
867.0
865.0
873.0
880.0
888.0
893.0
899.0
902.0
907.0
911.0
918.0
927.0
933.0
943.0
950.0
957.0
964.0
971.0
977.0
985.0
992.0
998.0
1008.0
1019.0
1023.0
1032.0
1039.0
1049.0
1060.0
1069.0
1077.0
1082.0
1084.0
1089.0
1090.0
1093.0
1098.0
1102.0
1108.0
1112.0
1113.0
1113.0
1115.0
1114.0
1113.0
1112.0
1111.0
1108.0
1106.0
1100.0
1098.0
1095.0
1094.0
1093.0
1093.0
1090.0
1088.0
1081.0
1075.0
1069.0
1062.0
1058.0
1056.0
1052.0
1050.0
1045.0
1039.0
1034.0
1026.0
1018.0
1012.0
1009.0
1005.0
1005.0
1001.0
996.0
994.0
989.0
986.0
980.0
978.0
978.0
978.0
976.0
976.0
975.0
974.0
973.0
974.0
973.0
979.0
982.0
983.0
984.0
989.0
995.0
1001.0
1006.0
1012.0
1015.0
1018.0
1023.0
1025.0
1027.0
1027.0
1029.0
1025.0
1024.0
1016.0
1007.0
995.0
982.0
973.0
965.0
962.0
960.0
953.0
950.0
948.0
946.0
945.0
947.0
949.0
950.0
952.0
950.0
949.0
946.0
945.0
941.0
945.0
947.0
948.0
945.0
945.0
944.0
945.0
944.0
940.0
942.0
938.0
932.0
925.0
921.0
925.0
946.0
981.0
1027.0
1091.0
1159.0
1233.0
1303.0
1366.0
1418.0
1440.0
1439.0
1407.0
1358.0
1297.0
1225.0
1152.0
1080.0
1011.0
952.0
903.0
866.0
846.0
842.0
854.0
874.0
892.0
903.0
909.0
904.0
898.0
891.0
883.0
879.0
873.0
872.0
871.0
872.0
873.0
875.0
874.0
872.0
869.0
869.0
864.0
862.0
861.0
858.0
860.0
861.0
860.0
859.0
860.0
861.0
862.0
864.0
867.0
867.0
866.0
865.0
863.0
864.0
867.0
872.0
877.0
882.0
885.0
887.0
889.0
891.0
896.0
901.0
909.0
919.0
925.0
931.0
938.0
945.0
952.0
960.0
965.0
977.0
984.0
994.0
999.0
1010.0
1014.0
1024.0
1038.0
1048.0
1058.0
1062.0
1067.0
1070.0
1073.0
1074.0
1079.0
1085.0
1093.0
1099.0
1108.0
1111.0
1114.0
1116.0
1116.0
1116.0
1114.0
1117.0
1118.0
1120.0
1118.0
1118.0
1116.0
1114.0
1115.0
1112.0
1109.0
1108.0
1103.0
1099.0
1091.0
1088.0
1084.0
1080.0
1080.0
1076.0
1072.0
1066.0
1055.0
1049.0
1041.0
1035.0
1029.0
1029.0
1028.0
1024.0
1020.0
1013.0
1006.0
1001.0
994.0
992.0
989.0
985.0
981.0
976.0
973.0
974.0
977.0
978.0
983.0
984.0
984.0
980.0
977.0
977.0
979.0
984.0
993.0
1000.0
1008.0
1016.0
1015.0
1019.0
1021.0
1024.0
1028.0
1035.0
1036.0
1037.0
1039.0
1040.0
1038.0
1036.0
1031.0
1025.0
1015.0
1003.0
989.0
979.0
966.0
962.0
963.0
968.0
972.0
973.0
973.0
971.0
968.0
967.0
964.0
968.0
968.0
968.0
970.0
969.0
968.0
967.0
966.0
971.0
970.0
969.0
969.0
961.0
961.0
952.0
951.0
946.0
950.0
965.0
991.0
1030.0
1081.0
1148.0
1228.0
1308.0
1382.0
1440.0
1467.0
1462.0
1428.0
1374.0
1309.0
1237.0
1168.0
1097.0
1029.0
970.0
917.0
878.0
861.0
866.0
886.0
911.0
930.0
939.0
933.0
924.0
910.0
901.0
895.0
894.0
898.0
899.0
900.0
899.0
894.0
891.0
886.0
884.0
884.0
884.0
882.0
880.0
879.0
874.0
876.0
879.0
880.0
880.0
877.0
874.0
874.0
870.0
870.0
874.0
878.0
885.0
889.0
894.0
897.0
900.0
903.0
906.0
912.0
916.0
919.0
926.0
932.0
941.0
950.0
958.0
969.0
975.0
981.0
987.0
995.0
1004.0
1017.0
1029.0
1040.0
1053.0
1063.0
1072.0
1078.0
1087.0
1093.0
1103.0
1110.0
1118.0
1123.0
1126.0
1132.0
1135.0
1141.0
1148.0
1151.0
1155.0
1156.0
1156.0
1153.0
1150.0
1148.0
1149.0
1144.0
1147.0
1146.0
1144.0
1139.0
1136.0
1129.0
1122.0
1119.0
1113.0
1108.0
1106.0
1098.0
1091.0
1085.0
1082.0
1077.0
1073.0
1069.0
1064.0
1058.0
1049.0
1042.0
1034.0
1030.0
1025.0
1022.0
1014.0
1007.0
1002.0
996.0
990.0
987.0
987.0
986.0
985.0
981.0
981.0
979.0
978.0
980.0
982.0
981.0
988.0
988.0
989.0
984.0
983.0
985.0
994.0
1001.0
1007.0
1015.0
1020.0
1021.0
1024.0
1023.0
1023.0
1028.0
1034.0
1042.0
1042.0
1049.0
1046.0
1040.0
1032.0
1019.0
1006.0
992.0
980.0
968.0
961.0
954.0
950.0
952.0
954.0
958.0
960.0
959.0
957.0
954.0
949.0
950.0
951.0
948.0
949.0
948.0
949.0
949.0
949.0
951.0
954.0
953.0
953.0
948.0
945.0
939.0
935.0
935.0
938.0
952.0
978.0
1025.0
1077.0
1139.0
1207.0
1280.0
1343.0
1388.0
1395.0
1360.0
1296.0
1219.0
1142.0
1070.0
1006.0
949.0
901.0
863.0
831.0
809.0
794.0
792.0
806.0
827.0
850.0
871.0
881.0
884.0
877.0
871.0
863.0
861.0
859.0
864.0
867.0
867.0
864.0
857.0
852.0
846.0
843.0
842.0
842.0
848.0
848.0
850.0
851.0
849.0
845.0
846.0
849.0
853.0
858.0
861.0
865.0
866.0
866.0
868.0
872.0
878.0
881.0
885.0
887.0
886.0
885.0
887.0
892.0
901.0
908.0
917.0
922.0
928.0
929.0
928.0
932.0
935.0
942.0
950.0
961.0
968.0
973.0
982.0
990.0
996.0
999.0
1002.0
1009.0
1015.0
1016.0
1017.0
1019.0
1022.0
1025.0
1039.0
1051.0
1057.0
1063.0
1061.0
1061.0
1061.0
1061.0
1061.0
1068.0
1070.0
1072.0
1069.0
1064.0
1059.0
1055.0
1049.0
1050.0
1050.0
1049.0
1045.0
1038.0
1029.0
1021.0
1015.0
1012.0
1009.0
1006.0
1001.0
997.0
987.0
978.0
972.0
967.0
965.0
964.0
962.0
956.0
946.0
935.0
926.0
917.0
914.0
911.0
907.0
903.0
902.0
895.0
892.0
890.0
890.0
891.0
890.0
885.0
883.0
882.0
882.0
884.0
885.0
888.0
894.0
899.0
899.0
902.0
900.0
896.0
895.0
895.0
897.0
903.0
906.0
912.0
916.0
924.0
931.0
936.0
941.0
946.0
949.0
954.0
955.0
956.0
961.0
961.0
962.0
957.0
949.0
938.0
917.0
903.0
892.0
884.0
881.0
882.0
882.0
882.0
883.0
882.0
880.0
883.0
881.0
881.0
879.0
878.0
875.0
877.0
877.0
880.0
883.0
885.0
888.0
888.0
885.0
881.0
877.0
874.0
869.0
866.0
862.0
866.0
885.0
921.0
977.0
1051.0
1138.0
1229.0
1312.0
1373.0
1397.0
1376.0
1317.0
1238.0
1149.0
1062.0
981.0
907.0
843.0
793.0
754.0
727.0
722.0
731.0
751.0
777.0
798.0
815.0
824.0
822.0
819.0
813.0
809.0
805.0
802.0
803.0
805.0
807.0
810.0
809.0
807.0
804.0
801.0
799.0
797.0
800.0
802.0
803.0
807.0
804.0
807.0
806.0
808.0
811.0
812.0
814.0
817.0
821.0
821.0
826.0
828.0
833.0
842.0
846.0
851.0
852.0
856.0
859.0
861.0
863.0
869.0
874.0
881.0
888.0
896.0
899.0
904.0
912.0
920.0
927.0
932.0
934.0
939.0
943.0
951.0
958.0
966.0
973.0
978.0
984.0
987.0
990.0
994.0
997.0
1001.0
1005.0
1008.0
1008.0
1012.0
1012.0
1010.0
1009.0
1010.0
1008.0
1006.0
1003.0
996.0
994.0
992.0
988.0
986.0
984.0
976.0
968.0
959.0
951.0
946.0
936.0
934.0
929.0
925.0
922.0
917.0
913.0
906.0
901.0
896.0
892.0
889.0
885.0
880.0
879.0
876.0
875.0
877.0
878.0
878.0
878.0
874.0
869.0
867.0
865.0
866.0
869.0
875.0
878.0
875.0
878.0
877.0
878.0
880.0
886.0
891.0
896.0
901.0
909.0
913.0
919.0
923.0
929.0
935.0
941.0
943.0
943.0
942.0
943.0
937.0
934.0
932.0
926.0
916.0
907.0
898.0
889.0
880.0
872.0
863.0
858.0
850.0
845.0
839.0
835.0
840.0
848.0
869.0
897.0
930.0
967.0
1003.0
1039.0
1076.0
1115.0
1163.0
1213.0
1262.0
1308.0
1346.0
1376.0
1399.0
1415.0
1430.0
1443.0
1451.0
1453.0
1450.0
1448.0
1444.0
1445.0
1443.0
1440.0
1441.0
1446.0
1448.0
1445.0
1433.0
1413.0
1379.0
1336.0
1284.0
1222.0
1148.0
1072.0
996.0
925.0
859.0
800.0
756.0
735.0
728.0
731.0
735.0
737.0
733.0
727.0
718.0
710.0
704.0
698.0
697.0
695.0
693.0
688.0
686.0
681.0
676.0
676.0
671.0
662.0
660.0
653.0
644.0
641.0
637.0
638.0
636.0
636.0
633.0
628.0
625.0
618.0
613.0
611.0
613.0
614.0
612.0
615.0
614.0
613.0
616.0
618.0
622.0
626.0
630.0
631.0
633.0
639.0
647.0
656.0
671.0
683.0
695.0
706.0
715.0
725.0
735.0
746.0
759.0
770.0
782.0
792.0
802.0
813.0
823.0
836.0
849.0
861.0
871.0
882.0
889.0
898.0
906.0
917.0
928.0
938.0
943.0
945.0
944.0
944.0
946.0
947.0
950.0
952.0
954.0
952.0
950.0
949.0
949.0
948.0
947.0
942.0
939.0
935.0
930.0
926.0
927.0
927.0
926.0
926.0
923.0
918.0
912.0
910.0
905.0
907.0
908.0
907.0
908.0
910.0
913.0
915.0
917.0
921.0
921.0
926.0
924.0
923.0
921.0
922.0
926.0
928.0
937.0
944.0
952.0
956.0
962.0
966.0
969.0
973.0
978.0
984.0
987.0
990.0
992.0
990.0
991.0
989.0
982.0
971.0
957.0
945.0
929.0
923.0
919.0
920.0
921.0
920.0
923.0
920.0
920.0
918.0
918.0
917.0
917.0
919.0
915.0
917.0
919.0
920.0
924.0
928.0
928.0
927.0
924.0
920.0
916.0
913.0
910.0
910.0
913.0
923.0
952.0
996.0
1052.0
1121.0
1193.0
1268.0
1337.0
1393.0
1422.0
1418.0
1382.0
1321.0
1244.0
1157.0
1068.0
986.0
915.0
860.0
820.0
803.0
805.0
821.0
848.0
874.0
893.0
902.0
901.0
896.0
887.0
881.0
878.0
878.0
880.0
879.0
876.0
877.0
876.0
878.0
874.0
875.0
872.0
871.0
867.0
865.0
864.0
866.0
868.0
870.0
872.0
872.0
870.0
870.0
867.0
867.0
867.0
874.0
875.0
881.0
884.0
887.0
888.0
891.0
893.0
900.0
903.0
907.0
911.0
917.0
925.0
931.0
938.0
947.0
957.0
964.0
972.0
979.0
984.0
992.0
997.0
1008.0
1019.0
1030.0
1042.0
1052.0
1061.0
1067.0
1073.0
1080.0
1087.0
1095.0
1100.0
1109.0
1116.0
1122.0
1129.0
1133.0
1137.0
1145.0
1149.0
1152.0
1152.0
1151.0
1152.0
1151.0
1151.0
1152.0
1153.0
1151.0
1151.0
1146.0
1141.0
1132.0
1130.0
1123.0
1119.0
1115.0
1109.0
1102.0
1096.0
1093.0
1085.0
1084.0
1078.0
1073.0
1068.0
1060.0
1051.0
1045.0
1038.0
1035.0
1031.0
1031.0
1025.0
1021.0
1016.0
1009.0
1004.0
1002.0
1000.0
1001.0
1000.0
998.0
999.0
993.0
994.0
995.0
996.0
995.0
995.0
992.0
992.0
993.0
994.0
997.0
1005.0
1015.0
1021.0
1027.0
1031.0
1032.0
1033.0
1034.0
1038.0
1043.0
1049.0
1054.0
1059.0
1060.0
1057.0
1054.0
1047.0
1040.0
1031.0
1023.0
1015.0
1011.0
1005.0
1002.0
1000.0
1004.0
1018.0
1037.0
1066.0
1098.0
1131.0
1169.0
1215.0
1264.0
1315.0
1363.0
1400.0
1431.0
1451.0
1463.0
1474.0
1487.0
1497.0
1503.0
1506.0
1505.0
1496.0
1486.0
1472.0
1464.0
1461.0
1456.0
1453.0
1447.0
1435.0
1417.0
1389.0
1357.0
1315.0
1268.0
1218.0
1166.0
1110.0
1059.0
1011.0
970.0
938.0
909.0
886.0
868.0
851.0
837.0
826.0
826.0
822.0
824.0
823.0
824.0
821.0
816.0
808.0
801.0
794.0
789.0
788.0
786.0
785.0
784.0
781.0
776.0
773.0
767.0
762.0
759.0
756.0
756.0
756.0
755.0
752.0
749.0
748.0
747.0
747.0
746.0
747.0
750.0
751.0
752.0
758.0
764.0
770.0
775.0
778.0
779.0
782.0
786.0
793.0
801.0
810.0
817.0
830.0
837.0
845.0
851.0
859.0
871.0
879.0
889.0
895.0
902.0
913.0
923.0
933.0
945.0
956.0
965.0
971.0
980.0
982.0
982.0
984.0
988.0
991.0
994.0
996.0
997.0
999.0
997.0
995.0
991.0
995.0
992.0
990.0
987.0
983.0
982.0
982.0
982.0
982.0
982.0
975.0
969.0
961.0
953.0
951.0
948.0
948.0
949.0
948.0
949.0
942.0
941.0
935.0
930.0
926.0
923.0
922.0
927.0
926.0
928.0
932.0
933.0
934.0
935.0
935.0
932.0
928.0
927.0
925.0
924.0
931.0
933.0
936.0
936.0
938.0
937.0
934.0
935.0
937.0
939.0
937.0
939.0
935.0
935.0
933.0
937.0
943.0
954.0
964.0
969.0
977.0
973.0
974.0
978.0
984.0
990.0
998.0
1003.0
1000.0
994.0
985.0
975.0
963.0
953.0
943.0
936.0
930.0
926.0
920.0
916.0
914.0
912.0
909.0
910.0
909.0
909.0
908.0
908.0
910.0
908.0
912.0
915.0
913.0
912.0
909.0
905.0
903.0
903.0
906.0
909.0
910.0
909.0
903.0
897.0
891.0
895.0
907.0
935.0
978.0
1030.0
1091.0
1159.0
1232.0
1306.0
1363.0
1392.0
1386.0
1338.0
1267.0
1180.0
1092.0
1003.0
925.0
859.0
809.0
779.0
760.0
752.0
754.0
764.0
779.0
798.0
817.0
834.0
842.0
847.0
849.0
846.0
843.0
840.0
841.0
843.0
842.0
845.0
844.0
838.0
834.0
833.0
832.0
833.0
837.0
839.0
841.0
841.0
843.0
840.0
841.0
840.0
841.0
843.0
846.0
851.0
853.0
858.0
861.0
867.0
869.0
872.0
877.0
881.0
883.0
884.0
889.0
893.0
901.0
909.0
918.0
923.0
928.0
929.0
929.0
933.0
935.0
940.0
948.0
955.0
966.0
974.0
978.0
985.0
989.0
993.0
998.0
1002.0
1008.0
1011.0
1018.0
1022.0
1030.0
1037.0
1043.0
1049.0
1054.0
1053.0
1056.0
1058.0
1058.0
1060.0
1064.0
1069.0
1072.0
1073.0
1074.0
1071.0
1068.0
1065.0
1061.0
1059.0
1056.0
1055.0
1051.0
1046.0
1041.0
1034.0
1029.0
1022.0
1014.0
1009.0
999.0
993.0
982.0
972.0
965.0
957.0
953.0
947.0
942.0
939.0
929.0
920.0
915.0
909.0
905.0
904.0
902.0
902.0
902.0
899.0
898.0
893.0
892.0
891.0
891.0
892.0
892.0
893.0
893.0
895.0
893.0
898.0
901.0
902.0
902.0
903.0
900.0
896.0
894.0
894.0
898.0
904.0
911.0
919.0
926.0
929.0
934.0
935.0
937.0
938.0
943.0
946.0
947.0
948.0
942.0
943.0
942.0
940.0
932.0
920.0
905.0
891.0
877.0
868.0
865.0
865.0
866.0
868.0
869.0
868.0
865.0
863.0
860.0
859.0
860.0
861.0
861.0
861.0
861.0
864.0
861.0
863.0
863.0
861.0
861.0
858.0
853.0
850.0
844.0
841.0
838.0
844.0
857.0
886.0
931.0
987.0
1059.0
1141.0
1226.0
1300.0
1352.0
1365.0
1342.0
1289.0
1217.0
1141.0
1069.0
997.0
935.0
877.0
822.0
775.0
741.0
722.0
729.0
750.0
780.0
805.0
821.0
825.0
819.0
809.0
802.0
799.0
798.0
800.0
801.0
801.0
802.0
799.0
796.0
793.0
791.0
792.0
791.0
790.0
790.0
788.0
787.0
789.0
791.0
792.0
794.0
790.0
791.0
789.0
786.0
787.0
790.0
794.0
799.0
803.0
805.0
806.0
809.0
809.0
812.0
818.0
823.0
827.0
833.0
837.0
839.0
847.0
853.0
860.0
867.0
878.0
881.0
885.0
890.0
896.0
904.0
913.0
923.0
931.0
938.0
944.0
947.0
952.0
957.0
963.0
972.0
978.0
986.0
987.0
990.0
994.0
997.0
1002.0
1009.0
1013.0
1015.0
1013.0
1013.0
1015.0
1014.0
1014.0
1014.0
1015.0
1015.0
1016.0
1011.0
1002.0
999.0
994.0
989.0
988.0
988.0
983.0
977.0
974.0
968.0
960.0
954.0
951.0
947.0
946.0
941.0
936.0
931.0
925.0
919.0
917.0
918.0
918.0
915.0
913.0
908.0
903.0
898.0
899.0
900.0
901.0
905.0
909.0
906.0
903.0
900.0
901.0
902.0
906.0
914.0
920.0
926.0
934.0
941.0
943.0
947.0
951.0
953.0
957.0
958.0
960.0
963.0
962.0
956.0
954.0
950.0
947.0
938.0
926.0
913.0
901.0
892.0
885.0
878.0
879.0
882.0
883.0
888.0
885.0
883.0
881.0
877.0
877.0
880.0
881.0
884.0
882.0
880.0
882.0
883.0
883.0
882.0
885.0
886.0
887.0
885.0
881.0
876.0
872.0
867.0
867.0
871.0
882.0
908.0
953.0
1011.0
1084.0
1165.0
1251.0
1330.0
1386.0
1410.0
1393.0
1349.0
1284.0
1206.0
1128.0
1045.0
968.0
902.0
848.0
806.0
781.0
773.0
783.0
805.0
830.0
848.0
858.0
858.0
851.0
843.0
833.0
828.0
828.0
832.0
835.0
839.0
837.0
840.0
838.0
837.0
837.0
837.0
834.0
832.0
832.0
832.0
834.0
834.0
837.0
836.0
840.0
840.0
838.0
839.0
840.0
842.0
847.0
852.0
856.0
861.0
864.0
868.0
872.0
875.0
878.0
881.0
888.0
894.0
902.0
910.0
918.0
923.0
934.0
940.0
949.0
956.0
962.0
967.0
972.0
980.0
984.0
996.0
1007.0
1017.0
1024.0
1030.0
1036.0
1039.0
1043.0
1047.0
1054.0
1061.0
1065.0
1073.0
1077.0
1078.0
1081.0
1081.0
1085.0
1086.0
1087.0
1085.0
1087.0
1083.0
1080.0
1078.0
1075.0
1070.0
1071.0
1070.0
1065.0
1060.0
1053.0
1043.0
1037.0
1031.0
1029.0
1028.0
1024.0
1021.0
1013.0
1007.0
1000.0
993.0
987.0
985.0
979.0
974.0
967.0
961.0
953.0
946.0
943.0
936.0
934.0
930.0
922.0
917.0
913.0
906.0
903.0
901.0
898.0
901.0
901.0
902.0
902.0
902.0
903.0
901.0
901.0
898.0
900.0
902.0
908.0
915.0
925.0
934.0
939.0
946.0
947.0
952.0
953.0
955.0
961.0
967.0
970.0
966.0
962.0
950.0
941.0
929.0
918.0
910.0
906.0
899.0
894.0
888.0
885.0
887.0
889.0
891.0
892.0
893.0
888.0
885.0
886.0
882.0
883.0
885.0
887.0
890.0
892.0
893.0
892.0
892.0
890.0
889.0
886.0
886.0
880.0
874.0
873.0
881.0
911.0
958.0
1018.0
1083.0
1151.0
1219.0
1283.0
1339.0
1368.0
1362.0
1313.0
1234.0
1141.0
1039.0
948.0
870.0
811.0
771.0
748.0
738.0
738.0
753.0
775.0
798.0
824.0
842.0
847.0
845.0
836.0
827.0
818.0
815.0
815.0
818.0
820.0
821.0
821.0
821.0
821.0
819.0
818.0
816.0
815.0
814.0
809.0
807.0
810.0
811.0
819.0
825.0
832.0
835.0
835.0
833.0
830.0
828.0
833.0
840.0
847.0
852.0
857.0
859.0
863.0
865.0
867.0
874.0
880.0
887.0
891.0
896.0
899.0
905.0
913.0
922.0
930.0
940.0
943.0
948.0
952.0
952.0
960.0
969.0
977.0
984.0
991.0
996.0
998.0
999.0
1001.0
1002.0
1005.0
1010.0
1016.0
1019.0
1023.0
1025.0
1029.0
1030.0
1031.0
1033.0
1033.0
1028.0
1023.0
1013.0
1008.0
1009.0
1006.0
1000.0
1002.0
996.0
989.0
983.0
977.0
968.0
963.0
959.0
953.0
950.0
944.0
938.0
930.0
921.0
918.0
914.0
910.0
906.0
903.0
898.0
890.0
882.0
876.0
873.0
872.0
869.0
868.0
866.0
861.0
855.0
853.0
854.0
857.0
861.0
864.0
863.0
861.0
859.0
855.0
852.0
853.0
856.0
859.0
864.0
866.0
870.0
872.0
876.0
885.0
890.0
894.0
899.0
901.0
901.0
904.0
909.0
917.0
921.0
922.0
922.0
916.0
905.0
895.0
888.0
881.0
874.0
870.0
866.0
858.0
851.0
847.0
842.0
844.0
847.0
848.0
848.0
845.0
847.0
843.0
844.0
842.0
843.0
845.0
846.0
850.0
852.0
852.0
852.0
849.0
848.0
849.0
850.0
848.0
844.0
841.0
838.0
837.0
858.0
894.0
950.0
1017.0
1084.0
1157.0
1225.0
1287.0
1338.0
1366.0
1359.0
1318.0
1247.0
1167.0
1073.0
979.0
893.0
821.0
765.0
728.0
713.0
709.0
717.0
735.0
756.0
775.0
788.0
799.0
799.0
799.0
795.0
787.0
783.0
780.0
776.0
780.0
783.0
783.0
781.0
783.0
781.0
778.0
775.0
777.0
778.0
780.0
783.0
785.0
784.0
784.0
786.0
785.0
786.0
788.0
787.0
788.0
790.0
793.0
798.0
802.0
806.0
812.0
812.0
814.0
814.0
816.0
821.0
823.0
831.0
835.0
845.0
850.0
852.0
855.0
857.0
859.0
868.0
871.0
