# Simple Text Format
# Sampling Rate (Hz):= 360.00
# Resolution:= 12
# Labels:= ECG
1119.0
1119.0
1119.0
1117.0
1117.0
1114.0
1111.0
1108.0
1105.0
1100.0
1099.0
1096.0
1093.0
1088.0
1084.0
1077.0
1072.0
1069.0
1063.0
1066.0
1062.0
1062.0
1058.0
1054.0
1045.0
1039.0
1034.0
1032.0
1032.0
1034.0
1035.0
1037.0
1035.0
1032.0
1031.0
1030.0
1030.0
1030.0
1032.0
1032.0
1033.0
1035.0
1037.0
1044.0
1050.0
1057.0
1062.0
1066.0
1066.0
1065.0
1064.0
1066.0
1071.0
1075.0
1080.0
1080.0
1081.0
1074.0
1066.0
1053.0
1041.0
1032.0
1022.0
1014.0
1008.0
1005.0
998.0
997.0
1000.0
1002.0
1001.0
1005.0
1005.0
1006.0
1004.0
1004.0
1004.0
1001.0
1004.0
1005.0
1007.0
1007.0
1006.0
1004.0
1003.0
1003.0
1003.0
1003.0
1002.0
998.0
993.0
990.0
989.0
1001.0
1027.0
1068.0
1124.0
1186.0
1253.0
1327.0
1399.0
1465.0
1509.0
1524.0
1501.0
1449.0
1376.0
1292.0
1206.0
1125.0
1048.0
983.0
932.0
906.0
902.0
918.0
943.0
969.0
984.0
988.0
985.0
977.0
970.0
961.0
958.0
954.0
960.0
963.0
969.0
973.0
976.0
972.0
969.0
964.0
964.0
962.0
966.0
971.0
973.0
975.0
978.0
977.0
976.0
977.0
980.0
984.0
984.0
986.0
988.0
992.0
995.0
1003.0
1011.0
1018.0
1022.0
1024.0
1029.0
1029.0
1033.0
1038.0
1046.0
1058.0
1069.0
1081.0
1088.0
1094.0
1099.0
1104.0
1110.0
1119.0
1128.0
1138.0
1145.0
1153.0
1159.0
1164.0
1169.0
1178.0
1186.0
1191.0
1200.0
1204.0
1207.0
1210.0
1219.0
1224.0
1232.0
1238.0
1237.0
1239.0
1239.0
1236.0
1237.0
1239.0
1237.0
1235.0
1234.0
1227.0
1225.0
1223.0
1220.0
1218.0
1216.0
1209.0
1199.0
1190.0
1187.0
1181.0
1179.0
1177.0
1176.0
1172.0
1164.0
1154.0
1146.0
1138.0
1133.0
1125.0
1118.0
1108.0
1101.0
1095.0
1090.0
1087.0
1084.0
1080.0
1074.0
1065.0
1057.0
1054.0
1054.0
1053.0
1053.0
1055.0
1055.0
1055.0
1054.0
1051.0
1052.0
1051.0
1053.0
1054.0
1056.0
1058.0
1063.0
1067.0
1071.0
1080.0
1089.0
1097.0
1102.0
1103.0
1103.0
1103.0
1099.0
1095.0
1095.0
1099.0
1106.0
1114.0
1122.0
1136.0
1152.0
1173.0
1201.0
1233.0
1271.0
1316.0
1366.0
1414.0
1457.0
1497.0
1526.0
1550.0
1563.0
1576.0
1584.0
1588.0
1590.0
1583.0
1580.0
1573.0
1564.0
1558.0
1551.0
1546.0
1541.0
1529.0
1521.0
1505.0
1482.0
1449.0
1405.0
1351.0
1289.0
1227.0
1170.0
1113.0
1065.0
1021.0
984.0
952.0
922.0
896.0
877.0
861.0
851.0
844.0
839.0
837.0
831.0
825.0
816.0
808.0
802.0
798.0
797.0
793.0
787.0
784.0
779.0
774.0
767.0
761.0
756.0
758.0
751.0
744.0
739.0
733.0
731.0
731.0
730.0
730.0
728.0
723.0
720.0
716.0
714.0
714.0
715.0
720.0
722.0
725.0
728.0
729.0
733.0
737.0
742.0
746.0
751.0
753.0
764.0
771.0
780.0
788.0
797.0
809.0
818.0
824.0
831.0
835.0
847.0
857.0
871.0
888.0
901.0
913.0
920.0
929.0
935.0
943.0
952.0
960.0
965.0
969.0
972.0
973.0
979.0
985.0
987.0
993.0
997.0
1001.0
1001.0
998.0
996.0
994.0
993.0
994.0
997.0
999.0
1001.0
998.0
995.0
991.0
987.0
986.0
984.0
983.0
983.0
985.0
980.0
980.0
976.0
972.0
970.0
970.0
966.0
967.0
968.0
966.0
964.0
961.0
962.0
964.0
966.0
966.0
969.0
968.0
967.0
964.0
961.0
961.0
964.0
969.0
968.0
970.0
973.0
973.0
973.0
970.0
971.0
971.0
971.0
972.0
972.0
971.0
971.0
971.0
972.0
973.0
977.0
977.0
976.0
977.0
976.0
974.0
972.0
973.0
977.0
982.0
984.0
985.0
984.0
983.0
985.0
989.0
994.0
1000.0
1008.0
1016.0
1020.0
1020.0
1022.0
1025.0
1029.0
1030.0
1033.0
1033.0
1026.0
1023.0
1015.0
1001.0
990.0
979.0
970.0
961.0
957.0
954.0
950.0
949.0
948.0
952.0
953.0
955.0
956.0
954.0
954.0
953.0
952.0
952.0
952.0
951.0
950.0
949.0
945.0
946.0
944.0
946.0
943.0
940.0
934.0
924.0
914.0
915.0
927.0
960.0
1011.0
1081.0
1158.0
1248.0
1334.0
1412.0
1466.0
1489.0
1477.0
1432.0
1366.0
1286.0
1198.0
1112.0
1027.0
951.0
880.0
828.0
797.0
796.0
814.0
840.0
865.0
885.0
896.0
900.0
899.0
895.0
888.0
881.0
879.0
878.0
877.0
880.0
880.0
881.0
878.0
879.0
876.0
874.0
873.0
872.0
873.0
872.0
873.0
871.0
869.0
867.0
870.0
874.0
876.0
878.0
879.0
878.0
877.0
877.0
878.0
880.0
881.0
883.0
887.0
890.0
891.0
897.0
901.0
906.0
911.0
913.0
916.0
916.0
920.0
924.0
931.0
938.0
947.0
955.0
961.0
965.0
971.0
974.0
982.0
989.0
996.0
1006.0
1013.0
1020.0
1027.0
1033.0
1040.0
1051.0
1060.0
1067.0
1069.0
1075.0
1079.0
1084.0
1090.0
1097.0
1103.0
1110.0
1111.0
1114.0
1113.0
1114.0
1115.0
1115.0
1115.0
1112.0
1111.0
1106.0
1105.0
1102.0
1098.0
1095.0
1089.0
1085.0
1079.0
1072.0
1062.0
1054.0
1047.0
1044.0
1042.0
1036.0
1032.0
1028.0
1023.0
1018.0
1013.0
1010.0
1009.0
1009.0
1011.0
1009.0
1005.0
1006.0
1007.0
1010.0
1011.0
1012.0
1012.0
1011.0
1007.0
1007.0
1009.0
1012.0
1013.0
1023.0
1031.0
1037.0
1039.0
1041.0
1038.0
1039.0
1042.0
1044.0
1048.0
1049.0
1051.0
1051.0
1046.0
1042.0
1036.0
1025.0
1016.0
1001.0
989.0
977.0
966.0
959.0
957.0
961.0
962.0
963.0
958.0
957.0
954.0
953.0
955.0
956.0
955.0
957.0
956.0
956.0
956.0
953.0
957.0
958.0
956.0
952.0
947.0
943.0
936.0
929.0
932.0
940.0
957.0
989.0
1034.0
1094.0
1165.0
1245.0
1332.0
1411.0
1467.0
1485.0
1466.0
1418.0
1350.0
1268.0
1190.0
1115.0
1042.0
972.0
908.0
861.0
842.0
846.0
870.0
902.0
927.0
941.0
939.0
930.0
919.0
907.0
902.0
900.0
902.0
904.0
906.0
907.0
902.0
903.0
899.0
897.0
896.0
898.0
895.0
894.0
890.0
888.0
889.0
890.0
894.0
894.0
895.0
892.0
887.0
886.0
885.0
887.0
889.0
894.0
893.0
894.0
896.0
897.0
898.0
897.0
901.0
904.0
908.0
912.0
916.0
920.0
925.0
933.0
943.0
950.0
957.0
963.0
965.0
965.0
971.0
978.0
990.0
1000.0
1011.0
1020.0
1028.0
1038.0
1043.0
1049.0
1058.0
1066.0
1072.0
1075.0
1082.0
1087.0
1091.0
1097.0
1105.0
1113.0
1119.0
1123.0
1123.0
1119.0
1117.0
1116.0
1119.0
1121.0
1126.0
1129.0
1126.0
1125.0
1121.0
1118.0
1116.0
1115.0
1112.0
1109.0
1106.0
1100.0
1093.0
1091.0
1086.0
1082.0
1078.0
1073.0
1070.0
1063.0
1055.0
1051.0
1047.0
1043.0
1040.0
1040.0
1037.0
1033.0
1029.0
1027.0
1020.0
1018.0
1021.0
1023.0
1026.0
1024.0
1025.0
1028.0
1026.0
1027.0
1029.0
1035.0
1039.0
1042.0
1045.0
1046.0
1048.0
1058.0
1067.0
1075.0
1088.0
1095.0
1101.0
1099.0
1102.0
1100.0
1103.0
1105.0
1107.0
1107.0
1104.0
1098.0
1090.0
1078.0
1067.0
1057.0
1050.0
1044.0
1040.0
1040.0
1039.0
1042.0
1043.0
1049.0
1050.0
1054.0
1054.0
1053.0
1051.0
1048.0
1046.0
1046.0
1049.0
1053.0
1057.0
1060.0
1058.0
1060.0
1057.0
1055.0
1053.0
1050.0
1048.0
1043.0
1043.0
1048.0
1060.0
1087.0
1127.0
1183.0
1252.0
1331.0
1410.0
1477.0
1523.0
1538.0
1519.0
1470.0
1404.0
1333.0
1257.0
1179.0
1108.0
1044.0
988.0
944.0
923.0
921.0
935.0
959.0
985.0
1005.0
1015.0
1013.0
1015.0
1008.0
1003.0
996.0
995.0
994.0
992.0
994.0
992.0
995.0
995.0
995.0
993.0
989.0
983.0
981.0
977.0
978.0
979.0
981.0
983.0
982.0
980.0
979.0
980.0
982.0
988.0
993.0
994.0
997.0
997.0
999.0
998.0
1000.0
1005.0
1011.0
1018.0
1021.0
1023.0
1020.0
1024.0
1027.0
1036.0
1045.0
1054.0
1061.0
1066.0
1070.0
1075.0
1072.0
1076.0
1082.0
1093.0
1101.0
1110.0
1118.0
1121.0
1126.0
1136.0
1140.0
1143.0
1150.0
1155.0
1163.0
1165.0
1165.0
1169.0
1169.0
1170.0
1177.0
1183.0
1187.0
1188.0
1187.0
1187.0
1183.0
1181.0
1180.0
1181.0
1184.0
1182.0
1181.0
1179.0
1176.0
1170.0
1163.0
1157.0
1150.0
1143.0
1136.0
1130.0
1125.0
1118.0
1114.0
1112.0
1111.0
1109.0
1108.0
1103.0
1097.0
1087.0
1077.0
1071.0
1064.0
1060.0
1055.0
1047.0
1042.0
1033.0
1029.0
1023.0
1019.0
1015.0
1012.0
1011.0
1008.0
1003.0
1000.0
999.0
1002.0
1002.0
1005.0
1007.0
1004.0
1003.0
1003.0
1002.0
1005.0
1004.0
1006.0
1009.0
1012.0
1014.0
1017.0
1019.0
1022.0
1028.0
1036.0
1043.0
1049.0
1052.0
1054.0
1058.0
1061.0
1067.0
1067.0
1066.0
1060.0
1050.0
1038.0
1028.0
1013.0
1003.0
997.0
994.0
991.0
986.0
987.0
983.0
977.0
976.0
979.0
980.0
982.0
981.0
982.0
983.0
980.0
979.0
980.0
980.0
984.0
985.0
984.0
981.0
980.0
979.0
978.0
978.0
978.0
976.0
971.0
962.0
957.0
961.0
974.0
1008.0
1056.0
1116.0
1186.0
1260.0
1335.0
1403.0
1457.0
1490.0
1499.0
1480.0
1435.0
1374.0
1298.0
1214.0
1128.0
1042.0
962.0
896.0
840.0
811.0
806.0
823.0
849.0
877.0
899.0
913.0
921.0
927.0
925.0
921.0
917.0
911.0
906.0
903.0
901.0
904.0
904.0
908.0
905.0
901.0
900.0
897.0
897.0
896.0
899.0
899.0
901.0
903.0
903.0
902.0
900.0
899.0
898.0
901.0
903.0
904.0
906.0
907.0
904.0
905.0
908.0
913.0
919.0
926.0
932.0
935.0
934.0
932.0
929.0
931.0
935.0
944.0
953.0
960.0
968.0
972.0
973.0
978.0
983.0
988.0
991.0
998.0
1004.0
1008.0
1012.0
1016.0
1020.0
1028.0
1036.0
1043.0
1050.0
1055.0
1059.0
1062.0
1065.0
1069.0
1074.0
1082.0
1086.0
1088.0
1094.0
1095.0
1095.0
1094.0
1090.0
1093.0
1093.0
1091.0
1088.0
1087.0
1083.0
1079.0
1074.0
1074.0
1069.0
1065.0
1057.0
1049.0
1042.0
1036.0
1032.0
1030.0
1028.0
1025.0
1017.0
1011.0
1000.0
989.0
982.0
977.0
974.0
973.0
973.0
971.0
968.0
963.0
960.0
954.0
949.0
948.0
947.0
944.0
942.0
943.0
942.0
942.0
942.0
946.0
946.0
947.0
950.0
948.0
946.0
944.0
942.0
947.0
951.0
955.0
964.0
967.0
972.0
978.0
980.0
983.0
985.0
987.0
992.0
992.0
993.0
994.0
993.0
998.0
994.0
991.0
981.0
969.0
955.0
941.0
930.0
923.0
919.0
918.0
919.0
921.0
921.0
921.0
915.0
912.0
912.0
913.0
912.0
914.0
914.0
915.0
911.0
914.0
915.0
918.0
912.0
912.0
911.0
909.0
904.0
903.0
902.0
898.0
894.0
897.0
907.0
933.0
975.0
1031.0
1102.0
1185.0
1275.0
1358.0
1422.0
1452.0
1441.0
1405.0
1349.0
1287.0
1226.0
1153.0
1080.0
1003.0
929.0
856.0
803.0
775.0
773.0
792.0
824.0
852.0
870.0
875.0
869.0
862.0
855.0
850.0
848.0
849.0
851.0
850.0
849.0
849.0
847.0
846.0
845.0
842.0
839.0
836.0
836.0
834.0
836.0
837.0
838.0
839.0
837.0
835.0
834.0
835.0
832.0
835.0
838.0
840.0
841.0
838.0
840.0
845.0
845.0
848.0
852.0
856.0
858.0
861.0
863.0
868.0
874.0
883.0
892.0
897.0
901.0
902.0
906.0
910.0
917.0
924.0
931.0
941.0
948.0
954.0
961.0
968.0
974.0
983.0
991.0
994.0
1001.0
1008.0
1012.0
1018.0
1023.0
1032.0
1037.0
1042.0
1046.0
1049.0
1048.0
1046.0
1047.0
1049.0
1051.0
1054.0
1055.0
1051.0
1049.0
1045.0
1041.0
1037.0
1036.0
1031.0
1027.0
1023.0
1013.0
1010.0
1010.0
1006.0
1002.0
999.0
996.0
988.0
983.0
975.0
968.0
965.0
964.0
962.0
961.0
960.0
955.0
950.0
947.0
948.0
946.0
946.0
947.0
945.0
945.0
939.0
939.0
942.0
943.0
948.0
949.0
955.0
958.0
962.0
963.0
966.0
970.0
972.0
976.0
981.0
988.0
988.0
989.0
988.0
985.0
984.0
980.0
980.0
975.0
969.0
957.0
946.0
932.0
922.0
912.0
905.0
903.0
903.0
905.0
904.0
905.0
905.0
905.0
907.0
908.0
910.0
907.0
906.0
904.0
900.0
899.0
898.0
901.0
904.0
907.0
908.0
904.0
900.0
892.0
890.0
884.0
881.0
883.0
898.0
925.0
966.0
1028.0
1106.0
1197.0
1290.0
1375.0
1434.0
1462.0
1450.0
1406.0
1344.0
1273.0
1194.0
1118.0
1044.0
971.0
901.0
841.0
803.0
791.0
805.0
831.0
859.0
875.0
882.0
877.0
867.0
858.0
853.0
850.0
848.0
849.0
845.0
845.0
842.0
841.0
838.0
840.0
844.0
842.0
841.0
839.0
835.0
830.0
829.0
827.0
827.0
829.0
830.0
830.0
827.0
825.0
826.0
825.0
824.0
825.0
826.0
826.0
827.0
830.0
831.0
832.0
836.0
838.0
844.0
848.0
848.0
848.0
852.0
851.0
858.0
866.0
873.0
884.0
891.0
894.0
901.0
903.0
910.0
918.0
925.0
933.0
940.0
948.0
953.0
962.0
971.0
981.0
990.0
999.0
1007.0
1013.0
1013.0
1018.0
1023.0
1029.0
1037.0
1043.0
1048.0
1046.0
1049.0
1047.0
1045.0
1048.0
1051.0
1050.0
1050.0
1050.0
1045.0
1042.0
1040.0
1040.0
1038.0
1037.0
1032.0
1027.0
1017.0
1012.0
1009.0
1005.0
1004.0
1003.0
996.0
995.0
988.0
979.0
970.0
967.0
962.0
957.0
956.0
950.0
948.0
946.0
945.0
941.0
945.0
944.0
942.0
941.0
937.0
933.0
933.0
935.0
940.0
945.0
951.0
953.0
958.0
960.0
965.0
967.0
969.0
973.0
975.0
977.0
980.0
981.0
983.0
981.0
980.0
970.0
961.0
946.0
934.0
923.0
915.0
910.0
907.0
910.0
910.0
910.0
911.0
910.0
909.0
910.0
910.0
911.0
912.0
913.0
912.0
910.0
911.0
914.0
915.0
916.0
916.0
914.0
912.0
909.0
907.0
901.0
898.0
896.0
893.0
896.0
909.0
938.0
981.0
1046.0
1125.0
1216.0
1311.0
1394.0
1445.0
1452.0
1420.0
1362.0
1281.0
1193.0
1114.0
1043.0
976.0
911.0
858.0
822.0
818.0
832.0
855.0
877.0
893.0
894.0
887.0
878.0
869.0
864.0
861.0
858.0
861.0
858.0
861.0
860.0
860.0
858.0
859.0
854.0
849.0
844.0
842.0
841.0
844.0
844.0
848.0
847.0
846.0
844.0
842.0
840.0
839.0
841.0
842.0
839.0
840.0
842.0
845.0
850.0
854.0
859.0
861.0
861.0
861.0
864.0
869.0
879.0
888.0
900.0
908.0
917.0
920.0
930.0
934.0
945.0
957.0
968.0
979.0
987.0
998.0
1009.0
1018.0
1031.0
1040.0
1050.0
1057.0
1061.0
1066.0
1073.0
1077.0
1088.0
1096.0
1104.0
1107.0
1108.0
1104.0
1103.0
1102.0
1103.0
1103.0
1102.0
1101.0
1099.0
1103.0
1105.0
1106.0
1103.0
1104.0
1097.0
1092.0
1088.0
1081.0
1074.0
1072.0
1068.0
1065.0
1059.0
1055.0
1051.0
1048.0
1044.0
1037.0
1034.0
1028.0
1020.0
1015.0
1008.0
1004.0
1002.0
996.0
995.0
997.0
995.0
992.0
988.0
984.0
985.0
985.0
987.0
991.0
994.0
997.0
996.0
995.0
994.0
995.0
998.0
1003.0
1010.0
1021.0
1028.0
1031.0
1033.0
1036.0
1036.0
1043.0
1048.0
1052.0
1053.0
1054.0
1047.0
1040.0
1031.0
1022.0
1013.0
1005.0
997.0
990.0
982.0
975.0
969.0
967.0
965.0
967.0
970.0
974.0
974.0
974.0
972.0
969.0
969.0
969.0
970.0
969.0
969.0
969.0
967.0
967.0
967.0
968.0
967.0
968.0
969.0
971.0
968.0
962.0
959.0
963.0
982.0
1018.0
1070.0
1137.0
1211.0
1292.0
1372.0
1432.0
1473.0
1480.0
1448.0
1386.0
1304.0
1212.0
1123.0
1040.0
968.0
909.0
864.0
835.0
828.0
836.0
855.0
878.0
903.0
918.0
929.0
933.0
930.0
924.0
918.0
912.0
907.0
903.0
902.0
903.0
903.0
903.0
902.0
900.0
896.0
895.0
892.0
893.0
891.0
891.0
889.0
890.0
891.0
891.0
897.0
899.0
902.0
904.0
903.0
903.0
900.0
901.0
902.0
906.0
914.0
919.0
925.0
931.0
932.0
935.0
938.0
943.0
948.0
954.0
963.0
968.0
972.0
978.0
986.0
998.0
1004.0
1014.0
1016.0
1020.0
1021.0
1023.0
1028.0
1034.0
1041.0
1056.0
1065.0
1074.0
1080.0
1083.0
1088.0
1091.0
1096.0
1098.0
1101.0
1100.0
1100.0
1099.0
1104.0
1106.0
1106.0
1104.0
1103.0
1098.0
1094.0
1088.0
1083.0
1079.0
1074.0
1070.0
1066.0
1059.0
1057.0
1055.0
1051.0
1046.0
1041.0
1036.0
1025.0
1020.0
1013.0
1009.0
1005.0
1000.0
998.0
991.0
979.0
972.0
966.0
961.0
954.0
953.0
951.0
947.0
946.0
943.0
939.0
934.0
933.0
931.0
932.0
934.0
934.0
930.0
934.0
933.0
934.0
935.0
939.0
942.0
941.0
940.0
938.0
935.0
934.0
932.0
934.0
944.0
953.0
960.0
966.0
972.0
976.0
983.0
989.0
994.0
997.0
997.0
998.0
998.0
997.0
999.0
997.0
990.0
981.0
966.0
949.0
934.0
926.0
921.0
925.0
928.0
927.0
930.0
925.0
920.0
910.0
900.0
894.0
890.0
893.0
902.0
921.0
952.0
986.0
1032.0
1081.0
1128.0
1174.0
1219.0
1262.0
1299.0
1333.0
1367.0
1395.0
1419.0
1437.0
1453.0
1465.0
1486.0
1502.0
1514.0
1527.0
1536.0
1543.0
1541.0
1541.0
1533.0
1518.0
1490.0
1443.0
1376.0
1293.0
1195.0
1090.0
985.0
895.0
829.0
800.0
794.0
808.0
821.0
829.0
826.0
813.0
798.0
783.0
773.0
766.0
767.0
765.0
764.0
762.0
759.0
753.0
749.0
744.0
742.0
736.0
734.0
729.0
719.0
713.0
711.0
708.0
708.0
706.0
702.0
698.0
693.0
687.0
682.0
676.0
671.0
673.0
673.0
673.0
673.0
664.0
661.0
659.0
658.0
659.0
661.0
662.0
659.0
659.0
662.0
663.0
670.0
673.0
685.0
692.0
697.0
701.0
704.0
706.0
712.0
719.0
726.0
736.0
748.0
754.0
762.0
767.0
777.0
785.0
792.0
801.0
813.0
822.0
829.0
838.0
846.0
853.0
859.0
867.0
875.0
882.0
887.0
889.0
893.0
898.0
904.0
907.0
912.0
917.0
918.0
918.0
916.0
911.0
909.0
903.0
904.0
905.0
903.0
903.0
899.0
896.0
891.0
888.0
883.0
880.0
877.0
872.0
866.0
863.0
863.0
858.0
857.0
854.0
851.0
850.0
847.0
842.0
837.0
833.0
829.0
833.0
835.0
839.0
843.0
845.0
843.0
841.0
838.0
834.0
839.0
840.0
844.0
846.0
846.0
850.0
853.0
854.0
858.0
864.0
869.0
874.0
876.0
876.0
878.0
881.0
881.0
889.0
893.0
899.0
899.0
899.0
896.0
885.0
876.0
865.0
855.0
849.0
844.0
838.0
832.0
828.0
825.0
820.0
822.0
824.0
824.0
822.0
822.0
821.0
820.0
819.0
823.0
827.0
829.0
830.0
831.0
828.0
826.0
826.0
824.0
827.0
828.0
826.0
822.0
815.0
809.0
812.0
828.0
864.0
912.0
975.0
1054.0
1143.0
1235.0
1317.0
1380.0
1406.0
1390.0
1339.0
1264.0
1172.0
1073.0
979.0
894.0
817.0
759.0
724.0
719.0
730.0
757.0
784.0
802.0
808.0
804.0
798.0
787.0
778.0
775.0
773.0
774.0
778.0
777.0
776.0
774.0
771.0
764.0
761.0
761.0
764.0
765.0
765.0
766.0
766.0
767.0
764.0
763.0
764.0
762.0
761.0
761.0
761.0
764.0
765.0
769.0
774.0
777.0
777.0
779.0
780.0
780.0
785.0
787.0
796.0
799.0
807.0
812.0
816.0
821.0
827.0
830.0
839.0
846.0
852.0
858.0
865.0
876.0
885.0
894.0
907.0
914.0
919.0
925.0
927.0
930.0
938.0
946.0
958.0
966.0
974.0
979.0
980.0
987.0
989.0
993.0
994.0
997.0
998.0
997.0
997.0
992.0
995.0
998.0
998.0
999.0
993.0
989.0
982.0
974.0
970.0
965.0
965.0
964.0
958.0
954.0
948.0
940.0
934.0
928.0
926.0
921.0
915.0
905.0
901.0
899.0
897.0
897.0
897.0
897.0
896.0
894.0
891.0
887.0
881.0
881.0
885.0
887.0
889.0
892.0
892.0
892.0
894.0
897.0
902.0
906.0
909.0
912.0
914.0
916.0
917.0
921.0
926.0
930.0
931.0
930.0
922.0
913.0
905.0
894.0
885.0
878.0
872.0
867.0
860.0
858.0
855.0
854.0
853.0
856.0
856.0
858.0
856.0
853.0
854.0
853.0
855.0
858.0
859.0
860.0
857.0
855.0
852.0
856.0
859.0
859.0
859.0
860.0
856.0
847.0
843.0
844.0
858.0
887.0
939.0
1006.0
1082.0
1177.0
1267.0
1348.0
1400.0
1415.0
1390.0
1337.0
1265.0
1185.0
1110.0
1044.0
995.0
949.0
899.0
848.0
808.0
786.0
782.0
795.0
815.0
829.0
837.0
836.0
831.0
826.0
817.0
815.0
808.0
810.0
812.0
815.0
814.0
811.0
807.0
801.0
796.0
796.0
799.0
799.0
801.0
804.0
803.0
799.0
796.0
793.0
791.0
791.0
793.0
797.0
797.0
798.0
797.0
796.0
797.0
797.0
798.0
801.0
801.0
804.0
806.0
807.0
810.0
817.0
821.0
829.0
833.0
836.0
838.0
840.0
842.0
847.0
856.0
866.0
875.0
883.0
891.0
898.0
905.0
910.0
917.0
928.0
935.0
943.0
950.0
955.0
962.0
967.0
976.0
986.0
992.0
999.0
1004.0
1007.0
1009.0
1012.0
1014.0
1021.0
1027.0
1031.0
1033.0
1038.0
1036.0
1033.0
1031.0
1031.0
1028.0
1030.0
1028.0
1027.0
1023.0
1019.0
1018.0
1015.0
1011.0
1010.0
1010.0
1007.0
1001.0
995.0
992.0
986.0
980.0
975.0
971.0
972.0
967.0
959.0
952.0
943.0
937.0
934.0
930.0
931.0
931.0
928.0
926.0
925.0
922.0
920.0
922.0
920.0
923.0
924.0
919.0
917.0
919.0
922.0
928.0
938.0
943.0
946.0
947.0
946.0
948.0
950.0
954.0
960.0
966.0
970.0
968.0
964.0
961.0
956.0
947.0
935.0
929.0
916.0
908.0
900.0
896.0
896.0
896.0
900.0
904.0
908.0
903.0
904.0
900.0
897.0
899.0
903.0
903.0
907.0
905.0
907.0
906.0
905.0
905.0
905.0
905.0
905.0
904.0
899.0
895.0
893.0
892.0
900.0
918.0
950.0
1000.0
1067.0
1151.0
1244.0
1339.0
1417.0
1460.0
1463.0
1424.0
1359.0
1281.0
1195.0
1119.0
1049.0
985.0
923.0
868.0
832.0
820.0
830.0
852.0
875.0
895.0
905.0
902.0
896.0
886.0
880.0
878.0
878.0
881.0
884.0
887.0
887.0
883.0
880.0
875.0
873.0
875.0
876.0
878.0
878.0
876.0
876.0
878.0
880.0
881.0
880.0
886.0
884.0
881.0
885.0
885.0
887.0
889.0
896.0
903.0
907.0
914.0
914.0
913.0
915.0
918.0
922.0
931.0
939.0
948.0
953.0
961.0
969.0
974.0
981.0
989.0
997.0
1004.0
1011.0
1019.0
1027.0
1036.0
1046.0
1054.0
1063.0
1070.0
1074.0
1081.0
1086.0
1094.0
1100.0
1108.0
1113.0
1121.0
1121.0
1124.0
1125.0
1128.0
1131.0
1135.0
1136.0
1139.0
1137.0
1137.0
1135.0
1131.0
1132.0
1131.0
1132.0
1129.0
1124.0
1120.0
1112.0
1104.0
1098.0
1097.0
1095.0
1094.0
1094.0
1096.0
1091.0
1086.0
1078.0
1070.0
1058.0
1050.0
1046.0
1041.0
1036.0
1030.0
1025.0
1021.0
1017.0
1011.0
1006.0
1003.0
996.0
989.0
983.0
979.0
975.0
975.0
975.0
975.0
975.0
973.0
971.0
973.0
969.0
972.0
973.0
976.0
979.0
981.0
982.0
981.0
982.0
982.0
981.0
983.0
988.0
992.0
999.0
1005.0
1014.0
1020.0
1024.0
1027.0
1029.0
1031.0
1032.0
1036.0
1043.0
1053.0
1068.0
1091.0
1120.0
1150.0
1182.0
1214.0
1249.0
1287.0
1328.0
1372.0
1413.0
1450.0
1481.0
1506.0
1528.0
1544.0
1556.0
1563.0
1565.0
1561.0
1554.0
1543.0
1532.0
1523.0
1515.0
1509.0
1505.0
1503.0
1498.0
1487.0
1470.0
1445.0
1405.0
1356.0
1298.0
1238.0
1179.0
1122.0
1072.0
1031.0
991.0
958.0
924.0
898.0
874.0
857.0
841.0
830.0
818.0
810.0
801.0
794.0
790.0
788.0
788.0
788.0
782.0
778.0
769.0
761.0
752.0
748.0
742.0
739.0
739.0
737.0
734.0
726.0
720.0
716.0
708.0
705.0
704.0
703.0
704.0
701.0
699.0
701.0
699.0
696.0
700.0
700.0
701.0
698.0
697.0
701.0
704.0
706.0
712.0
718.0
722.0
729.0
731.0
735.0
742.0
749.0
757.0
767.0
774.0
785.0
797.0
803.0
812.0
822.0
831.0
837.0
848.0
859.0
868.0
878.0
885.0
889.0
894.0
903.0
911.0
921.0
930.0
937.0
938.0
943.0
944.0
948.0
954.0
961.0
969.0
972.0
973.0
974.0
973.0
973.0
972.0
974.0
975.0
975.0
975.0
972.0
968.0
966.0
962.0
961.0
958.0
959.0
956.0
953.0
950.0
948.0
949.0
948.0
951.0
949.0
947.0
941.0
936.0
933.0
929.0
930.0
929.0
932.0
935.0
936.0
939.0
941.0
941.0
940.0
937.0
937.0
935.0
936.0
934.0
932.0
935.0
938.0
941.0
942.0
942.0
943.0
937.0
938.0
934.0
935.0
938.0
941.0
940.0
938.0
939.0
940.0
943.0
946.0
948.0
952.0
949.0
949.0
944.0
943.0
939.0
944.0
950.0
956.0
962.0
968.0
970.0
973.0
975.0
980.0
985.0
990.0
996.0
999.0
999.0
999.0
1001.0
997.0
989.0
984.0
975.0
960.0
946.0
934.0
927.0
923.0
927.0
927.0
930.0
931.0
931.0
932.0
931.0
930.0
928.0
928.0
929.0
929.0
929.0
930.0
932.0
934.0
936.0
938.0
938.0
937.0
932.0
924.0
915.0
906.0
903.0
906.0
923.0
954.0
1001.0
1062.0
1141.0
1231.0
1325.0
1406.0
1462.0
1476.0
1452.0
1399.0
1324.0
1239.0
1153.0
1071.0
992.0
914.0
843.0
790.0
765.0
762.0
785.0
816.0
844.0
866.0
878.0
880.0
877.0
871.0
864.0
862.0
860.0
861.0
859.0
857.0
856.0
853.0
853.0
851.0
852.0
852.0
850.0
849.0
849.0
847.0
849.0
855.0
856.0
857.0
855.0
852.0
848.0
849.0
848.0
856.0
861.0
863.0
867.0
868.0
867.0
867.0
870.0
874.0
878.0
879.0
882.0
884.0
888.0
890.0
896.0
903.0
909.0
914.0
915.0
918.0
920.0
923.0
923.0
930.0
934.0
941.0
952.0
957.0
961.0
966.0
970.0
973.0
979.0
986.0
990.0
995.0
999.0
1001.0
1005.0
1011.0
1018.0
1027.0
1035.0
1038.0
1040.0
1041.0
1043.0
1044.0
1048.0
1050.0
1052.0
1054.0
1049.0
1042.0
1036.0
1030.0
1026.0
1023.0
1019.0
1015.0
1009.0
1002.0
995.0
988.0
985.0
979.0
976.0
968.0
960.0
954.0
943.0
938.0
934.0
931.0
930.0
930.0
929.0
926.0
921.0
917.0
913.0
913.0
914.0
914.0
915.0
916.0
918.0
914.0
915.0
916.0
916.0
917.0
918.0
917.0
916.0
916.0
915.0
917.0
921.0
924.0
929.0
932.0
931.0
930.0
930.0
933.0
936.0
941.0
946.0
949.0
954.0
953.0
954.0
955.0
954.0
952.0
945.0
935.0
922.0
907.0
895.0
887.0
884.0
881.0
876.0
878.0
876.0
874.0
868.0
867.0
866.0
870.0
875.0
875.0
879.0
879.0
876.0
875.0
875.0
876.0
875.0
874.0
873.0
869.0
872.0
869.0
866.0
863.0
860.0
861.0
867.0
886.0
918.0
967.0
1030.0
1099.0
1173.0
1257.0
1331.0
1392.0
1419.0
1412.0
1370.0
1305.0
1224.0
1135.0
1048.0
972.0
899.0
834.0
785.0
751.0
741.0
750.0
773.0
797.0
816.0
827.0
831.0
827.0
821.0
815.0
816.0
816.0
816.0
814.0
815.0
812.0
809.0
807.0
807.0
806.0
807.0
807.0
804.0
804.0
805.0
804.0
806.0
806.0
806.0
803.0
799.0
799.0
800.0
803.0
806.0
810.0
813.0
811.0
811.0
810.0
811.0
816.0
819.0
826.0
830.0
835.0
839.0
841.0
845.0
849.0
854.0
860.0
864.0
870.0
874.0
878.0
886.0
894.0
904.0
913.0
920.0
928.0
933.0
936.0
945.0
952.0
961.0
971.0
977.0
985.0
990.0
995.0
1001.0
1009.0
1012.0
1017.0
1019.0
1020.0
1020.0
1021.0
1022.0
1026.0
1030.0
1029.0
1029.0
1025.0
1020.0
1012.0
1010.0
1008.0
1006.0
1002.0
999.0
994.0
991.0
986.0
983.0
979.0
971.0
967.0
963.0
956.0
950.0
944.0
940.0
939.0
937.0
933.0
930.0
927.0
924.0
921.0
920.0
919.0
920.0
922.0
922.0
924.0
921.0
918.0
916.0
922.0
924.0
927.0
931.0
933.0
936.0
941.0
948.0
951.0
959.0
963.0
967.0
967.0
968.0
968.0
966.0
964.0
958.0
951.0
942.0
932.0
922.0
910.0
905.0
903.0
901.0
898.0
896.0
896.0
893.0
894.0
892.0
895.0
898.0
902.0
902.0
901.0
898.0
894.0
892.0
890.0
892.0
895.0
899.0
898.0
898.0
896.0
892.0
889.0
884.0
882.0
884.0
901.0
931.0
983.0
1056.0
1146.0
1249.0
1346.0
1419.0
1454.0
1441.0
1388.0
1308.0
1216.0
1125.0
1045.0
984.0
929.0
880.0
838.0
813.0
805.0
815.0
838.0
857.0
869.0
873.0
868.0
866.0
858.0
856.0
855.0
855.0
852.0
849.0
848.0
847.0
846.0
845.0
843.0
841.0
840.0
839.0
838.0
840.0
841.0
