# Simple Text Format
# Sampling Rate (Hz):= 360.00
# Resolution:= 12
# Labels:= ECG
843.0
842.0
840.0
837.0
832.0
833.0
835.0
839.0
843.0
844.0
847.0
848.0
848.0
848.0
850.0
856.0
857.0
861.0
866.0
867.0
871.0
874.0
882.0
887.0
894.0
899.0
903.0
909.0
916.0
925.0
933.0
945.0
957.0
965.0
974.0
978.0
982.0
989.0
995.0
1005.0
1013.0
1020.0
1030.0
1036.0
1044.0
1051.0
1060.0
1065.0
1070.0
1072.0
1074.0
1076.0
1071.0
1071.0
1069.0
1072.0
1077.0
1081.0
1084.0
1079.0
1074.0
1072.0
1068.0
1067.0
1064.0
1065.0
1062.0
1057.0
1055.0
1049.0
1046.0
1045.0
1042.0
1036.0
1032.0
1026.0
1020.0
1014.0
1008.0
1003.0
1002.0
1001.0
1000.0
996.0
990.0
983.0
975.0
972.0
971.0
971.0
972.0
971.0
971.0
970.0
970.0
972.0
974.0
974.0
974.0
974.0
972.0
973.0
976.0
980.0
989.0
995.0
1005.0
1010.0
1015.0
1017.0
1018.0
1022.0
1025.0
1029.0
1029.0
1028.0
1029.0
1023.0
1018.0
1012.0
1002.0
993.0
984.0
973.0
963.0
959.0
952.0
952.0
953.0
956.0
958.0
963.0
962.0
960.0
961.0
958.0
956.0
955.0
959.0
961.0
965.0
966.0
965.0
967.0
967.0
967.0
966.0
965.0
963.0
961.0
960.0
957.0
955.0
960.0
973.0
997.0
1037.0
1089.0
1148.0
1218.0
1292.0
1364.0
1426.0
1469.0
1486.0
1470.0
1425.0
1352.0
1270.0
1181.0
1099.0
1022.0
963.0
913.0
876.0
853.0
849.0
858.0
876.0
901.0
919.0
933.0
935.0
929.0
921.0
912.0
910.0
909.0
911.0
911.0
914.0
912.0
905.0
901.0
896.0
893.0
894.0
896.0
898.0
897.0
897.0
896.0
895.0
894.0
895.0
898.0
899.0
903.0
903.0
905.0
906.0
907.0
905.0
913.0
917.0
920.0
924.0
929.0
933.0
935.0
935.0
936.0
941.0
946.0
953.0
959.0
963.0
966.0
970.0
973.0
974.0
981.0
990.0
998.0
1007.0
1016.0
1022.0
1031.0
1037.0
1043.0
1049.0
1051.0
1053.0
1056.0
1056.0
1063.0
1070.0
1079.0
1086.0
1091.0
1093.0
1095.0
1092.0
1096.0
1098.0
1099.0
1100.0
1102.0
1100.0
1098.0
1097.0
1091.0
1090.0
1088.0
1085.0
1083.0
1076.0
1070.0
1063.0
1057.0
1051.0
1049.0
1043.0
1043.0
1042.0
1039.0
1034.0
1026.0
1020.0
1010.0
1007.0
1002.0
1001.0
999.0
996.0
988.0
981.0
973.0
968.0
964.0
960.0
958.0
955.0
952.0
945.0
938.0
937.0
939.0
939.0
939.0
940.0
940.0
940.0
938.0
937.0
937.0
935.0
937.0
941.0
943.0
944.0
942.0
944.0
945.0
944.0
948.0
950.0
957.0
966.0
972.0
977.0
980.0
983.0
990.0
992.0
997.0
1000.0
1003.0
1003.0
998.0
998.0
997.0
990.0
984.0
975.0
960.0
950.0
940.0
931.0
929.0
930.0
930.0
936.0
937.0
938.0
938.0
935.0
934.0
931.0
929.0
929.0
929.0
928.0
930.0
930.0
931.0
930.0
931.0
934.0
936.0
936.0
933.0
928.0
922.0
920.0
915.0
916.0
922.0
948.0
982.0
1031.0
1089.0
1154.0
1220.0
1290.0
1355.0
1405.0
1431.0
1422.0
1382.0
1318.0
1238.0
1152.0
1065.0
989.0
922.0
868.0
823.0
799.0
795.0
805.0
824.0
844.0
862.0
873.0
880.0
879.0
874.0
871.0
866.0
864.0
866.0
867.0
867.0
864.0
864.0
864.0
861.0
862.0
862.0
859.0
858.0
857.0
853.0
852.0
854.0
856.0
858.0
861.0
863.0
862.0
861.0
860.0
858.0
859.0
862.0
866.0
869.0
874.0
879.0
881.0
884.0
885.0
888.0
891.0
894.0
898.0
900.0
904.0
909.0
913.0
922.0
928.0
934.0
937.0
939.0
942.0
942.0
948.0
954.0
961.0
970.0
977.0
984.0
989.0
993.0
996.0
1001.0
1007.0
1010.0
1018.0
1023.0
1028.0
1032.0
1036.0
1039.0
1041.0
1045.0
1049.0
1049.0
1049.0
1049.0
1046.0
1046.0
1046.0
1044.0
1048.0
1048.0
1048.0
1042.0
1036.0
1032.0
1026.0
1021.0
1015.0
1011.0
1006.0
1003.0
1001.0
999.0
994.0
989.0
984.0
980.0
972.0
967.0
961.0
959.0
953.0
950.0
947.0
945.0
946.0
945.0
942.0
938.0
936.0
933.0
931.0
933.0
933.0
934.0
934.0
935.0
938.0
936.0
934.0
932.0
930.0
929.0
928.0
931.0
933.0
936.0
937.0
943.0
947.0
950.0
956.0
961.0
963.0
968.0
969.0
971.0
972.0
974.0
980.0
986.0
990.0
989.0
983.0
977.0
968.0
957.0
947.0
938.0
932.0
927.0
923.0
914.0
910.0
906.0
899.0
900.0
899.0
900.0
903.0
903.0
901.0
902.0
903.0
903.0
905.0
903.0
905.0
905.0
904.0
900.0
901.0
902.0
902.0
905.0
905.0
902.0
898.0
892.0
893.0
907.0
935.0
983.0
1046.0
1119.0
1204.0
1290.0
1371.0
1432.0
1460.0
1455.0
1418.0
1357.0
1283.0
1204.0
1119.0
1040.0
969.0
904.0
848.0
811.0
792.0
795.0
812.0
833.0
855.0
869.0
876.0
874.0
870.0
865.0
861.0
857.0
855.0
856.0
854.0
854.0
853.0
854.0
850.0
848.0
844.0
842.0
843.0
848.0
849.0
850.0
849.0
850.0
846.0
844.0
845.0
845.0
846.0
853.0
853.0
855.0
858.0
858.0
859.0
859.0
862.0
867.0
870.0
872.0
876.0
878.0
883.0
889.0
897.0
902.0
905.0
911.0
914.0
916.0
923.0
927.0
936.0
948.0
956.0
965.0
970.0
974.0
980.0
986.0
998.0
1005.0
1014.0
1019.0
1025.0
1030.0
1036.0
1041.0
1050.0
1057.0
1062.0
1070.0
1072.0
1073.0
1076.0
1081.0
1086.0
1090.0
1091.0
1091.0
1092.0
1089.0
1085.0
1081.0
1076.0
1075.0
1073.0
1066.0
1063.0
1059.0
1055.0
1054.0
1053.0
1048.0
1045.0
1038.0
1028.0
1022.0
1016.0
1012.0
1013.0
1011.0
1010.0
1007.0
1000.0
998.0
993.0
990.0
988.0
987.0
986.0
983.0
982.0
981.0
982.0
986.0
987.0
987.0
985.0
984.0
983.0
986.0
989.0
996.0
1005.0
1016.0
1022.0
1030.0
1032.0
1037.0
1041.0
1043.0
1047.0
1048.0
1047.0
1044.0
1042.0
1038.0
1034.0
1032.0
1039.0
1052.0
1075.0
1106.0
1143.0
1192.0
1248.0
1313.0
1375.0
1433.0
1476.0
1510.0
1534.0
1551.0
1563.0
1569.0
1574.0
1574.0
1568.0
1557.0
1544.0
1531.0
1516.0
1512.0
1508.0
1502.0
1493.0
1475.0
1454.0
1422.0
1382.0
1333.0
1280.0
1224.0
1168.0
1113.0
1059.0
1006.0
957.0
917.0
888.0
862.0
842.0
824.0
813.0
804.0
801.0
799.0
798.0
797.0
794.0
791.0
781.0
776.0
773.0
765.0
762.0
759.0
760.0
757.0
757.0
753.0
748.0
741.0
736.0
730.0
728.0
727.0
723.0
726.0
727.0
727.0
726.0
727.0
726.0
728.0
729.0
731.0
731.0
731.0
733.0
739.0
748.0
758.0
767.0
773.0
779.0
781.0
784.0
790.0
795.0
809.0
821.0
833.0
844.0
856.0
866.0
878.0
890.0
903.0
912.0
921.0
930.0
938.0
949.0
958.0
970.0
980.0
989.0
995.0
1003.0
1002.0
1004.0
1008.0
1012.0
1014.0
1018.0
1024.0
1030.0
1031.0
1033.0
1036.0
1036.0
1037.0
1039.0
1039.0
1036.0
1037.0
1035.0
1034.0
1033.0
1031.0
1029.0
1029.0
1028.0
1026.0
1022.0
1020.0
1017.0
1013.0
1010.0
1009.0
1006.0
1007.0
1009.0
1006.0
1004.0
1000.0
998.0
996.0
992.0
994.0
995.0
996.0
994.0
995.0
993.0
992.0
994.0
996.0
994.0
995.0
994.0
992.0
990.0
990.0
991.0
993.0
994.0
995.0
993.0
991.0
988.0
986.0
986.0
989.0
990.0
994.0
994.0
993.0
992.0
988.0
991.0
993.0
996.0
1000.0
998.0
999.0
1000.0
1005.0
1010.0
1018.0
1029.0
1034.0
1037.0
1037.0
1038.0
1035.0
1037.0
1039.0
1042.0
1042.0
1037.0
1034.0
1024.0
1015.0
1000.0
991.0
982.0
976.0
971.0
966.0
961.0
965.0
967.0
970.0
972.0
971.0
972.0
969.0
963.0
962.0
961.0
964.0
966.0
969.0
971.0
971.0
971.0
969.0
967.0
964.0
964.0
961.0
956.0
952.0
950.0
957.0
980.0
1023.0
1082.0
1149.0
1223.0
1298.0
1375.0
1442.0
1485.0
1497.0
1466.0
1404.0
1313.0
1205.0
1094.0
994.0
909.0
844.0
808.0
800.0
813.0
840.0
869.0
891.0
905.0
911.0
911.0
911.0
910.0
904.0
903.0
899.0
895.0
894.0
896.0
899.0
903.0
904.0
902.0
898.0
895.0
894.0
894.0
894.0
895.0
897.0
899.0
901.0
904.0
907.0
908.0
910.0
914.0
917.0
917.0
914.0
914.0
917.0
921.0
925.0
931.0
939.0
944.0
946.0
947.0
951.0
950.0
958.0
958.0
963.0
968.0
973.0
979.0
984.0
993.0
1000.0
1008.0
1014.0
1018.0
1022.0
1026.0
1030.0
1032.0
1040.0
1046.0
1054.0
1056.0
1065.0
1070.0
1075.0
1081.0
1089.0
1098.0
1104.0
1111.0
1116.0
1118.0
1118.0
1120.0
1124.0
1127.0
1128.0
1126.0
1123.0
1120.0
1120.0
1116.0
1114.0
1114.0
1114.0
1107.0
1103.0
1092.0
1082.0
1074.0
1070.0
1061.0
1057.0
1050.0
1042.0
1035.0
1031.0
1026.0
1022.0
1017.0
1013.0
1004.0
998.0
989.0
983.0
981.0
983.0
982.0
982.0
983.0
981.0
977.0
975.0
976.0
978.0
978.0
980.0
979.0
979.0
978.0
980.0
982.0
987.0
988.0
987.0
986.0
984.0
984.0
988.0
994.0
1004.0
1013.0
1019.0
1023.0
1023.0
1024.0
1022.0
1025.0
1027.0
1027.0
1026.0
1023.0
1015.0
1008.0
998.0
986.0
979.0
974.0
968.0
961.0
956.0
951.0
948.0
947.0
947.0
952.0
954.0
956.0
955.0
954.0
950.0
948.0
946.0
949.0
951.0
953.0
954.0
951.0
950.0
952.0
952.0
952.0
952.0
950.0
946.0
940.0
934.0
939.0
959.0
1001.0
1062.0
1142.0
1233.0
1324.0
1407.0
1471.0
1497.0
1483.0
1439.0
1373.0
1308.0
1231.0
1153.0
1069.0
985.0
908.0
845.0
807.0
794.0
804.0
830.0
858.0
882.0
900.0
907.0
905.0
903.0
897.0
892.0
887.0
882.0
881.0
881.0
883.0
886.0
887.0
886.0
882.0
880.0
876.0
874.0
874.0
875.0
875.0
875.0
877.0
876.0
876.0
877.0
878.0
883.0
885.0
886.0
888.0
887.0
887.0
887.0
888.0
892.0
896.0
903.0
907.0
911.0
912.0
913.0
916.0
920.0
924.0
924.0
933.0
937.0
943.0
949.0
953.0
959.0
965.0
971.0
978.0
985.0
990.0
994.0
998.0
1006.0
1014.0
1023.0
1031.0
1038.0
1039.0
1044.0
1045.0
1049.0
1057.0
1062.0
1071.0
1078.0
1083.0
1085.0
1088.0
1089.0
1091.0
1095.0
1095.0
1098.0
1094.0
1090.0
1087.0
1087.0
1086.0
1084.0
1082.0
1085.0
1079.0
1072.0
1066.0
1058.0
1054.0
1049.0
1046.0
1041.0
1034.0
1029.0
1025.0
1018.0
1012.0
1008.0
1006.0
1003.0
1001.0
990.0
988.0
987.0
985.0
986.0
987.0
989.0
987.0
984.0
982.0
982.0
984.0
983.0
987.0
990.0
990.0
992.0
993.0
999.0
1005.0
1014.0
1021.0
1024.0
1027.0
1029.0
1033.0
1036.0
1040.0
1043.0
1048.0
1045.0
1038.0
1030.0
1017.0
1005.0
997.0
989.0
983.0
977.0
973.0
966.0
962.0
960.0
960.0
960.0
960.0
962.0
958.0
956.0
952.0
953.0
953.0
957.0
957.0
960.0
961.0
957.0
954.0
953.0
950.0
950.0
950.0
946.0
945.0
940.0
936.0
942.0
963.0
1004.0
1062.0
1131.0
1212.0
1297.0
1379.0
1444.0
1490.0
1508.0
1488.0
1439.0
1363.0
1274.0
1176.0
1083.0
997.0
924.0
865.0
833.0
825.0
839.0
864.0
891.0
909.0
921.0
924.0
919.0
910.0
901.0
896.0
893.0
895.0
898.0
900.0
901.0
900.0
895.0
891.0
886.0
888.0
884.0
884.0
886.0
889.0
888.0
888.0
888.0
889.0
890.0
888.0
892.0
891.0
891.0
891.0
893.0
897.0
904.0
907.0
911.0
914.0
914.0
914.0
915.0
917.0
921.0
930.0
938.0
942.0
952.0
954.0
960.0
965.0
971.0
977.0
985.0
992.0
1000.0
1006.0
1011.0
1017.0
1030.0
1039.0
1052.0
1058.0
1066.0
1071.0
1075.0
1080.0
1087.0
1097.0
1104.0
1113.0
1120.0
1125.0
1126.0
1128.0
1129.0
1130.0
1131.0
1137.0
1137.0
1139.0
1139.0
1136.0
1137.0
1135.0
1136.0
1135.0
1133.0
1128.0
1122.0
1118.0
1107.0
1108.0
1106.0
1104.0
1104.0
1099.0
1091.0
1086.0
1079.0
1072.0
1070.0
1065.0
1061.0
1058.0
1052.0
1051.0
1046.0
1041.0
1037.0
1036.0
1033.0
1031.0
1027.0
1021.0
1017.0
1018.0
1014.0
1015.0
1017.0
1021.0
1021.0
1022.0
1020.0
1019.0
1020.0
1025.0
1029.0
1035.0
1043.0
1051.0
1054.0
1057.0
1059.0
1061.0
1065.0
1065.0
1072.0
1073.0
1073.0
1071.0
1069.0
1064.0
1054.0
1049.0
1043.0
1031.0
1021.0
1010.0
1000.0
994.0
990.0
991.0
993.0
994.0
995.0
1000.0
998.0
994.0
993.0
993.0
994.0
994.0
998.0
998.0
997.0
996.0
993.0
993.0
994.0
994.0
995.0
994.0
991.0
986.0
977.0
971.0
976.0
991.0
1020.0
1063.0
1119.0
1180.0
1243.0
1313.0
1385.0
1447.0
1491.0
1510.0
1499.0
1455.0
1394.0
1318.0
1242.0
1164.0
1093.0
1033.0
981.0
939.0
912.0
899.0
905.0
918.0
940.0
962.0
977.0
985.0
983.0
978.0
972.0
964.0
958.0
958.0
958.0
961.0
970.0
973.0
972.0
970.0
968.0
965.0
963.0
965.0
965.0
966.0
967.0
966.0
966.0
963.0
963.0
962.0
964.0
967.0
971.0
972.0
972.0
975.0
976.0
980.0
987.0
992.0
1000.0
1002.0
1001.0
1000.0
1004.0
1008.0
1013.0
1019.0
1029.0
1040.0
1049.0
1053.0
1058.0
1063.0
1072.0
1082.0
1091.0
1098.0
1102.0
1106.0
1110.0
1116.0
1125.0
1134.0
1145.0
1152.0
1154.0
1156.0
1157.0
1163.0
1170.0
1176.0
1183.0
1184.0
1186.0
1185.0
1182.0
1180.0
1176.0
1180.0
1180.0
1178.0
1175.0
1174.0
1171.0
1170.0
1168.0
1165.0
1159.0
1154.0
1147.0
1136.0
1128.0
1122.0
1120.0
1120.0
1118.0
1114.0
1109.0
1102.0
1095.0
1087.0
1081.0
1072.0
1063.0
1056.0
1046.0
1039.0
1031.0
1028.0
1024.0
1020.0
1018.0
1011.0
1003.0
995.0
991.0
986.0
987.0
987.0
990.0
991.0
992.0
993.0
995.0
994.0
996.0
997.0
998.0
999.0
998.0
998.0
1001.0
1007.0
1015.0
1022.0
1032.0
1036.0
1036.0
1039.0
1042.0
1048.0
1053.0
1057.0
1059.0
1053.0
1047.0
1040.0
1032.0
1021.0
1011.0
1002.0
992.0
986.0
975.0
970.0
970.0
971.0
976.0
982.0
982.0
981.0
978.0
975.0
970.0
969.0
971.0
974.0
978.0
982.0
980.0
980.0
974.0
972.0
970.0
967.0
964.0
962.0
958.0
954.0
957.0
976.0
1010.0
1067.0
1135.0
1217.0
1304.0
1388.0
1457.0
1497.0
1495.0
1462.0
1398.0
1325.0
1241.0
1156.0
1074.0
1005.0
939.0
882.0
839.0
819.0
819.0
838.0
863.0
888.0
912.0
922.0
929.0
926.0
917.0
911.0
903.0
901.0
899.0
898.0
905.0
907.0
907.0
908.0
904.0
903.0
899.0
897.0
898.0
899.0
899.0
899.0
900.0
900.0
901.0
902.0
903.0
905.0
910.0
911.0
909.0
910.0
912.0
911.0
918.0
923.0
928.0
931.0
937.0
939.0
940.0
940.0
945.0
952.0
958.0
964.0
971.0
975.0
977.0
980.0
983.0
988.0
997.0
1002.0
1009.0
1015.0
1019.0
1026.0
1035.0
1040.0
1049.0
1058.0
1065.0
1068.0
1072.0
1075.0
1079.0
1086.0
1091.0
1099.0
1103.0
1107.0
1108.0
1110.0
1110.0
1112.0
1116.0
1117.0
1118.0
1116.0
1114.0
1108.0
1106.0
1103.0
1104.0
1102.0
1102.0
1097.0
1092.0
1083.0
1075.0
1069.0
1065.0
1061.0
1058.0
1057.0
1055.0
1050.0
1044.0
1036.0
1031.0
1025.0
1019.0
1018.0
1013.0
1011.0
1008.0
1004.0
999.0
995.0
992.0
987.0
988.0
982.0
979.0
978.0
976.0
976.0
978.0
981.0
983.0
986.0
987.0
987.0
984.0
986.0
985.0
983.0
984.0
987.0
990.0
993.0
998.0
1001.0
1004.0
1010.0
1015.0
1021.0
1027.0
1030.0
1029.0
1030.0
1032.0
1036.0
1041.0
1046.0
1051.0
1051.0
1048.0
1042.0
1034.0
1020.0
1009.0
1000.0
989.0
982.0
979.0
973.0
969.0
967.0
966.0
967.0
970.0
970.0
971.0
973.0
970.0
969.0
966.0
963.0
963.0
965.0
968.0
968.0
968.0
965.0
964.0
962.0
963.0
963.0
960.0
959.0
954.0
945.0
941.0
945.0
958.0
985.0
1031.0
1090.0
1164.0
1247.0
1333.0
1411.0
1470.0
1494.0
1479.0
1430.0
1354.0
1259.0
1162.0
1070.0
992.0
923.0
870.0
834.0
818.0
826.0
849.0
873.0
898.0
916.0
923.0
924.0
921.0
916.0
910.0
909.0
907.0
907.0
906.0
908.0
907.0
907.0
905.0
903.0
902.0
902.0
901.0
901.0
903.0
902.0
902.0
902.0
900.0
897.0
898.0
898.0
902.0
905.0
907.0
911.0
913.0
913.0
913.0
913.0
916.0
919.0
923.0
927.0
930.0
935.0
938.0
946.0
952.0
959.0
965.0
971.0
974.0
976.0
977.0
987.0
995.0
1004.0
1014.0
1021.0
1027.0
1034.0
1040.0
1045.0
1051.0
1059.0
1066.0
1075.0
1085.0
1093.0
1097.0
1104.0
1112.0
1118.0
1123.0
1127.0
1128.0
1127.0
1130.0
1130.0
1135.0
1139.0
1141.0
1144.0
1147.0
1146.0
1141.0
1138.0
1134.0
1130.0
1129.0
1128.0
1127.0
1126.0
1121.0
1118.0
1113.0
1107.0
1106.0
1104.0
1098.0
1093.0
1086.0
1078.0
1073.0
1069.0
1067.0
1067.0
1065.0
1062.0
1056.0
1051.0
1042.0
1038.0
1035.0
1033.0
1035.0
1036.0
1037.0
1036.0
1033.0
1029.0
1030.0
1027.0
1026.0
1027.0
1026.0
1028.0
1030.0
1031.0
1037.0
1045.0
1055.0
1063.0
1069.0
1074.0
1073.0
1074.0
1077.0
1080.0
1087.0
1092.0
1097.0
1093.0
1089.0
1083.0
1074.0
1063.0
1053.0
1044.0
1034.0
1024.0
1017.0
1014.0
1015.0
1023.0
1042.0
1068.0
1101.0
1140.0
1177.0
1219.0
1263.0
1312.0
1358.0
1402.0
1433.0
1461.0
1484.0
1507.0
1529.0
1546.0
1560.0
1570.0
1577.0
1575.0
1569.0
1559.0
1543.0
1529.0
1521.0
1513.0
1511.0
1506.0
1500.0
1490.0
1475.0
1458.0
1434.0
1402.0
1363.0
1314.0
1261.0
1203.0
1147.0
1095.0
1050.0
1007.0
968.0
933.0
902.0
877.0
860.0
851.0
848.0
845.0
845.0
845.0
843.0
839.0
836.0
833.0
828.0
823.0
818.0
815.0
808.0
806.0
803.0
800.0
799.0
794.0
792.0
787.0
785.0
785.0
784.0
787.0
787.0
786.0
781.0
776.0
774.0
771.0
773.0
776.0
781.0
786.0
792.0
796.0
797.0
803.0
808.0
814.0
819.0
824.0
831.0
837.0
843.0
850.0
857.0
870.0
883.0
889.0
900.0
908.0
916.0
925.0
937.0
949.0
961.0
973.0
984.0
993.0
1004.0
1015.0
1025.0
1034.0
1044.0
1055.0
1063.0
1070.0
1077.0
1081.0
1087.0
1089.0
1096.0
1100.0
1102.0
1103.0
1105.0
1103.0
1101.0
1100.0
1096.0
1100.0
1098.0
1100.0
1098.0
1095.0
1092.0
1088.0
1083.0
1080.0
1075.0
1072.0
1069.0
1062.0
1059.0
1054.0
1054.0
1052.0
1052.0
1048.0
1042.0
1036.0
1028.0
1023.0
1023.0
1021.0
1023.0
1025.0
1026.0
1023.0
1020.0
1017.0
1016.0
1016.0
1013.0
1017.0
1019.0
1018.0
1016.0
1014.0
1014.0
1017.0
1016.0
1020.0
1020.0
1018.0
1015.0
1013.0
1009.0
1009.0
1013.0
1020.0
1026.0
1032.0
1036.0
1040.0
1039.0
1042.0
1044.0
1050.0
1055.0
1061.0
1064.0
1065.0
1065.0
1064.0
1062.0
1061.0
1057.0
1050.0
1039.0
1026.0
1013.0
1003.0
998.0
992.0
987.0
986.0
983.0
981.0
979.0
975.0
975.0
976.0
978.0
978.0
978.0
977.0
980.0
978.0
978.0
979.0
979.0
979.0
979.0
977.0
977.0
973.0
972.0
967.0
961.0
956.0
954.0
964.0
987.0
1030.0
1083.0
1149.0
1223.0
1305.0
1383.0
1448.0
1484.0
1486.0
1448.0
1383.0
1301.0
1204.0
1103.0
1013.0
935.0
870.0
822.0
794.0
791.0
807.0
832.0
860.0
883.0
895.0
907.0
910.0
909.0
908.0
904.0
904.0
902.0
900.0
897.0
894.0
892.0
894.0
892.0
894.0
893.0
890.0
890.0
892.0
893.0
896.0
896.0
898.0
896.0
896.0
898.0
899.0
905.0
911.0
913.0
917.0
921.0
924.0
925.0
929.0
932.0
936.0
938.0
943.0
946.0
948.0
952.0
957.0
963.0
971.0
978.0
982.0
985.0
990.0
993.0
999.0
1005.0
1011.0
1020.0
1030.0
1040.0
1046.0
1053.0
1059.0
1065.0
1072.0
1079.0
1087.0
1093.0
1099.0
1101.0
1109.0
1115.0
1119.0
1121.0
1123.0
1121.0
1120.0
1119.0
1120.0
1122.0
1127.0
1128.0
1130.0
1123.0
1118.0
1111.0
1103.0
1098.0
1093.0
1087.0
1084.0
1080.0
1074.0
1068.0
1063.0
1055.0
1049.0
1043.0
1039.0
1029.0
1021.0
1012.0
1006.0
1001.0
998.0
996.0
995.0
993.0
988.0
983.0
978.0
973.0
973.0
972.0
973.0
975.0
973.0
974.0
972.0
970.0
975.0
977.0
981.0
981.0
982.0
981.0
979.0
977.0
979.0
978.0
984.0
986.0
992.0
994.0
998.0
1002.0
1006.0
1005.0
1015.0
1019.0
1026.0
1031.0
1031.0
1033.0
1032.0
1031.0
1027.0
1027.0
1021.0
1009.0
998.0
986.0
972.0
964.0
959.0
955.0
955.0
954.0
952.0
950.0
947.0
949.0
947.0
950.0
955.0
957.0
958.0
957.0
954.0
953.0
951.0
950.0
952.0
950.0
952.0
948.0
945.0
941.0
939.0
934.0
928.0
927.0
933.0
949.0
979.0
1027.0
1087.0
1156.0
1239.0
1321.0
1393.0
1448.0
1467.0
1448.0
1396.0
1321.0
1234.0
1142.0
1053.0
975.0
902.0
844.0
801.0
785.0
793.0
817.0
848.0
877.0
898.0
905.0
904.0
899.0
895.0
890.0
890.0
888.0
888.0
887.0
883.0
882.0
879.0
881.0
882.0
879.0
881.0
878.0
875.0
871.0
871.0
871.0
869.0
872.0
871.0
870.0
868.0
870.0
872.0
876.0
881.0
884.0
886.0
887.0
886.0
884.0
883.0
884.0
888.0
893.0
899.0
905.0
908.0
911.0
911.0
914.0
920.0
925.0
932.0
937.0
940.0
945.0
949.0
955.0
962.0
971.0
978.0
986.0
991.0
996.0
1002.0
1007.0
1013.0
1021.0
1030.0
1042.0
1049.0
1055.0
1058.0
1062.0
1062.0
1066.0
1070.0
1075.0
1080.0
1085.0
1087.0
1090.0
1092.0
1093.0
1095.0
1094.0
1096.0
1094.0
1094.0
1090.0
1085.0
1083.0
1080.0
1080.0
1079.0
1077.0
1075.0
1067.0
1061.0
1055.0
1047.0
1042.0
1038.0
1034.0
1031.0
1026.0
1020.0
1014.0
1011.0
1008.0
1005.0
1002.0
1000.0
996.0
994.0
995.0
994.0
996.0
1000.0
999.0
999.0
996.0
995.0
993.0
996.0
1001.0
1006.0
1015.0
1020.0
1024.0
1028.0
1030.0
1029.0
1034.0
1037.0
1041.0
1043.0
1044.0
1042.0
1042.0
1037.0
1033.0
1026.0
1017.0
1003.0
989.0
978.0
970.0
964.0
961.0
959.0
964.0
968.0
968.0
969.0
964.0
964.0
964.0
963.0
963.0
962.0
961.0
958.0
956.0
957.0
958.0
962.0
966.0
966.0
962.0
959.0
953.0
946.0
940.0
938.0
946.0
966.0
1003.0
1055.0
1122.0
1201.0
1285.0
1368.0
1435.0
1480.0
1486.0
1461.0
1406.0
1335.0
1247.0
1163.0
1078.0
1001.0
930.0
876.0
849.0
850.0
871.0
898.0
925.0
941.0
945.0
938.0
925.0
914.0
908.0
902.0
904.0
905.0
902.0
903.0
900.0
900.0
900.0
901.0
904.0
903.0
907.0
900.0
896.0
893.0
889.0
890.0
892.0
896.0
898.0
898.0
900.0
897.0
898.0
898.0
900.0
903.0
906.0
908.0
910.0
910.0
913.0
915.0
922.0
929.0
933.0
934.0
940.0
943.0
949.0
957.0
967.0
977.0
987.0
996.0
1003.0
1009.0
1014.0
1018.0
1028.0
1037.0
1048.0
1056.0
1063.0
1073.0
1084.0
1095.0
1107.0
1117.0
1124.0
1128.0
1130.0
1130.0
1129.0
1134.0
1139.0
1146.0
1153.0
1157.0
1161.0
1161.0
1158.0
1155.0
1155.0
1155.0
1155.0
1153.0
1152.0
1148.0
1144.0
1140.0
1139.0
1137.0
1137.0
1135.0
1133.0
1128.0
1119.0
1114.0
1109.0
1106.0
1104.0
1106.0
1102.0
1097.0
1092.0
1086.0
1080.0
1077.0
1074.0
1070.0
1068.0
1066.0
1061.0
1060.0
1057.0
1059.0
1060.0
1062.0
1061.0
1061.0
1058.0
1055.0
1054.0
1056.0
1058.0
1063.0
1067.0
1069.0
1075.0
1080.0
1086.0
1096.0
1103.0
1107.0
1115.0
1120.0
1122.0
1126.0
1129.0
1135.0
1134.0
1137.0
1134.0
1128.0
1116.0
1105.0
1093.0
1083.0
1079.0
1075.0
1072.0
1065.0
1059.0
1057.0
1054.0
1054.0
1054.0
1055.0
1057.0
1057.0
1056.0
1059.0
1059.0
1060.0
1063.0
1061.0
1062.0
1059.0
1055.0
1050.0
1049.0
1050.0
1050.0
1049.0
1043.0
1038.0
1033.0
1038.0
1053.0
1082.0
1131.0
1197.0
1272.0
1354.0
1427.0
1482.0
1503.0
1487.0
1435.0
1363.0
1275.0
1181.0
1100.0
1033.0
980.0
940.0
908.0
893.0
891.0
906.0
929.0
952.0
972.0
981.0
982.0
976.0
971.0
966.0
958.0
952.0
951.0
950.0
950.0
948.0
949.0
949.0
945.0
943.0
942.0
941.0
935.0
937.0
935.0
936.0
936.0
934.0
933.0
931.0
932.0
932.0
934.0
940.0
941.0
947.0
948.0
952.0
952.0
953.0
952.0
955.0
959.0
963.0
966.0
973.0
977.0
986.0
994.0
998.0
1001.0
1003.0
1007.0
1008.0
1011.0
1014.0
1019.0
1029.0
1039.0
1052.0
1061.0
1069.0
1074.0
1077.0
1079.0
1085.0
1091.0
1096.0
1104.0
1109.0
1115.0
1115.0
1118.0
1122.0
1126.0
1129.0
1133.0
1134.0
1135.0
1132.0
1132.0
1133.0
1132.0
1134.0
1128.0
1123.0
1112.0
1109.0
1105.0
1103.0
1103.0
1101.0
1098.0
1095.0
1089.0
1082.0
1075.0
1069.0
1059.0
1055.0
1050.0
1045.0
1040.0
1033.0
1027.0
1021.0
1020.0
1016.0
1014.0
1009.0
1002.0
996.0
989.0
979.0
971.0
967.0
967.0
965.0
965.0
964.0
963.0
958.0
955.0
950.0
950.0
949.0
950.0
951.0
953.0
952.0
956.0
957.0
959.0
962.0
964.0
963.0
964.0
964.0
967.0
973.0
980.0
991.0
1002.0
1010.0
1018.0
1021.0
1023.0
1023.0
1024.0
1023.0
1021.0
1019.0
1009.0
1002.0
994.0
986.0
978.0
969.0
965.0
957.0
949.0
943.0
939.0
935.0
939.0
941.0
946.0
950.0
950.0
948.0
945.0
942.0
940.0
942.0
942.0
944.0
946.0
948.0
945.0
945.0
944.0
941.0
939.0
935.0
926.0
922.0
922.0
934.0
969.0
1023.0
1089.0
1165.0
1243.0
1322.0
1387.0
1435.0
1464.0
1459.0
1423.0
1363.0
1285.0
1195.0
1101.0
1009.0
926.0
851.0
799.0
772.0
774.0
793.0
818.0
843.0
864.0
880.0
888.0
890.0
889.0
887.0
882.0
873.0
868.0
865.0
864.0
862.0
867.0
868.0
869.0
870.0
870.0
868.0
865.0
864.0
862.0
862.0
863.0
860.0
862.0
863.0
862.0
867.0
872.0
876.0
882.0
884.0
884.0
883.0
882.0
880.0
885.0
889.0
897.0
903.0
906.0
911.0
912.0
914.0
917.0
922.0
928.0
934.0
940.0
946.0
950.0
957.0
961.0
970.0
977.0
984.0
991.0
993.0
997.0
1002.0
1008.0
1015.0
1023.0
1035.0
1040.0
1048.0
1052.0
1054.0
1058.0
1062.0
1068.0
1074.0
1080.0
1083.0
1085.0
1085.0
1085.0
1085.0
1083.0
1083.0
1085.0
1086.0
1083.0
1078.0
1074.0
1071.0
1069.0
1065.0
1063.0
1057.0
1051.0
1040.0
1034.0
1029.0
1025.0
1020.0
1019.0
1014.0
1011.0
1005.0
1000.0
995.0
989.0
983.0
983.0
977.0
973.0
968.0
963.0
957.0
955.0
954.0
956.0
957.0
956.0
957.0
954.0
946.0
944.0
946.0
950.0
953.0
955.0
959.0
960.0
960.0
959.0
961.0
963.0
969.0
975.0
981.0
988.0
989.0
993.0
998.0
1000.0
1004.0
1010.0
1013.0
1015.0
1015.0
1012.0
1008.0
1005.0
1001.0
994.0
988.0
976.0
963.0
955.0
946.0
935.0
929.0
929.0
928.0
931.0
932.0
930.0
931.0
929.0
927.0
929.0
932.0
931.0
930.0
929.0
924.0
926.0
928.0
926.0
929.0
929.0
930.0
930.0
925.0
918.0
910.0
902.0
903.0
908.0
925.0
948.0
986.0
1036.0
1100.0
1172.0
1251.0
1329.0
1393.0
1439.0
1449.0
1426.0
1379.0
1309.0
1234.0
1150.0
1075.0
1004.0
938.0
878.0
825.0
794.0
783.0
796.0
822.0
850.0
877.0
895.0
898.0
893.0
885.0
876.0
869.0
865.0
865.0
867.0
870.0
870.0
866.0
864.0
865.0
861.0
862.0
863.0
859.0
859.0
859.0
856.0
857.0
856.0
860.0
861.0
861.0
861.0
861.0
857.0
852.0
853.0
853.0
856.0
862.0
865.0
868.0
870.0
871.0
872.0
873.0
875.0
878.0
881.0
885.0
889.0
895.0
897.0
901.0
907.0
918.0
925.0
934.0
936.0
942.0
944.0
951.0
963.0
973.0
982.0
992.0
1000.0
1003.0
1009.0
1014.0
1017.0
1025.0
1035.0
1043.0
1053.0
1060.0
1065.0
1069.0
1073.0
1079.0
1083.0
1087.0
1089.0
1090.0
1090.0
1087.0
1089.0
1090.0
1091.0
1094.0
1092.0
1093.0
1090.0
1087.0
1082.0
1077.0
1073.0
1073.0
1072.0
1070.0
1068.0
1063.0
1058.0
1052.0
1046.0
1043.0
1039.0
1037.0
1029.0
1023.0
1017.0
1010.0
1008.0
1007.0
1004.0
1005.0
1002.0
998.0
993.0
990.0
988.0
988.0
991.0
995.0
995.0
994.0
994.0
992.0
993.0
997.0
1002.0
1007.0
1012.0
1015.0
1019.0
1026.0
1029.0
1034.0
1038.0
1046.0
1047.0
1050.0
1050.0
1047.0
1041.0
1038.0
1031.0
1022.0
1012.0
1002.0
991.0
977.0
968.0
968.0
967.0
970.0
972.0
972.0
971.0
971.0
965.0
966.0
966.0
