# Simple Text Format
# Sampling Rate (Hz):= 360.00
# Resolution:= 12
# Labels:= ECG
963.0
987.0
1024.0
1073.0
1134.0
1208.0
1290.0
1373.0
1443.0
1485.0
1486.0
1444.0
1373.0
1288.0
1196.0
1107.0
1029.0
961.0
905.0
855.0
824.0
808.0
812.0
829.0
854.0
879.0
900.0
913.0
917.0
914.0
903.0
897.0
892.0
891.0
889.0
890.0
888.0
888.0
890.0
894.0
895.0
897.0
894.0
890.0
887.0
885.0
885.0
884.0
885.0
889.0
892.0
893.0
895.0
898.0
898.0
902.0
904.0
905.0
906.0
905.0
907.0
911.0
914.0
918.0
926.0
934.0
937.0
941.0
944.0
946.0
948.0
952.0
959.0
963.0
972.0
976.0
983.0
989.0
992.0
992.0
994.0
1000.0
1005.0
1009.0
1019.0
1026.0
1032.0
1038.0
1046.0
1052.0
1058.0
1065.0
1068.0
1072.0
1075.0
1077.0
1080.0
1085.0
1090.0
1095.0
1099.0
1100.0
1098.0
1095.0
1090.0
1088.0
1086.0
1084.0
1085.0
1083.0
1078.0
1072.0
1068.0
1061.0
1059.0
1056.0
1053.0
1048.0
1041.0
1032.0
1022.0
1016.0
1014.0
1014.0
1013.0
1009.0
1003.0
993.0
985.0
976.0
969.0
966.0
966.0
965.0
962.0
959.0
954.0
949.0
944.0
939.0
938.0
938.0
935.0
933.0
930.0
928.0
928.0
931.0
935.0
937.0
940.0
942.0
940.0
941.0
939.0
938.0
938.0
943.0
945.0
947.0
948.0
945.0
944.0
948.0
952.0
960.0
969.0
975.0
976.0
979.0
981.0
985.0
993.0
998.0
1001.0
1003.0
996.0
988.0
977.0
961.0
950.0
942.0
936.0
931.0
928.0
927.0
924.0
922.0
920.0
921.0
921.0
920.0
919.0
918.0
918.0
922.0
929.0
927.0
928.0
928.0
924.0
922.0
919.0
918.0
920.0
921.0
920.0
915.0
910.0
905.0
907.0
922.0
956.0
1013.0
1082.0
1165.0
1253.0
1339.0
1409.0
1466.0
1495.0
1487.0
1445.0
1374.0
1281.0
1176.0
1070.0
967.0
881.0
816.0
780.0
769.0
784.0
810.0
838.0
861.0
874.0
882.0
881.0
876.0
871.0
864.0
860.0
858.0
859.0
861.0
861.0
862.0
862.0
859.0
855.0
851.0
850.0
850.0
851.0
853.0
856.0
858.0
856.0
852.0
850.0
849.0
849.0
850.0
855.0
857.0
859.0
860.0
862.0
863.0
867.0
871.0
873.0
876.0
876.0
876.0
876.0
880.0
886.0
894.0
899.0
903.0
906.0
910.0
907.0
910.0
916.0
923.0
930.0
935.0
943.0
945.0
951.0
957.0
964.0
968.0
973.0
977.0
981.0
983.0
987.0
992.0
998.0
1005.0
1013.0
1019.0
1022.0
1025.0
1026.0
1024.0
1027.0
1027.0
1029.0
1034.0
1035.0
1037.0
1033.0
1031.0
1029.0
1027.0
1023.0
1019.0
1017.0
1011.0
1004.0
998.0
996.0
991.0
993.0
988.0
984.0
977.0
970.0
961.0
955.0
948.0
946.0
945.0
941.0
942.0
935.0
932.0
930.0
929.0
926.0
924.0
922.0
921.0
920.0
922.0
923.0
927.0
932.0
934.0
935.0
933.0
932.0
929.0
926.0
930.0
933.0
941.0
946.0
954.0
962.0
965.0
966.0
970.0
970.0
974.0
977.0
977.0
979.0
977.0
979.0
976.0
971.0
970.0
964.0
953.0
938.0
926.0
916.0
907.0
902.0
904.0
905.0
907.0
906.0
907.0
907.0
904.0
904.0
902.0
904.0
905.0
902.0
903.0
902.0
902.0
903.0
903.0
906.0
908.0
908.0
905.0
900.0
894.0
888.0
884.0
883.0
888.0
902.0
927.0
965.0
1017.0
1083.0
1159.0
1248.0
1336.0
1412.0
1458.0
1460.0
1422.0
1356.0
1269.0
1177.0
1089.0
1016.0
947.0
885.0
835.0
805.0
802.0
814.0
839.0
866.0
882.0
887.0
882.0
872.0
863.0
859.0
856.0
856.0
858.0
864.0
863.0
861.0
858.0
857.0
854.0
854.0
851.0
849.0
848.0
847.0
847.0
846.0
848.0
850.0
854.0
853.0
851.0
849.0
850.0
847.0
846.0
848.0
853.0
859.0
859.0
862.0
864.0
867.0
866.0
871.0
873.0
878.0
880.0
883.0
886.0
888.0
893.0
899.0
906.0
912.0
918.0
924.0
927.0
930.0
936.0
943.0
951.0
961.0
968.0
979.0
986.0
992.0
996.0
1001.0
1007.0
1015.0
1022.0
1032.0
1039.0
1040.0
1048.0
1052.0
1059.0
1064.0
1070.0
1072.0
1078.0
1078.0
1076.0
1077.0
1076.0
1080.0
1082.0
1086.0
1089.0
1089.0
1084.0
1077.0
1070.0
1067.0
1063.0
1066.0
1065.0
1062.0
1063.0
1056.0
1051.0
1044.0
1043.0
1039.0
1037.0
1037.0
1030.0
1025.0
1020.0
1015.0
1010.0
1007.0
1006.0
1006.0
1000.0
998.0
993.0
989.0
986.0
987.0
988.0
990.0
993.0
994.0
992.0
990.0
988.0
986.0
986.0
990.0
994.0
999.0
1003.0
1007.0
1009.0
1014.0
1016.0
1021.0
1025.0
1029.0
1032.0
1032.0
1031.0
1033.0
1032.0
1033.0
1031.0
1023.0
1016.0
1004.0
989.0
979.0
969.0
960.0
959.0
959.0
957.0
960.0
959.0
957.0
955.0
956.0
955.0
952.0
953.0
951.0
951.0
950.0
947.0
946.0
944.0
949.0
950.0
952.0
952.0
948.0
946.0
940.0
936.0
936.0
933.0
931.0
932.0
939.0
958.0
988.0
1039.0
1111.0
1198.0
1291.0
1386.0
1462.0
1504.0
1505.0
1471.0
1416.0
1342.0
1267.0
1192.0
1126.0
1062.0
1001.0
939.0
892.0
864.0
860.0
875.0
902.0
923.0
933.0
934.0
929.0
917.0
910.0
906.0
906.0
905.0
907.0
909.0
910.0
906.0
903.0
902.0
902.0
903.0
902.0
901.0
899.0
899.0
898.0
900.0
903.0
906.0
908.0
908.0
907.0
906.0
903.0
902.0
903.0
906.0
912.0
917.0
921.0
923.0
928.0
933.0
936.0
942.0
949.0
954.0
959.0
959.0
966.0
972.0
978.0
985.0
993.0
1002.0
1010.0
1015.0
1026.0
1032.0
1039.0
1049.0
1059.0
1071.0
1082.0
1088.0
1097.0
1103.0
1107.0
1112.0
1121.0
1129.0
1139.0
1146.0
1151.0
1158.0
1162.0
1164.0
1167.0
1169.0
1174.0
1178.0
1179.0
1176.0
1178.0
1177.0
1176.0
1177.0
1178.0
1178.0
1177.0
1177.0
1171.0
1166.0
1163.0
1157.0
1154.0
1154.0
1151.0
1150.0
1148.0
1143.0
1137.0
1131.0
1126.0
1121.0
1116.0
1111.0
1105.0
1102.0
1096.0
1093.0
1087.0
1081.0
1079.0
1074.0
1069.0
1063.0
1057.0
1053.0
1046.0
1040.0
1037.0
1035.0
1033.0
1030.0
1027.0
1024.0
1022.0
1022.0
1022.0
1021.0
1023.0
1025.0
1029.0
1029.0
1032.0
1032.0
1032.0
1031.0
1032.0
1037.0
1042.0
1045.0
1049.0
1053.0
1057.0
1058.0
1063.0
1072.0
1078.0
1083.0
1086.0
1088.0
1083.0
1081.0
1079.0
1076.0
1075.0
1069.0
1059.0
1049.0
1034.0
1023.0
1013.0
1001.0
1001.0
1001.0
1002.0
1004.0
1004.0
1001.0
996.0
994.0
992.0
999.0
999.0
1001.0
997.0
995.0
992.0
992.0
991.0
993.0
998.0
999.0
1002.0
1000.0
997.0
992.0
988.0
985.0
986.0
998.0
1016.0
1050.0
1104.0
1169.0
1246.0
1331.0
1414.0
1483.0
1529.0
1536.0
1506.0
1449.0
1379.0
1306.0
1231.0
1157.0
1082.0
1011.0
944.0
891.0
857.0
843.0
857.0
881.0
911.0
937.0
952.0
955.0
952.0
944.0
937.0
932.0
931.0
930.0
929.0
930.0
928.0
927.0
924.0
927.0
927.0
926.0
924.0
922.0
921.0
917.0
917.0
916.0
920.0
921.0
924.0
927.0
926.0
926.0
929.0
932.0
933.0
934.0
937.0
940.0
944.0
947.0
951.0
954.0
958.0
963.0
966.0
971.0
973.0
975.0
975.0
979.0
986.0
992.0
998.0
1006.0
1010.0
1016.0
1022.0
1030.0
1036.0
1043.0
1049.0
1057.0
1064.0
1066.0
1070.0
1074.0
1082.0
1090.0
1100.0
1110.0
1115.0
1118.0
1120.0
1122.0
1126.0
1128.0
1131.0
1133.0
1138.0
1138.0
1133.0
1127.0
1125.0
1120.0
1121.0
1120.0
1118.0
1113.0
1108.0
1102.0
1099.0
1095.0
1089.0
1084.0
1076.0
1067.0
1058.0
1053.0
1049.0
1045.0
1044.0
1042.0
1035.0
1028.0
1021.0
1013.0
1005.0
999.0
995.0
993.0
990.0
985.0
981.0
979.0
978.0
978.0
978.0
977.0
978.0
974.0
971.0
968.0
970.0
972.0
974.0
977.0
980.0
978.0
977.0
975.0
975.0
974.0
976.0
978.0
981.0
984.0
989.0
997.0
998.0
1009.0
1015.0
1016.0
1019.0
1020.0
1020.0
1025.0
1030.0
1035.0
1040.0
1042.0
1041.0
1032.0
1021.0
1009.0
995.0
983.0
971.0
969.0
966.0
962.0
962.0
959.0
957.0
959.0
960.0
962.0
962.0
960.0
956.0
958.0
958.0
958.0
961.0
960.0
966.0
967.0
965.0
963.0
962.0
957.0
956.0
954.0
953.0
947.0
945.0
945.0
955.0
982.0
1026.0
1089.0
1170.0
1265.0
1360.0
1443.0
1507.0
1540.0
1539.0
1497.0
1425.0
1329.0
1225.0
1116.0
1015.0
929.0
860.0
816.0
800.0
808.0
833.0
864.0
888.0
902.0
907.0
907.0
902.0
894.0
891.0
885.0
880.0
879.0
882.0
881.0
882.0
880.0
876.0
875.0
869.0
867.0
864.0
863.0
864.0
867.0
868.0
868.0
871.0
867.0
864.0
864.0
863.0
863.0
867.0
867.0
868.0
869.0
871.0
871.0
873.0
877.0
879.0
882.0
881.0
882.0
884.0
888.0
895.0
900.0
905.0
910.0
911.0
912.0
914.0
916.0
920.0
924.0
933.0
941.0
946.0
952.0
956.0
961.0
965.0
971.0
978.0
982.0
985.0
991.0
995.0
999.0
1007.0
1015.0
1021.0
1031.0
1040.0
1045.0
1047.0
1047.0
1050.0
1051.0
1054.0
1057.0
1062.0
1066.0
1070.0
1068.0
1067.0
1065.0
1064.0
1061.0
1059.0
1056.0
1055.0
1053.0
1047.0
1045.0
1043.0
1038.0
1036.0
1033.0
1030.0
1027.0
1021.0
1016.0
1012.0
1007.0
1006.0
1007.0
1007.0
1005.0
1003.0
998.0
994.0
987.0
991.0
988.0
990.0
991.0
995.0
997.0
1000.0
1000.0
998.0
1000.0
1001.0
1001.0
1002.0
1005.0
1004.0
1008.0
1012.0
1019.0
1026.0
1036.0
1040.0
1046.0
1048.0
1046.0
1046.0
1049.0
1048.0
1055.0
1060.0
1064.0
1061.0
1054.0
1046.0
1034.0
1024.0
1014.0
1003.0
996.0
991.0
986.0
985.0
984.0
986.0
984.0
990.0
990.0
989.0
987.0
985.0
982.0
981.0
983.0
985.0
987.0
989.0
991.0
990.0
990.0
988.0
988.0
990.0
989.0
989.0
985.0
982.0
977.0
976.0
983.0
1001.0
1041.0
1092.0
1161.0
1239.0
1328.0
1412.0
1489.0
1535.0
1542.0
1512.0
1457.0
1387.0
1308.0
1230.0
1158.0
1093.0
1031.0
975.0
929.0
903.0
896.0
908.0
932.0
954.0
972.0
978.0
977.0
968.0
958.0
950.0
948.0
946.0
947.0
952.0
955.0
956.0
951.0
948.0
944.0
943.0
940.0
941.0
944.0
947.0
948.0
949.0
949.0
948.0
946.0
944.0
944.0
950.0
951.0
950.0
953.0
954.0
957.0
962.0
965.0
969.0
976.0
976.0
980.0
982.0
987.0
993.0
1001.0
1009.0
1017.0
1021.0
1029.0
1039.0
1047.0
1054.0
1063.0
1068.0
1077.0
1081.0
1090.0
1097.0
1107.0
1120.0
1129.0
1142.0
1149.0
1153.0
1157.0
1163.0
1169.0
1175.0
1182.0
1189.0
1195.0
1197.0
1199.0
1202.0
1200.0
1202.0
1206.0
1207.0
1203.0
1197.0
1196.0
1195.0
1193.0
1194.0
1193.0
1191.0
1186.0
1179.0
1172.0
1170.0
1167.0
1163.0
1162.0
1158.0
1156.0
1149.0
1146.0
1140.0
1135.0
1129.0
1125.0
1117.0
1112.0
1103.0
1099.0
1097.0
1095.0
1096.0
1095.0
1091.0
1084.0
1078.0
1071.0
1069.0
1071.0
1070.0
1074.0
1077.0
1075.0
1078.0
1076.0
1078.0
1078.0
1081.0
1087.0
1090.0
1095.0
1100.0
1108.0
1115.0
1124.0
1131.0
1141.0
1147.0
1151.0
1154.0
1152.0
1152.0
1153.0
1152.0
1151.0
1148.0
1142.0
1134.0
1123.0
1113.0
1103.0
1096.0
1097.0
1097.0
1107.0
1123.0
1147.0
1184.0
1224.0
1265.0
1312.0
1361.0
1412.0
1455.0
1499.0
1533.0
1561.0
1582.0
1603.0
1621.0
1632.0
1641.0
1641.0
1642.0
1631.0
1619.0
1605.0
1592.0
1581.0
1573.0
1566.0
1558.0
1546.0
1530.0
1505.0
1471.0
1427.0
1373.0
1317.0
1261.0
1210.0
1170.0
1140.0
1115.0
1086.0
1055.0
1021.0
986.0
956.0
928.0
912.0
910.0
909.0
912.0
913.0
911.0
906.0
898.0
891.0
882.0
877.0
873.0
869.0
865.0
861.0
857.0
853.0
852.0
851.0
847.0
843.0
838.0
829.0
825.0
818.0
816.0
814.0
813.0
812.0
810.0
809.0
810.0
807.0
810.0
811.0
813.0
813.0
814.0
813.0
815.0
817.0
821.0
825.0
833.0
843.0
850.0
857.0
861.0
868.0
873.0
880.0
889.0
898.0
909.0
915.0
928.0
938.0
945.0
953.0
963.0
971.0
976.0
986.0
996.0
1006.0
1012.0
1022.0
1028.0
1038.0
1047.0
1051.0
1055.0
1055.0
1054.0
1055.0
1057.0
1061.0
1066.0
1068.0
1072.0
1070.0
1065.0
1063.0
1059.0
1057.0
1055.0
1054.0
1053.0
1051.0
1047.0
1043.0
1044.0
1042.0
1042.0
1037.0
1039.0
1030.0
1022.0
1015.0
1009.0
1007.0
1008.0
1008.0
1011.0
1011.0
1011.0
1008.0
1005.0
1005.0
998.0
997.0
997.0
999.0
998.0
997.0
996.0
999.0
999.0
1003.0
1003.0
1004.0
1003.0
1001.0
999.0
995.0
998.0
1000.0
1006.0
1010.0
1008.0
1008.0
1005.0
1006.0
1002.0
1004.0
1002.0
1005.0
1008.0
1011.0
1016.0
1022.0
1031.0
1038.0
1044.0
1049.0
1047.0
1047.0
1047.0
1048.0
1051.0
1056.0
1060.0
1063.0
1064.0
1061.0
1054.0
1039.0
1025.0
1010.0
996.0
991.0
988.0
985.0
988.0
989.0
989.0
988.0
986.0
984.0
981.0
982.0
979.0
980.0
980.0
982.0
981.0
986.0
987.0
989.0
987.0
986.0
983.0
979.0
976.0
976.0
973.0
966.0
959.0
963.0
978.0
1011.0
1063.0
1135.0
1222.0
1316.0
1407.0
1480.0
1522.0
1520.0
1483.0
1413.0
1321.0
1218.0
1110.0
1015.0
929.0
861.0
817.0
799.0
805.0
829.0
862.0
892.0
912.0
926.0
931.0
932.0
927.0
923.0
916.0
913.0
910.0
913.0
915.0
918.0
919.0
918.0
916.0
913.0
910.0
907.0
907.0
910.0
913.0
915.0
918.0
916.0
916.0
916.0
917.0
919.0
922.0
929.0
928.0
928.0
930.0
934.0
939.0
944.0
949.0
950.0
954.0
956.0
958.0
956.0
961.0
968.0
976.0
982.0
989.0
993.0
999.0
1004.0
1007.0
1016.0
1023.0
1030.0
1035.0
1041.0
1043.0
1051.0
1059.0
1067.0
1075.0
1080.0
1083.0
1087.0
1087.0
1091.0
1096.0
1104.0
1114.0
1123.0
1130.0
1132.0
1134.0
1135.0
1137.0
1139.0
1140.0
1143.0
1142.0
1143.0
1141.0
1140.0
1137.0
1137.0
1133.0
1133.0
1131.0
1124.0
1117.0
1108.0
1098.0
1092.0
1089.0
1084.0
1079.0
1074.0
1068.0
1059.0
1049.0
1043.0
1037.0
1032.0
1029.0
1028.0
1025.0
1022.0
1019.0
1019.0
1018.0
1016.0
1017.0
1019.0
1016.0
1014.0
1013.0
1011.0
1016.0
1019.0
1021.0
1025.0
1025.0
1025.0
1024.0
1022.0
1022.0
1022.0
1023.0
1028.0
1033.0
1035.0
1042.0
1045.0
1051.0
1056.0
1061.0
1063.0
1066.0
1068.0
1069.0
1073.0
1073.0
1078.0
1077.0
1075.0
1069.0
1058.0
1045.0
1035.0
1031.0
1035.0
1051.0
1078.0
1109.0
1142.0
1181.0
1224.0
1273.0
1324.0
1374.0
1418.0
1459.0
1492.0
1520.0
1545.0
1567.0
1580.0
1590.0
1597.0
1594.0
1584.0
1571.0
1555.0
1545.0
1536.0
1529.0
1530.0
1529.0
1526.0
1518.0
1504.0
1483.0
1453.0
1416.0
1371.0
1315.0
1256.0
1192.0
1130.0
1072.0
1020.0
975.0
938.0
904.0
882.0
865.0
851.0
840.0
832.0
826.0
824.0
821.0
822.0
821.0
817.0
813.0
808.0
801.0
793.0
785.0
784.0
778.0
775.0
773.0
771.0
769.0
765.0
759.0
757.0
753.0
750.0
745.0
744.0
742.0
736.0
738.0
737.0
741.0
744.0
744.0
745.0
746.0
749.0
749.0
751.0
753.0
760.0
768.0
776.0
783.0
787.0
798.0
804.0
811.0
820.0
826.0
834.0
847.0
859.0
868.0
883.0
896.0
913.0
926.0
937.0
948.0
956.0
965.0
976.0
985.0
997.0
1009.0
1017.0
1026.0
1036.0
1041.0
1050.0
1057.0
1062.0
1065.0
1067.0
1070.0
1073.0
1073.0
1076.0
1080.0
1082.0
1084.0
1085.0
1082.0
1079.0
1078.0
1072.0
1074.0
1074.0
1075.0
1077.0
1075.0
1070.0
1067.0
1062.0
1060.0
1059.0
1056.0
1057.0
1053.0
1053.0
1050.0
1049.0
1051.0
1052.0
1055.0
1055.0
1055.0
1051.0
1047.0
1046.0
1045.0
1046.0
1049.0
1051.0
1054.0
1055.0
1057.0
1054.0
1053.0
1053.0
1054.0
1055.0
1056.0
1060.0
1059.0
1058.0
1062.0
1066.0
1067.0
1069.0
1070.0
1070.0
1073.0
1077.0
1084.0
1092.0
1100.0
1108.0
1110.0
1115.0
1115.0
1116.0
1119.0
1120.0
1123.0
1121.0
1118.0
1109.0
1102.0
1088.0
1078.0
1067.0
1060.0
1053.0
1049.0
1044.0
1041.0
1044.0
1041.0
1043.0
1047.0
1048.0
1050.0
1054.0
1053.0
1053.0
1053.0
1057.0
1058.0
1057.0
1056.0
1055.0
1054.0
1055.0
1059.0
1062.0
1065.0
1065.0
1062.0
1060.0
1067.0
1090.0
1130.0
1186.0
1255.0
1333.0
1413.0
1486.0
1542.0
1574.0
1572.0
1543.0
1485.0
1410.0
1322.0
1232.0
1149.0
1078.0
1023.0
982.0
959.0
953.0
963.0
984.0
1010.0
1030.0
1043.0
1051.0
1052.0
1048.0
1042.0
1039.0
1037.0
1035.0
1033.0
1033.0
1034.0
1034.0
1035.0
1034.0
1032.0
1030.0
1030.0
1029.0
1031.0
1031.0
1032.0
1032.0
1028.0
1025.0
1023.0
1025.0
1029.0
1036.0
1044.0
1051.0
1052.0
1054.0
1056.0
1056.0
1060.0
1063.0
1067.0
1070.0
1074.0
1076.0
1084.0
1089.0
1095.0
1102.0
1107.0
1112.0
1117.0
1122.0
1125.0
1130.0
1138.0
1146.0
1154.0
1161.0
1168.0
1173.0
1179.0
1183.0
1191.0
1198.0
1200.0
1203.0
1208.0
1216.0
1220.0
1223.0
1228.0
1231.0
1235.0
1238.0
1240.0
1244.0
1246.0
1246.0
1245.0
1248.0
1252.0
1251.0
1250.0
1248.0
1244.0
1238.0
1233.0
1229.0
1228.0
1228.0
1226.0
1222.0
1217.0
1208.0
1199.0
1188.0
1182.0
1174.0
1169.0
1161.0
1152.0
1144.0
1136.0
1132.0
1125.0
1120.0
1115.0
1111.0
1102.0
1096.0
1088.0
1081.0
1071.0
1067.0
1062.0
1062.0
1060.0
1054.0
1052.0
1046.0
1043.0
1040.0
1038.0
1041.0
1042.0
1044.0
1045.0
1043.0
1045.0
1044.0
1042.0
1042.0
1043.0
1045.0
1044.0
1042.0
1038.0
1036.0
1039.0
1044.0
1050.0
1059.0
1064.0
1070.0
1072.0
1075.0
1074.0
1074.0
1078.0
1083.0
1085.0
1088.0
1087.0
1088.0
1083.0
1080.0
1074.0
1067.0
1054.0
1043.0
1026.0
1018.0
1013.0
1009.0
1008.0
1012.0
1013.0
1014.0
1012.0
1008.0
1002.0
998.0
998.0
999.0
1002.0
1006.0
1010.0
1011.0
1008.0
1004.0
1002.0
1000.0
1000.0
1001.0
999.0
995.0
990.0
981.0
976.0
973.0
977.0
998.0
1033.0
1080.0
1138.0
1202.0
1269.0
1338.0
1402.0
1455.0
1494.0
1502.0
1475.0
1420.0
1345.0
1251.0
1154.0
1060.0
977.0
904.0
851.0
824.0
823.0
843.0
873.0
901.0
925.0
937.0
942.0
937.0
929.0
921.0
918.0
916.0
917.0
921.0
925.0
922.0
920.0
917.0
913.0
910.0
908.0
909.0
911.0
910.0
910.0
909.0
909.0
909.0
911.0
912.0
915.0
914.0
913.0
914.0
914.0
915.0
914.0
919.0
923.0
925.0
929.0
928.0
929.0
929.0
931.0
937.0
943.0
947.0
954.0
959.0
961.0
963.0
965.0
970.0
975.0
981.0
984.0
989.0
994.0
997.0
1003.0
1012.0
1019.0
1027.0
1030.0
1035.0
1039.0
1042.0
1046.0
1052.0
1060.0
1068.0
1075.0
1081.0
1084.0
1086.0
1087.0
1092.0
1094.0
1093.0
1095.0
1096.0
1097.0
1097.0
1098.0
1098.0
1097.0
1097.0
1095.0
1088.0
1084.0
1075.0
1071.0
1069.0
1065.0
1063.0
1061.0
1058.0
1050.0
1043.0
1037.0
1034.0
1027.0
1024.0
1019.0
1016.0
1012.0
1008.0
1008.0
1007.0
1005.0
1002.0
999.0
998.0
993.0
988.0
988.0
988.0
989.0
998.0
1000.0
1002.0
1003.0
1000.0
999.0
999.0
1001.0
1007.0
1011.0
1017.0
1023.0
1026.0
1034.0
1039.0
1044.0
1048.0
1051.0
1050.0
1049.0
1048.0
1049.0
1048.0
1050.0
1047.0
1042.0
1035.0
1022.0
1009.0
997.0
986.0
976.0
973.0
965.0
965.0
965.0
967.0
967.0
966.0
967.0
969.0
969.0
966.0
963.0
964.0
961.0
959.0
960.0
963.0
966.0
970.0
972.0
971.0
969.0
966.0
960.0
956.0
951.0
946.0
945.0
951.0
965.0
992.0
1029.0
1089.0
1154.0
1232.0
1316.0
1396.0
1457.0
1488.0
1482.0
1443.0
1381.0
1305.0
1220.0
1138.0
1063.0
992.0
927.0
875.0
844.0
839.0
856.0
883.0
911.0
933.0
940.0
939.0
930.0
922.0
916.0
910.0
911.0
909.0
909.0
910.0
910.0
911.0
910.0
909.0
908.0
908.0
903.0
900.0
896.0
895.0
894.0
896.0
898.0
901.0
900.0
896.0
893.0
892.0
891.0
893.0
895.0
897.0
898.0
898.0
899.0
896.0
899.0
904.0
906.0
909.0
914.0
914.0
916.0
920.0
923.0
931.0
938.0
944.0
954.0
961.0
966.0
969.0
975.0
981.0
987.0
996.0
1009.0
1016.0
1024.0
1030.0
1034.0
1038.0
1047.0
1056.0
1065.0
1074.0
1081.0
1090.0
1095.0
1102.0
1110.0
1115.0
1124.0
1131.0
1137.0
1140.0
1139.0
1139.0
1140.0
1139.0
1144.0
1147.0
1151.0
1152.0
1152.0
1152.0
1148.0
1142.0
1137.0
1138.0
1135.0
1135.0
1133.0
1129.0
1126.0
1120.0
1117.0
1115.0
1115.0
1110.0
1107.0
1101.0
1094.0
1089.0
1086.0
1083.0
1082.0
1081.0
1080.0
1075.0
1071.0
1064.0
1058.0
1057.0
1055.0
1056.0
1057.0
1056.0
1058.0
1056.0
1056.0
1057.0
1054.0
1055.0
1057.0
1057.0
1058.0
1061.0
1063.0
1067.0
1074.0
1082.0
1091.0
1096.0
1099.0
1102.0
1099.0
1098.0
1102.0
1105.0
1110.0
1114.0
1112.0
1107.0
1096.0
1084.0
1072.0
1060.0
1050.0
1044.0
1039.0
1036.0
1033.0
1030.0
1028.0
1028.0
1031.0
1031.0
1031.0
1027.0
1027.0
1023.0
1018.0
1017.0
1017.0
1020.0
1022.0
1025.0
1024.0
1021.0
1019.0
1016.0
1010.0
1010.0
1007.0
1005.0
1003.0
997.0
997.0
1006.0
1026.0
1067.0
1124.0
1191.0
1270.0
1356.0
1435.0
1496.0
1522.0
1520.0
1486.0
1432.0
1367.0
1293.0
1215.0
1138.0
1065.0
996.0
941.0
908.0
898.0
910.0
937.0
964.0
982.0
990.0
990.0
981.0
976.0
967.0
962.0
960.0
962.0
962.0
964.0
969.0
973.0
974.0
973.0
970.0
967.0
966.0
963.0
966.0
968.0
971.0
975.0
980.0
982.0
984.0
983.0
986.0
992.0
995.0
999.0
1001.0
1003.0
1007.0
1012.0
1019.0
1026.0
1035.0
1041.0
1048.0
1049.0
1052.0
1055.0
1064.0
1073.0
1083.0
1094.0
1103.0
1114.0
1122.0
1130.0
1137.0
1143.0
1153.0
1159.0
1169.0
1176.0
1183.0
1190.0
1199.0
1208.0
1217.0
1225.0
1230.0
1232.0
1236.0
1237.0
1241.0
1246.0
1248.0
1252.0
1253.0
1253.0
1250.0
1249.0
1247.0
1245.0
1241.0
1236.0
1227.0
1226.0
1222.0
1220.0
1217.0
1216.0
1211.0
1203.0
1195.0
1186.0
1178.0
1175.0
1174.0
1171.0
1170.0
1163.0
1157.0
1147.0
1138.0
1127.0
1120.0
1110.0
1105.0
1098.0
1090.0
1085.0
1076.0
1074.0
1068.0
1064.0
1055.0
1047.0
1043.0
1036.0
1035.0
1031.0
1033.0
1035.0
1040.0
1039.0
1038.0
1037.0
1032.0
1033.0
1034.0
1037.0
1038.0
1040.0
1044.0
1047.0
1052.0
1060.0
1067.0
1074.0
1078.0
1079.0
1083.0
1081.0
1081.0
1076.0
1078.0
1078.0
1078.0
1069.0
1059.0
1045.0
1030.0
1015.0
1008.0
1006.0
1005.0
1004.0
1003.0
1002.0
1001.0
996.0
1000.0
1000.0
1000.0
1000.0
999.0
996.0
993.0
988.0
986.0
991.0
992.0
989.0
993.0
991.0
989.0
985.0
983.0
975.0
972.0
966.0
960.0
967.0
983.0
1016.0
1067.0
1135.0
1213.0
1300.0
1382.0
1446.0
1480.0
1473.0
1429.0
1363.0
1278.0
1188.0
1095.0
1011.0
937.0
876.0
832.0
808.0
809.0
826.0
849.0
875.0
896.0
913.0
920.0
924.0
920.0
914.0
909.0
908.0
903.0
899.0
898.0
900.0
898.0
901.0
903.0
904.0
903.0
900.0
896.0
894.0
893.0
893.0
894.0
897.0
898.0
900.0
903.0
902.0
904.0
904.0
907.0
912.0
911.0
912.0
913.0
916.0
917.0
925.0
931.0
937.0
941.0
946.0
946.0
945.0
946.0
948.0
949.0
957.0
966.0
976.0
984.0
986.0
992.0
996.0
1004.0
1008.0
1015.0
1021.0
1027.0
1033.0
1037.0
1040.0
1047.0
1053.0
1063.0
1069.0
1075.0
1079.0
1084.0
1083.0
1084.0
1094.0
1100.0
1103.0
1108.0
1106.0
1108.0
1104.0
1102.0
1103.0
1103.0
1102.0
1101.0
1099.0
1097.0
1093.0
1088.0
1085.0
1078.0
1076.0
1072.0
1066.0
1059.0
1051.0
1045.0
1039.0
1036.0
1035.0
1033.0
1030.0
1028.0
1020.0
1012.0
1006.0
997.0
992.0
988.0
988.0
984.0
981.0
978.0
974.0
973.0
971.0
969.0
967.0
962.0
962.0
958.0
957.0
958.0
959.0
964.0
967.0
970.0
968.0
968.0
966.0
965.0
963.0
963.0
967.0
972.0
979.0
988.0
992.0
997.0
1001.0
1005.0
1008.0
1012.0
1016.0
1017.0
1019.0
1019.0
1023.0
1025.0
1024.0
1025.0
1024.0
1019.0
1012.0
999.0
984.0
971.0
962.0
957.0
953.0
951.0
951.0
951.0
948.0
944.0
942.0
942.0
940.0
944.0
945.0
947.0
945.0
945.0
944.0
943.0
943.0
944.0
942.0
941.0
939.0
938.0
935.0
934.0
931.0
928.0
925.0
924.0
925.0
935.0
956.0
998.0
1054.0
1126.0
1211.0
1294.0
1376.0
1438.0
1464.0
1454.0
1410.0
1343.0
1267.0
1186.0
1107.0
1034.0
967.0
902.0
853.0
822.0
816.0
831.0
858.0
882.0
899.0
906.0
901.0
895.0
889.0
885.0
883.0
883.0
881.0
881.0
880.0
877.0
877.0
875.0
874.0
871.0
869.0
868.0
866.0
868.0
868.0
871.0
870.0
866.0
864.0
862.0
860.0
862.0
864.0
869.0
870.0
871.0
870.0
867.0
868.0
869.0
869.0
873.0
875.0
880.0
883.0
885.0
891.0
896.0
904.0
909.0
916.0
920.0
923.0
927.0
932.0
940.0
945.0
955.0
963.0
971.0
980.0
986.0
993.0
999.0
1008.0
1018.0
1025.0
1032.0
1038.0
1043.0
1052.0
1058.0
1066.0
1072.0
1077.0
1079.0
1080.0
1080.0
1079.0
1081.0
1084.0
1085.0
1092.0
1092.0
1093.0
1091.0
1089.0
1085.0
1082.0
1080.0
1076.0
1072.0
1067.0
1063.0
1060.0
1058.0
1051.0
1050.0
1046.0
1042.0
1037.0
1030.0
1025.0
1021.0
1017.0
1016.0
1014.0
1011.0
1005.0
1004.0
999.0
995.0
994.0
993.0
991.0
990.0
991.0
990.0
987.0
987.0
991.0
994.0
994.0
995.0
997.0
998.0
999.0
1004.0
1009.0
1016.0
1022.0
1029.0
1031.0
1034.0
1035.0
1038.0
1039.0
1040.0
1035.0
1028.0
1016.0
1004.0
991.0
981.0
973.0
967.0
962.0
959.0
957.0
956.0
954.0
956.0
956.0
958.0
961.0
960.0
961.0
959.0
958.0
957.0
957.0
958.0
959.0
959.0
959.0
958.0
957.0
958.0
960.0
958.0
954.0
952.0
949.0
956.0
973.0
1013.0
1067.0
1131.0
1200.0
1272.0
1346.0
1406.0
1452.0
1471.0
1456.0
1412.0
1348.0
1271.0
1188.0
1108.0
1034.0
979.0
930.0
900.0
890.0
892.0
910.0
933.0
950.0
961.0
964.0
963.0
960.0
957.0
957.0
955.0
956.0
957.0
956.0
957.0
957.0
960.0
964.0
963.0
961.0
961.0
959.0
955.0
955.0
955.0
958.0
961.0
962.0
960.0
960.0
959.0
961.0
969.0
971.0
975.0
979.0
979.0
979.0
981.0
983.0
987.0
992.0
997.0
1001.0
1007.0
1012.0
1017.0
1023.0
1032.0
1041.0
1049.0
1056.0
1060.0
1066.0
1072.0
1078.0
1085.0
1090.0
1102.0
1107.0
1112.0
1116.0
1120.0
1126.0
1131.0
1135.0
1144.0
1150.0
1156.0
1158.0
1158.0
1157.0
1158.0
1158.0
1159.0
1160.0
1160.0
1157.0
1155.0
1154.0
1152.0
1149.0
1146.0
1139.0
1139.0
1134.0
1124.0
1118.0
1113.0
1109.0
1106.0
1103.0
1100.0
1094.0
1089.0
1081.0
1074.0
1070.0
1063.0
1059.0
1053.0
1044.0
1037.0
1032.0
1027.0
1022.0
1017.0
1015.0
1008.0
1000.0
994.0
986.0
979.0
975.0
970.0
968.0
967.0
968.0
961.0
957.0
952.0
950.0
948.0
948.0
953.0
954.0
956.0
959.0
958.0
960.0
961.0
961.0
959.0
962.0
965.0
966.0
974.0
982.0
991.0
999.0
1004.0
1008.0
1011.0
1011.0
1013.0
1014.0
1016.0
1016.0
1012.0
1008.0
1001.0
991.0
979.0
965.0
955.0
947.0
942.0
937.0
933.0
930.0
928.0
927.0
932.0
935.0
938.0
940.0
937.0
936.0
930.0
928.0
924.0
922.0
925.0
929.0
932.0
935.0
934.0
930.0
927.0
924.0
919.0
913.0
909.0
910.0
918.0
942.0
984.0
1043.0
1117.0
1204.0
1291.0
1368.0
1427.0
1461.0
1458.0
1420.0
1358.0
1282.0
1196.0
1106.0
1020.0
940.0
865.0
812.0
772.0
760.0
768.0
791.0
818.0
840.0
858.0
863.0
864.0
860.0
856.0
852.0
848.0
846.0
842.0
843.0
842.0
843.0
845.0
845.0
847.0
846.0
845.0
839.0
835.0
835.0
836.0
834.0
834.0
834.0
836.0
837.0
837.0
839.0
846.0
848.0
848.0
851.0
848.0
846.0
848.0
848.0
852.0
856.0
864.0
869.0
873.0
879.0
881.0
882.0
886.0
890.0
894.0
900.0
905.0
911.0
916.0
921.0
927.0
934.0
938.0
947.0
950.0
953.0
954.0
959.0
965.0
972.0
981.0
991.0
998.0
1004.0
1008.0
1011.0
1014.0
1019.0
1022.0
1027.0
1033.0
1036.0
1036.0
1036.0
1039.0
1037.0
1038.0
1037.0
1034.0
1033.0
1029.0
1026.0
1023.0
1018.0
1016.0
1012.0
1009.0
1005.0
999.0
992.0
985.0
