# Simple Text Format
# Sampling Rate (Hz):= 360.00
# Resolution:= 12
# Labels:= ECG
977.0
979.0
979.0
980.0
977.0
976.0
975.0
978.0
975.0
975.0
967.0
967.0
964.0
967.0
968.0
969.0
970.0
966.0
966.0
967.0
969.0
969.0
967.0
964.0
963.0
966.0
969.0
969.0
967.0
963.0
965.0
970.0
971.0
970.0
968.0
965.0
963.0
964.0
967.0
965.0
965.0
963.0
960.0
963.0
967.0
969.0
966.0
964.0
961.0
958.0
964.0
967.0
974.0
985.0
1005.0
1030.0
1053.0
1082.0
1108.0
1129.0
1144.0
1151.0
1141.0
1116.0
1072.0
1006.0
938.0
879.0
845.0
843.0
865.0
885.0
901.0
918.0
935.0
947.0
953.0
956.0
959.0
965.0
969.0
969.0
969.0
968.0
969.0
971.0
976.0
977.0
976.0
974.0
975.0
983.0
985.0
983.0
979.0
979.0
982.0
984.0
986.0
994.0
994.0
993.0
996.0
1002.0
1007.0
1009.0
1010.0
1010.0
1012.0
1019.0
1023.0
1025.0
1026.0
1027.0
1030.0
1035.0
1042.0
1044.0
1041.0
1042.0
1043.0
1048.0
1053.0
1053.0
1052.0
1049.0
1047.0
1050.0
1052.0
1050.0
1048.0
1046.0
1045.0
1049.0
1050.0
1048.0
1043.0
1039.0
1034.0
1031.0
1030.0
1024.0
1017.0
1010.0
1007.0
1004.0
1002.0
998.0
991.0
988.0
984.0
984.0
987.0
983.0
979.0
974.0
971.0
971.0
974.0
973.0
969.0
966.0
966.0
971.0
973.0
972.0
970.0
968.0
968.0
968.0
971.0
967.0
964.0
963.0
963.0
968.0
971.0
970.0
970.0
969.0
969.0
973.0
976.0
976.0
975.0
973.0
974.0
977.0
980.0
982.0
982.0
981.0
982.0
987.0
992.0
991.0
988.0
982.0
978.0
978.0
981.0
981.0
977.0
972.0
972.0
970.0
973.0
973.0
970.0
971.0
971.0
973.0
974.0
970.0
963.0
963.0
962.0
960.0
966.0
966.0
963.0
963.0
963.0
965.0
969.0
969.0
968.0
965.0
967.0
967.0
969.0
967.0
963.0
962.0
965.0
967.0
969.0
968.0
964.0
962.0
962.0
966.0
969.0
970.0
968.0
964.0
965.0
967.0
969.0
969.0
967.0
962.0
963.0
962.0
964.0
962.0
964.0
969.0
988.0
1017.0
1045.0
1072.0
1095.0
1122.0
1148.0
1170.0
1185.0
1183.0
1163.0
1132.0
1100.0
1050.0
996.0
937.0
885.0
851.0
840.0
853.0
878.0
894.0
907.0
921.0
934.0
948.0
957.0
960.0
964.0
961.0
964.0
968.0
973.0
975.0
974.0
972.0
972.0
978.0
980.0
981.0
978.0
977.0
979.0
985.0
986.0
991.0
989.0
989.0
988.0
992.0
998.0
997.0
996.0
996.0
1001.0
1008.0
1013.0
1016.0
1016.0
1017.0
1022.0
1028.0
1031.0
1037.0
1039.0
1036.0
1038.0
1041.0
1049.0
1050.0
1047.0
1045.0
1048.0
1052.0
1058.0
1056.0
1055.0
1054.0
1055.0
1057.0
1058.0
1055.0
1051.0
1047.0
1042.0
1042.0
1041.0
1038.0
1033.0
1027.0
1024.0
1022.0
1018.0
1014.0
1005.0
1000.0
995.0
994.0
992.0
991.0
985.0
978.0
977.0
976.0
980.0
979.0
975.0
970.0
970.0
971.0
970.0
971.0
967.0
966.0
965.0
967.0
970.0
968.0
966.0
963.0
963.0
967.0
972.0
969.0
967.0
963.0
964.0
969.0
974.0
974.0
971.0
969.0
971.0
972.0
977.0
979.0
978.0
977.0
982.0
985.0
988.0
988.0
984.0
975.0
974.0
975.0
976.0
975.0
974.0
971.0
967.0
967.0
971.0
968.0
964.0
964.0
967.0
967.0
964.0
960.0
956.0
956.0
955.0
958.0
963.0
961.0
962.0
959.0
959.0
962.0
964.0
962.0
962.0
959.0
959.0
962.0
965.0
966.0
962.0
961.0
960.0
963.0
965.0
966.0
963.0
960.0
958.0
960.0
964.0
961.0
960.0
958.0
960.0
963.0
963.0
964.0
962.0
959.0
956.0
957.0
960.0
962.0
970.0
988.0
1016.0
1048.0
1075.0
1103.0
1131.0
1156.0
1173.0
1187.0
1183.0
1158.0
1132.0
1098.0
1052.0
993.0
932.0
875.0
838.0
829.0
846.0
867.0
891.0
906.0
918.0
928.0
941.0
951.0
958.0
961.0
958.0
957.0
957.0
961.0
966.0
968.0
969.0
965.0
965.0
970.0
977.0
978.0
978.0
978.0
976.0
980.0
981.0
983.0
980.0
984.0
985.0
990.0
995.0
997.0
997.0
1000.0
1002.0
1006.0
1012.0
1013.0
1015.0
1013.0
1019.0
1023.0
1030.0
1033.0
1032.0
1033.0
1036.0
1041.0
1047.0
1049.0
1047.0
1049.0
1048.0
1052.0
1056.0
1056.0
1054.0
1052.0
1053.0
1056.0
1060.0
1058.0
1054.0
1048.0
1046.0
1048.0
1047.0
1042.0
1036.0
1030.0
1025.0
1020.0
1020.0
1014.0
1006.0
1003.0
998.0
998.0
997.0
994.0
989.0
987.0
984.0
982.0
984.0
979.0
974.0
971.0
969.0
971.0
972.0
970.0
967.0
967.0
968.0
970.0
970.0
968.0
966.0
963.0
960.0
964.0
968.0
969.0
966.0
965.0
966.0
966.0
970.0
970.0
970.0
968.0
971.0
974.0
978.0
976.0
975.0
975.0
975.0
979.0
985.0
990.0
990.0
988.0
990.0
989.0
987.0
980.0
979.0
977.0
971.0
974.0
974.0
970.0
960.0
958.0
958.0
958.0
962.0
966.0
966.0
963.0
959.0
955.0
956.0
953.0
950.0
952.0
952.0
955.0
959.0
960.0
956.0
955.0
957.0
960.0
966.0
962.0
957.0
954.0
956.0
955.0
958.0
962.0
960.0
960.0
960.0
961.0
963.0
963.0
960.0
961.0
961.0
963.0
967.0
964.0
961.0
956.0
956.0
959.0
962.0
956.0
955.0
951.0
955.0
968.0
989.0
1016.0
1047.0
1078.0
1109.0
1143.0
1169.0
1180.0
1175.0
1149.0
1120.0
1089.0
1047.0
984.0
917.0
863.0
830.0
837.0
856.0
877.0
890.0
901.0
917.0
934.0
948.0
956.0
959.0
958.0
961.0
962.0
967.0
964.0
966.0
963.0
965.0
970.0
974.0
971.0
970.0
974.0
979.0
987.0
995.0
995.0
991.0
984.0
978.0
981.0
984.0
989.0
992.0
991.0
994.0
1000.0
1010.0
1013.0
1016.0
1017.0
1019.0
1023.0
1030.0
1034.0
1036.0
1036.0
1037.0
1042.0
1047.0
1051.0
1052.0
1048.0
1052.0
1055.0
1059.0
1055.0
1053.0
1050.0
1051.0
1052.0
1050.0
1044.0
1038.0
1031.0
1028.0
1026.0
1025.0
1022.0
1013.0
1010.0
1002.0
998.0
994.0
995.0
990.0
983.0
977.0
977.0
979.0
978.0
977.0
974.0
970.0
970.0
971.0
968.0
964.0
962.0
962.0
967.0
970.0
969.0
966.0
967.0
965.0
970.0
971.0
969.0
968.0
966.0
968.0
972.0
974.0
975.0
974.0
973.0
975.0
982.0
989.0
984.0
982.0
980.0
984.0
990.0
990.0
985.0
977.0
974.0
974.0
974.0
977.0
977.0
971.0
966.0
966.0
968.0
970.0
972.0
967.0
963.0
962.0
965.0
966.0
966.0
964.0
962.0
963.0
961.0
962.0
962.0
959.0
959.0
961.0
965.0
969.0
969.0
968.0
967.0
966.0
964.0
962.0
960.0
958.0
957.0
961.0
967.0
968.0
969.0
967.0
964.0
966.0
965.0
966.0
965.0
963.0
957.0
954.0
959.0
970.0
987.0
1016.0
1048.0
1077.0
1115.0
1146.0
1165.0
1171.0
1154.0
1122.0
1084.0
1029.0
949.0
874.0
827.0
824.0
856.0
890.0
914.0
929.0
940.0
949.0
961.0
969.0
970.0
966.0
962.0
962.0
967.0
974.0
973.0
974.0
970.0
972.0
976.0
979.0
978.0
978.0
982.0
988.0
995.0
995.0
991.0
990.0
991.0
999.0
1005.0
1013.0
1014.0
1013.0
1011.0
1012.0
1017.0
1019.0
1023.0
1028.0
1029.0
1031.0
1038.0
1043.0
1046.0
1047.0
1047.0
1049.0
1053.0
1058.0
1058.0
1058.0
1058.0
1059.0
1061.0
1064.0
1067.0
1063.0
1055.0
1048.0
1045.0
1045.0
1044.0
1039.0
1039.0
1034.0
1025.0
1021.0
1014.0
1008.0
1001.0
1000.0
999.0
999.0
995.0
988.0
981.0
976.0
978.0
983.0
983.0
977.0
970.0
971.0
976.0
982.0
981.0
978.0
975.0
973.0
978.0
980.0
978.0
974.0
972.0
975.0
981.0
985.0
986.0
980.0
977.0
976.0
979.0
981.0
981.0
982.0
983.0
979.0
981.0
988.0
991.0
995.0
998.0
999.0
1000.0
999.0
992.0
984.0
978.0
978.0
984.0
987.0
984.0
982.0
978.0
978.0
981.0
982.0
979.0
977.0
969.0
969.0
970.0
976.0
971.0
967.0
964.0
965.0
969.0
973.0
973.0
972.0
967.0
964.0
965.0
967.0
970.0
970.0
968.0
970.0
971.0
973.0
974.0
973.0
969.0
972.0
973.0
973.0
970.0
967.0
964.0
968.0
973.0
977.0
976.0
973.0
968.0
968.0
977.0
992.0
1012.0
1036.0
1063.0
1096.0
1130.0
1153.0
1160.0
1145.0
1115.0
1081.0
1033.0
971.0
909.0
860.0
836.0
851.0
879.0
902.0
915.0
928.0
944.0
958.0
967.0
969.0
971.0
971.0
973.0
972.0
977.0
984.0
987.0
983.0
983.0
985.0
990.0
995.0
993.0
990.0
990.0
992.0
997.0
1001.0
1004.0
1004.0
1005.0
1010.0
1014.0
1020.0
1022.0
1025.0
1024.0
1027.0
1034.0
1041.0
1043.0
1041.0
1042.0
1049.0
1055.0
1063.0
1065.0
1070.0
1065.0
1063.0
1061.0
1063.0
1061.0
1063.0
1063.0
1063.0
1064.0
1064.0
1059.0
1054.0
1050.0
1047.0
1046.0
1043.0
1035.0
1031.0
1024.0
1018.0
1016.0
1017.0
1015.0
1009.0
997.0
998.0
994.0
994.0
992.0
991.0
987.0
984.0
984.0
987.0
987.0
984.0
983.0
984.0
985.0
986.0
985.0
982.0
980.0
979.0
980.0
981.0
983.0
984.0
984.0
985.0
984.0
987.0
984.0
985.0
985.0
989.0
994.0
995.0
997.0
997.0
999.0
1004.0
1005.0
1009.0
1007.0
1005.0
997.0
999.0
997.0
994.0
991.0
987.0
987.0
992.0
1000.0
1008.0
1011.0
1015.0
1014.0
1015.0
1024.0
1032.0
1045.0
1060.0
1081.0
1107.0
1136.0
1163.0
1190.0
1220.0
1260.0
1302.0
1341.0
1370.0
1386.0
1395.0
1404.0
1415.0
1427.0
1423.0
1400.0
1361.0
1304.0
1210.0
1119.0
1070.0
1052.0
1035.0
1006.0
956.0
917.0
899.0
887.0
875.0
867.0
865.0
863.0
864.0
865.0
867.0
876.0
890.0
898.0
903.0
902.0
902.0
903.0
904.0
906.0
904.0
900.0
893.0
892.0
892.0
895.0
896.0
897.0
895.0
896.0
897.0
899.0
899.0
897.0
893.0
893.0
896.0
899.0
901.0
900.0
900.0
894.0
898.0
904.0
909.0
914.0
914.0
915.0
919.0
924.0
929.0
934.0
935.0
937.0
940.0
946.0
957.0
961.0
964.0
963.0
966.0
971.0
974.0
977.0
976.0
976.0
982.0
987.0
987.0
984.0
982.0
981.0
982.0
984.0
984.0
981.0
974.0
973.0
975.0
976.0
981.0
976.0
975.0
975.0
975.0
980.0
989.0
986.0
981.0
981.0
979.0
987.0
992.0
1000.0
1009.0
1016.0
1031.0
1048.0
1067.0
1085.0
1098.0
1116.0
1133.0
1155.0
1178.0
1206.0
1238.0
1269.0
1311.0
1352.0
1392.0
1422.0
1442.0
1447.0
1452.0
1461.0
1468.0
1454.0
1413.0
1348.0
1274.0
1176.0
1072.0
983.0
926.0
900.0
892.0
890.0
894.0
891.0
894.0
897.0
904.0
913.0
915.0
905.0
900.0
902.0
908.0
909.0
906.0
899.0
891.0
888.0
886.0
886.0
883.0
877.0
871.0
870.0
872.0
875.0
873.0
871.0
868.0
869.0
866.0
864.0
859.0
854.0
858.0
858.0
860.0
864.0
872.0
877.0
878.0
877.0
878.0
883.0
889.0
892.0
891.0
892.0
896.0
907.0
914.0
916.0
919.0
921.0
927.0
934.0
941.0
945.0
950.0
953.0
958.0
965.0
969.0
968.0
965.0
964.0
969.0
974.0
977.0
974.0
976.0
976.0
973.0
971.0
972.0
971.0
970.0
968.0
966.0
967.0
972.0
970.0
970.0
967.0
967.0
969.0
969.0
967.0
966.0
965.0
968.0
969.0
973.0
973.0
972.0
970.0
967.0
971.0
974.0
976.0
975.0
973.0
974.0
970.0
971.0
975.0
971.0
972.0
977.0
976.0
978.0
978.0
977.0
977.0
978.0
977.0
974.0
972.0
973.0
971.0
975.0
981.0
980.0
976.0
973.0
970.0
972.0
975.0
978.0
977.0
975.0
972.0
974.0
975.0
977.0
977.0
975.0
971.0
975.0
976.0
979.0
977.0
973.0
974.0
977.0
979.0
979.0
977.0
975.0
977.0
979.0
978.0
976.0
971.0
970.0
969.0
968.0
970.0
974.0
973.0
975.0
974.0
977.0
980.0
985.0
983.0
976.0
976.0
974.0
975.0
976.0
977.0
977.0
975.0
974.0
978.0
983.0
982.0
981.0
982.0
983.0
987.0
984.0
985.0
984.0
982.0
985.0
991.0
991.0
990.0
988.0
988.0
991.0
1001.0
1006.0
1005.0
1001.0
993.0
991.0
991.0
991.0
992.0
988.0
984.0
981.0
983.0
985.0
985.0
986.0
987.0
986.0
985.0
986.0
981.0
977.0
978.0
980.0
981.0
981.0
978.0
971.0
970.0
975.0
977.0
980.0
977.0
977.0
976.0
980.0
984.0
987.0
984.0
977.0
974.0
973.0
978.0
982.0
983.0
982.0
982.0
988.0
987.0
983.0
979.0
975.0
975.0
975.0
981.0
985.0
983.0
980.0
977.0
979.0
991.0
1005.0
1022.0
1050.0
1072.0
1098.0
1133.0
1166.0
1185.0
1189.0
1182.0
1156.0
1125.0
1075.0
1002.0
929.0
878.0
859.0
872.0
896.0
913.0
927.0
940.0
953.0
967.0
974.0
980.0
979.0
980.0
984.0
986.0
991.0
988.0
983.0
980.0
985.0
995.0
998.0
999.0
992.0
991.0
996.0
1000.0
1001.0
999.0
996.0
997.0
1005.0
1014.0
1016.0
1011.0
1007.0
1010.0
1015.0
1021.0
1030.0
1035.0
1037.0
1035.0
1031.0
1033.0
1031.0
1035.0
1038.0
1039.0
1044.0
1049.0
1056.0
1059.0
1055.0
1052.0
1056.0
1060.0
1062.0
1065.0
1061.0
1056.0
1054.0
1056.0
1058.0
1057.0
1057.0
1056.0
1057.0
1052.0
1057.0
1058.0
1055.0
1049.0
1042.0
1044.0
1048.0
1043.0
1036.0
1030.0
1027.0
1029.0
1030.0
1026.0
1018.0
1015.0
1017.0
1019.0
1016.0
1007.0
1002.0
996.0
997.0
1000.0
1003.0
998.0
989.0
986.0
990.0
993.0
994.0
993.0
991.0
992.0
993.0
991.0
986.0
983.0
982.0
982.0
987.0
991.0
993.0
992.0
991.0
993.0
993.0
999.0
1005.0
1004.0
1003.0
999.0
999.0
1003.0
1004.0
1004.0
1004.0
1005.0
1006.0
1012.0
1012.0
1006.0
998.0
995.0
999.0
1004.0
1007.0
1004.0
997.0
991.0
989.0
994.0
1002.0
1006.0
1006.0
998.0
995.0
998.0
995.0
989.0
985.0
985.0
986.0
992.0
993.0
993.0
990.0
990.0
991.0
992.0
996.0
993.0
989.0
987.0
988.0
989.0
988.0
991.0
991.0
989.0
988.0
990.0
992.0
988.0
989.0
987.0
986.0
985.0
986.0
983.0
984.0
983.0
985.0
990.0
992.0
984.0
977.0
971.0
976.0
996.0
1022.0
1050.0
1070.0
1091.0
1129.0
1162.0
1185.0
1193.0
1185.0
1161.0
1136.0
1103.0
1050.0
981.0
915.0
871.0
859.0
876.0
898.0
913.0
925.0
941.0
958.0
969.0
977.0
980.0
983.0
985.0
988.0
989.0
990.0
992.0
994.0
996.0
1000.0
1000.0
1004.0
1006.0
1004.0
1003.0
1006.0
1008.0
1014.0
1015.0
1010.0
1009.0
1007.0
1014.0
1018.0
1019.0
1017.0
1020.0
1027.0
1034.0
1039.0
1040.0
1039.0
1044.0
1050.0
1055.0
1059.0
1059.0
1063.0
1065.0
1064.0
1069.0
1069.0
1070.0
1070.0
1067.0
1067.0
1069.0
1069.0
1074.0
1074.0
1073.0
1070.0
1070.0
1066.0
1062.0
1056.0
1053.0
1053.0
1055.0
1053.0
1049.0
1038.0
1031.0
1025.0
1026.0
1026.0
1023.0
1016.0
1009.0
1010.0
1010.0
1010.0
1003.0
993.0
987.0
990.0
994.0
994.0
992.0
991.0
990.0
982.0
984.0
986.0
986.0
983.0
979.0
977.0
984.0
986.0
985.0
984.0
983.0
986.0
987.0
988.0
983.0
979.0
984.0
988.0
993.0
995.0
994.0
993.0
990.0
988.0
993.0
998.0
1001.0
1002.0
1001.0
999.0
1002.0
1007.0
1006.0
1000.0
996.0
993.0
991.0
990.0
987.0
986.0
985.0
989.0
992.0
990.0
987.0
984.0
981.0
978.0
976.0
979.0
979.0
978.0
978.0
980.0
982.0
985.0
982.0
981.0
979.0
976.0
975.0
977.0
981.0
981.0
980.0
977.0
981.0
981.0
977.0
975.0
972.0
976.0
979.0
981.0
978.0
976.0
972.0
977.0
979.0
980.0
976.0
975.0
975.0
978.0
984.0
985.0
983.0
981.0
972.0
972.0
978.0
991.0
1010.0
1040.0
1074.0
1104.0
1133.0
1160.0
1182.0
1195.0
1201.0
1193.0
1164.0
1131.0
1095.0
1045.0
986.0
924.0
877.0
851.0
853.0
867.0
888.0
906.0
923.0
941.0
954.0
961.0
966.0
969.0
974.0
977.0
979.0
974.0
974.0
977.0
988.0
993.0
992.0
991.0
988.0
993.0
995.0
996.0
996.0
993.0
989.0
993.0
999.0
1002.0
1006.0
1006.0
1006.0
1009.0
1012.0
1014.0
1016.0
1015.0
1017.0
1022.0
1028.0
1030.0
1033.0
1033.0
1035.0
1038.0
1043.0
1047.0
1049.0
1049.0
1052.0
1058.0
1063.0
1066.0
1063.0
1063.0
1061.0
1062.0
1065.0
1071.0
1073.0
1071.0
1069.0
1068.0
1066.0
1064.0
1065.0
1062.0
1060.0
1060.0
1062.0
1054.0
1044.0
1036.0
1033.0
1029.0
1031.0
1028.0
1022.0
1017.0
1012.0
1009.0
1009.0
1007.0
1006.0
999.0
995.0
993.0
992.0
992.0
988.0
985.0
982.0
984.0
983.0
986.0
983.0
978.0
978.0
984.0
988.0
985.0
979.0
976.0
975.0
981.0
984.0
984.0
980.0
975.0
974.0
981.0
984.0
980.0
975.0
974.0
976.0
982.0
986.0
988.0
983.0
979.0
982.0
989.0
996.0
1000.0
997.0
997.0
997.0
998.0
999.0
997.0
994.0
991.0
987.0
986.0
989.0
989.0
991.0
987.0
982.0
983.0
985.0
986.0
985.0
985.0
982.0
985.0
984.0
978.0
970.0
972.0
974.0
975.0
978.0
981.0
978.0
976.0
974.0
975.0
980.0
981.0
980.0
973.0
971.0
972.0
977.0
980.0
981.0
977.0
977.0
975.0
977.0
982.0
978.0
978.0
979.0
981.0
981.0
982.0
978.0
974.0
975.0
980.0
987.0
983.0
975.0
966.0
963.0
963.0
972.0
985.0
998.0
1021.0
1046.0
1074.0
1101.0
1131.0
1155.0
1166.0
1166.0
1149.0
1128.0
1107.0
1082.0
1037.0
978.0
920.0
875.0
846.0
843.0
862.0
881.0
900.0
918.0
933.0
947.0
956.0
967.0
976.0
984.0
989.0
985.0
977.0
973.0
972.0
978.0
983.0
986.0
985.0
986.0
987.0
992.0
996.0
996.0
997.0
995.0
998.0
999.0
1001.0
1002.0
1002.0
1000.0
1006.0
1012.0
1015.0
1016.0
1019.0
1023.0
1027.0
1034.0
1040.0
1045.0
1041.0
1037.0
1040.0
1044.0
1051.0
1051.0
1052.0
1054.0
1060.0
1065.0
1068.0
1068.0
1069.0
1067.0
1064.0
1061.0
1064.0
1065.0
1065.0
1061.0
1058.0
1056.0
1058.0
1056.0
1047.0
1036.0
1032.0
1036.0
1033.0
1028.0
1017.0
1011.0
1011.0
1012.0
1011.0
1002.0
995.0
994.0
995.0
993.0
991.0
991.0
989.0
987.0
988.0
987.0
982.0
981.0
978.0
977.0
977.0
981.0
985.0
983.0
979.0
975.0
976.0
980.0
983.0
978.0
976.0
973.0
980.0
988.0
991.0
991.0
989.0
987.0
989.0
991.0
993.0
994.0
998.0
997.0
997.0
999.0
1002.0
998.0
997.0
991.0
990.0
989.0
988.0
984.0
979.0
977.0
979.0
982.0
985.0
983.0
980.0
980.0
984.0
987.0
985.0
980.0
977.0
977.0
979.0
981.0
980.0
979.0
977.0
978.0
973.0
973.0
975.0
977.0
976.0
973.0
976.0
977.0
983.0
985.0
985.0
976.0
973.0
973.0
978.0
975.0
975.0
976.0
977.0
979.0
980.0
977.0
975.0
973.0
977.0
982.0
983.0
979.0
973.0
969.0
969.0
974.0
982.0
994.0
1012.0
1037.0
1062.0
1086.0
1116.0
1139.0
1153.0
1154.0
1137.0
1114.0
1081.0
1029.0
968.0
914.0
874.0
852.0
859.0
874.0
887.0
895.0
906.0
926.0
947.0
961.0
967.0
971.0
978.0
979.0
984.0
983.0
982.0
983.0
984.0
990.0
990.0
990.0
986.0
989.0
989.0
990.0
992.0
994.0
996.0
998.0
999.0
1002.0
1006.0
1006.0
1006.0
1009.0
1010.0
1012.0
1015.0
1017.0
1019.0
1021.0
1026.0
1031.0
1034.0
1036.0
1035.0
1039.0
1046.0
1051.0
1054.0
1057.0
1056.0
1058.0
1061.0
1064.0
1067.0
1068.0
1061.0
1058.0
1058.0
1066.0
1069.0
1072.0
1073.0
1071.0
1066.0
1063.0
1060.0
1063.0
1062.0
1056.0
1055.0
1049.0
1047.0
1043.0
1037.0
1034.0
1033.0
1032.0
1030.0
1024.0
1015.0
1007.0
1007.0
1004.0
999.0
997.0
993.0
994.0
995.0
994.0
993.0
989.0
982.0
982.0
984.0
987.0
986.0
984.0
984.0
984.0
986.0
988.0
988.0
984.0
978.0
977.0
984.0
988.0
988.0
984.0
978.0
974.0
975.0
981.0
985.0
985.0
985.0
986.0
989.0
994.0
996.0
992.0
993.0
994.0
1000.0
1002.0
1002.0
999.0
998.0
1001.0
1004.0
1001.0
999.0
993.0
987.0
987.0
991.0
996.0
998.0
993.0
990.0
983.0
982.0
986.0
990.0
992.0
988.0
986.0
986.0
987.0
990.0
987.0
982.0
979.0
977.0
979.0
984.0
981.0
979.0
978.0
980.0
984.0
985.0
982.0
980.0
977.0
978.0
980.0
982.0
981.0
982.0
983.0
984.0
984.0
982.0
980.0
980.0
982.0
984.0
989.0
990.0
984.0
977.0
971.0
971.0
975.0
976.0
985.0
1003.0
1026.0
1051.0
1079.0
1106.0
1132.0
1152.0
1163.0
1163.0
1144.0
1115.0
1065.0
1000.0
935.0
884.0
858.0
856.0
881.0
902.0
921.0
939.0
958.0
967.0
967.0
966.0
971.0
977.0
984.0
986.0
983.0
980.0
981.0
985.0
993.0
993.0
993.0
993.0
994.0
993.0
999.0
1002.0
1001.0
995.0
995.0
1001.0
1010.0
1015.0
1014.0
1011.0
1011.0
1017.0
1023.0
1031.0
1036.0
1033.0
1035.0
1039.0
1046.0
1050.0
1050.0
1048.0
1051.0
1058.0
1064.0
1067.0
1067.0
1063.0
1064.0
1070.0
1077.0
1082.0
1081.0
1077.0
1070.0
1065.0
1066.0
1071.0
1070.0
1062.0
1061.0
1063.0
1061.0
1060.0
1049.0
1040.0
1032.0
1030.0
1026.0
1022.0
1019.0
1017.0
1015.0
1009.0
1013.0
1005.0
997.0
989.0
986.0
989.0
993.0
994.0
993.0
989.0
989.0
993.0
997.0
1001.0
995.0
990.0
985.0
985.0
988.0
993.0
991.0
985.0
981.0
980.0
984.0
989.0
994.0
992.0
987.0
982.0
983.0
989.0
990.0
992.0
991.0
990.0
991.0
992.0
994.0
996.0
1000.0
1003.0
1006.0
1007.0
1005.0
1005.0
1006.0
1002.0
1002.0
998.0
993.0
992.0
989.0
990.0
992.0
993.0
988.0
987.0
986.0
991.0
996.0
995.0
990.0
981.0
983.0
988.0
992.0
991.0
988.0
983.0
982.0
986.0
990.0
989.0
984.0
980.0
981.0
985.0
988.0
992.0
990.0
979.0
977.0
978.0
983.0
987.0
987.0
982.0
981.0
985.0
988.0
986.0
983.0
980.0
982.0
984.0
990.0
990.0
984.0
978.0
978.0
981.0
984.0
986.0
994.0
1005.0
1025.0
1050.0
1074.0
1103.0
1128.0
1158.0
1177.0
1195.0
1201.0
1190.0
1158.0
1119.0
1069.0
1016.0
963.0
911.0
868.0
851.0
860.0
885.0
907.0
927.0
942.0
950.0
962.0
972.0
979.0
984.0
985.0
988.0
986.0
985.0
984.0
986.0
987.0
989.0
990.0
992.0
999.0
1007.0
1011.0
1013.0
1010.0
1008.0
1009.0
1010.0
1010.0
1010.0
1009.0
1014.0
1020.0
1031.0
1033.0
1033.0
1029.0
1035.0
1044.0
1046.0
1045.0
1046.0
1047.0
1055.0
1061.0
1066.0
1066.0
1069.0
1069.0
1072.0
1074.0
1077.0
1080.0
1080.0
1076.0
1076.0
1080.0
1075.0
1068.0
1070.0
1071.0
1076.0
1079.0
1076.0
1069.0
1062.0
1056.0
1054.0
1055.0
1046.0
1033.0
1020.0
1019.0
1016.0
1014.0
1010.0
1002.0
997.0
994.0
993.0
997.0
997.0
994.0
990.0
988.0
989.0
992.0
991.0
988.0
987.0
987.0
988.0
988.0
990.0
990.0
992.0
995.0
995.0
989.0
980.0
982.0
987.0
991.0
993.0
993.0
999.0
1002.0
997.0
991.0
990.0
994.0
996.0
1004.0
1008.0
1011.0
1004.0
999.0
994.0
990.0
987.0
991.0
995.0
998.0
994.0
992.0
993.0
995.0
993.0
985.0
971.0
967.0
968.0
981.0
986.0
988.0
986.0
981.0
975.0
972.0
971.0
977.0
982.0
982.0
980.0
979.0
981.0
987.0
990.0
989.0
986.0
984.0
980.0
980.0
982.0
982.0
988.0
990.0
990.0
985.0
981.0
977.0
979.0
983.0
986.0
983.0
982.0
981.0
997.0
1030.0
1076.0
1110.0
1141.0
1175.0
1198.0
1208.0
1200.0
1173.0
1133.0
1080.0
1018.0
953.0
903.0
875.0
873.0
887.0
898.0
909.0
928.0
946.0
964.0
974.0
977.0
976.0
976.0
981.0
990.0
992.0
990.0
987.0
988.0
994.0
997.0
997.0
991.0
990.0
995.0
1002.0
1006.0
1012.0
1018.0
1016.0
1015.0
1015.0
1019.0
1018.0
1013.0
1017.0
1023.0
1032.0
1035.0
1038.0
1042.0
1045.0
1047.0
1048.0
1051.0
1051.0
1059.0
1064.0
1069.0
1074.0
1074.0
1073.0
1069.0
1070.0
1076.0
1080.0
1078.0
1075.0
1073.0
1073.0
1076.0
1072.0
1066.0
1059.0
1051.0
1046.0
1045.0
1044.0
1039.0
1031.0
1023.0
1017.0
1013.0
1016.0
1013.0
1004.0
1002.0
1002.0
1001.0
997.0
993.0
988.0
992.0
995.0
995.0
995.0
994.0
995.0
988.0
978.0
970.0
972.0
978.0
983.0
982.0
982.0
983.0
988.0
992.0
992.0
994.0
993.0
995.0
994.0
996.0
992.0
995.0
994.0
993.0
999.0
1002.0
1008.0
1007.0
1003.0
1002.0
998.0
996.0
988.0
982.0
985.0
990.0
993.0
988.0
983.0
979.0
980.0
983.0
984.0
981.0
980.0
976.0
975.0
975.0
976.0
978.0
976.0
975.0
974.0
974.0
977.0
980.0
984.0
982.0
980.0
981.0
981.0
980.0
975.0
973.0
975.0
982.0
987.0
991.0
988.0
976.0
969.0
971.0
979.0
988.0
988.0
985.0
980.0
976.0
973.0
973.0
975.0
978.0
988.0
1007.0
1040.0
1073.0
1102.0
1128.0
1160.0
1185.0
1197.0
1190.0
1159.0
1121.0
1088.0
1041.0
982.0
923.0
876.0
858.0
872.0
896.0
912.0
925.0
935.0
951.0
964.0
975.0
981.0
984.0
981.0
981.0
986.0
995.0
999.0
995.0
989.0
987.0
987.0
995.0
999.0
1008.0
1012.0
1005.0
998.0
997.0
1005.0
1011.0
1011.0
1009.0
1014.0
1021.0
1029.0
1034.0
1037.0
1039.0
1047.0
1056.0
1061.0
1058.0
1051.0
1043.0
1046.0
1056.0
1065.0
1070.0
1069.0
1066.0
1066.0
1070.0
1076.0
1077.0
1077.0
1076.0
1080.0
1082.0
1081.0
1078.0
1071.0
1062.0
1059.0
1058.0
1057.0
1055.0
1051.0
1043.0
1035.0
1035.0
1034.0
1027.0
1013.0
1001.0
994.0
997.0
1006.0
1009.0
1002.0
988.0
983.0
986.0
990.0
994.0
996.0
987.0
982.0
986.0
993.0
999.0
990.0
985.0
987.0
991.0
991.0
987.0
980.0
977.0
972.0
976.0
986.0
989.0
984.0
983.0
984.0
988.0
999.0
1003.0
1001.0
1001.0
1003.0
1005.0
1006.0
1004.0
999.0
991.0
991.0
991.0
991.0
989.0
986.0
985.0
985.0
986.0
988.0
987.0
982.0
973.0
972.0
978.0
981.0
981.0
979.0
978.0
978.0
977.0
979.0
981.0
979.0
971.0
969.0
977.0
984.0
984.0
980.0
977.0
975.0
974.0
978.0
980.0
980.0
977.0
975.0
980.0
981.0
982.0
984.0
979.0
975.0
977.0
982.0
986.0
982.0
984.0
998.0
1021.0
1050.0
1082.0
1114.0
1146.0
1173.0
1186.0
1171.0
1126.0
1076.0
1031.0
982.0
929.0
882.0
855.0
853.0
867.0
887.0
909.0
933.0
953.0
962.0
962.0
967.0
970.0
976.0
979.0
981.0
984.0
986.0
990.0
992.0
987.0
982.0
983.0
994.0
998.0
996.0
991.0
988.0
990.0
1000.0
1008.0
1011.0
1017.0
1015.0
1014.0
1016.0
1020.0
1026.0
1029.0
1029.0
1027.0
1033.0
1038.0
1044.0
1049.0
1050.0
1054.0
1053.0
1059.0
1065.0
1068.0
1067.0
1066.0
1066.0
1070.0
1073.0
1074.0
1077.0
1074.0
1075.0
1069.0
1066.0
1063.0
1058.0
1049.0
1045.0
1036.0
1037.0
1034.0
1031.0
1025.0
1020.0
1019.0
1016.0
1016.0
1008.0
1001.0
997.0
995.0
994.0
990.0
991.0
988.0
989.0
985.0
982.0
979.0
977.0
980.0
980.0
983.0
987.0
987.0
983.0
978.0
976.0
979.0
983.0
985.0
985.0
984.0
983.0
986.0
990.0
990.0
986.0
982.0
980.0
983.0
985.0
987.0
989.0
994.0
996.0
998.0
1000.0
1001.0
1000.0
998.0
997.0
998.0
995.0
992.0
989.0
986.0
986.0
986.0
986.0
985.0
984.0
982.0
980.0
977.0
978.0
976.0
977.0
971.0
970.0
970.0
974.0
975.0
975.0
975.0
975.0
976.0
980.0
979.0
977.0
979.0
981.0
981.0
983.0
985.0
980.0
974.0
970.0
972.0
975.0
978.0
977.0
979.0
979.0
986.0
988.0
981.0
975.0
972.0
976.0
981.0
981.0
983.0
989.0
1004.0
1032.0
1062.0
1095.0
1126.0
1154.0
1172.0
1179.0
1169.0
1139.0
1104.0
1061.0
1008.0
956.0
912.0
878.0
859.0
860.0
874.0
892.0
908.0
928.0
944.0
958.0
962.0
964.0
970.0
977.0
983.0
982.0
984.0
984.0
980.0
979.0
982.0
983.0
980.0
980.0
985.0
996.0
1003.0
1002.0
999.0
1000.0
1007.0
1014.0
1010.0
1007.0
1006.0
1014.0
1023.0
1031.0
1033.0
1036.0
1039.0
1041.0
1042.0
1041.0
1041.0
1043.0
1046.0
1048.0
