# Simple Text Format
# Sampling Rate (Hz):= 360.00
# Resolution:= 12
# Labels:= ECG
1221.0
1198.0
1159.0
1118.0
1057.0
981.0
917.0
882.0
873.0
885.0
907.0
926.0
941.0
962.0
988.0
1007.0
1017.0
1004.0
992.0
981.0
985.0
998.0
1020.0
1030.0
1028.0
1014.0
1003.0
1001.0
1005.0
1012.0
1014.0
1018.0
1023.0
1031.0
1040.0
1041.0
1029.0
1020.0
1012.0
1014.0
1019.0
1024.0
1030.0
1037.0
1049.0
1057.0
1060.0
1058.0
1061.0
1062.0
1070.0
1076.0
1078.0
1082.0
1080.0
1076.0
1076.0
1080.0
1085.0
1095.0
1102.0
1106.0
1112.0
1110.0
1103.0
1093.0
1085.0
1082.0
1084.0
1089.0
1095.0
1095.0
1099.0
1097.0
1093.0
1088.0
1077.0
1063.0
1051.0
1044.0
1043.0
1046.0
1042.0
1039.0
1037.0
1035.0
1036.0
1036.0
1034.0
1027.0
1020.0
1016.0
1015.0
1015.0
1016.0
1013.0
1007.0
1005.0
1006.0
1008.0
1009.0
1002.0
997.0
996.0
1002.0
1013.0
1020.0
1020.0
1017.0
1012.0
1010.0
1008.0
1009.0
1007.0
1002.0
1004.0
1007.0
1010.0
1009.0
1010.0
1007.0
1004.0
1007.0
1012.0
1017.0
1021.0
1023.0
1023.0
1028.0
1030.0
1033.0
1035.0
1040.0
1047.0
1056.0
1067.0
1073.0
1084.0
1092.0
1098.0
1110.0
1125.0
1145.0
1162.0
1185.0
1210.0
1249.0
1294.0
1339.0
1374.0
1404.0
1430.0
1452.0
1476.0
1489.0
1492.0
1479.0
1450.0
1404.0
1328.0
1225.0
1143.0
1109.0
1099.0
1080.0
1043.0
1004.0
970.0
942.0
924.0
914.0
904.0
893.0
890.0
889.0
892.0
895.0
899.0
905.0
912.0
915.0
922.0
930.0
933.0
937.0
939.0
937.0
937.0
941.0
941.0
941.0
942.0
939.0
937.0
939.0
943.0
943.0
940.0
940.0
941.0
950.0
958.0
963.0
958.0
950.0
944.0
948.0
950.0
957.0
958.0
956.0
950.0
947.0
951.0
957.0
960.0
964.0
968.0
972.0
975.0
974.0
968.0
964.0
966.0
971.0
976.0
979.0
980.0
985.0
986.0
990.0
992.0
990.0
990.0
987.0
990.0
994.0
998.0
1003.0
1002.0
1001.0
1007.0
1008.0
1010.0
1013.0
1011.0
1008.0
1007.0
1008.0
1007.0
1009.0
1007.0
1002.0
999.0
998.0
1001.0
1003.0
1002.0
1000.0
998.0
999.0
1001.0
1003.0
1003.0
1002.0
998.0
1000.0
999.0
1000.0
998.0
997.0
996.0
996.0
999.0
1004.0
1004.0
1000.0
1000.0
999.0
1000.0
1000.0
997.0
996.0
995.0
998.0
1001.0
1002.0
1004.0
1000.0
1001.0
1000.0
1003.0
1003.0
1002.0
999.0
1001.0
1000.0
1006.0
1003.0
1003.0
1000.0
1000.0
1002.0
1002.0
1009.0
1005.0
1000.0
1003.0
1003.0
1006.0
1004.0
1005.0
1004.0
1003.0
1004.0
1004.0
1004.0
1002.0
1000.0
1000.0
1002.0
1005.0
1007.0
1007.0
1005.0
1004.0
1003.0
1005.0
1005.0
1007.0
1004.0
1003.0
1003.0
1006.0
1008.0
1011.0
1006.0
1003.0
1004.0
1010.0
1010.0
1013.0
1009.0
1008.0
1008.0
1010.0
1014.0
1014.0
1012.0
1011.0
1018.0
1021.0
1024.0
1023.0
1019.0
1016.0
1018.0
1018.0
1015.0
1013.0
1011.0
1006.0
1004.0
1003.0
1005.0
1003.0
999.0
1002.0
1008.0
1008.0
1013.0
1008.0
1004.0
1001.0
1001.0
1004.0
1003.0
1001.0
996.0
996.0
1000.0
1002.0
1003.0
1000.0
997.0
997.0
1000.0
1003.0
1004.0
1002.0
999.0
998.0
1003.0
1006.0
1006.0
1002.0
1002.0
1001.0
1002.0
1003.0
1006.0
1006.0
1003.0
1003.0
1004.0
1006.0
1009.0
1008.0
1006.0
1004.0
1001.0
999.0
1006.0
1011.0
1022.0
1041.0
1069.0
1096.0
1125.0
1153.0
1182.0
1201.0
1215.0
1219.0
1207.0
1181.0
1145.0
1103.0
1047.0
989.0
939.0
901.0
886.0
893.0
915.0
932.0
948.0
957.0
966.0
971.0
982.0
991.0
998.0
1001.0
1000.0
999.0
1003.0
1010.0
1015.0
1017.0
1012.0
1011.0
1013.0
1018.0
1020.0
1020.0
1017.0
1019.0
1024.0
1028.0
1030.0
1031.0
1028.0
1033.0
1037.0
1040.0
1043.0
1044.0
1044.0
1044.0
1048.0
1054.0
1059.0
1060.0
1061.0
1063.0
1068.0
1068.0
1072.0
1068.0
1067.0
1067.0
1073.0
1076.0
1079.0
1079.0
1074.0
1075.0
1077.0
1079.0
1082.0
1080.0
1073.0
1073.0
1071.0
1075.0
1076.0
1071.0
1065.0
1060.0
1062.0
1064.0
1067.0
1061.0
1055.0
1047.0
1047.0
1045.0
1045.0
1041.0
1036.0
1031.0
1029.0
1027.0
1028.0
1024.0
1017.0
1011.0
1011.0
1015.0
1017.0
1014.0
1008.0
1006.0
1005.0
1006.0
1009.0
1008.0
1003.0
1002.0
1005.0
1008.0
1008.0
1008.0
1007.0
1006.0
1006.0
1009.0
1012.0
1011.0
1009.0
1006.0
1010.0
1013.0
1015.0
1016.0
1016.0
1019.0
1025.0
1028.0
1027.0
1024.0
1017.0
1013.0
1014.0
1015.0
1014.0
1011.0
1010.0
1010.0
1009.0
1010.0
1013.0
1012.0
1011.0
1010.0
1006.0
1006.0
1005.0
1002.0
1001.0
1000.0
997.0
1002.0
1002.0
999.0
1000.0
1004.0
1007.0
1009.0
1007.0
1004.0
1000.0
999.0
1000.0
1003.0
1004.0
1005.0
1002.0
999.0
1000.0
1000.0
1004.0
1002.0
999.0
996.0
997.0
1000.0
1002.0
999.0
997.0
1000.0
1003.0
1007.0
1005.0
1002.0
994.0
992.0
995.0
1009.0
1030.0
1059.0
1086.0
1114.0
1148.0
1181.0
1207.0
1215.0
1208.0
1179.0
1146.0
1119.0
1083.0
1024.0
961.0
911.0
880.0
877.0
892.0
913.0
925.0
935.0
952.0
968.0
981.0
986.0
988.0
989.0
997.0
1000.0
1004.0
1003.0
1004.0
1001.0
1002.0
1003.0
1006.0
1008.0
1003.0
1006.0
1008.0
1011.0
1015.0
1019.0
1018.0
1018.0
1019.0
1026.0
1031.0
1031.0
1025.0
1027.0
1031.0
1039.0
1042.0
1044.0
1045.0
1048.0
1055.0
1061.0
1065.0
1068.0
1067.0
1067.0
1072.0
1077.0
1080.0
1081.0
1082.0
1083.0
1084.0
1090.0
1090.0
1090.0
1087.0
1086.0
1087.0
1088.0
1090.0
1084.0
1082.0
1077.0
1074.0
1071.0
1067.0
1062.0
1054.0
1046.0
1046.0
1048.0
1052.0
1050.0
1038.0
1022.0
1012.0
1009.0
1011.0
1009.0
1004.0
1003.0
1003.0
1004.0
1006.0
1004.0
1002.0
1000.0
1000.0
1002.0
1004.0
1002.0
998.0
996.0
994.0
996.0
996.0
997.0
993.0
994.0
992.0
993.0
998.0
998.0
999.0
998.0
997.0
1001.0
1004.0
1002.0
1004.0
1003.0
1006.0
1010.0
1009.0
1008.0
1009.0
1007.0
1015.0
1018.0
1018.0
1013.0
1009.0
1008.0
1009.0
1010.0
1006.0
998.0
993.0
995.0
995.0
1003.0
1004.0
1004.0
1000.0
997.0
991.0
991.0
992.0
987.0
984.0
982.0
987.0
993.0
997.0
996.0
991.0
986.0
989.0
989.0
996.0
992.0
988.0
988.0
994.0
998.0
999.0
998.0
993.0
988.0
991.0
992.0
995.0
994.0
994.0
995.0
1000.0
1003.0
998.0
993.0
987.0
989.0
994.0
1008.0
1033.0
1068.0
1104.0
1141.0
1174.0
1201.0
1220.0
1210.0
1175.0
1131.0
1083.0
1020.0
952.0
894.0
864.0
871.0
895.0
918.0
937.0
949.0
963.0
973.0
985.0
991.0
995.0
994.0
989.0
988.0
987.0
999.0
1004.0
1005.0
997.0
993.0
998.0
1002.0
1010.0
1008.0
1007.0
1008.0
1014.0
1019.0
1020.0
1022.0
1022.0
1022.0
1024.0
1030.0
1032.0
1037.0
1037.0
1038.0
1045.0
1052.0
1059.0
1062.0
1062.0
1065.0
1070.0
1075.0
1079.0
1075.0
1071.0
1070.0
1077.0
1081.0
1084.0
1086.0
1087.0
1087.0
1088.0
1088.0
1088.0
1084.0
1077.0
1069.0
1065.0
1065.0
1064.0
1059.0
1052.0
1046.0
1042.0
1043.0
1039.0
1032.0
1025.0
1017.0
1011.0
1013.0
1012.0
1010.0
1003.0
1003.0
1003.0
1001.0
1001.0
1001.0
998.0
997.0
995.0
996.0
994.0
993.0
990.0
988.0
991.0
993.0
1002.0
1002.0
998.0
992.0
986.0
991.0
992.0
994.0
992.0
992.0
1000.0
1003.0
1003.0
998.0
997.0
998.0
1004.0
1012.0
1016.0
1013.0
1009.0
1007.0
1009.0
1009.0
1012.0
1009.0
1001.0
997.0
993.0
997.0
997.0
994.0
992.0
988.0
988.0
988.0
993.0
988.0
984.0
984.0
985.0
989.0
990.0
989.0
988.0
985.0
985.0
985.0
988.0
992.0
994.0
991.0
988.0
988.0
985.0
983.0
980.0
985.0
988.0
990.0
993.0
988.0
986.0
985.0
990.0
996.0
997.0
993.0
991.0
991.0
991.0
992.0
996.0
1007.0
1023.0
1052.0
1089.0
1122.0
1154.0
1172.0
1177.0
1163.0
1129.0
1097.0
1061.0
999.0
931.0
881.0
857.0
870.0
898.0
919.0
929.0
944.0
960.0
974.0
983.0
983.0
982.0
984.0
987.0
992.0
998.0
1000.0
999.0
996.0
1000.0
1001.0
1004.0
1004.0
1002.0
1002.0
1004.0
1010.0
1012.0
1011.0
1011.0
1014.0
1020.0
1023.0
1025.0
1027.0
1033.0
1034.0
1042.0
1047.0
1046.0
1047.0
1051.0
1051.0
1057.0
1064.0
1068.0
1069.0
1072.0
1073.0
1076.0
1074.0
1076.0
1080.0
1078.0
1078.0
1077.0
1083.0
1084.0
1083.0
1078.0
1075.0
1073.0
1074.0
1069.0
1060.0
1054.0
1050.0
1047.0
1043.0
1036.0
1032.0
1026.0
1021.0
1021.0
1023.0
1025.0
1018.0
1006.0
1001.0
999.0
1002.0
1006.0
1003.0
1000.0
1000.0
1004.0
1011.0
1008.0
1001.0
997.0
1001.0
1002.0
999.0
993.0
987.0
986.0
997.0
1010.0
1014.0
1007.0
989.0
978.0
977.0
983.0
988.0
989.0
991.0
994.0
998.0
999.0
1002.0
1004.0
1001.0
998.0
997.0
1001.0
1006.0
1010.0
1007.0
1006.0
1000.0
1001.0
1001.0
1004.0
1002.0
993.0
993.0
993.0
996.0
997.0
999.0
997.0
998.0
995.0
993.0
990.0
990.0
986.0
989.0
990.0
992.0
994.0
992.0
988.0
987.0
987.0
991.0
995.0
996.0
998.0
999.0
1003.0
999.0
988.0
982.0
984.0
987.0
992.0
995.0
996.0
995.0
991.0
992.0
995.0
994.0
989.0
981.0
969.0
968.0
978.0
992.0
1009.0
1027.0
1043.0
1065.0
1094.0
1122.0
1152.0
1166.0
1166.0
1150.0
1121.0
1087.0
1030.0
961.0
900.0
865.0
861.0
884.0
909.0
924.0
928.0
947.0
965.0
976.0
981.0
983.0
981.0
986.0
990.0
997.0
997.0
995.0
993.0
994.0
998.0
1005.0
1007.0
1008.0
1004.0
1003.0
1005.0
1009.0
1015.0
1014.0
1017.0
1021.0
1024.0
1025.0
1029.0
1033.0
1034.0
1037.0
1044.0
1047.0
1050.0
1053.0
1055.0
1056.0
1060.0
1067.0
1074.0
1077.0
1077.0
1074.0
1072.0
1078.0
1083.0
1086.0
1089.0
1096.0
1105.0
1103.0
1088.0
1071.0
1058.0
1059.0
1062.0
1060.0
1053.0
1047.0
1040.0
1035.0
1035.0
1035.0
1035.0
1029.0
1025.0
1020.0
1019.0
1018.0
1018.0
1009.0
1004.0
1002.0
1004.0
1001.0
1001.0
1002.0
998.0
995.0
996.0
1000.0
1000.0
995.0
993.0
990.0
987.0
990.0
992.0
995.0
992.0
994.0
993.0
997.0
996.0
993.0
989.0
989.0
990.0
997.0
1001.0
999.0
999.0
998.0
1002.0
1004.0
1006.0
1006.0
1006.0
1004.0
1007.0
1013.0
1017.0
1012.0
1003.0
995.0
996.0
998.0
999.0
1000.0
996.0
995.0
996.0
995.0
994.0
995.0
997.0
1000.0
1000.0
996.0
1001.0
991.0
982.0
977.0
982.0
988.0
990.0
989.0
986.0
986.0
990.0
992.0
991.0
987.0
985.0
988.0
992.0
998.0
997.0
995.0
990.0
989.0
986.0
990.0
987.0
986.0
988.0
991.0
996.0
995.0
992.0
990.0
985.0
988.0
992.0
997.0
1008.0
1022.0
1045.0
1068.0
1101.0
1129.0
1158.0
1177.0
1183.0
1180.0
1161.0
1133.0
1094.0
1031.0
966.0
911.0
874.0
869.0
888.0
909.0
924.0
937.0
955.0
969.0
979.0
982.0
986.0
991.0
997.0
1003.0
1011.0
1010.0
1004.0
1002.0
1002.0
1000.0
995.0
992.0
997.0
1002.0
1009.0
1013.0
1017.0
1019.0
1017.0
1014.0
1018.0
1025.0
1027.0
1028.0
1028.0
1031.0
1037.0
1042.0
1044.0
1050.0
1052.0
1055.0
1057.0
1059.0
1063.0
1067.0
1068.0
1071.0
1075.0
1079.0
1082.0
1080.0
1075.0
1078.0
1079.0
1083.0
1085.0
1083.0
1082.0
1085.0
1089.0
1093.0
1090.0
1083.0
1072.0
1065.0
1067.0
1070.0
1066.0
1057.0
1051.0
1044.0
1043.0
1042.0
1037.0
1027.0
1023.0
1019.0
1019.0
1019.0
1014.0
1010.0
1007.0
1006.0
1009.0
1010.0
1007.0
1004.0
998.0
1000.0
1002.0
1001.0
1001.0
996.0
995.0
993.0
992.0
995.0
996.0
997.0
995.0
990.0
994.0
998.0
1001.0
999.0
997.0
996.0
998.0
1001.0
1003.0
1003.0
999.0
998.0
1001.0
1006.0
1013.0
1012.0
1011.0
1009.0
1011.0
1012.0
1013.0
1006.0
1002.0
1003.0
1005.0
1009.0
1007.0
1004.0
999.0
1001.0
1000.0
1001.0
999.0
997.0
995.0
993.0
991.0
998.0
1000.0
999.0
999.0
995.0
994.0
994.0
994.0
988.0
986.0
988.0
994.0
999.0
997.0
997.0
997.0
995.0
994.0
996.0
995.0
995.0
995.0
993.0
995.0
997.0
1000.0
995.0
994.0
994.0
999.0
1004.0
1004.0
1002.0
996.0
994.0
994.0
1004.0
1015.0
1034.0
1056.0
1089.0
1123.0
1159.0
1190.0
1212.0
1221.0
1212.0
1187.0
1155.0
1110.0
1046.0
976.0
919.0
883.0
879.0
894.0
912.0
929.0
943.0
959.0
975.0
985.0
986.0
989.0
993.0
997.0
1000.0
999.0
1000.0
999.0
1000.0
1004.0
1006.0
1008.0
1009.0
1007.0
1006.0
1008.0
1012.0
1016.0
1022.0
1019.0
1022.0
1024.0
1029.0
1034.0
1033.0
1032.0
1037.0
1042.0
1049.0
1056.0
1054.0
1056.0
1058.0
1060.0
1070.0
1072.0
1072.0
1073.0
1077.0
1085.0
1088.0
1088.0
1086.0
1084.0
1086.0
1090.0
1094.0
1093.0
1087.0
1080.0
1076.0
1076.0
1077.0
1075.0
1070.0
1063.0
1057.0
1058.0
1058.0
1053.0
1045.0
1039.0
1034.0
1033.0
1034.0
1030.0
1022.0
1009.0
995.0
982.0
982.0
990.0
999.0
999.0
995.0
996.0
996.0
997.0
997.0
995.0
994.0
996.0
998.0
999.0
997.0
991.0
990.0
994.0
997.0
997.0
992.0
994.0
997.0
1004.0
1008.0
1011.0
1008.0
1005.0
1003.0
1005.0
1006.0
1011.0
1012.0
1014.0
1015.0
1016.0
1018.0
1014.0
1008.0
1007.0
1007.0
1001.0
1003.0
1000.0
996.0
995.0
995.0
1000.0
998.0
999.0
993.0
987.0
986.0
990.0
995.0
995.0
993.0
989.0
985.0
986.0
987.0
988.0
990.0
989.0
987.0
989.0
991.0
991.0
992.0
985.0
984.0
986.0
993.0
993.0
993.0
983.0
982.0
985.0
990.0
991.0
988.0
987.0
985.0
989.0
991.0
994.0
998.0
995.0
996.0
997.0
996.0
998.0
1008.0
1030.0
1057.0
1088.0
1119.0
1153.0
1181.0
1199.0
1204.0
1202.0
1179.0
1148.0
1111.0
1061.0
997.0
940.0
900.0
878.0
877.0
891.0
911.0
922.0
932.0
943.0
957.0
975.0
985.0
986.0
980.0
977.0
977.0
979.0
986.0
996.0
1000.0
1004.0
999.0
992.0
989.0
992.0
994.0
999.0
1000.0
998.0
1002.0
1009.0
1019.0
1024.0
1021.0
1015.0
1008.0
1009.0
1012.0
1014.0
1016.0
1020.0
1027.0
1035.0
1042.0
1043.0
1047.0
1048.0
1050.0
1054.0
1057.0
1056.0
1057.0
1056.0
1055.0
1064.0
1071.0
1078.0
1077.0
1075.0
1071.0
1072.0
1074.0
1075.0
1072.0
1072.0
1074.0
1075.0
1076.0
1073.0
1068.0
1059.0
1055.0
1053.0
1052.0
1046.0
1038.0
1026.0
1020.0
1016.0
1018.0
1016.0
1012.0
1002.0
997.0
997.0
996.0
997.0
996.0
999.0
988.0
983.0
981.0
986.0
986.0
985.0
985.0
987.0
985.0
981.0
977.0
978.0
977.0
983.0
986.0
984.0
982.0
979.0
979.0
981.0
987.0
986.0
987.0
990.0
989.0
992.0
996.0
996.0
993.0
991.0
994.0
995.0
997.0
994.0
996.0
998.0
1004.0
1005.0
999.0
989.0
987.0
988.0
990.0
991.0
993.0
992.0
990.0
991.0
987.0
984.0
981.0
977.0
978.0
977.0
976.0
980.0
983.0
987.0
988.0
974.0
969.0
965.0
969.0
973.0
980.0
983.0
985.0
980.0
981.0
982.0
975.0
970.0
967.0
969.0
973.0
976.0
974.0
971.0
969.0
972.0
974.0
975.0
976.0
977.0
979.0
983.0
982.0
982.0
980.0
971.0
973.0
980.0
985.0
989.0
996.0
1017.0
1050.0
1089.0
1123.0
1152.0
1178.0
1191.0
1189.0
1183.0
1157.0
1120.0
1083.0
1034.0
974.0
922.0
879.0
856.0
853.0
863.0
881.0
909.0
932.0
948.0
955.0
959.0
964.0
970.0
981.0
985.0
990.0
986.0
978.0
974.0
975.0
977.0
979.0
982.0
988.0
992.0
996.0
998.0
997.0
998.0
1002.0
1007.0
1012.0
1012.0
1007.0
1008.0
1012.0
1015.0
1021.0
1022.0
1024.0
1027.0
1034.0
1042.0
1047.0
1052.0
1053.0
1056.0
1060.0
1062.0
1069.0
1073.0
1077.0
1076.0
1073.0
1072.0
1071.0
1068.0
1061.0
1059.0
1059.0
1064.0
1068.0
1069.0
1063.0
1057.0
1052.0
1050.0
1049.0
1046.0
1039.0
1031.0
1027.0
1024.0
1022.0
1022.0
1016.0
1012.0
1009.0
1011.0
1009.0
1001.0
993.0
990.0
992.0
996.0
993.0
987.0
984.0
983.0
982.0
985.0
989.0
992.0
987.0
984.0
984.0
989.0
993.0
994.0
990.0
982.0
979.0
982.0
982.0
983.0
983.0
985.0
991.0
994.0
996.0
995.0
992.0
987.0
990.0
994.0
1000.0
1005.0
1009.0
1014.0
1021.0
1024.0
1018.0
1002.0
991.0
988.0
991.0
991.0
996.0
995.0
990.0
983.0
987.0
994.0
1002.0
1004.0
994.0
979.0
972.0
973.0
973.0
971.0
966.0
966.0
966.0
973.0
978.0
985.0
987.0
987.0
982.0
972.0
967.0
969.0
973.0
973.0
974.0
981.0
984.0
983.0
979.0
977.0
976.0
980.0
984.0
984.0
982.0
980.0
980.0
984.0
982.0
980.0
977.0
975.0
974.0
978.0
984.0
985.0
983.0
984.0
988.0
1005.0
1027.0
1053.0
1074.0
1090.0
1115.0
1144.0
1170.0
1176.0
1160.0
1128.0
1100.0
1076.0
1039.0
983.0
920.0
869.0
847.0
855.0
883.0
906.0
918.0
929.0
943.0
955.0
965.0
965.0
972.0
976.0
978.0
986.0
992.0
995.0
993.0
990.0
983.0
986.0
987.0
990.0
990.0
991.0
997.0
999.0
1005.0
1013.0
1021.0
1017.0
1008.0
995.0
988.0
993.0
999.0
1010.0
1018.0
1027.0
1036.0
1037.0
1041.0
1040.0
1040.0
1045.0
1047.0
1038.0
1033.0
1036.0
1046.0
1055.0
1062.0
1068.0
1070.0
1068.0
1070.0
1071.0
1072.0
1071.0
1065.0
1061.0
1065.0
1076.0
1078.0
1080.0
1080.0
1074.0
1060.0
1050.0
1047.0
1049.0
1053.0
1055.0
1049.0
1037.0
1026.0
1016.0
1011.0
1004.0
996.0
996.0
1000.0
1000.0
998.0
995.0
991.0
991.0
994.0
993.0
995.0
997.0
998.0
994.0
989.0
979.0
973.0
974.0
982.0
986.0
991.0
987.0
978.0
979.0
984.0
988.0
992.0
990.0
989.0
987.0
983.0
977.0
977.0
977.0
979.0
980.0
981.0
985.0
993.0
997.0
995.0
993.0
998.0
1010.0
1015.0
1008.0
998.0
992.0
991.0
992.0
994.0
995.0
988.0
985.0
988.0
990.0
989.0
985.0
980.0
977.0
976.0
981.0
984.0
981.0
978.0
976.0
981.0
983.0
985.0
978.0
975.0
972.0
975.0
984.0
990.0
988.0
979.0
971.0
970.0
975.0
981.0
981.0
980.0
977.0
978.0
982.0
987.0
986.0
989.0
990.0
985.0
984.0
986.0
987.0
983.0
973.0
974.0
978.0
986.0
990.0
988.0
982.0
978.0
986.0
1006.0
1029.0
1053.0
1067.0
1078.0
1096.0
1128.0
1161.0
1178.0
1175.0
1155.0
1129.0
1103.0
1054.0
989.0
920.0
871.0
848.0
859.0
880.0
900.0
910.0
927.0
948.0
968.0
977.0
978.0
978.0
973.0
974.0
980.0
986.0
987.0
988.0
990.0
998.0
1002.0
1002.0
1001.0
998.0
996.0
999.0
1012.0
1016.0
1013.0
1005.0
999.0
996.0
997.0
997.0
1003.0
1008.0
1011.0
1013.0
1024.0
1030.0
1028.0
1023.0
1023.0
1027.0
1036.0
1035.0
1035.0
1036.0
1042.0
1048.0
1053.0
1057.0
1058.0
1059.0
1060.0
1064.0
1068.0
1068.0
1067.0
1064.0
1063.0
1064.0
1067.0
1066.0
1062.0
1059.0
1057.0
1059.0
1058.0
1054.0
1045.0
1036.0
1031.0
1027.0
1026.0
1023.0
1019.0
1011.0
1009.0
1005.0
1006.0
1004.0
1000.0
995.0
994.0
997.0
1002.0
1005.0
1001.0
995.0
991.0
993.0
994.0
989.0
983.0
978.0
977.0
988.0
993.0
994.0
996.0
997.0
996.0
988.0
980.0
973.0
975.0
973.0
970.0
972.0
980.0
983.0
978.0
972.0
970.0
975.0
988.0
991.0
986.0
980.0
983.0
993.0
1007.0
1015.0
1017.0
1007.0
992.0
983.0
986.0
990.0
986.0
981.0
976.0
981.0
988.0
991.0
989.0
981.0
976.0
970.0
973.0
975.0
976.0
979.0
981.0
982.0
986.0
980.0
977.0
975.0
973.0
976.0
981.0
977.0
979.0
979.0
980.0
980.0
982.0
978.0
978.0
973.0
974.0
979.0
982.0
984.0
983.0
980.0
977.0
977.0
984.0
997.0
1009.0
1011.0
1008.0
1003.0
994.0
981.0
964.0
952.0
953.0
960.0
971.0
975.0
978.0
977.0
971.0
963.0
963.0
966.0
974.0
995.0
1020.0
1054.0
1086.0
1117.0
1140.0
1156.0
1159.0
1162.0
1162.0
1151.0
1130.0
1097.0
1048.0
989.0
933.0
882.0
852.0
851.0
874.0
899.0
918.0
932.0
943.0
956.0
965.0
976.0
986.0
988.0
993.0
994.0
995.0
994.0
988.0
974.0
972.0
972.0
978.0
982.0
982.0
978.0
982.0
986.0
987.0
986.0
988.0
992.0
996.0
1001.0
1001.0
1008.0
1016.0
1020.0
1019.0
1015.0
1016.0
1021.0
1029.0
1037.0
1042.0
1041.0
1036.0
1036.0
1041.0
1046.0
1050.0
1047.0
1049.0
1049.0
1059.0
1064.0
1067.0
1068.0
1064.0
1061.0
1068.0
1072.0
1073.0
1068.0
1059.0
1057.0
1061.0
1061.0
1050.0
1037.0
1033.0
1031.0
1036.0
1035.0
1031.0
1021.0
1013.0
1010.0
1009.0
1001.0
992.0
983.0
978.0
982.0
990.0
996.0
991.0
981.0
973.0
971.0
977.0
984.0
985.0
985.0
981.0
981.0
981.0
978.0
973.0
971.0
971.0
974.0
979.0
983.0
985.0
988.0
993.0
998.0
999.0
996.0
994.0
995.0
1002.0
1004.0
1001.0
994.0
986.0
981.0
978.0
985.0
986.0
984.0
980.0
976.0
973.0
972.0
975.0
979.0
977.0
976.0
974.0
978.0
983.0
981.0
977.0
971.0
970.0
965.0
969.0
963.0
967.0
969.0
976.0
978.0
976.0
970.0
965.0
962.0
964.0
970.0
973.0
971.0
969.0
967.0
968.0
974.0
976.0
976.0
976.0
973.0
976.0
977.0
980.0
982.0
983.0
981.0
977.0
977.0
983.0
988.0
990.0
989.0
985.0
980.0
980.0
983.0
993.0
1009.0
1032.0
1063.0
1096.0
1129.0
1159.0
1175.0
1187.0
1191.0
1181.0
1153.0
1120.0
1074.0
1012.0
944.0
894.0
866.0
867.0
883.0
901.0
916.0
932.0
943.0
951.0
956.0
961.0
966.0
973.0
975.0
972.0
973.0
975.0
982.0
988.0
990.0
992.0
993.0
987.0
988.0
989.0
990.0
993.0
989.0
994.0
1004.0
1014.0
1014.0
1013.0
1009.0
1010.0
1018.0
1022.0
1019.0
1014.0
1012.0
1024.0
1030.0
1034.0
1032.0
1035.0
1040.0
1049.0
1054.0
1057.0
1059.0
1062.0
1063.0
1066.0
1067.0
1072.0
1081.0
1080.0
1071.0
1062.0
1063.0
1071.0
1070.0
1069.0
1066.0
1065.0
1066.0
1062.0
1051.0
1043.0
1037.0
1037.0
1034.0
1029.0
1024.0
1026.0
1024.0
1021.0
1015.0
1008.0
1001.0
997.0
996.0
995.0
996.0
995.0
989.0
983.0
983.0
988.0
989.0
995.0
990.0
981.0
971.0
968.0
971.0
973.0
975.0
975.0
973.0
976.0
982.0
980.0
978.0
976.0
981.0
982.0
981.0
978.0
977.0
982.0
985.0
987.0
981.0
983.0
987.0
991.0
993.0
991.0
994.0
998.0
999.0
999.0
997.0
996.0
992.0
987.0
984.0
989.0
997.0
998.0
994.0
990.0
984.0
982.0
976.0
973.0
968.0
972.0
973.0
975.0
973.0
972.0
971.0
970.0
967.0
969.0
971.0
972.0
974.0
980.0
984.0
981.0
978.0
974.0
975.0
977.0
977.0
972.0
971.0
972.0
977.0
981.0
982.0
980.0
979.0
983.0
987.0
987.0
983.0
981.0
979.0
982.0
984.0
988.0
982.0
976.0
973.0
982.0
1004.0
1034.0
1065.0
1096.0
1120.0
1147.0
1177.0
1200.0
1211.0
1201.0
1169.0
1128.0
1071.0
1004.0
933.0
881.0
855.0
866.0
884.0
903.0
919.0
928.0
936.0
946.0
957.0
973.0
980.0
984.0
980.0
972.0
977.0
986.0
986.0
983.0
980.0
985.0
990.0
995.0
995.0
997.0
1000.0
1002.0
1002.0
1004.0
1001.0
1000.0
1003.0
1013.0
1025.0
1036.0
1034.0
1032.0
1037.0
1048.0
1045.0
1042.0
1035.0
1035.0
1036.0
1041.0
1053.0
1062.0
1070.0
1074.0
1065.0
1055.0
1057.0
1064.0
1070.0
1070.0
1066.0
1064.0
1070.0
1073.0
1075.0
1073.0
1070.0
1068.0
1067.0
1063.0
1057.0
1044.0
1035.0
1031.0
1029.0
1028.0
1023.0
1015.0
1010.0
1012.0
1009.0
1009.0
1003.0
995.0
993.0
992.0
987.0
987.0
988.0
983.0
981.0
982.0
981.0
980.0
978.0
978.0
979.0
983.0
988.0
987.0
979.0
982.0
985.0
990.0
995.0
993.0
983.0
981.0
984.0
983.0
978.0
980.0
980.0
982.0
987.0
996.0
1003.0
1006.0
997.0
996.0
996.0
1005.0
1008.0
1009.0
1003.0
996.0
995.0
990.0
986.0
980.0
974.0
971.0
970.0
971.0
979.0
985.0
984.0
975.0
974.0
971.0
974.0
978.0
978.0
978.0
976.0
975.0
979.0
987.0
988.0
984.0
983.0
986.0
989.0
991.0
993.0
985.0
975.0
971.0
971.0
973.0
975.0
969.0
959.0
961.0
968.0
975.0
979.0
981.0
979.0
982.0
985.0
987.0
985.0
984.0
987.0
1008.0
1040.0
1081.0
1114.0
1142.0
1169.0
1187.0
1201.0
1200.0
1170.0
1124.0
1080.0
1026.0
969.0
915.0
872.0
854.0
864.0
892.0
913.0
933.0
945.0
950.0
952.0
957.0
964.0
971.0
976.0
972.0
976.0
979.0
989.0
994.0
991.0
987.0
980.0
980.0
983.0
984.0
982.0
983.0
987.0
991.0
998.0
1005.0
1008.0
1009.0
1009.0
1015.0
1020.0
1028.0
1033.0
1038.0
1035.0
1035.0
1044.0
1053.0
1059.0
1067.0
1068.0
1071.0
1072.0
1075.0
1070.0
1067.0
1071.0
1077.0
1080.0
1081.0
1069.0
1061.0
1059.0
1065.0
1066.0
1067.0
1063.0
1069.0
1075.0
1072.0
1057.0
1049.0
1043.0
1037.0
1026.0
1023.0
1021.0
1022.0
1020.0
1015.0
1009.0
1003.0
999.0
990.0
984.0
980.0
973.0
979.0
987.0
992.0
990.0
988.0
985.0
984.0
987.0
989.0
991.0
989.0
985.0
992.0
1005.0
1014.0
1007.0
993.0
975.0
969.0
970.0
975.0
973.0
972.0
976.0
984.0
989.0
990.0
989.0
988.0
990.0
995.0
998.0
1005.0
1007.0
1009.0
1010.0
1019.0
1032.0
1039.0
1027.0
1008.0
989.0
980.0
979.0
980.0
977.0
976.0
973.0
972.0
978.0
986.0
996.0
998.0
991.0
979.0
973.0
968.0
960.0
958.0
960.0
963.0
972.0
973.0
973.0
976.0
977.0
979.0
980.0
978.0
973.0
967.0
963.0
965.0
973.0
977.0
983.0
990.0
987.0
975.0
963.0
959.0
955.0
956.0
959.0
965.0
972.0
980.0
980.0
977.0
973.0
972.0
982.0
999.0
1030.0
1063.0
1095.0
1130.0
1157.0
1172.0
1164.0
1133.0
1094.0
1046.0
989.0
932.0
880.0
850.0
854.0
882.0
906.0
921.0
933.0
944.0
957.0
964.0
968.0
974.0
979.0
981.0
985.0
988.0
992.0
991.0
991.0
987.0
989.0
996.0
1003.0
1005.0
1003.0
1000.0
999.0
1001.0
1007.0
1014.0
1017.0
1013.0
1011.0
1016.0
1026.0
1039.0
1046.0
1054.0
1056.0
1052.0
1040.0
1036.0
1043.0
1048.0
1045.0
1042.0
1046.0
1054.0
1063.0
1070.0
1077.0
1082.0
1084.0
1074.0
1067.0
1063.0
1059.0
1062.0
1064.0
1059.0
1053.0
1045.0
1038.0
1035.0
1035.0
1034.0
1024.0
1013.0
1007.0
1003.0
1000.0
998.0
998.0
997.0
995.0
991.0
991.0
990.0
987.0
980.0
971.0
976.0
980.0
981.0
976.0
972.0
974.0
984.0
991.0
988.0
978.0
974.0
977.0
977.0
977.0
976.0
979.0
982.0
985.0
982.0
984.0
984.0
984.0
983.0
987.0
991.0
996.0
996.0
994.0
987.0
986.0
989.0
994.0
996.0
996.0
995.0
998.0
1000.0
998.0
993.0
988.0
979.0
969.0
965.0
968.0
977.0
982.0
985.0
988.0
995.0
993.0
988.0
980.0
969.0
968.0
969.0
976.0
973.0
972.0
971.0
970.0
971.0
974.0
984.0
980.0
970.0
963.0
965.0
975.0
982.0
978.0
968.0
962.0
964.0
979.0
990.0
987.0
980.0
975.0
975.0
975.0
977.0
976.0
974.0
978.0
990.0
1020.0
1057.0
1093.0
1132.0
1164.0
1189.0
1192.0
1173.0
1128.0
1092.0
1057.0
1005.0
944.0
887.0
850.0
845.0
866.0
896.0
916.0
935.0
952.0
961.0
963.0
965.0
969.0
976.0
982.0
981.0
978.0
977.0
977.0
980.0
985.0
988.0
990.0
990.0
994.0
1000.0
1004.0
1003.0
1001.0
1000.0
1002.0
1006.0
1012.0
1013.0
1015.0
1019.0
1029.0
1035.0
1038.0
1035.0
1035.0
1045.0
1051.0
1058.0
1059.0
1057.0
1057.0
1063.0
1069.0
1073.0
1072.0
1065.0
1061.0
1065.0
1069.0
1071.0
1069.0
1068.0
1066.0
1071.0
1065.0
1064.0
1061.0
1057.0
1049.0
1044.0
1048.0
1046.0
1039.0
1033.0
1033.0
1037.0
1037.0
1022.0
995.0
983.0
981.0
991.0
994.0
993.0
986.0
982.0
978.0
979.0
984.0
993.0
992.0
982.0
972.0
971.0
976.0
985.0
985.0
980.0
973.0
971.0
978.0
983.0
983.0
981.0
980.0
984.0
988.0
987.0
987.0
989.0
988.0
987.0
988.0
990.0
990.0
989.0
991.0
996.0
998.0
1006.0
1005.0
1004.0
