# Simple Text Format
# Sampling Rate (Hz):= 360.00
# Resolution:= 12
# Labels:= ECG
1006.0
996.0
989.0
991.0
997.0
998.0
993.0
986.0
981.0
985.0
993.0
1002.0
1002.0
997.0
990.0
984.0
978.0
976.0
978.0
977.0
979.0
984.0
991.0
998.0
1005.0
1003.0
995.0
987.0
982.0
984.0
991.0
996.0
998.0
1001.0
1000.0
1006.0
1004.0
994.0
982.0
976.0
987.0
994.0
994.0
992.0
993.0
1009.0
1040.0
1074.0
1100.0
1117.0
1135.0
1151.0
1163.0
1164.0
1147.0
1118.0
1084.0
1036.0
985.0
938.0
903.0
884.0
883.0
899.0
921.0
940.0
953.0
964.0
969.0
975.0
982.0
992.0
999.0
1004.0
1004.0
1001.0
993.0
994.0
999.0
999.0
995.0
997.0
1000.0
1009.0
1010.0
1008.0
1006.0
1008.0
1018.0
1027.0
1031.0
1023.0
1010.0
1010.0
1015.0
1029.0
1030.0
1031.0
1027.0
1029.0
1033.0
1033.0
1027.0
1031.0
1035.0
1042.0
1054.0
1058.0
1059.0
1055.0
1055.0
1062.0
1068.0
1069.0
1067.0
1062.0
1059.0
1048.0
1043.0
1050.0
1055.0
1060.0
1061.0
1063.0
1063.0
1062.0
1057.0
1057.0
1063.0
1072.0
1072.0
1065.0
1054.0
1044.0
1039.0
1042.0
1045.0
1051.0
1050.0
1052.0
1046.0
1043.0
1037.0
1031.0
1027.0
1029.0
1031.0
1038.0
1039.0
1039.0
1033.0
1023.0
1011.0
1003.0
998.0
998.0
997.0
1000.0
997.0
996.0
993.0
999.0
1007.0
1009.0
1003.0
995.0
997.0
1003.0
1005.0
1005.0
1000.0
1000.0
1004.0
1015.0
1022.0
1022.0
1015.0
1010.0
1011.0
1019.0
1024.0
1023.0
1019.0
1019.0
1021.0
1023.0
1028.0
1030.0
1031.0
1032.0
1031.0
1032.0
1038.0
1048.0
1060.0
1068.0
1077.0
1091.0
1108.0
1130.0
1152.0
1179.0
1202.0
1223.0
1236.0
1247.0
1258.0
1273.0
1282.0
1290.0
1282.0
1269.0
1266.0
1283.0
1317.0
1355.0
1376.0
1364.0
1341.0
1313.0
1275.0
1205.0
1112.0
1047.0
1016.0
1002.0
992.0
981.0
970.0
960.0
953.0
950.0
948.0
951.0
956.0
956.0
953.0
945.0
941.0
940.0
936.0
931.0
928.0
929.0
934.0
931.0
928.0
924.0
925.0
925.0
928.0
936.0
942.0
944.0
938.0
934.0
930.0
932.0
925.0
920.0
918.0
922.0
933.0
944.0
947.0
948.0
947.0
950.0
951.0
948.0
942.0
939.0
942.0
948.0
951.0
948.0
947.0
947.0
948.0
954.0
958.0
960.0
956.0
956.0
960.0
965.0
973.0
979.0
980.0
981.0
977.0
977.0
979.0
979.0
978.0
978.0
977.0
981.0
987.0
992.0
989.0
987.0
979.0
978.0
981.0
984.0
983.0
982.0
983.0
988.0
989.0
987.0
979.0
979.0
980.0
990.0
1002.0
1008.0
1010.0
1000.0
988.0
986.0
990.0
992.0
983.0
970.0
967.0
975.0
982.0
983.0
977.0
974.0
977.0
990.0
994.0
993.0
985.0
982.0
983.0
989.0
994.0
997.0
992.0
994.0
991.0
984.0
982.0
984.0
986.0
987.0
990.0
991.0
993.0
994.0
995.0
991.0
993.0
996.0
994.0
994.0
994.0
997.0
998.0
996.0
994.0
989.0
982.0
981.0
985.0
993.0
1008.0
1014.0
1012.0
1005.0
993.0
983.0
984.0
992.0
1000.0
997.0
994.0
992.0
991.0
990.0
990.0
993.0
997.0
1007.0
1012.0
1015.0
1008.0
1005.0
1006.0
1008.0
1011.0
1014.0
1010.0
1000.0
995.0
997.0
1003.0
1005.0
1001.0
995.0
993.0
1000.0
1002.0
1000.0
997.0
995.0
992.0
986.0
982.0
981.0
982.0
981.0
981.0
979.0
985.0
989.0
991.0
991.0
994.0
996.0
999.0
1000.0
997.0
984.0
983.0
989.0
994.0
1004.0
1007.0
1003.0
1001.0
990.0
983.0
985.0
988.0
993.0
993.0
987.0
985.0
983.0
983.0
987.0
989.0
994.0
1000.0
1006.0
1011.0
1031.0
1059.0
1090.0
1128.0
1167.0
1195.0
1208.0
1207.0
1201.0
1183.0
1160.0
1126.0
1078.0
1016.0
954.0
913.0
890.0
888.0
899.0
906.0
916.0
924.0
935.0
945.0
957.0
970.0
979.0
986.0
995.0
1001.0
995.0
989.0
987.0
994.0
1004.0
1010.0
1008.0
1009.0
1003.0
1000.0
1002.0
1003.0
1005.0
1003.0
1007.0
1014.0
1023.0
1029.0
1031.0
1027.0
1030.0
1033.0
1039.0
1043.0
1045.0
1041.0
1042.0
1044.0
1046.0
1049.0
1049.0
1049.0
1051.0
1055.0
1056.0
1061.0
1063.0
1065.0
1073.0
1080.0
1083.0
1079.0
1074.0
1067.0
1066.0
1071.0
1074.0
1081.0
1085.0
1082.0
1078.0
1078.0
1080.0
1082.0
1083.0
1079.0
1070.0
1067.0
1067.0
1068.0
1069.0
1063.0
1058.0
1053.0
1054.0
1052.0
1048.0
1043.0
1036.0
1037.0
1037.0
1031.0
1025.0
1019.0
1018.0
1021.0
1016.0
1004.0
994.0
992.0
996.0
1006.0
1015.0
1013.0
1005.0
1000.0
998.0
995.0
997.0
995.0
993.0
991.0
993.0
995.0
997.0
997.0
1000.0
1001.0
1007.0
1016.0
1017.0
1006.0
998.0
999.0
1003.0
1012.0
1017.0
1018.0
1019.0
1020.0
1026.0
1034.0
1045.0
1051.0
1035.0
1022.0
1008.0
1001.0
1003.0
1000.0
995.0
993.0
995.0
1001.0
1007.0
1009.0
1009.0
1009.0
1008.0
1010.0
1008.0
1003.0
998.0
995.0
996.0
996.0
993.0
992.0
992.0
996.0
999.0
998.0
996.0
995.0
989.0
990.0
996.0
1002.0
1009.0
1013.0
1011.0
999.0
988.0
984.0
984.0
987.0
985.0
986.0
993.0
995.0
994.0
991.0
985.0
981.0
980.0
986.0
991.0
997.0
997.0
995.0
992.0
991.0
989.0
990.0
1001.0
1019.0
1044.0
1075.0
1106.0
1134.0
1161.0
1177.0
1190.0
1198.0
1187.0
1157.0
1132.0
1109.0
1066.0
1008.0
947.0
893.0
863.0
861.0
883.0
906.0
922.0
934.0
944.0
954.0
969.0
984.0
998.0
1006.0
1004.0
995.0
991.0
990.0
999.0
998.0
999.0
1002.0
1006.0
1012.0
1012.0
1013.0
1013.0
1012.0
1017.0
1015.0
1013.0
1009.0
1012.0
1021.0
1026.0
1025.0
1026.0
1030.0
1038.0
1045.0
1046.0
1047.0
1048.0
1045.0
1041.0
1041.0
1049.0
1060.0
1070.0
1078.0
1079.0
1077.0
1073.0
1072.0
1077.0
1077.0
1074.0
1075.0
1076.0
1084.0
1088.0
1088.0
1089.0
1087.0
1084.0
1080.0
1075.0
1071.0
1065.0
1061.0
1056.0
1054.0
1055.0
1048.0
1043.0
1037.0
1034.0
1033.0
1032.0
1023.0
1012.0
1003.0
1006.0
1009.0
1013.0
1011.0
1010.0
1008.0
1000.0
995.0
993.0
993.0
993.0
991.0
991.0
989.0
989.0
988.0
985.0
988.0
993.0
994.0
997.0
995.0
995.0
990.0
995.0
1005.0
1012.0
1006.0
997.0
995.0
1004.0
1014.0
1004.0
994.0
990.0
996.0
1007.0
1016.0
1019.0
1012.0
1011.0
1011.0
1013.0
1008.0
1002.0
991.0
984.0
978.0
981.0
989.0
997.0
999.0
990.0
984.0
982.0
987.0
993.0
992.0
989.0
985.0
985.0
994.0
998.0
990.0
983.0
981.0
983.0
986.0
989.0
987.0
987.0
989.0
990.0
992.0
992.0
994.0
991.0
984.0
984.0
987.0
994.0
994.0
998.0
1000.0
1000.0
994.0
986.0
983.0
988.0
995.0
1006.0
1004.0
992.0
979.0
980.0
1000.0
1035.0
1076.0
1116.0
1155.0
1191.0
1214.0
1215.0
1179.0
1134.0
1085.0
1028.0
959.0
899.0
865.0
867.0
888.0
910.0
921.0
933.0
951.0
970.0
982.0
989.0
990.0
991.0
990.0
987.0
991.0
993.0
996.0
1000.0
1001.0
1001.0
1000.0
1001.0
1004.0
1010.0
1017.0
1021.0
1022.0
1022.0
1020.0
1022.0
1030.0
1036.0
1037.0
1030.0
1030.0
1035.0
1039.0
1041.0
1037.0
1037.0
1046.0
1061.0
1078.0
1084.0
1080.0
1070.0
1062.0
1068.0
1077.0
1085.0
1088.0
1094.0
1094.0
1087.0
1076.0
1075.0
1079.0
1083.0
1082.0
1077.0
1076.0
1078.0
1080.0
1078.0
1064.0
1056.0
1049.0
1043.0
1031.0
1026.0
1021.0
1018.0
1019.0
1024.0
1023.0
1017.0
1010.0
1005.0
1001.0
1002.0
999.0
1002.0
1002.0
1000.0
999.0
1001.0
995.0
988.0
988.0
991.0
992.0
990.0
987.0
989.0
990.0
996.0
998.0
1002.0
997.0
996.0
990.0
986.0
988.0
993.0
1003.0
1007.0
1008.0
1005.0
1004.0
1008.0
1018.0
1022.0
1027.0
1031.0
1026.0
1012.0
998.0
991.0
995.0
1000.0
1002.0
1000.0
997.0
993.0
992.0
998.0
1006.0
1016.0
1014.0
1004.0
990.0
983.0
987.0
994.0
996.0
996.0
993.0
989.0
980.0
980.0
983.0
986.0
986.0
983.0
987.0
994.0
1000.0
998.0
995.0
994.0
997.0
995.0
993.0
992.0
991.0
989.0
987.0
988.0
992.0
992.0
992.0
996.0
1003.0
1002.0
994.0
985.0
982.0
988.0
1000.0
1012.0
1025.0
1043.0
1067.0
1100.0
1141.0
1174.0
1191.0
1188.0
1165.0
1134.0
1105.0
1065.0
1004.0
933.0
881.0
860.0
871.0
896.0
923.0
942.0
954.0
966.0
973.0
985.0
996.0
999.0
993.0
984.0
988.0
998.0
1003.0
1005.0
1000.0
993.0
998.0
1004.0
1007.0
1006.0
1010.0
1017.0
1021.0
1023.0
1023.0
1021.0
1020.0
1018.0
1028.0
1045.0
1053.0
1052.0
1041.0
1036.0
1036.0
1041.0
1044.0
1050.0
1057.0
1064.0
1072.0
1078.0
1080.0
1084.0
1088.0
1093.0
1098.0
1089.0
1081.0
1076.0
1077.0
1074.0
1070.0
1076.0
1080.0
1081.0
1079.0
1077.0
1076.0
1074.0
1067.0
1060.0
1052.0
1048.0
1052.0
1051.0
1040.0
1027.0
1020.0
1027.0
1035.0
1030.0
1019.0
1010.0
1006.0
1000.0
995.0
997.0
994.0
994.0
991.0
995.0
1008.0
1017.0
1013.0
994.0
977.0
977.0
986.0
992.0
994.0
989.0
984.0
988.0
996.0
999.0
1001.0
998.0
996.0
1001.0
1004.0
1009.0
1007.0
1000.0
998.0
1005.0
1015.0
1018.0
1011.0
1003.0
998.0
999.0
1004.0
1005.0
1005.0
1003.0
1003.0
1003.0
1008.0
1005.0
997.0
992.0
992.0
999.0
997.0
991.0
992.0
992.0
993.0
991.0
986.0
990.0
989.0
990.0
991.0
992.0
996.0
1000.0
996.0
994.0
991.0
992.0
998.0
1003.0
1006.0
1008.0
1008.0
1004.0
998.0
993.0
991.0
995.0
999.0
1007.0
1009.0
1001.0
993.0
986.0
981.0
982.0
989.0
1002.0
1014.0
1030.0
1059.0
1094.0
1132.0
1161.0
1176.0
1176.0
1161.0
1133.0
1097.0
1038.0
971.0
912.0
880.0
880.0
903.0
919.0
926.0
941.0
963.0
981.0
987.0
989.0
993.0
998.0
1001.0
997.0
998.0
998.0
995.0
996.0
1004.0
1012.0
1019.0
1022.0
1019.0
1014.0
1009.0
1015.0
1024.0
1031.0
1031.0
1031.0
1033.0
1036.0
1042.0
1050.0
1050.0
1054.0
1056.0
1062.0
1069.0
1073.0
1070.0
1071.0
1072.0
1079.0
1088.0
1095.0
1098.0
1095.0
1091.0
1091.0
1095.0
1098.0
1097.0
1090.0
1084.0
1081.0
1085.0
1087.0
1085.0
1080.0
1070.0
1068.0
1068.0
1068.0
1061.0
1057.0
1059.0
1051.0
1034.0
1021.0
1018.0
1018.0
1016.0
1012.0
1012.0
1016.0
1019.0
1018.0
1009.0
1002.0
1000.0
1003.0
1006.0
1004.0
1004.0
1005.0
1003.0
1002.0
1001.0
1001.0
1004.0
1006.0
1010.0
1011.0
1012.0
1007.0
1005.0
1005.0
1004.0
1008.0
1011.0
1010.0
1006.0
1003.0
1004.0
1011.0
1016.0
1025.0
1030.0
1030.0
1026.0
1019.0
1009.0
1007.0
1008.0
1009.0
1010.0
1014.0
1013.0
1011.0
1009.0
1010.0
1019.0
1026.0
1025.0
1013.0
1000.0
993.0
991.0
997.0
998.0
1003.0
1002.0
1000.0
1000.0
1000.0
999.0
998.0
994.0
997.0
1003.0
1006.0
1004.0
1002.0
1000.0
1000.0
1002.0
1004.0
1006.0
1005.0
1005.0
1004.0
1001.0
1001.0
1005.0
1008.0
1009.0
1007.0
1002.0
999.0
995.0
988.0
984.0
987.0
997.0
1014.0
1032.0
1057.0
1087.0
1118.0
1148.0
1179.0
1199.0
1206.0
1190.0
1163.0
1124.0
1071.0
1002.0
938.0
888.0
868.0
877.0
902.0
924.0
941.0
960.0
977.0
991.0
1002.0
1009.0
1009.0
1003.0
1001.0
1002.0
1013.0
1018.0
1021.0
1019.0
1014.0
1016.0
1015.0
1014.0
1012.0
1016.0
1022.0
1032.0
1036.0
1039.0
1039.0
1039.0
1041.0
1046.0
1054.0
1060.0
1060.0
1056.0
1059.0
1062.0
1070.0
1080.0
1085.0
1083.0
1082.0
1089.0
1094.0
1094.0
1094.0
1093.0
1093.0
1095.0
1100.0
1100.0
1094.0
1081.0
1084.0
1095.0
1099.0
1095.0
1081.0
1077.0
1077.0
1077.0
1072.0
1065.0
1056.0
1047.0
1042.0
1045.0
1049.0
1044.0
1032.0
1023.0
1018.0
1020.0
1024.0
1019.0
1008.0
1008.0
1012.0
1017.0
1017.0
1012.0
1008.0
1005.0
1005.0
1007.0
1007.0
1010.0
1004.0
1008.0
1011.0
1008.0
1006.0
1002.0
998.0
996.0
1002.0
1006.0
1012.0
1016.0
1021.0
1024.0
1024.0
1025.0
1028.0
1032.0
1026.0
1016.0
1010.0
1008.0
1018.0
1023.0
1025.0
1020.0
1022.0
1019.0
1016.0
1015.0
1009.0
1008.0
1010.0
1011.0
1011.0
1011.0
1007.0
1005.0
1005.0
1019.0
1025.0
1017.0
994.0
975.0
977.0
987.0
997.0
1003.0
1002.0
1000.0
1000.0
1003.0
1006.0
1006.0
1007.0
1006.0
1006.0
1007.0
1011.0
1014.0
1019.0
1026.0
1020.0
1005.0
994.0
992.0
1001.0
1004.0
1002.0
997.0
998.0
1000.0
1005.0
1004.0
998.0
994.0
999.0
1016.0
1047.0
1083.0
1120.0
1155.0
1193.0
1223.0
1243.0
1233.0
1190.0
1144.0
1090.0
1025.0
955.0
901.0
878.0
890.0
914.0
933.0
943.0
961.0
984.0
1000.0
1001.0
995.0
992.0
998.0
1009.0
1016.0
1020.0
1020.0
1016.0
1011.0
1011.0
1010.0
1016.0
1014.0
1013.0
1015.0
1024.0
1030.0
1034.0
1035.0
1034.0
1037.0
1044.0
1050.0
1050.0
1043.0
1037.0
1038.0
1048.0
1057.0
1058.0
1061.0
1064.0
1069.0
1073.0
1073.0
1073.0
1074.0
1081.0
1086.0
1089.0
1091.0
1096.0
1097.0
1098.0
1102.0
1104.0
1103.0
1100.0
1097.0
1095.0
1097.0
1099.0
1101.0
1103.0
1098.0
1082.0
1061.0
1056.0
1057.0
1060.0
1058.0
1045.0
1036.0
1032.0
1032.0
1030.0
1028.0
1018.0
1011.0
1014.0
1015.0
1020.0
1023.0
1023.0
1014.0
1009.0
1008.0
1012.0
1010.0
1005.0
1002.0
1002.0
1004.0
1009.0
1014.0
1015.0
1008.0
1003.0
998.0
999.0
1003.0
1007.0
1014.0
1016.0
1013.0
1009.0
1004.0
1005.0
1010.0
1016.0
1018.0
1014.0
1012.0
1014.0
1019.0
1028.0
1034.0
1033.0
1030.0
1025.0
1019.0
1016.0
1011.0
1011.0
1011.0
1011.0
1011.0
1013.0
1011.0
1007.0
1002.0
998.0
999.0
1002.0
1001.0
997.0
996.0
994.0
997.0
1001.0
1001.0
1002.0
1001.0
999.0
998.0
998.0
1001.0
1004.0
1006.0
1007.0
1006.0
1004.0
1003.0
1004.0
1007.0
1005.0
1003.0
1000.0
998.0
998.0
996.0
993.0
1000.0
1008.0
1015.0
1013.0
1005.0
1000.0
995.0
998.0
1003.0
1007.0
1005.0
999.0
1005.0
1020.0
1050.0
1084.0
1113.0
1139.0
1173.0
1205.0
1227.0
1236.0
1219.0
1177.0
1127.0
1071.0
1007.0
953.0
906.0
873.0
874.0
897.0
925.0
944.0
959.0
970.0
980.0
987.0
992.0
995.0
1001.0
1005.0
1003.0
1003.0
1003.0
1008.0
1014.0
1014.0
1012.0
1011.0
1014.0
1021.0
1025.0
1027.0
1026.0
1028.0
1037.0
1034.0
1028.0
1026.0
1032.0
1036.0
1036.0
1034.0
1038.0
1043.0
1047.0
1053.0
1062.0
1070.0
1073.0
1070.0
1074.0
1084.0
1094.0
1093.0
1091.0
1089.0
1090.0
1092.0
1091.0
1097.0
1093.0
1088.0
1083.0
1091.0
1095.0
1096.0
1091.0
1088.0
1088.0
1084.0
1083.0
1075.0
1071.0
1061.0
1049.0
1032.0
1025.0
1023.0
1025.0
1025.0
1023.0
1023.0
1021.0
1022.0
1021.0
1018.0
1011.0
1005.0
1003.0
1002.0
1003.0
1002.0
1001.0
1000.0
1002.0
1011.0
1015.0
1012.0
1002.0
993.0
997.0
1006.0
1013.0
1013.0
1005.0
999.0
997.0
999.0
998.0
1000.0
997.0
998.0
1001.0
1008.0
1012.0
1015.0
1021.0
1027.0
1031.0
1027.0
1018.0
1014.0
1017.0
1014.0
1012.0
1006.0
999.0
997.0
997.0
1002.0
1004.0
1007.0
1005.0
1003.0
1004.0
1002.0
999.0
992.0
991.0
990.0
989.0
994.0
1000.0
1004.0
1004.0
1002.0
999.0
1000.0
999.0
997.0
992.0
989.0
996.0
1000.0
1002.0
1003.0
1004.0
1001.0
1001.0
1001.0
999.0
993.0
990.0
989.0
990.0
995.0
1002.0
1000.0
996.0
994.0
995.0
1000.0
1006.0
1000.0
995.0
985.0
988.0
1005.0
1032.0
1054.0
1077.0
1097.0
1117.0
1152.0
1186.0
1210.0
1213.0
1194.0
1158.0
1126.0
1086.0
1022.0
950.0
895.0
868.0
876.0
900.0
919.0
926.0
938.0
952.0
974.0
991.0
998.0
1002.0
1005.0
1006.0
1005.0
1002.0
992.0
987.0
993.0
1000.0
1009.0
1007.0
1010.0
1013.0
1014.0
1013.0
1019.0
1022.0
1024.0
1023.0
1023.0
1024.0
1031.0
1034.0
1042.0
1042.0
1040.0
1044.0
1050.0
1054.0
1051.0
1049.0
1042.0
1041.0
1048.0
1062.0
1076.0
1085.0
1078.0
1071.0
1066.0
1064.0
1072.0
1078.0
1084.0
1091.0
1096.0
1098.0
1096.0
1094.0
1089.0
1085.0
1082.0
1074.0
1072.0
1071.0
1069.0
1067.0
1068.0
1068.0
1065.0
1064.0
1062.0
1055.0
1052.0
1048.0
1045.0
1038.0
1031.0
1029.0
1029.0
1036.0
1040.0
1037.0
1025.0
1013.0
1006.0
1005.0
1009.0
1007.0
1003.0
1001.0
999.0
1004.0
1004.0
1000.0
1000.0
999.0
1002.0
1007.0
1010.0
1016.0
1017.0
1006.0
991.0
982.0
984.0
992.0
994.0
994.0
995.0
995.0
999.0
999.0
1006.0
1013.0
1010.0
1004.0
1002.0
998.0
999.0
1006.0
1011.0
1015.0
1014.0
1009.0
1007.0
1009.0
1016.0
1018.0
1017.0
1016.0
1008.0
1004.0
1000.0
1002.0
1005.0
1003.0
998.0
991.0
992.0
995.0
999.0
1002.0
996.0
993.0
988.0
987.0
991.0
991.0
993.0
996.0
1004.0
1008.0
1010.0
1002.0
996.0
991.0
987.0
983.0
980.0
981.0
980.0
981.0
981.0
987.0
989.0
995.0
998.0
1001.0
1004.0
999.0
992.0
978.0
974.0
975.0
979.0
982.0
980.0
984.0
986.0
986.0
988.0
990.0
988.0
985.0
983.0
986.0
997.0
1014.0
1032.0
1058.0
1088.0
1114.0
1143.0
1170.0
1187.0
1195.0
1189.0
1163.0
1127.0
1093.0
1039.0
968.0
903.0
863.0
861.0
887.0
909.0
923.0
936.0
958.0
980.0
996.0
1000.0
999.0
993.0
981.0
976.0
978.0
985.0
991.0
994.0
996.0
996.0
996.0
995.0
1003.0
1007.0
1015.0
1021.0
1023.0
1021.0
1018.0
1017.0
1013.0
1011.0
1013.0
1018.0
1025.0
1024.0
1028.0
1033.0
1037.0
1043.0
1050.0
1055.0
1062.0
1068.0
1073.0
1073.0
1070.0
1066.0
1064.0
1061.0
1065.0
1072.0
1075.0
1079.0
1080.0
1077.0
1075.0
1075.0
1077.0
1080.0
1077.0
1075.0
1067.0
1061.0
1055.0
1053.0
1050.0
1049.0
1047.0
1047.0
1043.0
1038.0
1036.0
1032.0
1034.0
1031.0
1027.0
1022.0
1019.0
1014.0
1011.0
1007.0
1004.0
1002.0
995.0
989.0
987.0
989.0
994.0
996.0
994.0
989.0
987.0
990.0
994.0
997.0
992.0
994.0
998.0
1004.0
1005.0
999.0
992.0
986.0
983.0
980.0
977.0
978.0
978.0
983.0
987.0
988.0
988.0
987.0
988.0
994.0
998.0
999.0
1000.0
998.0
998.0
1000.0
1008.0
1011.0
1015.0
1011.0
1010.0
1009.0
1008.0
1008.0
1004.0
999.0
998.0
1000.0
1002.0
1000.0
999.0
994.0
994.0
1000.0
999.0
998.0
988.0
979.0
970.0
967.0
973.0
977.0
980.0
979.0
978.0
984.0
991.0
990.0
981.0
977.0
979.0
982.0
990.0
994.0
988.0
976.0
971.0
972.0
981.0
987.0
989.0
992.0
988.0
990.0
993.0
991.0
985.0
980.0
979.0
982.0
985.0
988.0
989.0
991.0
987.0
984.0
984.0
981.0
981.0
980.0
986.0
1003.0
1036.0
1069.0
1089.0
1110.0
1139.0
1166.0
1183.0
1177.0
1151.0
1121.0
1098.0
1053.0
989.0
919.0
864.0
836.0
841.0
868.0
892.0
908.0
917.0
927.0
944.0
957.0
966.0
967.0
970.0
973.0
978.0
984.0
987.0
989.0
988.0
987.0
991.0
996.0
998.0
998.0
994.0
992.0
994.0
998.0
999.0
1004.0
1005.0
1007.0
1008.0
1013.0
1017.0
1019.0
1020.0
1020.0
1020.0
1023.0
1029.0
1032.0
1035.0
1040.0
1044.0
1044.0
1050.0
1054.0
1056.0
1052.0
1052.0
1055.0
1061.0
1066.0
1064.0
1056.0
1053.0
1057.0
1063.0
1071.0
1072.0
1068.0
1071.0
1070.0
1069.0
1069.0
1072.0
1074.0
1073.0
1075.0
1063.0
1051.0
1040.0
1032.0
1031.0
1034.0
1037.0
1039.0
1032.0
1027.0
1022.0
1016.0
1016.0
1017.0
1012.0
1011.0
1009.0
1007.0
1007.0
1005.0
994.0
982.0
975.0
978.0
985.0
991.0
994.0
992.0
987.0
985.0
987.0
991.0
993.0
992.0
989.0
985.0
979.0
978.0
976.0
974.0
974.0
976.0
980.0
985.0
985.0
989.0
987.0
985.0
986.0
985.0
987.0
988.0
988.0
994.0
998.0
1000.0
993.0
987.0
984.0
988.0
995.0
997.0
993.0
992.0
996.0
1005.0
1007.0
1006.0
1005.0
1005.0
1004.0
998.0
987.0
982.0
980.0
982.0
980.0
984.0
989.0
990.0
989.0
984.0
979.0
975.0
975.0
979.0
983.0
983.0
982.0
984.0
985.0
982.0
977.0
973.0
972.0
979.0
982.0
978.0
972.0
972.0
974.0
978.0
980.0
980.0
983.0
983.0
981.0
980.0
980.0
981.0
984.0
981.0
977.0
975.0
976.0
976.0
981.0
982.0
982.0
983.0
985.0
984.0
980.0
979.0
986.0
999.0
1025.0
1049.0
1074.0
1097.0
1124.0
1151.0
1166.0
1169.0
1152.0
1128.0
1097.0
1057.0
1007.0
949.0
894.0
853.0
847.0
867.0
896.0
913.0
921.0
929.0
937.0
948.0
960.0
967.0
974.0
977.0
976.0
980.0
987.0
994.0
993.0
992.0
987.0
983.0
979.0
984.0
989.0
988.0
985.0
987.0
996.0
1001.0
1004.0
1005.0
1010.0
1014.0
1020.0
1025.0
1032.0
1034.0
1030.0
1028.0
1029.0
1036.0
1041.0
1040.0
1043.0
1048.0
1052.0
1054.0
1056.0
1055.0
1056.0
1063.0
1067.0
1066.0
1065.0
1067.0
1066.0
1072.0
1075.0
1076.0
1072.0
1068.0
1067.0
1070.0
1071.0
1069.0
1062.0
1054.0
1050.0
1050.0
1052.0
1053.0
1049.0
1035.0
1018.0
1010.0
1007.0
1010.0
1013.0
1009.0
1004.0
997.0
991.0
987.0
985.0
984.0
986.0
987.0
989.0
993.0
993.0
985.0
982.0
984.0
987.0
988.0
988.0
990.0
987.0
983.0
982.0
983.0
983.0
979.0
978.0
981.0
982.0
984.0
986.0
985.0
985.0
990.0
990.0
988.0
990.0
990.0
992.0
996.0
1002.0
1012.0
1012.0
1010.0
1011.0
1012.0
1017.0
1015.0
1003.0
992.0
993.0
998.0
993.0
983.0
977.0
977.0
980.0
983.0
985.0
982.0
979.0
979.0
978.0
988.0
997.0
995.0
988.0
982.0
974.0
973.0
977.0
980.0
978.0
979.0
980.0
982.0
981.0
979.0
981.0
981.0
982.0
988.0
993.0
994.0
987.0
978.0
973.0
975.0
982.0
990.0
990.0
985.0
984.0
984.0
990.0
993.0
990.0
988.0
984.0
984.0
988.0
988.0
993.0
1007.0
1031.0
1065.0
1093.0
1115.0
1134.0
1149.0
1162.0
1167.0
1160.0
1141.0
1109.0
1061.0
994.0
929.0
884.0
860.0
865.0
882.0
902.0
923.0
942.0
957.0
966.0
971.0
977.0
985.0
998.0
1010.0
1015.0
1014.0
1005.0
992.0
988.0
987.0
994.0
997.0
997.0
1000.0
1008.0
1007.0
1008.0
1002.0
1001.0
1010.0
1018.0
1019.0
1020.0
1019.0
1020.0
1030.0
1041.0
1049.0
1046.0
1040.0
1027.0
1025.0
1035.0
1047.0
1053.0
1049.0
1050.0
1053.0
1063.0
1070.0
1071.0
1068.0
1070.0
1078.0
1083.0
1083.0
1080.0
1080.0
1080.0
1084.0
1086.0
1083.0
1082.0
1079.0
1074.0
1068.0
1067.0
1068.0
1061.0
1055.0
1054.0
1054.0
1056.0
1055.0
1052.0
1041.0
1025.0
1013.0
1011.0
1018.0
1017.0
1012.0
1002.0
1002.0
1007.0
1012.0
1015.0
1017.0
1017.0
1015.0
1000.0
986.0
979.0
976.0
978.0
985.0
990.0
990.0
993.0
993.0
994.0
989.0
983.0
984.0
988.0
991.0
991.0
994.0
996.0
1004.0
1005.0
999.0
996.0
995.0
1002.0
1011.0
1013.0
1003.0
999.0
1006.0
1014.0
1020.0
1022.0
1018.0
1011.0
1005.0
1003.0
1000.0
1000.0
1001.0
1000.0
993.0
987.0
988.0
990.0
991.0
986.0
983.0
991.0
999.0
1008.0
1015.0
1016.0
1022.0
1028.0
1032.0
1035.0
1045.0
1070.0
1100.0
1127.0
1148.0
1175.0
1199.0
1218.0
1234.0
1249.0
1261.0
1268.0
1274.0
1275.0
1272.0
1269.0
1268.0
1266.0
1264.0
1263.0
1276.0
1293.0
1309.0
1317.0
1314.0
1298.0
1272.0
1238.0
1174.0
1072.0
991.0
957.0
954.0
954.0
948.0
939.0
932.0
923.0
923.0
924.0
928.0
922.0
909.0
899.0
903.0
913.0
911.0
907.0
896.0
889.0
888.0
895.0
896.0
898.0
901.0
901.0
896.0
894.0
893.0
895.0
896.0
896.0
897.0
897.0
895.0
891.0
888.0
888.0
892.0
899.0
903.0
909.0
909.0
909.0
912.0
919.0
922.0
926.0
930.0
929.0
931.0
936.0
941.0
943.0
948.0
962.0
974.0
984.0
986.0
975.0
962.0
958.0
954.0
954.0
957.0
964.0
963.0
967.0
967.0
967.0
966.0
967.0
964.0
966.0
977.0
982.0
987.0
985.0
978.0
968.0
959.0
956.0
961.0
967.0
966.0
959.0
956.0
964.0
972.0
975.0
969.0
963.0
961.0
969.0
972.0
968.0
956.0
952.0
957.0
961.0
958.0
955.0
957.0
964.0
968.0
964.0
964.0
958.0
958.0
955.0
955.0
963.0
974.0
981.0
983.0
983.0
982.0
981.0
985.0
989.0
987.0
983.0
988.0
995.0
987.0
981.0
985.0
992.0
994.0
992.0
987.0
981.0
979.0
984.0
987.0
983.0
972.0
962.0
962.0
974.0
988.0
986.0
974.0
967.0
965.0
973.0
982.0
984.0
977.0
968.0
965.0
968.0
965.0
962.0
964.0
973.0
976.0
968.0
965.0
970.0
976.0
977.0
970.0
963.0
962.0
963.0
962.0
960.0
960.0
966.0
973.0
973.0
973.0
972.0
974.0
978.0
979.0
981.0
982.0
984.0
1000.0
1038.0
1079.0
1114.0
1145.0
1173.0
1189.0
1192.0
1164.0
1125.0
1069.0
1000.0
933.0
877.0
845.0
841.0
856.0
879.0
900.0
920.0
936.0
947.0
956.0
964.0
967.0
970.0
977.0
982.0
989.0
988.0
982.0
971.0
961.0
956.0
960.0
970.0
975.0
982.0
990.0
997.0
996.0
994.0
993.0
993.0
1000.0
1010.0
1024.0
1029.0
1024.0
1022.0
1022.0
1023.0
1022.0
1026.0
1035.0
1044.0
1054.0
1061.0
1060.0
1054.0
1055.0
1064.0
1075.0
1074.0
1070.0
1072.0
1076.0
1080.0
1076.0
1070.0
1073.0
1084.0
1080.0
1071.0
1053.0
1051.0
1060.0
1065.0
1066.0
1060.0
1047.0
1030.0
1011.0
1004.0
1005.0
1012.0
1020.0
1023.0
1019.0
1002.0
988.0
988.0
1000.0
1012.0
1009.0
992.0
982.0
985.0
990.0
985.0
975.0
959.0
956.0
963.0
968.0
973.0
975.0
971.0
980.0
985.0
985.0
976.0
967.0
965.0
968.0
975.0
980.0
985.0
988.0
988.0
988.0
996.0
1003.0
1009.0
1015.0
1015.0
1005.0
997.0
988.0
981.0
982.0
982.0
976.0
969.0
962.0
960.0
960.0
965.0
971.0
975.0
980.0
979.0
970.0
965.0
963.0
967.0
975.0
981.0
983.0
982.0
975.0
974.0
976.0
984.0
988.0
986.0
983.0
979.0
976.0
972.0
964.0
963.0
981.0
997.0
999.0
989.0
975.0
967.0
962.0
961.0
970.0
978.0
972.0
969.0
964.0
965.0
973.0
975.0
977.0
997.0
1031.0
1065.0
1097.0
1133.0
1163.0
1177.0
1170.0
1142.0
1113.0
1081.0
1026.0
956.0
891.0
849.0
840.0
864.0
895.0
913.0
926.0
939.0
946.0
956.0
963.0
972.0
981.0
985.0
985.0
979.0
973.0
969.0
971.0
975.0
979.0
985.0
987.0
988.0
991.0
995.0
994.0
999.0
1001.0
1005.0
1007.0
1010.0
1015.0
1023.0
1023.0
1019.0
1009.0
1011.0
1023.0
1030.0
1031.0
1033.0
1035.0
1044.0
1050.0
1058.0
1062.0
1060.0
1058.0
1057.0
1059.0
1064.0
1068.0
1072.0
1071.0
1075.0
1079.0
1081.0
1079.0
1069.0
1057.0
1050.0
1044.0
1041.0
1040.0
1039.0
1034.0
1029.0
1026.0
1026.0
1026.0
1022.0
1017.0
1013.0
1013.0
1007.0
1003.0
997.0
991.0
986.0
986.0
982.0
976.0
973.0
973.0
977.0
985.0
989.0
988.0
981.0
971.0
971.0
975.0
979.0
981.0
978.0
974.0
972.0
976.0
977.0
977.0
974.0
978.0
983.0
990.0
994.0
993.0
988.0
984.0
985.0
996.0
1007.0
1010.0
1001.0
998.0
999.0
998.0
996.0
992.0
987.0
980.0
980.0
982.0
984.0
984.0
980.0
980.0
981.0
988.0
990.0
989.0
978.0
970.0
967.0
968.0
973.0
975.0
976.0
972.0
975.0
976.0
981.0
982.0
977.0
975.0
975.0
979.0
983.0
984.0
983.0
978.0
974.0
978.0
980.0
978.0
971.0
972.0
973.0
976.0
981.0
985.0
986.0
984.0
976.0
970.0
971.0
973.0
975.0
976.0
986.0
1005.0
1027.0
1054.0
1080.0
1104.0
1134.0
1166.0
1188.0
1192.0
1170.0
1137.0
1100.0
1051.0
985.0
918.0
867.0
848.0
862.0
890.0
908.0
921.0
935.0
949.0
962.0
977.0
986.0
990.0
991.0
989.0
987.0
987.0
991.0
995.0
996.0
997.0
995.0
993.0
997.0
998.0
998.0
997.0
1000.0
1006.0
1010.0
1007.0
1007.0
1009.0
1015.0
1020.0
1025.0
1025.0
1023.0
1025.0
1032.0
1037.0
1042.0
1041.0
1044.0
1041.0
1043.0
1051.0
1059.0
1062.0
1066.0
1066.0
1072.0
1076.0
1078.0
1081.0
1077.0
1071.0
1071.0
1077.0
1077.0
1079.0
1075.0
1072.0
1072.0
1073.0
1068.0
1062.0
1051.0
1043.0
1040.0
1042.0
1042.0
1043.0
1037.0
1028.0
1023.0
1015.0
1015.0
1012.0
1011.0
1009.0
1008.0
1006.0
1002.0
997.0
994.0
992.0
988.0
990.0
990.0
992.0
