# Simple Text Format
# Sampling Rate (Hz):= 360.00
# Resolution:= 12
# Labels:= ECG
1026.0
1023.0
1026.0
1036.0
1045.0
1056.0
1064.0
1066.0
1062.0
1053.0
1049.0
1045.0
1043.0
1037.0
1037.0
1045.0
1054.0
1057.0
1050.0
1043.0
1041.0
1043.0
1048.0
1050.0
1045.0
1039.0
1035.0
1038.0
1035.0
1026.0
1010.0
999.0
993.0
992.0
991.0
989.0
986.0
985.0
988.0
989.0
985.0
975.0
971.0
971.0
974.0
976.0
975.0
971.0
971.0
972.0
984.0
989.0
981.0
970.0
963.0
962.0
966.0
974.0
982.0
990.0
992.0
991.0
983.0
980.0
977.0
969.0
963.0
968.0
973.0
979.0
978.0
979.0
983.0
998.0
1007.0
1010.0
1004.0
992.0
974.0
965.0
968.0
977.0
983.0
981.0
975.0
971.0
971.0
975.0
979.0
980.0
981.0
985.0
986.0
978.0
968.0
970.0
972.0
967.0
961.0
958.0
962.0
970.0
975.0
973.0
969.0
964.0
966.0
972.0
967.0
960.0
955.0
959.0
966.0
971.0
971.0
975.0
975.0
976.0
980.0
985.0
987.0
989.0
992.0
993.0
986.0
970.0
962.0
950.0
944.0
949.0
962.0
980.0
1001.0
1034.0
1074.0
1117.0
1152.0
1191.0
1216.0
1217.0
1203.0
1166.0
1122.0
1087.0
1033.0
965.0
903.0
867.0
861.0
885.0
904.0
914.0
924.0
941.0
963.0
974.0
973.0
971.0
975.0
983.0
987.0
982.0
981.0
977.0
980.0
989.0
1001.0
1005.0
991.0
968.0
965.0
980.0
996.0
1008.0
1009.0
998.0
990.0
995.0
1007.0
1018.0
1021.0
1015.0
1011.0
1014.0
1023.0
1034.0
1039.0
1044.0
1045.0
1049.0
1052.0
1057.0
1063.0
1063.0
1055.0
1050.0
1055.0
1066.0
1073.0
1068.0
1061.0
1059.0
1061.0
1065.0
1064.0
1063.0
1064.0
1061.0
1057.0
1059.0
1056.0
1045.0
1037.0
1040.0
1042.0
1034.0
1020.0
1001.0
995.0
996.0
998.0
1001.0
997.0
995.0
992.0
991.0
995.0
995.0
992.0
979.0
971.0
972.0
984.0
994.0
995.0
983.0
971.0
964.0
964.0
968.0
972.0
971.0
971.0
970.0
972.0
976.0
978.0
983.0
985.0
988.0
992.0
997.0
994.0
982.0
968.0
965.0
973.0
981.0
989.0
993.0
994.0
998.0
1000.0
999.0
989.0
981.0
978.0
985.0
987.0
987.0
980.0
973.0
967.0
968.0
971.0
972.0
971.0
971.0
969.0
963.0
964.0
971.0
979.0
979.0
983.0
985.0
985.0
981.0
980.0
975.0
970.0
966.0
975.0
980.0
978.0
973.0
969.0
973.0
984.0
987.0
976.0
964.0
957.0
955.0
957.0
961.0
968.0
970.0
977.0
990.0
997.0
991.0
980.0
968.0
956.0
955.0
970.0
1002.0
1049.0
1096.0
1136.0
1176.0
1206.0
1220.0
1202.0
1164.0
1125.0
1078.0
1012.0
938.0
878.0
850.0
860.0
879.0
899.0
915.0
933.0
952.0
957.0
964.0
971.0
975.0
969.0
962.0
963.0
972.0
984.0
988.0
992.0
994.0
997.0
1004.0
1005.0
998.0
992.0
995.0
999.0
998.0
995.0
1003.0
1013.0
1013.0
1012.0
1017.0
1027.0
1035.0
1039.0
1038.0
1039.0
1038.0
1034.0
1034.0
1038.0
1044.0
1054.0
1062.0
1071.0
1068.0
1061.0
1056.0
1063.0
1071.0
1077.0
1079.0
1075.0
1072.0
1066.0
1058.0
1063.0
1070.0
1068.0
1051.0
1031.0
1018.0
1021.0
1030.0
1035.0
1030.0
1019.0
1007.0
993.0
992.0
1005.0
1022.0
1028.0
1011.0
986.0
960.0
950.0
958.0
968.0
972.0
970.0
967.0
966.0
965.0
974.0
982.0
980.0
973.0
970.0
974.0
977.0
980.0
981.0
982.0
980.0
982.0
986.0
985.0
980.0
979.0
975.0
974.0
974.0
978.0
987.0
996.0
998.0
997.0
996.0
996.0
997.0
998.0
994.0
995.0
995.0
992.0
990.0
981.0
972.0
969.0
972.0
977.0
982.0
976.0
970.0
966.0
965.0
974.0
985.0
987.0
982.0
974.0
970.0
969.0
971.0
974.0
981.0
981.0
979.0
983.0
995.0
1004.0
1016.0
1025.0
1033.0
1043.0
1058.0
1085.0
1108.0
1126.0
1145.0
1162.0
1175.0
1185.0
1194.0
1196.0
1178.0
1149.0
1118.0
1085.0
1032.0
963.0
909.0
887.0
891.0
891.0
884.0
878.0
883.0
894.0
903.0
904.0
904.0
906.0
907.0
905.0
905.0
905.0
904.0
907.0
912.0
917.0
928.0
941.0
955.0
963.0
966.0
963.0
960.0
952.0
951.0
955.0
958.0
964.0
970.0
978.0
985.0
981.0
975.0
973.0
976.0
980.0
982.0
987.0
995.0
1003.0
1012.0
1018.0
1018.0
1012.0
1009.0
1008.0
1010.0
1014.0
1021.0
1020.0
1017.0
1019.0
1024.0
1029.0
1027.0
1024.0
1025.0
1031.0
1035.0
1040.0
1039.0
1037.0
1033.0
1034.0
1040.0
1044.0
1045.0
1036.0
1039.0
1042.0
1039.0
1026.0
1012.0
1002.0
1005.0
1012.0
1017.0
1012.0
1008.0
1004.0
999.0
992.0
983.0
980.0
980.0
978.0
971.0
968.0
976.0
986.0
991.0
989.0
978.0
972.0
966.0
969.0
969.0
977.0
981.0
980.0
975.0
971.0
969.0
970.0
969.0
968.0
969.0
970.0
971.0
974.0
980.0
987.0
988.0
986.0
982.0
978.0
976.0
974.0
970.0
968.0
971.0
974.0
979.0
989.0
996.0
998.0
998.0
993.0
986.0
987.0
998.0
1006.0
1008.0
998.0
995.0
995.0
993.0
986.0
983.0
987.0
986.0
982.0
978.0
981.0
988.0
989.0
987.0
984.0
976.0
967.0
962.0
965.0
972.0
978.0
977.0
970.0
966.0
964.0
969.0
975.0
978.0
979.0
981.0
982.0
986.0
990.0
985.0
978.0
974.0
972.0
978.0
982.0
979.0
974.0
971.0
977.0
976.0
975.0
979.0
981.0
981.0
978.0
978.0
996.0
1024.0
1065.0
1100.0
1124.0
1149.0
1182.0
1202.0
1206.0
1174.0
1128.0
1077.0
1020.0
961.0
905.0
861.0
844.0
858.0
883.0
907.0
932.0
953.0
971.0
977.0
975.0
967.0
964.0
972.0
978.0
982.0
978.0
976.0
976.0
977.0
982.0
992.0
1002.0
1005.0
1001.0
997.0
994.0
997.0
998.0
1001.0
1000.0
1000.0
998.0
1000.0
1006.0
1015.0
1022.0
1034.0
1042.0
1041.0
1034.0
1030.0
1034.0
1040.0
1048.0
1055.0
1061.0
1071.0
1077.0
1081.0
1076.0
1072.0
1070.0
1066.0
1057.0
1054.0
1053.0
1057.0
1060.0
1063.0
1069.0
1070.0
1066.0
1065.0
1061.0
1056.0
1046.0
1041.0
1040.0
1040.0
1041.0
1033.0
1025.0
1018.0
1015.0
1010.0
1008.0
1008.0
1004.0
994.0
988.0
990.0
999.0
1005.0
1006.0
998.0
985.0
968.0
960.0
963.0
975.0
978.0
981.0
982.0
985.0
981.0
971.0
966.0
964.0
968.0
977.0
982.0
984.0
982.0
981.0
976.0
977.0
982.0
986.0
989.0
985.0
984.0
986.0
991.0
992.0
985.0
979.0
979.0
990.0
1000.0
1004.0
1003.0
1000.0
999.0
998.0
996.0
989.0
988.0
991.0
998.0
996.0
990.0
981.0
977.0
977.0
982.0
993.0
1000.0
998.0
984.0
971.0
968.0
977.0
985.0
988.0
983.0
971.0
961.0
957.0
963.0
970.0
974.0
977.0
977.0
980.0
974.0
967.0
961.0
965.0
970.0
980.0
989.0
997.0
990.0
974.0
961.0
955.0
966.0
974.0
974.0
972.0
969.0
978.0
986.0
991.0
988.0
981.0
974.0
972.0
983.0
1012.0
1050.0
1086.0
1108.0
1119.0
1136.0
1153.0
1176.0
1184.0
1170.0
1140.0
1109.0
1067.0
1017.0
960.0
908.0
873.0
864.0
873.0
897.0
920.0
939.0
952.0
961.0
966.0
965.0
961.0
960.0
969.0
974.0
979.0
983.0
980.0
975.0
965.0
965.0
975.0
983.0
991.0
992.0
997.0
1001.0
995.0
989.0
982.0
982.0
988.0
991.0
997.0
1003.0
1004.0
1006.0
1012.0
1023.0
1028.0
1028.0
1024.0
1025.0
1033.0
1042.0
1044.0
1042.0
1039.0
1043.0
1057.0
1066.0
1066.0
1060.0
1054.0
1053.0
1059.0
1066.0
1069.0
1066.0
1061.0
1058.0
1064.0
1068.0
1065.0
1062.0
1056.0
1055.0
1057.0
1051.0
1045.0
1039.0
1035.0
1031.0
1031.0
1030.0
1024.0
1020.0
1019.0
1025.0
1027.0
1017.0
992.0
968.0
958.0
966.0
983.0
992.0
997.0
990.0
976.0
965.0
966.0
976.0
986.0
983.0
975.0
967.0
964.0
972.0
976.0
976.0
971.0
973.0
972.0
972.0
974.0
975.0
983.0
985.0
988.0
991.0
987.0
981.0
977.0
972.0
978.0
981.0
983.0
985.0
987.0
987.0
992.0
995.0
998.0
1005.0
1005.0
1002.0
998.0
1005.0
1015.0
1023.0
1019.0
1020.0
1029.0
1042.0
1051.0
1052.0
1060.0
1075.0
1098.0
1123.0
1138.0
1155.0
1171.0
1191.0
1208.0
1214.0
1215.0
1214.0
1214.0
1222.0
1240.0
1268.0
1300.0
1341.0
1378.0
1384.0
1367.0
1327.0
1249.0
1130.0
1028.0
983.0
972.0
969.0
957.0
938.0
923.0
917.0
917.0
922.0
930.0
932.0
926.0
921.0
912.0
912.0
908.0
896.0
889.0
883.0
890.0
896.0
903.0
906.0
909.0
911.0
905.0
897.0
886.0
880.0
881.0
891.0
902.0
906.0
910.0
912.0
907.0
901.0
895.0
894.0
900.0
905.0
905.0
907.0
911.0
918.0
924.0
926.0
921.0
920.0
921.0
933.0
937.0
934.0
925.0
924.0
933.0
948.0
961.0
963.0
959.0
944.0
936.0
937.0
943.0
949.0
952.0
962.0
972.0
978.0
965.0
949.0
938.0
943.0
953.0
957.0
964.0
963.0
956.0
952.0
953.0
956.0
958.0
956.0
954.0
957.0
965.0
974.0
974.0
968.0
952.0
939.0
940.0
943.0
951.0
955.0
951.0
945.0
946.0
950.0
961.0
958.0
950.0
946.0
946.0
952.0
954.0
950.0
943.0
946.0
954.0
962.0
967.0
972.0
973.0
971.0
967.0
964.0
961.0
963.0
965.0
966.0
965.0
966.0
965.0
965.0
966.0
974.0
974.0
967.0
958.0
951.0
950.0
961.0
970.0
978.0
983.0
982.0
973.0
964.0
955.0
950.0
952.0
951.0
952.0
958.0
966.0
971.0
971.0
972.0
977.0
983.0
992.0
995.0
992.0
993.0
993.0
992.0
991.0
983.0
976.0
973.0
975.0
978.0
983.0
983.0
981.0
976.0
972.0
966.0
965.0
962.0
961.0
956.0
951.0
948.0
949.0
953.0
959.0
958.0
961.0
964.0
967.0
971.0
968.0
966.0
961.0
964.0
966.0
967.0
963.0
959.0
952.0
950.0
950.0
952.0
959.0
961.0
961.0
962.0
958.0
962.0
966.0
964.0
960.0
960.0
967.0
971.0
967.0
959.0
954.0
960.0
972.0
983.0
983.0
975.0
970.0
978.0
1003.0
1039.0
1072.0
1096.0
1130.0
1165.0
1188.0
1197.0
1195.0
1170.0
1135.0
1101.0
1078.0
1042.0
990.0
928.0
884.0
858.0
858.0
866.0
878.0
897.0
926.0
958.0
971.0
955.0
935.0
923.0
917.0
922.0
936.0
950.0
958.0
962.0
965.0
965.0
970.0
969.0
969.0
973.0
977.0
983.0
987.0
987.0
992.0
994.0
998.0
999.0
999.0
999.0
996.0
995.0
993.0
1001.0
1003.0
1003.0
1000.0
996.0
995.0
1003.0
1014.0
1028.0
1037.0
1042.0
1039.0
1041.0
1050.0
1055.0
1043.0
1023.0
1014.0
1022.0
1040.0
1051.0
1056.0
1061.0
1067.0
1071.0
1073.0
1071.0
1065.0
1053.0
1038.0
1026.0
1023.0
1030.0
1034.0
1039.0
1040.0
1035.0
1032.0
1028.0
1021.0
1016.0
1009.0
1000.0
1002.0
1003.0
1006.0
1003.0
995.0
984.0
975.0
968.0
965.0
967.0
973.0
979.0
985.0
990.0
988.0
983.0
975.0
972.0
970.0
970.0
970.0
970.0
973.0
976.0
978.0
981.0
983.0
975.0
963.0
955.0
954.0
957.0
962.0
961.0
960.0
961.0
962.0
969.0
972.0
975.0
979.0
981.0
983.0
976.0
975.0
979.0
987.0
988.0
988.0
989.0
991.0
994.0
987.0
972.0
962.0
962.0
963.0
961.0
961.0
964.0
968.0
975.0
971.0
962.0
958.0
962.0
970.0
975.0
975.0
972.0
968.0
971.0
973.0
972.0
965.0
954.0
951.0
959.0
967.0
967.0
967.0
965.0
973.0
976.0
973.0
974.0
968.0
955.0
946.0
952.0
970.0
981.0
976.0
966.0
964.0
964.0
967.0
967.0
969.0
966.0
966.0
965.0
969.0
978.0
989.0
1010.0
1037.0
1068.0
1107.0
1144.0
1169.0
1186.0
1181.0
1148.0
1103.0
1063.0
1019.0
960.0
907.0
869.0
859.0
877.0
896.0
904.0
905.0
912.0
929.0
941.0
945.0
944.0
948.0
964.0
976.0
978.0
968.0
960.0
957.0
962.0
967.0
973.0
974.0
971.0
971.0
974.0
984.0
1002.0
1018.0
1015.0
995.0
978.0
976.0
985.0
999.0
1007.0
1015.0
1017.0
1016.0
1017.0
1017.0
1017.0
1015.0
1015.0
1022.0
1033.0
1043.0
1051.0
1053.0
1056.0
1058.0
1056.0
1054.0
1053.0
1053.0
1055.0
1059.0
1064.0
1069.0
1070.0
1075.0
1078.0
1077.0
1072.0
1070.0
1071.0
1074.0
1072.0
1060.0
1054.0
1051.0
1047.0
1036.0
1014.0
995.0
990.0
986.0
982.0
981.0
987.0
994.0
1002.0
1006.0
1003.0
997.0
989.0
979.0
971.0
971.0
976.0
979.0
973.0
971.0
969.0
968.0
965.0
968.0
971.0
976.0
979.0
973.0
973.0
970.0
969.0
974.0
980.0
978.0
970.0
965.0
967.0
975.0
979.0
976.0
974.0
965.0
963.0
968.0
979.0
984.0
981.0
984.0
981.0
974.0
967.0
969.0
977.0
985.0
988.0
985.0
979.0
971.0
968.0
966.0
965.0
967.0
969.0
970.0
971.0
975.0
974.0
979.0
987.0
996.0
993.0
980.0
963.0
959.0
963.0
967.0
968.0
965.0
961.0
959.0
959.0
958.0
969.0
978.0
982.0
973.0
971.0
967.0
967.0
969.0
973.0
979.0
980.0
974.0
962.0
949.0
944.0
951.0
966.0
973.0
977.0
980.0
984.0
984.0
976.0
962.0
954.0
952.0
952.0
959.0
970.0
983.0
997.0
1010.0
1026.0
1055.0
1086.0
1118.0
1150.0
1172.0
1187.0
1192.0
1174.0
1133.0
1089.0
1039.0
976.0
913.0
866.0
846.0
853.0
875.0
897.0
910.0
922.0
939.0
954.0
964.0
968.0
965.0
974.0
991.0
1000.0
993.0
972.0
957.0
948.0
950.0
957.0
964.0
976.0
986.0
989.0
987.0
988.0
987.0
987.0
990.0
996.0
1007.0
1017.0
1015.0
1008.0
996.0
996.0
999.0
1003.0
1007.0
1011.0
1023.0
1033.0
1039.0
1042.0
1045.0
1049.0
1061.0
1068.0
1066.0
1060.0
1053.0
1047.0
1046.0
1051.0
1053.0
1061.0
1063.0
1065.0
1070.0
1075.0
1069.0
1065.0
1060.0
1065.0
1068.0
1057.0
1044.0
1037.0
1039.0
1038.0
1034.0
1028.0
1022.0
1015.0
1003.0
1000.0
1000.0
1003.0
1000.0
1000.0
997.0
991.0
981.0
977.0
975.0
971.0
973.0
980.0
987.0
988.0
981.0
976.0
972.0
975.0
979.0
970.0
963.0
958.0
956.0
957.0
958.0
966.0
971.0
969.0
964.0
967.0
969.0
977.0
980.0
984.0
978.0
974.0
977.0
982.0
984.0
981.0
980.0
985.0
993.0
996.0
991.0
984.0
982.0
986.0
991.0
995.0
993.0
992.0
989.0
980.0
971.0
967.0
969.0
973.0
973.0
972.0
973.0
972.0
969.0
966.0
962.0
962.0
967.0
972.0
975.0
972.0
963.0
964.0
969.0
980.0
981.0
977.0
967.0
965.0
963.0
966.0
969.0
968.0
966.0
968.0
969.0
973.0
975.0
971.0
967.0
966.0
967.0
970.0
971.0
966.0
963.0
963.0
980.0
995.0
989.0
969.0
958.0
958.0
965.0
970.0
975.0
978.0
981.0
984.0
980.0
971.0
958.0
946.0
946.0
962.0
986.0
1007.0
1032.0
1057.0
1085.0
1116.0
1142.0
1166.0
1182.0
1181.0
1151.0
1109.0
1073.0
1027.0
971.0
920.0
882.0
865.0
868.0
885.0
896.0
898.0
903.0
912.0
929.0
948.0
961.0
967.0
971.0
983.0
996.0
998.0
988.0
969.0
962.0
965.0
962.0
959.0
960.0
967.0
976.0
979.0
980.0
980.0
981.0
981.0
987.0
999.0
1007.0
1007.0
1001.0
996.0
995.0
994.0
1000.0
1006.0
1007.0
1006.0
1007.0
1009.0
1017.0
1027.0
1029.0
1035.0
1045.0
1055.0
1062.0
1055.0
1050.0
1053.0
1063.0
1070.0
1070.0
1065.0
1055.0
1052.0
1054.0
1053.0
1057.0
1058.0
1061.0
1061.0
1066.0
1075.0
1083.0
1075.0
1058.0
1038.0
1024.0
1019.0
1019.0
1020.0
1017.0
1015.0
1009.0
1001.0
994.0
994.0
993.0
986.0
976.0
970.0
968.0
973.0
976.0
977.0
976.0
979.0
985.0
989.0
988.0
986.0
978.0
971.0
966.0
967.0
969.0
975.0
975.0
969.0
965.0
965.0
968.0
970.0
971.0
978.0
992.0
989.0
977.0
961.0
949.0
947.0
951.0
957.0
962.0
964.0
969.0
972.0
979.0
987.0
990.0
989.0
986.0
985.0
993.0
1004.0
1001.0
988.0
970.0
960.0
962.0
966.0
970.0
968.0
963.0
967.0
972.0
972.0
971.0
965.0
960.0
960.0
965.0
972.0
968.0
970.0
968.0
966.0
964.0
963.0
970.0
974.0
975.0
977.0
974.0
970.0
970.0
977.0
981.0
976.0
972.0
969.0
969.0
969.0
971.0
969.0
967.0
967.0
966.0
966.0
968.0
975.0
980.0
977.0
972.0
969.0
974.0
984.0
993.0
994.0
986.0
975.0
965.0
956.0
955.0
950.0
951.0
962.0
981.0
1014.0
1050.0
1083.0
1106.0
1126.0
1157.0
1183.0
1199.0
1204.0
1180.0
1142.0
1100.0
1049.0
991.0
941.0
895.0
864.0
852.0
860.0
878.0
898.0
909.0
921.0
932.0
943.0
952.0
961.0
964.0
970.0
967.0
966.0
970.0
980.0
989.0
988.0
979.0
972.0
971.0
979.0
992.0
995.0
991.0
993.0
999.0
996.0
985.0
975.0
973.0
974.0
985.0
996.0
1003.0
1006.0
1009.0
1013.0
1017.0
1018.0
1014.0
1009.0
1012.0
1020.0
1033.0
1046.0
1057.0
1060.0
1057.0
1053.0
1052.0
1052.0
1047.0
1044.0
1052.0
1060.0
1074.0
1075.0
1071.0
1067.0
1060.0
1052.0
1046.0
1049.0
1054.0
1051.0
1045.0
1041.0
1041.0
1046.0
1045.0
1037.0
1023.0
1015.0
1011.0
1011.0
1008.0
1003.0
1001.0
1002.0
1005.0
1001.0
989.0
981.0
978.0
975.0
982.0
991.0
993.0
987.0
976.0
967.0
971.0
980.0
988.0
990.0
984.0
982.0
988.0
990.0
984.0
976.0
968.0
969.0
975.0
978.0
971.0
963.0
959.0
953.0
957.0
968.0
976.0
976.0
975.0
980.0
990.0
997.0
988.0
980.0
975.0
981.0
988.0
992.0
985.0
976.0
975.0
987.0
994.0
994.0
976.0
960.0
957.0
966.0
980.0
988.0
984.0
973.0
961.0
957.0
963.0
970.0
973.0
969.0
964.0
968.0
979.0
990.0
989.0
975.0
960.0
954.0
955.0
964.0
968.0
967.0
970.0
970.0
971.0
965.0
956.0
948.0
947.0
954.0
961.0
970.0
980.0
981.0
974.0
970.0
978.0
983.0
977.0
971.0
971.0
978.0
985.0
999.0
1023.0
1059.0
1092.0
1130.0
1172.0
1207.0
1220.0
1201.0
1151.0
1102.0
1054.0
987.0
905.0
842.0
824.0
856.0
897.0
926.0
940.0
944.0
944.0
950.0
961.0
973.0
977.0
978.0
976.0
971.0
969.0
968.0
971.0
971.0
973.0
978.0
993.0
1002.0
998.0
992.0
981.0
978.0
979.0
984.0
984.0
984.0
992.0
1001.0
1016.0
1027.0
1031.0
1023.0
1017.0
1017.0
1027.0
1049.0
1060.0
1059.0
1051.0
1043.0
1044.0
1053.0
1054.0
1046.0
1043.0
1046.0
1059.0
1072.0
1080.0
1082.0
1079.0
1070.0
1064.0
1060.0
1058.0
1060.0
1051.0
1044.0
1038.0
1037.0
1035.0
1033.0
1031.0
1027.0
1020.0
1009.0
997.0
992.0
999.0
1001.0
999.0
988.0
978.0
981.0
988.0
995.0
992.0
979.0
969.0
965.0
969.0
980.0
981.0
979.0
978.0
973.0
965.0
966.0
974.0
983.0
980.0
973.0
966.0
965.0
974.0
980.0
980.0
970.0
964.0
967.0
979.0
992.0
1000.0
994.0
986.0
985.0
985.0
989.0
991.0
989.0
986.0
987.0
993.0
992.0
982.0
972.0
967.0
972.0
976.0
974.0
967.0
962.0
962.0
971.0
980.0
988.0
983.0
973.0
963.0
959.0
961.0
965.0
963.0
957.0
955.0
962.0
972.0
979.0
972.0
961.0
965.0
973.0
975.0
972.0
963.0
959.0
958.0
963.0
977.0
991.0
994.0
989.0
979.0
968.0
959.0
957.0
955.0
957.0
964.0
970.0
976.0
971.0
962.0
962.0
979.0
1009.0
1048.0
1086.0
1112.0
1129.0
1151.0
1169.0
1182.0
1183.0
1156.0
1112.0
1073.0
1028.0
972.0
923.0
886.0
870.0
869.0
880.0
891.0
909.0
927.0
944.0
950.0
957.0
969.0
974.0
970.0
966.0
964.0
967.0
973.0
978.0
981.0
985.0
986.0
982.0
986.0
1001.0
1008.0
1000.0
983.0
966.0
967.0
985.0
1004.0
1012.0
1003.0
1001.0
1007.0
1014.0
1021.0
1022.0
1026.0
1030.0
1039.0
1048.0
1052.0
1052.0
1050.0
1054.0
1062.0
1066.0
1064.0
1060.0
1058.0
1063.0
1065.0
1064.0
1063.0
1064.0
1067.0
1070.0
1071.0
1076.0
1078.0
1073.0
1055.0
1032.0
1029.0
1035.0
1032.0
1031.0
1025.0
1025.0
1025.0
1022.0
1015.0
1008.0
997.0
991.0
988.0
992.0
991.0
986.0
982.0
984.0
989.0
994.0
987.0
978.0
967.0
969.0
983.0
992.0
992.0
985.0
983.0
983.0
979.0
974.0
965.0
960.0
962.0
979.0
994.0
994.0
976.0
956.0
954.0
972.0
990.0
998.0
987.0
974.0
967.0
969.0
973.0
981.0
990.0
994.0
993.0
989.0
988.0
989.0
984.0
978.0
970.0
974.0
982.0
983.0
978.0
978.0
976.0
976.0
976.0
972.0
965.0
959.0
960.0
970.0
982.0
991.0
982.0
965.0
960.0
972.0
975.0
972.0
968.0
966.0
971.0
969.0
969.0
965.0
963.0
960.0
963.0
971.0
985.0
990.0
987.0
973.0
962.0
956.0
962.0
976.0
984.0
977.0
964.0
963.0
981.0
1007.0
1028.0
1043.0
1062.0
1096.0
1143.0
1178.0
1188.0
1159.0
1114.0
1067.0
995.0
912.0
848.0
830.0
851.0
880.0
903.0
922.0
940.0
959.0
971.0
982.0
982.0
970.0
956.0
951.0
951.0
960.0
971.0
979.0
985.0
987.0
984.0
978.0
983.0
988.0
992.0
992.0
994.0
999.0
1006.0
1009.0
1008.0
1009.0
1013.0
1021.0
1026.0
1027.0
1022.0
1029.0
1030.0
1029.0
1023.0
1027.0
1037.0
1056.0
1069.0
1070.0
1059.0
1048.0
1048.0
1051.0
1063.0
1070.0
1082.0
1087.0
1089.0
1086.0
1070.0
1045.0
1034.0
1031.0
1036.0
1042.0
1043.0
1038.0
1032.0
1032.0
1021.0
1015.0
1013.0
1017.0
1008.0
995.0
990.0
997.0
1005.0
1002.0
989.0
975.0
971.0
973.0
982.0
989.0
991.0
982.0
974.0
970.0
971.0
975.0
978.0
976.0
971.0
971.0
979.0
982.0
978.0
974.0
967.0
963.0
972.0
980.0
983.0
982.0
977.0
972.0
973.0
981.0
986.0
983.0
980.0
985.0
986.0
992.0
999.0
1004.0
994.0
979.0
971.0
977.0
984.0
991.0
990.0
986.0
983.0
981.0
980.0
984.0
986.0
986.0
980.0
981.0
974.0
975.0
968.0
963.0
965.0
973.0
980.0
984.0
982.0
972.0
967.0
971.0
982.0
990.0
989.0
981.0
972.0
966.0
968.0
967.0
960.0
955.0
954.0
965.0
971.0
977.0
980.0
980.0
983.0
982.0
988.0
991.0
982.0
973.0
965.0
964.0
961.0
973.0
1001.0
1029.0
1054.0
1079.0
1106.0
1136.0
1158.0
1170.0
1170.0
1150.0
1116.0
1088.0
1039.0
979.0
923.0
879.0
861.0
870.0
886.0
900.0
909.0
917.0
929.0
947.0
962.0
975.0
983.0
983.0
975.0
971.0
970.0
969.0
964.0
966.0
971.0
975.0
985.0
990.0
992.0
994.0
996.0
1000.0
1000.0
1001.0
996.0
995.0
1003.0
1013.0
1015.0
1024.0
1029.0
1029.0
1030.0
1037.0
1055.0
1065.0
1062.0
1053.0
1048.0
1047.0
1051.0
1054.0
1058.0
1059.0
1057.0
1053.0
1056.0
1057.0
1066.0
1074.0
1076.0
1076.0
1072.0
1067.0
1058.0
1041.0
1029.0
1037.0
1047.0
1044.0
1030.0
1032.0
1039.0
1046.0
1043.0
1028.0
1010.0
995.0
988.0
990.0
993.0
996.0
991.0
990.0
988.0
991.0
990.0
984.0
984.0
985.0
982.0
975.0
969.0
971.0
975.0
984.0
994.0
994.0
986.0
980.0
980.0
983.0
985.0
986.0
992.0
989.0
977.0
969.0
972.0
981.0
983.0
980.0
977.0
981.0
986.0
988.0
990.0
993.0
996.0
1005.0
1010.0
1012.0
1006.0
1000.0
996.0
993.0
987.0
977.0
965.0
964.0
967.0
977.0
984.0
992.0
988.0
981.0
974.0
969.0
968.0
972.0
979.0
982.0
982.0
983.0
985.0
990.0
987.0
980.0
979.0
984.0
984.0
976.0
970.0
970.0
983.0
986.0
981.0
978.0
978.0
980.0
977.0
973.0
974.0
979.0
984.0
979.0
972.0
971.0
973.0
980.0
980.0
979.0
981.0
997.0
1027.0
1062.0
1094.0
1122.0
1147.0
1174.0
1194.0
1202.0
1183.0
1139.0
1102.0
1059.0
1005.0
944.0
880.0
852.0
861.0
889.0
917.0
935.0
940.0
944.0
952.0
962.0
970.0
974.0
975.0
974.0
976.0
983.0
994.0
997.0
995.0
990.0
997.0
1003.0
1003.0
993.0
979.0
980.0
990.0
1012.0
1035.0
1043.0
1036.0
1020.0
1008.0
998.0
994.0
1009.0
1017.0
1021.0
1015.0
1016.0
1024.0
1032.0
1035.0
1032.0
1036.0
1045.0
1057.0
1071.0
1075.0
1073.0
1063.0
1058.0
1062.0
1079.0
1081.0
1070.0
1054.0
1054.0
1063.0
1074.0
1080.0
1084.0
1080.0
1070.0
1061.0
1058.0
1054.0
1056.0
1053.0
1042.0
1031.0
1026.0
1018.0
1018.0
1012.0
1010.0
1018.0
1026.0
1024.0
1008.0
992.0
989.0
992.0
991.0
987.0
983.0
984.0
983.0
979.0
977.0
977.0
975.0
972.0
971.0
976.0
981.0
981.0
971.0
968.0
970.0
976.0
985.0
987.0
987.0
993.0
1004.0
1008.0
1002.0
993.0
988.0
983.0
979.0
979.0
981.0
985.0
984.0
989.0
997.0
1006.0
1012.0
1011.0
1006.0
1002.0
997.0
992.0
989.0
984.0
980.0
980.0
985.0
992.0
1000.0
994.0
982.0
973.0
971.0
974.0
979.0
981.0
979.0
981.0
988.0
997.0
993.0
977.0
962.0
965.0
970.0
977.0
980.0
978.0
973.0
966.0
962.0
970.0
978.0
990.0
988.0
979.0
978.0
975.0
975.0
975.0
979.0
981.0
982.0
983.0
983.0
984.0
988.0
986.0
979.0
978.0
987.0
994.0
985.0
978.0
983.0
1007.0
1046.0
1082.0
1116.0
1155.0
1193.0
1224.0
1238.0
1231.0
1198.0
1155.0
1107.0
1041.0
971.0
903.0
859.0
852.0
874.0
907.0
926.0
934.0
939.0
945.0
951.0
963.0
971.0
980.0
988.0
994.0
1002.0
1005.0
996.0
980.0
969.0
963.0
970.0
978.0
991.0
1000.0
1005.0
1006.0
1006.0
1003.0
1008.0
1008.0
1021.0
1033.0
1036.0
1027.0
1016.0
1012.0
1019.0
1026.0
1032.0
1030.0
1034.0
1044.0
1052.0
1057.0
1061.0
1070.0
1082.0
1085.0
1088.0
1093.0
1093.0
1081.0
1071.0
1069.0
1068.0
1069.0
1072.0
1074.0
1081.0
1084.0
1078.0
1074.0
1067.0
1067.0
1069.0
1067.0
1061.0
1057.0
1053.0
1043.0
1036.0
1023.0
1016.0
1011.0
1012.0
1009.0
1008.0
1015.0
1017.0
1010.0
1002.0
1005.0
1017.0
1016.0
1001.0
984.0
974.0
976.0
977.0
972.0
972.0
973.0
975.0
981.0
986.0
993.0
996.0
995.0
994.0
996.0
993.0
989.0
989.0
993.0
995.0
1005.0
1011.0
1000.0
990.0
985.0
994.0
1009.0
1018.0
1013.0
1010.0
1009.0
1013.0
1020.0
1012.0
999.0
993.0
993.0
995.0
991.0
996.0
999.0
999.0
994.0
984.0
981.0
980.0
980.0
977.0
976.0
978.0
980.0
980.0
979.0
987.0
989.0
989.0
986.0
985.0
983.0
984.0
989.0
990.0
993.0
990.0
987.0
988.0
991.0
999.0
1005.0
1000.0
976.0
958.0
958.0
966.0
977.0
988.0
996.0
993.0
989.0
980.0
980.0
987.0
996.0
994.0
986.0
986.0
998.0
1023.0
1060.0
1101.0
1136.0
1170.0
1201.0
1219.0
1229.0
1214.0
1178.0
1138.0
1096.0
1038.0
967.0
904.0
862.0
858.0
875.0
911.0
936.0
936.0
933.0
931.0
942.0
956.0
969.0
978.0
980.0
979.0
983.0
992.0
997.0
1006.0
1012.0
1011.0
1003.0
992.0
985.0
984.0
989.0
1002.0
1014.0
1023.0
1021.0
1009.0
999.0
999.0
1007.0
1014.0
1019.0
1022.0
1025.0
1033.0
1042.0
1048.0
1046.0
1041.0
1035.0
1032.0
1037.0
1046.0
1053.0
1059.0
1060.0
1065.0
1065.0
1069.0
1070.0
1070.0
1077.0
1080.0
1082.0
1084.0
1084.0
1083.0
1087.0
1086.0
1088.0
1093.0
1089.0
1085.0
1078.0
1079.0
1084.0
1088.0
1079.0
1065.0
1057.0
1052.0
1051.0
1046.0
1040.0
1030.0
1025.0
1025.0
1026.0
1019.0
1010.0
1003.0
999.0
1000.0
1001.0
1009.0
1007.0
1011.0
1010.0
1010.0
1001.0
998.0
993.0
992.0
993.0
996.0
1000.0
1000.0
992.0
982.0
975.0
976.0
982.0
988.0
991.0
989.0
990.0
995.0
997.0
1001.0
1003.0
1007.0
1008.0
1007.0
1009.0
1012.0
1010.0
1003.0
997.0
996.0
998.0
1000.0
995.0
994.0
995.0
1004.0
1013.0
1025.0
1024.0
1016.0
1014.0
1013.0
1016.0
1010.0
995.0
983.0
977.0
988.0
998.0
1001.0
999.0
991.0
989.0
988.0
993.0
997.0
994.0
989.0
983.0
982.0
979.0
977.0
979.0
978.0
980.0
987.0
992.0
992.0
990.0
986.0
989.0
996.0
1002.0
1005.0
1001.0
992.0
983.0
978.0
981.0
989.0
989.0
994.0
995.0
998.0
999.0
1000.0
997.0
997.0
996.0
995.0
995.0
996.0
995.0
988.0
988.0
989.0
1000.0
1022.0
1047.0
1074.0
1099.0
1134.0
1173.0
1206.0
1221.0
