# Simple Text Format
# Sampling Rate (Hz):= 360.00
# Resolution:= 12
# Labels:= ECG
960.0
960.0
962.0
961.0
963.0
969.0
970.0
969.0
970.0
972.0
974.0
979.0
981.0
980.0
984.0
989.0
995.0
999.0
1001.0
1002.0
1000.0
1010.0
1023.0
1037.0
1036.0
1024.0
999.0
978.0
968.0
968.0
973.0
971.0
972.0
972.0
975.0
971.0
968.0
963.0
962.0
968.0
968.0
967.0
964.0
959.0
963.0
965.0
972.0
971.0
971.0
968.0
965.0
967.0
976.0
982.0
985.0
978.0
963.0
955.0
955.0
954.0
954.0
953.0
959.0
963.0
968.0
969.0
970.0
975.0
983.0
988.0
987.0
984.0
979.0
972.0
972.0
973.0
977.0
977.0
979.0
979.0
982.0
981.0
984.0
984.0
986.0
984.0
983.0
979.0
976.0
973.0
966.0
958.0
952.0
947.0
947.0
955.0
960.0
970.0
983.0
993.0
999.0
1002.0
1001.0
1001.0
1013.0
1037.0
1083.0
1130.0
1155.0
1149.0
1131.0
1109.0
1084.0
1058.0
1040.0
1027.0
1017.0
1011.0
1009.0
1005.0
1000.0
998.0
1002.0
1008.0
1009.0
1007.0
1007.0
1004.0
1007.0
1008.0
1008.0
1004.0
1003.0
997.0
1000.0
1003.0
1003.0
1006.0
1002.0
1001.0
998.0
998.0
1003.0
1008.0
1012.0
1015.0
1017.0
1022.0
1022.0
1022.0
1017.0
1015.0
1013.0
1017.0
1023.0
1026.0
1026.0
1026.0
1026.0
1027.0
1026.0
1026.0
1025.0
1025.0
1031.0
1034.0
1036.0
1035.0
1033.0
1032.0
1030.0
1031.0
1034.0
1039.0
1042.0
1042.0
1044.0
1047.0
1049.0
1053.0
1051.0
1049.0
1052.0
1052.0
1053.0
1053.0
1049.0
1046.0
1049.0
1049.0
1052.0
1055.0
1051.0
1052.0
1055.0
1058.0
1060.0
1063.0
1059.0
1060.0
1059.0
1057.0
1060.0
1058.0
1054.0
1052.0
1052.0
1053.0
1053.0
1048.0
1046.0
1041.0
1037.0
1041.0
1040.0
1033.0
1026.0
1021.0
1019.0
1021.0
1022.0
1023.0
1020.0
1018.0
1022.0
1023.0
1022.0
1016.0
1009.0
1006.0
1007.0
1012.0
1013.0
1012.0
1009.0
1004.0
1006.0
1004.0
1004.0
1005.0
1001.0
996.0
997.0
995.0
997.0
993.0
990.0
989.0
995.0
997.0
1000.0
999.0
993.0
989.0
991.0
994.0
993.0
992.0
988.0
983.0
984.0
987.0
987.0
985.0
979.0
978.0
980.0
986.0
981.0
981.0
979.0
971.0
972.0
972.0
974.0
975.0
974.0
975.0
980.0
985.0
985.0
982.0
982.0
977.0
974.0
977.0
979.0
981.0
981.0
978.0
981.0
984.0
984.0
985.0
985.0
986.0
992.0
994.0
998.0
1004.0
1001.0
999.0
998.0
996.0
1000.0
1006.0
1004.0
1004.0
1007.0
1008.0
1005.0
1006.0
1002.0
993.0
992.0
994.0
993.0
985.0
981.0
977.0
978.0
981.0
985.0
990.0
985.0
982.0
979.0
978.0
976.0
974.0
972.0
970.0
970.0
969.0
971.0
970.0
965.0
964.0
961.0
960.0
964.0
963.0
965.0
962.0
955.0
956.0
959.0
956.0
955.0
954.0
961.0
965.0
970.0
971.0
971.0
966.0
966.0
967.0
969.0
975.0
977.0
975.0
978.0
980.0
979.0
973.0
971.0
971.0
976.0
979.0
981.0
976.0
979.0
974.0
975.0
975.0
976.0
981.0
977.0
971.0
964.0
956.0
951.0
947.0
944.0
949.0
955.0
967.0
978.0
988.0
994.0
997.0
1004.0
1013.0
1027.0
1055.0
1095.0
1130.0
1145.0
1136.0
1118.0
1096.0
1067.0
1039.0
1021.0
1011.0
1003.0
997.0
992.0
987.0
987.0
989.0
992.0
994.0
995.0
993.0
995.0
995.0
996.0
993.0
990.0
989.0
991.0
994.0
997.0
998.0
995.0
991.0
992.0
996.0
995.0
996.0
997.0
998.0
1001.0
1003.0
1005.0
1000.0
999.0
1000.0
1002.0
1006.0
1009.0
1009.0
1008.0
1005.0
1005.0
1008.0
1010.0
1012.0
1013.0
1012.0
1014.0
1020.0
1025.0
1028.0
1029.0
1031.0
1034.0
1038.0
1039.0
1039.0
1036.0
1044.0
1060.0
1073.0
1070.0
1062.0
1055.0
1052.0
1051.0
1052.0
1042.0
1033.0
1016.0
1004.0
1001.0
1003.0
1003.0
1008.0
1012.0
1014.0
1018.0
1021.0
1026.0
1026.0
1027.0
1027.0
1028.0
1032.0
1033.0
1033.0
1032.0
1030.0
1031.0
1037.0
1043.0
1048.0
1046.0
1037.0
1027.0
1020.0
1015.0
1009.0
1003.0
1004.0
1008.0
1013.0
1019.0
1020.0
1015.0
1015.0
1013.0
1015.0
1013.0
1011.0
1007.0
1005.0
1011.0
1012.0
1010.0
1002.0
991.0
980.0
965.0
948.0
935.0
935.0
940.0
943.0
950.0
953.0
955.0
952.0
952.0
952.0
954.0
961.0
965.0
965.0
965.0
963.0
958.0
957.0
959.0
961.0
963.0
961.0
963.0
963.0
962.0
962.0
958.0
952.0
953.0
957.0
962.0
963.0
961.0
959.0
959.0
960.0
961.0
959.0
955.0
955.0
957.0
963.0
969.0
978.0
987.0
991.0
994.0
989.0
975.0
955.0
935.0
921.0
916.0
915.0
921.0
926.0
931.0
934.0
933.0
937.0
942.0
943.0
946.0
949.0
954.0
960.0
962.0
960.0
960.0
962.0
966.0
965.0
971.0
973.0
977.0
976.0
975.0
976.0
978.0
978.0
975.0
973.0
973.0
976.0
973.0
967.0
960.0
953.0
955.0
952.0
953.0
951.0
957.0
955.0
954.0
957.0
955.0
956.0
955.0
955.0
959.0
962.0
968.0
975.0
986.0
1002.0
1006.0
999.0
982.0
960.0
942.0
927.0
928.0
935.0
938.0
940.0
938.0
942.0
947.0
953.0
954.0
950.0
937.0
921.0
917.0
920.0
919.0
917.0
916.0
917.0
921.0
925.0
932.0
932.0
938.0
939.0
945.0
949.0
953.0
958.0
955.0
955.0
955.0
958.0
961.0
962.0
961.0
960.0
960.0
963.0
964.0
966.0
967.0
967.0
969.0
974.0
974.0
970.0
966.0
961.0
962.0
963.0
954.0
952.0
948.0
945.0
946.0
943.0
943.0
944.0
951.0
954.0
963.0
976.0
990.0
1001.0
1014.0
1037.0
1063.0
1090.0
1104.0
1104.0
1092.0
1081.0
1072.0
1061.0
1046.0
1030.0
1015.0
1004.0
994.0
985.0
986.0
987.0
987.0
986.0
990.0
988.0
990.0
992.0
989.0
985.0
984.0
988.0
990.0
994.0
997.0
994.0
998.0
1005.0
1009.0
1017.0
1022.0
1027.0
1025.0
1024.0
1023.0
1024.0
1029.0
1035.0
1039.0
1038.0
1030.0
1020.0
1007.0
1001.0
1007.0
1016.0
1025.0
1017.0
998.0
982.0
966.0
961.0
962.0
967.0
971.0
978.0
987.0
998.0
1007.0
1012.0
1011.0
1010.0
1012.0
1013.0
1021.0
1026.0
1026.0
1026.0
1028.0
1030.0
1033.0
1033.0
1031.0
1028.0
1029.0
1033.0
1036.0
1038.0
1038.0
1036.0
1037.0
1039.0
1041.0
1042.0
1043.0
1040.0
1044.0
1046.0
1048.0
1045.0
1044.0
1040.0
1039.0
1040.0
1039.0
1041.0
1039.0
1041.0
1041.0
1045.0
1046.0
1048.0
1042.0
1037.0
1033.0
1034.0
1040.0
1038.0
1036.0
1032.0
1027.0
1021.0
1017.0
1016.0
1018.0
1016.0
1017.0
1015.0
1017.0
1015.0
1012.0
1009.0
1008.0
1007.0
1007.0
1004.0
997.0
994.0
993.0
1000.0
998.0
1002.0
1003.0
1005.0
1010.0
1014.0
1015.0
1008.0
996.0
984.0
978.0
981.0
986.0
985.0
986.0
987.0
990.0
997.0
1005.0
1006.0
995.0
979.0
970.0
970.0
983.0
995.0
1001.0
995.0
980.0
963.0
950.0
939.0
930.0
925.0
930.0
938.0
945.0
955.0
961.0
963.0
969.0
970.0
968.0
966.0
960.0
954.0
956.0
961.0
968.0
975.0
983.0
996.0
1012.0
1023.0
1027.0
1022.0
1011.0
982.0
956.0
937.0
932.0
935.0
946.0
953.0
965.0
971.0
971.0
962.0
948.0
934.0
931.0
932.0
940.0
945.0
952.0
957.0
964.0
976.0
986.0
994.0
994.0
987.0
988.0
988.0
994.0
1003.0
1009.0
1013.0
1012.0
1000.0
989.0
976.0
965.0
960.0
963.0
974.0
993.0
1011.0
1017.0
1011.0
1009.0
999.0
994.0
993.0
1000.0
1005.0
1008.0
993.0
966.0
942.0
922.0
909.0
907.0
910.0
914.0
919.0
919.0
920.0
921.0
921.0
924.0
927.0
927.0
929.0
933.0
938.0
939.0
947.0
953.0
964.0
974.0
980.0
976.0
960.0
947.0
936.0
939.0
952.0
970.0
983.0
985.0
977.0
963.0
948.0
937.0
935.0
940.0
947.0
952.0
946.0
944.0
943.0
942.0
943.0
950.0
955.0
960.0
962.0
963.0
963.0
962.0
966.0
969.0
970.0
967.0
964.0
962.0
961.0
958.0
948.0
938.0
935.0
937.0
946.0
959.0
963.0
968.0
968.0
976.0
976.0
974.0
968.0
969.0
980.0
1000.0
1030.0
1069.0
1107.0
1129.0
1132.0
1127.0
1124.0
1107.0
1075.0
1039.0
1013.0
993.0
984.0
976.0
967.0
964.0
963.0
965.0
968.0
967.0
966.0
968.0
969.0
976.0
982.0
989.0
993.0
998.0
1000.0
1002.0
1006.0
1007.0
1003.0
1003.0
1000.0
1000.0
995.0
995.0
990.0
988.0
982.0
983.0
990.0
998.0
999.0
999.0
999.0
1002.0
1004.0
1001.0
996.0
989.0
980.0
980.0
982.0
990.0
993.0
995.0
996.0
1001.0
1008.0
1018.0
1024.0
1028.0
1032.0
1037.0
1043.0
1050.0
1050.0
1048.0
1042.0
1034.0
1031.0
1027.0
1024.0
1023.0
1025.0
1026.0
1033.0
1034.0
1036.0
1029.0
1025.0
1023.0
1026.0
1024.0
1025.0
1018.0
1014.0
1010.0
1012.0
1022.0
1033.0
1044.0
1054.0
1063.0
1067.0
1070.0
1060.0
1046.0
1031.0
1026.0
1026.0
1030.0
1032.0
1030.0
1024.0
1019.0
1016.0
1016.0
1015.0
1014.0
1015.0
1021.0
1024.0
1026.0
1028.0
1028.0
1023.0
1023.0
1020.0
1021.0
1020.0
1016.0
1013.0
1012.0
1012.0
1014.0
1010.0
1007.0
1002.0
998.0
1002.0
1003.0
1003.0
1002.0
997.0
998.0
999.0
1000.0
997.0
994.0
990.0
992.0
996.0
1000.0
1000.0
999.0
997.0
994.0
995.0
995.0
992.0
987.0
985.0
988.0
993.0
997.0
996.0
995.0
990.0
985.0
985.0
983.0
982.0
982.0
978.0
975.0
973.0
972.0
968.0
960.0
959.0
960.0
963.0
973.0
976.0
976.0
974.0
973.0
972.0
972.0
969.0
969.0
965.0
962.0
967.0
967.0
966.0
965.0
960.0
960.0
961.0
964.0
965.0
964.0
963.0
964.0
964.0
966.0
966.0
968.0
966.0
966.0
964.0
967.0
967.0
966.0
963.0
965.0
972.0
976.0
976.0
975.0
974.0
973.0
978.0
982.0
986.0
986.0
987.0
991.0
995.0
999.0
1003.0
1005.0
1011.0
1021.0
1035.0
1048.0
1057.0
1069.0
1074.0
1079.0
1081.0
1079.0
1070.0
1057.0
1051.0
1052.0
1050.0
1042.0
1019.0
984.0
944.0
910.0
885.0
861.0
833.0
805.0
783.0
772.0
765.0
769.0
779.0
786.0
788.0
782.0
778.0
779.0
782.0
784.0
787.0
790.0
794.0
799.0
804.0
806.0
817.0
825.0
839.0
851.0
857.0
858.0
854.0
852.0
856.0
864.0
876.0
882.0
891.0
899.0
913.0
922.0
924.0
927.0
932.0
946.0
966.0
991.0
1010.0
1024.0
1031.0
1037.0
1039.0
1041.0
1039.0
1040.0
1039.0
1040.0
1044.0
1049.0
1052.0
1052.0
1053.0
1053.0
1057.0
1062.0
1063.0
1066.0
1065.0
1068.0
1073.0
1074.0
1075.0
1073.0
1074.0
1074.0
1077.0
1081.0
1085.0
1087.0
1088.0
1090.0
1099.0
1102.0
1098.0
1099.0
1095.0
1091.0
1099.0
1102.0
1106.0
1109.0
1108.0
1109.0
1108.0
1112.0
1111.0
1110.0
1108.0
1110.0
1114.0
1118.0
1117.0
1118.0
1114.0
1112.0
1116.0
1120.0
1118.0
1119.0
1118.0
1117.0
1114.0
1114.0
1113.0
1116.0
1114.0
1112.0
1113.0
1109.0
1105.0
1103.0
1102.0
1097.0
1099.0
1095.0
1093.0
1089.0
1084.0
1081.0
1082.0
1083.0
1080.0
1077.0
1070.0
1065.0
1063.0
1065.0
1060.0
1053.0
1050.0
1047.0
1047.0
1047.0
1040.0
1038.0
1036.0
1032.0
1033.0
1035.0
1034.0
1032.0
1028.0
1025.0
1024.0
1025.0
1020.0
1018.0
1018.0
1017.0
1016.0
1014.0
1010.0
1008.0
1006.0
1006.0
1012.0
1013.0
1010.0
1009.0
1011.0
1008.0
1005.0
1003.0
1001.0
998.0
999.0
1001.0
1001.0
1002.0
1000.0
997.0
996.0
996.0
998.0
999.0
997.0
995.0
993.0
992.0
996.0
1002.0
1002.0
1001.0
993.0
993.0
995.0
994.0
994.0
996.0
997.0
999.0
1001.0
1003.0
1002.0
998.0
998.0
995.0
996.0
998.0
997.0
999.0
997.0
996.0
998.0
1001.0
998.0
994.0
990.0
989.0
995.0
998.0
1001.0
1000.0
996.0
996.0
998.0
997.0
997.0
997.0
995.0
995.0
995.0
993.0
988.0
989.0
986.0
991.0
997.0
1003.0
1002.0
1001.0
997.0
998.0
999.0
1003.0
1002.0
1001.0
999.0
997.0
998.0
1003.0
999.0
997.0
990.0
992.0
993.0
994.0
997.0
995.0
997.0
997.0
998.0
999.0
997.0
996.0
991.0
990.0
987.0
992.0
994.0
996.0
995.0
998.0
1004.0
1005.0
1002.0
997.0
995.0
989.0
992.0
995.0
992.0
994.0
994.0
995.0
997.0
1001.0
1000.0
999.0
996.0
992.0
996.0
997.0
1003.0
1007.0
1011.0
1014.0
1018.0
1024.0
1023.0
1028.0
1029.0
1030.0
1029.0
1025.0
1016.0
1013.0
1009.0
1009.0
1010.0
1011.0
1006.0
1004.0
1001.0
1000.0
1000.0
1003.0
1001.0
999.0
996.0
992.0
992.0
992.0
988.0
989.0
988.0
987.0
990.0
991.0
988.0
987.0
984.0
983.0
981.0
984.0
980.0
978.0
977.0
974.0
976.0
976.0
973.0
974.0
973.0
975.0
978.0
978.0
979.0
975.0
972.0
967.0
970.0
974.0
971.0
971.0
971.0
971.0
976.0
978.0
979.0
975.0
973.0
978.0
981.0
981.0
984.0
990.0
994.0
994.0
993.0
996.0
991.0
988.0
984.0
983.0
986.0
991.0
989.0
989.0
988.0
988.0
986.0
981.0
980.0
978.0
978.0
974.0
977.0
979.0
978.0
978.0
977.0
979.0
981.0
981.0
973.0
966.0
955.0
948.0
944.0
950.0
955.0
960.0
965.0
970.0
981.0
990.0
995.0
993.0
995.0
997.0
1010.0
1025.0
1046.0
1073.0
1106.0
1122.0
1141.0
1147.0
1137.0
1121.0
1100.0
1079.0
1060.0
1048.0
1034.0
1027.0
1015.0
1007.0
999.0
995.0
993.0
992.0
992.0
994.0
999.0
1004.0
1003.0
998.0
996.0
996.0
997.0
1005.0
1005.0
1007.0
1004.0
1000.0
1003.0
1002.0
1003.0
1003.0
1002.0
1005.0
1010.0
1013.0
1012.0
1010.0
1007.0
1004.0
1005.0
1007.0
1009.0
1007.0
1008.0
1008.0
1013.0
1018.0
1018.0
1017.0
1016.0
1015.0
1021.0
1025.0
1024.0
1024.0
1023.0
1025.0
1027.0
1030.0
1026.0
1026.0
1023.0
1023.0
1027.0
1030.0
1031.0
1032.0
1032.0
1037.0
1041.0
1044.0
1041.0
1040.0
1039.0
1038.0
1039.0
1040.0
1042.0
1043.0
1041.0
1043.0
1046.0
1049.0
1048.0
1047.0
1046.0
1044.0
1046.0
1050.0
1051.0
1054.0
1051.0
1048.0
1050.0
1050.0
1052.0
1048.0
1045.0
1041.0
1043.0
1046.0
1045.0
1046.0
1045.0
1044.0
1047.0
1051.0
1050.0
1049.0
1046.0
1038.0
1038.0
1038.0
1037.0
1035.0
1032.0
1029.0
1029.0
1030.0
1034.0
1033.0
1030.0
1026.0
1025.0
1022.0
1016.0
1014.0
1011.0
1012.0
1013.0
1013.0
1012.0
1011.0
1006.0
1006.0
1007.0
1009.0
1010.0
1008.0
1006.0
1002.0
1001.0
1001.0
1001.0
998.0
995.0
993.0
994.0
998.0
997.0
994.0
992.0
995.0
997.0
1001.0
999.0
995.0
995.0
989.0
991.0
993.0
989.0
987.0
990.0
987.0
988.0
986.0
986.0
981.0
979.0
975.0
975.0
976.0
975.0
972.0
969.0
966.0
969.0
969.0
971.0
968.0
966.0
966.0
966.0
968.0
965.0
968.0
967.0
971.0
968.0
970.0
970.0
967.0
964.0
963.0
966.0
965.0
964.0
962.0
965.0
966.0
968.0
970.0
968.0
964.0
965.0
969.0
972.0
979.0
984.0
985.0
988.0
990.0
996.0
1001.0
996.0
993.0
991.0
990.0
994.0
996.0
997.0
997.0
993.0
991.0
989.0
989.0
986.0
979.0
976.0
972.0
971.0
972.0
967.0
963.0
960.0
960.0
964.0
970.0
969.0
966.0
962.0
959.0
961.0
959.0
958.0
954.0
952.0
952.0
956.0
957.0
959.0
957.0
954.0
953.0
953.0
957.0
953.0
952.0
952.0
949.0
951.0
951.0
950.0
952.0
951.0
956.0
959.0
965.0
971.0
971.0
967.0
967.0
966.0
966.0
966.0
965.0
965.0
968.0
973.0
979.0
979.0
978.0
972.0
970.0
976.0
979.0
976.0
975.0
972.0
972.0
974.0
977.0
974.0
972.0
970.0
964.0
958.0
948.0
943.0
936.0
936.0
938.0
942.0
952.0
959.0
967.0
972.0
975.0
986.0
999.0
1016.0
1049.0
1087.0
1120.0
1138.0
1133.0
1116.0
1102.0
1082.0
1059.0
1035.0
1023.0
1014.0
1010.0
1002.0
999.0
1000.0
1002.0
1000.0
997.0
994.0
994.0
997.0
999.0
1000.0
1001.0
1001.0
998.0
998.0
997.0
997.0
994.0
994.0
996.0
996.0
1002.0
1004.0
1005.0
1001.0
999.0
1000.0
1006.0
1007.0
1008.0
1010.0
1012.0
1014.0
1013.0
1015.0
1013.0
1012.0
1013.0
1014.0
1015.0
1014.0
1015.0
1015.0
1013.0
1017.0
1022.0
1024.0
1026.0
1029.0
1028.0
1031.0
1033.0
1037.0
1035.0
1034.0
1035.0
1037.0
1041.0
1045.0
1041.0
1039.0
1042.0
1043.0
1045.0
1048.0
1046.0
1044.0
1045.0
1049.0
1053.0
1056.0
1053.0
1056.0
1055.0
1060.0
1061.0
1064.0
1064.0
1065.0
1061.0
1063.0
1062.0
1062.0
1060.0
1055.0
1055.0
1058.0
1062.0
1062.0
1058.0
1055.0
1049.0
1046.0
1047.0
1042.0
1039.0
1035.0
1034.0
1035.0
1034.0
1034.0
1032.0
1026.0
1024.0
1025.0
1025.0
1022.0
1020.0
1017.0
1015.0
1019.0
1018.0
1020.0
1015.0
1013.0
1010.0
1012.0
1016.0
1016.0
1015.0
1012.0
1009.0
1008.0
1009.0
1008.0
1008.0
1005.0
1003.0
1004.0
1006.0
1004.0
1003.0
997.0
997.0
998.0
1001.0
1005.0
1004.0
1001.0
1000.0
1001.0
1002.0
999.0
997.0
994.0
996.0
994.0
991.0
993.0
989.0
985.0
984.0
984.0
989.0
990.0
989.0
985.0
984.0
982.0
984.0
990.0
993.0
995.0
997.0
998.0
999.0
997.0
992.0
991.0
989.0
991.0
993.0
997.0
1002.0
999.0
996.0
997.0
1000.0
1000.0
1001.0
1004.0
1006.0
1006.0
1007.0
1010.0
1009.0
1011.0
1013.0
1019.0
1026.0
1026.0
1026.0
1017.0
1016.0
1018.0
1019.0
1012.0
1010.0
1005.0
1003.0
1003.0
999.0
994.0
992.0
988.0
987.0
988.0
990.0
986.0
983.0
978.0
976.0
979.0
980.0
981.0
982.0
981.0
977.0
974.0
972.0
968.0
965.0
965.0
965.0
969.0
971.0
970.0
969.0
963.0
962.0
963.0
964.0
971.0
972.0
972.0
975.0
982.0
985.0
983.0
980.0
974.0
974.0
976.0
981.0
980.0
979.0
979.0
980.0
977.0
986.0
987.0
988.0
987.0
989.0
992.0
991.0
986.0
983.0
980.0
981.0
986.0
987.0
980.0
970.0
956.0
945.0
942.0
948.0
960.0
964.0
972.0
979.0
990.0
997.0
999.0
1006.0
1025.0
1063.0
1110.0
1145.0
1153.0
1143.0
1119.0
1099.0
1075.0
1054.0
1037.0
1024.0
1011.0
1000.0
994.0
995.0
993.0
992.0
990.0
990.0
993.0
997.0
995.0
991.0
987.0
990.0
990.0
993.0
996.0
995.0
995.0
989.0
990.0
993.0
997.0
997.0
999.0
996.0
995.0
1000.0
1001.0
997.0
996.0
1000.0
1005.0
1011.0
1011.0
1012.0
1011.0
1008.0
1013.0
1013.0
1012.0
1008.0
1010.0
1011.0
1017.0
1020.0
1022.0
1022.0
1022.0
1023.0
1026.0
1030.0
1028.0
1030.0
1031.0
1027.0
1029.0
1031.0
1033.0
1035.0
1030.0
1031.0
1033.0
1037.0
1036.0
1031.0
1029.0
1028.0
1031.0
1034.0
1035.0
1039.0
1038.0
1038.0
1039.0
1041.0
1041.0
1038.0
1039.0
1037.0
1038.0
1040.0
1034.0
1031.0
1027.0
1021.0
1022.0
1023.0
1022.0
1020.0
1016.0
1011.0
1011.0
1009.0
1006.0
1002.0
997.0
997.0
1000.0
1002.0
998.0
994.0
988.0
989.0
991.0
992.0
993.0
991.0
989.0
986.0
987.0
986.0
986.0
981.0
978.0
981.0
984.0
986.0
986.0
986.0
981.0
979.0
983.0
982.0
980.0
981.0
978.0
979.0
979.0
980.0
980.0
982.0
982.0
982.0
982.0
976.0
969.0
963.0
963.0
961.0
961.0
966.0
971.0
976.0
967.0
958.0
946.0
935.0
920.0
913.0
914.0
920.0
929.0
945.0
964.0
982.0
1002.0
1021.0
1041.0
1062.0
1077.0
1100.0
1136.0
1174.0
1212.0
1247.0
1278.0
1305.0
1330.0
1353.0
1379.0
1403.0
1427.0
1446.0
1459.0
1471.0
1488.0
1496.0
1498.0
1478.0
1442.0
1397.0
1350.0
1297.0
1239.0
1181.0
1124.0
1075.0
1036.0
1004.0
977.0
951.0
929.0
909.0
904.0
901.0
899.0
892.0
890.0
883.0
886.0
880.0
875.0
866.0
868.0
870.0
870.0
871.0
870.0
870.0
865.0
863.0
857.0
851.0
854.0
852.0
849.0
847.0
843.0
839.0
837.0
836.0
839.0
844.0
851.0
852.0
846.0
835.0
827.0
823.0
820.0
819.0
815.0
816.0
815.0
820.0
821.0
824.0
822.0
821.0
824.0
826.0
831.0
838.0
838.0
838.0
837.0
840.0
843.0
854.0
861.0
864.0
864.0
860.0
859.0
858.0
858.0
857.0
854.0
858.0
865.0
874.0
877.0
872.0
859.0
849.0
843.0
846.0
854.0
856.0
856.0
851.0
846.0
845.0
849.0
861.0
870.0
874.0
880.0
886.0
892.0
895.0
895.0
897.0
902.0
909.0
912.0
913.0
912.0
918.0
924.0
927.0
929.0
932.0
937.0
946.0
947.0
944.0
941.0
946.0
956.0
966.0
984.0
993.0
997.0
998.0
989.0
970.0
954.0
942.0
933.0
931.0
924.0
920.0
920.0
928.0
934.0
932.0
930.0
922.0
921.0
926.0
928.0
929.0
924.0
920.0
920.0
925.0
931.0
937.0
944.0
950.0
959.0
966.0
969.0
960.0
942.0
923.0
915.0
911.0
916.0
925.0
943.0
972.0
994.0
998.0
985.0
969.0
948.0
943.0
951.0
977.0
999.0
993.0
966.0
939.0
920.0
918.0
922.0
929.0
932.0
936.0
939.0
944.0
946.0
940.0
925.0
912.0
907.0
908.0
912.0
926.0
937.0
940.0
932.0
914.0
896.0
885.0
885.0
891.0
905.0
913.0
920.0
922.0
925.0
928.0
930.0
935.0
938.0
938.0
936.0
933.0
935.0
939.0
942.0
944.0
941.0
938.0
939.0
942.0
941.0
940.0
938.0
936.0
941.0
940.0
939.0
936.0
936.0
935.0
937.0
936.0
939.0
943.0
943.0
945.0
946.0
949.0
952.0
953.0
956.0
960.0
964.0
961.0
961.0
965.0
966.0
956.0
947.0
947.0
963.0
984.0
991.0
974.0
943.0
914.0
901.0
901.0
910.0
924.0
939.0
953.0
949.0
935.0
919.0
910.0
910.0
918.0
931.0
937.0
945.0
953.0
960.0
963.0
959.0
949.0
943.0
940.0
946.0
956.0
965.0
971.0
972.0
965.0
954.0
942.0
929.0
922.0
922.0
928.0
936.0
946.0
953.0
958.0
963.0
962.0
968.0
976.0
984.0
980.0
970.0
959.0
960.0
959.0
961.0
959.0
952.0
946.0
945.0
945.0
947.0
949.0
952.0
949.0
952.0
958.0
965.0
967.0
964.0
954.0
937.0
925.0
919.0
918.0
925.0
923.0
915.0
905.0
902.0
905.0
909.0
911.0
913.0
915.0
916.0
916.0
919.0
922.0
924.0
925.0
924.0
923.0
925.0
924.0
928.0
933.0
938.0
939.0
935.0
935.0
937.0
939.0
945.0
944.0
945.0
945.0
946.0
952.0
957.0
955.0
955.0
956.0
961.0
962.0
962.0
961.0
961.0
956.0
957.0
957.0
956.0
950.0
943.0
937.0
931.0
928.0
923.0
921.0
917.0
916.0
915.0
922.0
930.0
938.0
945.0
951.0
960.0
973.0
987.0
1007.0
1036.0
1074.0
1103.0
1117.0
1110.0
1098.0
1076.0
1052.0
1023.0
999.0
984.0
976.0
971.0
969.0
971.0
972.0
975.0
977.0
975.0
972.0
970.0
970.0
972.0
975.0
973.0
973.0
974.0
976.0
979.0
981.0
982.0
983.0
986.0
985.0
984.0
983.0
979.0
982.0
991.0
997.0
1000.0
1001.0
993.0
989.0
988.0
986.0
991.0
992.0
993.0
994.0
998.0
1003.0
1006.0
1010.0
1004.0
1003.0
1006.0
1008.0
1012.0
1014.0
1015.0
1013.0
1015.0
1021.0
1021.0
1020.0
1016.0
1018.0
1015.0
1022.0
1025.0
1025.0
1025.0
1027.0
1032.0
1037.0
1039.0
1040.0
1035.0
1031.0
1037.0
1039.0
1043.0
1042.0
1043.0
1042.0
1045.0
1048.0
1051.0
1051.0
1049.0
1044.0
1046.0
1050.0
1052.0
1055.0
1053.0
1051.0
1052.0
1051.0
1049.0
1047.0
1049.0
1049.0
1050.0
1049.0
1050.0
1050.0
1045.0
1046.0
1043.0
1044.0
1045.0
1042.0
1039.0
1037.0
1039.0
1038.0
1037.0
1030.0
1029.0
1024.0
1022.0
1023.0
1020.0
1018.0
1013.0
1010.0
1010.0
1010.0
1010.0
1006.0
1004.0
1003.0
1002.0
1002.0
1003.0
997.0
997.0
995.0
994.0
994.0
993.0
991.0
992.0
989.0
990.0
991.0
992.0
989.0
983.0
976.0
977.0
978.0
979.0
978.0
976.0
976.0
976.0
976.0
976.0
973.0
971.0
967.0
970.0
970.0
970.0
967.0
963.0
961.0
962.0
964.0
965.0
962.0
957.0
958.0
958.0
958.0
955.0
952.0
949.0
952.0
953.0
957.0
959.0
958.0
955.0
954.0
956.0
961.0
964.0
963.0
961.0
966.0
968.0
970.0
976.0
985.0
991.0
996.0
1009.0
1025.0
1042.0
1053.0
1056.0
1054.0
1053.0
1050.0
1051.0
1050.0
1049.0
1042.0
1023.0
999.0
970.0
938.0
912.0
883.0
858.0
829.0
797.0
770.0
747.0
736.0
741.0
754.0
762.0
762.0
755.0
751.0
753.0
761.0
766.0
772.0
778.0
783.0
794.0
803.0
812.0
820.0
827.0
834.0
841.0
844.0
846.0
844.0
848.0
855.0
861.0
870.0
880.0
890.0
893.0
896.0
901.0
907.0
916.0
927.0
945.0
960.0
980.0
992.0
1000.0
1003.0
1007.0
1010.0
1017.0
1019.0
1017.0
1017.0
1013.0
1013.0
1021.0
1027.0
1034.0
1035.0
1033.0
1033.0
1034.0
1034.0
1039.0
1047.0
1049.0
1052.0
1055.0
1054.0
1056.0
1057.0
1054.0
1054.0
1058.0
1060.0
1061.0
1063.0
1063.0
1064.0
1067.0
1071.0
1070.0
1072.0
1073.0
1075.0
1079.0
1084.0
1089.0
1090.0
1084.0
1081.0
1077.0
1078.0
1084.0
1082.0
1084.0
1083.0
1086.0
1088.0
1090.0
1089.0
1081.0
1079.0
1078.0
1081.0
1083.0
1081.0
1079.0
1075.0
1071.0
1070.0
1072.0
1070.0
1066.0
1060.0
1058.0
1057.0
1053.0
1044.0
1042.0
1037.0
1035.0
1031.0
1032.0
1030.0
1029.0
1029.0
1028.0
1027.0
1022.0
1017.0
1011.0
1008.0
1005.0
1004.0
1004.0
999.0
993.0
988.0
989.0
986.0
987.0
986.0
981.0
979.0
977.0
978.0
976.0
977.0
973.0
972.0
969.0
972.0
971.0
967.0
961.0
959.0
958.0
962.0
960.0
960.0
957.0
952.0
951.0
953.0
953.0
955.0
952.0
955.0
957.0
956.0
957.0
956.0
951.0
947.0
945.0
945.0
948.0
951.0
948.0
946.0
951.0
953.0
953.0
952.0
949.0
947.0
946.0
947.0
947.0
944.0
943.0
945.0
945.0
949.0
948.0
949.0
946.0
948.0
950.0
951.0
950.0
952.0
949.0
948.0
949.0
948.0
951.0
949.0
948.0
945.0
948.0
949.0
951.0
952.0
950.0
948.0
947.0
950.0
949.0
945.0
941.0
939.0
941.0
945.0
949.0
948.0
944.0
944.0
945.0
944.0
945.0
946.0
944.0
943.0
945.0
947.0
949.0
945.0
943.0
939.0
944.0
948.0
947.0
948.0
945.0
945.0
947.0
948.0
947.0
946.0
942.0
939.0
939.0
940.0
941.0
942.0
945.0
946.0
947.0
946.0
947.0
943.0
941.0
940.0
941.0
941.0
945.0
945.0
943.0
942.0
942.0
942.0
943.0
942.0
939.0
940.0
945.0
946.0
948.0
946.0
945.0
945.0
944.0
944.0
946.0
948.0
946.0
945.0
946.0
945.0
945.0
946.0
944.0
940.0
943.0
946.0
949.0
950.0
948.0
949.0
949.0
950.0
950.0
949.0
947.0
944.0
944.0
946.0
949.0
953.0
952.0
952.0
949.0
950.0
957.0
957.0
960.0
963.0
966.0
968.0
973.0
972.0
969.0
968.0
968.0
971.0
972.0
969.0
964.0
962.0
961.0
962.0
962.0
956.0
949.0
940.0
941.0
943.0
940.0
943.0
942.0
938.0
937.0
941.0
942.0
937.0
934.0
933.0
930.0
932.0
933.0
935.0
934.0
931.0
930.0
930.0
931.0
928.0
926.0
924.0
926.0
930.0
929.0
929.0
931.0
931.0
929.0
927.0
927.0
925.0
923.0
924.0
925.0
932.0
934.0
936.0
938.0
937.0
935.0
939.0
941.0
943.0
944.0
946.0
951.0
953.0
954.0
953.0
950.0
948.0
949.0
952.0
955.0
956.0
953.0
955.0
959.0
959.0
959.0
955.0
953.0
950.0
950.0
945.0
938.0
929.0
920.0
920.0
923.0
931.0
935.0
943.0
952.0
959.0
963.0
967.0
971.0
979.0
996.0
1018.0
1055.0
1091.0
1107.0
1109.0
1092.0
1074.0
1054.0
1035.0
1016.0
1002.0
989.0
978.0
973.0
970.0
972.0
973.0
969.0
969.0
971.0
973.0
972.0
969.0
970.0
966.0
971.0
973.0
975.0
975.0
976.0
976.0
981.0
984.0
982.0
984.0
980.0
979.0
985.0
989.0
988.0
986.0
984.0
981.0
985.0
991.0
991.0
993.0
993.0
992.0
994.0
997.0
1000.0
999.0
1000.0
1000.0
1006.0
1011.0
1008.0
1006.0
1004.0
1002.0
1004.0
1011.0
1015.0
1017.0
1019.0
1019.0
1018.0
1021.0
1022.0
1018.0
1016.0
1017.0
1016.0
1018.0
1021.0
1025.0
1021.0
1019.0
1019.0
1022.0
1023.0
1023.0
1021.0
1016.0
1021.0
1022.0
1027.0
1024.0
1023.0
1021.0
1022.0
1023.0
1026.0
