# Simple Text Format
# Sampling Rate (Hz):= 360.00
# Resolution:= 12
# Labels:= ECG
998.0
1002.0
1004.0
1004.0
1006.0
1009.0
1008.0
1003.0
999.0
1001.0
1003.0
1000.0
999.0
997.0
1002.0
1003.0
1006.0
1003.0
997.0
991.0
993.0
998.0
1000.0
995.0
990.0
982.0
987.0
990.0
990.0
990.0
985.0
979.0
980.0
979.0
981.0
979.0
972.0
967.0
962.0
960.0
960.0
956.0
954.0
956.0
955.0
959.0
961.0
959.0
952.0
949.0
946.0
947.0
944.0
943.0
942.0
944.0
940.0
940.0
941.0
938.0
935.0
929.0
930.0
933.0
935.0
934.0
932.0
933.0
933.0
932.0
929.0
928.0
926.0
923.0
925.0
929.0
930.0
926.0
923.0
922.0
923.0
924.0
922.0
923.0
921.0
925.0
927.0
928.0
929.0
928.0
924.0
924.0
924.0
924.0
926.0
926.0
927.0
926.0
927.0
930.0
927.0
922.0
913.0
908.0
904.0
904.0
907.0
910.0
910.0
916.0
925.0
940.0
958.0
975.0
986.0
997.0
1012.0
1027.0
1034.0
1046.0
1057.0
1079.0
1105.0
1134.0
1164.0
1186.0
1202.0
1217.0
1239.0
1257.0
1272.0
1289.0
1308.0
1320.0
1334.0
1342.0
1349.0
1353.0
1354.0
1346.0
1332.0
1311.0
1277.0
1243.0
1195.0
1147.0
1100.0
1055.0
1016.0
983.0
958.0
941.0
924.0
910.0
893.0
884.0
877.0
874.0
871.0
874.0
873.0
871.0
866.0
864.0
866.0
870.0
872.0
872.0
870.0
862.0
861.0
863.0
864.0
862.0
864.0
864.0
867.0
865.0
866.0
865.0
861.0
858.0
854.0
856.0
859.0
858.0
859.0
861.0
861.0
866.0
869.0
869.0
869.0
866.0
868.0
868.0
868.0
865.0
870.0
874.0
879.0
883.0
884.0
881.0
876.0
875.0
873.0
873.0
873.0
873.0
877.0
878.0
881.0
880.0
880.0
878.0
877.0
881.0
883.0
885.0
890.0
892.0
892.0
891.0
894.0
897.0
898.0
896.0
896.0
898.0
901.0
904.0
906.0
910.0
911.0
912.0
913.0
915.0
919.0
920.0
919.0
921.0
928.0
938.0
942.0
944.0
943.0
945.0
950.0
948.0
948.0
948.0
949.0
953.0
955.0
965.0
972.0
976.0
981.0
982.0
987.0
996.0
999.0
1003.0
1007.0
1011.0
1019.0
1027.0
1032.0
1036.0
1037.0
1037.0
1044.0
1051.0
1053.0
1055.0
1061.0
1063.0
1068.0
1071.0
1077.0
1082.0
1086.0
1088.0
1091.0
1095.0
1103.0
1102.0
1105.0
1110.0
1114.0
1120.0
1124.0
1125.0
1124.0
1122.0
1128.0
1133.0
1140.0
1138.0
1138.0
1138.0
1137.0
1143.0
1143.0
1144.0
1138.0
1138.0
1142.0
1147.0
1151.0
1152.0
1153.0
1155.0
1154.0
1157.0
1154.0
1153.0
1154.0
1154.0
1155.0
1160.0
1161.0
1161.0
1160.0
1159.0
1159.0
1162.0
1161.0
1159.0
1158.0
1155.0
1160.0
1161.0
1165.0
1168.0
1166.0
1163.0
1165.0
1168.0
1172.0
1170.0
1170.0
1166.0
1165.0
1168.0
1170.0
1171.0
1170.0
1167.0
1171.0
1170.0
1173.0
1174.0
1171.0
1166.0
1169.0
1171.0
1176.0
1172.0
1171.0
1168.0
1171.0
1169.0
1172.0
1168.0
1167.0
1167.0
1170.0
1169.0
1171.0
1170.0
1164.0
1160.0
1160.0
1161.0
1162.0
1160.0
1159.0
1155.0
1155.0
1154.0
1154.0
1154.0
1155.0
1153.0
1154.0
1156.0
1155.0
1154.0
1150.0
1146.0
1147.0
1146.0
1146.0
1146.0
1141.0
1139.0
1138.0
1133.0
1136.0
1131.0
1130.0
1129.0
1129.0
1129.0
1131.0
1128.0
1123.0
1119.0
1117.0
1120.0
1122.0
1119.0
1114.0
1110.0
1109.0
1107.0
1109.0
1105.0
1103.0
1096.0
1097.0
1097.0
1093.0
1091.0
1083.0
1079.0
1082.0
1083.0
1081.0
1079.0
1078.0
1077.0
1078.0
1080.0
1077.0
1075.0
1071.0
1065.0
1065.0
1066.0
1067.0
1068.0
1063.0
1057.0
1051.0
1049.0
1048.0
1048.0
1048.0
1046.0
1048.0
1047.0
1046.0
1040.0
1037.0
1030.0
1033.0
1034.0
1028.0
1027.0
1020.0
1017.0
1016.0
1019.0
1021.0
1023.0
1023.0
1026.0
1027.0
1025.0
1025.0
1020.0
1025.0
1025.0
1027.0
1027.0
1025.0
1025.0
1022.0
1018.0
1017.0
1014.0
1010.0
1007.0
1004.0
995.0
991.0
987.0
982.0
980.0
973.0
972.0
965.0
965.0
962.0
957.0
955.0
950.0
951.0
944.0
944.0
945.0
941.0
935.0
937.0
940.0
940.0
939.0
934.0
930.0
928.0
931.0
929.0
926.0
920.0
916.0
917.0
918.0
920.0
911.0
909.0
903.0
902.0
907.0
908.0
906.0
908.0
904.0
902.0
902.0
906.0
908.0
911.0
909.0
908.0
910.0
913.0
915.0
913.0
911.0
913.0
919.0
920.0
919.0
916.0
910.0
912.0
914.0
913.0
913.0
908.0
906.0
908.0
911.0
915.0
912.0
910.0
908.0
909.0
913.0
917.0
912.0
903.0
893.0
887.0
879.0
870.0
868.0
869.0
871.0
881.0
885.0
894.0
896.0
899.0
901.0
906.0
912.0
918.0
928.0
945.0
972.0
1001.0
1023.0
1030.0
1026.0
1020.0
1008.0
994.0
981.0
967.0
955.0
940.0
926.0
917.0
916.0
918.0
920.0
913.0
912.0
916.0
919.0
920.0
924.0
921.0
918.0
915.0
916.0
918.0
920.0
917.0
916.0
917.0
918.0
920.0
918.0
917.0
909.0
901.0
905.0
913.0
919.0
921.0
920.0
918.0
918.0
923.0
922.0
917.0
918.0
917.0
919.0
922.0
921.0
919.0
916.0
917.0
924.0
924.0
925.0
920.0
917.0
916.0
920.0
928.0
933.0
936.0
937.0
932.0
927.0
930.0
928.0
930.0
931.0
935.0
934.0
936.0
938.0
937.0
930.0
932.0
931.0
937.0
938.0
939.0
939.0
941.0
947.0
948.0
949.0
945.0
937.0
939.0
933.0
939.0
943.0
944.0
943.0
944.0
944.0
944.0
945.0
942.0
937.0
938.0
942.0
939.0
943.0
947.0
945.0
945.0
945.0
945.0
941.0
938.0
929.0
929.0
934.0
939.0
939.0
934.0
931.0
932.0
935.0
937.0
934.0
930.0
922.0
917.0
918.0
919.0
919.0
913.0
909.0
905.0
906.0
905.0
902.0
899.0
893.0
895.0
896.0
892.0
893.0
892.0
893.0
889.0
886.0
888.0
890.0
888.0
883.0
881.0
882.0
886.0
888.0
887.0
880.0
879.0
879.0
882.0
883.0
884.0
886.0
885.0
884.0
881.0
876.0
875.0
872.0
876.0
880.0
881.0
880.0
880.0
878.0
877.0
877.0
876.0
871.0
866.0
861.0
858.0
858.0
859.0
861.0
860.0
861.0
864.0
866.0
867.0
866.0
861.0
860.0
859.0
862.0
865.0
863.0
862.0
861.0
860.0
861.0
864.0
864.0
862.0
861.0
858.0
860.0
861.0
863.0
865.0
862.0
863.0
861.0
864.0
857.0
861.0
858.0
862.0
867.0
874.0
876.0
877.0
878.0
880.0
882.0
880.0
878.0
882.0
887.0
892.0
897.0
895.0
894.0
890.0
883.0
885.0
883.0
880.0
878.0
876.0
875.0
872.0
872.0
868.0
868.0
866.0
867.0
871.0
870.0
866.0
868.0
867.0
866.0
868.0
870.0
874.0
870.0
868.0
864.0
859.0
864.0
868.0
866.0
866.0
866.0
866.0
866.0
867.0
863.0
861.0
862.0
863.0
864.0
863.0
865.0
867.0
867.0
867.0
866.0
869.0
866.0
866.0
865.0
864.0
872.0
878.0
883.0
885.0
887.0
886.0
890.0
892.0
890.0
886.0
889.0
894.0
897.0
902.0
909.0
910.0
912.0
914.0
916.0
914.0
915.0
915.0
913.0
916.0
921.0
926.0
924.0
924.0
921.0
920.0
921.0
921.0
918.0
916.0
914.0
915.0
913.0
908.0
902.0
897.0
896.0
904.0
913.0
922.0
927.0
933.0
938.0
948.0
951.0
959.0
963.0
967.0
971.0
986.0
1013.0
1043.0
1071.0
1082.0
1081.0
1076.0
1074.0
1070.0
1055.0
1031.0
1008.0
990.0
979.0
970.0
969.0
963.0
955.0
955.0
959.0
961.0
963.0
961.0
961.0
964.0
964.0
967.0
970.0
970.0
968.0
973.0
979.0
980.0
985.0
981.0
981.0
981.0
984.0
986.0
985.0
987.0
985.0
990.0
995.0
999.0
1000.0
999.0
999.0
1003.0
1012.0
1016.0
1018.0
1020.0
1020.0
1024.0
1025.0
1031.0
1030.0
1029.0
1025.0
1033.0
1038.0
1039.0
1039.0
1034.0
1031.0
1033.0
1038.0
1042.0
1043.0
1042.0
1043.0
1044.0
1048.0
1048.0
1049.0
1045.0
1045.0
1046.0
1051.0
1053.0
1056.0
1056.0
1055.0
1058.0
1060.0
1061.0
1061.0
1060.0
1061.0
1060.0
1063.0
1064.0
1066.0
1063.0
1059.0
1059.0
1060.0
1062.0
1063.0
1062.0
1059.0
1060.0
1066.0
1066.0
1065.0
1065.0
1062.0
1058.0
1059.0
1063.0
1062.0
1059.0
1054.0
1055.0
1053.0
1057.0
1054.0
1049.0
1041.0
1040.0
1041.0
1039.0
1038.0
1032.0
1024.0
1023.0
1023.0
1025.0
1024.0
1021.0
1019.0
1019.0
1019.0
1018.0
1020.0
1017.0
1016.0
1013.0
1014.0
1014.0
1015.0
1015.0
1014.0
1013.0
1015.0
1013.0
1010.0
1007.0
1007.0
1008.0
1010.0
1013.0
1011.0
1008.0
1005.0
1007.0
1009.0
1013.0
1009.0
1007.0
1000.0
1002.0
1008.0
1008.0
1005.0
999.0
997.0
995.0
1001.0
1004.0
1003.0
1003.0
1000.0
1003.0
1006.0
1007.0
1003.0
1001.0
998.0
998.0
997.0
999.0
999.0
995.0
996.0
996.0
1001.0
1001.0
1002.0
1005.0
1004.0
1003.0
1002.0
1003.0
1002.0
1000.0
996.0
1002.0
1007.0
1009.0
1012.0
1010.0
1013.0
1017.0
1020.0
1022.0
1023.0
1024.0
1025.0
1027.0
1028.0
1026.0
1022.0
1019.0
1018.0
1017.0
1019.0
1020.0
1022.0
1019.0
1013.0
1009.0
1005.0
1002.0
1000.0
996.0
995.0
997.0
1001.0
1002.0
1003.0
999.0
994.0
991.0
993.0
996.0
997.0
992.0
987.0
988.0
992.0
991.0
988.0
984.0
981.0
981.0
984.0
987.0
986.0
982.0
980.0
980.0
979.0
979.0
978.0
978.0
977.0
981.0
990.0
997.0
1000.0
997.0
990.0
989.0
996.0
999.0
1004.0
1010.0
1010.0
1010.0
1008.0
1009.0
1009.0
1009.0
1007.0
1009.0
1012.0
1009.0
1010.0
1009.0
1007.0
1005.0
1005.0
1007.0
1006.0
1006.0
998.0
989.0
985.0
976.0
971.0
969.0
976.0
983.0
994.0
1000.0
1007.0
1007.0
1008.0
1015.0
1027.0
1045.0
1072.0
1101.0
1125.0
1137.0
1137.0
1132.0
1114.0
1094.0
1075.0
1058.0
1047.0
1043.0
1038.0
1036.0
1032.0
1031.0
1035.0
1039.0
1037.0
1037.0
1034.0
1039.0
1040.0
1043.0
1040.0
1041.0
1043.0
1044.0
1049.0
1052.0
1052.0
1052.0
1051.0
1049.0
1053.0
1056.0
1059.0
1060.0
1059.0
1061.0
1063.0
1062.0
1065.0
1060.0
1062.0
1064.0
1070.0
1078.0
1078.0
1077.0
1078.0
1082.0
1085.0
1086.0
1086.0
1087.0
1087.0
1089.0
1091.0
1094.0
1096.0
1095.0
1097.0
1097.0
1102.0
1108.0
1110.0
1111.0
1108.0
1112.0
1111.0
1113.0
1112.0
1116.0
1119.0
1124.0
1125.0
1127.0
1127.0
1128.0
1126.0
1126.0
1132.0
1136.0
1140.0
1143.0
1140.0
1142.0
1146.0
1149.0
1150.0
1152.0
1152.0
1152.0
1154.0
1155.0
1155.0
1153.0
1158.0
1158.0
1160.0
1163.0
1164.0
1164.0
1163.0
1161.0
1168.0
1168.0
1169.0
1165.0
1166.0
1168.0
1169.0
1176.0
1177.0
1176.0
1175.0
1174.0
1177.0
1180.0
1178.0
1183.0
1185.0
1189.0
1195.0
1198.0
1198.0
1196.0
1193.0
1199.0
1209.0
1215.0
1220.0
1223.0
1222.0
1222.0
1229.0
1235.0
1238.0
1238.0
1239.0
1244.0
1248.0
1249.0
1249.0
1251.0
1256.0
1261.0
1265.0
1272.0
1273.0
1278.0
1275.0
1278.0
1281.0
1289.0
1289.0
1291.0
1294.0
1295.0
1301.0
1306.0
1305.0
1306.0
1305.0
1307.0
1311.0
1315.0
1319.0
1319.0
1316.0
1321.0
1323.0
1327.0
1327.0
1328.0
1328.0
1329.0
1336.0
1338.0
1336.0
1339.0
1342.0
1343.0
1349.0
1356.0
1359.0
1361.0
1360.0
1362.0
1365.0
1365.0
1368.0
1366.0
1367.0
1365.0
1367.0
1368.0
1365.0
1362.0
1358.0
1353.0
1352.0
1355.0
1351.0
1350.0
1348.0
1348.0
1349.0
1350.0
1348.0
1346.0
1344.0
1343.0
1343.0
1344.0
1339.0
1337.0
1336.0
1336.0
1334.0
1333.0
1332.0
1330.0
1328.0
1324.0
1324.0
1326.0
1323.0
1321.0
1318.0
1317.0
1316.0
1317.0
1318.0
1317.0
1317.0
1318.0
1318.0
1320.0
1319.0
1318.0
1312.0
1310.0
1313.0
1316.0
1313.0
1307.0
1304.0
1303.0
1307.0
1305.0
1305.0
1300.0
1295.0
1294.0
1295.0
1294.0
1292.0
1288.0
1282.0
1278.0
1275.0
1272.0
1266.0
1259.0
1252.0
1250.0
1252.0
1260.0
1260.0
1263.0
1261.0
1262.0
1267.0
1271.0
1278.0
1290.0
1299.0
1310.0
1322.0
1326.0
1325.0
1320.0
1309.0
1297.0
1290.0
1283.0
1272.0
1265.0
1258.0
1253.0
1248.0
1246.0
1245.0
1245.0
1245.0
1242.0
1244.0
1247.0
1239.0
1236.0
1231.0
1230.0
1231.0
1235.0
1236.0
1231.0
1230.0
1230.0
1230.0
1228.0
1228.0
1226.0
1224.0
1223.0
1223.0
1222.0
1220.0
1221.0
1219.0
1218.0
1221.0
1223.0
1221.0
1217.0
1212.0
1215.0
1217.0
1220.0
1222.0
1221.0
1220.0
1217.0
1219.0
1221.0
1219.0
1217.0
1218.0
1215.0
1219.0
1223.0
1219.0
1220.0
1215.0
1214.0
1215.0
1215.0
1215.0
1216.0
1216.0
1212.0
1215.0
1216.0
1215.0
1213.0
1211.0
1208.0
1209.0
1211.0
1212.0
1208.0
1204.0
1205.0
1204.0
1205.0
1209.0
1206.0
1202.0
1201.0
1198.0
1203.0
1200.0
1195.0
1191.0
1191.0
1194.0
1192.0
1184.0
1179.0
1174.0
1172.0
1173.0
1175.0
1173.0
1168.0
1164.0
1164.0
1164.0
1163.0
1157.0
1156.0
1154.0
1154.0
1155.0
1156.0
1156.0
1155.0
1150.0
1142.0
1147.0
1147.0
1148.0
1143.0
1140.0
1137.0
1139.0
1143.0
1142.0
1138.0
1135.0
1135.0
1136.0
1137.0
1134.0
1130.0
1131.0
1129.0
1131.0
1133.0
1129.0
1130.0
1130.0
1129.0
1129.0
1128.0
1126.0
1123.0
1124.0
1123.0
1120.0
1125.0
1124.0
1123.0
1121.0
1117.0
1120.0
1120.0
1118.0
1117.0
1115.0
1112.0
1114.0
1118.0
1118.0
1119.0
1115.0
1118.0
1117.0
1121.0
1118.0
1119.0
1120.0
1118.0
1119.0
1122.0
1122.0
1121.0
1122.0
1121.0
1126.0
1130.0
1132.0
1134.0
1134.0
1134.0
1139.0
1143.0
1144.0
1144.0
1144.0
1142.0
1144.0
1146.0
1137.0
1137.0
1132.0
1133.0
1138.0
1140.0
1139.0
1141.0
1140.0
1139.0
1138.0
1142.0
1139.0
1135.0
1136.0
1136.0
1139.0
1142.0
1144.0
1142.0
1142.0
1138.0
1140.0
1142.0
1142.0
1140.0
1142.0
1143.0
1144.0
1145.0
1144.0
1143.0
1140.0
1141.0
1141.0
1146.0
1147.0
1147.0
1147.0
1146.0
1151.0
1155.0
1156.0
1159.0
1161.0
1165.0
1172.0
1174.0
1176.0
1175.0
1176.0
1173.0
1175.0
1180.0
1181.0
1184.0
1184.0
1184.0
1189.0
1193.0
1193.0
1194.0
1192.0
1192.0
1195.0
1200.0
1200.0
1199.0
1196.0
1197.0
1200.0
1201.0
1200.0
1196.0
1193.0
1190.0
1187.0
1191.0
1189.0
1193.0
1195.0
1199.0
1206.0
1209.0
1211.0
1207.0
1209.0
1215.0
1219.0
1227.0
1235.0
1243.0
1251.0
1262.0
1271.0
1271.0
1271.0
1262.0
1252.0
1242.0
1238.0
1233.0
1227.0
1223.0
1221.0
1217.0
1217.0
1219.0
1216.0
1214.0
1213.0
1211.0
1210.0
1215.0
1213.0
1210.0
1210.0
1209.0
1209.0
1212.0
1212.0
1210.0
1207.0
1205.0
1205.0
1208.0
1206.0
1204.0
1204.0
1204.0
1201.0
1205.0
1200.0
1199.0
1198.0
1198.0
1195.0
1199.0
1197.0
1200.0
1199.0
1198.0
1198.0
1201.0
1197.0
1192.0
1192.0
1190.0
1193.0
1195.0
1193.0
1190.0
1189.0
1186.0
1191.0
1193.0
1190.0
1189.0
1189.0
1187.0
1188.0
1191.0
1189.0
1190.0
1189.0
1187.0
1189.0
1190.0
1188.0
1186.0
1184.0
1182.0
1184.0
1182.0
1183.0
1182.0
1177.0
1177.0
1180.0
1182.0
1180.0
1175.0
1174.0
1175.0
1173.0
1175.0
1175.0
1168.0
1170.0
1168.0
1166.0
1169.0
1166.0
1165.0
1161.0
1159.0
1158.0
1159.0
1159.0
1156.0
1150.0
1144.0
1145.0
1144.0
1140.0
1138.0
1134.0
1133.0
1134.0
1131.0
1133.0
1130.0
1128.0
1124.0
1120.0
1121.0
1119.0
1118.0
1112.0
1109.0
1107.0
1108.0
1104.0
1102.0
1096.0
1096.0
1096.0
1097.0
1095.0
1092.0
1092.0
1087.0
1090.0
1090.0
1089.0
1087.0
1084.0
1080.0
1082.0
1081.0
1078.0
1075.0
1072.0
1071.0
1068.0
1070.0
1069.0
1063.0
1061.0
1060.0
1060.0
1059.0
1057.0
1056.0
1055.0
1052.0
1051.0
1050.0
1048.0
1044.0
1040.0
1041.0
1041.0
1041.0
1041.0
1038.0
1033.0
1032.0
1032.0
1033.0
1028.0
1025.0
1025.0
1021.0
1023.0
1022.0
1023.0
1020.0
1017.0
1015.0
1014.0
1015.0
1013.0
1014.0
1013.0
1013.0
1015.0
1015.0
1014.0
1012.0
1010.0
1010.0
1011.0
1015.0
1011.0
1007.0
1003.0
1003.0
1004.0
1003.0
1002.0
995.0
994.0
989.0
986.0
987.0
984.0
980.0
973.0
969.0
966.0
964.0
962.0
961.0
960.0
960.0
960.0
960.0
957.0
954.0
951.0
949.0
951.0
953.0
950.0
945.0
940.0
938.0
939.0
936.0
934.0
927.0
927.0
925.0
925.0
927.0
927.0
925.0
922.0
917.0
917.0
920.0
921.0
917.0
916.0
915.0
918.0
919.0
921.0
919.0
917.0
917.0
920.0
920.0
920.0
920.0
919.0
920.0
922.0
925.0
924.0
921.0
922.0
922.0
923.0
922.0
920.0
920.0
915.0
916.0
915.0
916.0
916.0
916.0
917.0
916.0
914.0
911.0
907.0
904.0
897.0
889.0
882.0
882.0
882.0
881.0
885.0
888.0
893.0
894.0
898.0
898.0
899.0
902.0
905.0
910.0
917.0
931.0
953.0
975.0
991.0
1006.0
1007.0
1003.0
1001.0
996.0
981.0
969.0
961.0
952.0
940.0
930.0
929.0
928.0
924.0
922.0
921.0
919.0
919.0
918.0
920.0
922.0
922.0
922.0
924.0
925.0
925.0
922.0
918.0
913.0
919.0
919.0
918.0
921.0
922.0
920.0
922.0
924.0
923.0
925.0
923.0
922.0
923.0
926.0
929.0
925.0
921.0
921.0
922.0
923.0
924.0
924.0
921.0
923.0
925.0
926.0
927.0
928.0
925.0
926.0
927.0
929.0
928.0
923.0
925.0
924.0
926.0
931.0
931.0
933.0
931.0
931.0
932.0
936.0
937.0
939.0
934.0
934.0
937.0
940.0
942.0
940.0
937.0
939.0
939.0
944.0
944.0
943.0
938.0
943.0
948.0
948.0
949.0
949.0
949.0
946.0
949.0
950.0
952.0
950.0
949.0
951.0
952.0
956.0
954.0
952.0
950.0
950.0
952.0
954.0
953.0
953.0
951.0
951.0
953.0
956.0
957.0
956.0
954.0
952.0
954.0
955.0
956.0
954.0
953.0
951.0
948.0
951.0
948.0
947.0
946.0
945.0
949.0
948.0
945.0
943.0
940.0
937.0
937.0
937.0
936.0
938.0
936.0
935.0
939.0
936.0
936.0
932.0
930.0
929.0
929.0
933.0
932.0
931.0
930.0
931.0
934.0
934.0
935.0
931.0
930.0
929.0
926.0
929.0
928.0
926.0
923.0
921.0
921.0
922.0
923.0
922.0
921.0
921.0
922.0
921.0
922.0
920.0
914.0
913.0
916.0
918.0
920.0
917.0
916.0
917.0
916.0
916.0
914.0
911.0
908.0
908.0
910.0
911.0
913.0
909.0
907.0
906.0
906.0
908.0
906.0
904.0
899.0
901.0
903.0
907.0
906.0
903.0
898.0
895.0
900.0
901.0
897.0
895.0
889.0
888.0
890.0
895.0
894.0
893.0
891.0
891.0
888.0
892.0
891.0
890.0
882.0
882.0
882.0
884.0
884.0
878.0
878.0
875.0
877.0
879.0
878.0
877.0
874.0
872.0
871.0
874.0
879.0
880.0
880.0
886.0
888.0
891.0
892.0
892.0
888.0
889.0
889.0
888.0
887.0
885.0
883.0
881.0
881.0
881.0
879.0
872.0
867.0
864.0
865.0
865.0
867.0
864.0
857.0
854.0
853.0
854.0
852.0
851.0
848.0
844.0
846.0
844.0
844.0
845.0
842.0
841.0
841.0
841.0
835.0
837.0
835.0
834.0
834.0
838.0
836.0
830.0
825.0
824.0
824.0
825.0
823.0
821.0
818.0
812.0
816.0
815.0
815.0
813.0
809.0
806.0
811.0
811.0
813.0
812.0
811.0
810.0
814.0
811.0
814.0
813.0
811.0
812.0
817.0
821.0
820.0
818.0
818.0
813.0
815.0
818.0
820.0
817.0
817.0
816.0
817.0
818.0
820.0
821.0
816.0
817.0
818.0
820.0
820.0
818.0
814.0
815.0
817.0
815.0
817.0
816.0
814.0
813.0
813.0
807.0
807.0
799.0
793.0
789.0
783.0
783.0
775.0
772.0
770.0
776.0
785.0
793.0
802.0
808.0
808.0
807.0
810.0
811.0
815.0
822.0
829.0
840.0
861.0
887.0
908.0
922.0
928.0
925.0
919.0
912.0
903.0
886.0
865.0
849.0
840.0
832.0
826.0
821.0
819.0
814.0
813.0
811.0
812.0
810.0
811.0
811.0
811.0
809.0
810.0
808.0
807.0
806.0
807.0
807.0
809.0
804.0
803.0
804.0
808.0
808.0
807.0
805.0
803.0
800.0
799.0
801.0
804.0
801.0
798.0
796.0
801.0
802.0
804.0
803.0
797.0
797.0
800.0
803.0
805.0
807.0
805.0
808.0
806.0
807.0
801.0
802.0
801.0
801.0
804.0
806.0
807.0
805.0
800.0
797.0
800.0
798.0
802.0
801.0
801.0
796.0
798.0
799.0
807.0
807.0
803.0
800.0
800.0
801.0
805.0
803.0
802.0
800.0
802.0
803.0
804.0
804.0
802.0
797.0
801.0
801.0
804.0
802.0
801.0
802.0
804.0
803.0
804.0
797.0
793.0
791.0
788.0
789.0
791.0
791.0
787.0
786.0
786.0
781.0
778.0
774.0
769.0
769.0
770.0
768.0
765.0
766.0
759.0
755.0
753.0
750.0
748.0
748.0
743.0
736.0
735.0
733.0
729.0
726.0
721.0
721.0
724.0
723.0
721.0
720.0
713.0
712.0
713.0
709.0
703.0
702.0
697.0
697.0
700.0
702.0
703.0
701.0
697.0
693.0
694.0
692.0
692.0
689.0
686.0
685.0
690.0
692.0
693.0
690.0
685.0
680.0
674.0
673.0
673.0
671.0
672.0
673.0
673.0
674.0
672.0
668.0
667.0
664.0
666.0
668.0
668.0
667.0
662.0
658.0
655.0
657.0
657.0
657.0
655.0
655.0
653.0
655.0
657.0
655.0
650.0
649.0
646.0
649.0
650.0
650.0
646.0
647.0
648.0
649.0
648.0
648.0
648.0
645.0
647.0
648.0
654.0
651.0
651.0
653.0
657.0
660.0
663.0
665.0
665.0
663.0
665.0
668.0
666.0
662.0
661.0
662.0
664.0
666.0
663.0
659.0
653.0
648.0
648.0
650.0
649.0
650.0
648.0
640.0
641.0
644.0
639.0
636.0
632.0
631.0
632.0
635.0
636.0
634.0
632.0
630.0
630.0
632.0
633.0
631.0
628.0
628.0
629.0
631.0
631.0
629.0
629.0
626.0
627.0
630.0
632.0
630.0
628.0
630.0
634.0
638.0
640.0
636.0
633.0
633.0
634.0
638.0
640.0
642.0
645.0
644.0
647.0
651.0
654.0
655.0
653.0
650.0
652.0
654.0
658.0
659.0
657.0
657.0
656.0
657.0
659.0
659.0
656.0
657.0
658.0
658.0
661.0
661.0
662.0
663.0
664.0
666.0
665.0
664.0
661.0
658.0
657.0
655.0
651.0
646.0
639.0
637.0
642.0
644.0
644.0
645.0
641.0
648.0
659.0
670.0
676.0
685.0
695.0
714.0
739.0
767.0
792.0
815.0
824.0
819.0
813.0
808.0
794.0
774.0
756.0
738.0
729.0
726.0
722.0
717.0
718.0
717.0
718.0
721.0
720.0
721.0
724.0
727.0
735.0
740.0
743.0
744.0
742.0
741.0
742.0
740.0
742.0
742.0
740.0
740.0
740.0
747.0
753.0
756.0
756.0
751.0
750.0
749.0
750.0
752.0
752.0
754.0
757.0
762.0
766.0
768.0
768.0
767.0
772.0
775.0
783.0
788.0
791.0
794.0
800.0
800.0
804.0
809.0
813.0
816.0
817.0
823.0
825.0
825.0
824.0
828.0
831.0
838.0
842.0
846.0
848.0
852.0
855.0
862.0
868.0
871.0
873.0
880.0
888.0
892.0
894.0
889.0
890.0
891.0
895.0
901.0
907.0
906.0
909.0
905.0
907.0
906.0
905.0
900.0
897.0
894.0
894.0
900.0
905.0
908.0
912.0
912.0
920.0
925.0
927.0
929.0
927.0
928.0
931.0
931.0
930.0
932.0
932.0
934.0
940.0
943.0
945.0
947.0
945.0
945.0
946.0
948.0
948.0
948.0
948.0
950.0
950.0
953.0
958.0
960.0
965.0
967.0
969.0
969.0
972.0
975.0
977.0
979.0
985.0
989.0
994.0
995.0
993.0
996.0
1001.0
1002.0
1004.0
1008.0
1008.0
1006.0
1011.0
1010.0
1013.0
1015.0
1012.0
1008.0
1009.0
1008.0
1011.0
1012.0
1012.0
1013.0
1015.0
1019.0
1022.0
1022.0
1023.0
1021.0
1023.0
1023.0
1027.0
1028.0
1028.0
1030.0
1035.0
1034.0
1031.0
1035.0
1032.0
1034.0
1038.0
1036.0
1039.0
1037.0
1037.0
1038.0
1039.0
1042.0
1046.0
1039.0
1036.0
1033.0
1034.0
1035.0
1036.0
1036.0
1037.0
1041.0
1045.0
1048.0
1049.0
1052.0
1054.0
1054.0
1058.0
1059.0
1059.0
1057.0
1057.0
1059.0
1060.0
1061.0
1060.0
1057.0
1051.0
1048.0
1044.0
1045.0
1042.0
1035.0
1031.0
1026.0
1025.0
1024.0
1022.0
1019.0
1017.0
1018.0
1019.0
1017.0
1023.0
1023.0
1019.0
1013.0
1014.0
1013.0
1014.0
1011.0
1006.0
1000.0
1000.0
1004.0
1002.0
999.0
994.0
991.0
991.0
994.0
992.0
989.0
981.0
972.0
972.0
968.0
969.0
969.0
965.0
958.0
955.0
952.0
951.0
953.0
950.0
950.0
953.0
956.0
960.0
960.0
961.0
957.0
952.0
953.0
954.0
954.0
955.0
955.0
958.0
956.0
952.0
944.0
932.0
923.0
915.0
909.0
907.0
902.0
901.0
901.0
906.0
907.0
903.0
902.0
898.0
893.0
892.0
890.0
889.0
888.0
883.0
875.0
872.0
868.0
860.0
856.0
853.0
852.0
856.0
864.0
867.0
873.0
880.0
884.0
892.0
898.0
904.0
912.0
919.0
931.0
951.0
971.0
987.0
999.0
1002.0
1003.0
999.0
992.0
978.0
956.0
931.0
907.0
891.0
879.0
872.0
871.0
869.0
862.0
858.0
856.0
854.0
851.0
846.0
844.0
845.0
846.0
845.0
843.0
835.0
835.0
828.0
826.0
829.0
828.0
827.0
825.0
824.0
824.0
824.0
820.0
818.0
814.0
812.0
812.0
812.0
813.0
812.0
810.0
813.0
814.0
813.0
811.0
808.0
804.0
804.0
806.0
805.0
803.0
803.0
806.0
807.0
811.0
809.0
807.0
807.0
801.0
803.0
804.0
807.0
808.0
808.0
807.0
810.0
814.0
813.0
811.0
809.0
807.0
808.0
814.0
814.0
816.0
814.0
812.0
813.0
817.0
821.0
821.0
819.0
817.0
818.0
821.0
827.0
827.0
834.0
833.0
831.0
826.0
822.0
821.0
826.0
827.0
828.0
823.0
818.0
811.0
805.0
806.0
807.0
810.0
810.0
809.0
809.0
809.0
809.0
806.0
806.0
800.0
794.0
789.0
787.0
788.0
787.0
784.0
780.0
780.0
780.0
784.0
782.0
782.0
780.0
781.0
784.0
786.0
783.0
777.0
777.0
768.0
770.0
771.0
775.0
775.0
774.0
772.0
771.0
768.0
767.0
769.0
762.0
758.0
757.0
759.0
763.0
763.0
764.0
761.0
762.0
763.0
763.0
762.0
758.0
753.0
754.0
759.0
764.0
764.0
764.0
763.0
765.0
767.0
769.0
765.0
757.0
750.0
746.0
744.0
744.0
747.0
749.0
748.0
750.0
751.0
750.0
749.0
747.0
743.0
746.0
745.0
747.0
749.0
746.0
745.0
748.0
754.0
759.0
759.0
760.0
757.0
757.0
758.0
759.0
760.0
756.0
758.0
762.0
771.0
773.0
771.0
770.0
767.0
767.0
768.0
769.0
774.0
777.0
783.0
786.0
788.0
790.0
791.0
786.0
782.0
782.0
784.0
786.0
786.0
781.0
775.0
770.0
765.0
758.0
756.0
758.0
761.0
763.0
762.0
760.0
760.0
754.0
755.0
754.0
756.0
756.0
756.0
753.0
752.0
754.0
756.0
759.0
758.0
757.0
758.0
761.0
761.0
760.0
750.0
741.0
738.0
738.0
743.0
746.0
748.0
749.0
749.0
752.0
760.0
763.0
764.0
766.0
767.0
770.0
772.0
774.0
773.0
771.0
768.0
774.0
774.0
779.0
782.0
784.0
786.0
793.0
799.0
809.0
815.0
816.0
804.0
793.0
780.0
773.0
766.0
763.0
764.0
763.0
756.0
750.0
740.0
740.0
746.0
747.0
756.0
765.0
775.0
783.0
791.0
802.0
824.0
858.0
891.0
913.0
917.0
916.0
908.0
896.0
877.0
857.0
836.0
825.0
816.0
813.0
812.0
809.0
805.0
806.0
810.0
814.0
813.0
811.0
808.0
813.0
814.0
819.0
828.0
838.0
837.0
835.0
828.0
822.0
819.0
815.0
814.0
815.0
819.0
823.0
828.0
826.0
829.0
832.0
836.0
841.0
847.0
849.0
853.0
854.0
856.0
866.0
872.0
870.0
868.0
870.0
875.0
879.0
878.0
878.0
879.0
885.0
887.0
881.0
868.0
851.0
844.0
854.0
866.0
871.0
863.0
854.0
851.0
852.0
861.0
868.0
870.0
877.0
880.0
882.0
884.0
879.0
874.0
872.0
872.0
880.0
884.0
890.0
897.0
902.0
909.0
919.0
928.0
936.0
927.0
910.0
894.0
888.0
899.0
916.0
922.0
922.0
915.0
916.0
917.0
924.0
935.0
940.0
937.0
925.0
908.0
890.0
873.0
859.0
852.0
854.0
858.0
863.0
867.0
873.0
877.0
883.0
891.0
898.0
902.0
900.0
896.0
895.0
895.0
897.0
902.0
908.0
909.0
908.0
907.0
902.0
895.0
896.0
897.0
896.0
888.0
875.0
869.0
866.0
871.0
883.0
892.0
903.0
907.0
911.0
902.0
896.0
889.0
882.0
877.0
875.0
882.0
893.0
903.0
914.0
924.0
930.0
930.0
930.0
929.0
928.0
919.0
909.0
899.0
896.0
898.0
901.0
