# Simple Text Format
# Sampling Rate (Hz):= 360.00
# Resolution:= 12
# Labels:= ECG
959.0
966.0
972.0
982.0
999.0
1027.0
1065.0
1100.0
1114.0
1110.0
1094.0
1082.0
1065.0
1045.0
1029.0
1013.0
1001.0
991.0
988.0
988.0
988.0
989.0
988.0
992.0
998.0
998.0
995.0
991.0
987.0
987.0
988.0
990.0
996.0
994.0
994.0
988.0
992.0
996.0
999.0
998.0
1000.0
999.0
1003.0
1000.0
1001.0
998.0
995.0
997.0
997.0
1004.0
1009.0
1009.0
1007.0
1002.0
1002.0
1004.0
1007.0
1009.0
1010.0
1010.0
1014.0
1018.0
1019.0
1016.0
1012.0
1017.0
1026.0
1039.0
1049.0
1050.0
1052.0
1049.0
1046.0
1046.0
1051.0
1062.0
1077.0
1082.0
1078.0
1064.0
1049.0
1048.0
1053.0
1055.0
1053.0
1045.0
1033.0
1024.0
1017.0
1016.0
1017.0
1019.0
1020.0
1022.0
1021.0
1023.0
1029.0
1031.0
1031.0
1028.0
1023.0
1020.0
1019.0
1021.0
1020.0
1018.0
1013.0
1006.0
1002.0
999.0
995.0
993.0
990.0
986.0
987.0
990.0
994.0
993.0
988.0
982.0
981.0
982.0
985.0
990.0
990.0
987.0
985.0
981.0
976.0
974.0
976.0
978.0
979.0
983.0
988.0
989.0
984.0
979.0
978.0
979.0
978.0
980.0
985.0
987.0
990.0
985.0
983.0
977.0
974.0
974.0
979.0
987.0
993.0
992.0
988.0
987.0
989.0
996.0
999.0
993.0
982.0
969.0
963.0
963.0
965.0
962.0
959.0
961.0
966.0
970.0
972.0
975.0
974.0
974.0
974.0
976.0
981.0
980.0
976.0
979.0
984.0
987.0
987.0
986.0
983.0
978.0
978.0
979.0
982.0
984.0
986.0
985.0
988.0
991.0
994.0
997.0
999.0
999.0
1006.0
1007.0
1009.0
1011.0
1008.0
1005.0
1006.0
1007.0
1009.0
1003.0
999.0
997.0
994.0
996.0
996.0
993.0
986.0
980.0
979.0
979.0
983.0
983.0
979.0
976.0
969.0
969.0
970.0
972.0
968.0
973.0
978.0
980.0
980.0
975.0
967.0
962.0
962.0
962.0
965.0
968.0
967.0
966.0
966.0
961.0
960.0
961.0
962.0
961.0
967.0
968.0
974.0
977.0
976.0
972.0
973.0
978.0
980.0
979.0
976.0
974.0
976.0
976.0
979.0
978.0
979.0
978.0
976.0
983.0
983.0
985.0
986.0
984.0
983.0
985.0
987.0
985.0
978.0
966.0
955.0
947.0
937.0
933.0
931.0
933.0
941.0
956.0
966.0
976.0
978.0
982.0
983.0
994.0
1015.0
1035.0
1073.0
1104.0
1120.0
1118.0
1109.0
1095.0
1077.0
1054.0
1039.0
1027.0
1017.0
1007.0
999.0
995.0
992.0
995.0
998.0
997.0
997.0
998.0
1001.0
1005.0
1002.0
999.0
995.0
988.0
993.0
995.0
1001.0
999.0
998.0
995.0
997.0
1002.0
1007.0
1009.0
1010.0
1006.0
1005.0
1007.0
1008.0
1006.0
1002.0
998.0
1000.0
1006.0
1008.0
1012.0
1011.0
1011.0
1012.0
1014.0
1018.0
1019.0
1019.0
1018.0
1017.0
1023.0
1023.0
1026.0
1023.0
1022.0
1021.0
1025.0
1028.0
1031.0
1030.0
1028.0
1029.0
1029.0
1030.0
1030.0
1031.0
1030.0
1035.0
1039.0
1041.0
1045.0
1041.0
1037.0
1035.0
1040.0
1045.0
1043.0
1042.0
1041.0
1042.0
1044.0
1046.0
1047.0
1044.0
1039.0
1040.0
1041.0
1041.0
1039.0
1039.0
1036.0
1039.0
1040.0
1038.0
1036.0
1030.0
1025.0
1025.0
1024.0
1024.0
1023.0
1021.0
1020.0
1019.0
1019.0
1017.0
1012.0
1007.0
999.0
1001.0
1003.0
1005.0
1002.0
995.0
989.0
989.0
991.0
995.0
994.0
996.0
993.0
993.0
992.0
994.0
993.0
990.0
986.0
986.0
985.0
986.0
983.0
977.0
977.0
979.0
981.0
982.0
984.0
980.0
981.0
977.0
979.0
980.0
979.0
978.0
975.0
977.0
975.0
976.0
974.0
973.0
971.0
974.0
977.0
978.0
974.0
973.0
971.0
973.0
974.0
975.0
976.0
971.0
968.0
972.0
974.0
976.0
975.0
969.0
965.0
971.0
977.0
979.0
978.0
975.0
972.0
975.0
976.0
977.0
975.0
973.0
972.0
972.0
969.0
974.0
969.0
965.0
957.0
955.0
956.0
962.0
965.0
964.0
970.0
985.0
1004.0
1030.0
1046.0
1061.0
1074.0
1088.0
1104.0
1122.0
1144.0
1168.0
1199.0
1229.0
1259.0
1279.0
1296.0
1313.0
1328.0
1344.0
1356.0
1368.0
1379.0
1391.0
1400.0
1413.0
1421.0
1430.0
1430.0
1425.0
1415.0
1402.0
1377.0
1349.0
1319.0
1283.0
1244.0
1205.0
1161.0
1119.0
1078.0
1036.0
1003.0
976.0
958.0
937.0
920.0
907.0
899.0
894.0
892.0
889.0
885.0
882.0
879.0
877.0
879.0
883.0
882.0
885.0
880.0
883.0
881.0
883.0
878.0
880.0
878.0
881.0
882.0
886.0
884.0
887.0
886.0
889.0
892.0
892.0
891.0
886.0
881.0
881.0
885.0
887.0
887.0
880.0
879.0
877.0
877.0
877.0
874.0
872.0
870.0
869.0
874.0
878.0
875.0
873.0
867.0
865.0
866.0
867.0
870.0
868.0
867.0
867.0
869.0
871.0
872.0
868.0
861.0
862.0
863.0
866.0
867.0
866.0
865.0
870.0
872.0
874.0
877.0
874.0
870.0
871.0
872.0
875.0
876.0
880.0
879.0
880.0
886.0
888.0
891.0
885.0
887.0
888.0
891.0
892.0
896.0
895.0
895.0
898.0
901.0
905.0
908.0
908.0
908.0
913.0
914.0
919.0
922.0
921.0
921.0
925.0
929.0
931.0
933.0
933.0
934.0
938.0
941.0
950.0
952.0
948.0
949.0
952.0
955.0
959.0
963.0
963.0
963.0
965.0
970.0
972.0
973.0
973.0
970.0
969.0
970.0
971.0
971.0
972.0
970.0
971.0
973.0
980.0
978.0
975.0
971.0
973.0
973.0
974.0
978.0
978.0
976.0
977.0
981.0
981.0
978.0
976.0
976.0
975.0
976.0
977.0
978.0
976.0
976.0
977.0
980.0
983.0
981.0
977.0
972.0
975.0
978.0
979.0
982.0
980.0
981.0
983.0
984.0
984.0
978.0
979.0
975.0
978.0
980.0
984.0
983.0
983.0
983.0
985.0
984.0
981.0
983.0
981.0
980.0
980.0
985.0
986.0
987.0
987.0
980.0
981.0
981.0
982.0
983.0
985.0
985.0
982.0
987.0
988.0
984.0
981.0
976.0
978.0
981.0
981.0
985.0
986.0
986.0
986.0
986.0
986.0
985.0
982.0
982.0
977.0
979.0
981.0
984.0
984.0
979.0
976.0
977.0
982.0
985.0
987.0
989.0
989.0
987.0
990.0
988.0
986.0
982.0
980.0
985.0
988.0
988.0
989.0
984.0
984.0
984.0
984.0
983.0
981.0
981.0
985.0
984.0
989.0
988.0
986.0
983.0
982.0
984.0
984.0
982.0
982.0
982.0
983.0
985.0
983.0
984.0
981.0
983.0
979.0
981.0
984.0
988.0
984.0
984.0
982.0
984.0
982.0
980.0
979.0
979.0
981.0
984.0
987.0
985.0
981.0
976.0
978.0
979.0
986.0
990.0
990.0
995.0
993.0
999.0
1005.0
1005.0
1003.0
1000.0
1000.0
1005.0
1012.0
1012.0
1013.0
1003.0
1002.0
998.0
996.0
993.0
987.0
984.0
985.0
986.0
988.0
987.0
986.0
981.0
978.0
974.0
972.0
970.0
968.0
967.0
971.0
976.0
981.0
977.0
970.0
966.0
965.0
964.0
967.0
967.0
967.0
963.0
961.0
959.0
959.0
958.0
956.0
954.0
960.0
961.0
964.0
966.0
961.0
958.0
960.0
958.0
958.0
957.0
959.0
965.0
971.0
979.0
980.0
977.0
975.0
971.0
974.0
979.0
980.0
981.0
980.0
979.0
978.0
980.0
981.0
979.0
979.0
976.0
980.0
982.0
984.0
984.0
983.0
984.0
984.0
982.0
979.0
982.0
979.0
972.0
965.0
957.0
954.0
954.0
955.0
956.0
962.0
971.0
979.0
991.0
997.0
999.0
1006.0
1016.0
1039.0
1072.0
1101.0
1123.0
1133.0
1127.0
1121.0
1105.0
1088.0
1061.0
1041.0
1027.0
1019.0
1004.0
999.0
997.0
1000.0
1005.0
1006.0
1001.0
997.0
992.0
993.0
997.0
1002.0
1005.0
1003.0
1002.0
1001.0
1000.0
1001.0
1000.0
999.0
1004.0
1006.0
1012.0
1013.0
1016.0
1010.0
1009.0
1011.0
1013.0
1014.0
1016.0
1014.0
1012.0
1016.0
1023.0
1025.0
1023.0
1021.0
1019.0
1020.0
1021.0
1025.0
1024.0
1027.0
1027.0
1030.0
1033.0
1034.0
1031.0
1029.0
1029.0
1028.0
1031.0
1033.0
1035.0
1040.0
1041.0
1041.0
1042.0
1042.0
1039.0
1037.0
1039.0
1043.0
1049.0
1053.0
1054.0
1049.0
1049.0
1050.0
1051.0
1057.0
1057.0
1055.0
1054.0
1055.0
1064.0
1066.0
1066.0
1067.0
1064.0
1062.0
1061.0
1061.0
1063.0
1063.0
1064.0
1063.0
1064.0
1066.0
1065.0
1065.0
1064.0
1067.0
1067.0
1066.0
1061.0
1060.0
1055.0
1055.0
1057.0
1056.0
1050.0
1046.0
1045.0
1044.0
1043.0
1044.0
1046.0
1041.0
1037.0
1035.0
1034.0
1031.0
1027.0
1025.0
1025.0
1027.0
1026.0
1023.0
1020.0
1015.0
1008.0
1007.0
1010.0
1011.0
1009.0
1007.0
1007.0
1008.0
1009.0
1010.0
1008.0
1006.0
998.0
998.0
1002.0
1001.0
1000.0
1000.0
995.0
992.0
993.0
995.0
993.0
995.0
997.0
995.0
1000.0
1001.0
999.0
992.0
990.0
989.0
988.0
991.0
989.0
986.0
986.0
988.0
991.0
992.0
990.0
985.0
982.0
981.0
985.0
984.0
980.0
979.0
976.0
978.0
982.0
978.0
978.0
978.0
974.0
973.0
970.0
971.0
972.0
972.0
974.0
976.0
980.0
982.0
980.0
976.0
970.0
972.0
973.0
977.0
979.0
978.0
976.0
979.0
979.0
981.0
984.0
987.0
988.0
991.0
993.0
993.0
994.0
995.0
997.0
999.0
1001.0
1004.0
1001.0
996.0
994.0
996.0
1000.0
1001.0
1000.0
996.0
993.0
992.0
992.0
994.0
991.0
985.0
979.0
976.0
974.0
976.0
976.0
971.0
966.0
966.0
966.0
967.0
969.0
972.0
972.0
971.0
971.0
968.0
969.0
966.0
963.0
963.0
964.0
965.0
962.0
959.0
954.0
953.0
955.0
957.0
955.0
953.0
950.0
953.0
958.0
960.0
957.0
957.0
951.0
953.0
957.0
963.0
965.0
965.0
965.0
969.0
970.0
976.0
977.0
975.0
970.0
971.0
974.0
974.0
974.0
972.0
972.0
975.0
980.0
980.0
976.0
971.0
971.0
971.0
974.0
977.0
978.0
974.0
969.0
969.0
964.0
964.0
956.0
944.0
931.0
930.0
927.0
931.0
935.0
934.0
938.0
942.0
953.0
964.0
971.0
975.0
976.0
983.0
997.0
1027.0
1067.0
1099.0
1114.0
1111.0
1101.0
1093.0
1083.0
1059.0
1034.0
1022.0
1012.0
1006.0
996.0
992.0
988.0
987.0
988.0
989.0
990.0
988.0
984.0
984.0
986.0
990.0
992.0
987.0
985.0
989.0
989.0
993.0
990.0
990.0
986.0
984.0
985.0
990.0
991.0
991.0
989.0
987.0
988.0
992.0
991.0
990.0
990.0
994.0
1002.0
1000.0
1002.0
999.0
995.0
994.0
998.0
1002.0
1005.0
1003.0
1003.0
1005.0
1011.0
1017.0
1018.0
1015.0
1007.0
1008.0
1008.0
1013.0
1019.0
1024.0
1022.0
1026.0
1025.0
1023.0
1021.0
1020.0
1020.0
1021.0
1026.0
1030.0
1034.0
1027.0
1025.0
1024.0
1025.0
1027.0
1031.0
1036.0
1034.0
1037.0
1038.0
1038.0
1038.0
1037.0
1031.0
1030.0
1031.0
1035.0
1029.0
1030.0
1029.0
1026.0
1023.0
1027.0
1026.0
1024.0
1022.0
1020.0
1019.0
1020.0
1015.0
1009.0
1004.0
998.0
997.0
1000.0
1003.0
1002.0
1002.0
1002.0
999.0
997.0
994.0
990.0
987.0
985.0
984.0
989.0
988.0
986.0
983.0
980.0
980.0
979.0
979.0
974.0
974.0
976.0
980.0
976.0
975.0
972.0
968.0
968.0
971.0
974.0
975.0
973.0
971.0
974.0
975.0
976.0
976.0
972.0
967.0
961.0
966.0
970.0
972.0
970.0
967.0
965.0
964.0
965.0
968.0
967.0
967.0
967.0
968.0
971.0
966.0
963.0
963.0
968.0
967.0
967.0
968.0
967.0
968.0
967.0
966.0
967.0
968.0
969.0
969.0
971.0
969.0
970.0
969.0
965.0
967.0
969.0
971.0
973.0
978.0
977.0
976.0
981.0
986.0
986.0
986.0
985.0
985.0
986.0
995.0
1004.0
1008.0
1004.0
1000.0
997.0
999.0
1000.0
999.0
1001.0
999.0
996.0
991.0
990.0
989.0
984.0
978.0
972.0
974.0
977.0
976.0
976.0
974.0
971.0
969.0
971.0
971.0
967.0
965.0
964.0
967.0
970.0
968.0
968.0
965.0
962.0
962.0
962.0
956.0
958.0
956.0
958.0
966.0
968.0
962.0
958.0
955.0
956.0
959.0
962.0
959.0
954.0
957.0
957.0
963.0
970.0
969.0
969.0
969.0
971.0
977.0
981.0
984.0
985.0
981.0
980.0
981.0
984.0
986.0
987.0
986.0
985.0
983.0
983.0
982.0
981.0
980.0
977.0
985.0
991.0
990.0
989.0
986.0
978.0
976.0
972.0
965.0
955.0
949.0
942.0
947.0
954.0
958.0
962.0
965.0
971.0
981.0
988.0
990.0
994.0
1004.0
1024.0
1058.0
1097.0
1119.0
1118.0
1104.0
1091.0
1073.0
1053.0
1033.0
1018.0
1006.0
997.0
995.0
996.0
993.0
988.0
981.0
986.0
992.0
997.0
995.0
989.0
987.0
988.0
992.0
994.0
993.0
989.0
992.0
992.0
993.0
997.0
993.0
994.0
994.0
994.0
994.0
996.0
998.0
996.0
997.0
996.0
998.0
999.0
997.0
994.0
999.0
1001.0
1004.0
1005.0
1002.0
1000.0
1000.0
999.0
999.0
1001.0
1005.0
1008.0
1007.0
1010.0
1013.0
1017.0
1015.0
1016.0
1013.0
1009.0
1010.0
1015.0
1018.0
1024.0
1028.0
1024.0
1024.0
1028.0
1024.0
1026.0
1026.0
1024.0
1027.0
1031.0
1031.0
1030.0
1029.0
1026.0
1025.0
1027.0
1028.0
1031.0
1030.0
1026.0
1027.0
1032.0
1029.0
1026.0
1022.0
1020.0
1021.0
1026.0
1026.0
1029.0
1026.0
1026.0
1028.0
1030.0
1027.0
1023.0
1023.0
1021.0
1023.0
1022.0
1021.0
1017.0
1012.0
1005.0
1001.0
1001.0
999.0
999.0
995.0
994.0
998.0
996.0
994.0
990.0
985.0
983.0
984.0
987.0
981.0
980.0
978.0
974.0
978.0
979.0
979.0
978.0
977.0
971.0
970.0
974.0
976.0
974.0
971.0
966.0
966.0
969.0
968.0
968.0
968.0
968.0
970.0
973.0
974.0
970.0
968.0
963.0
963.0
964.0
961.0
960.0
961.0
961.0
964.0
966.0
961.0
957.0
956.0
957.0
961.0
964.0
962.0
963.0
962.0
957.0
955.0
956.0
953.0
951.0
950.0
949.0
954.0
960.0
961.0
960.0
958.0
957.0
958.0
960.0
960.0
960.0
955.0
955.0
955.0
958.0
956.0
953.0
951.0
949.0
952.0
958.0
958.0
959.0
961.0
961.0
968.0
973.0
972.0
970.0
973.0
976.0
982.0
986.0
988.0
982.0
976.0
978.0
980.0
984.0
984.0
981.0
973.0
967.0
966.0
967.0
966.0
963.0
958.0
956.0
955.0
952.0
955.0
951.0
952.0
950.0
950.0
950.0
951.0
949.0
949.0
945.0
945.0
948.0
946.0
941.0
940.0
936.0
933.0
935.0
931.0
931.0
930.0
932.0
941.0
942.0
940.0
937.0
931.0
931.0
933.0
933.0
933.0
933.0
934.0
935.0
943.0
950.0
951.0
955.0
950.0
947.0
950.0
955.0
955.0
954.0
954.0
951.0
952.0
954.0
956.0
957.0
960.0
958.0
960.0
961.0
960.0
965.0
965.0
964.0
963.0
966.0
964.0
965.0
966.0
965.0
961.0
953.0
935.0
924.0
920.0
918.0
928.0
937.0
943.0
949.0
956.0
957.0
965.0
968.0
971.0
974.0
991.0
1016.0
1055.0
1087.0
1105.0
1105.0
1094.0
1078.0
1061.0
1043.0
1023.0
1013.0
1001.0
991.0
984.0
985.0
987.0
988.0
982.0
981.0
980.0
984.0
983.0
982.0
981.0
983.0
981.0
982.0
984.0
982.0
982.0
987.0
990.0
996.0
993.0
991.0
987.0
985.0
983.0
987.0
991.0
996.0
994.0
994.0
998.0
1005.0
1006.0
1005.0
1003.0
998.0
1004.0
1008.0
1009.0
1006.0
1004.0
1005.0
1011.0
1010.0
1006.0
1000.0
999.0
1001.0
1008.0
1012.0
1013.0
1012.0
1008.0
1009.0
1010.0
1016.0
1017.0
1018.0
1018.0
1018.0
1022.0
1024.0
1022.0
1019.0
1021.0
1020.0
1024.0
1027.0
1029.0
1027.0
1025.0
1023.0
1025.0
1027.0
1029.0
1027.0
1024.0
1021.0
1025.0
1026.0
1024.0
1025.0
1026.0
1028.0
1030.0
1029.0
1025.0
1024.0
1021.0
1024.0
1026.0
1029.0
1028.0
1025.0
1023.0
1020.0
1020.0
1018.0
1014.0
1011.0
1008.0
1009.0
1010.0
1009.0
1008.0
1004.0
996.0
993.0
996.0
996.0
994.0
991.0
989.0
987.0
986.0
988.0
977.0
975.0
973.0
968.0
972.0
975.0
975.0
974.0
973.0
973.0
974.0
976.0
977.0
973.0
970.0
968.0
967.0
967.0
965.0
967.0
967.0
967.0
966.0
969.0
968.0
967.0
969.0
967.0
969.0
968.0
969.0
963.0
960.0
958.0
957.0
961.0
960.0
958.0
956.0
956.0
956.0
957.0
955.0
952.0
948.0
950.0
957.0
963.0
963.0
960.0
958.0
957.0
958.0
956.0
957.0
955.0
957.0
958.0
963.0
965.0
962.0
960.0
955.0
951.0
952.0
953.0
960.0
968.0
967.0
966.0
965.0
966.0
966.0
964.0
962.0
964.0
970.0
978.0
983.0
984.0
978.0
978.0
981.0
987.0
991.0
990.0
989.0
986.0
988.0
988.0
991.0
985.0
977.0
971.0
970.0
974.0
974.0
974.0
972.0
970.0
966.0
965.0
964.0
961.0
962.0
960.0
965.0
970.0
971.0
967.0
962.0
957.0
959.0
961.0
959.0
958.0
959.0
958.0
956.0
954.0
950.0
948.0
947.0
946.0
949.0
952.0
949.0
942.0
939.0
937.0
937.0
943.0
945.0
949.0
956.0
957.0
964.0
960.0
956.0
957.0
956.0
958.0
966.0
970.0
968.0
965.0
962.0
959.0
961.0
963.0
965.0
967.0
964.0
966.0
967.0
967.0
964.0
961.0
952.0
947.0
946.0
950.0
944.0
937.0
926.0
922.0
925.0
929.0
935.0
944.0
952.0
959.0
967.0
970.0
975.0
981.0
999.0
1030.0
1067.0
1092.0
1091.0
1080.0
1061.0
1034.0
1010.0
996.0
988.0
985.0
978.0
977.0
980.0
977.0
974.0
972.0
966.0
970.0
977.0
978.0
978.0
977.0
978.0
974.0
975.0
976.0
976.0
976.0
977.0
978.0
980.0
980.0
975.0
973.0
975.0
979.0
983.0
988.0
986.0
985.0
984.0
983.0
984.0
991.0
993.0
995.0
994.0
989.0
991.0
998.0
997.0
1002.0
1003.0
1007.0
1005.0
1006.0
1008.0
1008.0
1005.0
1005.0
1011.0
1015.0
1018.0
1017.0
1017.0
1018.0
1019.0
1021.0
1022.0
1024.0
1025.0
1027.0
1031.0
1031.0
1031.0
1030.0
1031.0
1031.0
1031.0
1031.0
1036.0
1037.0
1034.0
1029.0
1026.0
1028.0
1029.0
1030.0
1031.0
1032.0
1031.0
1031.0
1023.0
1020.0
1016.0
1015.0
1017.0
1018.0
1016.0
1010.0
1006.0
1002.0
1000.0
1001.0
998.0
996.0
997.0
995.0
997.0
996.0
990.0
987.0
983.0
985.0
988.0
989.0
989.0
991.0
982.0
975.0
972.0
974.0
974.0
975.0
977.0
979.0
980.0
977.0
971.0
965.0
966.0
966.0
969.0
972.0
971.0
970.0
967.0
965.0
967.0
971.0
972.0
971.0
969.0
969.0
972.0
971.0
969.0
967.0
967.0
970.0
972.0
972.0
971.0
968.0
966.0
961.0
967.0
969.0
970.0
969.0
970.0
969.0
972.0
975.0
974.0
974.0
973.0
979.0
983.0
989.0
991.0
991.0
986.0
985.0
986.0
986.0
987.0
984.0
984.0
982.0
980.0
982.0
987.0
993.0
997.0
1010.0
1033.0
1054.0
1073.0
1086.0
1096.0
1105.0
1120.0
1143.0
1178.0
1209.0
1233.0
1256.0
1275.0
1298.0
1316.0
1329.0
1347.0
1372.0
1392.0
1412.0
1418.0
1421.0
1421.0
1415.0
1406.0
1384.0
1351.0
1304.0
1251.0
1191.0
1136.0
1089.0
1040.0
1002.0
972.0
946.0
932.0
910.0
897.0
883.0
881.0
879.0
881.0
877.0
873.0
873.0
873.0
874.0
878.0
885.0
889.0
888.0
887.0
884.0
886.0
889.0
888.0
887.0
884.0
884.0
884.0
886.0
887.0
883.0
881.0
879.0
878.0
878.0
879.0
876.0
876.0
875.0
874.0
871.0
868.0
868.0
866.0
862.0
863.0
861.0
860.0
859.0
855.0
853.0
856.0
857.0
858.0
859.0
854.0
855.0
857.0
857.0
856.0
858.0
855.0
854.0
854.0
855.0
859.0
860.0
856.0
855.0
857.0
865.0
866.0
865.0
865.0
865.0
870.0
872.0
874.0
871.0
872.0
872.0
877.0
881.0
886.0
889.0
887.0
888.0
892.0
894.0
897.0
901.0
897.0
900.0
909.0
913.0
918.0
917.0
919.0
919.0
920.0
923.0
927.0
927.0
927.0
928.0
932.0
937.0
938.0
942.0
938.0
938.0
937.0
941.0
941.0
945.0
944.0
947.0
947.0
947.0
946.0
946.0
945.0
944.0
946.0
951.0
953.0
953.0
950.0
946.0
949.0
949.0
949.0
948.0
947.0
948.0
953.0
949.0
950.0
953.0
951.0
952.0
955.0
958.0
959.0
957.0
959.0
958.0
959.0
959.0
959.0
957.0
958.0
956.0
959.0
962.0
964.0
965.0
964.0
962.0
964.0
966.0
964.0
963.0
960.0
965.0
969.0
968.0
968.0
965.0
963.0
960.0
963.0
963.0
966.0
964.0
962.0
963.0
960.0
965.0
965.0
964.0
962.0
965.0
965.0
967.0
968.0
963.0
962.0
964.0
967.0
968.0
966.0
961.0
958.0
956.0
961.0
967.0
966.0
964.0
962.0
966.0
970.0
970.0
972.0
970.0
967.0
963.0
965.0
966.0
964.0
961.0
959.0
957.0
961.0
967.0
970.0
970.0
967.0
966.0
964.0
966.0
962.0
965.0
961.0
963.0
963.0
962.0
962.0
961.0
963.0
965.0
965.0
963.0
962.0
964.0
960.0
960.0
965.0
969.0
967.0
964.0
961.0
962.0
961.0
960.0
961.0
965.0
966.0
968.0
973.0
976.0
978.0
979.0
982.0
983.0
984.0
986.0
987.0
987.0
989.0
981.0
979.0
978.0
976.0
975.0
973.0
967.0
965.0
962.0
958.0
955.0
953.0
951.0
951.0
954.0
954.0
952.0
948.0
946.0
942.0
945.0
946.0
949.0
948.0
944.0
944.0
942.0
939.0
936.0
937.0
941.0
945.0
947.0
947.0
940.0
936.0
933.0
935.0
937.0
939.0
943.0
945.0
949.0
953.0
953.0
955.0
956.0
955.0
954.0
956.0
958.0
956.0
951.0
948.0
950.0
955.0
953.0
959.0
963.0
963.0
962.0
961.0
962.0
959.0
960.0
962.0
963.0
959.0
955.0
945.0
935.0
925.0
923.0
929.0
936.0
944.0
949.0
949.0
955.0
958.0
965.0
976.0
991.0
1017.0
1051.0
1082.0
1099.0
1095.0
1081.0
1066.0
1050.0
1033.0
1016.0
1006.0
992.0
982.0
974.0
973.0
971.0
973.0
970.0
971.0
971.0
974.0
977.0
977.0
977.0
977.0
972.0
976.0
977.0
980.0
981.0
984.0
982.0
980.0
981.0
983.0
981.0
982.0
981.0
985.0
989.0
989.0
989.0
988.0
989.0
994.0
996.0
994.0
992.0
992.0
993.0
997.0
1001.0
1003.0
1002.0
999.0
993.0
994.0
1001.0
1006.0
1006.0
1003.0
1000.0
1004.0
1008.0
1003.0
1009.0
1010.0
1014.0
1018.0
1022.0
1021.0
1017.0
1012.0
1017.0
1018.0
1023.0
1027.0
1027.0
1028.0
1028.0
1030.0
1028.0
1028.0
1028.0
1028.0
1028.0
1030.0
1033.0
1031.0
1031.0
1031.0
1032.0
1030.0
1031.0
1033.0
1034.0
1036.0
1039.0
1038.0
1039.0
1035.0
1032.0
1028.0
1028.0
1028.0
1030.0
1031.0
1031.0
1026.0
1022.0
1022.0
1020.0
1020.0
1015.0
1012.0
1012.0
1013.0
1012.0
1010.0
1002.0
997.0
992.0
993.0
996.0
997.0
996.0
993.0
992.0
987.0
991.0
989.0
988.0
985.0
986.0
986.0
991.0
990.0
988.0
984.0
978.0
977.0
978.0
978.0
976.0
975.0
976.0
978.0
980.0
983.0
978.0
972.0
970.0
972.0
973.0
972.0
967.0
963.0
964.0
964.0
965.0
967.0
965.0
961.0
962.0
961.0
964.0
964.0
961.0
955.0
959.0
963.0
965.0
967.0
963.0
960.0
958.0
959.0
961.0
961.0
960.0
961.0
960.0
960.0
961.0
962.0
961.0
957.0
959.0
962.0
967.0
972.0
972.0
973.0
975.0
977.0
977.0
980.0
980.0
981.0
980.0
983.0
988.0
988.0
986.0
985.0
977.0
978.0
978.0
980.0
975.0
967.0
963.0
963.0
967.0
963.0
964.0
962.0
962.0
960.0
967.0
965.0
963.0
961.0
962.0
964.0
966.0
963.0
958.0
957.0
955.0
958.0
961.0
962.0
962.0
959.0
957.0
957.0
958.0
960.0
960.0
959.0
963.0
965.0
968.0
969.0
968.0
967.0
968.0
970.0
972.0
975.0
980.0
977.0
973.0
973.0
973.0
977.0
977.0
975.0
974.0
978.0
985.0
986.0
985.0
979.0
973.0
974.0
980.0
980.0
976.0
961.0
947.0
938.0
934.0
947.0
953.0
963.0
972.0
980.0
984.0
988.0
995.0
1013.0
1043.0
1080.0
1100.0
1099.0
1081.0
1068.0
1043.0
1025.0
1012.0
1001.0
991.0
985.0
984.0
983.0
983.0
982.0
982.0
979.0
979.0
983.0
984.0
981.0
978.0
977.0
977.0
981.0
981.0
982.0
983.0
981.0
980.0
982.0
985.0
982.0
985.0
982.0
983.0
988.0
989.0
994.0
992.0
988.0
985.0
990.0
988.0
990.0
990.0
988.0
989.0
991.0
995.0
998.0
998.0
997.0
994.0
998.0
1000.0
1000.0
1001.0
1003.0
1000.0
1004.0
1007.0
1011.0
1012.0
1014.0
1012.0
1010.0
1015.0
1017.0
1016.0
1014.0
1011.0
1015.0
1014.0
1019.0
1017.0
1016.0
1015.0
1017.0
1017.0
1019.0
1019.0
1019.0
1016.0
1016.0
1016.0
1016.0
1013.0
1012.0
1010.0
1013.0
1015.0
1015.0
1015.0
1011.0
1008.0
1005.0
1002.0
998.0
1000.0
994.0
992.0
995.0
994.0
992.0
989.0
982.0
980.0
983.0
986.0
985.0
981.0
973.0
970.0
971.0
976.0
972.0
969.0
968.0
969.0
972.0
973.0
976.0
973.0
971.0
967.0
967.0
971.0
972.0
969.0
966.0
968.0
966.0
970.0
970.0
966.0
964.0
963.0
965.0
967.0
969.0
961.0
960.0
960.0
963.0
967.0
968.0
966.0
960.0
959.0
961.0
960.0
961.0
962.0
963.0
961.0
963.0
966.0
967.0
966.0
961.0
961.0
963.0
964.0
966.0
965.0
966.0
965.0
967.0
967.0
966.0
966.0
964.0
964.0
967.0
966.0
968.0
969.0
966.0
964.0
965.0
969.0
973.0
978.0
977.0
979.0
983.0
985.0
989.0
990.0
990.0
988.0
987.0
989.0
992.0
992.0
989.0
984.0
981.0
977.0
979.0
978.0
977.0
975.0
976.0
973.0
967.0
963.0
961.0
957.0
958.0
960.0
962.0
967.0
966.0
965.0
964.0
964.0
963.0
961.0
957.0
953.0
956.0
960.0
961.0
960.0
956.0
948.0
949.0
950.0
953.0
953.0
954.0
956.0
957.0
956.0
957.0
957.0
950.0
954.0
956.0
961.0
965.0
965.0
964.0
963.0
964.0
966.0
967.0
963.0
963.0
964.0
970.0
975.0
974.0
976.0
973.0
972.0
974.0
972.0
974.0
973.0
976.0
977.0
982.0
981.0
977.0
975.0
970.0
969.0
969.0
970.0
970.0
961.0
950.0
943.0
944.0
948.0
956.0
964.0
973.0
979.0
989.0
989.0
991.0
993.0
997.0
1015.0
1050.0
1089.0
1116.0
1117.0
1100.0
1083.0
1059.0
1034.0
1013.0
999.0
988.0
987.0
986.0
987.0
985.0
983.0
978.0
978.0
984.0
991.0
993.0
992.0
987.0
983.0
985.0
987.0
991.0
988.0
986.0
983.0
989.0
989.0
993.0
993.0
990.0
987.0
988.0
987.0
991.0
989.0
992.0
993.0
995.0
996.0
997.0
993.0
991.0
995.0
993.0
996.0
1001.0
1003.0
999.0
998.0
998.0
999.0
1003.0
1006.0
1005.0
1010.0
1012.0
1014.0
1010.0
1007.0
1008.0
1005.0
1011.0
1016.0
1017.0
1014.0
1011.0
1009.0
1016.0
1021.0
1028.0
1024.0
1025.0
1024.0
1025.0
1026.0
1026.0
1026.0
1026.0
1021.0
1022.0
1028.0
1031.0
1031.0
1026.0
1021.0
1022.0
1024.0
1026.0
1025.0
1027.0
1024.0
1020.0
1018.0
1017.0
1012.0
1010.0
1005.0
1006.0
1008.0
1007.0
1003.0
1000.0
994.0
995.0
989.0
992.0
988.0
988.0
985.0
982.0
984.0
986.0
983.0
982.0
978.0
984.0
981.0
989.0
986.0
978.0
974.0
970.0
974.0
974.0
973.0
979.0
985.0
986.0
986.0
983.0
980.0
978.0
973.0
974.0
975.0
976.0
975.0
976.0
974.0
975.0
975.0
972.0
972.0
974.0
973.0
974.0
975.0
972.0
967.0
964.0
965.0
972.0
975.0
974.0
973.0
969.0
969.0
971.0
972.0
974.0
975.0
979.0
980.0
981.0
985.0
987.0
981.0
979.0
973.0
975.0
979.0
982.0
986.0
986.0
985.0
982.0
987.0
985.0
981.0
980.0
983.0
992.0
1000.0
1007.0
1006.0
1009.0
1004.0
1005.0
1008.0
1010.0
1012.0
1013.0
1010.0
1011.0
1007.0
1006.0
1002.0
996.0
990.0
992.0
996.0
997.0
993.0
989.0
985.0
981.0
981.0
981.0
982.0
982.0
983.0
985.0
985.0
984.0
977.0
970.0
968.0
971.0
976.0
977.0
977.0
977.0
972.0
972.0
973.0
974.0
972.0
970.0
966.0
968.0
975.0
976.0
975.0
969.0
968.0
970.0
975.0
980.0
979.0
983.0
986.0
988.0
992.0
997.0
996.0
993.0
993.0
995.0
997.0
995.0
995.0
996.0
997.0
996.0
995.0
996.0
993.0
993.0
995.0
997.0
998.0
994.0
994.0
994.0
993.0
994.0
996.0
993.0
983.0
973.0
962.0
962.0
966.0
972.0
979.0
985.0
993.0
1003.0
1013.0
1020.0
1020.0
1023.0
