# Simple Text Format
# Sampling Rate (Hz):= 360.00
# Resolution:= 12
# Labels:= ECG
978.0
972.0
968.0
962.0
955.0
947.0
943.0
939.0
941.0
941.0
939.0
936.0
933.0
929.0
927.0
926.0
927.0
928.0
929.0
934.0
933.0
931.0
928.0
926.0
926.0
924.0
925.0
923.0
922.0
919.0
917.0
917.0
919.0
924.0
925.0
926.0
930.0
926.0
927.0
922.0
920.0
918.0
916.0
914.0
913.0
912.0
910.0
903.0
898.0
892.0
894.0
895.0
901.0
899.0
899.0
896.0
886.0
878.0
877.0
876.0
875.0
878.0
879.0
880.0
882.0
881.0
882.0
884.0
888.0
891.0
896.0
897.0
900.0
904.0
913.0
920.0
926.0
932.0
939.0
945.0
948.0
950.0
950.0
948.0
948.0
951.0
952.0
954.0
959.0
962.0
962.0
963.0
963.0
962.0
962.0
963.0
966.0
966.0
969.0
970.0
962.0
948.0
939.0
934.0
934.0
935.0
935.0
938.0
942.0
949.0
958.0
964.0
963.0
962.0
961.0
958.0
957.0
955.0
954.0
952.0
950.0
950.0
953.0
963.0
969.0
972.0
972.0
972.0
970.0
970.0
975.0
981.0
985.0
988.0
993.0
996.0
999.0
1005.0
1010.0
1012.0
1007.0
1001.0
997.0
994.0
992.0
996.0
998.0
1001.0
1001.0
998.0
994.0
987.0
983.0
978.0
975.0
969.0
963.0
955.0
950.0
944.0
942.0
943.0
947.0
954.0
958.0
957.0
955.0
948.0
940.0
938.0
938.0
941.0
948.0
952.0
954.0
956.0
961.0
972.0
992.0
1026.0
1066.0
1107.0
1148.0
1188.0
1224.0
1259.0
1296.0
1325.0
1342.0
1346.0
1337.0
1311.0
1275.0
1221.0
1155.0
1091.0
1041.0
1004.0
983.0
973.0
968.0
964.0
960.0
954.0
946.0
938.0
929.0
923.0
918.0
917.0
918.0
919.0
923.0
925.0
922.0
919.0
911.0
907.0
906.0
910.0
912.0
915.0
918.0
921.0
919.0
918.0
914.0
910.0
908.0
905.0
905.0
906.0
909.0
911.0
914.0
916.0
915.0
915.0
914.0
912.0
904.0
897.0
892.0
890.0
895.0
900.0
904.0
906.0
904.0
902.0
894.0
886.0
880.0
874.0
873.0
871.0
871.0
867.0
869.0
868.0
868.0
862.0
857.0
853.0
855.0
855.0
857.0
859.0
859.0
863.0
866.0
868.0
867.0
865.0
865.0
869.0
875.0
882.0
890.0
896.0
899.0
901.0
906.0
914.0
920.0
927.0
928.0
931.0
933.0
930.0
928.0
926.0
927.0
933.0
942.0
947.0
950.0
947.0
947.0
941.0
935.0
929.0
928.0
930.0
933.0
937.0
939.0
942.0
943.0
941.0
941.0
939.0
940.0
936.0
937.0
935.0
938.0
938.0
938.0
936.0
935.0
935.0
933.0
929.0
932.0
934.0
934.0
938.0
942.0
948.0
956.0
961.0
963.0
965.0
966.0
968.0
971.0
975.0
978.0
985.0
989.0
997.0
1000.0
1003.0
1000.0
997.0
990.0
985.0
987.0
991.0
996.0
1000.0
997.0
994.0
985.0
975.0
967.0
963.0
965.0
963.0
965.0
966.0
960.0
951.0
940.0
930.0
926.0
924.0
928.0
934.0
939.0
940.0
939.0
939.0
937.0
935.0
934.0
936.0
937.0
945.0
957.0
981.0
1014.0
1057.0
1105.0
1152.0
1198.0
1237.0
1278.0
1313.0
1338.0
1349.0
1346.0
1326.0
1285.0
1222.0
1145.0
1069.0
1007.0
968.0
947.0
940.0
942.0
947.0
945.0
942.0
929.0
923.0
911.0
904.0
906.0
906.0
909.0
908.0
909.0
909.0
910.0
911.0
911.0
911.0
908.0
908.0
912.0
913.0
911.0
907.0
910.0
911.0
910.0
909.0
906.0
907.0
903.0
901.0
902.0
901.0
901.0
903.0
904.0
902.0
901.0
901.0
898.0
899.0
896.0
893.0
891.0
887.0
885.0
881.0
882.0
879.0
877.0
875.0
872.0
872.0
866.0
866.0
864.0
862.0
859.0
860.0
858.0
858.0
856.0
858.0
858.0
860.0
862.0
861.0
866.0
870.0
875.0
881.0
885.0
894.0
898.0
902.0
905.0
909.0
911.0
913.0
918.0
923.0
927.0
932.0
935.0
938.0
937.0
939.0
940.0
942.0
944.0
946.0
946.0
946.0
944.0
944.0
946.0
948.0
947.0
948.0
948.0
948.0
947.0
945.0
942.0
942.0
947.0
948.0
951.0
952.0
951.0
949.0
944.0
943.0
941.0
938.0
941.0
938.0
941.0
945.0
946.0
947.0
947.0
949.0
949.0
951.0
956.0
958.0
963.0
968.0
967.0
974.0
975.0
979.0
980.0
984.0
987.0
988.0
994.0
997.0
1001.0
1001.0
1002.0
999.0
999.0
996.0
996.0
998.0
998.0
999.0
997.0
991.0
986.0
978.0
971.0
963.0
958.0
956.0
954.0
951.0
950.0
945.0
940.0
936.0
930.0
929.0
930.0
930.0
932.0
935.0
936.0
936.0
935.0
933.0
935.0
931.0
931.0
940.0
954.0
978.0
1013.0
1055.0
1102.0
1145.0
1183.0
1219.0
1254.0
1287.0
1316.0
1336.0
1341.0
1335.0
1315.0
1274.0
1218.0
1148.0
1075.0
1016.0
973.0
949.0
938.0
934.0
934.0
933.0
926.0
917.0
909.0
900.0
893.0
890.0
887.0
889.0
889.0
889.0
887.0
886.0
887.0
888.0
885.0
882.0
881.0
882.0
881.0
880.0
880.0
881.0
881.0
884.0
884.0
888.0
889.0
892.0
897.0
896.0
890.0
879.0
863.0
855.0
859.0
873.0
885.0
890.0
884.0
877.0
872.0
864.0
859.0
858.0
857.0
852.0
851.0
850.0
849.0
844.0
840.0
837.0
834.0
832.0
828.0
826.0
827.0
827.0
828.0
829.0
832.0
829.0
826.0
825.0
825.0
824.0
827.0
826.0
826.0
831.0
839.0
848.0
857.0
858.0
862.0
870.0
871.0
875.0
876.0
875.0
875.0
880.0
882.0
886.0
886.0
890.0
888.0
885.0
881.0
878.0
878.0
878.0
879.0
881.0
881.0
881.0
882.0
882.0
880.0
886.0
888.0
892.0
895.0
899.0
907.0
915.0
930.0
942.0
958.0
971.0
987.0
1009.0
1033.0
1059.0
1080.0
1089.0
1085.0
1052.0
997.0
920.0
835.0
757.0
690.0
642.0
606.0
580.0
560.0
543.0
527.0
518.0
515.0
517.0
525.0
538.0
556.0
575.0
594.0
614.0
624.0
636.0
646.0
658.0
673.0
696.0
720.0
742.0
760.0
771.0
777.0
780.0
778.0
782.0
792.0
810.0
832.0
856.0
876.0
893.0
903.0
909.0
914.0
911.0
908.0
909.0
913.0
914.0
916.0
923.0
931.0
937.0
940.0
942.0
940.0
944.0
946.0
950.0
955.0
960.0
962.0
965.0
969.0
972.0
975.0
980.0
985.0
988.0
991.0
993.0
998.0
1001.0
1010.0
1017.0
1023.0
1028.0
1034.0
1039.0
1039.0
1042.0
1043.0
1045.0
1049.0
1048.0
1049.0
1051.0
1050.0
1048.0
1048.0
1046.0
1042.0
1037.0
1031.0
1023.0
1014.0
1008.0
999.0
990.0
986.0
980.0
972.0
966.0
958.0
947.0
937.0
928.0
925.0
919.0
916.0
911.0
906.0
901.0
894.0
888.0
883.0
879.0
875.0
868.0
864.0
857.0
859.0
856.0
854.0
855.0
855.0
853.0
851.0
851.0
848.0
846.0
847.0
846.0
848.0
849.0
850.0
852.0
851.0
851.0
851.0
847.0
850.0
849.0
851.0
852.0
851.0
852.0
851.0
853.0
850.0
850.0
849.0
847.0
847.0
848.0
845.0
845.0
843.0
842.0
842.0
844.0
842.0
842.0
841.0
841.0
839.0
840.0
841.0
839.0
838.0
838.0
838.0
838.0
837.0
838.0
840.0
836.0
837.0
836.0
840.0
839.0
838.0
842.0
846.0
844.0
841.0
835.0
830.0
829.0
833.0
834.0
836.0
840.0
841.0
841.0
841.0
840.0
839.0
838.0
840.0
838.0
842.0
841.0
846.0
847.0
852.0
859.0
863.0
868.0
867.0
868.0
869.0
869.0
872.0
878.0
885.0
886.0
893.0
893.0
890.0
887.0
883.0
878.0
878.0
879.0
879.0
881.0
878.0
875.0
873.0
870.0
867.0
862.0
857.0
854.0
847.0
843.0
839.0
836.0
835.0
831.0
831.0
830.0
833.0
836.0
839.0
839.0
837.0
836.0
834.0
832.0
835.0
835.0
843.0
854.0
870.0
899.0
934.0
978.0
1024.0
1066.0
1113.0
1157.0
1199.0
1233.0
1255.0
1256.0
1242.0
1209.0
1158.0
1088.0
1007.0
937.0
885.0
853.0
840.0
833.0
843.0
845.0
843.0
836.0
828.0
818.0
812.0
809.0
806.0
803.0
802.0
803.0
800.0
801.0
802.0
804.0
807.0
806.0
805.0
804.0
805.0
801.0
799.0
797.0
799.0
800.0
799.0
801.0
801.0
799.0
800.0
797.0
797.0
796.0
792.0
790.0
791.0
789.0
792.0
793.0
794.0
793.0
792.0
790.0
789.0
783.0
783.0
785.0
783.0
781.0
778.0
776.0
772.0
772.0
769.0
767.0
766.0
763.0
759.0
755.0
755.0
753.0
750.0
754.0
753.0
751.0
750.0
746.0
746.0
745.0
747.0
748.0
750.0
753.0
755.0
758.0
758.0
759.0
765.0
766.0
774.0
776.0
781.0
784.0
788.0
793.0
799.0
808.0
812.0
818.0
820.0
823.0
826.0
827.0
832.0
835.0
839.0
840.0
843.0
845.0
845.0
846.0
848.0
847.0
847.0
846.0
848.0
848.0
849.0
851.0
852.0
852.0
852.0
850.0
851.0
849.0
852.0
851.0
851.0
851.0
852.0
854.0
855.0
856.0
856.0
860.0
860.0
859.0
860.0
859.0
863.0
869.0
874.0
880.0
881.0
887.0
886.0
884.0
886.0
887.0
888.0
894.0
900.0
907.0
912.0
914.0
915.0
911.0
908.0
905.0
902.0
901.0
902.0
903.0
902.0
901.0
900.0
897.0
895.0
894.0
891.0
890.0
881.0
871.0
864.0
856.0
851.0
852.0
854.0
859.0
861.0
862.0
862.0
865.0
864.0
862.0
858.0
858.0
856.0
856.0
856.0
859.0
867.0
876.0
889.0
907.0
935.0
965.0
1003.0
1045.0
1088.0
1129.0
1176.0
1217.0
1253.0
1275.0
1283.0
1279.0
1265.0
1234.0
1190.0
1129.0
1062.0
992.0
936.0
896.0
876.0
867.0
866.0
871.0
871.0
869.0
863.0
859.0
855.0
851.0
846.0
845.0
842.0
842.0
840.0
838.0
834.0
830.0
830.0
830.0
833.0
839.0
842.0
846.0
843.0
843.0
838.0
836.0
834.0
831.0
830.0
829.0
830.0
828.0
829.0
833.0
838.0
845.0
845.0
843.0
835.0
828.0
823.0
818.0
820.0
822.0
826.0
825.0
829.0
828.0
829.0
829.0
828.0
823.0
820.0
817.0
816.0
811.0
808.0
807.0
808.0
809.0
806.0
807.0
804.0
800.0
801.0
803.0
807.0
812.0
812.0
816.0
818.0
818.0
820.0
823.0
823.0
828.0
831.0
834.0
838.0
845.0
850.0
855.0
862.0
865.0
870.0
873.0
874.0
873.0
872.0
874.0
873.0
874.0
878.0
883.0
885.0
887.0
886.0
883.0
883.0
887.0
888.0
889.0
889.0
889.0
885.0
884.0
884.0
885.0
888.0
889.0
889.0
885.0
887.0
886.0
886.0
886.0
884.0
886.0
886.0
889.0
893.0
893.0
894.0
894.0
895.0
900.0
904.0
909.0
916.0
918.0
920.0
920.0
918.0
918.0
921.0
924.0
930.0
939.0
949.0
955.0
954.0
957.0
954.0
949.0
945.0
944.0
949.0
953.0
957.0
956.0
951.0
943.0
932.0
928.0
924.0
920.0
917.0
913.0
912.0
910.0
906.0
902.0
898.0
898.0
897.0
900.0
901.0
905.0
907.0
906.0
907.0
906.0
904.0
900.0
903.0
907.0
912.0
927.0
952.0
986.0
1032.0
1081.0
1125.0
1164.0
1200.0
1236.0
1271.0
1301.0
1322.0
1331.0
1330.0
1316.0
1281.0
1226.0
1154.0
1077.0
1013.0
967.0
941.0
933.0
931.0
928.0
926.0
918.0
907.0
897.0
892.0
886.0
888.0
888.0
887.0
885.0
887.0
890.0
893.0
892.0
892.0
893.0
891.0
890.0
894.0
895.0
896.0
896.0
896.0
893.0
889.0
887.0
888.0
889.0
891.0
891.0
892.0
891.0
887.0
892.0
892.0
894.0
897.0
896.0
896.0
897.0
896.0
892.0
891.0
887.0
887.0
883.0
881.0
875.0
875.0
879.0
880.0
873.0
870.0
860.0
855.0
855.0
857.0
863.0
867.0
864.0
862.0
860.0
858.0
857.0
858.0
855.0
855.0
855.0
859.0
862.0
868.0
875.0
883.0
889.0
895.0
900.0
902.0
905.0
907.0
911.0
917.0
924.0
930.0
935.0
940.0
942.0
943.0
946.0
949.0
948.0
950.0
950.0
953.0
957.0
961.0
963.0
961.0
961.0
959.0
958.0
958.0
957.0
958.0
960.0
962.0
962.0
967.0
969.0
972.0
976.0
981.0
988.0
987.0
991.0
995.0
1000.0
1008.0
1014.0
1029.0
1049.0
1069.0
1092.0
1115.0
1140.0
1169.0
1200.0
1223.0
1231.0
1229.0
1198.0
1144.0
1071.0
982.0
896.0
821.0
765.0
723.0
693.0
664.0
645.0
629.0
620.0
613.0
610.0
614.0
624.0
641.0
658.0
679.0
701.0
717.0
733.0
742.0
754.0
765.0
779.0
797.0
819.0
838.0
851.0
865.0
874.0
882.0
888.0
898.0
909.0
925.0
952.0
982.0
1012.0
1038.0
1056.0
1070.0
1074.0
1075.0
1077.0
1076.0
1079.0
1082.0
1086.0
1090.0
1101.0
1101.0
1106.0
1112.0
1115.0
1121.0
1122.0
1128.0
1128.0
1132.0
1137.0
1142.0
1150.0
1155.0
1158.0
1162.0
1169.0
1176.0
1181.0
1187.0
1192.0
1198.0
1203.0
1207.0
1214.0
1221.0
1225.0
1226.0
1229.0
1234.0
1237.0
1238.0
1241.0
1242.0
1241.0
1242.0
1244.0
1240.0
1238.0
1234.0
1229.0
1221.0
1213.0
1206.0
1199.0
1193.0
1187.0
1180.0
1171.0
1161.0
1155.0
1146.0
1139.0
1130.0
1122.0
1113.0
1106.0
1099.0
1095.0
1090.0
1084.0
1078.0
1076.0
1071.0
1063.0
1062.0
1058.0
1056.0
1051.0
1051.0
1051.0
1049.0
1050.0
1048.0
1044.0
1042.0
1045.0
1046.0
1046.0
1046.0
1047.0
1043.0
1044.0
1045.0
1047.0
1049.0
1053.0
1054.0
1054.0
1053.0
1049.0
1044.0
1041.0
1043.0
1042.0
1045.0
1050.0
1051.0
1054.0
1049.0
1051.0
1049.0
1046.0
1046.0
1048.0
1048.0
1051.0
1051.0
1053.0
1051.0
1047.0
1046.0
1042.0
1041.0
1038.0
1040.0
1042.0
1042.0
1043.0
1041.0
1044.0
1042.0
1041.0
1043.0
1041.0
1041.0
1043.0
1044.0
1045.0
1047.0
1048.0
1049.0
1050.0
1049.0
1051.0
1050.0
1049.0
1052.0
1054.0
1060.0
1066.0
1071.0
1073.0
1073.0
1076.0
1078.0
1078.0
1080.0
1085.0
1089.0
1093.0
1100.0
1106.0
1110.0
1116.0
1115.0
1113.0
1110.0
1105.0
1100.0
1099.0
1097.0
1098.0
1097.0
1097.0
1092.0
1088.0
1083.0
1076.0
1071.0
1063.0
1059.0
1056.0
1051.0
1049.0
1046.0
1043.0
1043.0
1043.0
1044.0
1047.0
1044.0
1044.0
1045.0
1046.0
1044.0
1043.0
1043.0
1044.0
1045.0
1050.0
1057.0
1072.0
1095.0
1123.0
1163.0
1202.0
1243.0
1276.0
1312.0
1347.0
1380.0
1411.0
1435.0
1449.0
1445.0
1432.0
1400.0
1354.0
1292.0
1226.0
1164.0
1114.0
1084.0
1068.0
1065.0
1066.0
1064.0
1059.0
1049.0
1035.0
1024.0
1015.0
1011.0
1011.0
1014.0
1016.0
1015.0
1015.0
1018.0
1017.0
1014.0
1012.0
1011.0
1010.0
1007.0
1009.0
1008.0
1011.0
1012.0
1013.0
1012.0
1011.0
1010.0
1007.0
1006.0
1002.0
1003.0
1004.0
1003.0
1003.0
1004.0
1004.0
1002.0
1001.0
1000.0
999.0
996.0
991.0
988.0
987.0
986.0
985.0
983.0
983.0
981.0
976.0
973.0
969.0
965.0
961.0
956.0
948.0
948.0
946.0
945.0
945.0
942.0
942.0
941.0
942.0
937.0
937.0
938.0
937.0
942.0
945.0
949.0
954.0
959.0
964.0
969.0
973.0
977.0
980.0
987.0
993.0
999.0
1007.0
1014.0
1021.0
1026.0
1033.0
1037.0
1038.0
1039.0
1040.0
1041.0
1042.0
1046.0
1049.0
1050.0
1051.0
1052.0
1056.0
1051.0
1052.0
1051.0
1050.0
1051.0
1050.0
1050.0
1051.0
1051.0
1053.0
1053.0
1058.0
1058.0
1059.0
1056.0
1054.0
1051.0
1053.0
1055.0
1057.0
1059.0
1063.0
1064.0
1067.0
1071.0
1072.0
1075.0
1077.0
1079.0
1082.0
1083.0
1087.0
1089.0
1097.0
1099.0
1105.0
1113.0
1117.0
1121.0
1119.0
1112.0
1110.0
1106.0
1105.0
1109.0
1112.0
1113.0
1113.0
1107.0
1100.0
1094.0
1091.0
1086.0
1078.0
1074.0
1071.0
1068.0
1066.0
1061.0
1058.0
1055.0
1052.0
1048.0
1047.0
1047.0
1047.0
1050.0
1052.0
1053.0
1051.0
1051.0
1049.0
1047.0
1048.0
1050.0
1055.0
1062.0
1082.0
1109.0
1150.0
1194.0
1238.0
1279.0
1316.0
1351.0
1386.0
1413.0
1433.0
1438.0
1434.0
1420.0
1384.0
1332.0
1273.0
1207.0
1151.0
1106.0
1076.0
1060.0
1053.0
1051.0
1050.0
1045.0
1041.0
1030.0
1030.0
1024.0
1022.0
1021.0
1019.0
1019.0
1016.0
1017.0
1015.0
1017.0
1021.0
1020.0
1023.0
1022.0
1022.0
1019.0
1019.0
1017.0
1017.0
1013.0
1014.0
1015.0
1014.0
1014.0
1017.0
1017.0
1016.0
1015.0
1013.0
1013.0
1008.0
1006.0
1003.0
1006.0
1004.0
1006.0
1008.0
1009.0
1008.0
1003.0
1003.0
999.0
996.0
994.0
993.0
990.0
989.0
988.0
986.0
984.0
982.0
980.0
977.0
976.0
973.0
971.0
971.0
972.0
973.0
973.0
975.0
978.0
979.0
979.0
981.0
983.0
985.0
990.0
994.0
999.0
1002.0
1007.0
1012.0
1014.0
1021.0
1025.0
1030.0
1035.0
1037.0
1040.0
1042.0
1045.0
1046.0
1052.0
1056.0
1057.0
1059.0
1057.0
1056.0
1057.0
1059.0
1058.0
1056.0
1058.0
1055.0
1055.0
1055.0
1054.0
1055.0
1054.0
1053.0
1050.0
1047.0
1046.0
1045.0
1047.0
1049.0
1047.0
1050.0
1048.0
1050.0
1052.0
1052.0
1053.0
1052.0
1052.0
1050.0
1050.0
1052.0
1055.0
1055.0
1057.0
1059.0
1061.0
1063.0
1065.0
1068.0
1071.0
1075.0
1080.0
1082.0
1083.0
1088.0
1095.0
1098.0
1104.0
1108.0
1111.0
1109.0
1106.0
1102.0
1098.0
1097.0
1099.0
1101.0
1102.0
1103.0
1102.0
1098.0
1090.0
1085.0
1077.0
1072.0
1065.0
1058.0
1056.0
1056.0
1053.0
1049.0
1045.0
1043.0
1037.0
1035.0
1034.0
1036.0
1038.0
1039.0
1041.0
1044.0
1043.0
1045.0
1044.0
1042.0
1041.0
1044.0
1048.0
1071.0
1101.0
1142.0
1188.0
1234.0
1275.0
1314.0
1349.0
1382.0
1411.0
1430.0
1438.0
1435.0
1419.0
1388.0
1338.0
1274.0
1205.0
1143.0
1098.0
1067.0
1053.0
1049.0
1047.0
1046.0
1039.0
1029.0
1020.0
1010.0
1004.0
1002.0
1000.0
1004.0
1002.0
998.0
1000.0
999.0
997.0
998.0
997.0
995.0
994.0
995.0
995.0
993.0
995.0
994.0
995.0
995.0
994.0
991.0
992.0
989.0
988.0
987.0
985.0
984.0
984.0
983.0
984.0
982.0
982.0
979.0
979.0
979.0
978.0
976.0
975.0
973.0
970.0
968.0
966.0
964.0
961.0
959.0
958.0
955.0
952.0
949.0
943.0
940.0
934.0
932.0
931.0
930.0
931.0
932.0
930.0
932.0
934.0
934.0
939.0
940.0
945.0
948.0
952.0
956.0
962.0
967.0
972.0
979.0
986.0
989.0
996.0
997.0
1003.0
1006.0
1011.0
1013.0
1016.0
1018.0
1019.0
1020.0
1022.0
1023.0
1025.0
1025.0
1026.0
1027.0
1025.0
1023.0
1023.0
1024.0
1026.0
1027.0
1031.0
1031.0
1030.0
1025.0
1024.0
1022.0
1023.0
1025.0
1025.0
1027.0
1024.0
1026.0
1022.0
1024.0
1024.0
1022.0
1023.0
1023.0
1026.0
1026.0
1028.0
1032.0
1037.0
1042.0
1046.0
1048.0
1050.0
1049.0
1052.0
1051.0
1052.0
1054.0
1060.0
1064.0
1072.0
1079.0
1087.0
1092.0
1093.0
1090.0
1085.0
1077.0
1072.0
1073.0
1073.0
1078.0
1083.0
1085.0
1082.0
1076.0
1067.0
1059.0
1051.0
1043.0
1038.0
1035.0
1032.0
1030.0
1027.0
1024.0
1021.0
1024.0
1022.0
1019.0
1015.0
1011.0
1009.0
1011.0
1013.0
1014.0
1019.0
1023.0
1027.0
1025.0
1023.0
1022.0
1023.0
1027.0
1041.0
1068.0
1103.0
1149.0
1197.0
1239.0
1276.0
1309.0
1343.0
1371.0
1394.0
1411.0
1417.0
1410.0
1389.0
1349.0
1289.0
1222.0
1155.0
1103.0
1066.0
1043.0
1033.0
1030.0
1028.0
1027.0
1020.0
1012.0
1004.0
996.0
990.0
990.0
987.0
989.0
990.0
987.0
989.0
984.0
985.0
981.0
983.0
981.0
978.0
978.0
977.0
979.0
979.0
979.0
979.0
980.0
977.0
976.0
976.0
976.0
976.0
974.0
973.0
971.0
970.0
969.0
968.0
966.0
963.0
963.0
962.0
965.0
964.0
962.0
959.0
956.0
953.0
951.0
949.0
947.0
944.0
941.0
936.0
939.0
937.0
937.0
933.0
931.0
927.0
928.0
926.0
926.0
925.0
927.0
929.0
930.0
935.0
935.0
941.0
942.0
946.0
947.0
953.0
958.0
966.0
971.0
977.0
981.0
985.0
990.0
993.0
997.0
999.0
1005.0
1007.0
1010.0
1013.0
1014.0
1016.0
1017.0
1018.0
1019.0
1021.0
1018.0
1018.0
1019.0
1017.0
1019.0
1019.0
1017.0
1019.0
1017.0
1017.0
1016.0
1018.0
1018.0
1019.0
1019.0
1019.0
1019.0
1020.0
1021.0
1022.0
1026.0
1025.0
1023.0
1020.0
1019.0
1016.0
1017.0
1021.0
1023.0
1027.0
1032.0
1036.0
1042.0
1042.0
1049.0
1050.0
1049.0
1049.0
1049.0
1051.0
1053.0
1059.0
1067.0
1073.0
1080.0
1085.0
1088.0
1089.0
1084.0
1079.0
1075.0
1074.0
1077.0
1078.0
1083.0
1082.0
1080.0
1072.0
1068.0
1062.0
1057.0
1051.0
1044.0
1039.0
1036.0
1031.0
1029.0
1028.0
1025.0
1025.0
1022.0
1022.0
1019.0
1018.0
1018.0
1019.0
1023.0
1022.0
1023.0
1024.0
1023.0
1019.0
1022.0
1028.0
1035.0
1055.0
1082.0
1120.0
1160.0
1202.0
1242.0
1280.0
1315.0
1352.0
1386.0
1411.0
1422.0
1424.0
1410.0
1381.0
1336.0
1274.0
1209.0
1145.0
1099.0
1066.0
1048.0
1039.0
1036.0
1032.0
1028.0
1019.0
1009.0
999.0
992.0
989.0
990.0
990.0
991.0
991.0
991.0
988.0
984.0
984.0
984.0
984.0
986.0
984.0
986.0
983.0
983.0
982.0
981.0
980.0
979.0
979.0
978.0
980.0
980.0
980.0
979.0
979.0
977.0
978.0
977.0
970.0
974.0
972.0
969.0
969.0
968.0
967.0
966.0
967.0
967.0
966.0
961.0
959.0
955.0
950.0
946.0
944.0
945.0
946.0
943.0
940.0
937.0
936.0
933.0
928.0
926.0
924.0
925.0
925.0
926.0
931.0
932.0
936.0
939.0
941.0
942.0
944.0
944.0
948.0
950.0
958.0
966.0
974.0
984.0
989.0
992.0
997.0
999.0
1004.0
1008.0
1008.0
1013.0
1018.0
1021.0
1023.0
1025.0
1026.0
1027.0
1027.0
1026.0
1023.0
1022.0
1020.0
1022.0
1024.0
1025.0
1027.0
1027.0
1030.0
1029.0
1030.0
1031.0
1031.0
1029.0
1026.0
1027.0
1031.0
1033.0
1038.0
1043.0
1051.0
1055.0
1066.0
1075.0
1084.0
1093.0
1109.0
1121.0
1139.0
1157.0
1182.0
1212.0
1239.0
1261.0
1267.0
1256.0
1224.0
1162.0
1077.0
984.0
897.0
827.0
780.0
742.0
711.0
684.0
664.0
648.0
635.0
630.0
625.0
634.0
648.0
668.0
687.0
712.0
733.0
749.0
763.0
770.0
774.0
781.0
791.0
806.0
827.0
852.0
873.0
895.0
907.0
913.0
916.0
917.0
925.0
934.0
950.0
981.0
1012.0
1040.0
1068.0
1084.0
1094.0
1102.0
1105.0
1107.0
1106.0
1109.0
1112.0
1116.0
1121.0
1126.0
1129.0
1134.0
1134.0
1139.0
1144.0
1150.0
1150.0
1153.0
1155.0
1159.0
1164.0
1169.0
1176.0
1182.0
1187.0
1190.0
1192.0
1195.0
1198.0
1201.0
1206.0
1212.0
1218.0
1225.0
1231.0
1234.0
1238.0
1243.0
1243.0
1246.0
1247.0
1246.0
1246.0
1246.0
1244.0
1241.0
1242.0
1240.0
1235.0
1230.0
1221.0
1213.0
1205.0
1196.0
1189.0
1182.0
1174.0
1168.0
1160.0
1153.0
1147.0
1138.0
1130.0
1121.0
1113.0
1108.0
1097.0
1090.0
1088.0
1083.0
1081.0
1076.0
1071.0
1068.0
1062.0
1057.0
1054.0
1050.0
1048.0
1046.0
1046.0
1044.0
1039.0
1038.0
1036.0
1036.0
1037.0
1037.0
1036.0
1036.0
1035.0
1036.0
1036.0
1037.0
1038.0
1039.0
1041.0
1041.0
1042.0
1040.0
1039.0
1039.0
1037.0
1035.0
1036.0
1036.0
1038.0
1038.0
1039.0
1040.0
1039.0
1037.0
1032.0
1033.0
1032.0
1028.0
1030.0
1030.0
1035.0
1036.0
1035.0
1031.0
1030.0
1031.0
1032.0
1031.0
1030.0
1029.0
1031.0
1032.0
1031.0
1032.0
1033.0
1031.0
1031.0
1029.0
1028.0
1028.0
1027.0
1027.0
1027.0
1028.0
1029.0
1031.0
1035.0
1036.0
1035.0
1038.0
1037.0
1042.0
1043.0
1047.0
1052.0
1054.0
1059.0
1061.0
1064.0
1066.0
1069.0
1072.0
1076.0
1079.0
1086.0
1091.0
1095.0
1092.0
1090.0
1085.0
1083.0
1080.0
1083.0
1086.0
1085.0
1083.0
1079.0
1074.0
1069.0
1067.0
1060.0
1055.0
1052.0
1046.0
1042.0
1039.0
1033.0
1028.0
1025.0
1023.0
1019.0
1020.0
1023.0
1024.0
1026.0
1025.0
1024.0
1022.0
1024.0
1023.0
1022.0
1019.0
1018.0
1024.0
1031.0
1049.0
1070.0
1105.0
1143.0
1183.0
1222.0
1259.0
1292.0
1330.0
1367.0
1395.0
1416.0
1422.0
1416.0
1395.0
1358.0
1307.0
1242.0
1176.0
1124.0
1082.0
1056.0
1043.0
1035.0
1033.0
1027.0
1021.0
1013.0
1003.0
995.0
990.0
987.0
984.0
988.0
987.0
991.0
987.0
988.0
986.0
984.0
983.0
983.0
981.0
980.0
981.0
980.0
980.0
981.0
982.0
983.0
983.0
981.0
981.0
978.0
977.0
973.0
974.0
974.0
976.0
978.0
979.0
978.0
977.0
971.0
968.0
962.0
961.0
960.0
958.0
956.0
956.0
955.0
953.0
954.0
949.0
946.0
940.0
935.0
934.0
930.0
925.0
922.0
922.0
921.0
920.0
920.0
917.0
914.0
913.0
908.0
908.0
906.0
906.0
905.0
905.0
912.0
915.0
920.0
927.0
932.0
936.0
939.0
941.0
946.0
952.0
959.0
966.0
975.0
982.0
986.0
991.0
997.0
1000.0
1005.0
1007.0
1010.0
1014.0
1016.0
1019.0
1019.0
1023.0
1023.0
1024.0
1026.0
1025.0
1025.0
1026.0
1025.0
1025.0
1026.0
1026.0
1026.0
1031.0
1032.0
1030.0
1032.0
1032.0
1032.0
1030.0
1028.0
1029.0
1029.0
1029.0
1030.0
1033.0
1034.0
1037.0
1039.0
1041.0
1044.0
1046.0
1050.0
1054.0
1057.0
1060.0
1062.0
1066.0
1067.0
1068.0
1077.0
1082.0
1088.0
1094.0
1095.0
1094.0
1091.0
1086.0
1084.0
1085.0
1087.0
1089.0
1089.0
1088.0
1080.0
1072.0
1067.0
1060.0
1052.0
1047.0
1041.0
1038.0
1036.0
1031.0
1029.0
1027.0
1024.0
1025.0
1023.0
1022.0
1023.0
1026.0
1025.0
1029.0
1029.0
1028.0
1028.0
1026.0
1028.0
1032.0
1045.0
1068.0
1103.0
1145.0
1188.0
1228.0
1267.0
1309.0
1346.0
1377.0
1403.0
1413.0
1415.0
1403.0
1377.0
1335.0
1278.0
1215.0
1153.0
1099.0
1061.0
1037.0
1024.0
1023.0
1025.0
1024.0
1020.0
1014.0
1006.0
1002.0
997.0
993.0
995.0
995.0
994.0
994.0
992.0
992.0
991.0
990.0
989.0
991.0
988.0
989.0
988.0
987.0
987.0
986.0
985.0
985.0
983.0
985.0
984.0
987.0
988.0
987.0
986.0
984.0
981.0
981.0
978.0
978.0
976.0
976.0
974.0
974.0
972.0
971.0
970.0
968.0
966.0
964.0
961.0
958.0
955.0
952.0
953.0
951.0
951.0
946.0
940.0
939.0
935.0
935.0
934.0
935.0
936.0
939.0
941.0
944.0
943.0
949.0
950.0
953.0
959.0
963.0
965.0
970.0
975.0
984.0
989.0
995.0
1001.0
1004.0
1004.0
1008.0
1010.0
1013.0
1012.0
1013.0
1016.0
1018.0
1021.0
1025.0
1022.0
1022.0
1023.0
1021.0
1020.0
1020.0
1019.0
1018.0
1020.0
1022.0
1020.0
1022.0
1023.0
1023.0
1023.0
1021.0
1017.0
1017.0
1017.0
1016.0
1017.0
1017.0
1018.0
1022.0
1024.0
1025.0
1022.0
1023.0
1023.0
1023.0
1024.0
1027.0
1030.0
1035.0
1038.0
1044.0
1047.0
1049.0
1053.0
1051.0
1054.0
1055.0
1057.0
1064.0
1071.0
1076.0
1081.0
1087.0
1088.0
1085.0
1081.0
1074.0
1072.0
1070.0
1071.0
1072.0
1073.0
1074.0
1069.0
1068.0
1063.0
1055.0
1046.0
1039.0
1036.0
1028.0
1025.0
1022.0
1016.0
1015.0
1013.0
1011.0
1010.0
1009.0
1012.0
1013.0
1015.0
1014.0
1013.0
1016.0
1015.0
1014.0
1016.0
1017.0
1023.0
1033.0
1053.0
1082.0
1121.0
1158.0
1202.0
1243.0
1280.0
1316.0
1352.0
1384.0
1403.0
1413.0
1409.0
1394.0
1365.0
1317.0
1250.0
1185.0
1125.0
1078.0
1047.0
1033.0
1025.0
1020.0
1016.0
1010.0
1002.0
993.0
988.0
981.0
978.0
978.0
976.0
976.0
975.0
975.0
972.0
972.0
970.0
970.0
970.0
969.0
966.0
968.0
970.0
970.0
969.0
969.0
972.0
970.0
966.0
963.0
958.0
961.0
962.0
966.0
969.0
970.0
969.0
967.0
967.0
962.0
958.0
955.0
954.0
954.0
952.0
953.0
952.0
952.0
952.0
948.0
944.0
942.0
937.0
934.0
932.0
930.0
925.0
923.0
922.0
921.0
919.0
919.0
916.0
916.0
915.0
913.0
913.0
918.0
918.0
920.0
922.0
931.0
934.0
938.0
942.0
946.0
949.0
952.0
956.0
962.0
967.0
975.0
979.0
985.0
991.0
994.0
998.0
999.0
999.0
1001.0
1003.0
1003.0
1005.0
1008.0
1008.0
1009.0
1013.0
1013.0
1016.0
1013.0
1012.0
1010.0
1008.0
1008.0
1006.0
1008.0
1010.0
1011.0
1013.0
1012.0
1013.0
1013.0
1013.0
1012.0
1011.0
1012.0
1015.0
1013.0
1014.0
1013.0
1016.0
1015.0
1018.0
1018.0
1021.0
1018.0
1019.0
1021.0
1024.0
1028.0
1029.0
1033.0
1040.0
1043.0
1046.0
1050.0
1051.0
1052.0
1055.0
1064.0
1070.0
1076.0
1077.0
1078.0
1076.0
1070.0
1069.0
1066.0
1068.0
1069.0
1069.0
1067.0
1063.0
1059.0
1050.0
1046.0
1041.0
1035.0
1030.0
1026.0
1023.0
1018.0
1012.0
1008.0
1005.0
1003.0
1005.0
1007.0
1007.0
1008.0
1008.0
1010.0
1007.0
1008.0
1005.0
1006.0
1006.0
1008.0
1009.0
1011.0
1023.0
1035.0
1059.0
1092.0
