# Simple Text Format
# Sampling Rate (Hz):= 360.00
# Resolution:= 12
# Labels:= ECG
1013.0
1012.0
1007.0
1008.0
1010.0
1010.0
1009.0
1010.0
1008.0
1007.0
1005.0
1003.0
1001.0
999.0
999.0
1000.0
999.0
1000.0
1003.0
1005.0
1005.0
1005.0
1005.0
1003.0
1003.0
1002.0
1002.0
999.0
1000.0
1001.0
1000.0
1001.0
1001.0
1000.0
1000.0
998.0
1000.0
997.0
995.0
994.0
993.0
995.0
996.0
998.0
997.0
996.0
995.0
993.0
993.0
992.0
991.0
990.0
991.0
990.0
992.0
991.0
991.0
991.0
989.0
990.0
987.0
988.0
986.0
986.0
985.0
989.0
988.0
989.0
989.0
990.0
988.0
987.0
986.0
984.0
985.0
987.0
985.0
985.0
986.0
990.0
989.0
989.0
988.0
986.0
985.0
984.0
985.0
986.0
988.0
991.0
991.0
989.0
990.0
989.0
986.0
984.0
986.0
986.0
987.0
988.0
991.0
991.0
992.0
996.0
993.0
992.0
994.0
995.0
996.0
996.0
1001.0
1007.0
1012.0
1016.0
1019.0
1023.0
1022.0
1023.0
1027.0
1030.0
1037.0
1041.0
1048.0
1050.0
1052.0
1051.0
1047.0
1044.0
1041.0
1041.0
1042.0
1043.0
1043.0
1039.0
1033.0
1028.0
1025.0
1021.0
1013.0
1010.0
1008.0
1004.0
1002.0
996.0
991.0
986.0
985.0
980.0
979.0
979.0
981.0
984.0
983.0
985.0
986.0
986.0
984.0
985.0
983.0
983.0
983.0
985.0
995.0
1010.0
1033.0
1067.0
1108.0
1147.0
1187.0
1225.0
1262.0
1297.0
1329.0
1349.0
1365.0
1364.0
1351.0
1319.0
1274.0
1211.0
1148.0
1092.0
1044.0
1015.0
1000.0
994.0
991.0
989.0
985.0
978.0
967.0
959.0
953.0
950.0
950.0
948.0
948.0
949.0
947.0
948.0
948.0
947.0
945.0
941.0
942.0
940.0
938.0
938.0
939.0
943.0
944.0
942.0
942.0
944.0
942.0
940.0
940.0
936.0
936.0
938.0
939.0
938.0
938.0
938.0
937.0
933.0
930.0
929.0
928.0
926.0
924.0
922.0
922.0
920.0
917.0
915.0
914.0
909.0
907.0
901.0
898.0
894.0
891.0
889.0
888.0
885.0
882.0
880.0
877.0
876.0
874.0
871.0
870.0
865.0
866.0
866.0
865.0
869.0
873.0
876.0
875.0
878.0
879.0
882.0
886.0
888.0
896.0
900.0
907.0
916.0
923.0
931.0
939.0
944.0
949.0
954.0
956.0
961.0
965.0
970.0
974.0
978.0
981.0
983.0
984.0
984.0
984.0
984.0
983.0
982.0
982.0
984.0
986.0
989.0
990.0
993.0
993.0
994.0
990.0
988.0
987.0
986.0
987.0
986.0
990.0
992.0
996.0
995.0
992.0
992.0
991.0
990.0
988.0
989.0
987.0
989.0
990.0
992.0
992.0
996.0
996.0
999.0
1001.0
1003.0
1005.0
1005.0
1010.0
1011.0
1012.0
1016.0
1023.0
1025.0
1028.0
1032.0
1039.0
1045.0
1052.0
1056.0
1056.0
1055.0
1049.0
1046.0
1047.0
1049.0
1048.0
1051.0
1051.0
1047.0
1043.0
1035.0
1028.0
1020.0
1015.0
1010.0
1008.0
1005.0
1002.0
1002.0
1000.0
996.0
993.0
986.0
987.0
986.0
988.0
986.0
989.0
987.0
989.0
990.0
991.0
987.0
987.0
986.0
986.0
989.0
994.0
1003.0
1019.0
1041.0
1071.0
1111.0
1154.0
1192.0
1226.0
1258.0
1289.0
1319.0
1345.0
1362.0
1368.0
1364.0
1348.0
1319.0
1281.0
1223.0
1158.0
1101.0
1053.0
1022.0
1002.0
998.0
995.0
998.0
995.0
989.0
979.0
971.0
962.0
958.0
957.0
957.0
958.0
961.0
962.0
959.0
957.0
958.0
955.0
956.0
954.0
953.0
954.0
954.0
955.0
956.0
955.0
954.0
952.0
954.0
953.0
950.0
949.0
947.0
947.0
949.0
949.0
950.0
952.0
951.0
949.0
947.0
946.0
944.0
941.0
938.0
933.0
932.0
933.0
934.0
934.0
936.0
932.0
928.0
925.0
922.0
916.0
912.0
911.0
908.0
908.0
908.0
909.0
910.0
908.0
909.0
908.0
906.0
905.0
904.0
906.0
908.0
914.0
918.0
924.0
928.0
935.0
939.0
943.0
947.0
950.0
951.0
955.0
959.0
966.0
970.0
974.0
979.0
982.0
986.0
987.0
989.0
989.0
986.0
984.0
986.0
987.0
988.0
988.0
993.0
993.0
995.0
994.0
991.0
988.0
986.0
989.0
989.0
988.0
990.0
992.0
992.0
989.0
993.0
993.0
992.0
992.0
991.0
987.0
988.0
989.0
992.0
993.0
996.0
994.0
994.0
995.0
993.0
991.0
990.0
990.0
990.0
992.0
992.0
997.0
1001.0
1002.0
1005.0
1010.0
1012.0
1016.0
1016.0
1021.0
1023.0
1025.0
1029.0
1035.0
1045.0
1051.0
1054.0
1057.0
1056.0
1052.0
1047.0
1041.0
1043.0
1047.0
1047.0
1052.0
1051.0
1046.0
1040.0
1031.0
1021.0
1012.0
1003.0
999.0
996.0
994.0
993.0
994.0
993.0
993.0
992.0
990.0
992.0
992.0
991.0
989.0
990.0
991.0
990.0
993.0
997.0
996.0
998.0
1002.0
1011.0
1031.0
1063.0
1102.0
1145.0
1190.0
1234.0
1272.0
1313.0
1343.0
1363.0
1375.0
1373.0
1358.0
1324.0
1273.0
1206.0
1138.0
1080.0
1038.0
1015.0
1005.0
1003.0
1003.0
1001.0
993.0
983.0
973.0
967.0
962.0
962.0
963.0
964.0
965.0
963.0
960.0
958.0
956.0
955.0
955.0
955.0
955.0
956.0
959.0
959.0
958.0
959.0
957.0
956.0
955.0
953.0
951.0
950.0
948.0
948.0
949.0
950.0
951.0
949.0
948.0
948.0
945.0
942.0
941.0
939.0
938.0
939.0
940.0
940.0
939.0
936.0
933.0
929.0
927.0
923.0
918.0
913.0
912.0
912.0
912.0
912.0
910.0
908.0
906.0
902.0
898.0
900.0
899.0
898.0
896.0
898.0
902.0
904.0
906.0
908.0
910.0
915.0
919.0
924.0
929.0
936.0
940.0
945.0
950.0
958.0
963.0
969.0
973.0
979.0
980.0
979.0
984.0
986.0
989.0
991.0
991.0
995.0
995.0
996.0
997.0
996.0
993.0
994.0
995.0
994.0
996.0
996.0
997.0
998.0
1000.0
997.0
999.0
998.0
998.0
996.0
995.0
995.0
995.0
997.0
999.0
999.0
999.0
999.0
998.0
997.0
999.0
998.0
997.0
998.0
998.0
997.0
998.0
999.0
1000.0
1000.0
999.0
1001.0
1000.0
1000.0
1003.0
1007.0
1011.0
1018.0
1020.0
1027.0
1029.0
1031.0
1030.0
1033.0
1034.0
1041.0
1047.0
1053.0
1060.0
1062.0
1059.0
1057.0
1055.0
1052.0
1053.0
1055.0
1054.0
1053.0
1050.0
1046.0
1041.0
1037.0
1029.0
1025.0
1019.0
1016.0
1011.0
1007.0
1003.0
1001.0
996.0
994.0
994.0
997.0
995.0
999.0
998.0
995.0
997.0
997.0
998.0
995.0
994.0
991.0
993.0
996.0
1003.0
1015.0
1037.0
1065.0
1104.0
1144.0
1181.0
1218.0
1249.0
1284.0
1318.0
1350.0
1370.0
1383.0
1381.0
1368.0
1342.0
1302.0
1243.0
1178.0
1115.0
1064.0
1031.0
1011.0
1006.0
1004.0
1006.0
1003.0
996.0
985.0
973.0
965.0
962.0
959.0
960.0
961.0
962.0
966.0
962.0
961.0
959.0
959.0
960.0
960.0
961.0
959.0
959.0
960.0
959.0
958.0
959.0
958.0
960.0
956.0
955.0
954.0
954.0
954.0
956.0
955.0
953.0
952.0
951.0
949.0
950.0
946.0
946.0
943.0
941.0
939.0
939.0
937.0
935.0
934.0
933.0
927.0
925.0
921.0
919.0
918.0
916.0
914.0
913.0
913.0
911.0
910.0
909.0
909.0
907.0
908.0
911.0
911.0
913.0
912.0
914.0
919.0
924.0
930.0
934.0
940.0
945.0
950.0
953.0
952.0
960.0
964.0
968.0
972.0
978.0
983.0
987.0
989.0
992.0
993.0
993.0
993.0
996.0
995.0
995.0
996.0
1002.0
1002.0
1002.0
1001.0
1000.0
997.0
998.0
998.0
999.0
999.0
1000.0
1001.0
1003.0
1002.0
1003.0
1001.0
999.0
1001.0
1000.0
1002.0
997.0
999.0
1001.0
1004.0
1005.0
1004.0
1004.0
1004.0
1001.0
999.0
997.0
1000.0
999.0
999.0
1003.0
1005.0
1009.0
1012.0
1015.0
1016.0
1018.0
1020.0
1023.0
1024.0
1025.0
1028.0
1029.0
1034.0
1037.0
1045.0
1048.0
1057.0
1061.0
1062.0
1060.0
1060.0
1056.0
1052.0
1052.0
1052.0
1055.0
1058.0
1060.0
1058.0
1053.0
1047.0
1039.0
1030.0
1024.0
1019.0
1016.0
1014.0
1012.0
1012.0
1011.0
1008.0
1005.0
1000.0
1000.0
995.0
994.0
994.0
995.0
998.0
999.0
1001.0
1001.0
1000.0
1001.0
1000.0
999.0
998.0
1001.0
1005.0
1016.0
1035.0
1064.0
1102.0
1141.0
1182.0
1219.0
1255.0
1289.0
1319.0
1344.0
1362.0
1370.0
1370.0
1359.0
1335.0
1287.0
1228.0
1163.0
1102.0
1054.0
1024.0
1007.0
1000.0
999.0
996.0
989.0
985.0
979.0
975.0
969.0
968.0
968.0
966.0
966.0
965.0
965.0
963.0
964.0
964.0
963.0
963.0
963.0
959.0
959.0
956.0
957.0
957.0
961.0
960.0
960.0
962.0
957.0
958.0
958.0
956.0
955.0
953.0
955.0
955.0
954.0
953.0
951.0
949.0
948.0
947.0
947.0
943.0
941.0
938.0
932.0
928.0
928.0
929.0
924.0
926.0
925.0
923.0
919.0
915.0
911.0
911.0
909.0
908.0
909.0
910.0
911.0
912.0
911.0
913.0
914.0
915.0
919.0
920.0
926.0
927.0
933.0
937.0
947.0
954.0
957.0
963.0
966.0
969.0
972.0
976.0
978.0
985.0
991.0
997.0
1000.0
999.0
1001.0
1002.0
1002.0
999.0
1000.0
998.0
998.0
1000.0
1001.0
1002.0
1004.0
1006.0
1011.0
1013.0
1020.0
1022.0
1027.0
1034.0
1041.0
1051.0
1064.0
1078.0
1093.0
1106.0
1121.0
1138.0
1161.0
1179.0
1193.0
1195.0
1178.0
1137.0
1071.0
986.0
894.0
813.0
743.0
695.0
660.0
634.0
614.0
601.0
588.0
581.0
582.0
587.0
597.0
613.0
630.0
652.0
675.0
698.0
721.0
738.0
756.0
775.0
792.0
809.0
829.0
848.0
867.0
885.0
902.0
917.0
928.0
938.0
947.0
961.0
977.0
1000.0
1024.0
1050.0
1070.0
1083.0
1092.0
1095.0
1092.0
1091.0
1089.0
1088.0
1090.0
1095.0
1098.0
1101.0
1104.0
1107.0
1109.0
1111.0
1112.0
1113.0
1113.0
1117.0
1120.0
1124.0
1128.0
1133.0
1139.0
1141.0
1143.0
1146.0
1148.0
1149.0
1151.0
1151.0
1157.0
1161.0
1167.0
1171.0
1179.0
1183.0
1186.0
1191.0
1189.0
1193.0
1196.0
1200.0
1201.0
1204.0
1207.0
1211.0
1209.0
1211.0
1210.0
1211.0
1208.0
1205.0
1201.0
1197.0
1192.0
1187.0
1185.0
1181.0
1175.0
1168.0
1162.0
1152.0
1147.0
1137.0
1131.0
1124.0
1119.0
1111.0
1107.0
1099.0
1092.0
1086.0
1081.0
1074.0
1068.0
1062.0
1055.0
1052.0
1048.0
1044.0
1044.0
1039.0
1036.0
1032.0
1029.0
1026.0
1024.0
1020.0
1019.0
1020.0
1019.0
1020.0
1018.0
1021.0
1022.0
1021.0
1019.0
1018.0
1017.0
1014.0
1013.0
1013.0
1015.0
1017.0
1018.0
1020.0
1019.0
1019.0
1018.0
1015.0
1013.0
1012.0
1011.0
1012.0
1012.0
1014.0
1014.0
1015.0
1014.0
1014.0
1008.0
1007.0
1006.0
1007.0
1005.0
1004.0
1004.0
1004.0
1007.0
1008.0
1006.0
1005.0
1002.0
1001.0
998.0
998.0
999.0
999.0
1000.0
1002.0
1004.0
1006.0
1008.0
1007.0
1005.0
1005.0
1002.0
999.0
998.0
998.0
998.0
996.0
998.0
997.0
998.0
1000.0
1001.0
1000.0
1000.0
998.0
997.0
999.0
998.0
998.0
1001.0
1002.0
1001.0
1000.0
1001.0
1001.0
998.0
999.0
997.0
997.0
998.0
998.0
998.0
1000.0
998.0
998.0
998.0
1002.0
1004.0
1005.0
1007.0
1010.0
1013.0
1019.0
1022.0
1026.0
1031.0
1034.0
1037.0
1037.0
1042.0
1049.0
1055.0
1060.0
1064.0
1062.0
1058.0
1054.0
1055.0
1050.0
1052.0
1052.0
1052.0
1049.0
1045.0
1040.0
1033.0
1030.0
1024.0
1018.0
1016.0
1011.0
1007.0
1001.0
995.0
994.0
990.0
987.0
986.0
987.0
987.0
990.0
991.0
989.0
991.0
991.0
993.0
990.0
990.0
986.0
989.0
994.0
1005.0
1022.0
1050.0
1083.0
1123.0
1159.0
1195.0
1230.0
1263.0
1297.0
1327.0
1353.0
1368.0
1371.0
1363.0
1344.0
1307.0
1256.0
1197.0
1134.0
1080.0
1042.0
1016.0
1004.0
992.0
994.0
989.0
981.0
970.0
963.0
956.0
952.0
950.0
952.0
953.0
954.0
954.0
955.0
954.0
952.0
950.0
947.0
943.0
942.0
941.0
941.0
941.0
944.0
945.0
945.0
946.0
943.0
942.0
942.0
944.0
941.0
941.0
937.0
940.0
941.0
941.0
942.0
941.0
936.0
936.0
931.0
928.0
926.0
922.0
924.0
920.0
922.0
918.0
918.0
915.0
913.0
908.0
904.0
901.0
897.0
892.0
888.0
888.0
886.0
886.0
886.0
882.0
880.0
878.0
875.0
869.0
866.0
864.0
862.0
866.0
871.0
872.0
877.0
879.0
881.0
885.0
889.0
893.0
897.0
901.0
905.0
908.0
913.0
923.0
929.0
935.0
941.0
947.0
952.0
951.0
959.0
961.0
967.0
970.0
976.0
978.0
983.0
985.0
987.0
989.0
990.0
990.0
991.0
990.0
991.0
988.0
990.0
992.0
994.0
993.0
993.0
992.0
991.0
991.0
992.0
992.0
992.0
993.0
992.0
993.0
993.0
994.0
994.0
992.0
991.0
992.0
991.0
993.0
996.0
997.0
997.0
994.0
996.0
993.0
993.0
991.0
990.0
993.0
992.0
997.0
1000.0
1007.0
1012.0
1016.0
1018.0
1017.0
1018.0
1018.0
1017.0
1020.0
1024.0
1031.0
1040.0
1051.0
1057.0
1059.0
1060.0
1057.0
1051.0
1048.0
1045.0
1045.0
1047.0
1050.0
1049.0
1047.0
1043.0
1036.0
1031.0
1023.0
1017.0
1011.0
1005.0
997.0
992.0
991.0
989.0
989.0
988.0
988.0
990.0
987.0
985.0
984.0
981.0
981.0
981.0
984.0
989.0
995.0
1001.0
1004.0
1010.0
1014.0
1021.0
1046.0
1073.0
1110.0
1152.0
1194.0
1237.0
1272.0
1306.0
1335.0
1361.0
1374.0
1377.0
1368.0
1344.0
1302.0
1235.0
1155.0
1067.0
989.0
936.0
913.0
914.0
926.0
944.0
957.0
961.0
963.0
961.0
956.0
952.0
949.0
948.0
949.0
955.0
958.0
963.0
961.0
955.0
950.0
941.0
936.0
932.0
935.0
936.0
940.0
943.0
945.0
947.0
947.0
943.0
941.0
935.0
934.0
932.0
933.0
937.0
937.0
939.0
935.0
931.0
930.0
927.0
927.0
928.0
926.0
932.0
933.0
934.0
933.0
929.0
925.0
921.0
917.0
913.0
910.0
905.0
899.0
892.0
887.0
880.0
880.0
881.0
881.0
884.0
885.0
881.0
880.0
881.0
882.0
886.0
888.0
890.0
890.0
892.0
892.0
899.0
901.0
908.0
914.0
919.0
922.0
925.0
932.0
936.0
945.0
951.0
955.0
956.0
957.0
956.0
956.0
953.0
952.0
954.0
956.0
956.0
953.0
955.0
954.0
952.0
955.0
957.0
955.0
953.0
952.0
951.0
948.0
952.0
952.0
955.0
955.0
947.0
942.0
940.0
937.0
938.0
939.0
941.0
946.0
949.0
954.0
958.0
959.0
963.0
959.0
955.0
953.0
948.0
945.0
945.0
945.0
943.0
945.0
947.0
952.0
958.0
962.0
963.0
961.0
960.0
957.0
958.0
960.0
964.0
966.0
968.0
970.0
974.0
979.0
983.0
989.0
994.0
997.0
1001.0
1002.0
1002.0
1003.0
1006.0
1006.0
1005.0
1009.0
1009.0
1007.0
999.0
990.0
980.0
972.0
968.0
966.0
965.0
965.0
962.0
958.0
954.0
948.0
944.0
938.0
936.0
938.0
943.0
944.0
947.0
945.0
944.0
943.0
940.0
940.0
937.0
939.0
939.0
939.0
940.0
947.0
963.0
989.0
1027.0
1068.0
1109.0
1146.0
1180.0
1213.0
1245.0
1275.0
1302.0
1315.0
1320.0
1307.0
1275.0
1229.0
1169.0
1103.0
1045.0
998.0
969.0
957.0
948.0
948.0
947.0
939.0
932.0
921.0
908.0
904.0
900.0
899.0
901.0
898.0
899.0
898.0
903.0
903.0
902.0
904.0
902.0
897.0
893.0
889.0
887.0
887.0
889.0
890.0
893.0
892.0
892.0
890.0
891.0
889.0
892.0
891.0
890.0
887.0
881.0
878.0
877.0
876.0
875.0
881.0
882.0
884.0
881.0
880.0
876.0
874.0
869.0
867.0
867.0
863.0
861.0
859.0
858.0
854.0
849.0
844.0
842.0
837.0
834.0
833.0
834.0
833.0
832.0
832.0
829.0
826.0
825.0
822.0
821.0
821.0
824.0
828.0
834.0
839.0
845.0
853.0
859.0
862.0
863.0
866.0
872.0
878.0
886.0
890.0
896.0
898.0
899.0
900.0
899.0
903.0
904.0
903.0
907.0
910.0
910.0
913.0
916.0
918.0
915.0
914.0
914.0
915.0
913.0
914.0
914.0
915.0
915.0
915.0
917.0
915.0
917.0
917.0
917.0
915.0
913.0
915.0
915.0
916.0
919.0
921.0
923.0
925.0
924.0
925.0
921.0
919.0
919.0
919.0
919.0
922.0
926.0
928.0
933.0
933.0
936.0
941.0
945.0
948.0
951.0
953.0
956.0
958.0
963.0
970.0
979.0
984.0
993.0
996.0
996.0
992.0
987.0
983.0
982.0
986.0
988.0
994.0
993.0
990.0
986.0
980.0
971.0
965.0
955.0
950.0
947.0
944.0
945.0
942.0
945.0
942.0
938.0
936.0
932.0
932.0
931.0
932.0
935.0
936.0
938.0
936.0
940.0
943.0
941.0
942.0
938.0
940.0
946.0
958.0
981.0
1013.0
1053.0
1095.0
1136.0
1173.0
1212.0
1248.0
1286.0
1315.0
1331.0
1336.0
1331.0
1314.0
1284.0
1240.0
1179.0
1113.0
1055.0
1009.0
977.0
960.0
954.0
951.0
949.0
945.0
939.0
930.0
924.0
919.0
915.0
914.0
913.0
913.0
910.0
911.0
911.0
910.0
909.0
907.0
907.0
910.0
911.0
911.0
909.0
908.0
906.0
905.0
906.0
907.0
909.0
910.0
910.0
910.0
909.0
907.0
903.0
905.0
902.0
901.0
903.0
900.0
901.0
901.0
900.0
901.0
898.0
895.0
892.0
890.0
887.0
884.0
882.0
881.0
881.0
879.0
876.0
875.0
870.0
870.0
867.0
863.0
860.0
858.0
856.0
855.0
856.0
857.0
859.0
861.0
858.0
862.0
864.0
865.0
867.0
869.0
874.0
877.0
883.0
890.0
895.0
902.0
906.0
909.0
915.0
919.0
918.0
921.0
931.0
934.0
939.0
941.0
945.0
946.0
949.0
947.0
947.0
946.0
946.0
945.0
944.0
945.0
947.0
949.0
951.0
949.0
948.0
951.0
948.0
946.0
944.0
945.0
946.0
945.0
948.0
947.0
951.0
953.0
954.0
953.0
949.0
950.0
950.0
947.0
947.0
950.0
950.0
949.0
953.0
955.0
959.0
959.0
961.0
961.0
963.0
965.0
969.0
974.0
979.0
983.0
985.0
988.0
990.0
989.0
996.0
1001.0
1007.0
1011.0
1017.0
1016.0
1015.0
1012.0
1008.0
1007.0
1005.0
1008.0
1011.0
1010.0
1013.0
1005.0
1003.0
997.0
991.0
987.0
986.0
979.0
974.0
973.0
970.0
967.0
961.0
959.0
956.0
954.0
954.0
955.0
958.0
957.0
958.0
958.0
956.0
957.0
958.0
957.0
957.0
956.0
956.0
959.0
962.0
970.0
983.0
1003.0
1033.0
1069.0
1107.0
1147.0
1186.0
1224.0
1263.0
1297.0
1328.0
1346.0
1350.0
1345.0
1327.0
1295.0
1244.0
1181.0
1119.0
1062.0
1016.0
988.0
972.0
967.0
967.0
967.0
958.0
950.0
942.0
935.0
929.0
929.0
930.0
929.0
932.0
930.0
930.0
926.0
923.0
922.0
922.0
920.0
923.0
923.0
924.0
925.0
927.0
928.0
925.0
924.0
921.0
920.0
918.0
917.0
916.0
916.0
920.0
919.0
921.0
920.0
918.0
916.0
912.0
912.0
910.0
906.0
907.0
904.0
905.0
903.0
904.0
902.0
899.0
895.0
888.0
887.0
884.0
880.0
879.0
878.0
877.0
877.0
876.0
875.0
874.0
874.0
871.0
869.0
865.0
867.0
870.0
870.0
875.0
879.0
883.0
888.0
892.0
896.0
900.0
903.0
904.0
910.0
914.0
920.0
925.0
930.0
937.0
940.0
945.0
949.0
952.0
952.0
953.0
956.0
958.0
958.0
961.0
963.0
966.0
965.0
966.0
967.0
967.0
965.0
965.0
966.0
963.0
964.0
967.0
966.0
968.0
968.0
969.0
968.0
967.0
966.0
966.0
967.0
966.0
965.0
968.0
967.0
969.0
967.0
967.0
966.0
968.0
965.0
966.0
965.0
963.0
964.0
966.0
965.0
970.0
974.0
975.0
978.0
978.0
984.0
985.0
990.0
993.0
996.0
999.0
1002.0
1006.0
1010.0
1017.0
1025.0
1026.0
1028.0
1029.0
1026.0
1022.0
1020.0
1018.0
1017.0
1021.0
1021.0
1022.0
1016.0
1012.0
1008.0
1002.0
997.0
990.0
987.0
984.0
982.0
981.0
979.0
972.0
970.0
964.0
960.0
956.0
956.0
958.0
961.0
961.0
965.0
968.0
968.0
968.0
965.0
965.0
962.0
960.0
960.0
959.0
963.0
974.0
991.0
1017.0
1049.0
1085.0
1124.0
1160.0
1192.0
1225.0
1256.0
1291.0
1321.0
1340.0
1352.0
1351.0
1343.0
1318.0
1284.0
1230.0
1169.0
1106.0
1055.0
1014.0
986.0
973.0
968.0
969.0
969.0
964.0
957.0
948.0
942.0
931.0
928.0
932.0
930.0
932.0
933.0
934.0
933.0
932.0
929.0
929.0
927.0
927.0
924.0
920.0
924.0
925.0
925.0
927.0
928.0
928.0
925.0
923.0
922.0
921.0
923.0
924.0
921.0
926.0
926.0
926.0
925.0
923.0
921.0
916.0
915.0
916.0
914.0
913.0
911.0
909.0
908.0
913.0
910.0
907.0
905.0
900.0
897.0
893.0
891.0
891.0
891.0
889.0
890.0
890.0
887.0
887.0
882.0
878.0
876.0
876.0
875.0
877.0
878.0
883.0
884.0
888.0
890.0
894.0
898.0
900.0
901.0
902.0
910.0
915.0
924.0
931.0
935.0
941.0
947.0
952.0
956.0
959.0
958.0
961.0
964.0
966.0
967.0
969.0
970.0
974.0
975.0
974.0
974.0
975.0
975.0
973.0
972.0
974.0
977.0
979.0
982.0
986.0
989.0
993.0
999.0
1005.0
1009.0
1017.0
1028.0
1042.0
1056.0
1073.0
1090.0
1109.0
1135.0
1157.0
1176.0
1181.0
1171.0
1138.0
1077.0
994.0
900.0
810.0
739.0
688.0
651.0
624.0
603.0
585.0
571.0
562.0
563.0
564.0
572.0
582.0
596.0
614.0
635.0
662.0
686.0
712.0
733.0
746.0
758.0
769.0
781.0
796.0
816.0
840.0
861.0
881.0
896.0
903.0
909.0
916.0
928.0
947.0
972.0
997.0
1019.0
1040.0
1053.0
1055.0
1056.0
1050.0
1050.0
1050.0
1050.0
1055.0
1057.0
1062.0
1067.0
1073.0
1076.0
1078.0
1082.0
1084.0
1085.0
1089.0
1090.0
1093.0
1097.0
1102.0
1105.0
1109.0
1112.0
1115.0
1120.0
1123.0
1125.0
1129.0
1131.0
1136.0
1141.0
1146.0
1152.0
1158.0
1161.0
1165.0
1169.0
1171.0
1174.0
1176.0
1179.0
1178.0
1179.0
1184.0
1184.0
1183.0
1180.0
1178.0
1174.0
1167.0
1163.0
1157.0
1152.0
1143.0
1134.0
1130.0
1123.0
1119.0
1109.0
1102.0
1094.0
1085.0
1076.0
1069.0
1062.0
1057.0
1049.0
1046.0
1042.0
1038.0
1033.0
1027.0
1022.0
1017.0
1012.0
1007.0
1002.0
1001.0
998.0
998.0
997.0
994.0
995.0
992.0
992.0
991.0
988.0
987.0
983.0
984.0
985.0
986.0
985.0
989.0
989.0
990.0
990.0
988.0
986.0
984.0
983.0
983.0
982.0
986.0
986.0
991.0
987.0
987.0
986.0
985.0
985.0
979.0
979.0
981.0
980.0
984.0
984.0
985.0
985.0
984.0
983.0
981.0
980.0
979.0
978.0
976.0
975.0
977.0
978.0
979.0
980.0
982.0
981.0
979.0
976.0
976.0
977.0
975.0
976.0
974.0
976.0
979.0
978.0
977.0
977.0
976.0
976.0
972.0
972.0
973.0
972.0
972.0
973.0
975.0
974.0
974.0
974.0
971.0
971.0
972.0
971.0
972.0
974.0
975.0
974.0
975.0
975.0
972.0
974.0
972.0
970.0
968.0
971.0
973.0
975.0
976.0
983.0
985.0
987.0
989.0
996.0
994.0
997.0
999.0
1000.0
1002.0
1004.0
1010.0
1017.0
1024.0
1030.0
1036.0
1040.0
1038.0
1033.0
1026.0
1021.0
1020.0
1020.0
1026.0
1025.0
1027.0
1024.0
1019.0
1011.0
1003.0
992.0
986.0
979.0
973.0
973.0
968.0
968.0
968.0
967.0
964.0
961.0
960.0
960.0
960.0
961.0
962.0
961.0
963.0
964.0
964.0
964.0
963.0
966.0
971.0
983.0
1005.0
1038.0
1079.0
1123.0
1166.0
1209.0
1249.0
1290.0
1320.0
1347.0
1358.0
1355.0
1341.0
1304.0
1257.0
1191.0
1122.0
1062.0
1016.0
989.0
975.0
968.0
965.0
963.0
955.0
947.0
936.0
933.0
930.0
926.0
930.0
931.0
928.0
928.0
927.0
923.0
921.0
919.0
917.0
916.0
917.0
917.0
918.0
920.0
921.0
920.0
919.0
918.0
916.0
912.0
912.0
913.0
915.0
914.0
915.0
914.0
912.0
913.0
915.0
910.0
907.0
905.0
900.0
900.0
900.0
898.0
899.0
896.0
892.0
892.0
888.0
884.0
881.0
875.0
872.0
869.0
866.0
865.0
861.0
861.0
858.0
856.0
852.0
851.0
844.0
847.0
845.0
846.0
844.0
844.0
844.0
847.0
847.0
850.0
851.0
853.0
855.0
859.0
866.0
870.0
877.0
883.0
891.0
901.0
906.0
914.0
921.0
926.0
930.0
934.0
939.0
945.0
949.0
954.0
957.0
961.0
962.0
964.0
959.0
959.0
960.0
959.0
959.0
960.0
960.0
960.0
963.0
963.0
964.0
965.0
964.0
964.0
964.0
963.0
963.0
963.0
963.0
964.0
964.0
965.0
965.0
966.0
964.0
963.0
965.0
963.0
964.0
964.0
964.0
966.0
969.0
968.0
967.0
971.0
972.0
973.0
977.0
982.0
986.0
991.0
994.0
997.0
999.0
1007.0
1008.0
1015.0
1021.0
1027.0
1032.0
1028.0
1026.0
1021.0
1020.0
1020.0
1023.0
1025.0
1023.0
1024.0
1019.0
1015.0
1009.0
1002.0
996.0
991.0
989.0
981.0
979.0
976.0
970.0
970.0
965.0
963.0
961.0
960.0
959.0
960.0
961.0
961.0
964.0
967.0
964.0
964.0
964.0
964.0
961.0
962.0
961.0
967.0
975.0
993.0
1020.0
1055.0
1097.0
1139.0
1179.0
1213.0
1245.0
1279.0
1310.0
1339.0
1353.0
1358.0
1355.0
1339.0
1308.0
1264.0
1204.0
1137.0
1076.0
1027.0
999.0
980.0
975.0
974.0
976.0
974.0
965.0
955.0
945.0
938.0
933.0
927.0
929.0
930.0
932.0
934.0
932.0
932.0
933.0
932.0
929.0
929.0
926.0
928.0
926.0
926.0
925.0
927.0
929.0
928.0
929.0
927.0
926.0
924.0
923.0
921.0
921.0
920.0
922.0
922.0
923.0
921.0
920.0
920.0
917.0
916.0
913.0
912.0
913.0
910.0
906.0
905.0
901.0
899.0
896.0
896.0
894.0
890.0
887.0
885.0
882.0
880.0
880.0
881.0
876.0
877.0
879.0
877.0
878.0
879.0
880.0
884.0
884.0
887.0
891.0
894.0
901.0
908.0
913.0
919.0
921.0
924.0
928.0
932.0
936.0
942.0
948.0
951.0
956.0
958.0
961.0
961.0
961.0
962.0
960.0
961.0
962.0
959.0
962.0
963.0
964.0
964.0
967.0
967.0
968.0
968.0
968.0
968.0
971.0
970.0
971.0
968.0
969.0
968.0
965.0
964.0
963.0
963.0
963.0
964.0
965.0
964.0
965.0
964.0
968.0
965.0
965.0
964.0
966.0
965.0
964.0
964.0
967.0
968.0
972.0
978.0
984.0
987.0
989.0
994.0
994.0
996.0
998.0
998.0
1003.0
1011.0
1018.0
1026.0
1031.0
1031.0
1029.0
1027.0
1023.0
1021.0
1022.0
1021.0
1023.0
1026.0
1025.0
1020.0
1014.0
1006.0
999.0
991.0
986.0
979.0
976.0
974.0
973.0
969.0
969.0
969.0
968.0
966.0
965.0
966.0
966.0
964.0
963.0
965.0
965.0
966.0
967.0
966.0
969.0
968.0
969.0
979.0
991.0
1013.0
1046.0
1083.0
1127.0
1167.0
1207.0
1240.0
1275.0
1308.0
1338.0
1359.0
1368.0
1365.0
1349.0
1319.0
1273.0
1213.0
1147.0
1083.0
1037.0
1004.0
987.0
980.0
978.0
975.0
968.0
961.0
950.0
944.0
938.0
935.0
937.0
938.0
938.0
938.0
937.0
935.0
933.0
929.0
929.0
928.0
929.0
932.0
932.0
932.0
933.0
931.0
930.0
927.0
926.0
925.0
924.0
923.0
922.0
923.0
927.0
926.0
928.0
930.0
926.0
927.0
924.0
922.0
920.0
920.0
917.0
917.0
917.0
917.0
916.0
909.0
909.0
907.0
903.0
900.0
896.0
895.0
893.0
892.0
889.0
888.0
885.0
884.0
881.0
880.0
877.0
877.0
876.0
876.0
875.0
874.0
876.0
879.0
878.0
881.0
880.0
881.0
885.0
889.0
896.0
899.0
903.0
910.0
913.0
922.0
924.0
929.0
935.0
939.0
942.0
947.0
952.0
956.0
961.0
964.0
966.0
967.0
969.0
970.0
970.0
970.0
969.0
969.0
971.0
971.0
975.0
982.0
988.0
992.0
997.0
1004.0
1009.0
1016.0
1024.0
1033.0
1046.0
1061.0
1077.0
1093.0
1114.0
1135.0
1155.0
1167.0
1166.0
1148.0
1113.0
1055.0
980.0
901.0
825.0
759.0
713.0
677.0
650.0
630.0
612.0
594.0
577.0
566.0
562.0
563.0
571.0
580.0
597.0
616.0
638.0
661.0
688.0
710.0
731.0
748.0
768.0
789.0
815.0
841.0
864.0
884.0
898.0
909.0
918.0
930.0
949.0
976.0
1006.0
1037.0
1060.0
1073.0
1078.0
1078.0
1070.0
1066.0
1062.0
1061.0
1062.0
1065.0
1064.0
1066.0
1070.0
1074.0
1080.0
1082.0
1085.0
1089.0
1088.0
1091.0
1093.0
1094.0
1098.0
1099.0
1102.0
1107.0
1110.0
1116.0
1118.0
1124.0
1125.0
1127.0
1130.0
1134.0
1138.0
1141.0
1148.0
1153.0
1158.0
1164.0
1166.0
1170.0
1172.0
1173.0
1174.0
1174.0
1177.0
1179.0
1180.0
1178.0
1178.0
1178.0
1174.0
1173.0
1169.0
1163.0
1158.0
1150.0
1144.0
1137.0
1131.0
1124.0
1118.0
1114.0
1108.0
1100.0
1093.0
