# Simple Text Format
# Sampling Rate (Hz):= 360.00
# Resolution:= 12
# Labels:= ECG
1131.0
1172.0
1211.0
1250.0
1287.0
1321.0
1351.0
1378.0
1396.0
1403.0
1399.0
1380.0
1347.0
1297.0
1234.0
1165.0
1105.0
1064.0
1035.0
1024.0
1020.0
1016.0
1014.0
1009.0
1000.0
989.0
978.0
974.0
972.0
972.0
972.0
975.0
973.0
975.0
976.0
973.0
972.0
972.0
969.0
966.0
970.0
969.0
972.0
972.0
974.0
973.0
971.0
969.0
967.0
965.0
963.0
963.0
962.0
963.0
965.0
965.0
967.0
967.0
967.0
966.0
961.0
960.0
958.0
954.0
953.0
954.0
954.0
956.0
956.0
954.0
952.0
948.0
943.0
938.0
934.0
931.0
928.0
931.0
928.0
928.0
929.0
926.0
923.0
919.0
917.0
915.0
914.0
915.0
918.0
921.0
921.0
924.0
926.0
927.0
929.0
931.0
933.0
939.0
941.0
948.0
953.0
959.0
967.0
969.0
977.0
978.0
984.0
986.0
984.0
990.0
991.0
996.0
998.0
1000.0
1004.0
1005.0
1006.0
1005.0
1006.0
1006.0
1006.0
1005.0
1002.0
1005.0
1003.0
1006.0
1007.0
1006.0
1007.0
1008.0
1009.0
1006.0
1004.0
1003.0
1002.0
1004.0
1002.0
1003.0
1005.0
1006.0
1006.0
1005.0
1008.0
1007.0
1007.0
1007.0
1009.0
1012.0
1012.0
1016.0
1018.0
1024.0
1028.0
1032.0
1032.0
1033.0
1038.0
1039.0
1043.0
1051.0
1056.0
1061.0
1065.0
1068.0
1068.0
1064.0
1061.0
1057.0
1054.0
1053.0
1056.0
1058.0
1057.0
1052.0
1049.0
1044.0
1037.0
1028.0
1023.0
1014.0
1007.0
1004.0
1001.0
996.0
991.0
988.0
990.0
993.0
997.0
998.0
1002.0
999.0
1001.0
997.0
996.0
996.0
992.0
992.0
998.0
1013.0
1033.0
1060.0
1095.0
1135.0
1174.0
1211.0
1244.0
1281.0
1314.0
1349.0
1373.0
1389.0
1391.0
1382.0
1357.0
1315.0
1256.0
1185.0
1111.0
1060.0
1022.0
1007.0
1001.0
1004.0
1005.0
1001.0
993.0
980.0
968.0
958.0
956.0
955.0
958.0
959.0
962.0
963.0
961.0
959.0
956.0
952.0
950.0
946.0
946.0
947.0
951.0
955.0
959.0
961.0
962.0
957.0
953.0
947.0
947.0
946.0
946.0
945.0
945.0
944.0
942.0
941.0
939.0
941.0
940.0
938.0
938.0
937.0
932.0
928.0
922.0
924.0
925.0
923.0
921.0
915.0
914.0
911.0
910.0
907.0
905.0
903.0
901.0
899.0
895.0
896.0
897.0
894.0
894.0
891.0
893.0
894.0
898.0
902.0
904.0
908.0
914.0
919.0
923.0
928.0
933.0
938.0
943.0
950.0
959.0
964.0
968.0
974.0
975.0
979.0
981.0
979.0
981.0
982.0
980.0
983.0
984.0
985.0
987.0
988.0
988.0
990.0
989.0
989.0
988.0
984.0
984.0
981.0
982.0
983.0
980.0
986.0
986.0
990.0
990.0
989.0
991.0
989.0
989.0
986.0
984.0
986.0
984.0
985.0
988.0
990.0
992.0
994.0
998.0
1001.0
1004.0
1005.0
1004.0
1005.0
1006.0
1008.0
1011.0
1014.0
1022.0
1028.0
1034.0
1043.0
1048.0
1049.0
1047.0
1046.0
1040.0
1035.0
1033.0
1034.0
1042.0
1047.0
1051.0
1048.0
1042.0
1033.0
1024.0
1017.0
1010.0
1005.0
999.0
997.0
999.0
999.0
1000.0
999.0
994.0
992.0
985.0
980.0
979.0
978.0
983.0
991.0
992.0
993.0
990.0
990.0
986.0
983.0
979.0
980.0
983.0
994.0
1017.0
1048.0
1095.0
1142.0
1186.0
1225.0
1258.0
1294.0
1330.0
1353.0
1370.0
1372.0
1359.0
1324.0
1270.0
1197.0
1122.0
1061.0
1021.0
1002.0
996.0
1000.0
1004.0
1005.0
996.0
986.0
973.0
961.0
956.0
956.0
957.0
959.0
960.0
960.0
962.0
961.0
960.0
959.0
959.0
959.0
961.0
960.0
958.0
953.0
951.0
951.0
952.0
955.0
958.0
961.0
962.0
959.0
961.0
956.0
953.0
947.0
943.0
942.0
944.0
951.0
949.0
950.0
950.0
946.0
946.0
947.0
946.0
942.0
936.0
934.0
931.0
931.0
929.0
928.0
927.0
921.0
921.0
917.0
914.0
914.0
912.0
913.0
912.0
911.0
913.0
914.0
916.0
917.0
921.0
920.0
919.0
919.0
920.0
923.0
931.0
941.0
947.0
954.0
960.0
962.0
962.0
966.0
968.0
971.0
972.0
980.0
983.0
987.0
989.0
989.0
989.0
989.0
992.0
992.0
992.0
991.0
987.0
985.0
983.0
985.0
986.0
990.0
990.0
988.0
988.0
988.0
989.0
988.0
986.0
985.0
985.0
986.0
987.0
989.0
993.0
992.0
992.0
989.0
986.0
987.0
990.0
994.0
999.0
1007.0
1011.0
1015.0
1019.0
1020.0
1018.0
1018.0
1020.0
1023.0
1027.0
1033.0
1041.0
1046.0
1051.0
1048.0
1046.0
1040.0
1039.0
1036.0
1038.0
1043.0
1045.0
1045.0
1042.0
1034.0
1027.0
1021.0
1019.0
1015.0
1009.0
1004.0
1000.0
997.0
998.0
996.0
997.0
994.0
992.0
993.0
996.0
996.0
996.0
994.0
993.0
991.0
992.0
992.0
994.0
996.0
1003.0
1019.0
1046.0
1083.0
1127.0
1166.0
1209.0
1244.0
1277.0
1308.0
1332.0
1344.0
1346.0
1334.0
1311.0
1265.0
1211.0
1146.0
1088.0
1043.0
1017.0
1006.0
1004.0
1009.0
1010.0
1009.0
1003.0
990.0
979.0
968.0
964.0
965.0
968.0
971.0
971.0
971.0
966.0
965.0
965.0
964.0
964.0
964.0
968.0
968.0
970.0
970.0
968.0
964.0
966.0
967.0
968.0
965.0
966.0
958.0
959.0
957.0
959.0
958.0
960.0
962.0
961.0
963.0
962.0
959.0
960.0
956.0
952.0
949.0
946.0
946.0
946.0
942.0
941.0
941.0
940.0
940.0
942.0
938.0
934.0
928.0
925.0
923.0
923.0
924.0
925.0
928.0
927.0
928.0
930.0
927.0
928.0
927.0
929.0
929.0
933.0
940.0
949.0
955.0
956.0
961.0
965.0
970.0
973.0
976.0
982.0
987.0
992.0
998.0
1002.0
1004.0
1009.0
1010.0
1013.0
1012.0
1012.0
1009.0
1007.0
1006.0
1006.0
1008.0
1009.0
1011.0
1016.0
1013.0
1016.0
1014.0
1017.0
1016.0
1017.0
1020.0
1023.0
1026.0
1028.0
1034.0
1041.0
1047.0
1055.0
1062.0
1071.0
1081.0
1096.0
1112.0
1134.0
1163.0
1193.0
1217.0
1231.0
1231.0
1209.0
1164.0
1096.0
1019.0
940.0
874.0
817.0
769.0
729.0
704.0
690.0
682.0
685.0
684.0
687.0
691.0
698.0
707.0
726.0
748.0
769.0
786.0
799.0
810.0
821.0
834.0
850.0
868.0
884.0
900.0
911.0
921.0
923.0
929.0
937.0
951.0
967.0
986.0
1009.0
1029.0
1047.0
1059.0
1067.0
1073.0
1074.0
1077.0
1078.0
1080.0
1083.0
1086.0
1089.0
1089.0
1092.0
1098.0
1098.0
1103.0
1106.0
1110.0
1113.0
1116.0
1121.0
1122.0
1122.0
1127.0
1131.0
1134.0
1136.0
1143.0
1147.0
1152.0
1157.0
1160.0
1165.0
1168.0
1172.0
1175.0
1181.0
1185.0
1191.0
1194.0
1197.0
1200.0
1200.0
1204.0
1204.0
1204.0
1206.0
1204.0
1202.0
1198.0
1192.0
1189.0
1183.0
1176.0
1172.0
1164.0
1159.0
1153.0
1146.0
1142.0
1134.0
1126.0
1119.0
1111.0
1102.0
1097.0
1092.0
1087.0
1084.0
1076.0
1072.0
1066.0
1060.0
1057.0
1052.0
1054.0
1050.0
1051.0
1045.0
1041.0
1039.0
1034.0
1035.0
1032.0
1030.0
1030.0
1029.0
1030.0
1030.0
1030.0
1033.0
1029.0
1030.0
1028.0
1028.0
1027.0
1025.0
1025.0
1026.0
1026.0
1030.0
1030.0
1031.0
1031.0
1031.0
1028.0
1025.0
1022.0
1020.0
1020.0
1022.0
1022.0
1025.0
1026.0
1027.0
1023.0
1024.0
1022.0
1020.0
1018.0
1019.0
1022.0
1022.0
1023.0
1024.0
1024.0
1025.0
1024.0
1025.0
1023.0
1022.0
1020.0
1020.0
1019.0
1018.0
1019.0
1020.0
1022.0
1023.0
1021.0
1021.0
1019.0
1017.0
1016.0
1014.0
1012.0
1015.0
1016.0
1019.0
1022.0
1025.0
1022.0
1023.0
1023.0
1026.0
1027.0
1029.0
1029.0
1031.0
1033.0
1037.0
1043.0
1047.0
1048.0
1051.0
1052.0
1049.0
1051.0
1054.0
1059.0
1066.0
1073.0
1074.0
1077.0
1073.0
1070.0
1069.0
1067.0
1066.0
1069.0
1069.0
1067.0
1063.0
1061.0
1057.0
1051.0
1045.0
1041.0
1039.0
1033.0
1030.0
1022.0
1019.0
1015.0
1009.0
1007.0
1006.0
1006.0
1014.0
1014.0
1015.0
1017.0
1016.0
1013.0
1011.0
1007.0
1006.0
1007.0
1006.0
1013.0
1024.0
1046.0
1075.0
1113.0
1154.0
1194.0
1231.0
1264.0
1300.0
1334.0
1364.0
1385.0
1397.0
1390.0
1369.0
1338.0
1287.0
1224.0
1161.0
1105.0
1065.0
1041.0
1031.0
1029.0
1028.0
1024.0
1015.0
1000.0
988.0
980.0
976.0
974.0
976.0
975.0
979.0
983.0
983.0
981.0
981.0
980.0
979.0
975.0
972.0
971.0
973.0
972.0
971.0
971.0
972.0
973.0
972.0
970.0
969.0
967.0
963.0
963.0
963.0
963.0
966.0
967.0
967.0
967.0
963.0
959.0
954.0
952.0
949.0
948.0
944.0
942.0
940.0
938.0
935.0
935.0
933.0
929.0
923.0
922.0
916.0
913.0
907.0
906.0
905.0
903.0
902.0
901.0
899.0
897.0
897.0
897.0
899.0
898.0
900.0
903.0
910.0
912.0
920.0
922.0
926.0
933.0
938.0
944.0
949.0
958.0
963.0
973.0
976.0
981.0
989.0
991.0
997.0
1000.0
1001.0
1001.0
1004.0
1007.0
1009.0
1012.0
1015.0
1016.0
1019.0
1020.0
1019.0
1018.0
1017.0
1016.0
1016.0
1016.0
1017.0
1015.0
1017.0
1018.0
1018.0
1018.0
1020.0
1019.0
1015.0
1017.0
1017.0
1020.0
1024.0
1027.0
1028.0
1031.0
1032.0
1036.0
1038.0
1039.0
1040.0
1040.0
1040.0
1040.0
1041.0
1048.0
1052.0
1058.0
1066.0
1072.0
1080.0
1082.0
1081.0
1077.0
1070.0
1066.0
1066.0
1069.0
1072.0
1079.0
1079.0
1077.0
1068.0
1061.0
1055.0
1044.0
1039.0
1034.0
1029.0
1027.0
1027.0
1025.0
1025.0
1020.0
1019.0
1013.0
1014.0
1010.0
1011.0
1011.0
1014.0
1016.0
1015.0
1020.0
1021.0
1020.0
1015.0
1017.0
1017.0
1021.0
1025.0
1035.0
1052.0
1083.0
1120.0
1162.0
1203.0
1238.0
1273.0
1305.0
1335.0
1364.0
1381.0
1389.0
1386.0
1373.0
1345.0
1301.0
1246.0
1182.0
1125.0
1080.0
1051.0
1038.0
1030.0
1029.0
1026.0
1022.0
1015.0
1006.0
996.0
988.0
987.0
986.0
991.0
989.0
989.0
990.0
986.0
985.0
981.0
981.0
980.0
983.0
983.0
982.0
979.0
975.0
976.0
976.0
978.0
978.0
979.0
979.0
976.0
975.0
977.0
974.0
974.0
975.0
973.0
970.0
966.0
965.0
963.0
963.0
964.0
964.0
964.0
961.0
957.0
955.0
952.0
951.0
950.0
947.0
947.0
944.0
943.0
939.0
938.0
936.0
933.0
930.0
926.0
925.0
923.0
925.0
928.0
929.0
927.0
929.0
930.0
931.0
934.0
938.0
945.0
950.0
955.0
961.0
966.0
972.0
976.0
977.0
981.0
984.0
986.0
987.0
990.0
997.0
1000.0
1002.0
1003.0
1006.0
1009.0
1006.0
1007.0
1009.0
1009.0
1007.0
1005.0
1006.0
1005.0
1009.0
1009.0
1012.0
1013.0
1014.0
1011.0
1011.0
1006.0
1003.0
1001.0
1002.0
1003.0
1002.0
1006.0
1009.0
1010.0
1010.0
1011.0
1009.0
1009.0
1010.0
1003.0
1006.0
1009.0
1013.0
1015.0
1020.0
1022.0
1025.0
1027.0
1032.0
1032.0
1033.0
1031.0
1035.0
1037.0
1043.0
1052.0
1059.0
1067.0
1072.0
1067.0
1060.0
1056.0
1055.0
1051.0
1053.0
1054.0
1053.0
1055.0
1054.0
1049.0
1043.0
1035.0
1028.0
1018.0
1016.0
1008.0
1007.0
1003.0
1001.0
998.0
996.0
995.0
992.0
995.0
997.0
996.0
997.0
997.0
996.0
997.0
998.0
998.0
1000.0
1000.0
1000.0
1009.0
1017.0
1035.0
1063.0
1104.0
1146.0
1185.0
1226.0
1261.0
1299.0
1332.0
1359.0
1376.0
1381.0
1371.0
1347.0
1308.0
1250.0
1184.0
1120.0
1069.0
1036.0
1021.0
1012.0
1009.0
1006.0
1001.0
995.0
983.0
974.0
964.0
961.0
960.0
962.0
963.0
962.0
963.0
960.0
957.0
954.0
954.0
950.0
951.0
950.0
950.0
950.0
950.0
948.0
949.0
949.0
949.0
948.0
946.0
943.0
944.0
944.0
944.0
942.0
944.0
942.0
942.0
939.0
938.0
932.0
931.0
932.0
931.0
927.0
925.0
926.0
927.0
924.0
922.0
916.0
910.0
905.0
903.0
902.0
902.0
901.0
899.0
899.0
899.0
896.0
894.0
890.0
886.0
882.0
881.0
883.0
884.0
886.0
889.0
891.0
897.0
897.0
901.0
904.0
907.0
910.0
914.0
918.0
924.0
929.0
935.0
942.0
946.0
948.0
953.0
957.0
959.0
959.0
960.0
962.0
966.0
968.0
971.0
971.0
973.0
974.0
970.0
968.0
964.0
966.0
967.0
970.0
970.0
973.0
973.0
973.0
973.0
973.0
973.0
972.0
968.0
969.0
968.0
969.0
966.0
968.0
967.0
969.0
969.0
968.0
970.0
968.0
969.0
967.0
968.0
970.0
971.0
975.0
977.0
982.0
987.0
990.0
993.0
993.0
994.0
992.0
996.0
1001.0
1006.0
1014.0
1021.0
1025.0
1025.0
1023.0
1019.0
1016.0
1014.0
1014.0
1014.0
1014.0
1014.0
1010.0
1003.0
997.0
993.0
991.0
984.0
975.0
969.0
966.0
962.0
958.0
955.0
953.0
952.0
949.0
949.0
948.0
949.0
947.0
946.0
946.0
948.0
947.0
950.0
950.0
948.0
949.0
950.0
952.0
962.0
982.0
1010.0
1046.0
1087.0
1131.0
1172.0
1210.0
1248.0
1282.0
1313.0
1333.0
1342.0
1338.0
1319.0
1285.0
1233.0
1167.0
1098.0
1041.0
998.0
972.0
960.0
955.0
954.0
948.0
942.0
929.0
918.0
912.0
908.0
909.0
910.0
911.0
912.0
909.0
908.0
907.0
903.0
902.0
898.0
899.0
898.0
899.0
899.0
901.0
901.0
901.0
898.0
896.0
894.0
893.0
894.0
892.0
891.0
893.0
895.0
895.0
895.0
891.0
889.0
886.0
884.0
884.0
881.0
879.0
878.0
878.0
877.0
876.0
874.0
870.0
868.0
865.0
861.0
856.0
853.0
852.0
851.0
850.0
851.0
850.0
846.0
847.0
845.0
845.0
847.0
846.0
849.0
850.0
850.0
857.0
864.0
867.0
876.0
880.0
884.0
890.0
894.0
897.0
900.0
905.0
909.0
913.0
919.0
922.0
926.0
927.0
927.0
928.0
927.0
929.0
929.0
929.0
930.0
930.0
934.0
936.0
934.0
931.0
935.0
932.0
930.0
930.0
929.0
929.0
931.0
932.0
936.0
936.0
936.0
936.0
935.0
936.0
933.0
932.0
932.0
932.0
933.0
934.0
939.0
943.0
949.0
953.0
954.0
958.0
960.0
961.0
963.0
965.0
968.0
974.0
982.0
991.0
996.0
1000.0
999.0
994.0
989.0
982.0
981.0
985.0
986.0
986.0
987.0
983.0
980.0
974.0
967.0
961.0
953.0
948.0
943.0
938.0
936.0
934.0
932.0
931.0
928.0
928.0
927.0
927.0
927.0
926.0
926.0
927.0
927.0
928.0
931.0
931.0
932.0
931.0
936.0
941.0
953.0
973.0
1005.0
1040.0
1081.0
1122.0
1159.0
1197.0
1237.0
1275.0
1305.0
1328.0
1332.0
1327.0
1308.0
1276.0
1225.0
1160.0
1095.0
1035.0
989.0
958.0
943.0
935.0
934.0
934.0
929.0
922.0
911.0
902.0
897.0
896.0
897.0
898.0
899.0
899.0
898.0
896.0
894.0
893.0
893.0
892.0
894.0
895.0
895.0
893.0
892.0
890.0
888.0
890.0
889.0
889.0
889.0
888.0
889.0
891.0
891.0
890.0
888.0
885.0
884.0
883.0
882.0
881.0
881.0
880.0
877.0
880.0
878.0
877.0
874.0
873.0
869.0
865.0
863.0
858.0
859.0
857.0
856.0
854.0
852.0
852.0
849.0
844.0
842.0
843.0
841.0
841.0
841.0
844.0
843.0
847.0
853.0
852.0
855.0
855.0
859.0
863.0
863.0
868.0
873.0
880.0
887.0
892.0
899.0
903.0
906.0
908.0
910.0
914.0
915.0
918.0
921.0
923.0
924.0
928.0
932.0
933.0
933.0
935.0
934.0
934.0
934.0
935.0
934.0
935.0
936.0
936.0
937.0
936.0
938.0
936.0
938.0
936.0
936.0
936.0
936.0
934.0
935.0
939.0
942.0
942.0
941.0
939.0
940.0
941.0
941.0
944.0
943.0
944.0
954.0
955.0
963.0
967.0
971.0
972.0
973.0
973.0
976.0
982.0
991.0
997.0
1003.0
1008.0
1007.0
1004.0
999.0
993.0
994.0
994.0
995.0
994.0
991.0
987.0
981.0
977.0
971.0
965.0
960.0
958.0
955.0
950.0
947.0
943.0
941.0
939.0
937.0
937.0
940.0
939.0
941.0
944.0
943.0
942.0
942.0
940.0
940.0
942.0
946.0
956.0
971.0
998.0
1037.0
1079.0
1125.0
1166.0
1206.0
1249.0
1287.0
1319.0
1344.0
1352.0
1348.0
1329.0
1293.0
1235.0
1167.0
1096.0
1035.0
991.0
963.0
951.0
947.0
951.0
952.0
946.0
939.0
930.0
923.0
918.0
918.0
916.0
918.0
917.0
915.0
917.0
918.0
916.0
918.0
918.0
915.0
914.0
915.0
914.0
913.0
915.0
913.0
917.0
916.0
917.0
916.0
914.0
914.0
911.0
909.0
909.0
909.0
912.0
909.0
909.0
910.0
909.0
909.0
905.0
905.0
900.0
900.0
897.0
895.0
892.0
892.0
892.0
889.0
888.0
885.0
881.0
879.0
875.0
871.0
874.0
871.0
870.0
869.0
871.0
873.0
873.0
875.0
874.0
876.0
876.0
881.0
885.0
889.0
894.0
897.0
907.0
912.0
916.0
923.0
924.0
927.0
932.0
935.0
941.0
945.0
945.0
948.0
954.0
958.0
960.0
962.0
963.0
962.0
959.0
960.0
961.0
961.0
965.0
966.0
966.0
967.0
966.0
969.0
968.0
966.0
965.0
963.0
962.0
963.0
963.0
965.0
965.0
967.0
967.0
969.0
967.0
967.0
969.0
969.0
972.0
972.0
975.0
977.0
981.0
985.0
990.0
993.0
995.0
997.0
997.0
997.0
998.0
1001.0
1008.0
1014.0
1023.0
1031.0
1035.0
1036.0
1032.0
1028.0
1025.0
1019.0
1019.0
1022.0
1025.0
1029.0
1031.0
1026.0
1021.0
1015.0
1007.0
999.0
992.0
988.0
983.0
979.0
977.0
977.0
977.0
974.0
970.0
969.0
969.0
969.0
968.0
968.0
969.0
971.0
972.0
973.0
975.0
975.0
977.0
976.0
981.0
987.0
1004.0
1028.0
1063.0
1101.0
1143.0
1185.0
1227.0
1266.0
1301.0
1336.0
1362.0
1376.0
1377.0
1363.0
1335.0
1292.0
1232.0
1167.0
1104.0
1052.0
1017.0
996.0
986.0
983.0
982.0
978.0
972.0
962.0
956.0
951.0
952.0
950.0
951.0
950.0
950.0
946.0
944.0
943.0
941.0
939.0
942.0
943.0
944.0
947.0
947.0
947.0
945.0
945.0
944.0
942.0
941.0
938.0
940.0
941.0
942.0
943.0
942.0
944.0
943.0
943.0
939.0
935.0
934.0
933.0
932.0
932.0
932.0
930.0
928.0
927.0
925.0
923.0
919.0
918.0
912.0
911.0
908.0
910.0
907.0
906.0
903.0
901.0
899.0
896.0
893.0
891.0
894.0
895.0
896.0
899.0
903.0
907.0
908.0
913.0
916.0
921.0
926.0
930.0
934.0
940.0
945.0
950.0
956.0
964.0
965.0
971.0
971.0
977.0
977.0
978.0
984.0
984.0
988.0
991.0
989.0
991.0
992.0
992.0
991.0
989.0
989.0
989.0
990.0
992.0
992.0
992.0
992.0
995.0
993.0
994.0
993.0
993.0
993.0
993.0
993.0
992.0
992.0
991.0
995.0
995.0
996.0
999.0
998.0
997.0
999.0
999.0
1001.0
1006.0
1010.0
1016.0
1020.0
1024.0
1027.0
1028.0
1030.0
1029.0
1032.0
1036.0
1041.0
1050.0
1056.0
1062.0
1062.0
1061.0
1057.0
1050.0
1046.0
1045.0
1046.0
1047.0
1049.0
1046.0
1044.0
1040.0
1036.0
1033.0
1027.0
1021.0
1013.0
1007.0
1004.0
999.0
997.0
992.0
992.0
990.0
991.0
993.0
992.0
990.0
990.0
987.0
989.0
989.0
991.0
991.0
990.0
992.0
989.0
991.0
996.0
1007.0
1024.0
1051.0
1085.0
1123.0
1163.0
1198.0
1237.0
1274.0
1308.0
1345.0
1367.0
1383.0
1386.0
1377.0
1350.0
1311.0
1253.0
1189.0
1124.0
1073.0
1036.0
1013.0
1003.0
1002.0
1001.0
998.0
992.0
983.0
976.0
968.0
964.0
963.0
962.0
964.0
964.0
965.0
964.0
960.0
958.0
958.0
956.0
956.0
958.0
959.0
960.0
960.0
959.0
957.0
957.0
956.0
954.0
953.0
954.0
953.0
954.0
953.0
955.0
956.0
955.0
951.0
952.0
947.0
945.0
943.0
943.0
944.0
945.0
942.0
940.0
942.0
940.0
937.0
935.0
932.0
928.0
926.0
923.0
921.0
917.0
916.0
916.0
915.0
916.0
915.0
911.0
909.0
907.0
907.0
907.0
906.0
909.0
910.0
915.0
917.0
917.0
918.0
918.0
922.0
927.0
930.0
937.0
935.0
941.0
947.0
952.0
962.0
966.0
971.0
969.0
977.0
979.0
982.0
985.0
987.0
989.0
994.0
996.0
997.0
997.0
1001.0
1000.0
998.0
997.0
997.0
996.0
998.0
1000.0
1000.0
1000.0
1002.0
1004.0
1003.0
1001.0
1002.0
1000.0
1000.0
1001.0
1001.0
999.0
1002.0
1002.0
1001.0
1000.0
1005.0
1005.0
1005.0
1004.0
1004.0
1003.0
1007.0
1011.0
1011.0
1017.0
1022.0
1025.0
1031.0
1032.0
1034.0
1030.0
1033.0
1036.0
1044.0
1050.0
1057.0
1062.0
1067.0
1070.0
1065.0
1060.0
1057.0
1055.0
1055.0
1056.0
1056.0
1055.0
1052.0
1048.0
1043.0
1037.0
1028.0
1023.0
1020.0
1015.0
1009.0
1005.0
1001.0
1001.0
998.0
998.0
998.0
998.0
996.0
996.0
997.0
995.0
996.0
999.0
999.0
997.0
997.0
1000.0
1006.0
1015.0
1032.0
1061.0
1095.0
1137.0
1176.0
1218.0
1257.0
1295.0
1332.0
1363.0
1384.0
1391.0
1387.0
1373.0
1343.0
1298.0
1240.0
1176.0
1119.0
1076.0
1042.0
1023.0
1018.0
1015.0
1009.0
1005.0
996.0
988.0
979.0
973.0
971.0
971.0
970.0
971.0
972.0
972.0
970.0
969.0
970.0
965.0
965.0
964.0
962.0
960.0
964.0
968.0
965.0
969.0
966.0
964.0
963.0
960.0
959.0
958.0
958.0
960.0
961.0
964.0
964.0
962.0
961.0
956.0
955.0
952.0
951.0
950.0
947.0
946.0
946.0
944.0
944.0
942.0
937.0
935.0
931.0
927.0
921.0
920.0
917.0
914.0
915.0
918.0
917.0
918.0
916.0
914.0
913.0
912.0
912.0
912.0
917.0
918.0
923.0
927.0
933.0
937.0
941.0
947.0
951.0
957.0
962.0
965.0
969.0
973.0
980.0
985.0
990.0
992.0
992.0
997.0
1000.0
999.0
999.0
1000.0
999.0
1002.0
1000.0
1002.0
1006.0
1006.0
1006.0
1008.0
1005.0
1003.0
1005.0
1004.0
1005.0
1005.0
1006.0
1008.0
1011.0
1010.0
1009.0
1008.0
1006.0
1009.0
1007.0
1009.0
1006.0
1007.0
1009.0
1012.0
1014.0
1016.0
1019.0
1019.0
1022.0
1023.0
1026.0
1030.0
1031.0
1035.0
1039.0
1041.0
1046.0
1049.0
1054.0
1059.0
1065.0
1070.0
1072.0
1074.0
1072.0
1066.0
1063.0
1062.0
1063.0
1064.0
1066.0
1066.0
1064.0
1062.0
1057.0
1050.0
1040.0
1037.0
1033.0
1026.0
1024.0
1022.0
1019.0
1015.0
1012.0
1009.0
1005.0
1001.0
1001.0
1002.0
1000.0
1005.0
1007.0
1008.0
1008.0
1008.0
1006.0
1006.0
1004.0
1005.0
1006.0
1007.0
1011.0
1021.0
1038.0
1065.0
1096.0
1136.0
1176.0
1213.0
1251.0
1287.0
1323.0
1359.0
1386.0
1400.0
1403.0
1394.0
1371.0
1336.0
1284.0
1219.0
1157.0
1103.0
1064.0
1038.0
1025.0
1021.0
1021.0
1016.0
1011.0
1003.0
989.0
978.0
975.0
971.0
971.0
973.0
971.0
975.0
977.0
974.0
974.0
971.0
967.0
963.0
961.0
958.0
963.0
963.0
964.0
968.0
969.0
969.0
969.0
966.0
964.0
963.0
964.0
964.0
961.0
962.0
963.0
964.0
964.0
964.0
962.0
961.0
959.0
958.0
955.0
953.0
951.0
949.0
949.0
948.0
945.0
944.0
941.0
938.0
934.0
931.0
928.0
926.0
923.0
922.0
922.0
922.0
922.0
921.0
919.0
916.0
917.0
917.0
914.0
916.0
921.0
924.0
926.0
931.0
936.0
944.0
949.0
952.0
957.0
961.0
964.0
968.0
971.0
974.0
984.0
987.0
993.0
998.0
1000.0
1002.0
1000.0
1002.0
1005.0
1004.0
1008.0
1008.0
1011.0
1011.0
1012.0
1013.0
1010.0
1012.0
1012.0
1012.0
1010.0
1009.0
1009.0
1010.0
1012.0
1014.0
1012.0
1012.0
1011.0
1012.0
1011.0
1008.0
1008.0
1009.0
1008.0
1009.0
1009.0
1012.0
1014.0
1015.0
1015.0
1018.0
1021.0
1024.0
1025.0
1030.0
1035.0
1040.0
1040.0
1043.0
1048.0
1055.0
1059.0
1065.0
1070.0
1077.0
1073.0
1072.0
1067.0
1068.0
1066.0
1064.0
1069.0
1070.0
1071.0
1068.0
1062.0
1055.0
1048.0
1041.0
1035.0
1030.0
1024.0
1022.0
1021.0
1016.0
1015.0
1008.0
1003.0
1003.0
1003.0
1002.0
1004.0
1003.0
1009.0
1013.0
1015.0
1014.0
1014.0
1011.0
1009.0
1008.0
1008.0
1014.0
1028.0
1053.0
1085.0
1128.0
1170.0
1212.0
1249.0
1288.0
1325.0
1357.0
1384.0
1399.0
1404.0
1399.0
1383.0
1350.0
1304.0
1240.0
1174.0
1117.0
1072.0
1042.0
1027.0
1020.0
1014.0
1016.0
1011.0
1003.0
996.0
989.0
986.0
979.0
976.0
978.0
976.0
978.0
976.0
978.0
978.0
977.0
980.0
976.0
977.0
974.0
973.0
972.0
968.0
969.0
970.0
970.0
970.0
969.0
972.0
971.0
973.0
970.0
966.0
967.0
965.0
961.0
963.0
960.0
961.0
961.0
963.0
958.0
957.0
955.0
951.0
952.0
946.0
943.0
941.0
937.0
938.0
937.0
935.0
933.0
930.0
928.0
926.0
924.0
920.0
915.0
917.0
918.0
921.0
922.0
927.0
927.0
930.0
932.0
936.0
939.0
942.0
946.0
952.0
958.0
965.0
972.0
979.0
983.0
987.0
990.0
995.0
997.0
1001.0
1001.0
1004.0
1004.0
1010.0
1015.0
1016.0
1019.0
1019.0
1017.0
1017.0
1013.0
1011.0
1012.0
1015.0
1013.0
1014.0
1017.0
1018.0
1017.0
1019.0
1018.0
1020.0
1017.0
1017.0
1017.0
1019.0
1019.0
1017.0
1019.0
1018.0
1020.0
1020.0
1021.0
1020.0
1021.0
1024.0
1023.0
1023.0
1024.0
1029.0
1031.0
1037.0
1039.0
1043.0
1045.0
1050.0
1049.0
1051.0
1052.0
1055.0
1061.0
1070.0
1080.0
1089.0
1091.0
1088.0
1081.0
1078.0
1073.0
1072.0
1072.0
1072.0
1073.0
1071.0
1069.0
1065.0
1060.0
1053.0
1046.0
1041.0
1034.0
1031.0
1025.0
1023.0
1019.0
1018.0
1016.0
1013.0
1014.0
1012.0
1011.0
1011.0
1012.0
1013.0
1015.0
1016.0
1017.0
1017.0
1017.0
1016.0
1018.0
1019.0
1023.0
1034.0
1057.0
1084.0
1123.0
1164.0
1206.0
1242.0
1278.0
1313.0
1345.0
1378.0
1399.0
1410.0
1408.0
1394.0
1366.0
1326.0
1271.0
1207.0
1146.0
1097.0
1060.0
1038.0
1027.0
1021.0
1019.0
1013.0
1003.0
997.0
991.0
989.0
988.0
988.0
988.0
988.0
985.0
984.0
983.0
981.0
978.0
976.0
974.0
978.0
978.0
981.0
980.0
981.0
978.0
977.0
975.0
974.0
971.0
973.0
973.0
973.0
975.0
977.0
976.0
974.0
973.0
970.0
968.0
964.0
961.0
960.0
961.0
961.0
960.0
957.0
955.0
954.0
951.0
947.0
943.0
940.0
935.0
933.0
933.0
931.0
932.0
933.0
930.0
931.0
931.0
928.0
925.0
925.0
927.0
927.0
929.0
930.0
932.0
939.0
946.0
949.0
955.0
958.0
961.0
967.0
969.0
974.0
978.0
986.0
990.0
996.0
1001.0
1004.0
1006.0
1009.0
1008.0
1010.0
1009.0
1011.0
1012.0
1012.0
1012.0
1014.0
1015.0
1014.0
1016.0
1015.0
1012.0
1013.0
1011.0
1011.0
1012.0
1013.0
1015.0
1017.0
1016.0
1017.0
1018.0
1017.0
1017.0
1016.0
1017.0
1015.0
1012.0
1013.0
1017.0
1017.0
1019.0
1021.0
1022.0
1023.0
1024.0
1023.0
1025.0
1029.0
1031.0
1036.0
1040.0
1044.0
1045.0
1047.0
1048.0
1050.0
1052.0
1056.0
1065.0
1070.0
1076.0
1083.0
1083.0
1079.0
1075.0
1068.0
1066.0
1067.0
1069.0
1071.0
1071.0
1068.0
1065.0
1058.0
1055.0
1047.0
1043.0
1038.0
1032.0
1028.0
1024.0
1020.0
1016.0
1015.0
1013.0
1013.0
1012.0
1013.0
1011.0
1012.0
1011.0
1012.0
1013.0
1011.0
1011.0
1012.0
1012.0
1013.0
1013.0
1016.0
1020.0
1032.0
1049.0
1076.0
1111.0
1153.0
1191.0
1227.0
1259.0
1298.0
1333.0
1366.0
1390.0
1405.0
1407.0
1397.0
1371.0
1333.0
1276.0
1210.0
1148.0
1099.0
1062.0
1041.0
1029.0
1023.0
1023.0
1016.0
1008.0
998.0
988.0
981.0
981.0
982.0
985.0
987.0
987.0
984.0
983.0
981.0
980.0
979.0
976.0
976.0
974.0
976.0
975.0
979.0
981.0
981.0
978.0
977.0
976.0
975.0
973.0
974.0
973.0
972.0
973.0
973.0
974.0
975.0
973.0
970.0
967.0
964.0
961.0
961.0
959.0
959.0
956.0
954.0
954.0
952.0
949.0
944.0
940.0
937.0
934.0
933.0
931.0
930.0
929.0
928.0
927.0
928.0
927.0
928.0
926.0
927.0
929.0
930.0
931.0
935.0
941.0
945.0
948.0
954.0
961.0
964.0
969.0
975.0
978.0
984.0
988.0
993.0
997.0
1003.0
1008.0
1009.0
1014.0
1014.0
1014.0
1014.0
1017.0
1016.0
1018.0
1020.0
1021.0
1021.0
1022.0
1023.0
1020.0
1020.0
1022.0
1020.0
1018.0
1019.0
1021.0
1021.0
1023.0
1022.0
1023.0
1023.0
1022.0
1020.0
1021.0
1021.0
1020.0
1022.0
1022.0
1023.0
1023.0
1025.0
1029.0
1030.0
1032.0
1031.0
1037.0
1040.0
1042.0
1047.0
1049.0
1053.0
1054.0
1058.0
1065.0
1072.0
1078.0
1084.0
1086.0
1085.0
1084.0
1077.0
1075.0
1074.0
1076.0
1076.0
1077.0
1076.0
1073.0
1067.0
1060.0
1053.0
1049.0
1042.0
1038.0
1034.0
1031.0
1029.0
1024.0
1022.0
1016.0
1013.0
1010.0
1010.0
1010.0
1010.0
1012.0
1014.0
1015.0
1017.0
1016.0
1015.0
1015.0
1013.0
1011.0
1010.0
1014.0
1019.0
1034.0
1061.0
1093.0
1132.0
1171.0
1211.0
1251.0
