# Simple Text Format
# Sampling Rate (Hz):= 360.00
# Resolution:= 12
# Labels:= ECG
892.0
890.0
891.0
897.0
903.0
904.0
908.0
905.0
902.0
901.0
903.0
908.0
913.0
916.0
915.0
920.0
917.0
914.0
917.0
919.0
925.0
929.0
936.0
944.0
952.0
959.0
966.0
968.0
969.0
966.0
962.0
957.0
957.0
955.0
960.0
963.0
962.0
958.0
953.0
950.0
944.0
936.0
929.0
921.0
915.0
914.0
915.0
916.0
912.0
909.0
906.0
902.0
900.0
900.0
899.0
899.0
901.0
905.0
905.0
908.0
906.0
907.0
908.0
915.0
926.0
948.0
978.0
1011.0
1047.0
1083.0
1118.0
1152.0
1185.0
1220.0
1253.0
1274.0
1278.0
1275.0
1256.0
1223.0
1179.0
1120.0
1064.0
1010.0
966.0
935.0
918.0
911.0
908.0
907.0
903.0
894.0
884.0
876.0
871.0
872.0
874.0
877.0
878.0
878.0
880.0
879.0
876.0
878.0
875.0
873.0
870.0
868.0
867.0
867.0
871.0
880.0
883.0
889.0
889.0
884.0
876.0
869.0
864.0
866.0
872.0
874.0
876.0
879.0
876.0
872.0
866.0
868.0
868.0
867.0
865.0
862.0
858.0
856.0
852.0
851.0
852.0
851.0
851.0
848.0
841.0
838.0
837.0
834.0
831.0
831.0
833.0
835.0
838.0
841.0
843.0
838.0
827.0
817.0
812.0
812.0
817.0
826.0
834.0
843.0
848.0
849.0
850.0
849.0
851.0
853.0
859.0
868.0
877.0
885.0
890.0
894.0
902.0
907.0
909.0
912.0
911.0
912.0
907.0
905.0
907.0
911.0
917.0
918.0
917.0
913.0
910.0
907.0
911.0
913.0
919.0
927.0
936.0
948.0
958.0
964.0
972.0
975.0
979.0
990.0
1008.0
1028.0
1050.0
1070.0
1079.0
1080.0
1069.0
1048.0
1018.0
973.0
919.0
859.0
808.0
761.0
720.0
691.0
662.0
637.0
612.0
584.0
559.0
544.0
533.0
530.0
533.0
539.0
553.0
570.0
597.0
622.0
653.0
675.0
692.0
699.0
702.0
706.0
717.0
734.0
757.0
789.0
810.0
826.0
838.0
845.0
852.0
857.0
868.0
887.0
910.0
933.0
953.0
967.0
975.0
977.0
976.0
973.0
972.0
970.0
972.0
971.0
970.0
973.0
969.0
970.0
971.0
973.0
983.0
991.0
1002.0
1007.0
1008.0
1005.0
999.0
997.0
998.0
1002.0
1010.0
1018.0
1022.0
1026.0
1034.0
1039.0
1045.0
1044.0
1043.0
1044.0
1042.0
1045.0
1049.0
1052.0
1059.0
1064.0
1074.0
1079.0
1084.0
1080.0
1079.0
1077.0
1071.0
1065.0
1062.0
1065.0
1062.0
1067.0
1067.0
1065.0
1059.0
1051.0
1039.0
1028.0
1022.0
1016.0
1012.0
1009.0
1001.0
991.0
981.0
975.0
970.0
965.0
961.0
955.0
947.0
938.0
931.0
926.0
922.0
918.0
919.0
919.0
915.0
911.0
913.0
908.0
903.0
902.0
901.0
900.0
901.0
905.0
908.0
910.0
911.0
909.0
907.0
902.0
900.0
900.0
897.0
898.0
900.0
902.0
905.0
911.0
916.0
914.0
911.0
904.0
899.0
895.0
897.0
902.0
908.0
912.0
914.0
910.0
906.0
898.0
888.0
883.0
884.0
894.0
901.0
907.0
913.0
911.0
909.0
906.0
903.0
901.0
900.0
898.0
893.0
896.0
897.0
899.0
901.0
901.0
902.0
903.0
907.0
903.0
894.0
889.0
886.0
890.0
896.0
903.0
905.0
908.0
908.0
904.0
900.0
895.0
890.0
892.0
891.0
893.0
898.0
901.0
902.0
901.0
901.0
903.0
905.0
909.0
911.0
914.0
916.0
923.0
928.0
934.0
934.0
932.0
930.0
927.0
931.0
939.0
951.0
962.0
967.0
973.0
970.0
961.0
948.0
947.0
946.0
951.0
957.0
959.0
957.0
951.0
944.0
941.0
935.0
934.0
932.0
928.0
920.0
910.0
907.0
908.0
914.0
918.0
913.0
905.0
897.0
896.0
895.0
896.0
898.0
897.0
898.0
905.0
909.0
910.0
910.0
913.0
918.0
933.0
962.0
1000.0
1045.0
1089.0
1133.0
1174.0
1212.0
1248.0
1272.0
1290.0
1296.0
1288.0
1268.0
1231.0
1180.0
1118.0
1052.0
998.0
957.0
930.0
916.0
913.0
910.0
909.0
908.0
905.0
901.0
888.0
872.0
862.0
858.0
862.0
868.0
874.0
877.0
873.0
868.0
863.0
858.0
861.0
863.0
869.0
872.0
871.0
869.0
866.0
867.0
865.0
864.0
865.0
866.0
866.0
868.0
870.0
868.0
867.0
866.0
870.0
871.0
866.0
859.0
852.0
851.0
849.0
853.0
856.0
858.0
855.0
848.0
842.0
840.0
839.0
838.0
838.0
838.0
838.0
829.0
826.0
819.0
810.0
803.0
800.0
798.0
805.0
808.0
815.0
818.0
814.0
806.0
797.0
793.0
797.0
804.0
811.0
817.0
820.0
822.0
826.0
830.0
832.0
830.0
829.0
836.0
844.0
855.0
864.0
870.0
874.0
878.0
883.0
889.0
893.0
899.0
904.0
908.0
913.0
919.0
924.0
933.0
936.0
931.0
918.0
910.0
911.0
919.0
929.0
940.0
946.0
946.0
939.0
926.0
918.0
918.0
925.0
933.0
941.0
943.0
943.0
941.0
939.0
936.0
935.0
932.0
928.0
926.0
929.0
936.0
941.0
946.0
947.0
947.0
948.0
947.0
950.0
955.0
958.0
962.0
968.0
973.0
976.0
978.0
982.0
984.0
987.0
987.0
990.0
995.0
996.0
993.0
993.0
993.0
994.0
994.0
992.0
988.0
982.0
982.0
979.0
973.0
963.0
958.0
953.0
956.0
957.0
958.0
953.0
949.0
938.0
939.0
934.0
935.0
935.0
934.0
935.0
939.0
940.0
939.0
942.0
943.0
943.0
942.0
941.0
941.0
950.0
969.0
997.0
1032.0
1070.0
1112.0
1147.0
1179.0
1210.0
1246.0
1286.0
1321.0
1349.0
1362.0
1361.0
1345.0
1313.0
1263.0
1200.0
1134.0
1079.0
1034.0
1004.0
987.0
978.0
975.0
971.0
967.0
958.0
948.0
939.0
932.0
930.0
931.0
929.0
931.0
930.0
926.0
924.0
924.0
922.0
921.0
921.0
921.0
920.0
920.0
920.0
920.0
921.0
922.0
924.0
924.0
926.0
929.0
925.0
922.0
919.0
916.0
914.0
913.0
920.0
924.0
926.0
927.0
925.0
920.0
912.0
909.0
906.0
904.0
904.0
905.0
905.0
905.0
902.0
904.0
901.0
900.0
901.0
902.0
901.0
897.0
892.0
885.0
880.0
878.0
877.0
880.0
882.0
883.0
884.0
882.0
877.0
876.0
877.0
886.0
894.0
903.0
911.0
916.0
917.0
922.0
925.0
929.0
934.0
939.0
941.0
945.0
953.0
956.0
962.0
965.0
967.0
966.0
967.0
967.0
967.0
967.0
967.0
967.0
966.0
969.0
967.0
968.0
968.0
972.0
977.0
977.0
979.0
979.0
975.0
974.0
972.0
975.0
977.0
977.0
977.0
974.0
973.0
971.0
971.0
972.0
972.0
970.0
968.0
964.0
966.0
969.0
976.0
978.0
980.0
981.0
977.0
976.0
972.0
976.0
979.0
983.0
987.0
992.0
996.0
999.0
1004.0
1002.0
1000.0
995.0
997.0
998.0
1009.0
1021.0
1032.0
1040.0
1042.0
1037.0
1028.0
1020.0
1015.0
1015.0
1016.0
1020.0
1022.0
1023.0
1018.0
1015.0
1010.0
1004.0
996.0
989.0
983.0
978.0
976.0
974.0
974.0
973.0
971.0
969.0
963.0
961.0
963.0
964.0
965.0
965.0
966.0
966.0
964.0
964.0
961.0
962.0
964.0
968.0
978.0
988.0
1006.0
1029.0
1059.0
1090.0
1127.0
1164.0
1201.0
1241.0
1283.0
1325.0
1354.0
1373.0
1373.0
1362.0
1336.0
1292.0
1234.0
1172.0
1116.0
1069.0
1029.0
1004.0
983.0
977.0
972.0
972.0
968.0
962.0
953.0
943.0
935.0
933.0
933.0
934.0
933.0
932.0
931.0
932.0
931.0
933.0
935.0
934.0
931.0
931.0
931.0
933.0
934.0
932.0
927.0
922.0
922.0
923.0
925.0
926.0
926.0
925.0
920.0
920.0
920.0
919.0
918.0
916.0
913.0
915.0
915.0
915.0
916.0
918.0
916.0
911.0
907.0
901.0
902.0
898.0
896.0
893.0
889.0
883.0
880.0
886.0
885.0
886.0
886.0
884.0
881.0
876.0
874.0
873.0
875.0
879.0
888.0
891.0
893.0
895.0
894.0
892.0
894.0
899.0
904.0
914.0
918.0
925.0
930.0
936.0
941.0
942.0
943.0
946.0
949.0
952.0
959.0
963.0
967.0
972.0
973.0
971.0
968.0
966.0
965.0
965.0
967.0
969.0
967.0
967.0
965.0
967.0
972.0
972.0
969.0
967.0
967.0
967.0
969.0
968.0
967.0
968.0
967.0
966.0
967.0
969.0
967.0
967.0
967.0
964.0
966.0
967.0
969.0
970.0
972.0
975.0
977.0
981.0
986.0
987.0
991.0
990.0
988.0
990.0
992.0
994.0
999.0
1005.0
1009.0
1018.0
1022.0
1026.0
1022.0
1018.0
1012.0
1010.0
1010.0
1010.0
1012.0
1013.0
1012.0
1007.0
1003.0
998.0
988.0
979.0
978.0
977.0
975.0
976.0
974.0
968.0
964.0
961.0
961.0
961.0
962.0
963.0
965.0
967.0
968.0
968.0
966.0
962.0
963.0
965.0
964.0
968.0
976.0
999.0
1029.0
1067.0
1111.0
1151.0
1187.0
1224.0
1264.0
1302.0
1334.0
1356.0
1363.0
1355.0
1339.0
1308.0
1265.0
1211.0
1146.0
1088.0
1037.0
1010.0
990.0
985.0
980.0
975.0
975.0
965.0
955.0
947.0
942.0
935.0
935.0
938.0
942.0
946.0
945.0
941.0
931.0
927.0
921.0
925.0
927.0
927.0
925.0
924.0
923.0
921.0
928.0
934.0
936.0
933.0
925.0
924.0
925.0
929.0
931.0
932.0
931.0
926.0
923.0
923.0
922.0
923.0
924.0
923.0
922.0
916.0
909.0
898.0
896.0
898.0
907.0
913.0
916.0
912.0
909.0
906.0
903.0
898.0
892.0
888.0
883.0
881.0
878.0
877.0
881.0
881.0
879.0
877.0
878.0
878.0
879.0
879.0
880.0
880.0
878.0
879.0
885.0
890.0
898.0
904.0
906.0
912.0
918.0
923.0
927.0
934.0
939.0
944.0
946.0
949.0
954.0
955.0
957.0
959.0
964.0
969.0
970.0
976.0
974.0
972.0
969.0
969.0
966.0
965.0
966.0
966.0
967.0
967.0
971.0
972.0
977.0
979.0
977.0
976.0
970.0
968.0
970.0
974.0
977.0
979.0
976.0
970.0
966.0
965.0
965.0
970.0
973.0
973.0
977.0
980.0
977.0
980.0
980.0
984.0
990.0
992.0
995.0
1000.0
999.0
999.0
1001.0
1005.0
1012.0
1018.0
1024.0
1030.0
1030.0
1024.0
1018.0
1013.0
1011.0
1013.0
1015.0
1014.0
1014.0
1014.0
1008.0
1003.0
996.0
993.0
987.0
981.0
976.0
974.0
970.0
969.0
968.0
969.0
969.0
966.0
962.0
958.0
954.0
952.0
953.0
956.0
960.0
963.0
968.0
973.0
970.0
973.0
975.0
990.0
1012.0
1047.0
1092.0
1140.0
1188.0
1229.0
1267.0
1303.0
1333.0
1355.0
1362.0
1360.0
1344.0
1312.0
1265.0
1199.0
1131.0
1072.0
1028.0
1000.0
986.0
979.0
981.0
982.0
975.0
958.0
944.0
931.0
932.0
936.0
942.0
947.0
949.0
950.0
949.0
948.0
945.0
942.0
932.0
927.0
926.0
937.0
943.0
947.0
943.0
940.0
932.0
931.0
930.0
931.0
934.0
933.0
938.0
934.0
929.0
925.0
922.0
920.0
921.0
920.0
920.0
921.0
921.0
918.0
916.0
910.0
906.0
905.0
902.0
900.0
897.0
890.0
887.0
881.0
881.0
881.0
886.0
888.0
887.0
887.0
887.0
883.0
882.0
881.0
884.0
888.0
894.0
902.0
908.0
912.0
913.0
917.0
919.0
929.0
939.0
950.0
954.0
956.0
954.0
955.0
958.0
965.0
970.0
977.0
980.0
981.0
977.0
976.0
974.0
974.0
974.0
975.0
977.0
978.0
980.0
980.0
981.0
980.0
980.0
983.0
984.0
984.0
981.0
980.0
980.0
979.0
979.0
984.0
986.0
984.0
984.0
982.0
987.0
992.0
997.0
1003.0
1008.0
1013.0
1021.0
1027.0
1030.0
1038.0
1049.0
1063.0
1078.0
1102.0
1123.0
1154.0
1183.0
1212.0
1232.0
1236.0
1219.0
1173.0
1098.0
1002.0
904.0
818.0
751.0
699.0
658.0
624.0
598.0
574.0
559.0
552.0
551.0
555.0
566.0
580.0
599.0
626.0
655.0
682.0
703.0
713.0
710.0
708.0
713.0
726.0
751.0
779.0
807.0
833.0
846.0
852.0
857.0
864.0
878.0
898.0
926.0
957.0
988.0
1016.0
1038.0
1051.0
1060.0
1064.0
1068.0
1075.0
1079.0
1084.0
1088.0
1088.0
1086.0
1087.0
1088.0
1093.0
1100.0
1105.0
1111.0
1118.0
1119.0
1120.0
1123.0
1126.0
1131.0
1137.0
1140.0
1146.0
1149.0
1154.0
1160.0
1167.0
1176.0
1181.0
1183.0
1188.0
1189.0
1194.0
1198.0
1204.0
1212.0
1215.0
1216.0
1218.0
1218.0
1216.0
1215.0
1212.0
1210.0
1208.0
1203.0
1201.0
1195.0
1187.0
1175.0
1165.0
1158.0
1150.0
1149.0
1143.0
1137.0
1130.0
1117.0
1105.0
1093.0
1090.0
1083.0
1080.0
1078.0
1073.0
1069.0
1063.0
1054.0
1044.0
1038.0
1034.0
1030.0
1020.0
1020.0
1019.0
1020.0
1015.0
1011.0
1008.0
1004.0
999.0
996.0
997.0
999.0
1001.0
1003.0
1004.0
1000.0
996.0
991.0
987.0
988.0
992.0
997.0
999.0
998.0
1002.0
1004.0
1006.0
1006.0
1002.0
996.0
988.0
986.0
986.0
991.0
997.0
1002.0
1002.0
999.0
996.0
989.0
984.0
983.0
980.0
981.0
983.0
985.0
986.0
985.0
984.0
984.0
984.0
985.0
985.0
985.0
984.0
982.0
980.0
983.0
983.0
987.0
990.0
987.0
990.0
989.0
990.0
993.0
991.0
987.0
985.0
982.0
977.0
979.0
980.0
978.0
980.0
984.0
988.0
991.0
992.0
995.0
998.0
1000.0
1006.0
1013.0
1018.0
1026.0
1028.0
1029.0
1028.0
1029.0
1032.0
1035.0
1039.0
1038.0
1039.0
1036.0
1037.0
1036.0
1035.0
1030.0
1031.0
1030.0
1034.0
1036.0
1033.0
1023.0
1016.0
1008.0
1003.0
998.0
998.0
993.0
990.0
984.0
978.0
974.0
973.0
971.0
972.0
969.0
968.0
969.0
971.0
975.0
980.0
981.0
982.0
977.0
968.0
966.0
967.0
975.0
985.0
1005.0
1027.0
1062.0
1103.0
1145.0
1187.0
1229.0
1265.0
1300.0
1331.0
1354.0
1367.0
1369.0
1357.0
1324.0
1275.0
1211.0
1142.0
1075.0
1028.0
999.0
982.0
976.0
975.0
971.0
967.0
959.0
951.0
943.0
933.0
926.0
923.0
923.0
923.0
925.0
929.0
931.0
933.0
929.0
925.0
921.0
914.0
910.0
913.0
913.0
917.0
921.0
923.0
920.0
917.0
918.0
919.0
924.0
926.0
920.0
914.0
910.0
909.0
912.0
915.0
917.0
916.0
912.0
908.0
904.0
900.0
896.0
897.0
897.0
897.0
897.0
893.0
889.0
886.0
878.0
873.0
868.0
864.0
861.0
861.0
857.0
857.0
854.0
852.0
846.0
843.0
839.0
838.0
837.0
835.0
837.0
834.0
833.0
833.0
839.0
846.0
850.0
851.0
844.0
842.0
845.0
854.0
865.0
878.0
886.0
889.0
894.0
896.0
901.0
906.0
912.0
921.0
928.0
931.0
933.0
931.0
933.0
936.0
943.0
951.0
957.0
960.0
957.0
950.0
942.0
943.0
945.0
947.0
954.0
956.0
955.0
952.0
949.0
949.0
949.0
949.0
950.0
950.0
949.0
948.0
947.0
953.0
955.0
953.0
953.0
952.0
950.0
949.0
947.0
946.0
948.0
946.0
949.0
961.0
968.0
974.0
975.0
978.0
978.0
979.0
981.0
982.0
987.0
992.0
995.0
998.0
1001.0
1007.0
1017.0
1016.0
1010.0
1005.0
999.0
995.0
998.0
1002.0
1005.0
1002.0
994.0
988.0
979.0
970.0
965.0
961.0
959.0
958.0
955.0
950.0
944.0
940.0
937.0
938.0
942.0
947.0
951.0
947.0
947.0
946.0
947.0
950.0
951.0
948.0
950.0
951.0
961.0
979.0
1008.0
1046.0
1091.0
1136.0
1181.0
1222.0
1259.0
1296.0
1325.0
1341.0
1346.0
1342.0
1315.0
1275.0
1212.0
1139.0
1069.0
1015.0
975.0
953.0
944.0
944.0
943.0
944.0
941.0
932.0
924.0
917.0
913.0
910.0
908.0
908.0
908.0
913.0
917.0
922.0
925.0
923.0
920.0
913.0
909.0
906.0
907.0
909.0
910.0
912.0
915.0
915.0
912.0
906.0
904.0
905.0
903.0
902.0
902.0
899.0
899.0
904.0
907.0
905.0
902.0
896.0
897.0
895.0
896.0
895.0
892.0
891.0
889.0
889.0
887.0
884.0
879.0
878.0
876.0
878.0
877.0
875.0
874.0
868.0
864.0
863.0
862.0
863.0
861.0
861.0
866.0
868.0
870.0
868.0
866.0
866.0
870.0
878.0
889.0
899.0
903.0
907.0
910.0
910.0
910.0
912.0
914.0
918.0
926.0
934.0
942.0
946.0
948.0
946.0
948.0
948.0
951.0
951.0
953.0
950.0
948.0
947.0
949.0
950.0
950.0
951.0
958.0
960.0
960.0
955.0
950.0
948.0
950.0
950.0
955.0
956.0
954.0
951.0
951.0
952.0
956.0
958.0
956.0
955.0
955.0
950.0
948.0
945.0
946.0
949.0
955.0
952.0
951.0
948.0
949.0
952.0
956.0
960.0
963.0
969.0
973.0
976.0
980.0
981.0
982.0
981.0
985.0
988.0
993.0
1003.0
1016.0
1024.0
1029.0
1027.0
1022.0
1013.0
1007.0
1003.0
1001.0
1001.0
999.0
999.0
1002.0
1004.0
1007.0
1002.0
993.0
979.0
968.0
960.0
960.0
961.0
961.0
961.0
956.0
952.0
950.0
951.0
956.0
955.0
957.0
954.0
953.0
954.0
954.0
956.0
953.0
950.0
952.0
959.0
974.0
996.0
1030.0
1072.0
1114.0
1156.0
1194.0
1230.0
1266.0
1306.0
1335.0
1357.0
1362.0
1355.0
1334.0
1297.0
1248.0
1184.0
1116.0
1062.0
1020.0
995.0
977.0
970.0
968.0
968.0
960.0
951.0
932.0
924.0
917.0
918.0
925.0
930.0
932.0
931.0
931.0
928.0
924.0
921.0
921.0
920.0
923.0
925.0
927.0
927.0
922.0
920.0
919.0
920.0
922.0
925.0
925.0
924.0
920.0
918.0
918.0
915.0
914.0
914.0
912.0
915.0
913.0
909.0
908.0
905.0
908.0
910.0
910.0
913.0
914.0
908.0
905.0
899.0
894.0
889.0
885.0
882.0
878.0
877.0
879.0
881.0
882.0
881.0
882.0
876.0
872.0
868.0
868.0
868.0
873.0
878.0
885.0
889.0
891.0
889.0
887.0
889.0
893.0
898.0
912.0
918.0
927.0
936.0
939.0
942.0
943.0
947.0
950.0
952.0
959.0
959.0
961.0
962.0
963.0
962.0
960.0
960.0
959.0
963.0
968.0
971.0
973.0
971.0
970.0
971.0
971.0
976.0
972.0
971.0
968.0
970.0
974.0
975.0
976.0
975.0
974.0
975.0
971.0
971.0
969.0
970.0
971.0
977.0
979.0
980.0
979.0
979.0
980.0
980.0
976.0
976.0
980.0
989.0
997.0
1005.0
1014.0
1020.0
1025.0
1026.0
1031.0
1040.0
1054.0
1067.0
1074.0
1077.0
1082.0
1089.0
1101.0
1117.0
1139.0
1161.0
1180.0
1195.0
1213.0
1228.0
1244.0
1262.0
1281.0
1298.0
1315.0
1328.0
1338.0
1338.0
1336.0
1324.0
1294.0
1246.0
1178.0
1093.0
994.0
899.0
815.0
755.0
718.0
696.0
696.0
710.0
731.0
753.0
774.0
787.0
797.0
808.0
823.0
843.0
864.0
886.0
902.0
914.0
923.0
928.0
925.0
919.0
916.0
919.0
923.0
934.0
945.0
945.0
944.0
940.0
936.0
940.0
943.0
940.0
938.0
932.0
929.0
930.0
933.0
936.0
940.0
939.0
935.0
933.0
931.0
933.0
938.0
944.0
948.0
947.0
944.0
936.0
932.0
930.0
928.0
932.0
937.0
940.0
945.0
950.0
957.0
954.0
947.0
939.0
943.0
953.0
967.0
981.0
981.0
972.0
960.0
953.0
954.0
961.0
973.0
987.0
994.0
994.0
987.0
987.0
989.0
998.0
1008.0
1016.0
1026.0
1027.0
1013.0
997.0
993.0
990.0
988.0
980.0
975.0
973.0
975.0
978.0
982.0
982.0
976.0
969.0
966.0
962.0
963.0
964.0
966.0
974.0
979.0
976.0
968.0
961.0
962.0
962.0
960.0
955.0
954.0
956.0
963.0
971.0
979.0
980.0
973.0
958.0
950.0
947.0
947.0
951.0
958.0
962.0
966.0
970.0
977.0
987.0
995.0
994.0
991.0
978.0
963.0
950.0
944.0
941.0
949.0
962.0
973.0
978.0
979.0
976.0
969.0
960.0
955.0
954.0
959.0
965.0
970.0
973.0
972.0
972.0
974.0
975.0
979.0
981.0
979.0
973.0
964.0
962.0
967.0
979.0
985.0
987.0
991.0
989.0
994.0
1001.0
1007.0
1014.0
1018.0
1024.0
1032.0
1043.0
1046.0
1040.0
1034.0
1027.0
1015.0
1002.0
997.0
1001.0
1009.0
1011.0
1008.0
1006.0
1003.0
999.0
992.0
982.0
976.0
969.0
965.0
966.0
967.0
973.0
984.0
995.0
1001.0
993.0
984.0
977.0
972.0
963.0
954.0
952.0
962.0
975.0
984.0
984.0
977.0
973.0
979.0
999.0
1037.0
1092.0
1150.0
1205.0
1252.0
1292.0
1327.0
1357.0
1376.0
1380.0
1369.0
1344.0
1302.0
1245.0
1180.0
1116.0
1059.0
1014.0
983.0
974.0
972.0
974.0
972.0
964.0
954.0
944.0
939.0
945.0
957.0
965.0
957.0
939.0
921.0
911.0
912.0
922.0
931.0
933.0
928.0
915.0
903.0
900.0
904.0
912.0
925.0
932.0
936.0
937.0
929.0
922.0
913.0
912.0
916.0
920.0
926.0
937.0
942.0
942.0
935.0
925.0
919.0
918.0
919.0
918.0
914.0
913.0
911.0
911.0
904.0
899.0
895.0
892.0
894.0
901.0
904.0
903.0
897.0
888.0
881.0
880.0
877.0
871.0
871.0
866.0
865.0
861.0
861.0
865.0
864.0
866.0
870.0
874.0
881.0
886.0
891.0
893.0
892.0
891.0
893.0
899.0
908.0
919.0
934.0
938.0
938.0
934.0
930.0
932.0
940.0
957.0
972.0
978.0
968.0
956.0
950.0
947.0
949.0
952.0
956.0
961.0
966.0
967.0
969.0
967.0
970.0
973.0
984.0
991.0
1001.0
999.0
978.0
953.0
931.0
926.0
939.0
960.0
984.0
1000.0
1005.0
1010.0
1006.0
992.0
972.0
954.0
942.0
939.0
944.0
956.0
969.0
983.0
1001.0
1012.0
1019.0
1021.0
1016.0
999.0
979.0
963.0
956.0
958.0
968.0
990.0
1013.0
1031.0
1043.0
1051.0
1057.0
1058.0
1058.0
1047.0
1032.0
1015.0
1003.0
998.0
1000.0
1011.0
1027.0
1039.0
1050.0
1048.0
1029.0
998.0
960.0
933.0
923.0
929.0
947.0
967.0
979.0
986.0
984.0
977.0
975.0
971.0
968.0
966.0
965.0
970.0
973.0
977.0
979.0
979.0
978.0
977.0
984.0
1005.0
1039.0
1085.0
1138.0
1186.0
1222.0
1257.0
1294.0
1334.0
1372.0
1397.0
1408.0
1389.0
1348.0
1293.0
1231.0
1166.0
1104.0
1053.0
1014.0
986.0
975.0
973.0
976.0
979.0
977.0
969.0
960.0
952.0
950.0
951.0
956.0
954.0
956.0
952.0
951.0
948.0
946.0
945.0
947.0
946.0
945.0
946.0
947.0
945.0
947.0
947.0
949.0
949.0
951.0
954.0
955.0
956.0
956.0
954.0
954.0
952.0
955.0
955.0
950.0
954.0
950.0
939.0
922.0
909.0
904.0
905.0
910.0
918.0
928.0
934.0
936.0
931.0
926.0
917.0
910.0
911.0
911.0
909.0
905.0
899.0
897.0
896.0
898.0
897.0
899.0
904.0
908.0
914.0
919.0
927.0
938.0
945.0
946.0
942.0
940.0
940.0
945.0
952.0
954.0
956.0
960.0
962.0
966.0
970.0
978.0
981.0
983.0
981.0
983.0
982.0
986.0
989.0
990.0
993.0
997.0
998.0
999.0
1002.0
1004.0
1006.0
1006.0
1005.0
1006.0
1012.0
1023.0
1037.0
1057.0
1075.0
1088.0
1094.0
1096.0
1109.0
1126.0
1150.0
1177.0
1195.0
1202.0
1196.0
1174.0
1127.0
1056.0
967.0
874.0
794.0
732.0
687.0
655.0
629.0
608.0
590.0
584.0
583.0
592.0
602.0
614.0
629.0
645.0
664.0
694.0
724.0
751.0
771.0
778.0
784.0
789.0
797.0
810.0
826.0
846.0
868.0
886.0
902.0
914.0
925.0
934.0
940.0
943.0
956.0
977.0
1006.0
1036.0
1065.0
1083.0
1093.0
1096.0
1094.0
1084.0
1076.0
1077.0
1085.0
1099.0
1109.0
1117.0
1123.0
1131.0
1132.0
1119.0
1106.0
1096.0
1098.0
1112.0
1126.0
1141.0
1153.0
1160.0
1164.0
1159.0
1157.0
1158.0
1163.0
1172.0
1179.0
1183.0
1184.0
1185.0
1189.0
1200.0
1211.0
1222.0
1226.0
1230.0
1230.0
1229.0
1229.0
1232.0
1222.0
1215.0
1204.0
1197.0
1197.0
1201.0
1205.0
1207.0
1207.0
1201.0
1186.0
1168.0
1148.0
1129.0
1118.0
1115.0
1114.0
1116.0
1115.0
1115.0
1114.0
1115.0
1112.0
1104.0
1089.0
1068.0
1051.0
1044.0
1042.0
1043.0
1046.0
1041.0
1033.0
1028.0
1020.0
1017.0
1017.0
1023.0
1035.0
1044.0
1043.0
1035.0
1026.0
1021.0
1026.0
1032.0
1024.0
1013.0
1003.0
1003.0
1004.0
1015.0
1018.0
1021.0
1023.0
1032.0
1043.0
1054.0
1053.0
1045.0
1029.0
1011.0
1000.0
1002.0
1010.0
1010.0
1010.0
1011.0
1016.0
1022.0
1031.0
1037.0
1040.0
1043.0
1043.0
1036.0
1023.0
1007.0
993.0
985.0
988.0
998.0
1011.0
1022.0
1024.0
1021.0
1014.0
1010.0
1011.0
1014.0
1019.0
1025.0
1023.0
1020.0
1015.0
1011.0
1005.0
1003.0
1008.0
1018.0
1026.0
1032.0
1025.0
1010.0
999.0
998.0
1002.0
1016.0
1020.0
1016.0
1013.0
1018.0
1034.0
1051.0
1059.0
1047.0
1020.0
989.0
970.0
965.0
974.0
994.0
1016.0
1040.0
1063.0
1076.0
1072.0
1064.0
1057.0
1043.0
1032.0
1025.0
1026.0
1032.0
1042.0
1059.0
1086.0
1111.0
1126.0
1131.0
1128.0
1114.0
1091.0
1068.0
1048.0
1041.0
1048.0
1072.0
1093.0
1093.0
1075.0
1049.0
1032.0
1029.0
1036.0
1055.0
1076.0
1089.0
1085.0
1063.0
1035.0
1007.0
994.0
999.0
1007.0
1015.0
1023.0
1034.0
1050.0
1059.0
1049.0
1029.0
1008.0
992.0
986.0
989.0
1002.0
1021.0
1047.0
1069.0
1080.0
1086.0
1093.0
1112.0
1147.0
1190.0
1241.0
1288.0
1337.0
1384.0
1424.0
1449.0
1458.0
1450.0
1427.0
1392.0
1342.0
1278.0
1217.0
1164.0
1127.0
1102.0
1090.0
1079.0
1065.0
1052.0
1042.0
1036.0
1031.0
1024.0
1016.0
1001.0
979.0
961.0
957.0
966.0
983.0
997.0
999.0
1003.0
1008.0
1016.0
1025.0
1026.0
1023.0
1016.0
1003.0
985.0
961.0
945.0
941.0
946.0
964.0
986.0
1009.0
1027.0
1031.0
1024.0
1000.0
980.0
967.0
959.0
954.0
953.0
954.0
955.0
962.0
976.0
992.0
997.0
981.0
952.0
925.0
908.0
910.0
919.0
932.0
937.0
946.0
952.0
946.0
933.0
914.0
903.0
893.0
892.0
897.0
908.0
921.0
920.0
911.0
902.0
900.0
912.0
926.0
938.0
935.0
925.0
911.0
905.0
912.0
933.0
959.0
977.0
978.0
973.0
965.0
948.0
934.0
924.0
934.0
959.0
987.0
997.0
991.0
980.0
979.0
987.0
997.0
1007.0
1007.0
1010.0
1015.0
1017.0
1015.0
1008.0
1004.0
1004.0
1010.0
1023.0
1042.0
1053.0
1045.0
1033.0
1025.0
1029.0
1028.0
1018.0
1011.0
1002.0
1003.0
999.0
999.0
999.0
1002.0
1006.0
1014.0
1019.0
1037.0
1055.0
1055.0
1042.0
1016.0
994.0
983.0
992.0
1007.0
1020.0
1036.0
1047.0
1045.0
1029.0
1015.0
1015.0
1028.0
1047.0
1068.0
1075.0
1070.0
1062.0
1057.0
1060.0
1063.0
1061.0
1064.0
1066.0
1064.0
1057.0
1046.0
1043.0
1049.0
1063.0
1074.0
1072.0
1061.0
1046.0
1035.0
1022.0
1017.0
1021.0
1032.0
1046.0
1054.0
1042.0
1019.0
994.0
978.0
972.0
985.0
1006.0
1021.0
1029.0
1027.0
1020.0
1014.0
1012.0
1005.0
999.0
996.0
999.0
1016.0
1036.0
1051.0
1065.0
1077.0
1104.0
1144.0
1193.0
1239.0
1280.0
1317.0
1351.0
1388.0
1410.0
1423.0
1416.0
1382.0
1326.0
1257.0
1189.0
1134.0
1086.0
1049.0
1020.0
1005.0
1001.0
1009.0
1013.0
1014.0
1011.0
1001.0
986.0
977.0
971.0
977.0
993.0
998.0
993.0
987.0
980.0
975.0
968.0
963.0
959.0
952.0
950.0
957.0
963.0
970.0
971.0
973.0
973.0
976.0
979.0
975.0
972.0
965.0
961.0
968.0
980.0
983.0
972.0
957.0
949.0
943.0
942.0
940.0
942.0
949.0
961.0
975.0
977.0
965.0
947.0
933.0
924.0
925.0
938.0
952.0
955.0
945.0
926.0
914.0
909.0
909.0
920.0
928.0
931.0
933.0
931.0
919.0
914.0
917.0
924.0
938.0
957.0
973.0
979.0
976.0
968.0
964.0
967.0
972.0
980.0
986.0
988.0
991.0
996.0
1000.0
1001.0
1003.0
1007.0
1011.0
1020.0
1025.0
1017.0
1008.0
1001.0
995.0
992.0
991.0
992.0
995.0
1001.0
1006.0
1012.0
1019.0
1016.0
1012.0
1003.0
995.0
995.0
1003.0
1011.0
1018.0
1024.0
1029.0
1034.0
1032.0
1019.0
1006.0
1002.0
1006.0
1012.0
1012.0
1007.0
999.0
990.0
992.0
1003.0
1015.0
1029.0
1037.0
1039.0
1030.0
1016.0
1004.0
1003.0
1015.0
1039.0
1063.0
1078.0
1076.0
1073.0
1066.0
1061.0
1062.0
1061.0
1062.0
1065.0
1066.0
1064.0
1058.0
1058.0
1061.0
1069.0
1077.0
1077.0
1064.0
1042.0
1026.0
1016.0
1012.0
1021.0
1022.0
1019.0
1011.0
1002.0
993.0
990.0
992.0
997.0
1002.0
1008.0
1017.0
1016.0
1010.0
1006.0
1001.0
995.0
993.0
998.0
1001.0
1006.0
1018.0
1031.0
1047.0
1067.0
1091.0
1123.0
1160.0
1203.0
1250.0
1299.0
1342.0
1382.0
1409.0
1420.0
1411.0
1396.0
1368.0
1341.0
1294.0
1238.0
1173.0
1110.0
1058.0
1026.0
1013.0
1013.0
1016.0
1016.0
1008.0
999.0
993.0
993.0
992.0
986.0
970.0
956.0
950.0
954.0
964.0
972.0
972.0
976.0
971.0
964.0
960.0
962.0
967.0
964.0
964.0
960.0
953.0
945.0
939.0
936.0
942.0
956.0
968.0
974.0
