# Simple Text Format
# Sampling Rate (Hz):= 360.00
# Resolution:= 12
# Labels:= ECG
980.0
984.0
983.0
984.0
981.0
979.0
983.0
983.0
981.0
981.0
982.0
982.0
985.0
985.0
988.0
989.0
986.0
991.0
992.0
997.0
1000.0
1004.0
1009.0
1012.0
1016.0
1017.0
1019.0
1021.0
1021.0
1027.0
1033.0
1036.0
1042.0
1048.0
1050.0
1049.0
1047.0
1042.0
1041.0
1039.0
1041.0
1041.0
1040.0
1039.0
1035.0
1031.0
1028.0
1022.0
1017.0
1013.0
1008.0
1003.0
998.0
996.0
995.0
989.0
985.0
981.0
983.0
983.0
984.0
986.0
988.0
984.0
984.0
985.0
983.0
982.0
985.0
985.0
984.0
988.0
993.0
1004.0
1026.0
1057.0
1094.0
1136.0
1174.0
1211.0
1245.0
1279.0
1314.0
1343.0
1361.0
1368.0
1364.0
1345.0
1314.0
1267.0
1207.0
1145.0
1088.0
1049.0
1022.0
1007.0
999.0
998.0
996.0
990.0
983.0
974.0
965.0
958.0
951.0
949.0
952.0
953.0
954.0
955.0
955.0
956.0
954.0
951.0
948.0
947.0
946.0
946.0
946.0
945.0
946.0
948.0
948.0
949.0
949.0
947.0
946.0
945.0
945.0
942.0
943.0
943.0
942.0
943.0
944.0
939.0
940.0
939.0
938.0
937.0
932.0
931.0
931.0
930.0
928.0
927.0
926.0
923.0
921.0
918.0
912.0
909.0
906.0
902.0
900.0
897.0
894.0
893.0
890.0
886.0
884.0
881.0
879.0
876.0
873.0
874.0
873.0
874.0
875.0
879.0
881.0
882.0
881.0
886.0
886.0
891.0
895.0
900.0
902.0
909.0
916.0
923.0
929.0
933.0
940.0
947.0
956.0
958.0
962.0
965.0
969.0
974.0
976.0
983.0
984.0
987.0
991.0
989.0
988.0
987.0
985.0
986.0
987.0
990.0
988.0
991.0
991.0
992.0
993.0
991.0
992.0
989.0
989.0
990.0
992.0
992.0
994.0
994.0
992.0
993.0
992.0
991.0
990.0
988.0
988.0
990.0
991.0
992.0
990.0
991.0
994.0
996.0
1000.0
1001.0
1001.0
1006.0
1010.0
1012.0
1015.0
1018.0
1022.0
1025.0
1028.0
1030.0
1033.0
1040.0
1046.0
1052.0
1056.0
1056.0
1054.0
1052.0
1046.0
1046.0
1046.0
1048.0
1048.0
1049.0
1046.0
1041.0
1035.0
1029.0
1023.0
1015.0
1010.0
1007.0
1006.0
1002.0
1000.0
996.0
992.0
989.0
987.0
986.0
986.0
988.0
989.0
990.0
994.0
994.0
994.0
991.0
991.0
990.0
990.0
990.0
987.0
996.0
1005.0
1024.0
1053.0
1089.0
1130.0
1172.0
1211.0
1250.0
1282.0
1316.0
1346.0
1362.0
1367.0
1364.0
1345.0
1311.0
1263.0
1204.0
1142.0
1089.0
1047.0
1022.0
1009.0
1001.0
1001.0
998.0
997.0
986.0
977.0
969.0
965.0
964.0
961.0
962.0
959.0
962.0
963.0
964.0
965.0
964.0
962.0
961.0
961.0
959.0
958.0
957.0
956.0
958.0
959.0
959.0
961.0
959.0
959.0
958.0
957.0
955.0
952.0
952.0
950.0
953.0
950.0
950.0
951.0
951.0
953.0
949.0
946.0
946.0
942.0
942.0
941.0
941.0
940.0
938.0
937.0
933.0
930.0
928.0
925.0
925.0
921.0
920.0
918.0
916.0
916.0
915.0
915.0
915.0
912.0
912.0
912.0
911.0
911.0
912.0
914.0
918.0
920.0
925.0
930.0
933.0
937.0
941.0
943.0
948.0
950.0
956.0
962.0
963.0
969.0
976.0
980.0
981.0
984.0
986.0
989.0
989.0
990.0
991.0
995.0
994.0
996.0
997.0
999.0
999.0
1001.0
997.0
997.0
995.0
995.0
997.0
996.0
998.0
999.0
1000.0
999.0
998.0
999.0
996.0
997.0
997.0
995.0
995.0
996.0
996.0
999.0
999.0
1001.0
1001.0
1000.0
999.0
998.0
997.0
998.0
996.0
999.0
999.0
1003.0
1003.0
1004.0
1009.0
1013.0
1016.0
1019.0
1022.0
1024.0
1028.0
1028.0
1034.0
1037.0
1043.0
1051.0
1057.0
1064.0
1065.0
1064.0
1059.0
1055.0
1052.0
1053.0
1052.0
1055.0
1058.0
1058.0
1054.0
1049.0
1043.0
1037.0
1027.0
1018.0
1014.0
1010.0
1008.0
1005.0
1005.0
1002.0
999.0
998.0
994.0
993.0
992.0
993.0
995.0
995.0
998.0
999.0
998.0
1002.0
1002.0
1003.0
1004.0
1006.0
1014.0
1032.0
1056.0
1097.0
1139.0
1181.0
1225.0
1262.0
1299.0
1332.0
1357.0
1371.0
1370.0
1359.0
1334.0
1298.0
1244.0
1180.0
1124.0
1077.0
1043.0
1022.0
1012.0
1006.0
1001.0
998.0
991.0
986.0
981.0
975.0
971.0
975.0
974.0
975.0
972.0
970.0
970.0
969.0
967.0
965.0
969.0
969.0
970.0
972.0
971.0
970.0
969.0
967.0
966.0
965.0
966.0
964.0
968.0
968.0
970.0
971.0
969.0
968.0
966.0
963.0
963.0
959.0
960.0
957.0
957.0
955.0
954.0
954.0
947.0
949.0
946.0
943.0
941.0
937.0
935.0
932.0
932.0
933.0
930.0
929.0
926.0
925.0
924.0
920.0
920.0
918.0
919.0
918.0
920.0
924.0
927.0
930.0
934.0
937.0
942.0
945.0
947.0
951.0
955.0
961.0
970.0
974.0
978.0
985.0
989.0
993.0
996.0
999.0
1000.0
1002.0
1004.0
1005.0
1008.0
1010.0
1011.0
1018.0
1017.0
1019.0
1019.0
1020.0
1021.0
1023.0
1028.0
1032.0
1038.0
1044.0
1053.0
1065.0
1072.0
1084.0
1095.0
1109.0
1123.0
1138.0
1156.0
1172.0
1184.0
1181.0
1164.0
1125.0
1065.0
991.0
913.0
840.0
777.0
730.0
698.0
675.0
657.0
648.0
635.0
627.0
621.0
622.0
621.0
629.0
642.0
655.0
674.0
695.0
717.0
742.0
766.0
788.0
804.0
820.0
836.0
857.0
879.0
902.0
926.0
945.0
959.0
970.0
980.0
994.0
1014.0
1042.0
1071.0
1097.0
1116.0
1126.0
1127.0
1125.0
1120.0
1113.0
1112.0
1115.0
1117.0
1122.0
1124.0
1125.0
1125.0
1127.0
1129.0
1130.0
1133.0
1134.0
1140.0
1143.0
1146.0
1149.0
1152.0
1151.0
1150.0
1152.0
1155.0
1158.0
1159.0
1165.0
1171.0
1176.0
1178.0
1180.0
1183.0
1184.0
1184.0
1188.0
1193.0
1197.0
1201.0
1208.0
1211.0
1217.0
1218.0
1223.0
1223.0
1224.0
1226.0
1223.0
1225.0
1225.0
1223.0
1222.0
1221.0
1219.0
1216.0
1211.0
1205.0
1200.0
1190.0
1185.0
1178.0
1172.0
1165.0
1161.0
1155.0
1151.0
1143.0
1136.0
1132.0
1124.0
1116.0
1111.0
1106.0
1101.0
1093.0
1093.0
1088.0
1085.0
1080.0
1075.0
1072.0
1068.0
1064.0
1059.0
1059.0
1058.0
1055.0
1053.0
1053.0
1055.0
1054.0
1054.0
1054.0
1047.0
1048.0
1046.0
1048.0
1047.0
1049.0
1048.0
1049.0
1050.0
1050.0
1051.0
1051.0
1050.0
1049.0
1048.0
1046.0
1046.0
1048.0
1047.0
1048.0
1049.0
1046.0
1045.0
1044.0
1043.0
1041.0
1040.0
1044.0
1041.0
1042.0
1040.0
1042.0
1043.0
1043.0
1041.0
1039.0
1039.0
1041.0
1040.0
1038.0
1039.0
1040.0
1037.0
1042.0
1043.0
1039.0
1041.0
1040.0
1039.0
1039.0
1037.0
1037.0
1038.0
1038.0
1038.0
1039.0
1040.0
1041.0
1041.0
1041.0
1038.0
1038.0
1037.0
1036.0
1034.0
1036.0
1036.0
1037.0
1040.0
1035.0
1038.0
1037.0
1036.0
1034.0
1033.0
1036.0
1037.0
1038.0
1042.0
1044.0
1043.0
1042.0
1042.0
1039.0
1036.0
1035.0
1034.0
1034.0
1035.0
1037.0
1040.0
1043.0
1044.0
1045.0
1044.0
1044.0
1047.0
1048.0
1052.0
1054.0
1057.0
1061.0
1062.0
1066.0
1066.0
1068.0
1071.0
1077.0
1078.0
1089.0
1093.0
1099.0
1102.0
1101.0
1098.0
1095.0
1094.0
1092.0
1091.0
1093.0
1093.0
1092.0
1089.0
1083.0
1076.0
1073.0
1069.0
1062.0
1058.0
1055.0
1051.0
1046.0
1042.0
1036.0
1031.0
1029.0
1031.0
1031.0
1030.0
1034.0
1039.0
1038.0
1039.0
1037.0
1037.0
1033.0
1034.0
1031.0
1029.0
1029.0
1035.0
1042.0
1058.0
1077.0
1107.0
1145.0
1181.0
1221.0
1256.0
1290.0
1325.0
1359.0
1386.0
1401.0
1410.0
1405.0
1391.0
1356.0
1309.0
1249.0
1183.0
1126.0
1085.0
1064.0
1058.0
1058.0
1056.0
1053.0
1044.0
1031.0
1020.0
1006.0
995.0
992.0
992.0
995.0
997.0
994.0
995.0
994.0
995.0
995.0
993.0
992.0
990.0
988.0
988.0
985.0
986.0
987.0
989.0
990.0
993.0
991.0
989.0
990.0
986.0
985.0
984.0
986.0
985.0
988.0
987.0
984.0
983.0
978.0
975.0
973.0
975.0
976.0
975.0
977.0
976.0
973.0
970.0
967.0
963.0
961.0
957.0
955.0
951.0
948.0
945.0
944.0
943.0
941.0
940.0
937.0
936.0
928.0
924.0
918.0
914.0
911.0
909.0
909.0
911.0
911.0
914.0
912.0
913.0
910.0
911.0
912.0
913.0
915.0
919.0
925.0
930.0
938.0
943.0
951.0
958.0
963.0
970.0
972.0
974.0
979.0
984.0
987.0
994.0
1000.0
1004.0
1010.0
1017.0
1016.0
1021.0
1025.0
1025.0
1027.0
1027.0
1028.0
1029.0
1031.0
1032.0
1030.0
1032.0
1030.0
1031.0
1028.0
1029.0
1030.0
1029.0
1029.0
1028.0
1031.0
1032.0
1032.0
1032.0
1027.0
1027.0
1028.0
1025.0
1027.0
1029.0
1028.0
1028.0
1028.0
1030.0
1032.0
1031.0
1031.0
1031.0
1028.0
1029.0
1027.0
1031.0
1033.0
1035.0
1037.0
1043.0
1047.0
1050.0
1051.0
1052.0
1052.0
1051.0
1054.0
1057.0
1062.0
1068.0
1076.0
1085.0
1090.0
1092.0
1090.0
1084.0
1080.0
1076.0
1073.0
1077.0
1079.0
1082.0
1084.0
1082.0
1076.0
1069.0
1061.0
1056.0
1048.0
1043.0
1036.0
1035.0
1032.0
1034.0
1030.0
1032.0
1027.0
1027.0
1026.0
1024.0
1026.0
1027.0
1024.0
1022.0
1024.0
1029.0
1030.0
1030.0
1028.0
1030.0
1032.0
1039.0
1051.0
1072.0
1105.0
1145.0
1189.0
1228.0
1263.0
1300.0
1333.0
1363.0
1383.0
1391.0
1386.0
1365.0
1331.0
1277.0
1216.0
1154.0
1104.0
1069.0
1051.0
1044.0
1042.0
1042.0
1038.0
1029.0
1019.0
1009.0
1002.0
999.0
998.0
998.0
998.0
1000.0
997.0
994.0
993.0
995.0
993.0
992.0
992.0
992.0
996.0
996.0
997.0
995.0
994.0
991.0
989.0
989.0
988.0
988.0
989.0
990.0
988.0
988.0
985.0
986.0
986.0
985.0
982.0
981.0
979.0
979.0
978.0
976.0
974.0
977.0
975.0
974.0
971.0
965.0
961.0
960.0
956.0
957.0
953.0
952.0
952.0
951.0
948.0
948.0
944.0
942.0
941.0
935.0
934.0
931.0
934.0
935.0
935.0
939.0
939.0
942.0
945.0
948.0
950.0
953.0
958.0
962.0
967.0
975.0
981.0
986.0
991.0
997.0
1000.0
1003.0
1007.0
1008.0
1011.0
1011.0
1014.0
1016.0
1018.0
1020.0
1020.0
1019.0
1017.0
1017.0
1015.0
1014.0
1012.0
1012.0
1015.0
1019.0
1020.0
1023.0
1020.0
1018.0
1017.0
1017.0
1014.0
1014.0
1013.0
1014.0
1015.0
1016.0
1018.0
1020.0
1018.0
1019.0
1017.0
1017.0
1017.0
1015.0
1013.0
1014.0
1015.0
1016.0
1018.0
1018.0
1020.0
1022.0
1021.0
1023.0
1021.0
1024.0
1024.0
1027.0
1030.0
1034.0
1038.0
1042.0
1044.0
1046.0
1045.0
1055.0
1058.0
1063.0
1068.0
1070.0
1073.0
1072.0
1068.0
1068.0
1065.0
1066.0
1068.0
1069.0
1069.0
1066.0
1061.0
1055.0
1050.0
1043.0
1040.0
1035.0
1029.0
1027.0
1022.0
1020.0
1016.0
1011.0
1005.0
1004.0
1005.0
1003.0
1006.0
1005.0
1007.0
1011.0
1012.0
1010.0
1010.0
1008.0
1008.0
1009.0
1008.0
1010.0
1014.0
1023.0
1038.0
1063.0
1095.0
1131.0
1168.0
1204.0
1237.0
1269.0
1301.0
1331.0
1359.0
1376.0
1380.0
1376.0
1356.0
1323.0
1271.0
1209.0
1144.0
1093.0
1053.0
1031.0
1023.0
1020.0
1019.0
1017.0
1008.0
997.0
985.0
977.0
973.0
972.0
974.0
974.0
974.0
976.0
973.0
975.0
972.0
968.0
964.0
964.0
965.0
965.0
964.0
964.0
965.0
967.0
967.0
966.0
966.0
965.0
963.0
961.0
961.0
962.0
960.0
961.0
959.0
960.0
960.0
961.0
957.0
954.0
952.0
948.0
949.0
946.0
947.0
942.0
941.0
939.0
934.0
930.0
927.0
922.0
917.0
915.0
913.0
912.0
909.0
908.0
908.0
909.0
904.0
905.0
904.0
904.0
906.0
906.0
909.0
911.0
917.0
921.0
924.0
931.0
934.0
940.0
942.0
947.0
949.0
955.0
960.0
966.0
971.0
975.0
981.0
986.0
987.0
990.0
994.0
993.0
995.0
996.0
996.0
996.0
999.0
998.0
1001.0
1002.0
1004.0
1009.0
1012.0
1014.0
1020.0
1028.0
1035.0
1043.0
1056.0
1072.0
1085.0
1099.0
1115.0
1135.0
1156.0
1170.0
1176.0
1168.0
1142.0
1093.0
1026.0
950.0
880.0
818.0
771.0
734.0
711.0
685.0
663.0
642.0
626.0
614.0
611.0
613.0
620.0
634.0
649.0
669.0
689.0
711.0
732.0
753.0
771.0
790.0
812.0
837.0
862.0
886.0
905.0
920.0
933.0
942.0
953.0
967.0
987.0
1011.0
1037.0
1061.0
1079.0
1088.0
1088.0
1083.0
1080.0
1075.0
1073.0
1073.0
1076.0
1078.0
1082.0
1084.0
1085.0
1089.0
1089.0
1092.0
1093.0
1094.0
1093.0
1096.0
1099.0
1103.0
1106.0
1110.0
1113.0
1117.0
1117.0
1121.0
1123.0
1124.0
1125.0
1128.0
1129.0
1137.0
1142.0
1148.0
1149.0
1156.0
1159.0
1163.0
1165.0
1167.0
1168.0
1170.0
1174.0
1175.0
1180.0
1183.0
1186.0
1189.0
1185.0
1186.0
1185.0
1182.0
1177.0
1173.0
1168.0
1166.0
1162.0
1159.0
1154.0
1150.0
1144.0
1137.0
1128.0
1122.0
1116.0
1109.0
1103.0
1096.0
1090.0
1085.0
1081.0
1074.0
1069.0
1066.0
1057.0
1055.0
1051.0
1043.0
1038.0
1036.0
1033.0
1032.0
1026.0
1026.0
1024.0
1025.0
1023.0
1021.0
1018.0
1016.0
1017.0
1014.0
1013.0
1016.0
1013.0
1015.0
1014.0
1016.0
1014.0
1012.0
1011.0
1013.0
1014.0
1014.0
1012.0
1015.0
1015.0
1017.0
1016.0
1015.0
1014.0
1014.0
1011.0
1011.0
1010.0
1007.0
1008.0
1011.0
1009.0
1011.0
1008.0
1010.0
1008.0
1007.0
1007.0
1006.0
1003.0
1005.0
1003.0
1005.0
1005.0
1005.0
1004.0
1004.0
1004.0
1002.0
1003.0
1000.0
1000.0
997.0
1000.0
999.0
1001.0
1002.0
1001.0
1002.0
999.0
999.0
998.0
995.0
997.0
999.0
1000.0
1000.0
1001.0
1002.0
1001.0
999.0
998.0
997.0
995.0
992.0
995.0
997.0
998.0
997.0
999.0
999.0
1000.0
997.0
998.0
997.0
996.0
995.0
995.0
994.0
994.0
995.0
1000.0
1001.0
1002.0
1007.0
1007.0
1012.0
1015.0
1016.0
1020.0
1020.0
1023.0
1026.0
1028.0
1032.0
1036.0
1039.0
1047.0
1052.0
1055.0
1053.0
1053.0
1049.0
1045.0
1044.0
1042.0
1045.0
1047.0
1047.0
1047.0
1041.0
1037.0
1029.0
1023.0
1018.0
1012.0
1008.0
1006.0
1003.0
1001.0
998.0
993.0
990.0
986.0
985.0
984.0
982.0
983.0
986.0
986.0
991.0
991.0
990.0
989.0
987.0
986.0
989.0
995.0
1013.0
1039.0
1076.0
1116.0
1159.0
1200.0
1237.0
1273.0
1309.0
1338.0
1356.0
1368.0
1367.0
1359.0
1334.0
1296.0
1243.0
1179.0
1119.0
1072.0
1037.0
1020.0
1009.0
1005.0
1001.0
998.0
991.0
978.0
969.0
962.0
958.0
955.0
954.0
955.0
955.0
952.0
949.0
950.0
950.0
949.0
947.0
947.0
947.0
945.0
940.0
939.0
939.0
938.0
940.0
940.0
942.0
942.0
944.0
942.0
941.0
939.0
936.0
934.0
934.0
933.0
930.0
929.0
930.0
929.0
931.0
927.0
928.0
924.0
922.0
921.0
918.0
916.0
913.0
913.0
910.0
908.0
904.0
901.0
899.0
895.0
889.0
885.0
883.0
880.0
876.0
876.0
875.0
869.0
868.0
866.0
863.0
863.0
862.0
859.0
858.0
857.0
859.0
861.0
864.0
867.0
872.0
876.0
878.0
880.0
884.0
886.0
889.0
899.0
905.0
911.0
919.0
926.0
930.0
937.0
942.0
945.0
949.0
954.0
957.0
961.0
965.0
971.0
974.0
976.0
979.0
981.0
979.0
983.0
983.0
983.0
982.0
982.0
983.0
982.0
985.0
987.0
984.0
988.0
988.0
988.0
984.0
985.0
980.0
980.0
982.0
983.0
984.0
986.0
985.0
986.0
985.0
982.0
983.0
983.0
982.0
984.0
984.0
982.0
984.0
986.0
986.0
989.0
990.0
990.0
991.0
995.0
998.0
1001.0
1004.0
1010.0
1013.0
1014.0
1014.0
1016.0
1022.0
1026.0
1030.0
1038.0
1039.0
1041.0
1042.0
1040.0
1037.0
1037.0
1037.0
1039.0
1041.0
1040.0
1037.0
1034.0
1028.0
1023.0
1014.0
1008.0
1004.0
999.0
998.0
992.0
989.0
987.0
984.0
982.0
978.0
978.0
979.0
980.0
983.0
983.0
985.0
986.0
984.0
983.0
981.0
981.0
979.0
983.0
993.0
1012.0
1043.0
1078.0
1123.0
1163.0
1203.0
1241.0
1280.0
1312.0
1340.0
1358.0
1364.0
1355.0
1333.0
1293.0
1236.0
1169.0
1108.0
1058.0
1024.0
1003.0
994.0
992.0
991.0
987.0
981.0
973.0
968.0
963.0
961.0
960.0
956.0
956.0
957.0
956.0
954.0
955.0
953.0
953.0
955.0
955.0
955.0
954.0
952.0
950.0
950.0
952.0
951.0
950.0
950.0
953.0
953.0
952.0
951.0
950.0
947.0
945.0
944.0
943.0
943.0
943.0
944.0
941.0
941.0
941.0
936.0
936.0
932.0
931.0
927.0
925.0
924.0
923.0
921.0
919.0
919.0
917.0
915.0
911.0
910.0
907.0
905.0
903.0
903.0
902.0
902.0
904.0
907.0
907.0
907.0
905.0
906.0
905.0
911.0
915.0
918.0
923.0
929.0
937.0
940.0
946.0
951.0
954.0
958.0
960.0
961.0
964.0
970.0
974.0
978.0
981.0
983.0
985.0
986.0
986.0
986.0
985.0
985.0
984.0
984.0
986.0
986.0
987.0
987.0
988.0
989.0
989.0
987.0
987.0
984.0
985.0
984.0
986.0
987.0
986.0
990.0
987.0
989.0
987.0
985.0
985.0
983.0
984.0
981.0
982.0
986.0
985.0
987.0
987.0
986.0
985.0
984.0
987.0
990.0
990.0
994.0
998.0
1002.0
1005.0
1010.0
1013.0
1016.0
1018.0
1019.0
1018.0
1023.0
1030.0
1035.0
1042.0
1047.0
1049.0
1046.0
1044.0
1038.0
1035.0
1035.0
1036.0
1036.0
1034.0
1036.0
1035.0
1030.0
1026.0
1022.0
1017.0
1010.0
1004.0
1000.0
994.0
989.0
989.0
983.0
982.0
984.0
983.0
983.0
983.0
980.0
981.0
981.0
977.0
979.0
977.0
981.0
981.0
981.0
980.0
984.0
982.0
983.0
986.0
997.0
1012.0
1039.0
1076.0
1115.0
1156.0
1190.0
1228.0
1259.0
1293.0
1324.0
1342.0
1352.0
1348.0
1338.0
1316.0
1282.0
1233.0
1178.0
1119.0
1074.0
1035.0
1012.0
997.0
990.0
985.0
980.0
979.0
968.0
960.0
954.0
950.0
950.0
949.0
949.0
948.0
948.0
942.0
940.0
941.0
940.0
939.0
939.0
941.0
943.0
943.0
944.0
942.0
941.0
939.0
936.0
938.0
936.0
938.0
940.0
937.0
942.0
941.0
938.0
937.0
935.0
934.0
933.0
929.0
930.0
929.0
929.0
927.0
929.0
927.0
921.0
923.0
921.0
917.0
913.0
912.0
910.0
907.0
906.0
905.0
904.0
900.0
898.0
893.0
893.0
889.0
888.0
886.0
886.0
883.0
886.0
886.0
885.0
886.0
886.0
889.0
891.0
891.0
895.0
900.0
900.0
906.0
915.0
922.0
928.0
930.0
936.0
942.0
944.0
948.0
952.0
955.0
960.0
963.0
967.0
971.0
975.0
977.0
977.0
973.0
974.0
977.0
976.0
979.0
980.0
985.0
990.0
994.0
1001.0
1007.0
1016.0
1022.0
1030.0
1041.0
1053.0
1063.0
1080.0
1096.0
1117.0
1136.0
1148.0
1144.0
1124.0
1075.0
1007.0
925.0
843.0
774.0
718.0
676.0
650.0
635.0
620.0
608.0
590.0
581.0
577.0
574.0
582.0
592.0
606.0
621.0
642.0
667.0
693.0
716.0
737.0
754.0
769.0
785.0
802.0
824.0
845.0
868.0
886.0
900.0
910.0
918.0
928.0
946.0
965.0
994.0
1022.0
1047.0
1067.0
1078.0
1083.0
1081.0
1077.0
1071.0
1069.0
1066.0
1067.0
1069.0
1071.0
1072.0
1074.0
1076.0
1076.0
1081.0
1084.0
1086.0
1089.0
1090.0
1092.0
1092.0
1093.0
1096.0
1099.0
1101.0
1104.0
1107.0
1113.0
1118.0
1119.0
1120.0
1123.0
1124.0
1127.0
1129.0
1132.0
1136.0
1141.0
1147.0
1152.0
1158.0
1161.0
1164.0
1164.0
1165.0
1169.0
1170.0
1170.0
1174.0
1176.0
1178.0
1180.0
1180.0
1177.0
1173.0
1171.0
1168.0
1162.0
1159.0
1154.0
1151.0
1145.0
1141.0
1135.0
1129.0
1122.0
1115.0
1108.0
1099.0
1088.0
1082.0
1074.0
1069.0
1062.0
1057.0
1052.0
1046.0
1042.0
1035.0
1030.0
1026.0
1021.0
1017.0
1014.0
1011.0
1008.0
1006.0
1006.0
1002.0
1001.0
999.0
997.0
991.0
991.0
992.0
992.0
988.0
989.0
990.0
992.0
990.0
992.0
990.0
989.0
987.0
989.0
989.0
987.0
987.0
989.0
992.0
991.0
990.0
988.0
988.0
986.0
984.0
983.0
983.0
984.0
984.0
983.0
985.0
985.0
983.0
980.0
979.0
978.0
977.0
977.0
976.0
977.0
976.0
976.0
979.0
978.0
980.0
978.0
978.0
975.0
972.0
972.0
972.0
971.0
972.0
974.0
974.0
976.0
976.0
976.0
975.0
972.0
971.0
970.0
969.0
969.0
971.0
971.0
973.0
974.0
974.0
973.0
972.0
973.0
972.0
972.0
970.0
970.0
972.0
972.0
973.0
976.0
972.0
974.0
974.0
973.0
970.0
969.0
971.0
969.0
969.0
973.0
974.0
975.0
975.0
974.0
973.0
973.0
975.0
975.0
978.0
980.0
984.0
987.0
994.0
998.0
1001.0
1003.0
1005.0
1008.0
1008.0
1008.0
1012.0
1018.0
1023.0
1032.0
1040.0
1042.0
1040.0
1034.0
1028.0
1024.0
1025.0
1025.0
1025.0
1027.0
1025.0
1021.0
1018.0
1013.0
1006.0
999.0
995.0
989.0
984.0
979.0
974.0
975.0
972.0
971.0
972.0
971.0
972.0
971.0
972.0
972.0
970.0
969.0
970.0
970.0
972.0
971.0
973.0
978.0
985.0
999.0
1025.0
1061.0
1103.0
1145.0
1189.0
1228.0
1264.0
1301.0
1330.0
1350.0
1354.0
1348.0
1329.0
1292.0
1238.0
1174.0
1112.0
1060.0
1020.0
996.0
983.0
979.0
975.0
972.0
966.0
957.0
947.0
938.0
936.0
934.0
936.0
935.0
938.0
938.0
937.0
935.0
933.0
930.0
928.0
926.0
928.0
926.0
924.0
927.0
929.0
931.0
929.0
927.0
926.0
924.0
923.0
921.0
921.0
922.0
923.0
925.0
924.0
927.0
924.0
923.0
922.0
918.0
917.0
914.0
913.0
909.0
910.0
908.0
909.0
907.0
904.0
902.0
900.0
894.0
891.0
887.0
883.0
880.0
877.0
873.0
876.0
874.0
870.0
866.0
862.0
857.0
854.0
855.0
850.0
850.0
852.0
851.0
853.0
854.0
856.0
856.0
858.0
862.0
862.0
865.0
870.0
876.0
882.0
890.0
896.0
903.0
909.0
915.0
922.0
924.0
930.0
934.0
939.0
943.0
949.0
952.0
958.0
962.0
966.0
968.0
968.0
969.0
967.0
968.0
967.0
967.0
969.0
969.0
972.0
975.0
975.0
973.0
975.0
972.0
972.0
971.0
969.0
967.0
968.0
970.0
974.0
973.0
974.0
975.0
973.0
972.0
971.0
970.0
971.0
970.0
971.0
970.0
971.0
973.0
974.0
972.0
974.0
973.0
973.0
976.0
976.0
981.0
984.0
989.0
994.0
998.0
1001.0
1002.0
1003.0
1004.0
1005.0
1011.0
1019.0
1027.0
1033.0
1039.0
1039.0
1040.0
1031.0
1029.0
1026.0
1026.0
1027.0
1029.0
1026.0
1025.0
1021.0
1017.0
1011.0
1005.0
998.0
992.0
988.0
982.0
981.0
978.0
974.0
971.0
968.0
968.0
969.0
970.0
970.0
970.0
971.0
972.0
971.0
969.0
969.0
969.0
969.0
972.0
971.0
972.0
975.0
989.0
1006.0
1032.0
1070.0
1113.0
1158.0
1197.0
1236.0
1271.0
1307.0
1334.0
1351.0
1353.0
1347.0
1327.0
1291.0
1245.0
1189.0
1127.0
1073.0
1029.0
1003.0
989.0
983.0
978.0
977.0
973.0
966.0
958.0
950.0
944.0
941.0
942.0
945.0
944.0
945.0
942.0
940.0
939.0
936.0
936.0
935.0
934.0
934.0
934.0
935.0
935.0
940.0
939.0
938.0
934.0
935.0
934.0
934.0
932.0
933.0
935.0
934.0
936.0
934.0
934.0
932.0
929.0
928.0
925.0
924.0
922.0
921.0
921.0
921.0
922.0
919.0
917.0
914.0
910.0
906.0
903.0
901.0
897.0
895.0
895.0
894.0
894.0
894.0
890.0
890.0
888.0
889.0
890.0
888.0
891.0
896.0
898.0
902.0
905.0
909.0
914.0
915.0
920.0
923.0
927.0
931.0
936.0
942.0
947.0
953.0
959.0
961.0
968.0
970.0
971.0
972.0
972.0
972.0
973.0
972.0
974.0
976.0
976.0
978.0
979.0
979.0
975.0
976.0
976.0
975.0
974.0
975.0
977.0
978.0
976.0
977.0
977.0
977.0
972.0
972.0
975.0
973.0
973.0
974.0
977.0
976.0
978.0
977.0
976.0
976.0
976.0
975.0
973.0
974.0
975.0
973.0
974.0
977.0
979.0
982.0
983.0
983.0
985.0
987.0
988.0
990.0
994.0
999.0
1002.0
1005.0
1007.0
1011.0
1014.0
1019.0
1026.0
1033.0
1038.0
1042.0
1042.0
1039.0
1038.0
1034.0
1036.0
1034.0
1036.0
1033.0
1034.0
1027.0
1022.0
1015.0
1007.0
1003.0
997.0
992.0
989.0
985.0
981.0
981.0
975.0
971.0
971.0
968.0
968.0
969.0
970.0
973.0
977.0
976.0
976.0
974.0
972.0
974.0
972.0
971.0
973.0
977.0
992.0
1010.0
1041.0
1078.0
1120.0
1162.0
1202.0
1239.0
1275.0
1306.0
1333.0
1348.0
1354.0
1348.0
1332.0
1297.0
1246.0
1181.0
1114.0
1059.0
1018.0
995.0
982.0
980.0
981.0
980.0
974.0
965.0
957.0
950.0
943.0
940.0
938.0
939.0
942.0
941.0
941.0
941.0
943.0
942.0
941.0
939.0
936.0
937.0
933.0
933.0
934.0
932.0
934.0
933.0
935.0
935.0
934.0
934.0
933.0
931.0
930.0
928.0
928.0
926.0
927.0
931.0
931.0
926.0
929.0
927.0
926.0
926.0
922.0
918.0
917.0
917.0
916.0
915.0
913.0
910.0
909.0
904.0
902.0
896.0
891.0
887.0
883.0
885.0
885.0
884.0
885.0
883.0
880.0
881.0
881.0
881.0
880.0
881.0
883.0
888.0
892.0
895.0
899.0
905.0
907.0
913.0
915.0
919.0
925.0
928.0
934.0
941.0
947.0
953.0
957.0
960.0
964.0
970.0
970.0
970.0
972.0
973.0
973.0
976.0
977.0
980.0
984.0
982.0
984.0
987.0
987.0
989.0
990.0
991.0
997.0
1002.0
1013.0
1023.0
1035.0
1043.0
1058.0
1069.0
1083.0
1095.0
1113.0
1129.0
1144.0
1156.0
1151.0
1127.0
1078.0
1007.0
924.0
840.0
767.0
714.0
677.0
648.0
629.0
613.0
601.0
589.0
575.0
570.0
569.0
575.0
585.0
598.0
614.0
634.0
657.0
680.0
707.0
727.0
746.0
758.0
769.0
786.0
803.0
827.0
852.0
875.0
899.0
916.0
925.0
932.0
941.0
954.0
974.0
1002.0
1030.0
1059.0
1080.0
1091.0
1096.0
1094.0
1091.0
1084.0
1082.0
1079.0
1077.0
1082.0
1081.0
1081.0
1083.0
1084.0
1086.0
1087.0
1091.0
1096.0
1097.0
1100.0
1104.0
1105.0
1107.0
1108.0
1110.0
1112.0
1118.0
1117.0
1122.0
1127.0
1128.0
1132.0
1137.0
1139.0
1144.0
1147.0
1150.0
1152.0
1156.0
1159.0
1166.0
1170.0
1177.0
1177.0
1181.0
1183.0
1182.0
1185.0
1183.0
1184.0
1182.0
1183.0
1183.0
1184.0
1183.0
1180.0
1174.0
1168.0
1161.0
1155.0
1146.0
1142.0
1136.0
1130.0
1125.0
1116.0
1112.0
1106.0
1097.0
1092.0
1083.0
1073.0
1067.0
1060.0
1054.0
1051.0
1046.0
1042.0
1038.0
1034.0
1030.0
1024.0
1020.0
1016.0
1013.0
1011.0
1010.0
1008.0
1007.0
1007.0
1007.0
1008.0
1006.0
1006.0
1005.0
1001.0
999.0
1000.0
998.0
999.0
1002.0
1002.0
1002.0
1005.0
1005.0
1005.0
1004.0
1004.0
1002.0
1002.0
1000.0
1000.0
1001.0
1001.0
1001.0
1001.0
1002.0
1001.0
997.0
999.0
998.0
994.0
995.0
997.0
996.0
997.0
997.0
997.0
997.0
996.0
995.0
994.0
991.0
992.0
992.0
990.0
992.0
991.0
995.0
992.0
992.0
992.0
992.0
990.0
986.0
988.0
988.0
990.0
990.0
991.0
990.0
992.0
992.0
992.0
990.0
989.0
990.0
987.0
989.0
988.0
989.0
990.0
992.0
992.0
992.0
992.0
990.0
987.0
986.0
986.0
988.0
987.0
989.0
990.0
992.0
991.0
989.0
989.0
990.0
988.0
985.0
987.0
987.0
988.0
990.0
994.0
994.0
995.0
994.0
995.0
993.0
995.0
995.0
996.0
998.0
1004.0
1009.0
1012.0
1017.0
1020.0
1021.0
1022.0
1022.0
1023.0
1026.0
1032.0
1039.0
1043.0
1052.0
1057.0
1059.0
1055.0
1050.0
1046.0
1044.0
1041.0
1042.0
1043.0
1044.0
1044.0
1040.0
1039.0
1033.0
1027.0
1022.0
1016.0
1011.0
1007.0
1002.0
1000.0
996.0
994.0
992.0
988.0
987.0
985.0
987.0
988.0
989.0
989.0
988.0
987.0
985.0
986.0
987.0
987.0
990.0
987.0
989.0
998.0
1011.0
1033.0
1062.0
1099.0
1137.0
1179.0
1215.0
1249.0
1282.0
1315.0
1339.0
1356.0
1365.0
1360.0
1345.0
1318.0
1270.0
1212.0
1146.0
1090.0
1047.0
1020.0
1002.0
995.0
993.0
992.0
986.0
979.0
969.0
960.0
955.0
952.0
953.0
954.0
954.0
953.0
951.0
951.0
950.0
949.0
947.0
946.0
947.0
949.0
951.0
952.0
950.0
950.0
944.0
946.0
946.0
944.0
945.0
945.0
945.0
947.0
948.0
946.0
944.0
946.0
943.0
938.0
938.0
938.0
937.0
937.0
937.0
936.0
936.0
936.0
933.0
931.0
931.0
926.0
922.0
919.0
915.0
914.0
909.0
910.0
909.0
907.0
904.0
901.0
895.0
891.0
889.0
885.0
883.0
881.0
879.0
880.0
879.0
880.0
878.0
878.0
874.0
876.0
876.0
876.0
877.0
884.0
