# Simple Text Format
# Sampling Rate (Hz):= 360.00
# Resolution:= 12
# Labels:= ECG
976.0
972.0
965.0
957.0
947.0
938.0
935.0
936.0
943.0
950.0
958.0
956.0
943.0
928.0
921.0
921.0
928.0
933.0
929.0
929.0
931.0
927.0
925.0
924.0
929.0
933.0
931.0
924.0
910.0
896.0
881.0
880.0
883.0
891.0
896.0
903.0
905.0
906.0
912.0
913.0
919.0
929.0
944.0
958.0
963.0
947.0
929.0
914.0
914.0
921.0
935.0
953.0
971.0
988.0
992.0
984.0
975.0
971.0
974.0
987.0
1006.0
1022.0
1015.0
996.0
977.0
964.0
961.0
966.0
979.0
989.0
994.0
998.0
1001.0
1001.0
1001.0
997.0
992.0
992.0
986.0
980.0
979.0
984.0
987.0
988.0
989.0
992.0
993.0
986.0
972.0
968.0
972.0
989.0
999.0
1000.0
991.0
984.0
989.0
998.0
1005.0
1006.0
998.0
995.0
996.0
1002.0
1002.0
1002.0
1002.0
1003.0
1010.0
1020.0
1023.0
1026.0
1029.0
1038.0
1045.0
1051.0
1053.0
1055.0
1051.0
1042.0
1032.0
1023.0
1022.0
1024.0
1025.0
1030.0
1030.0
1025.0
1015.0
1005.0
993.0
987.0
981.0
979.0
977.0
976.0
982.0
993.0
998.0
999.0
993.0
988.0
988.0
987.0
978.0
970.0
962.0
962.0
971.0
980.0
994.0
1005.0
1028.0
1066.0
1111.0
1154.0
1192.0
1230.0
1274.0
1318.0
1360.0
1390.0
1406.0
1405.0
1380.0
1330.0
1261.0
1185.0
1112.0
1057.0
1021.0
1005.0
998.0
992.0
978.0
967.0
955.0
946.0
947.0
958.0
966.0
967.0
960.0
945.0
930.0
925.0
932.0
943.0
950.0
952.0
945.0
937.0
928.0
928.0
935.0
946.0
954.0
955.0
948.0
943.0
935.0
930.0
927.0
926.0
931.0
939.0
948.0
956.0
959.0
947.0
925.0
908.0
904.0
904.0
912.0
919.0
923.0
921.0
912.0
905.0
903.0
909.0
913.0
913.0
911.0
909.0
900.0
890.0
880.0
874.0
872.0
877.0
882.0
888.0
895.0
903.0
906.0
901.0
888.0
879.0
876.0
881.0
890.0
900.0
911.0
921.0
931.0
935.0
938.0
936.0
936.0
940.0
947.0
958.0
965.0
965.0
958.0
950.0
947.0
954.0
969.0
979.0
981.0
978.0
975.0
971.0
971.0
978.0
987.0
995.0
996.0
989.0
979.0
972.0
972.0
980.0
987.0
990.0
989.0
984.0
983.0
980.0
976.0
977.0
980.0
984.0
987.0
989.0
988.0
985.0
977.0
975.0
978.0
984.0
989.0
989.0
985.0
983.0
980.0
979.0
985.0
994.0
1000.0
998.0
999.0
1003.0
1012.0
1018.0
1020.0
1019.0
1024.0
1030.0
1032.0
1037.0
1040.0
1040.0
1041.0
1039.0
1037.0
1034.0
1030.0
1025.0
1023.0
1023.0
1026.0
1032.0
1040.0
1043.0
1045.0
1038.0
1027.0
1016.0
1005.0
998.0
987.0
980.0
978.0
975.0
975.0
972.0
972.0
979.0
984.0
991.0
992.0
991.0
987.0
985.0
984.0
985.0
983.0
979.0
978.0
985.0
1006.0
1046.0
1084.0
1118.0
1153.0
1192.0
1238.0
1287.0
1335.0
1375.0
1402.0
1411.0
1408.0
1388.0
1346.0
1280.0
1197.0
1115.0
1057.0
1013.0
990.0
986.0
992.0
1008.0
1010.0
1000.0
975.0
952.0
937.0
940.0
952.0
963.0
968.0
968.0
963.0
960.0
951.0
951.0
948.0
942.0
934.0
930.0
934.0
945.0
958.0
963.0
963.0
962.0
960.0
961.0
954.0
950.0
946.0
941.0
940.0
944.0
950.0
950.0
942.0
933.0
929.0
933.0
943.0
950.0
947.0
934.0
923.0
920.0
923.0
927.0
927.0
924.0
921.0
920.0
914.0
909.0
904.0
894.0
895.0
903.0
913.0
925.0
930.0
927.0
909.0
894.0
881.0
878.0
885.0
896.0
908.0
918.0
918.0
918.0
914.0
917.0
917.0
925.0
933.0
937.0
942.0
953.0
965.0
975.0
978.0
973.0
975.0
983.0
993.0
997.0
991.0
985.0
982.0
981.0
985.0
980.0
977.0
976.0
979.0
994.0
1003.0
1010.0
1008.0
1009.0
1002.0
987.0
979.0
975.0
978.0
983.0
998.0
1008.0
1016.0
1012.0
998.0
984.0
971.0
972.0
985.0
998.0
1014.0
1025.0
1027.0
1018.0
1001.0
983.0
976.0
980.0
991.0
996.0
1007.0
1014.0
1020.0
1015.0
1018.0
1016.0
1020.0
1031.0
1038.0
1048.0
1053.0
1050.0
1044.0
1038.0
1037.0
1045.0
1055.0
1055.0
1048.0
1047.0
1051.0
1058.0
1062.0
1062.0
1063.0
1059.0
1048.0
1034.0
1025.0
1029.0
1033.0
1033.0
1027.0
1018.0
1007.0
999.0
996.0
995.0
994.0
998.0
1007.0
1011.0
1010.0
1008.0
1004.0
1002.0
1001.0
1002.0
1002.0
998.0
997.0
1001.0
1006.0
1014.0
1029.0
1047.0
1074.0
1106.0
1141.0
1179.0
1221.0
1268.0
1322.0
1369.0
1406.0
1426.0
1427.0
1411.0
1383.0
1349.0
1304.0
1253.0
1198.0
1145.0
1097.0
1056.0
1027.0
1010.0
1003.0
999.0
994.0
987.0
983.0
977.0
975.0
978.0
982.0
981.0
980.0
977.0
975.0
975.0
974.0
972.0
969.0
968.0
970.0
972.0
971.0
972.0
974.0
972.0
967.0
962.0
960.0
959.0
958.0
962.0
970.0
971.0
977.0
975.0
978.0
979.0
975.0
964.0
949.0
940.0
941.0
949.0
961.0
963.0
961.0
959.0
955.0
949.0
944.0
942.0
946.0
951.0
947.0
939.0
928.0
916.0
912.0
914.0
919.0
925.0
928.0
928.0
930.0
930.0
927.0
923.0
924.0
930.0
940.0
944.0
945.0
942.0
939.0
940.0
946.0
958.0
967.0
970.0
973.0
978.0
986.0
992.0
998.0
1003.0
1005.0
1013.0
1021.0
1023.0
1014.0
1004.0
998.0
1000.0
1004.0
1015.0
1023.0
1031.0
1033.0
1029.0
1020.0
1009.0
1006.0
1010.0
1018.0
1026.0
1036.0
1039.0
1032.0
1015.0
1005.0
1004.0
1008.0
1023.0
1040.0
1063.0
1083.0
1108.0
1127.0
1138.0
1149.0
1173.0
1199.0
1226.0
1249.0
1258.0
1245.0
1198.0
1116.0
1013.0
911.0
828.0
768.0
724.0
680.0
638.0
610.0
589.0
584.0
592.0
610.0
627.0
644.0
656.0
674.0
700.0
719.0
733.0
741.0
747.0
758.0
770.0
785.0
801.0
815.0
835.0
860.0
880.0
892.0
896.0
901.0
912.0
921.0
936.0
958.0
990.0
1025.0
1060.0
1090.0
1100.0
1104.0
1104.0
1107.0
1112.0
1121.0
1123.0
1121.0
1126.0
1135.0
1137.0
1136.0
1129.0
1126.0
1133.0
1144.0
1152.0
1163.0
1166.0
1167.0
1169.0
1175.0
1182.0
1196.0
1202.0
1206.0
1208.0
1207.0
1207.0
1209.0
1210.0
1213.0
1217.0
1226.0
1236.0
1242.0
1239.0
1239.0
1241.0
1250.0
1258.0
1267.0
1272.0
1270.0
1265.0
1262.0
1258.0
1256.0
1254.0
1248.0
1248.0
1245.0
1240.0
1226.0
1211.0
1195.0
1179.0
1161.0
1157.0
1161.0
1166.0
1166.0
1162.0
1148.0
1129.0
1110.0
1103.0
1105.0
1112.0
1106.0
1092.0
1072.0
1057.0
1050.0
1050.0
1061.0
1078.0
1087.0
1081.0
1057.0
1030.0
1008.0
1002.0
1016.0
1035.0
1047.0
1049.0
1041.0
1033.0
1031.0
1028.0
1021.0
1012.0
1009.0
1016.0
1023.0
1024.0
1022.0
1020.0
1011.0
1012.0
1015.0
1023.0
1027.0
1028.0
1024.0
1021.0
1021.0
1027.0
1031.0
1031.0
1026.0
1016.0
1011.0
1015.0
1023.0
1026.0
1025.0
1017.0
1013.0
1011.0
1015.0
1022.0
1029.0
1038.0
1037.0
1029.0
1015.0
1003.0
993.0
987.0
996.0
1012.0
1029.0
1033.0
1024.0
1010.0
1000.0
1002.0
1011.0
1021.0
1016.0
1004.0
994.0
990.0
993.0
1002.0
1010.0
1015.0
1021.0
1025.0
1025.0
1020.0
1007.0
999.0
1002.0
1009.0
1013.0
1017.0
1020.0
1016.0
1005.0
993.0
990.0
995.0
1010.0
1026.0
1046.0
1061.0
1065.0
1056.0
1039.0
1029.0
1030.0
1038.0
1044.0
1053.0
1058.0
1063.0
1068.0
1073.0
1077.0
1080.0
1073.0
1065.0
1059.0
1055.0
1050.0
1040.0
1034.0
1035.0
1044.0
1055.0
1057.0
1050.0
1038.0
1021.0
1006.0
989.0
980.0
978.0
985.0
998.0
1009.0
1016.0
1011.0
1002.0
991.0
988.0
988.0
994.0
1000.0
1001.0
997.0
991.0
994.0
1001.0
1009.0
1019.0
1035.0
1066.0
1110.0
1160.0
1209.0
1254.0
1291.0
1328.0
1365.0
1397.0
1422.0
1431.0
1421.0
1398.0
1355.0
1301.0
1236.0
1173.0
1117.0
1071.0
1034.0
1014.0
1005.0
1004.0
997.0
994.0
986.0
979.0
972.0
969.0
963.0
965.0
968.0
970.0
974.0
979.0
981.0
981.0
977.0
967.0
952.0
945.0
943.0
949.0
958.0
972.0
977.0
975.0
970.0
963.0
955.0
948.0
947.0
946.0
949.0
953.0
962.0
973.0
981.0
986.0
980.0
971.0
961.0
953.0
943.0
940.0
940.0
941.0
940.0
942.0
943.0
951.0
952.0
949.0
940.0
931.0
920.0
913.0
910.0
910.0
908.0
903.0
895.0
894.0
892.0
893.0
891.0
892.0
897.0
910.0
919.0
918.0
909.0
897.0
890.0
886.0
888.0
892.0
904.0
923.0
939.0
942.0
935.0
929.0
932.0
947.0
964.0
972.0
971.0
967.0
966.0
975.0
992.0
1007.0
1013.0
1004.0
995.0
993.0
996.0
1006.0
1017.0
1024.0
1023.0
1019.0
1021.0
1023.0
1027.0
1028.0
1027.0
1024.0
1025.0
1029.0
1026.0
1022.0
1014.0
1011.0
1013.0
1022.0
1026.0
1025.0
1017.0
1014.0
1016.0
1027.0
1039.0
1042.0
1039.0
1027.0
1023.0
1022.0
1024.0
1031.0
1041.0
1050.0
1055.0
1059.0
1067.0
1072.0
1077.0
1076.0
1069.0
1063.0
1068.0
1080.0
1097.0
1115.0
1114.0
1111.0
1112.0
1118.0
1138.0
1160.0
1180.0
1189.0
1192.0
1201.0
1212.0
1231.0
1248.0
1264.0
1281.0
1298.0
1311.0
1323.0
1331.0
1338.0
1341.0
1340.0
1333.0
1322.0
1303.0
1273.0
1221.0
1146.0
1054.0
958.0
867.0
797.0
743.0
706.0
689.0
693.0
709.0
734.0
763.0
791.0
814.0
825.0
837.0
846.0
866.0
894.0
921.0
952.0
980.0
1005.0
1018.0
1019.0
1011.0
998.0
988.0
990.0
998.0
1010.0
1017.0
1027.0
1031.0
1029.0
1020.0
1013.0
1008.0
1011.0
1019.0
1028.0
1039.0
1045.0
1046.0
1036.0
1018.0
1008.0
1001.0
1005.0
1010.0
1017.0
1027.0
1034.0
1039.0
1042.0
1038.0
1030.0
1023.0
1031.0
1039.0
1043.0
1040.0
1034.0
1033.0
1033.0
1035.0
1045.0
1051.0
1053.0
1054.0
1063.0
1080.0
1089.0
1086.0
1063.0
1041.0
1031.0
1041.0
1054.0
1066.0
1079.0
1088.0
1103.0
1109.0
1102.0
1084.0
1067.0
1060.0
1058.0
1072.0
1085.0
1099.0
1112.0
1116.0
1107.0
1086.0
1066.0
1049.0
1038.0
1033.0
1030.0
1035.0
1044.0
1056.0
1066.0
1063.0
1053.0
1038.0
1033.0
1033.0
1038.0
1033.0
1025.0
1014.0
1007.0
1004.0
1011.0
1017.0
1028.0
1038.0
1042.0
1038.0
1025.0
1015.0
1010.0
1010.0
1013.0
1018.0
1021.0
1025.0
1031.0
1036.0
1037.0
1030.0
1018.0
1011.0
1009.0
1012.0
1021.0
1032.0
1044.0
1053.0
1057.0
1057.0
1051.0
1039.0
1018.0
999.0
990.0
990.0
998.0
1013.0
1023.0
1027.0
1024.0
1026.0
1028.0
1034.0
1037.0
1041.0
1029.0
1021.0
1013.0
1013.0
1017.0
1028.0
1036.0
1039.0
1045.0
1050.0
1054.0
1063.0
1071.0
1067.0
1054.0
1050.0
1053.0
1069.0
1083.0
1101.0
1106.0
1100.0
1088.0
1073.0
1070.0
1076.0
1088.0
1095.0
1087.0
1066.0
1047.0
1033.0
1027.0
1032.0
1037.0
1046.0
1051.0
1045.0
1034.0
1025.0
1020.0
1016.0
1011.0
1008.0
1009.0
1013.0
1016.0
1022.0
1028.0
1025.0
1017.0
1005.0
1000.0
1002.0
1012.0
1014.0
1013.0
1011.0
1016.0
1027.0
1054.0
1092.0
1140.0
1194.0
1245.0
1293.0
1337.0
1379.0
1409.0
1424.0
1426.0
1420.0
1405.0
1374.0
1331.0
1269.0
1205.0
1144.0
1101.0
1065.0
1041.0
1024.0
1012.0
1003.0
993.0
986.0
983.0
986.0
992.0
995.0
993.0
985.0
975.0
967.0
965.0
969.0
973.0
978.0
983.0
982.0
981.0
974.0
965.0
964.0
964.0
965.0
965.0
967.0
968.0
971.0
971.0
970.0
961.0
947.0
937.0
935.0
943.0
951.0
962.0
965.0
960.0
956.0
956.0
958.0
952.0
944.0
933.0
926.0
922.0
922.0
924.0
929.0
933.0
939.0
937.0
924.0
912.0
902.0
900.0
899.0
897.0
893.0
888.0
890.0
891.0
891.0
894.0
897.0
898.0
892.0
890.0
885.0
885.0
891.0
902.0
907.0
914.0
922.0
927.0
935.0
947.0
964.0
975.0
981.0
983.0
981.0
974.0
965.0
963.0
975.0
997.0
1010.0
1009.0
1002.0
991.0
985.0
984.0
990.0
1000.0
1010.0
1018.0
1020.0
1012.0
1004.0
999.0
999.0
1003.0
1006.0
1015.0
1014.0
1001.0
989.0
984.0
985.0
998.0
1015.0
1025.0
1024.0
1018.0
1009.0
1001.0
997.0
996.0
1000.0
1000.0
1000.0
1004.0
1010.0
1017.0
1018.0
1016.0
1014.0
1007.0
1003.0
1002.0
1007.0
1016.0
1030.0
1043.0
1046.0
1042.0
1038.0
1041.0
1046.0
1055.0
1066.0
1077.0
1083.0
1077.0
1057.0
1043.0
1038.0
1045.0
1052.0
1058.0
1059.0
1061.0
1063.0
1062.0
1053.0
1036.0
1019.0
1013.0
1013.0
1014.0
1014.0
1012.0
1008.0
1002.0
998.0
993.0
992.0
996.0
999.0
1001.0
998.0
997.0
997.0
1008.0
1018.0
1018.0
1009.0
999.0
1000.0
1014.0
1052.0
1101.0
1151.0
1200.0
1239.0
1275.0
1310.0
1346.0
1381.0
1409.0
1422.0
1422.0
1401.0
1363.0
1306.0
1238.0
1165.0
1103.0
1057.0
1019.0
996.0
985.0
981.0
984.0
984.0
981.0
981.0
983.0
988.0
994.0
993.0
987.0
978.0
966.0
961.0
960.0
960.0
963.0
962.0
960.0
960.0
960.0
958.0
956.0
957.0
960.0
966.0
969.0
967.0
964.0
961.0
955.0
951.0
954.0
963.0
966.0
964.0
961.0
956.0
952.0
947.0
945.0
944.0
945.0
947.0
944.0
942.0
935.0
933.0
931.0
928.0
924.0
921.0
917.0
919.0
926.0
927.0
923.0
910.0
900.0
890.0
887.0
893.0
907.0
921.0
938.0
945.0
940.0
927.0
913.0
905.0
909.0
919.0
933.0
944.0
959.0
974.0
985.0
988.0
983.0
975.0
970.0
974.0
983.0
995.0
1005.0
1010.0
1008.0
1003.0
996.0
991.0
989.0
991.0
996.0
1006.0
1019.0
1031.0
1038.0
1039.0
1029.0
1016.0
1010.0
1017.0
1037.0
1060.0
1077.0
1096.0
1105.0
1120.0
1142.0
1176.0
1206.0
1229.0
1237.0
1227.0
1198.0
1148.0
1072.0
982.0
889.0
805.0
734.0
676.0
629.0
599.0
578.0
563.0
557.0
554.0
561.0
566.0
578.0
593.0
610.0
634.0
663.0
694.0
724.0
747.0
765.0
779.0
795.0
811.0
826.0
840.0
849.0
856.0
863.0
880.0
898.0
918.0
950.0
973.0
1004.0
1033.0
1055.0
1074.0
1086.0
1094.0
1097.0
1098.0
1103.0
1109.0
1114.0
1117.0
1115.0
1112.0
1112.0
1110.0
1109.0
1117.0
1129.0
1141.0
1144.0
1139.0
1130.0
1131.0
1136.0
1145.0
1154.0
1167.0
1171.0
1177.0
1182.0
1188.0
1194.0
1197.0
1197.0
1190.0
1188.0
1196.0
1210.0
1222.0
1228.0
1224.0
1221.0
1222.0
1225.0
1230.0
1236.0
1236.0
1239.0
1243.0
1246.0
1247.0
1243.0
1237.0
1228.0
1218.0
1211.0
1202.0
1197.0
1191.0
1191.0
1184.0
1172.0
1159.0
1152.0
1146.0
1138.0
1134.0
1130.0
1126.0
1116.0
1100.0
1089.0
1083.0
1076.0
1073.0
1070.0
1062.0
1052.0
1047.0
1048.0
1050.0
1050.0
1043.0
1032.0
1023.0
1019.0
1022.0
1027.0
1027.0
1024.0
1018.0
1013.0
1016.0
1022.0
1025.0
1020.0
1014.0
1008.0
1007.0
1010.0
1022.0
1036.0
1042.0
1034.0
1019.0
1006.0
1001.0
1000.0
1010.0
1019.0
1023.0
1026.0
1029.0
1027.0
1021.0
1012.0
1008.0
1008.0
1008.0
1010.0
1013.0
1007.0
1001.0
996.0
995.0
997.0
1002.0
1010.0
1013.0
1014.0
1007.0
1004.0
1004.0
1000.0
1001.0
1006.0
1013.0
1017.0
1011.0
1003.0
993.0
988.0
989.0
994.0
999.0
1004.0
1005.0
1008.0
1014.0
1011.0
1006.0
999.0
997.0
1000.0
1002.0
1002.0
1001.0
994.0
990.0
987.0
987.0
990.0
993.0
996.0
999.0
1005.0
1004.0
998.0
992.0
989.0
993.0
994.0
1001.0
1009.0
1018.0
1019.0
1019.0
1020.0
1023.0
1023.0
1029.0
1027.0
1020.0
1010.0
1006.0
1009.0
1023.0
1044.0
1066.0
1073.0
1070.0
1065.0
1054.0
1047.0
1045.0
1046.0
1050.0
1049.0
1050.0
1051.0
1049.0
1052.0
1053.0
1059.0
1063.0
1059.0
1043.0
1025.0
1009.0
997.0
991.0
994.0
1001.0
1009.0
1014.0
1012.0
1004.0
991.0
990.0
988.0
986.0
984.0
991.0
1001.0
1007.0
1008.0
999.0
991.0
985.0
986.0
996.0
1018.0
1047.0
1085.0
1127.0
1172.0
1213.0
1257.0
1301.0
1344.0
1383.0
1411.0
1424.0
1416.0
1400.0
1371.0
1328.0
1266.0
1191.0
1125.0
1072.0
1040.0
1022.0
1015.0
1013.0
1009.0
1004.0
992.0
980.0
971.0
965.0
958.0
954.0
954.0
954.0
956.0
961.0
956.0
950.0
947.0
945.0
949.0
957.0
967.0
967.0
955.0
938.0
924.0
921.0
924.0
934.0
944.0
951.0
953.0
954.0
953.0
954.0
949.0
940.0
936.0
936.0
937.0
939.0
937.0
933.0
923.0
918.0
914.0
919.0
923.0
933.0
939.0
936.0
924.0
906.0
895.0
894.0
897.0
902.0
904.0
900.0
892.0
887.0
884.0
881.0
875.0
870.0
865.0
861.0
861.0
857.0
859.0
859.0
861.0
868.0
876.0
883.0
886.0
885.0
880.0
877.0
876.0
882.0
893.0
906.0
919.0
930.0
939.0
941.0
944.0
950.0
953.0
949.0
948.0
952.0
964.0
975.0
982.0
987.0
992.0
995.0
999.0
1003.0
1002.0
999.0
995.0
995.0
997.0
994.0
990.0
991.0
995.0
999.0
1005.0
1008.0
1014.0
1018.0
1025.0
1036.0
1046.0
1057.0
1067.0
1077.0
1086.0
1091.0
1096.0
1104.0
1115.0
1137.0
1160.0
1178.0
1184.0
1160.0
1108.0
1031.0
945.0
859.0
782.0
719.0
673.0
636.0
607.0
579.0
560.0
549.0
541.0
542.0
544.0
555.0
566.0
584.0
601.0
617.0
631.0
642.0
658.0
681.0
708.0
731.0
750.0
764.0
779.0
798.0
828.0
859.0
886.0
906.0
918.0
937.0
955.0
980.0
1012.0
1047.0
1077.0
1100.0
1111.0
1112.0
1105.0
1098.0
1094.0
1097.0
1108.0
1117.0
1121.0
1118.0
1116.0
1119.0
1124.0
1132.0
1135.0
1137.0
1143.0
1144.0
1156.0
1167.0
1166.0
1167.0
1167.0
1170.0
1172.0
1173.0
1175.0
1181.0
1190.0
1193.0
1194.0
1195.0
1200.0
1201.0
1208.0
1215.0
1223.0
1230.0
1232.0
1233.0
1235.0
1239.0
1242.0
1250.0
1260.0
1266.0
1268.0
1254.0
1238.0
1226.0
1217.0
1210.0
1212.0
1211.0
1207.0
1195.0
1185.0
1175.0
1168.0
1162.0
1154.0
1145.0
1136.0
1133.0
1133.0
1128.0
1115.0
1098.0
1083.0
1072.0
1066.0
1066.0
1066.0
1069.0
1071.0
1069.0
1074.0
1071.0
1068.0
1058.0
1035.0
1011.0
1001.0
1001.0
1005.0
1011.0
1013.0
1018.0
1020.0
1020.0
1024.0
1025.0
1022.0
1019.0
1016.0
1012.0
1011.0
1014.0
1020.0
1026.0
1029.0
1031.0
1035.0
1035.0
1024.0
1013.0
1001.0
991.0
986.0
991.0
1002.0
1010.0
1021.0
1024.0
1023.0
1018.0
1008.0
1001.0
990.0
986.0
990.0
1001.0
1014.0
1024.0
1026.0
1017.0
1004.0
990.0
987.0
984.0
988.0
993.0
996.0
999.0
1000.0
1007.0
1015.0
1017.0
1019.0
1015.0
1008.0
999.0
990.0
987.0
989.0
989.0
990.0
999.0
1008.0
1015.0
1018.0
1010.0
1000.0
991.0
985.0
983.0
988.0
996.0
1001.0
1005.0
1006.0
1010.0
1016.0
1024.0
1018.0
1007.0
999.0
996.0
1005.0
1015.0
1024.0
1039.0
1054.0
1060.0
1061.0
1062.0
1063.0
1062.0
1063.0
1063.0
1057.0
1053.0
1048.0
1050.0
1052.0
1053.0
1053.0
1048.0
1045.0
1043.0
1042.0
1041.0
1033.0
1024.0
1016.0
1009.0
1000.0
994.0
990.0
987.0
990.0
991.0
986.0
979.0
975.0
975.0
978.0
986.0
998.0
1005.0
1009.0
1003.0
989.0
983.0
975.0
973.0
978.0
997.0
1026.0
1056.0
1091.0
1125.0
1166.0
1207.0
1247.0
1285.0
1322.0
1356.0
1382.0
1403.0
1413.0
1407.0
1383.0
1333.0
1267.0
1193.0
1129.0
1083.0
1050.0
1032.0
1015.0
1002.0
994.0
988.0
973.0
962.0
952.0
949.0
953.0
953.0
954.0
952.0
951.0
943.0
941.0
941.0
942.0
944.0
949.0
949.0
950.0
949.0
949.0
947.0
943.0
938.0
932.0
930.0
931.0
938.0
943.0
951.0
951.0
946.0
936.0
926.0
917.0
917.0
920.0
926.0
926.0
919.0
916.0
915.0
916.0
918.0
916.0
908.0
901.0
898.0
898.0
900.0
903.0
897.0
894.0
889.0
882.0
877.0
877.0
879.0
878.0
872.0
864.0
859.0
853.0
847.0
845.0
844.0
850.0
856.0
867.0
873.0
870.0
863.0
848.0
833.0
832.0
836.0
844.0
854.0
865.0
874.0
885.0
893.0
901.0
907.0
917.0
922.0
927.0
927.0
931.0
935.0
938.0
943.0
949.0
954.0
961.0
967.0
979.0
988.0
990.0
983.0
973.0
963.0
956.0
957.0
959.0
967.0
975.0
979.0
983.0
985.0
987.0
989.0
992.0
984.0
979.0
975.0
970.0
966.0
971.0
976.0
981.0
981.0
978.0
970.0
963.0
965.0
967.0
968.0
969.0
969.0
977.0
981.0
988.0
993.0
998.0
1000.0
1001.0
1004.0
1005.0
1007.0
1009.0
1015.0
1021.0
1027.0
1033.0
1038.0
1043.0
1049.0
1052.0
1050.0
1042.0
1034.0
1035.0
1038.0
1035.0
1021.0
1005.0
988.0
980.0
979.0
985.0
993.0
992.0
985.0
973.0
964.0
956.0
953.0
960.0
969.0
980.0
987.0
993.0
1001.0
1005.0
1003.0
986.0
970.0
952.0
945.0
946.0
967.0
1007.0
1061.0
1116.0
1164.0
1197.0
1230.0
1266.0
1307.0
1347.0
1378.0
1391.0
1386.0
1365.0
1326.0
1271.0
1201.0
1132.0
1075.0
1032.0
1003.0
987.0
979.0
979.0
984.0
983.0
975.0
965.0
952.0
942.0
938.0
934.0
936.0
939.0
944.0
945.0
941.0
939.0
937.0
936.0
935.0
932.0
930.0
929.0
929.0
931.0
932.0
933.0
930.0
925.0
922.0
924.0
926.0
927.0
927.0
927.0
930.0
934.0
939.0
934.0
926.0
919.0
916.0
915.0
915.0
924.0
931.0
928.0
918.0
904.0
889.0
878.0
880.0
888.0
899.0
905.0
907.0
902.0
897.0
890.0
883.0
880.0
872.0
868.0
867.0
875.0
884.0
898.0
907.0
899.0
884.0
868.0
861.0
863.0
876.0
893.0
909.0
920.0
921.0
916.0
917.0
918.0
927.0
931.0
941.0
950.0
963.0
972.0
974.0
970.0
960.0
952.0
947.0
947.0
950.0
955.0
958.0
959.0
961.0
965.0
968.0
967.0
968.0
966.0
964.0
962.0
963.0
963.0
965.0
968.0
971.0
968.0
962.0
957.0
949.0
947.0
950.0
954.0
959.0
959.0
963.0
961.0
957.0
953.0
952.0
945.0
947.0
947.0
950.0
951.0
952.0
957.0
956.0
960.0
966.0
972.0
979.0
984.0
987.0
985.0
985.0
989.0
995.0
1003.0
1012.0
1020.0
1031.0
1044.0
1052.0
1054.0
1042.0
1018.0
996.0
980.0
974.0
975.0
981.0
983.0
987.0
986.0
983.0
975.0
971.0
967.0
967.0
960.0
954.0
947.0
944.0
944.0
945.0
949.0
950.0
954.0
954.0
953.0
955.0
952.0
952.0
949.0
945.0
947.0
948.0
957.0
974.0
997.0
1017.0
1028.0
1045.0
1065.0
1102.0
1147.0
1199.0
1255.0
1305.0
1350.0
1377.0
1384.0
1376.0
1355.0
1324.0
1273.0
1210.0
1143.0
1084.0
1037.0
1005.0
986.0
979.0
976.0
972.0
962.0
950.0
935.0
923.0
916.0
911.0
909.0
913.0
923.0
922.0
919.0
914.0
906.0
901.0
901.0
904.0
903.0
907.0
909.0
914.0
913.0
913.0
912.0
910.0
908.0
910.0
911.0
913.0
913.0
914.0
913.0
911.0
914.0
914.0
917.0
913.0
910.0
909.0
904.0
901.0
900.0
900.0
902.0
904.0
902.0
898.0
897.0
891.0
886.0
884.0
884.0
882.0
881.0
878.0
876.0
872.0
871.0
872.0
875.0
875.0
876.0
875.0
874.0
876.0
881.0
884.0
891.0
898.0
901.0
907.0
914.0
920.0
926.0
930.0
935.0
939.0
944.0
950.0
955.0
963.0
967.0
973.0
978.0
981.0
983.0
984.0
985.0
984.0
985.0
987.0
987.0
989.0
993.0
994.0
995.0
997.0
997.0
999.0
996.0
998.0
995.0
995.0
997.0
996.0
998.0
997.0
1003.0
1002.0
1006.0
1004.0
1004.0
1005.0
999.0
997.0
997.0
995.0
998.0
998.0
1000.0
999.0
997.0
992.0
991.0
994.0
999.0
1007.0
1011.0
1015.0
1017.0
1017.0
1019.0
1017.0
1017.0
1022.0
1028.0
1037.0
1048.0
1056.0
1064.0
1066.0
1062.0
1061.0
1061.0
1060.0
1059.0
1062.0
1060.0
1058.0
1057.0
1055.0
1053.0
1046.0
1041.0
1032.0
1026.0
1017.0
1008.0
1000.0
994.0
990.0
986.0
986.0
984.0
982.0
978.0
980.0
981.0
980.0
980.0
978.0
981.0
987.0
990.0
990.0
983.0
978.0
975.0
974.0
977.0
977.0
987.0
1006.0
1029.0
1055.0
1089.0
1127.0
1164.0
1205.0
1243.0
1281.0
1315.0
1348.0
1371.0
1387.0
1390.0
1375.0
1339.0
1279.0
1207.0
1135.0
1075.0
1037.0
1017.0
1005.0
1000.0
996.0
992.0
980.0
967.0
950.0
940.0
934.0
934.0
944.0
954.0
959.0
952.0
936.0
923.0
919.0
927.0
931.0
933.0
926.0
920.0
919.0
923.0
929.0
932.0
932.0
930.0
924.0
918.0
914.0
915.0
915.0
917.0
924.0
928.0
927.0
926.0
925.0
921.0
921.0
919.0
918.0
911.0
902.0
894.0
893.0
897.0
903.0
905.0
900.0
888.0
875.0
865.0
861.0
864.0
866.0
863.0
861.0
863.0
864.0
870.0
877.0
873.0
872.0
864.0
857.0
851.0
854.0
859.0
863.0
873.0
886.0
899.0
915.0
922.0
918.0
908.0
903.0
905.0
915.0
926.0
937.0
945.0
948.0
952.0
957.0
960.0
962.0
963.0
963.0
969.0
973.0
973.0
965.0
953.0
945.0
943.0
942.0
942.0
946.0
951.0
958.0
962.0
962.0
966.0
964.0
959.0
956.0
955.0
954.0
955.0
960.0
963.0
962.0
958.0
952.0
949.0
949.0
951.0
955.0
957.0
960.0
960.0
963.0
967.0
971.0
975.0
978.0
985.0
992.0
1004.0
1010.0
1008.0
998.0
983.0
973.0
975.0
988.0
1013.0
1024.0
1029.0
1021.0
1011.0
1002.0
997.0
996.0
1000.0
1006.0
1012.0
1014.0
1014.0
1011.0
1007.0
1004.0
998.0
985.0
968.0
958.0
946.0
940.0
935.0
940.0
946.0
951.0
958.0
961.0
966.0
969.0
971.0
976.0
977.0
981.0
978.0
966.0
945.0
929.0
925.0
930.0
953.0
985.0
1030.0
1079.0
1127.0
1175.0
1219.0
1263.0
1305.0
1339.0
1360.0
1370.0
1368.0
1351.0
1321.0
1271.0
1204.0
1135.0
1074.0
1029.0
995.0
971.0
960.0
957.0
957.0
954.0
949.0
943.0
935.0
928.0
917.0
903.0
892.0
885.0
885.0
892.0
901.0
908.0
909.0
909.0
901.0
896.0
893.0
890.0
888.0
890.0
892.0
897.0
904.0
910.0
912.0
907.0
899.0
890.0
884.0
884.0
889.0
897.0
904.0
903.0
896.0
884.0
872.0
861.0
859.0
865.0
875.0
875.0
872.0
866.0
863.0
863.0
870.0
878.0
878.0
875.0
868.0
859.0
853.0
851.0
850.0
848.0
846.0
840.0
834.0
830.0
832.0
836.0
846.0
849.0
846.0
841.0
834.0
829.0
828.0
831.0
837.0
845.0
850.0
856.0
859.0
866.0
872.0
881.0
890.0
903.0
912.0
920.0
926.0
930.0
932.0
937.0
938.0
942.0
948.0
958.0
965.0
963.0
949.0
938.0
931.0
931.0
939.0
947.0
954.0
959.0
962.0
962.0
956.0
942.0
932.0
926.0
931.0
940.0
949.0
949.0
946.0
940.0
936.0
938.0
942.0
946.0
948.0
952.0
958.0
964.0
968.0
968.0
968.0
963.0
961.0
965.0
972.0
980.0
996.0
1014.0
1034.0
1047.0
1062.0
1074.0
1089.0
1106.0
1123.0
1140.0
1162.0
1187.0
1218.0
1249.0
1269.0
1281.0
1287.0
1295.0
1303.0
1312.0
1314.0
1301.0
1277.0
1235.0
1176.0
1102.0
1016.0
923.0
835.0
769.0
721.0
692.0
687.0
697.0
714.0
738.0
759.0
775.0
786.0
791.0
802.0
814.0
828.0
849.0
868.0
891.0
905.0
911.0
911.0
903.0
898.0
901.0
899.0
903.0
903.0
907.0
918.0
928.0
933.0
926.0
916.0
903.0
899.0
901.0
907.0
916.0
923.0
918.0
912.0
905.0
904.0
911.0
918.0
917.0
915.0
912.0
903.0
901.0
898.0
901.0
899.0
903.0
910.0
918.0
925.0
927.0
928.0
928.0
924.0
922.0
919.0
921.0
925.0
932.0
938.0
942.0
943.0
943.0
943.0
947.0
953.0
962.0
967.0
973.0
980.0
980.0
977.0
972.0
970.0
973.0
977.0
980.0
983.0
980.0
980.0
978.0
978.0
973.0
968.0
963.0
961.0
963.0
970.0
976.0
981.0
986.0
984.0
984.0
981.0
974.0
964.0
954.0
945.0
941.0
949.0
954.0
955.0
949.0
941.0
940.0
942.0
949.0
956.0
961.0
962.0
959.0
957.0
953.0
950.0
949.0
955.0
963.0
971.0
976.0
976.0
970.0
956.0
945.0
940.0
941.0
944.0
951.0
958.0
960.0
963.0
959.0
955.0
948.0
947.0
948.0
956.0
964.0
971.0
974.0
969.0
956.0
940.0
932.0
930.0
939.0
950.0
962.0
966.0
966.0
964.0
963.0
958.0
954.0
952.0
949.0
950.0
953.0
960.0
964.0
965.0
961.0
953.0
948.0
945.0
946.0
947.0
951.0
955.0
954.0
956.0
958.0
964.0
974.0
984.0
990.0
996.0
998.0
998.0
1002.0
1002.0
1003.0
1002.0
1001.0
1000.0
996.0
997.0
1002.0
1011.0
1015.0
1015.0
