# Simple Text Format
# Sampling Rate (Hz):= 360.00
# Resolution:= 12
# Labels:= ECG
916.0
914.0
912.0
911.0
905.0
904.0
904.0
902.0
902.0
902.0
901.0
897.0
897.0
896.0
893.0
891.0
886.0
880.0
878.0
877.0
876.0
875.0
872.0
870.0
871.0
870.0
870.0
873.0
870.0
872.0
873.0
875.0
878.0
880.0
884.0
891.0
895.0
900.0
903.0
906.0
910.0
917.0
924.0
929.0
933.0
935.0
940.0
942.0
946.0
952.0
954.0
956.0
957.0
957.0
959.0
960.0
959.0
957.0
960.0
961.0
961.0
960.0
961.0
960.0
959.0
959.0
959.0
959.0
959.0
961.0
961.0
962.0
963.0
962.0
959.0
958.0
954.0
956.0
955.0
957.0
958.0
961.0
964.0
962.0
964.0
959.0
959.0
954.0
956.0
957.0
958.0
959.0
962.0
962.0
963.0
962.0
964.0
966.0
970.0
974.0
975.0
979.0
985.0
990.0
992.0
996.0
996.0
998.0
1002.0
1011.0
1016.0
1020.0
1024.0
1024.0
1021.0
1018.0
1014.0
1011.0
1015.0
1017.0
1017.0
1017.0
1011.0
1005.0
999.0
993.0
988.0
985.0
979.0
976.0
977.0
974.0
970.0
969.0
962.0
957.0
951.0
950.0
949.0
952.0
954.0
957.0
958.0
962.0
960.0
961.0
962.0
959.0
956.0
957.0
952.0
955.0
960.0
967.0
981.0
1006.0
1038.0
1073.0
1112.0
1149.0
1184.0
1220.0
1254.0
1288.0
1318.0
1338.0
1346.0
1344.0
1328.0
1301.0
1260.0
1206.0
1143.0
1087.0
1038.0
1001.0
983.0
971.0
969.0
964.0
965.0
957.0
947.0
940.0
930.0
925.0
925.0
923.0
926.0
924.0
924.0
925.0
923.0
924.0
921.0
919.0
916.0
915.0
916.0
914.0
917.0
914.0
917.0
916.0
916.0
915.0
914.0
914.0
913.0
912.0
914.0
913.0
913.0
913.0
914.0
911.0
911.0
910.0
908.0
908.0
906.0
905.0
902.0
901.0
901.0
900.0
899.0
897.0
893.0
891.0
888.0
885.0
881.0
874.0
877.0
875.0
873.0
871.0
872.0
871.0
869.0
869.0
867.0
867.0
865.0
866.0
867.0
872.0
874.0
879.0
881.0
885.0
891.0
895.0
899.0
903.0
909.0
913.0
918.0
926.0
931.0
936.0
942.0
943.0
948.0
950.0
952.0
950.0
952.0
954.0
953.0
957.0
958.0
961.0
965.0
968.0
967.0
968.0
969.0
971.0
973.0
978.0
985.0
994.0
1004.0
1014.0
1026.0
1038.0
1051.0
1064.0
1078.0
1098.0
1117.0
1134.0
1146.0
1139.0
1110.0
1054.0
977.0
886.0
798.0
730.0
674.0
641.0
617.0
597.0
579.0
567.0
558.0
555.0
555.0
562.0
572.0
581.0
596.0
613.0
631.0
657.0
678.0
698.0
714.0
732.0
750.0
768.0
788.0
810.0
834.0
852.0
869.0
879.0
888.0
899.0
914.0
933.0
957.0
983.0
1012.0
1035.0
1052.0
1059.0
1062.0
1056.0
1053.0
1050.0
1050.0
1053.0
1061.0
1064.0
1064.0
1066.0
1067.0
1065.0
1067.0
1067.0
1073.0
1075.0
1078.0
1082.0
1090.0
1092.0
1094.0
1099.0
1098.0
1096.0
1097.0
1098.0
1105.0
1110.0
1114.0
1120.0
1126.0
1128.0
1134.0
1137.0
1138.0
1140.0
1143.0
1148.0
1149.0
1152.0
1156.0
1162.0
1166.0
1170.0
1174.0
1175.0
1175.0
1174.0
1172.0
1173.0
1171.0
1166.0
1166.0
1162.0
1158.0
1151.0
1143.0
1140.0
1133.0
1123.0
1116.0
1110.0
1099.0
1096.0
1090.0
1083.0
1076.0
1070.0
1064.0
1058.0
1049.0
1040.0
1037.0
1030.0
1025.0
1019.0
1015.0
1011.0
1011.0
1006.0
1003.0
1001.0
996.0
993.0
989.0
987.0
987.0
985.0
986.0
986.0
985.0
986.0
986.0
983.0
980.0
980.0
978.0
981.0
981.0
979.0
981.0
982.0
984.0
984.0
984.0
980.0
981.0
978.0
977.0
977.0
977.0
978.0
980.0
981.0
980.0
980.0
981.0
980.0
975.0
972.0
971.0
970.0
968.0
972.0
975.0
977.0
976.0
978.0
975.0
974.0
973.0
971.0
971.0
969.0
968.0
971.0
971.0
973.0
974.0
974.0
972.0
970.0
968.0
967.0
967.0
967.0
967.0
967.0
969.0
968.0
969.0
965.0
968.0
966.0
965.0
962.0
963.0
960.0
962.0
962.0
966.0
967.0
965.0
966.0
968.0
968.0
966.0
966.0
965.0
964.0
965.0
966.0
966.0
969.0
969.0
968.0
968.0
968.0
966.0
966.0
969.0
968.0
968.0
968.0
967.0
966.0
969.0
969.0
974.0
976.0
982.0
986.0
990.0
991.0
992.0
994.0
993.0
997.0
1001.0
1009.0
1013.0
1020.0
1026.0
1030.0
1030.0
1027.0
1023.0
1020.0
1016.0
1016.0
1018.0
1019.0
1018.0
1017.0
1012.0
1005.0
999.0
991.0
984.0
979.0
976.0
974.0
970.0
965.0
962.0
960.0
957.0
955.0
952.0
952.0
954.0
955.0
957.0
959.0
959.0
962.0
960.0
960.0
959.0
958.0
961.0
968.0
984.0
1007.0
1041.0
1082.0
1125.0
1164.0
1204.0
1240.0
1276.0
1308.0
1327.0
1335.0
1334.0
1323.0
1299.0
1259.0
1203.0
1140.0
1084.0
1037.0
1001.0
978.0
967.0
960.0
959.0
956.0
950.0
941.0
935.0
926.0
923.0
921.0
918.0
919.0
916.0
916.0
918.0
918.0
917.0
915.0
916.0
916.0
913.0
911.0
908.0
908.0
907.0
906.0
907.0
907.0
907.0
908.0
909.0
907.0
908.0
906.0
906.0
903.0
902.0
902.0
901.0
900.0
897.0
899.0
898.0
897.0
894.0
893.0
890.0
887.0
884.0
882.0
880.0
878.0
878.0
874.0
873.0
873.0
870.0
867.0
861.0
858.0
854.0
847.0
844.0
842.0
844.0
839.0
840.0
839.0
839.0
838.0
835.0
832.0
831.0
833.0
833.0
835.0
834.0
838.0
842.0
846.0
853.0
856.0
858.0
861.0
864.0
873.0
878.0
883.0
891.0
898.0
903.0
910.0
918.0
923.0
926.0
928.0
929.0
933.0
936.0
938.0
941.0
945.0
948.0
946.0
945.0
947.0
946.0
944.0
942.0
943.0
943.0
944.0
945.0
946.0
951.0
951.0
950.0
951.0
952.0
950.0
948.0
949.0
949.0
949.0
948.0
947.0
947.0
947.0
944.0
942.0
940.0
945.0
944.0
942.0
940.0
942.0
943.0
942.0
946.0
945.0
951.0
951.0
951.0
951.0
953.0
956.0
957.0
960.0
964.0
967.0
974.0
977.0
976.0
979.0
979.0
986.0
993.0
1001.0
1007.0
1011.0
1013.0
1011.0
1007.0
1001.0
1000.0
999.0
997.0
997.0
997.0
995.0
990.0
986.0
979.0
974.0
971.0
964.0
958.0
953.0
950.0
946.0
945.0
940.0
936.0
936.0
939.0
937.0
942.0
941.0
944.0
941.0
941.0
941.0
941.0
938.0
938.0
940.0
943.0
947.0
959.0
973.0
996.0
1028.0
1067.0
1105.0
1145.0
1183.0
1222.0
1259.0
1291.0
1313.0
1323.0
1318.0
1303.0
1272.0
1227.0
1166.0
1102.0
1043.0
999.0
969.0
952.0
946.0
945.0
945.0
942.0
938.0
928.0
919.0
915.0
911.0
908.0
910.0
912.0
911.0
913.0
914.0
911.0
913.0
912.0
908.0
908.0
906.0
906.0
905.0
908.0
908.0
908.0
907.0
907.0
907.0
904.0
903.0
901.0
902.0
899.0
900.0
900.0
901.0
900.0
899.0
897.0
897.0
894.0
891.0
889.0
888.0
886.0
885.0
886.0
885.0
884.0
881.0
878.0
874.0
874.0
870.0
866.0
861.0
860.0
861.0
862.0
861.0
862.0
862.0
860.0
860.0
859.0
858.0
859.0
862.0
861.0
866.0
868.0
873.0
877.0
881.0
887.0
891.0
894.0
898.0
904.0
907.0
912.0
917.0
921.0
925.0
933.0
935.0
936.0
938.0
937.0
937.0
936.0
939.0
937.0
938.0
940.0
941.0
943.0
944.0
943.0
945.0
941.0
939.0
938.0
936.0
939.0
941.0
942.0
943.0
945.0
944.0
944.0
944.0
939.0
943.0
940.0
940.0
940.0
941.0
944.0
943.0
945.0
943.0
943.0
943.0
944.0
945.0
944.0
943.0
943.0
946.0
948.0
947.0
951.0
951.0
953.0
956.0
960.0
962.0
965.0
968.0
969.0
971.0
972.0
975.0
979.0
984.0
990.0
998.0
1006.0
1009.0
1011.0
1007.0
1003.0
999.0
997.0
997.0
998.0
1000.0
1003.0
1002.0
999.0
992.0
987.0
981.0
975.0
969.0
963.0
961.0
958.0
955.0
952.0
949.0
945.0
941.0
937.0
938.0
939.0
942.0
945.0
947.0
948.0
950.0
946.0
947.0
942.0
942.0
938.0
939.0
944.0
953.0
970.0
996.0
1029.0
1066.0
1104.0
1144.0
1178.0
1213.0
1247.0
1280.0
1308.0
1327.0
1338.0
1334.0
1317.0
1283.0
1234.0
1170.0
1100.0
1040.0
999.0
971.0
960.0
958.0
953.0
953.0
952.0
945.0
935.0
928.0
919.0
911.0
909.0
907.0
909.0
909.0
910.0
912.0
913.0
910.0
910.0
907.0
906.0
907.0
906.0
905.0
904.0
904.0
905.0
907.0
908.0
907.0
907.0
906.0
904.0
902.0
899.0
898.0
898.0
898.0
898.0
901.0
902.0
901.0
901.0
898.0
896.0
893.0
890.0
889.0
886.0
887.0
886.0
884.0
882.0
878.0
875.0
874.0
868.0
868.0
868.0
865.0
863.0
861.0
858.0
855.0
854.0
854.0
853.0
853.0
848.0
847.0
846.0
847.0
846.0
849.0
851.0
854.0
858.0
862.0
866.0
870.0
874.0
878.0
882.0
890.0
894.0
901.0
907.0
913.0
919.0
924.0
927.0
931.0
932.0
935.0
936.0
939.0
940.0
943.0
945.0
944.0
946.0
946.0
950.0
952.0
956.0
958.0
962.0
966.0
976.0
989.0
1002.0
1015.0
1030.0
1042.0
1059.0
1078.0
1098.0
1115.0
1125.0
1116.0
1092.0
1047.0
983.0
906.0
828.0
759.0
703.0
661.0
629.0
609.0
593.0
576.0
561.0
550.0
549.0
552.0
557.0
566.0
574.0
590.0
606.0
627.0
650.0
673.0
695.0
712.0
729.0
746.0
763.0
784.0
807.0
833.0
854.0
873.0
886.0
897.0
906.0
921.0
943.0
972.0
1001.0
1026.0
1043.0
1056.0
1056.0
1054.0
1050.0
1045.0
1042.0
1042.0
1045.0
1047.0
1051.0
1054.0
1054.0
1055.0
1055.0
1056.0
1057.0
1057.0
1059.0
1061.0
1068.0
1072.0
1077.0
1079.0
1083.0
1081.0
1082.0
1085.0
1088.0
1090.0
1094.0
1097.0
1103.0
1109.0
1114.0
1117.0
1122.0
1127.0
1130.0
1131.0
1132.0
1134.0
1137.0
1141.0
1145.0
1148.0
1151.0
1153.0
1153.0
1152.0
1151.0
1149.0
1147.0
1143.0
1140.0
1137.0
1133.0
1129.0
1124.0
1117.0
1110.0
1101.0
1093.0
1085.0
1076.0
1071.0
1066.0
1056.0
1053.0
1044.0
1038.0
1035.0
1024.0
1019.0
1012.0
1004.0
996.0
995.0
989.0
985.0
983.0
981.0
980.0
978.0
977.0
976.0
974.0
970.0
968.0
967.0
966.0
963.0
961.0
961.0
961.0
964.0
965.0
966.0
966.0
966.0
965.0
964.0
963.0
964.0
964.0
965.0
965.0
964.0
965.0
966.0
966.0
963.0
962.0
962.0
959.0
958.0
960.0
959.0
959.0
959.0
958.0
960.0
957.0
956.0
954.0
954.0
955.0
957.0
956.0
959.0
959.0
959.0
956.0
956.0
955.0
954.0
953.0
950.0
950.0
951.0
951.0
952.0
953.0
953.0
951.0
952.0
947.0
950.0
952.0
948.0
949.0
951.0
948.0
947.0
948.0
943.0
944.0
946.0
947.0
947.0
949.0
949.0
949.0
948.0
950.0
951.0
952.0
952.0
953.0
952.0
951.0
949.0
947.0
947.0
946.0
944.0
945.0
945.0
949.0
948.0
949.0
950.0
949.0
950.0
950.0
952.0
954.0
956.0
962.0
964.0
967.0
968.0
969.0
970.0
973.0
971.0
970.0
974.0
979.0
981.0
987.0
997.0
1003.0
1007.0
1009.0
1007.0
1004.0
998.0
995.0
993.0
995.0
1003.0
1006.0
1008.0
1006.0
1000.0
991.0
983.0
975.0
967.0
959.0
954.0
952.0
951.0
951.0
950.0
950.0
948.0
943.0
941.0
939.0
936.0
936.0
935.0
936.0
938.0
942.0
938.0
939.0
941.0
940.0
939.0
943.0
952.0
965.0
989.0
1023.0
1062.0
1103.0
1142.0
1178.0
1213.0
1250.0
1283.0
1308.0
1324.0
1327.0
1319.0
1302.0
1268.0
1224.0
1162.0
1100.0
1044.0
1002.0
974.0
958.0
950.0
948.0
944.0
940.0
932.0
924.0
915.0
905.0
901.0
900.0
900.0
898.0
897.0
895.0
893.0
893.0
894.0
894.0
896.0
893.0
894.0
893.0
890.0
889.0
889.0
891.0
892.0
890.0
889.0
885.0
885.0
884.0
882.0
881.0
880.0
880.0
878.0
875.0
874.0
874.0
872.0
872.0
874.0
875.0
874.0
873.0
872.0
867.0
863.0
860.0
857.0
854.0
854.0
853.0
851.0
852.0
850.0
847.0
846.0
843.0
837.0
831.0
823.0
820.0
815.0
812.0
810.0
809.0
806.0
806.0
802.0
801.0
802.0
800.0
802.0
807.0
811.0
814.0
816.0
819.0
820.0
818.0
820.0
823.0
824.0
826.0
832.0
838.0
843.0
850.0
860.0
865.0
870.0
872.0
876.0
880.0
884.0
888.0
893.0
896.0
902.0
905.0
907.0
906.0
903.0
903.0
903.0
908.0
908.0
908.0
905.0
907.0
909.0
912.0
918.0
920.0
919.0
915.0
908.0
903.0
902.0
902.0
902.0
903.0
905.0
909.0
910.0
911.0
913.0
907.0
910.0
908.0
906.0
904.0
901.0
898.0
897.0
897.0
896.0
900.0
903.0
908.0
912.0
913.0
912.0
912.0
912.0
916.0
919.0
923.0
925.0
927.0
929.0
930.0
933.0
935.0
940.0
945.0
950.0
954.0
953.0
953.0
949.0
950.0
950.0
951.0
953.0
950.0
951.0
950.0
951.0
949.0
943.0
935.0
926.0
919.0
915.0
913.0
912.0
910.0
907.0
903.0
897.0
893.0
893.0
892.0
893.0
894.0
893.0
891.0
891.0
892.0
895.0
896.0
899.0
895.0
894.0
893.0
890.0
890.0
891.0
898.0
910.0
934.0
961.0
999.0
1037.0
1079.0
1115.0
1152.0
1183.0
1212.0
1237.0
1254.0
1259.0
1255.0
1235.0
1202.0
1156.0
1096.0
1035.0
979.0
939.0
914.0
899.0
890.0
888.0
883.0
881.0
873.0
863.0
856.0
851.0
851.0
848.0
842.0
842.0
843.0
841.0
839.0
839.0
835.0
840.0
844.0
845.0
842.0
836.0
832.0
830.0
826.0
828.0
829.0
831.0
829.0
831.0
834.0
835.0
833.0
832.0
830.0
829.0
827.0
829.0
828.0
827.0
828.0
827.0
827.0
824.0
822.0
820.0
817.0
818.0
817.0
815.0
811.0
809.0
805.0
802.0
801.0
800.0
800.0
799.0
799.0
798.0
797.0
796.0
789.0
789.0
789.0
787.0
789.0
790.0
793.0
792.0
795.0
795.0
797.0
798.0
803.0
807.0
808.0
810.0
813.0
817.0
822.0
828.0
836.0
841.0
845.0
849.0
853.0
855.0
857.0
861.0
863.0
864.0
865.0
868.0
867.0
867.0
871.0
873.0
875.0
876.0
876.0
874.0
874.0
874.0
875.0
877.0
881.0
881.0
879.0
881.0
879.0
876.0
873.0
875.0
877.0
878.0
881.0
884.0
885.0
887.0
885.0
886.0
884.0
884.0
885.0
885.0
887.0
889.0
891.0
894.0
896.0
898.0
898.0
897.0
897.0
899.0
900.0
906.0
910.0
914.0
920.0
925.0
929.0
929.0
931.0
935.0
934.0
938.0
945.0
950.0
957.0
961.0
963.0
960.0
959.0
956.0
955.0
958.0
960.0
958.0
958.0
957.0
952.0
947.0
944.0
937.0
932.0
931.0
927.0
925.0
921.0
917.0
912.0
911.0
910.0
908.0
907.0
909.0
914.0
914.0
915.0
916.0
914.0
913.0
913.0
915.0
917.0
918.0
923.0
929.0
941.0
962.0
988.0
1025.0
1063.0
1101.0
1141.0
1181.0
1220.0
1254.0
1285.0
1302.0
1308.0
1300.0
1276.0
1243.0
1192.0
1132.0
1071.0
1021.0
982.0
957.0
942.0
937.0
935.0
932.0
926.0
916.0
906.0
897.0
894.0
892.0
890.0
891.0
893.0
893.0
894.0
893.0
888.0
888.0
884.0
884.0
884.0
885.0
887.0
886.0
888.0
886.0
888.0
890.0
889.0
890.0
889.0
890.0
885.0
882.0
884.0
883.0
883.0
882.0
882.0
882.0
885.0
883.0
882.0
878.0
878.0
877.0
875.0
875.0
872.0
873.0
871.0
869.0
868.0
863.0
859.0
858.0
855.0
853.0
850.0
847.0
845.0
848.0
848.0
847.0
846.0
843.0
842.0
840.0
841.0
839.0
843.0
845.0
847.0
850.0
856.0
860.0
862.0
865.0
869.0
873.0
874.0
879.0
886.0
891.0
897.0
903.0
908.0
911.0
912.0
917.0
921.0
922.0
925.0
927.0
929.0
932.0
936.0
940.0
940.0
941.0
941.0
942.0
943.0
944.0
946.0
950.0
953.0
957.0
964.0
971.0
978.0
985.0
992.0
1002.0
1013.0
1024.0
1037.0
1051.0
1071.0
1090.0
1110.0
1118.0
1115.0
1090.0
1046.0
987.0
913.0
842.0
783.0
734.0
699.0
674.0
656.0
641.0
627.0
616.0
603.0
596.0
590.0
592.0
597.0
603.0
614.0
628.0
645.0
665.0
684.0
708.0
726.0
743.0
757.0
771.0
785.0
803.0
824.0
841.0
858.0
872.0
887.0
900.0
911.0
925.0
939.0
958.0
980.0
997.0
1012.0
1024.0
1029.0
1031.0
1033.0
1032.0
1032.0
1032.0
1032.0
1033.0
1034.0
1034.0
1037.0
1039.0
1043.0
1047.0
1050.0
1053.0
1059.0
1063.0
1063.0
1068.0
1068.0
1071.0
1071.0
1076.0
1082.0
1083.0
1088.0
1094.0
1099.0
1103.0
1103.0
1107.0
1111.0
1117.0
1119.0
1123.0
1129.0
1135.0
1140.0
1140.0
1147.0
1146.0
1148.0
1149.0
1150.0
1150.0
1148.0
1145.0
1147.0
1146.0
1145.0
1142.0
1135.0
1131.0
1123.0
1117.0
1107.0
1096.0
1091.0
1084.0
1080.0
1077.0
1070.0
1063.0
1055.0
1049.0
1044.0
1035.0
1026.0
1020.0
1014.0
1011.0
1009.0
1007.0
1005.0
999.0
999.0
994.0
992.0
987.0
983.0
983.0
980.0
979.0
980.0
981.0
980.0
979.0
980.0
979.0
979.0
977.0
976.0
975.0
976.0
977.0
978.0
977.0
977.0
978.0
978.0
978.0
979.0
979.0
976.0
973.0
973.0
972.0
972.0
976.0
977.0
977.0
976.0
976.0
976.0
972.0
971.0
969.0
970.0
970.0
972.0
973.0
974.0
976.0
975.0
973.0
973.0
973.0
970.0
969.0
969.0
968.0
969.0
971.0
974.0
973.0
974.0
975.0
974.0
973.0
972.0
973.0
971.0
970.0
971.0
972.0
973.0
975.0
974.0
976.0
973.0
972.0
971.0
974.0
974.0
974.0
973.0
975.0
978.0
979.0
979.0
979.0
979.0
976.0
977.0
977.0
977.0
976.0
980.0
982.0
984.0
987.0
990.0
993.0
995.0
997.0
1002.0
1002.0
1005.0
1010.0
1012.0
1015.0
1021.0
1025.0
1031.0
1037.0
1041.0
1041.0
1036.0
1032.0
1030.0
1028.0
1027.0
1030.0
1033.0
1034.0
1033.0
1028.0
1025.0
1020.0
1012.0
1008.0
1003.0
998.0
997.0
996.0
995.0
991.0
990.0
984.0
980.0
977.0
975.0
975.0
973.0
975.0
979.0
980.0
984.0
986.0
986.0
987.0
985.0
984.0
985.0
989.0
1001.0
1020.0
1049.0
1084.0
1125.0
1167.0
1205.0
1243.0
1278.0
1311.0
1335.0
1356.0
1362.0
1356.0
1335.0
1301.0
1253.0
1192.0
1131.0
1079.0
1037.0
1011.0
995.0
987.0
986.0
982.0
981.0
974.0
969.0
961.0
957.0
954.0
954.0
952.0
949.0
949.0
950.0
947.0
945.0
944.0
948.0
943.0
948.0
947.0
946.0
944.0
943.0
941.0
942.0
943.0
943.0
941.0
942.0
942.0
945.0
945.0
942.0
939.0
936.0
934.0
936.0
937.0
936.0
937.0
940.0
940.0
937.0
936.0
931.0
929.0
927.0
925.0
922.0
920.0
921.0
919.0
917.0
916.0
914.0
909.0
905.0
902.0
898.0
894.0
894.0
889.0
888.0
887.0
889.0
886.0
881.0
881.0
879.0
878.0
873.0
873.0
876.0
879.0
880.0
884.0
887.0
891.0
893.0
898.0
903.0
908.0
914.0
918.0
923.0
932.0
935.0
944.0
948.0
953.0
958.0
963.0
970.0
972.0
978.0
979.0
985.0
987.0
988.0
990.0
993.0
993.0
994.0
994.0
994.0
994.0
994.0
994.0
996.0
996.0
996.0
998.0
999.0
998.0
995.0
996.0
998.0
995.0
995.0
994.0
992.0
995.0
997.0
998.0
999.0
1000.0
996.0
999.0
999.0
1000.0
997.0
1002.0
1004.0
1005.0
1009.0
1011.0
1014.0
1021.0
1026.0
1029.0
1032.0
1032.0
1033.0
1036.0
1041.0
1048.0
1055.0
1061.0
1064.0
1063.0
1058.0
1056.0
1051.0
1051.0
1050.0
1050.0
1050.0
1050.0
1048.0
1043.0
1038.0
1031.0
1025.0
1021.0
1016.0
1014.0
1009.0
1008.0
1003.0
1000.0
999.0
997.0
994.0
993.0
994.0
997.0
997.0
997.0
996.0
995.0
998.0
999.0
1002.0
1000.0
1003.0
1003.0
1010.0
1018.0
1032.0
1056.0
1090.0
1129.0
1170.0
1209.0
1250.0
1282.0
1319.0
1350.0
1372.0
1385.0
1386.0
1374.0
1361.0
1328.0
1281.0
1221.0
1160.0
1104.0
1060.0
1031.0
1013.0
1007.0
1002.0
1001.0
998.0
992.0
984.0
980.0
974.0
971.0
973.0
973.0
968.0
970.0
969.0
968.0
966.0
966.0
967.0
967.0
967.0
967.0
968.0
970.0
969.0
970.0
967.0
967.0
965.0
964.0
961.0
964.0
966.0
966.0
967.0
968.0
967.0
965.0
961.0
960.0
957.0
955.0
955.0
953.0
954.0
955.0
954.0
953.0
951.0
948.0
943.0
940.0
938.0
938.0
935.0
932.0
930.0
929.0
930.0
927.0
927.0
923.0
922.0
917.0
915.0
912.0
912.0
911.0
913.0
917.0
918.0
921.0
924.0
928.0
930.0
931.0
935.0
940.0
946.0
949.0
956.0
960.0
967.0
970.0
971.0
975.0
979.0
982.0
984.0
985.0
989.0
990.0
992.0
994.0
995.0
998.0
998.0
999.0
999.0
1001.0
998.0
997.0
998.0
998.0
999.0
1000.0
1000.0
1002.0
1000.0
1000.0
1001.0
998.0
997.0
997.0
997.0
997.0
995.0
1000.0
998.0
996.0
999.0
999.0
999.0
1000.0
998.0
998.0
999.0
997.0
997.0
999.0
1000.0
1002.0
1000.0
1002.0
997.0
999.0
1000.0
1004.0
1010.0
1015.0
1021.0
1024.0
1030.0
1031.0
1031.0
1033.0
1034.0
1036.0
1044.0
1052.0
1059.0
1065.0
1070.0
1067.0
1063.0
1058.0
1055.0
1054.0
1051.0
1052.0
1053.0
1049.0
1045.0
1041.0
1032.0
1029.0
1024.0
1016.0
1012.0
1008.0
1001.0
999.0
996.0
996.0
993.0
996.0
995.0
995.0
998.0
1002.0
1000.0
1002.0
998.0
998.0
999.0
997.0
998.0
1001.0
1003.0
1016.0
1032.0
1058.0
1091.0
1135.0
1175.0
1218.0
1259.0
1298.0
1338.0
1367.0
1388.0
1399.0
1397.0
1376.0
1337.0
1278.0
1206.0
1135.0
1077.0
1038.0
1016.0
1009.0
1008.0
1010.0
1009.0
999.0
991.0
982.0
973.0
968.0
967.0
967.0
968.0
970.0
969.0
972.0
970.0
967.0
967.0
969.0
967.0
965.0
964.0
962.0
962.0
963.0
963.0
964.0
963.0
963.0
965.0
964.0
962.0
962.0
958.0
956.0
957.0
958.0
959.0
960.0
962.0
960.0
960.0
956.0
955.0
953.0
949.0
947.0
943.0
944.0
941.0
940.0
940.0
939.0
935.0
933.0
928.0
927.0
924.0
920.0
918.0
917.0
916.0
915.0
913.0
912.0
909.0
909.0
909.0
908.0
906.0
909.0
909.0
911.0
914.0
922.0
927.0
932.0
936.0
940.0
945.0
948.0
952.0
955.0
961.0
966.0
971.0
977.0
982.0
986.0
990.0
993.0
994.0
998.0
996.0
999.0
1001.0
1001.0
1004.0
1008.0
1010.0
1013.0
1017.0
1018.0
1019.0
1021.0
1022.0
1024.0
1031.0
1034.0
1043.0
1053.0
1063.0
1073.0
1085.0
1099.0
1112.0
1127.0
1144.0
1165.0
1189.0
1209.0
1220.0
1216.0
1195.0
1151.0
1092.0
1017.0
935.0
864.0
805.0
756.0
723.0
699.0
680.0
663.0
647.0
635.0
627.0
626.0
627.0
635.0
650.0
663.0
680.0
700.0
721.0
739.0
760.0
776.0
792.0
807.0
821.0
841.0
861.0
882.0
902.0
920.0
932.0
942.0
950.0
960.0
973.0
993.0
1013.0
1041.0
1066.0
1085.0
1097.0
1105.0
1104.0
1104.0
1100.0
1097.0
1095.0
1095.0
1095.0
1098.0
1096.0
1096.0
1099.0
1100.0
1101.0
1104.0
1111.0
1112.0
1115.0
1118.0
1119.0
1121.0
1123.0
1126.0
1128.0
1130.0
1136.0
1141.0
1144.0
1145.0
1148.0
1150.0
1148.0
1151.0
1156.0
1158.0
1163.0
1167.0
1174.0
1178.0
1184.0
1187.0
1192.0
1195.0
1199.0
1202.0
1200.0
1201.0
1204.0
1207.0
1207.0
1207.0
1207.0
1207.0
1206.0
1204.0
1200.0
1194.0
1187.0
1181.0
1179.0
1173.0
1167.0
1160.0
1154.0
1149.0
1141.0
1133.0
1125.0
1116.0
1109.0
1100.0
1095.0
1086.0
1083.0
1078.0
1074.0
1071.0
1066.0
1062.0
1058.0
1054.0
1048.0
1044.0
1042.0
1039.0
1039.0
1038.0
1037.0
1034.0
1034.0
1036.0
1035.0
1033.0
1031.0
1028.0
1031.0
1029.0
1031.0
1032.0
1033.0
1034.0
1035.0
1031.0
1032.0
1032.0
1032.0
1031.0
1031.0
1032.0
1031.0
1029.0
1031.0
1031.0
1029.0
1029.0
1031.0
1029.0
1028.0
1025.0
1025.0
1026.0
1026.0
1026.0
1026.0
1023.0
1023.0
1022.0
1023.0
1024.0
1023.0
1023.0
1020.0
1022.0
1024.0
1023.0
1020.0
1021.0
1021.0
1022.0
1021.0
1019.0
1015.0
1018.0
1019.0
1018.0
1018.0
1017.0
1018.0
1018.0
1016.0
1020.0
1021.0
1021.0
1021.0
1021.0
1021.0
1020.0
1021.0
1021.0
1019.0
1019.0
1019.0
1018.0
1018.0
1019.0
1015.0
1020.0
1020.0
1020.0
1021.0
1020.0
1023.0
1025.0
1024.0
1021.0
1020.0
1019.0
1023.0
1021.0
1024.0
1023.0
1025.0
1029.0
1032.0
1036.0
1037.0
1040.0
1041.0
1042.0
1047.0
1049.0
1052.0
1056.0
1055.0
1058.0
1063.0
1065.0
1074.0
1081.0
1086.0
1088.0
1088.0
1085.0
1082.0
1078.0
1077.0
1078.0
1080.0
1082.0
1083.0
1080.0
1074.0
1069.0
1061.0
1055.0
1050.0
1044.0
1040.0
1039.0
1036.0
1035.0
1031.0
1026.0
1023.0
1019.0
1015.0
1014.0
1016.0
1017.0
1018.0
1019.0
1021.0
1024.0
1022.0
1024.0
1022.0
1020.0
1020.0
1022.0
1030.0
1041.0
1066.0
1098.0
1139.0
1180.0
1222.0
1260.0
1296.0
1330.0
1364.0
1395.0
1410.0
1419.0
1419.0
1401.0
1367.0
1316.0
1246.0
1175.0
1112.0
1069.0
1041.0
1026.0
1024.0
1023.0
1022.0
1019.0
1013.0
1002.0
994.0
991.0
988.0
984.0
981.0
982.0
983.0
982.0
981.0
983.0
982.0
982.0
981.0
978.0
981.0
979.0
978.0
976.0
976.0
973.0
974.0
977.0
978.0
978.0
977.0
977.0
974.0
972.0
972.0
969.0
969.0
970.0
972.0
968.0
969.0
967.0
969.0
965.0
964.0
960.0
957.0
956.0
955.0
952.0
949.0
948.0
947.0
944.0
942.0
938.0
933.0
927.0
925.0
924.0
921.0
920.0
917.0
914.0
910.0
910.0
906.0
905.0
903.0
899.0
897.0
896.0
899.0
899.0
901.0
905.0
906.0
911.0
913.0
916.0
920.0
919.0
922.0
926.0
935.0
944.0
950.0
957.0
966.0
973.0
978.0
985.0
989.0
992.0
994.0
997.0
1007.0
1008.0
1015.0
1018.0
1020.0
1023.0
1020.0
1024.0
1020.0
1021.0
1023.0
1023.0
1023.0
1025.0
1026.0
1027.0
1026.0
1027.0
1028.0
1029.0
1028.0
1027.0
1025.0
1023.0
1025.0
1021.0
1025.0
1026.0
1029.0
1027.0
1027.0
1029.0
1028.0
1024.0
1026.0
1025.0
1023.0
1024.0
1025.0
1024.0
1028.0
1033.0
1034.0
1037.0
1037.0
1040.0
1043.0
1047.0
1053.0
1054.0
1059.0
1061.0
1062.0
1070.0
1077.0
1085.0
1091.0
1094.0
1091.0
1087.0
1082.0
1079.0
1080.0
1082.0
1084.0
1090.0
1084.0
1080.0
1073.0
1068.0
1060.0
1053.0
1049.0
1042.0
1037.0
1037.0
1035.0
1033.0
1029.0
1026.0
1022.0
1020.0
1017.0
1017.0
1019.0
1021.0
1022.0
1024.0
1027.0
1027.0
1028.0
1027.0
1025.0
1025.0
1026.0
1035.0
1053.0
1082.0
1121.0
1166.0
1213.0
1257.0
1299.0
1338.0
1372.0
1398.0
1411.0
1416.0
1413.0
1395.0
1360.0
1310.0
1245.0
1177.0
1117.0
1076.0
1046.0
1031.0
1024.0
1024.0
1022.0
1019.0
1015.0
1008.0
1003.0
999.0
996.0
996.0
997.0
996.0
996.0
991.0
992.0
992.0
992.0
992.0
992.0
995.0
994.0
994.0
992.0
990.0
988.0
985.0
987.0
988.0
986.0
987.0
989.0
988.0
989.0
990.0
988.0
986.0
983.0
979.0
980.0
979.0
980.0
979.0
978.0
979.0
975.0
974.0
970.0
968.0
963.0
960.0
959.0
957.0
955.0
952.0
951.0
949.0
946.0
947.0
944.0
944.0
941.0
938.0
936.0
935.0
937.0
939.0
940.0
944.0
945.0
949.0
950.0
951.0
952.0
957.0
963.0
966.0
973.0
978.0
984.0
990.0
993.0
998.0
1000.0
1003.0
1003.0
1007.0
1011.0
1013.0
1015.0
1016.0
1022.0
1023.0
1022.0
1024.0
1021.0
1024.0
1023.0
1023.0
1023.0
1022.0
1021.0
1021.0
1025.0
1025.0
1025.0
1024.0
1023.0
1020.0
1018.0
1017.0
1017.0
1019.0
1022.0
1021.0
1022.0
1022.0
1022.0
1019.0
1019.0
1016.0
1016.0
1016.0
1018.0
1019.0
1019.0
1021.0
1022.0
1022.0
1022.0
1019.0
1019.0
1018.0
1016.0
1020.0
1022.0
1023.0
1029.0
1033.0
1038.0
1042.0
1047.0
1047.0
1049.0
1051.0
1049.0
1051.0
1057.0
1063.0
1072.0
1081.0
1086.0
1090.0
1087.0
1083.0
1075.0
1071.0
1068.0
1068.0
1070.0
1072.0
1074.0
1072.0
1067.0
1061.0
1052.0
1045.0
1040.0
1036.0
1031.0
1028.0
1025.0
1021.0
1021.0
1017.0
1017.0
1018.0
1015.0
1018.0
1017.0
1016.0
1015.0
1016.0
1016.0
1017.0
1016.0
1019.0
1022.0
1024.0
1028.0
1035.0
1048.0
1070.0
1102.0
1139.0
1184.0
1224.0
1267.0
1305.0
1343.0
1376.0
1401.0
1412.0
1409.0
1392.0
1365.0
1319.0
1257.0
1191.0
1130.0
1081.0
1047.0
1029.0
