# Simple Text Format
# Sampling Rate (Hz):= 360.00
# Resolution:= 12
# Labels:= ECG
982.0
979.0
978.0
978.0
976.0
977.0
979.0
978.0
982.0
984.0
983.0
982.0
982.0
983.0
988.0
999.0
1020.0
1049.0
1088.0
1129.0
1172.0
1212.0
1255.0
1289.0
1324.0
1350.0
1363.0
1362.0
1349.0
1322.0
1290.0
1245.0
1193.0
1140.0
1092.0
1059.0
1037.0
1020.0
1011.0
1003.0
997.0
990.0
981.0
971.0
963.0
955.0
950.0
946.0
945.0
943.0
947.0
945.0
945.0
945.0
945.0
941.0
942.0
942.0
941.0
941.0
940.0
937.0
935.0
936.0
935.0
936.0
935.0
937.0
937.0
939.0
940.0
937.0
938.0
936.0
933.0
932.0
931.0
930.0
930.0
932.0
929.0
930.0
928.0
924.0
927.0
923.0
921.0
918.0
916.0
912.0
911.0
906.0
907.0
905.0
906.0
899.0
898.0
896.0
893.0
889.0
887.0
885.0
883.0
881.0
879.0
878.0
876.0
875.0
875.0
876.0
876.0
877.0
876.0
881.0
884.0
889.0
890.0
893.0
897.0
902.0
907.0
913.0
918.0
926.0
930.0
937.0
942.0
947.0
952.0
957.0
966.0
970.0
973.0
975.0
977.0
976.0
976.0
975.0
978.0
978.0
980.0
981.0
984.0
981.0
987.0
985.0
982.0
982.0
981.0
981.0
979.0
979.0
980.0
981.0
984.0
985.0
986.0
985.0
984.0
986.0
982.0
982.0
980.0
981.0
978.0
981.0
981.0
981.0
983.0
987.0
991.0
992.0
994.0
996.0
999.0
1002.0
1004.0
1006.0
1009.0
1009.0
1013.0
1020.0
1026.0
1031.0
1035.0
1038.0
1041.0
1040.0
1038.0
1034.0
1032.0
1030.0
1032.0
1032.0
1032.0
1028.0
1027.0
1021.0
1014.0
1009.0
1004.0
1001.0
997.0
995.0
986.0
985.0
981.0
979.0
976.0
975.0
974.0
974.0
972.0
975.0
977.0
976.0
977.0
978.0
979.0
978.0
979.0
982.0
987.0
992.0
1002.0
1022.0
1049.0
1082.0
1127.0
1166.0
1208.0
1246.0
1284.0
1317.0
1341.0
1354.0
1352.0
1339.0
1316.0
1279.0
1236.0
1179.0
1124.0
1075.0
1044.0
1023.0
1009.0
999.0
998.0
996.0
991.0
985.0
972.0
963.0
956.0
953.0
952.0
952.0
953.0
954.0
954.0
955.0
955.0
952.0
953.0
949.0
948.0
946.0
944.0
946.0
947.0
946.0
947.0
946.0
946.0
946.0
947.0
947.0
948.0
946.0
942.0
941.0
939.0
939.0
940.0
941.0
942.0
944.0
945.0
940.0
939.0
937.0
935.0
934.0
934.0
929.0
932.0
929.0
928.0
925.0
926.0
923.0
921.0
919.0
914.0
911.0
909.0
908.0
911.0
912.0
914.0
912.0
910.0
912.0
911.0
911.0
913.0
916.0
918.0
920.0
923.0
931.0
933.0
935.0
942.0
945.0
950.0
953.0
955.0
960.0
964.0
971.0
974.0
977.0
978.0
978.0
977.0
976.0
983.0
984.0
983.0
982.0
984.0
985.0
987.0
988.0
990.0
989.0
989.0
988.0
986.0
988.0
986.0
984.0
985.0
987.0
988.0
988.0
989.0
989.0
988.0
986.0
984.0
982.0
984.0
987.0
986.0
989.0
989.0
992.0
989.0
986.0
988.0
985.0
982.0
984.0
980.0
981.0
983.0
990.0
993.0
998.0
1003.0
1008.0
1011.0
1009.0
1011.0
1009.0
1011.0
1011.0
1016.0
1023.0
1030.0
1038.0
1045.0
1048.0
1053.0
1050.0
1046.0
1039.0
1035.0
1036.0
1037.0
1043.0
1043.0
1046.0
1044.0
1035.0
1026.0
1017.0
1006.0
1002.0
997.0
995.0
993.0
992.0
989.0
989.0
988.0
985.0
985.0
987.0
985.0
982.0
981.0
983.0
982.0
983.0
983.0
987.0
987.0
985.0
989.0
992.0
999.0
1011.0
1026.0
1057.0
1095.0
1139.0
1179.0
1219.0
1259.0
1295.0
1328.0
1353.0
1363.0
1360.0
1345.0
1318.0
1279.0
1233.0
1180.0
1124.0
1078.0
1046.0
1025.0
1012.0
1005.0
1003.0
994.0
989.0
980.0
969.0
962.0
959.0
957.0
957.0
957.0
958.0
958.0
956.0
954.0
951.0
952.0
951.0
951.0
952.0
953.0
955.0
955.0
954.0
953.0
952.0
952.0
954.0
953.0
951.0
951.0
949.0
951.0
946.0
946.0
944.0
943.0
943.0
940.0
940.0
939.0
942.0
941.0
940.0
938.0
936.0
933.0
928.0
925.0
922.0
922.0
921.0
919.0
918.0
916.0
913.0
909.0
903.0
903.0
898.0
900.0
900.0
904.0
904.0
906.0
910.0
911.0
909.0
912.0
915.0
918.0
919.0
924.0
929.0
931.0
938.0
945.0
949.0
957.0
963.0
966.0
970.0
974.0
971.0
973.0
973.0
974.0
978.0
982.0
985.0
987.0
989.0
991.0
990.0
989.0
987.0
986.0
987.0
987.0
986.0
990.0
998.0
1000.0
1005.0
1014.0
1019.0
1029.0
1036.0
1049.0
1058.0
1069.0
1085.0
1101.0
1120.0
1136.0
1153.0
1161.0
1153.0
1129.0
1078.0
1008.0
920.0
835.0
760.0
707.0
669.0
649.0
633.0
620.0
611.0
606.0
602.0
602.0
607.0
617.0
632.0
649.0
671.0
697.0
723.0
752.0
770.0
788.0
798.0
811.0
824.0
842.0
864.0
888.0
909.0
928.0
942.0
953.0
958.0
968.0
980.0
995.0
1013.0
1031.0
1051.0
1069.0
1080.0
1084.0
1083.0
1078.0
1074.0
1072.0
1069.0
1072.0
1079.0
1085.0
1090.0
1093.0
1097.0
1101.0
1103.0
1103.0
1104.0
1108.0
1110.0
1113.0
1114.0
1117.0
1119.0
1119.0
1121.0
1129.0
1133.0
1140.0
1144.0
1149.0
1149.0
1151.0
1152.0
1155.0
1158.0
1161.0
1168.0
1174.0
1181.0
1186.0
1190.0
1192.0
1193.0
1196.0
1196.0
1196.0
1198.0
1198.0
1198.0
1198.0
1196.0
1194.0
1191.0
1186.0
1183.0
1178.0
1170.0
1164.0
1160.0
1153.0
1151.0
1142.0
1138.0
1129.0
1121.0
1110.0
1101.0
1095.0
1088.0
1080.0
1075.0
1072.0
1066.0
1061.0
1055.0
1051.0
1043.0
1039.0
1032.0
1028.0
1024.0
1021.0
1021.0
1020.0
1020.0
1018.0
1018.0
1015.0
1011.0
1012.0
1010.0
1008.0
1005.0
1001.0
1001.0
1000.0
1002.0
1005.0
1007.0
1008.0
1010.0
1010.0
1009.0
1010.0
1011.0
1007.0
1004.0
1004.0
1005.0
1005.0
1005.0
1005.0
1003.0
1004.0
1003.0
1005.0
1005.0
1001.0
999.0
1002.0
1002.0
1005.0
1005.0
1007.0
1007.0
1008.0
1006.0
1004.0
1002.0
998.0
1000.0
999.0
999.0
1001.0
1003.0
1003.0
1002.0
1001.0
997.0
991.0
993.0
991.0
990.0
991.0
994.0
996.0
1000.0
1002.0
1000.0
997.0
994.0
992.0
993.0
991.0
993.0
996.0
1000.0
999.0
999.0
997.0
995.0
996.0
995.0
995.0
993.0
991.0
993.0
995.0
998.0
997.0
998.0
997.0
999.0
998.0
999.0
995.0
993.0
990.0
990.0
991.0
996.0
1002.0
1006.0
1008.0
1013.0
1015.0
1016.0
1018.0
1017.0
1016.0
1019.0
1022.0
1028.0
1038.0
1046.0
1052.0
1054.0
1055.0
1055.0
1049.0
1044.0
1039.0
1037.0
1041.0
1042.0
1044.0
1048.0
1049.0
1045.0
1043.0
1036.0
1028.0
1022.0
1016.0
1011.0
1008.0
1005.0
1004.0
1002.0
999.0
994.0
989.0
984.0
980.0
983.0
982.0
985.0
984.0
987.0
990.0
989.0
992.0
993.0
992.0
995.0
994.0
995.0
1004.0
1019.0
1045.0
1082.0
1127.0
1167.0
1207.0
1243.0
1274.0
1302.0
1328.0
1355.0
1368.0
1366.0
1353.0
1335.0
1303.0
1256.0
1196.0
1134.0
1081.0
1043.0
1022.0
1011.0
1009.0
1006.0
1002.0
994.0
989.0
979.0
967.0
959.0
956.0
957.0
954.0
954.0
953.0
954.0
952.0
951.0
950.0
947.0
949.0
950.0
950.0
950.0
948.0
947.0
946.0
943.0
946.0
948.0
950.0
951.0
952.0
950.0
945.0
943.0
942.0
939.0
937.0
940.0
941.0
944.0
944.0
946.0
943.0
940.0
936.0
932.0
932.0
930.0
930.0
929.0
931.0
928.0
923.0
919.0
915.0
915.0
911.0
909.0
910.0
905.0
903.0
902.0
899.0
899.0
896.0
895.0
893.0
888.0
884.0
879.0
874.0
870.0
870.0
872.0
872.0
877.0
878.0
881.0
883.0
884.0
886.0
887.0
892.0
893.0
900.0
906.0
915.0
921.0
927.0
931.0
936.0
941.0
948.0
949.0
954.0
957.0
959.0
960.0
963.0
971.0
973.0
978.0
980.0
982.0
981.0
984.0
984.0
983.0
982.0
981.0
978.0
980.0
983.0
985.0
988.0
990.0
995.0
998.0
1003.0
1006.0
1008.0
1008.0
1008.0
1009.0
1011.0
1014.0
1019.0
1028.0
1032.0
1047.0
1058.0
1072.0
1087.0
1110.0
1131.0
1153.0
1174.0
1192.0
1210.0
1225.0
1243.0
1258.0
1270.0
1283.0
1295.0
1307.0
1313.0
1311.0
1297.0
1272.0
1225.0
1161.0
1083.0
996.0
916.0
852.0
812.0
794.0
799.0
815.0
837.0
856.0
871.0
882.0
895.0
910.0
930.0
951.0
972.0
990.0
998.0
999.0
994.0
989.0
985.0
977.0
975.0
974.0
971.0
967.0
963.0
962.0
958.0
954.0
953.0
955.0
956.0
959.0
960.0
960.0
960.0
955.0
954.0
954.0
954.0
955.0
954.0
959.0
960.0
960.0
960.0
957.0
956.0
951.0
952.0
952.0
954.0
954.0
954.0
957.0
960.0
962.0
962.0
961.0
961.0
959.0
959.0
963.0
964.0
967.0
973.0
977.0
980.0
978.0
979.0
982.0
980.0
980.0
982.0
986.0
990.0
994.0
1000.0
1004.0
1009.0
1011.0
1009.0
1007.0
1006.0
1003.0
1000.0
999.0
999.0
997.0
997.0
999.0
999.0
996.0
996.0
992.0
990.0
985.0
980.0
979.0
980.0
979.0
979.0
981.0
981.0
984.0
984.0
980.0
977.0
975.0
971.0
972.0
971.0
972.0
974.0
972.0
977.0
978.0
977.0
976.0
973.0
972.0
972.0
971.0
972.0
974.0
974.0
974.0
977.0
976.0
978.0
978.0
976.0
976.0
980.0
978.0
978.0
977.0
977.0
976.0
980.0
979.0
978.0
978.0
977.0
975.0
973.0
976.0
975.0
977.0
976.0
979.0
980.0
977.0
974.0
976.0
973.0
973.0
972.0
974.0
974.0
973.0
972.0
973.0
974.0
975.0
976.0
977.0
978.0
977.0
977.0
969.0
970.0
969.0
973.0
979.0
981.0
980.0
983.0
981.0
981.0
978.0
974.0
973.0
973.0
974.0
977.0
980.0
981.0
980.0
979.0
977.0
976.0
978.0
977.0
977.0
979.0
983.0
986.0
987.0
989.0
989.0
991.0
992.0
995.0
1001.0
1002.0
1004.0
1008.0
1011.0
1015.0
1018.0
1025.0
1031.0
1034.0
1040.0
1044.0
1040.0
1036.0
1033.0
1029.0
1030.0
1031.0
1034.0
1035.0
1034.0
1031.0
1028.0
1022.0
1017.0
1012.0
1006.0
1002.0
998.0
995.0
993.0
989.0
985.0
982.0
979.0
979.0
980.0
977.0
978.0
974.0
974.0
974.0
972.0
970.0
973.0
977.0
977.0
976.0
972.0
973.0
982.0
990.0
1013.0
1042.0
1083.0
1129.0
1169.0
1211.0
1250.0
1285.0
1315.0
1339.0
1350.0
1351.0
1338.0
1313.0
1277.0
1229.0
1176.0
1121.0
1075.0
1040.0
1017.0
1003.0
995.0
991.0
987.0
981.0
973.0
964.0
954.0
949.0
945.0
945.0
943.0
943.0
941.0
940.0
938.0
937.0
936.0
938.0
936.0
936.0
937.0
934.0
935.0
935.0
935.0
934.0
936.0
937.0
936.0
933.0
932.0
936.0
933.0
932.0
932.0
931.0
931.0
931.0
931.0
929.0
931.0
931.0
930.0
928.0
926.0
925.0
919.0
916.0
914.0
911.0
911.0
909.0
911.0
907.0
903.0
903.0
901.0
896.0
895.0
886.0
881.0
881.0
878.0
879.0
880.0
881.0
882.0
881.0
880.0
879.0
877.0
876.0
878.0
881.0
883.0
889.0
893.0
895.0
899.0
907.0
911.0
918.0
921.0
923.0
925.0
931.0
938.0
942.0
949.0
957.0
961.0
964.0
968.0
971.0
972.0
971.0
974.0
973.0
973.0
975.0
980.0
979.0
979.0
976.0
979.0
976.0
976.0
974.0
975.0
974.0
977.0
977.0
980.0
981.0
982.0
980.0
980.0
978.0
975.0
976.0
976.0
977.0
981.0
981.0
980.0
982.0
982.0
984.0
982.0
980.0
979.0
981.0
983.0
987.0
991.0
995.0
998.0
1001.0
1001.0
1002.0
1004.0
1006.0
1008.0
1014.0
1023.0
1031.0
1040.0
1045.0
1046.0
1042.0
1037.0
1031.0
1029.0
1031.0
1033.0
1035.0
1034.0
1026.0
1020.0
1013.0
1008.0
1002.0
998.0
996.0
989.0
983.0
982.0
977.0
975.0
976.0
976.0
977.0
980.0
978.0
978.0
981.0
977.0
978.0
976.0
974.0
978.0
977.0
976.0
980.0
984.0
995.0
1012.0
1035.0
1068.0
1107.0
1148.0
1187.0
1224.0
1261.0
1290.0
1318.0
1337.0
1353.0
1352.0
1344.0
1322.0
1290.0
1245.0
1190.0
1132.0
1080.0
1044.0
1019.0
1008.0
1003.0
997.0
992.0
982.0
971.0
959.0
952.0
947.0
947.0
947.0
951.0
954.0
960.0
959.0
959.0
957.0
953.0
947.0
945.0
940.0
943.0
943.0
944.0
949.0
950.0
950.0
948.0
949.0
948.0
947.0
944.0
940.0
939.0
938.0
939.0
940.0
943.0
941.0
941.0
939.0
937.0
936.0
936.0
935.0
934.0
932.0
930.0
928.0
931.0
929.0
928.0
927.0
922.0
919.0
917.0
916.0
914.0
913.0
913.0
909.0
912.0
910.0
910.0
908.0
908.0
907.0
903.0
905.0
907.0
914.0
916.0
921.0
924.0
926.0
928.0
929.0
932.0
933.0
939.0
943.0
947.0
955.0
959.0
970.0
972.0
973.0
972.0
975.0
977.0
976.0
977.0
976.0
980.0
982.0
986.0
987.0
987.0
985.0
987.0
985.0
983.0
981.0
982.0
980.0
980.0
982.0
986.0
989.0
990.0
988.0
986.0
984.0
979.0
979.0
978.0
979.0
981.0
982.0
983.0
982.0
985.0
984.0
986.0
985.0
983.0
983.0
980.0
982.0
981.0
984.0
986.0
988.0
990.0
992.0
992.0
997.0
999.0
1000.0
1002.0
1004.0
1006.0
1009.0
1013.0
1018.0
1027.0
1034.0
1041.0
1046.0
1045.0
1040.0
1034.0
1029.0
1029.0
1032.0
1037.0
1043.0
1045.0
1043.0
1036.0
1029.0
1020.0
1009.0
998.0
993.0
989.0
987.0
986.0
987.0
984.0
982.0
980.0
978.0
978.0
976.0
978.0
978.0
979.0
981.0
984.0
986.0
988.0
990.0
992.0
989.0
991.0
992.0
997.0
1012.0
1035.0
1070.0
1109.0
1155.0
1200.0
1237.0
1275.0
1308.0
1336.0
1352.0
1353.0
1341.0
1319.0
1287.0
1249.0
1196.0
1141.0
1089.0
1051.0
1026.0
1010.0
1002.0
996.0
996.0
992.0
985.0
975.0
968.0
957.0
953.0
950.0
948.0
952.0
951.0
952.0
951.0
953.0
953.0
952.0
952.0
949.0
949.0
947.0
947.0
945.0
945.0
945.0
945.0
945.0
948.0
949.0
949.0
948.0
945.0
945.0
942.0
938.0
939.0
938.0
940.0
941.0
942.0
943.0
944.0
944.0
940.0
935.0
930.0
929.0
928.0
924.0
927.0
926.0
929.0
927.0
928.0
927.0
924.0
918.0
912.0
910.0
902.0
899.0
898.0
898.0
900.0
902.0
903.0
905.0
901.0
898.0
898.0
898.0
898.0
898.0
900.0
903.0
908.0
912.0
915.0
919.0
923.0
927.0
936.0
941.0
946.0
950.0
954.0
957.0
961.0
965.0
972.0
977.0
978.0
981.0
983.0
984.0
982.0
978.0
978.0
977.0
980.0
980.0
981.0
985.0
984.0
983.0
983.0
983.0
981.0
983.0
986.0
986.0
988.0
989.0
988.0
989.0
987.0
988.0
987.0
988.0
984.0
984.0
984.0
984.0
982.0
983.0
985.0
987.0
983.0
983.0
982.0
986.0
989.0
992.0
991.0
992.0
991.0
993.0
992.0
994.0
997.0
1001.0
1003.0
1005.0
1006.0
1007.0
1009.0
1011.0
1014.0
1019.0
1024.0
1031.0
1037.0
1044.0
1046.0
1049.0
1050.0
1047.0
1044.0
1039.0
1038.0
1039.0
1042.0
1043.0
1049.0
1045.0
1041.0
1036.0
1029.0
1020.0
1011.0
1006.0
1003.0
1004.0
1001.0
1001.0
997.0
995.0
992.0
985.0
984.0
984.0
984.0
985.0
987.0
988.0
990.0
992.0
991.0
995.0
992.0
989.0
987.0
987.0
993.0
1007.0
1029.0
1062.0
1102.0
1143.0
1185.0
1225.0
1261.0
1293.0
1327.0
1351.0
1365.0
1365.0
1352.0
1330.0
1292.0
1246.0
1187.0
1127.0
1076.0
1039.0
1019.0
1006.0
1002.0
1001.0
999.0
992.0
984.0
974.0
967.0
960.0
959.0
960.0
958.0
959.0
958.0
957.0
953.0
954.0
956.0
958.0
955.0
955.0
952.0
954.0
954.0
951.0
952.0
950.0
953.0
953.0
954.0
955.0
956.0
952.0
950.0
947.0
943.0
941.0
945.0
942.0
942.0
941.0
941.0
942.0
940.0
940.0
939.0
935.0
932.0
930.0
927.0
924.0
923.0
921.0
921.0
920.0
915.0
913.0
908.0
907.0
902.0
905.0
904.0
902.0
905.0
905.0
908.0
910.0
909.0
912.0
913.0
916.0
922.0
926.0
930.0
935.0
939.0
945.0
951.0
957.0
961.0
960.0
965.0
971.0
975.0
978.0
979.0
984.0
987.0
988.0
989.0
990.0
986.0
987.0
986.0
985.0
986.0
986.0
987.0
986.0
991.0
989.0
992.0
993.0
993.0
993.0
992.0
992.0
988.0
986.0
990.0
988.0
988.0
992.0
993.0
995.0
993.0
994.0
993.0
993.0
991.0
990.0
989.0
990.0
992.0
993.0
995.0
994.0
996.0
993.0
996.0
999.0
1006.0
1014.0
1026.0
1043.0
1059.0
1073.0
1088.0
1105.0
1120.0
1142.0
1166.0
1191.0
1220.0
1250.0
1282.0
1310.0
1338.0
1360.0
1378.0
1391.0
1404.0
1416.0
1425.0
1434.0
1436.0
1438.0
1436.0
1433.0
1430.0
1424.0
1412.0
1397.0
1379.0
1351.0
1319.0
1289.0
1264.0
1243.0
1224.0
1203.0
1181.0
1155.0
1125.0
1102.0
1074.0
1053.0
1033.0
1013.0
995.0
975.0
956.0
940.0
924.0
915.0
907.0
904.0
899.0
895.0
889.0
884.0
881.0
877.0
877.0
875.0
872.0
871.0
871.0
869.0
863.0
859.0
857.0
848.0
845.0
842.0
838.0
835.0
832.0
830.0
829.0
827.0
825.0
825.0
821.0
817.0
810.0
807.0
802.0
799.0
799.0
795.0
797.0
796.0
794.0
792.0
786.0
782.0
778.0
777.0
780.0
778.0
782.0
785.0
785.0
788.0
789.0
788.0
792.0
794.0
799.0
798.0
803.0
809.0
816.0
823.0
831.0
841.0
848.0
854.0
859.0
864.0
868.0
873.0
879.0
888.0
898.0
903.0
911.0
917.0
921.0
927.0
930.0
937.0
939.0
943.0
949.0
950.0
954.0
958.0
962.0
964.0
965.0
966.0
967.0
967.0
965.0
965.0
966.0
967.0
968.0
970.0
972.0
974.0
973.0
975.0
975.0
974.0
975.0
973.0
975.0
974.0
975.0
978.0
976.0
977.0
975.0
975.0
973.0
975.0
975.0
974.0
975.0
973.0
971.0
970.0
968.0
972.0
975.0
977.0
977.0
978.0
974.0
972.0
973.0
977.0
977.0
977.0
979.0
978.0
978.0
979.0
978.0
977.0
975.0
977.0
979.0
982.0
983.0
982.0
985.0
987.0
984.0
984.0
985.0
983.0
984.0
984.0
987.0
988.0
990.0
992.0
992.0
993.0
996.0
1001.0
1005.0
1009.0
1012.0
1016.0
1018.0
1021.0
1022.0
1027.0
1034.0
1039.0
1046.0
1054.0
1057.0
1054.0
1049.0
1044.0
1040.0
1037.0
1040.0
1044.0
1048.0
1050.0
1049.0
1043.0
1035.0
1025.0
1015.0
1007.0
1004.0
1004.0
1004.0
1005.0
1002.0
996.0
990.0
987.0
986.0
984.0
984.0
983.0
985.0
987.0
988.0
988.0
990.0
990.0
992.0
994.0
992.0
989.0
987.0
987.0
995.0
1005.0
1023.0
1054.0
1091.0
1131.0
1171.0
1209.0
1243.0
1275.0
1305.0
1332.0
1351.0
1364.0
1363.0
1353.0
1333.0
1300.0
1259.0
1207.0
1151.0
1105.0
1067.0
1043.0
1026.0
1019.0
1013.0
1009.0
1001.0
993.0
979.0
971.0
963.0
956.0
955.0
954.0
954.0
952.0
956.0
957.0
957.0
957.0
954.0
951.0
949.0
952.0
951.0
952.0
953.0
951.0
951.0
955.0
955.0
958.0
953.0
951.0
946.0
944.0
942.0
941.0
943.0
945.0
949.0
951.0
949.0
949.0
949.0
947.0
948.0
947.0
945.0
942.0
941.0
937.0
937.0
937.0
937.0
933.0
931.0
929.0
927.0
924.0
919.0
915.0
915.0
915.0
918.0
918.0
918.0
917.0
915.0
914.0
913.0
911.0
914.0
916.0
915.0
915.0
917.0
918.0
927.0
933.0
936.0
939.0
943.0
946.0
947.0
948.0
949.0
951.0
958.0
963.0
969.0
973.0
978.0
984.0
986.0
985.0
985.0
984.0
982.0
985.0
987.0
991.0
993.0
993.0
992.0
992.0
990.0
991.0
988.0
987.0
987.0
987.0
991.0
991.0
992.0
992.0
993.0
995.0
995.0
994.0
995.0
995.0
993.0
991.0
992.0
989.0
992.0
992.0
992.0
995.0
994.0
992.0
991.0
990.0
989.0
990.0
991.0
991.0
995.0
999.0
998.0
1003.0
1004.0
1004.0
1004.0
1004.0
1007.0
1009.0
1014.0
1017.0
1019.0
1021.0
1025.0
1031.0
1037.0
1045.0
1049.0
1052.0
1053.0
1051.0
1046.0
1043.0
1044.0
1046.0
1046.0
1045.0
1044.0
1039.0
1033.0
1026.0
1019.0
1011.0
1006.0
1002.0
1002.0
1002.0
999.0
996.0
990.0
987.0
982.0
979.0
978.0
977.0
978.0
981.0
983.0
986.0
990.0
987.0
988.0
987.0
986.0
985.0
990.0
996.0
1010.0
1034.0
1070.0
1115.0
1158.0
1200.0
1242.0
1279.0
1315.0
1344.0
1358.0
1357.0
1346.0
1323.0
1287.0
1236.0
1175.0
1119.0
1072.0
1036.0
1014.0
1001.0
998.0
996.0
989.0
982.0
972.0
963.0
960.0
955.0
955.0
955.0
953.0
951.0
951.0
950.0
949.0
951.0
952.0
954.0
953.0
954.0
951.0
948.0
950.0
944.0
944.0
946.0
947.0
946.0
946.0
946.0
947.0
945.0
942.0
938.0
939.0
938.0
937.0
937.0
936.0
933.0
934.0
933.0
933.0
931.0
933.0
930.0
928.0
925.0
920.0
916.0
915.0
914.0
910.0
910.0
908.0
905.0
904.0
902.0
901.0
896.0
898.0
895.0
891.0
894.0
895.0
894.0
896.0
895.0
902.0
907.0
907.0
910.0
913.0
916.0
921.0
927.0
931.0
935.0
938.0
943.0
947.0
952.0
952.0
958.0
964.0
968.0
972.0
974.0
977.0
980.0
979.0
980.0
977.0
980.0
980.0
981.0
980.0
978.0
979.0
979.0
977.0
978.0
978.0
979.0
975.0
975.0
976.0
974.0
974.0
978.0
980.0
982.0
987.0
989.0
988.0
988.0
986.0
983.0
980.0
977.0
978.0
978.0
981.0
984.0
988.0
987.0
987.0
988.0
988.0
985.0
984.0
986.0
990.0
995.0
999.0
1004.0
1008.0
1013.0
1013.0
1016.0
1018.0
1018.0
1022.0
1028.0
1036.0
1043.0
1047.0
1049.0
1048.0
1044.0
1040.0
1038.0
1036.0
1038.0
1037.0
1037.0
1034.0
1029.0
1024.0
1017.0
1015.0
1010.0
1007.0
1003.0
998.0
995.0
993.0
988.0
982.0
979.0
978.0
977.0
980.0
981.0
984.0
986.0
988.0
986.0
987.0
985.0
986.0
984.0
986.0
991.0
994.0
1001.0
1012.0
1031.0
1059.0
1097.0
1140.0
1180.0
1217.0
1253.0
1291.0
1324.0
1348.0
1364.0
1363.0
1351.0
1327.0
1291.0
1243.0
1186.0
1128.0
1079.0
1045.0
1026.0
1015.0
1009.0
1005.0
1002.0
993.0
983.0
971.0
961.0
955.0
954.0
955.0
955.0
957.0
956.0
955.0
956.0
953.0
954.0
953.0
949.0
948.0
945.0
946.0
945.0
945.0
947.0
949.0
951.0
950.0
948.0
946.0
944.0
945.0
946.0
945.0
946.0
948.0
950.0
948.0
944.0
943.0
940.0
936.0
931.0
929.0
928.0
929.0
933.0
933.0
933.0
932.0
930.0
926.0
922.0
918.0
912.0
907.0
904.0
904.0
902.0
905.0
903.0
903.0
899.0
898.0
893.0
893.0
894.0
898.0
903.0
908.0
911.0
918.0
920.0
923.0
929.0
931.0
936.0
940.0
947.0
952.0
957.0
962.0
970.0
972.0
976.0
974.0
977.0
976.0
974.0
974.0
977.0
981.0
982.0
986.0
988.0
992.0
992.0
992.0
992.0
993.0
990.0
984.0
984.0
983.0
985.0
990.0
993.0
996.0
999.0
1002.0
1003.0
1004.0
1005.0
1007.0
1005.0
1007.0
1009.0
1014.0
1021.0
1031.0
1041.0
1052.0
1066.0
1079.0
1096.0
1112.0
1128.0
1151.0
1169.0
1187.0
1208.0
1229.0
1252.0
1270.0
1287.0
1303.0
1315.0
1320.0
1316.0
1302.0
1271.0
1224.0
1154.0
1074.0
989.0
908.0
844.0
803.0
780.0
777.0
790.0
813.0
835.0
856.0
872.0
880.0
891.0
902.0
917.0
928.0
947.0
961.0
967.0
970.0
968.0
964.0
964.0
961.0
962.0
963.0
963.0
962.0
959.0
960.0
957.0
956.0
959.0
962.0
963.0
966.0
967.0
966.0
964.0
961.0
961.0
956.0
954.0
952.0
957.0
959.0
962.0
964.0
963.0
964.0
965.0
965.0
965.0
963.0
964.0
965.0
965.0
964.0
962.0
964.0
967.0
972.0
974.0
976.0
977.0
980.0
980.0
983.0
986.0
991.0
996.0
1002.0
1003.0
1008.0
1011.0
1012.0
1016.0
1015.0
1012.0
1012.0
1011.0
1013.0
1015.0
1015.0
1018.0
1018.0
1018.0
1015.0
1012.0
1007.0
1001.0
998.0
996.0
992.0
992.0
991.0
991.0
990.0
992.0
993.0
987.0
986.0
980.0
980.0
982.0
984.0
983.0
983.0
985.0
983.0
983.0
981.0
980.0
980.0
977.0
979.0
979.0
979.0
982.0
985.0
986.0
987.0
985.0
984.0
981.0
980.0
979.0
978.0
980.0
979.0
983.0
982.0
985.0
985.0
986.0
986.0
984.0
983.0
984.0
984.0
982.0
985.0
986.0
987.0
987.0
985.0
985.0
986.0
984.0
982.0
982.0
980.0
980.0
983.0
982.0
983.0
983.0
984.0
983.0
981.0
979.0
979.0
976.0
976.0
973.0
976.0
980.0
986.0
988.0
987.0
984.0
981.0
978.0
978.0
977.0
979.0
982.0
984.0
983.0
983.0
983.0
986.0
985.0
986.0
984.0
982.0
980.0
982.0
984.0
985.0
990.0
995.0
998.0
1003.0
1006.0
1005.0
1004.0
1006.0
1010.0
1013.0
1017.0
1023.0
1033.0
1039.0
1045.0
1047.0
1045.0
1039.0
1037.0
1029.0
1029.0
1027.0
1030.0
1028.0
1027.0
1026.0
1022.0
1014.0
1008.0
1001.0
997.0
994.0
994.0
991.0
985.0
982.0
981.0
976.0
974.0
974.0
974.0
971.0
973.0
972.0
975.0
971.0
974.0
974.0
975.0
978.0
977.0
979.0
982.0
985.0
994.0
1012.0
1038.0
1075.0
1115.0
1160.0
1204.0
1240.0
1277.0
1311.0
1338.0
1357.0
1360.0
1348.0
1325.0
1294.0
1250.0
1199.0
1146.0
1098.0
1057.0
1027.0
1013.0
1001.0
992.0
989.0
982.0
977.0
967.0
957.0
945.0
942.0
941.0
940.0
940.0
942.0
943.0
939.0
937.0
934.0
930.0
927.0
928.0
929.0
932.0
932.0
933.0
930.0
928.0
928.0
927.0
927.0
926.0
927.0
928.0
928.0
930.0
928.0
929.0
929.0
927.0
923.0
918.0
917.0
917.0
916.0
918.0
918.0
920.0
919.0
919.0
917.0
914.0
909.0
905.0
905.0
901.0
901.0
899.0
895.0
895.0
891.0
888.0
887.0
883.0
882.0
879.0
878.0
874.0
874.0
874.0
872.0
868.0
868.0
867.0
866.0
864.0
864.0
866.0
867.0
869.0
868.0
872.0
878.0
885.0
889.0
893.0
898.0
901.0
905.0
912.0
913.0
921.0
926.0
936.0
939.0
944.0
947.0
949.0
949.0
949.0
953.0
953.0
954.0
954.0
956.0
958.0
958.0
964.0
963.0
965.0
964.0
962.0
961.0
959.0
959.0
960.0
961.0
961.0
961.0
965.0
964.0
965.0
964.0
962.0
959.0
958.0
957.0
961.0
961.0
964.0
965.0
965.0
965.0
965.0
964.0
960.0
961.0
959.0
959.0
957.0
959.0
962.0
964.0
969.0
972.0
975.0
981.0
982.0
985.0
984.0
984.0
986.0
988.0
993.0
999.0
1008.0
1019.0
1024.0
1027.0
1023.0
1015.0
1008.0
1003.0
1000.0
1005.0
1008.0
1014.0
1016.0
1016.0
1011.0
1006.0
996.0
988.0
978.0
971.0
968.0
965.0
965.0
962.0
959.0
959.0
957.0
956.0
952.0
952.0
948.0
946.0
946.0
947.0
947.0
947.0
950.0
949.0
952.0
951.0
952.0
951.0
951.0
950.0
954.0
962.0
978.0
1005.0
1040.0
1081.0
1127.0
1165.0
1201.0
1234.0
1263.0
1290.0
1313.0
1326.0
1323.0
1314.0
1299.0
1269.0
1234.0
1185.0
1131.0
1080.0
1040.0
1009.0
988.0
979.0
968.0
965.0
962.0
948.0
941.0
929.0
921.0
913.0
910.0
911.0
910.0
914.0
917.0
918.0
921.0
919.0
915.0
915.0
912.0
907.0
905.0
901.0
902.0
904.0
907.0
907.0
910.0
910.0
910.0
910.0
908.0
906.0
905.0
902.0
901.0
902.0
898.0
901.0
901.0
900.0
898.0
895.0
896.0
894.0
892.0
893.0
891.0
888.0
885.0
881.0
880.0
876.0
875.0
877.0
873.0
874.0
874.0
871.0
866.0
864.0
861.0
860.0
862.0
860.0
861.0
862.0
864.0
866.0
868.0
869.0
871.0
874.0
877.0
882.0
888.0
891.0
896.0
898.0
899.0
904.0
906.0
910.0
920.0
924.0
930.0
933.0
935.0
935.0
937.0
937.0
940.0
941.0
943.0
942.0
940.0
935.0
937.0
937.0
938.0
941.0
943.0
944.0
945.0
943.0
943.0
940.0
942.0
943.0
946.0
945.0
946.0
944.0
947.0
944.0
946.0
944.0
943.0
941.0
942.0
942.0
944.0
947.0
948.0
947.0
946.0
946.0
945.0
945.0
945.0
945.0
948.0
952.0
955.0
957.0
961.0
960.0
963.0
967.0
967.0
968.0
970.0
971.0
972.0
980.0
988.0
999.0
1009.0
1013.0
1016.0
1015.0
1009.0
1003.0
999.0
993.0
995.0
994.0
1002.0
1001.0
1000.0
995.0
988.0
981.0
973.0
967.0
963.0
957.0
957.0
955.0
954.0
952.0
952.0
950.0
