# Simple Text Format
# Sampling Rate (Hz):= 360.00
# Resolution:= 12
# Labels:= ECG
1187.0
1193.0
1196.0
1195.0
1197.0
1196.0
1195.0
1193.0
1191.0
1187.0
1185.0
1182.0
1180.0
1176.0
1171.0
1165.0
1162.0
1152.0
1142.0
1131.0
1124.0
1114.0
1105.0
1098.0
1093.0
1088.0
1084.0
1079.0
1073.0
1065.0
1059.0
1052.0
1046.0
1041.0
1033.0
1031.0
1026.0
1024.0
1022.0
1020.0
1019.0
1018.0
1012.0
1010.0
1008.0
1004.0
1003.0
1002.0
1002.0
999.0
1001.0
1002.0
1001.0
1004.0
1003.0
1001.0
1001.0
999.0
997.0
997.0
998.0
1000.0
1000.0
1002.0
1000.0
1004.0
1005.0
1002.0
1002.0
1002.0
997.0
995.0
994.0
992.0
995.0
997.0
996.0
996.0
993.0
991.0
991.0
990.0
989.0
987.0
988.0
987.0
986.0
987.0
987.0
988.0
988.0
984.0
986.0
986.0
984.0
984.0
984.0
983.0
981.0
983.0
984.0
983.0
983.0
984.0
982.0
980.0
979.0
977.0
979.0
981.0
983.0
982.0
983.0
981.0
980.0
980.0
981.0
978.0
981.0
981.0
981.0
983.0
983.0
985.0
986.0
988.0
993.0
994.0
999.0
999.0
1005.0
1006.0
1011.0
1014.0
1015.0
1018.0
1020.0
1022.0
1025.0
1028.0
1034.0
1039.0
1039.0
1040.0
1040.0
1036.0
1032.0
1031.0
1031.0
1032.0
1033.0
1031.0
1028.0
1020.0
1016.0
1009.0
1003.0
1001.0
995.0
995.0
989.0
985.0
979.0
975.0
971.0
971.0
967.0
966.0
967.0
969.0
970.0
972.0
972.0
971.0
973.0
970.0
967.0
968.0
972.0
976.0
992.0
1011.0
1044.0
1085.0
1126.0
1166.0
1203.0
1239.0
1270.0
1301.0
1322.0
1336.0
1339.0
1326.0
1302.0
1263.0
1203.0
1139.0
1075.0
1028.0
995.0
973.0
960.0
958.0
957.0
954.0
950.0
944.0
937.0
931.0
929.0
926.0
924.0
925.0
923.0
922.0
921.0
921.0
921.0
922.0
922.0
919.0
920.0
920.0
918.0
916.0
916.0
914.0
912.0
914.0
914.0
914.0
915.0
915.0
914.0
914.0
912.0
908.0
907.0
906.0
904.0
905.0
907.0
905.0
903.0
903.0
900.0
898.0
895.0
890.0
887.0
884.0
880.0
877.0
873.0
871.0
869.0
864.0
862.0
856.0
853.0
848.0
847.0
843.0
842.0
841.0
839.0
839.0
837.0
834.0
834.0
829.0
829.0
831.0
832.0
834.0
840.0
846.0
852.0
858.0
862.0
866.0
873.0
875.0
879.0
886.0
890.0
898.0
904.0
908.0
917.0
925.0
931.0
933.0
937.0
938.0
938.0
939.0
939.0
938.0
941.0
940.0
946.0
947.0
947.0
947.0
948.0
946.0
945.0
944.0
943.0
944.0
945.0
944.0
947.0
949.0
951.0
952.0
951.0
949.0
946.0
944.0
943.0
946.0
944.0
946.0
950.0
952.0
955.0
953.0
957.0
958.0
961.0
962.0
964.0
970.0
974.0
976.0
981.0
985.0
989.0
994.0
999.0
1005.0
1009.0
1012.0
1016.0
1014.0
1013.0
1011.0
1011.0
1013.0
1014.0
1016.0
1022.0
1021.0
1019.0
1019.0
1018.0
1018.0
1020.0
1030.0
1043.0
1058.0
1075.0
1089.0
1101.0
1113.0
1123.0
1135.0
1149.0
1165.0
1180.0
1201.0
1216.0
1228.0
1237.0
1238.0
1231.0
1210.0
1173.0
1116.0
1039.0
949.0
864.0
789.0
732.0
689.0
660.0
650.0
649.0
659.0
675.0
694.0
715.0
731.0
748.0
761.0
778.0
797.0
822.0
842.0
866.0
881.0
896.0
903.0
904.0
902.0
905.0
904.0
903.0
905.0
909.0
909.0
912.0
911.0
909.0
908.0
907.0
906.0
906.0
909.0
908.0
909.0
912.0
911.0
913.0
910.0
908.0
907.0
907.0
908.0
909.0
909.0
911.0
914.0
917.0
916.0
918.0
917.0
915.0
915.0
913.0
914.0
911.0
914.0
915.0
916.0
919.0
921.0
923.0
924.0
926.0
927.0
930.0
935.0
937.0
941.0
941.0
946.0
950.0
952.0
955.0
956.0
960.0
960.0
962.0
966.0
970.0
975.0
977.0
979.0
981.0
981.0
978.0
975.0
974.0
970.0
964.0
963.0
964.0
960.0
962.0
961.0
960.0
955.0
956.0
950.0
947.0
943.0
937.0
937.0
936.0
934.0
934.0
936.0
935.0
934.0
936.0
935.0
934.0
934.0
934.0
930.0
931.0
932.0
930.0
932.0
934.0
932.0
931.0
931.0
932.0
931.0
931.0
932.0
932.0
933.0
935.0
934.0
932.0
932.0
935.0
933.0
931.0
934.0
933.0
935.0
933.0
934.0
936.0
937.0
938.0
936.0
938.0
942.0
944.0
946.0
950.0
951.0
955.0
962.0
966.0
968.0
967.0
969.0
971.0
975.0
981.0
986.0
992.0
995.0
994.0
989.0
988.0
988.0
987.0
988.0
991.0
990.0
989.0
982.0
975.0
968.0
960.0
955.0
947.0
946.0
943.0
941.0
937.0
934.0
931.0
929.0
925.0
926.0
927.0
928.0
929.0
932.0
933.0
932.0
933.0
930.0
930.0
931.0
936.0
944.0
964.0
990.0
1027.0
1071.0
1117.0
1160.0
1198.0
1234.0
1267.0
1294.0
1314.0
1321.0
1319.0
1301.0
1269.0
1222.0
1156.0
1084.0
1023.0
977.0
954.0
942.0
936.0
935.0
935.0
930.0
926.0
916.0
908.0
904.0
899.0
900.0
898.0
898.0
898.0
898.0
899.0
898.0
898.0
898.0
897.0
896.0
895.0
893.0
891.0
891.0
891.0
889.0
890.0
891.0
891.0
891.0
893.0
887.0
889.0
887.0
886.0
884.0
885.0
882.0
882.0
881.0
879.0
880.0
879.0
877.0
874.0
870.0
865.0
863.0
861.0
860.0
860.0
856.0
856.0
854.0
849.0
847.0
843.0
840.0
839.0
833.0
831.0
832.0
831.0
831.0
832.0
832.0
834.0
833.0
835.0
837.0
838.0
842.0
847.0
853.0
860.0
866.0
872.0
878.0
883.0
886.0
892.0
894.0
899.0
902.0
907.0
912.0
916.0
921.0
924.0
927.0
926.0
929.0
932.0
929.0
929.0
930.0
930.0
931.0
931.0
932.0
936.0
939.0
938.0
938.0
938.0
937.0
936.0
936.0
937.0
938.0
937.0
939.0
939.0
938.0
939.0
939.0
938.0
939.0
941.0
941.0
940.0
940.0
941.0
942.0
943.0
943.0
945.0
945.0
948.0
952.0
951.0
951.0
954.0
955.0
960.0
963.0
965.0
970.0
970.0
973.0
973.0
978.0
980.0
985.0
990.0
994.0
1001.0
1004.0
1004.0
1004.0
998.0
994.0
995.0
995.0
998.0
997.0
991.0
989.0
983.0
977.0
970.0
965.0
959.0
954.0
951.0
950.0
946.0
945.0
940.0
938.0
940.0
937.0
936.0
940.0
941.0
943.0
945.0
945.0
945.0
943.0
942.0
943.0
946.0
955.0
971.0
999.0
1031.0
1068.0
1114.0
1157.0
1194.0
1227.0
1257.0
1287.0
1312.0
1327.0
1330.0
1326.0
1302.0
1265.0
1210.0
1142.0
1075.0
1016.0
977.0
958.0
950.0
947.0
951.0
950.0
947.0
941.0
934.0
924.0
917.0
917.0
916.0
916.0
919.0
918.0
918.0
917.0
919.0
914.0
915.0
909.0
909.0
909.0
909.0
910.0
912.0
914.0
914.0
913.0
917.0
915.0
914.0
914.0
911.0
906.0
909.0
907.0
906.0
911.0
910.0
912.0
913.0
911.0
907.0
906.0
902.0
900.0
899.0
897.0
897.0
896.0
893.0
894.0
889.0
885.0
882.0
880.0
875.0
873.0
870.0
869.0
869.0
869.0
871.0
871.0
873.0
871.0
872.0
871.0
870.0
875.0
877.0
883.0
886.0
893.0
899.0
906.0
910.0
913.0
916.0
918.0
923.0
927.0
932.0
938.0
942.0
945.0
950.0
952.0
952.0
956.0
956.0
956.0
957.0
958.0
955.0
955.0
958.0
958.0
957.0
959.0
959.0
959.0
958.0
960.0
956.0
957.0
956.0
958.0
956.0
957.0
958.0
961.0
963.0
963.0
962.0
962.0
960.0
957.0
957.0
957.0
957.0
960.0
963.0
962.0
967.0
966.0
966.0
966.0
968.0
970.0
973.0
976.0
980.0
985.0
988.0
992.0
994.0
996.0
996.0
1001.0
1003.0
1008.0
1013.0
1020.0
1025.0
1027.0
1023.0
1021.0
1017.0
1014.0
1015.0
1014.0
1016.0
1016.0
1014.0
1012.0
1006.0
1003.0
995.0
995.0
990.0
983.0
979.0
973.0
970.0
966.0
962.0
958.0
956.0
956.0
957.0
958.0
957.0
960.0
959.0
961.0
960.0
960.0
959.0
960.0
959.0
962.0
965.0
974.0
986.0
1004.0
1033.0
1071.0
1108.0
1146.0
1182.0
1214.0
1245.0
1278.0
1309.0
1332.0
1344.0
1341.0
1333.0
1307.0
1268.0
1218.0
1155.0
1093.0
1045.0
1008.0
988.0
979.0
969.0
968.0
967.0
963.0
957.0
947.0
937.0
931.0
931.0
929.0
931.0
933.0
934.0
934.0
932.0
928.0
931.0
928.0
920.0
922.0
921.0
922.0
927.0
926.0
928.0
925.0
924.0
922.0
916.0
915.0
916.0
917.0
918.0
920.0
922.0
923.0
923.0
921.0
920.0
918.0
917.0
916.0
913.0
912.0
911.0
912.0
910.0
909.0
906.0
902.0
900.0
898.0
895.0
891.0
887.0
886.0
885.0
882.0
882.0
883.0
880.0
879.0
877.0
875.0
874.0
870.0
871.0
873.0
876.0
877.0
880.0
882.0
884.0
889.0
894.0
898.0
902.0
905.0
909.0
915.0
919.0
925.0
929.0
936.0
939.0
946.0
948.0
949.0
950.0
952.0
953.0
955.0
957.0
960.0
960.0
963.0
963.0
963.0
963.0
962.0
966.0
964.0
962.0
963.0
960.0
963.0
964.0
967.0
967.0
966.0
967.0
965.0
963.0
963.0
962.0
962.0
962.0
965.0
967.0
970.0
972.0
969.0
972.0
970.0
968.0
968.0
966.0
972.0
975.0
981.0
987.0
996.0
1004.0
1009.0
1016.0
1019.0
1017.0
1019.0
1022.0
1027.0
1037.0
1050.0
1063.0
1075.0
1083.0
1090.0
1097.0
1109.0
1123.0
1141.0
1157.0
1177.0
1189.0
1206.0
1218.0
1233.0
1248.0
1260.0
1273.0
1283.0
1291.0
1292.0
1286.0
1269.0
1237.0
1188.0
1119.0
1036.0
946.0
859.0
784.0
730.0
692.0
675.0
677.0
692.0
713.0
740.0
760.0
775.0
787.0
801.0
819.0
837.0
855.0
875.0
896.0
911.0
921.0
924.0
924.0
925.0
925.0
926.0
927.0
925.0
928.0
929.0
930.0
930.0
927.0
930.0
930.0
930.0
929.0
931.0
929.0
933.0
930.0
930.0
931.0
933.0
932.0
929.0
930.0
931.0
930.0
931.0
931.0
929.0
927.0
928.0
929.0
927.0
931.0
933.0
934.0
937.0
939.0
942.0
943.0
946.0
945.0
945.0
949.0
952.0
955.0
958.0
965.0
971.0
975.0
977.0
982.0
981.0
985.0
985.0
987.0
990.0
993.0
997.0
998.0
1001.0
1001.0
998.0
997.0
998.0
997.0
993.0
991.0
989.0
988.0
992.0
993.0
996.0
997.0
1000.0
1003.0
1005.0
1011.0
1018.0
1027.0
1037.0
1049.0
1066.0
1080.0
1095.0
1107.0
1114.0
1117.0
1107.0
1084.0
1043.0
989.0
924.0
858.0
799.0
743.0
697.0
653.0
614.0
579.0
543.0
516.0
499.0
492.0
494.0
501.0
516.0
531.0
552.0
566.0
588.0
612.0
634.0
654.0
675.0
686.0
699.0
709.0
722.0
736.0
749.0
762.0
774.0
783.0
795.0
806.0
820.0
838.0
863.0
889.0
919.0
950.0
978.0
1000.0
1016.0
1028.0
1034.0
1039.0
1047.0
1051.0
1057.0
1062.0
1067.0
1076.0
1082.0
1085.0
1087.0
1090.0
1089.0
1092.0
1093.0
1096.0
1100.0
1107.0
1111.0
1116.0
1121.0
1126.0
1125.0
1128.0
1130.0
1133.0
1134.0
1138.0
1144.0
1148.0
1153.0
1159.0
1163.0
1170.0
1173.0
1177.0
1181.0
1185.0
1187.0
1190.0
1193.0
1196.0
1196.0
1197.0
1197.0
1197.0
1194.0
1192.0
1187.0
1185.0
1180.0
1175.0
1166.0
1161.0
1154.0
1148.0
1140.0
1135.0
1127.0
1122.0
1113.0
1109.0
1100.0
1089.0
1080.0
1070.0
1063.0
1059.0
1053.0
1047.0
1043.0
1033.0
1030.0
1025.0
1017.0
1011.0
1008.0
1006.0
1003.0
1003.0
1004.0
1001.0
1000.0
999.0
997.0
995.0
995.0
996.0
995.0
996.0
996.0
997.0
996.0
997.0
995.0
995.0
993.0
993.0
990.0
988.0
990.0
990.0
989.0
989.0
990.0
992.0
990.0
995.0
988.0
987.0
986.0
983.0
982.0
981.0
982.0
983.0
983.0
984.0
985.0
980.0
978.0
977.0
977.0
976.0
977.0
975.0
972.0
971.0
975.0
975.0
974.0
972.0
972.0
970.0
972.0
973.0
973.0
972.0
972.0
969.0
969.0
969.0
966.0
967.0
966.0
964.0
965.0
963.0
964.0
967.0
965.0
966.0
964.0
965.0
963.0
962.0
963.0
963.0
964.0
964.0
966.0
967.0
967.0
968.0
972.0
972.0
975.0
974.0
973.0
969.0
969.0
967.0
962.0
960.0
963.0
964.0
968.0
973.0
976.0
976.0
974.0
972.0
968.0
965.0
962.0
964.0
966.0
967.0
971.0
975.0
977.0
977.0
973.0
966.0
961.0
960.0
959.0
968.0
976.0
981.0
984.0
986.0
983.0
985.0
980.0
975.0
972.0
965.0
965.0
966.0
974.0
981.0
983.0
985.0
987.0
988.0
989.0
994.0
993.0
1001.0
1007.0
1016.0
1025.0
1036.0
1048.0
1054.0
1049.0
1041.0
1023.0
1005.0
996.0
994.0
1004.0
1018.0
1033.0
1039.0
1038.0
1029.0
1013.0
996.0
978.0
962.0
954.0
952.0
954.0
958.0
963.0
966.0
966.0
964.0
962.0
964.0
961.0
956.0
954.0
948.0
946.0
947.0
953.0
963.0
977.0
997.0
1016.0
1048.0
1081.0
1117.0
1156.0
1198.0
1245.0
1290.0
1331.0
1356.0
1363.0
1351.0
1320.0
1272.0
1204.0
1132.0
1059.0
1003.0
971.0
950.0
943.0
943.0
945.0
946.0
941.0
937.0
932.0
928.0
927.0
928.0
927.0
925.0
923.0
916.0
912.0
912.0
912.0
910.0
906.0
902.0
902.0
905.0
910.0
913.0
914.0
912.0
912.0
913.0
915.0
915.0
908.0
896.0
886.0
877.0
876.0
887.0
901.0
911.0
919.0
919.0
908.0
901.0
887.0
881.0
878.0
874.0
872.0
872.0
873.0
877.0
882.0
886.0
885.0
881.0
876.0
869.0
864.0
861.0
857.0
853.0
851.0
850.0
850.0
847.0
845.0
843.0
839.0
834.0
833.0
834.0
836.0
839.0
842.0
844.0
845.0
845.0
843.0
843.0
843.0
845.0
853.0
861.0
870.0
879.0
882.0
885.0
888.0
896.0
904.0
916.0
924.0
933.0
941.0
945.0
947.0
946.0
944.0
946.0
954.0
962.0
966.0
971.0
974.0
982.0
982.0
980.0
976.0
971.0
977.0
985.0
997.0
1002.0
1004.0
1009.0
1008.0
1008.0
1008.0
1011.0
1018.0
1033.0
1050.0
1066.0
1080.0
1098.0
1120.0
1146.0
1172.0
1196.0
1222.0
1251.0
1276.0
1303.0
1327.0
1343.0
1360.0
1375.0
1387.0
1394.0
1389.0
1370.0
1330.0
1263.0
1185.0
1098.0
1017.0
949.0
897.0
864.0
848.0
844.0
849.0
859.0
871.0
882.0
899.0
918.0
942.0
965.0
981.0
989.0
988.0
982.0
977.0
970.0
965.0
961.0
963.0
965.0
966.0
964.0
962.0
956.0
950.0
945.0
943.0
942.0
942.0
938.0
938.0
942.0
946.0
946.0
945.0
946.0
946.0
952.0
954.0
952.0
949.0
939.0
934.0
927.0
928.0
935.0
941.0
951.0
956.0
954.0
948.0
943.0
937.0
937.0
937.0
934.0
936.0
939.0
944.0
951.0
956.0
957.0
953.0
953.0
950.0
948.0
951.0
955.0
963.0
973.0
985.0
994.0
1001.0
999.0
996.0
994.0
996.0
1001.0
1005.0
1011.0
1016.0
1013.0
1011.0
1011.0
1005.0
1008.0
1010.0
1009.0
1013.0
1013.0
1013.0
1009.0
1005.0
1005.0
1008.0
1010.0
1011.0
1012.0
1008.0
1009.0
1013.0
1017.0
1018.0
1009.0
999.0
987.0
985.0
990.0
998.0
1005.0
1004.0
1003.0
1000.0
998.0
1000.0
1000.0
1005.0
1005.0
1006.0
1007.0
1006.0
1008.0
1007.0
1004.0
1004.0
1001.0
1002.0
1006.0
1010.0
1014.0
1010.0
1007.0
1005.0
1005.0
1010.0
1011.0
1014.0
1015.0
1016.0
1014.0
1012.0
1006.0
1004.0
1002.0
1002.0
1004.0
1007.0
1006.0
1006.0
1007.0
1011.0
1014.0
1018.0
1020.0
1021.0
1019.0
1017.0
1016.0
1006.0
1003.0
1000.0
1001.0
1005.0
1014.0
1020.0
1024.0
1022.0
1014.0
1009.0
1009.0
1009.0
1011.0
1011.0
1012.0
1010.0
1011.0
1012.0
1017.0
1021.0
1023.0
1023.0
1023.0
1022.0
1016.0
1010.0
1009.0
1008.0
1014.0
1021.0
1022.0
1024.0
1025.0
1027.0
1028.0
1030.0
1033.0
1035.0
1040.0
1045.0
1047.0
1056.0
1063.0
1067.0
1068.0
1057.0
1053.0
1055.0
1063.0
1072.0
1081.0
1086.0
1087.0
1086.0
1081.0
1076.0
1075.0
1072.0
1072.0
1075.0
1075.0
1076.0
1077.0
1074.0
1064.0
1059.0
1055.0
1053.0
1051.0
1047.0
1043.0
1041.0
1039.0
1039.0
1039.0
1040.0
1037.0
1030.0
1023.0
1018.0
1018.0
1023.0
1027.0
1032.0
1031.0
1029.0
1030.0
1031.0
1033.0
1039.0
1054.0
1074.0
1101.0
1132.0
1167.0
1204.0
1241.0
1281.0
1319.0
1357.0
1393.0
1418.0
1430.0
1431.0
1420.0
1389.0
1338.0
1269.0
1196.0
1133.0
1083.0
1057.0
1049.0
1044.0
1042.0
1035.0
1024.0
1014.0
1007.0
1007.0
1007.0
1008.0
1001.0
999.0
995.0
995.0
994.0
993.0
1000.0
1005.0
1008.0
1005.0
998.0
992.0
986.0
988.0
993.0
996.0
991.0
985.0
980.0
979.0
984.0
990.0
996.0
998.0
996.0
992.0
987.0
984.0
979.0
976.0
977.0
981.0
986.0
984.0
984.0
979.0
976.0
973.0
968.0
963.0
957.0
955.0
958.0
959.0
959.0
952.0
944.0
933.0
924.0
923.0
927.0
929.0
930.0
928.0
921.0
916.0
912.0
910.0
913.0
917.0
917.0
922.0
925.0
928.0
933.0
936.0
937.0
936.0
938.0
946.0
953.0
957.0
961.0
964.0
970.0
979.0
988.0
996.0
1000.0
1004.0
1010.0
1014.0
1017.0
1019.0
1023.0
1025.0
1025.0
1027.0
1032.0
1036.0
1038.0
1040.0
1041.0
1039.0
1039.0
1043.0
1045.0
1045.0
1046.0
1044.0
1044.0
1049.0
1050.0
1048.0
1046.0
1045.0
1045.0
1042.0
1044.0
1045.0
1049.0
1048.0
1048.0
1047.0
1045.0
1044.0
1045.0
1046.0
1049.0
1051.0
1049.0
1049.0
1051.0
1055.0
1060.0
1068.0
1074.0
1081.0
1088.0
1085.0
1077.0
1067.0
1066.0
1074.0
1086.0
1098.0
1104.0
1108.0
1106.0
1101.0
1090.0
1084.0
1084.0
1085.0
1089.0
1089.0
1085.0
1083.0
1079.0
1076.0
1075.0
1069.0
1061.0
1050.0
1045.0
1042.0
1043.0
1045.0
1043.0
1040.0
1032.0
1031.0
1031.0
1036.0
1038.0
1041.0
1042.0
1041.0
1038.0
1037.0
1036.0
1037.0
1042.0
1054.0
1074.0
1102.0
1141.0
1182.0
1221.0
1254.0
1291.0
1324.0
1357.0
1386.0
1409.0
1420.0
1423.0
1413.0
1389.0
1349.0
1288.0
1219.0
1152.0
1098.0
1064.0
1049.0
1046.0
1046.0
1040.0
1030.0
1020.0
1016.0
1016.0
1020.0
1022.0
1019.0
1016.0
1016.0
1016.0
1018.0
1016.0
1011.0
1005.0
1004.0
1006.0
1014.0
1017.0
1018.0
1014.0
1007.0
1001.0
996.0
993.0
994.0
999.0
1004.0
1008.0
1010.0
1004.0
1001.0
997.0
996.0
995.0
998.0
1000.0
1001.0
1003.0
1000.0
998.0
997.0
998.0
997.0
995.0
990.0
984.0
983.0
982.0
981.0
979.0
976.0
973.0
972.0
971.0
966.0
962.0
956.0
955.0
956.0
954.0
951.0
949.0
946.0
942.0
942.0
942.0
947.0
951.0
959.0
964.0
970.0
975.0
983.0
986.0
989.0
990.0
991.0
992.0
993.0
998.0
1007.0
1016.0
1027.0
1030.0
1030.0
1028.0
1031.0
1031.0
1036.0
1033.0
1031.0
1035.0
1038.0
1043.0
1044.0
1048.0
1047.0
1046.0
1043.0
1039.0
1038.0
1036.0
1042.0
1043.0
1042.0
1038.0
1036.0
1036.0
1037.0
1039.0
1041.0
1043.0
1043.0
1040.0
1038.0
1035.0
1035.0
1037.0
1036.0
1039.0
1040.0
1041.0
1040.0
1041.0
1043.0
1044.0
1050.0
1055.0
1057.0
1060.0
1065.0
1069.0
1071.0
1075.0
1076.0
1077.0
1077.0
1077.0
1083.0
1089.0
1095.0
1101.0
1101.0
1100.0
1093.0
1088.0
1087.0
1085.0
1086.0
1093.0
1096.0
1092.0
1083.0
1074.0
1066.0
1066.0
1068.0
1069.0
1064.0
1052.0
1042.0
1037.0
1039.0
1043.0
1047.0
1044.0
1042.0
1037.0
1035.0
1035.0
1037.0
1040.0
1042.0
1039.0
1035.0
1033.0
1032.0
1034.0
1040.0
1052.0
1067.0
1090.0
1123.0
1163.0
1205.0
1245.0
1281.0
1319.0
1353.0
1383.0
1405.0
1415.0
1414.0
1397.0
1356.0
1298.0
1224.0
1153.0
1097.0
1060.0
1037.0
1032.0
1030.0
1030.0
1028.0
1020.0
1012.0
1003.0
996.0
991.0
993.0
997.0
998.0
1000.0
1004.0
1004.0
1000.0
996.0
994.0
993.0
995.0
998.0
1001.0
1000.0
1005.0
1002.0
999.0
992.0
989.0
987.0
987.0
990.0
988.0
987.0
987.0
987.0
989.0
991.0
993.0
990.0
984.0
978.0
977.0
979.0
982.0
982.0
980.0
972.0
969.0
963.0
960.0
957.0
953.0
956.0
953.0
954.0
952.0
952.0
945.0
941.0
938.0
935.0
937.0
938.0
942.0
946.0
945.0
945.0
947.0
952.0
957.0
961.0
964.0
968.0
973.0
976.0
979.0
988.0
995.0
1001.0
1007.0
1012.0
1014.0
1016.0
1017.0
1020.0
1020.0
1025.0
1028.0
1031.0
1033.0
1035.0
1031.0
1024.0
1021.0
1023.0
1030.0
1036.0
1039.0
1039.0
1038.0
1035.0
1031.0
1030.0
1027.0
1027.0
1027.0
1027.0
1034.0
1033.0
1032.0
1032.0
1030.0
1030.0
1032.0
1035.0
1034.0
1035.0
1037.0
1037.0
1040.0
1039.0
1036.0
1033.0
1029.0
1029.0
1034.0
1041.0
1042.0
1045.0
1047.0
1050.0
1051.0
1054.0
1059.0
1067.0
1072.0
1077.0
1080.0
1084.0
1086.0
1087.0
1090.0
1087.0
1084.0
1078.0
1080.0
1078.0
1083.0
1086.0
1088.0
1083.0
1075.0
1068.0
1065.0
1060.0
1058.0
1053.0
1045.0
1037.0
1032.0
1029.0
1027.0
1025.0
1023.0
1021.0
1022.0
1022.0
1021.0
1023.0
1022.0
1023.0
1024.0
1028.0
1028.0
1029.0
1027.0
1025.0
1025.0
1031.0
1044.0
1071.0
1103.0
1140.0
1179.0
1219.0
1254.0
1289.0
1325.0
1354.0
1381.0
1398.0
1408.0
1400.0
1381.0
1347.0
1289.0
1217.0
1150.0
1089.0
1053.0
1034.0
1026.0
1024.0
1027.0
1028.0
1028.0
1021.0
1009.0
996.0
993.0
988.0
988.0
986.0
985.0
986.0
987.0
988.0
990.0
991.0
991.0
991.0
989.0
988.0
987.0
988.0
992.0
991.0
989.0
981.0
980.0
980.0
980.0
983.0
984.0
985.0
985.0
986.0
983.0
982.0
979.0
977.0
973.0
970.0
966.0
966.0
966.0
966.0
965.0
960.0
953.0
946.0
945.0
943.0
948.0
950.0
950.0
948.0
940.0
935.0
931.0
929.0
933.0
930.0
932.0
931.0
934.0
935.0
934.0
932.0
932.0
932.0
936.0
941.0
946.0
955.0
964.0
966.0
975.0
983.0
989.0
995.0
994.0
992.0
995.0
995.0
1002.0
1006.0
1012.0
1016.0
1020.0
1022.0
1021.0
1020.0
1017.0
1017.0
1018.0
1020.0
1023.0
1026.0
1026.0
1023.0
1020.0
1017.0
1018.0
1022.0
1026.0
1027.0
1025.0
1022.0
1018.0
1016.0
1016.0
1016.0
1017.0
1021.0
1019.0
1026.0
1028.0
1026.0
1024.0
1022.0
1020.0
1020.0
1021.0
1026.0
1036.0
1042.0
1045.0
1043.0
1040.0
1041.0
1040.0
1041.0
1043.0
1049.0
1051.0
1055.0
1062.0
1067.0
1071.0
1079.0
1082.0
1084.0
1082.0
1079.0
1076.0
1075.0
1076.0
1083.0
1084.0
1087.0
1083.0
1077.0
1069.0
1065.0
1061.0
1056.0
1048.0
1044.0
1039.0
1037.0
1039.0
1037.0
1037.0
1034.0
1032.0
1029.0
1025.0
1023.0
1018.0
1017.0
1018.0
1021.0
1027.0
1033.0
1036.0
1038.0
1035.0
1031.0
1026.0
1032.0
1043.0
1064.0
1095.0
1134.0
1170.0
1210.0
1243.0
1273.0
1302.0
1330.0
1354.0
1374.0
1384.0
1384.0
1377.0
1363.0
1337.0
1295.0
1240.0
1180.0
1122.0
1081.0
1056.0
1044.0
1041.0
1041.0
1038.0
1038.0
1032.0
1028.0
1017.0
1009.0
1004.0
998.0
996.0
999.0
1002.0
1006.0
1008.0
1008.0
1006.0
1004.0
1002.0
1000.0
1000.0
997.0
998.0
997.0
997.0
998.0
999.0
1001.0
1001.0
1003.0
999.0
997.0
992.0
987.0
983.0
983.0
986.0
991.0
994.0
993.0
993.0
991.0
988.0
986.0
981.0
975.0
971.0
969.0
969.0
970.0
969.0
970.0
967.0
965.0
960.0
960.0
954.0
952.0
946.0
941.0
939.0
940.0
941.0
942.0
940.0
940.0
934.0
935.0
935.0
937.0
937.0
940.0
944.0
945.0
947.0
949.0
956.0
963.0
972.0
979.0
987.0
992.0
997.0
999.0
1001.0
1002.0
1005.0
1004.0
1008.0
1011.0
1013.0
1018.0
1018.0
1017.0
1016.0
1016.0
1018.0
1019.0
1022.0
1026.0
1030.0
1032.0
1034.0
1040.0
1045.0
1050.0
1056.0
1066.0
1075.0
1087.0
1097.0
1111.0
1127.0
1149.0
1174.0
1192.0
1200.0
1190.0
1156.0
1105.0
1032.0
954.0
875.0
804.0
749.0
699.0
661.0
631.0
610.0
593.0
578.0
572.0
570.0
573.0
584.0
596.0
612.0
632.0
650.0
677.0
703.0
728.0
749.0
768.0
786.0
803.0
818.0
837.0
854.0
880.0
903.0
924.0
943.0
955.0
969.0
986.0
1003.0
1028.0
1054.0
1074.0
1092.0
1101.0
1103.0
1103.0
1097.0
1094.0
1089.0
1089.0
1095.0
1097.0
1105.0
1109.0
1112.0
1116.0
1117.0
1120.0
1119.0
1121.0
1127.0
1130.0
1136.0
1141.0
1143.0
1147.0
1150.0
1152.0
1155.0
1158.0
1160.0
1164.0
1165.0
1167.0
1175.0
1177.0
1183.0
1191.0
1194.0
1199.0
1200.0
1200.0
1203.0
1200.0
1199.0
1201.0
1203.0
1208.0
1208.0
1209.0
1209.0
1205.0
1199.0
1194.0
1186.0
1181.0
1175.0
1169.0
1162.0
1159.0
1152.0
1144.0
1140.0
1135.0
1128.0
1122.0
1117.0
1112.0
1103.0
1098.0
1086.0
1079.0
1075.0
1074.0
1072.0
1068.0
1060.0
1055.0
1054.0
1048.0
1044.0
1039.0
1037.0
1035.0
1034.0
1033.0
1030.0
1028.0
1026.0
1027.0
1025.0
1025.0
1023.0
1021.0
1020.0
1021.0
1019.0
1021.0
1021.0
1021.0
1021.0
1020.0
1018.0
1019.0
1018.0
1017.0
1015.0
1017.0
1017.0
1015.0
1018.0
1017.0
1015.0
1012.0
1009.0
1009.0
1007.0
1006.0
1007.0
1007.0
1008.0
1009.0
1008.0
1011.0
1009.0
1008.0
1004.0
1001.0
1000.0
998.0
997.0
997.0
998.0
997.0
1001.0
1000.0
1002.0
1001.0
1001.0
1000.0
999.0
998.0
998.0
995.0
993.0
993.0
994.0
995.0
997.0
995.0
995.0
994.0
992.0
989.0
988.0
987.0
984.0
982.0
984.0
989.0
990.0
990.0
992.0
990.0
990.0
987.0
989.0
987.0
986.0
991.0
993.0
992.0
990.0
992.0
990.0
991.0
993.0
995.0
1001.0
1006.0
1010.0
1015.0
1017.0
1020.0
1019.0
1021.0
1023.0
1025.0
1028.0
1033.0
1038.0
1043.0
1046.0
1043.0
1040.0
1035.0
1030.0
1026.0
1028.0
1030.0
1029.0
1023.0
1019.0
1011.0
1010.0
1005.0
1002.0
998.0
994.0
988.0
983.0
979.0
972.0
970.0
969.0
970.0
968.0
969.0
969.0
969.0
970.0
970.0
971.0
973.0
975.0
974.0
973.0
971.0
974.0
987.0
1010.0
1041.0
1078.0
1119.0
1158.0
1195.0
1227.0
1258.0
1287.0
1307.0
1316.0
1316.0
1300.0
1274.0
1232.0
1176.0
1114.0
1059.0
1017.0
988.0
971.0
963.0
963.0
963.0
958.0
955.0
945.0
936.0
928.0
924.0
925.0
921.0
925.0
924.0
926.0
928.0
927.0
931.0
931.0
929.0
926.0
924.0
919.0
914.0
912.0
912.0
913.0
915.0
919.0
920.0
919.0
919.0
916.0
916.0
915.0
911.0
911.0
911.0
913.0
911.0
911.0
910.0
910.0
908.0
907.0
903.0
900.0
896.0
896.0
891.0
887.0
882.0
881.0
882.0
876.0
875.0
870.0
865.0
861.0
857.0
854.0
851.0
849.0
845.0
844.0
843.0
842.0
840.0
838.0
837.0
835.0
835.0
835.0
837.0
836.0
838.0
840.0
850.0
850.0
856.0
860.0
865.0
869.0
875.0
881.0
884.0
891.0
897.0
903.0
910.0
915.0
923.0
925.0
926.0
929.0
932.0
933.0
931.0
935.0
936.0
940.0
941.0
944.0
944.0
944.0
943.0
942.0
940.0
939.0
940.0
943.0
944.0
946.0
946.0
947.0
948.0
944.0
942.0
939.0
938.0
937.0
937.0
939.0
941.0
942.0
946.0
946.0
948.0
949.0
948.0
951.0
950.0
951.0
951.0
952.0
956.0
960.0
962.0
965.0
967.0
969.0
968.0
970.0
969.0
975.0
981.0
991.0
1000.0
1004.0
1006.0
1002.0
997.0
988.0
986.0
984.0
985.0
988.0
992.0
992.0
990.0
986.0
977.0
967.0
958.0
954.0
949.0
947.0
946.0
943.0
941.0
936.0
934.0
933.0
932.0
933.0
933.0
932.0
929.0
926.0
923.0
924.0
926.0
929.0
932.0
934.0
936.0
936.0
942.0
955.0
973.0
999.0
1035.0
1078.0
1118.0
1154.0
1186.0
1218.0
1248.0
1270.0
1287.0
1294.0
1288.0
1269.0
1239.0
1194.0
1133.0
1068.0
1009.0
968.0
944.0
935.0
934.0
937.0
935.0
930.0
922.0
912.0
904.0
899.0
898.0
898.0
898.0
897.0
897.0
896.0
894.0
895.0
893.0
891.0
891.0
889.0
886.0
886.0
888.0
890.0
891.0
888.0
880.0
873.0
868.0
866.0
868.0
874.0
880.0
880.0
880.0
875.0
873.0
868.0
869.0
873.0
877.0
878.0
879.0
871.0
863.0
856.0
852.0
850.0
849.0
847.0
846.0
840.0
837.0
836.0
833.0
836.0
842.0
842.0
843.0
837.0
836.0
829.0
830.0
824.0
823.0
820.0
821.0
819.0
819.0
825.0
831.0
839.0
846.0
852.0
855.0
859.0
859.0
863.0
864.0
870.0
876.0
884.0
892.0
898.0
898.0
897.0
894.0
892.0
894.0
898.0
902.0
905.0
903.0
901.0
903.0
906.0
913.0
916.0
915.0
911.0
906.0
898.0
892.0
889.0
889.0
896.0
903.0
909.0
918.0
919.0
919.0
915.0
905.0
899.0
