# Simple Text Format
# Sampling Rate (Hz):= 360.00
# Resolution:= 12
# Labels:= ECG
990.0
992.0
986.0
972.0
958.0
954.0
960.0
969.0
979.0
984.0
987.0
980.0
969.0
951.0
942.0
933.0
938.0
943.0
948.0
954.0
962.0
975.0
989.0
1001.0
1007.0
1010.0
1005.0
993.0
982.0
985.0
998.0
1022.0
1053.0
1073.0
1076.0
1065.0
1052.0
1042.0
1034.0
1031.0
1037.0
1048.0
1067.0
1081.0
1086.0
1079.0
1065.0
1058.0
1056.0
1060.0
1067.0
1072.0
1076.0
1074.0
1069.0
1067.0
1078.0
1086.0
1089.0
1083.0
1068.0
1052.0
1043.0
1042.0
1044.0
1054.0
1063.0
1074.0
1075.0
1072.0
1059.0
1052.0
1049.0
1050.0
1055.0
1063.0
1074.0
1079.0
1075.0
1068.0
1062.0
1062.0
1066.0
1074.0
1082.0
1090.0
1093.0
1087.0
1083.0
1078.0
1080.0
1091.0
1105.0
1118.0
1127.0
1126.0
1120.0
1102.0
1088.0
1085.0
1091.0
1097.0
1101.0
1099.0
1091.0
1083.0
1079.0
1073.0
1067.0
1063.0
1056.0
1053.0
1054.0
1053.0
1053.0
1053.0
1051.0
1046.0
1044.0
1044.0
1041.0
1043.0
1041.0
1043.0
1046.0
1047.0
1046.0
1041.0
1035.0
1034.0
1037.0
1048.0
1060.0
1080.0
1102.0
1135.0
1172.0
1215.0
1255.0
1292.0
1323.0
1345.0
1353.0
1357.0
1351.0
1345.0
1331.0
1305.0
1264.0
1214.0
1170.0
1137.0
1114.0
1100.0
1089.0
1087.0
1084.0
1080.0
1072.0
1053.0
1022.0
990.0
969.0
965.0
976.0
992.0
1010.0
1025.0
1024.0
1009.0
989.0
975.0
970.0
972.0
982.0
996.0
1003.0
1005.0
1004.0
999.0
989.0
978.0
969.0
965.0
970.0
976.0
980.0
980.0
975.0
970.0
968.0
965.0
963.0
961.0
960.0
959.0
962.0
966.0
972.0
978.0
979.0
972.0
960.0
947.0
938.0
939.0
939.0
937.0
941.0
941.0
938.0
929.0
920.0
908.0
898.0
891.0
889.0
891.0
897.0
906.0
913.0
919.0
925.0
929.0
932.0
924.0
909.0
893.0
882.0
887.0
903.0
921.0
933.0
932.0
930.0
926.0
925.0
931.0
933.0
931.0
928.0
922.0
915.0
904.0
901.0
894.0
887.0
875.0
867.0
862.0
861.0
855.0
839.0
819.0
804.0
794.0
793.0
802.0
813.0
824.0
832.0
835.0
831.0
823.0
815.0
808.0
806.0
808.0
808.0
807.0
805.0
807.0
808.0
810.0
813.0
820.0
829.0
835.0
829.0
819.0
798.0
782.0
778.0
788.0
803.0
817.0
826.0
825.0
814.0
803.0
802.0
807.0
814.0
823.0
833.0
843.0
850.0
855.0
863.0
871.0
879.0
889.0
890.0
890.0
884.0
880.0
875.0
872.0
862.0
854.0
850.0
844.0
846.0
848.0
850.0
848.0
847.0
841.0
835.0
831.0
830.0
834.0
836.0
839.0
842.0
843.0
838.0
825.0
809.0
798.0
794.0
794.0
803.0
816.0
829.0
846.0
859.0
866.0
854.0
833.0
810.0
799.0
802.0
817.0
848.0
886.0
932.0
978.0
1023.0
1060.0
1089.0
1118.0
1144.0
1170.0
1187.0
1190.0
1183.0
1163.0
1129.0
1081.0
1026.0
971.0
928.0
900.0
884.0
880.0
879.0
870.0
855.0
830.0
800.0
779.0
767.0
767.0
775.0
787.0
796.0
799.0
800.0
798.0
799.0
804.0
804.0
802.0
799.0
794.0
788.0
789.0
796.0
801.0
802.0
805.0
802.0
800.0
799.0
799.0
794.0
794.0
795.0
795.0
799.0
798.0
797.0
797.0
798.0
796.0
793.0
792.0
788.0
785.0
780.0
780.0
786.0
790.0
802.0
809.0
807.0
795.0
778.0
764.0
760.0
762.0
767.0
774.0
772.0
772.0
766.0
762.0
757.0
755.0
761.0
763.0
774.0
779.0
785.0
786.0
784.0
778.0
776.0
775.0
775.0
778.0
783.0
793.0
804.0
814.0
822.0
828.0
831.0
832.0
826.0
824.0
827.0
836.0
844.0
856.0
865.0
869.0
867.0
859.0
852.0
847.0
848.0
849.0
849.0
846.0
842.0
842.0
843.0
854.0
870.0
886.0
903.0
911.0
905.0
895.0
885.0
881.0
891.0
908.0
929.0
949.0
967.0
986.0
999.0
1012.0
1021.0
1014.0
989.0
940.0
867.0
777.0
690.0
619.0
565.0
527.0
503.0
487.0
475.0
467.0
463.0
463.0
465.0
476.0
486.0
498.0
507.0
527.0
551.0
581.0
615.0
642.0
664.0
679.0
692.0
706.0
718.0
734.0
748.0
756.0
764.0
772.0
786.0
792.0
804.0
824.0
850.0
881.0
905.0
925.0
938.0
949.0
957.0
964.0
970.0
973.0
970.0
963.0
953.0
954.0
958.0
970.0
981.0
983.0
986.0
987.0
986.0
984.0
980.0
982.0
984.0
987.0
992.0
996.0
1004.0
1010.0
1015.0
1021.0
1031.0
1042.0
1044.0
1046.0
1043.0
1046.0
1044.0
1049.0
1055.0
1060.0
1069.0
1081.0
1090.0
1088.0
1082.0
1079.0
1078.0
1080.0
1081.0
1081.0
1077.0
1071.0
1065.0
1058.0
1058.0
1061.0
1063.0
1064.0
1057.0
1050.0
1043.0
1034.0
1026.0
1017.0
1007.0
996.0
989.0
981.0
975.0
967.0
959.0
953.0
948.0
949.0
952.0
951.0
939.0
919.0
897.0
879.0
875.0
881.0
889.0
901.0
909.0
916.0
915.0
914.0
909.0
904.0
903.0
902.0
899.0
894.0
883.0
871.0
867.0
867.0
869.0
872.0
875.0
876.0
880.0
881.0
886.0
888.0
889.0
890.0
895.0
896.0
897.0
899.0
902.0
904.0
904.0
902.0
896.0
896.0
896.0
895.0
888.0
878.0
867.0
863.0
866.0
874.0
884.0
888.0
890.0
887.0
886.0
887.0
890.0
893.0
891.0
892.0
888.0
885.0
884.0
887.0
893.0
899.0
899.0
895.0
884.0
879.0
877.0
880.0
885.0
890.0
894.0
891.0
887.0
885.0
881.0
880.0
881.0
882.0
882.0
875.0
875.0
875.0
880.0
883.0
886.0
888.0
886.0
888.0
889.0
891.0
892.0
895.0
897.0
892.0
889.0
889.0
893.0
901.0
906.0
910.0
904.0
897.0
893.0
892.0
895.0
899.0
901.0
903.0
903.0
906.0
909.0
911.0
916.0
922.0
926.0
932.0
933.0
933.0
935.0
938.0
943.0
949.0
953.0
956.0
960.0
960.0
958.0
953.0
944.0
938.0
934.0
930.0
924.0
914.0
904.0
899.0
896.0
896.0
897.0
899.0
900.0
898.0
893.0
887.0
882.0
883.0
888.0
892.0
896.0
898.0
893.0
890.0
887.0
887.0
889.0
895.0
902.0
910.0
922.0
946.0
975.0
1014.0
1054.0
1086.0
1117.0
1145.0
1179.0
1217.0
1255.0
1280.0
1287.0
1277.0
1248.0
1212.0
1172.0
1117.0
1056.0
1003.0
961.0
940.0
934.0
937.0
939.0
938.0
928.0
915.0
903.0
883.0
872.0
866.0
866.0
874.0
878.0
876.0
871.0
870.0
869.0
873.0
876.0
878.0
878.0
877.0
876.0
877.0
877.0
876.0
870.0
863.0
860.0
863.0
867.0
873.0
876.0
873.0
872.0
871.0
874.0
877.0
876.0
874.0
870.0
867.0
864.0
852.0
843.0
832.0
830.0
834.0
844.0
854.0
865.0
872.0
870.0
865.0
860.0
849.0
834.0
825.0
819.0
825.0
833.0
840.0
839.0
831.0
818.0
805.0
794.0
788.0
789.0
790.0
797.0
803.0
809.0
815.0
810.0
807.0
803.0
804.0
809.0
814.0
821.0
822.0
822.0
824.0
830.0
847.0
860.0
866.0
865.0
853.0
837.0
822.0
818.0
828.0
845.0
877.0
903.0
918.0
916.0
904.0
897.0
897.0
904.0
916.0
922.0
922.0
914.0
905.0
901.0
903.0
906.0
912.0
914.0
914.0
910.0
903.0
896.0
892.0
897.0
908.0
920.0
929.0
929.0
928.0
926.0
927.0
929.0
930.0
927.0
921.0
916.0
919.0
926.0
929.0
923.0
910.0
900.0
899.0
910.0
920.0
930.0
933.0
934.0
934.0
947.0
955.0
954.0
940.0
925.0
914.0
912.0
922.0
938.0
956.0
977.0
990.0
994.0
988.0
980.0
979.0
985.0
994.0
1002.0
1007.0
1000.0
985.0
966.0
954.0
954.0
960.0
963.0
971.0
974.0
972.0
970.0
967.0
963.0
963.0
963.0
966.0
969.0
963.0
956.0
953.0
955.0
959.0
962.0
956.0
947.0
938.0
938.0
943.0
952.0
963.0
971.0
977.0
980.0
985.0
995.0
1010.0
1037.0
1074.0
1121.0
1170.0
1216.0
1255.0
1283.0
1308.0
1331.0
1341.0
1344.0
1335.0
1311.0
1272.0
1220.0
1160.0
1113.0
1080.0
1060.0
1046.0
1035.0
1023.0
1016.0
1011.0
1004.0
990.0
972.0
955.0
955.0
958.0
966.0
968.0
965.0
956.0
949.0
949.0
952.0
952.0
956.0
952.0
949.0
944.0
946.0
955.0
960.0
960.0
952.0
947.0
941.0
940.0
940.0
938.0
933.0
932.0
933.0
940.0
948.0
953.0
956.0
949.0
946.0
940.0
935.0
931.0
923.0
921.0
919.0
921.0
922.0
921.0
920.0
917.0
918.0
913.0
908.0
900.0
894.0
887.0
885.0
889.0
890.0
895.0
896.0
898.0
899.0
898.0
895.0
886.0
880.0
880.0
880.0
890.0
897.0
906.0
912.0
915.0
917.0
915.0
919.0
921.0
929.0
937.0
945.0
943.0
937.0
929.0
926.0
930.0
939.0
946.0
951.0
954.0
957.0
954.0
949.0
939.0
927.0
916.0
916.0
922.0
929.0
941.0
946.0
948.0
950.0
948.0
943.0
939.0
940.0
943.0
947.0
950.0
956.0
957.0
954.0
941.0
929.0
919.0
913.0
920.0
929.0
940.0
947.0
946.0
942.0
937.0
933.0
928.0
927.0
923.0
926.0
934.0
945.0
956.0
962.0
967.0
963.0
957.0
951.0
949.0
955.0
971.0
990.0
1007.0
1012.0
1007.0
997.0
988.0
979.0
969.0
962.0
959.0
966.0
980.0
989.0
996.0
996.0
991.0
983.0
968.0
952.0
935.0
926.0
926.0
930.0
937.0
938.0
942.0
940.0
933.0
928.0
925.0
923.0
922.0
927.0
931.0
933.0
933.0
931.0
929.0
928.0
924.0
923.0
921.0
926.0
932.0
949.0
967.0
993.0
1025.0
1062.0
1104.0
1140.0
1173.0
1207.0
1241.0
1270.0
1293.0
1300.0
1297.0
1284.0
1261.0
1223.0
1176.0
1120.0
1063.0
1017.0
985.0
969.0
968.0
977.0
988.0
985.0
958.0
923.0
891.0
871.0
867.0
872.0
880.0
890.0
899.0
903.0
907.0
908.0
911.0
911.0
910.0
906.0
900.0
894.0
893.0
894.0
898.0
900.0
903.0
908.0
908.0
906.0
900.0
897.0
890.0
890.0
893.0
895.0
905.0
914.0
921.0
921.0
907.0
886.0
868.0
857.0
857.0
870.0
883.0
893.0
896.0
895.0
890.0
885.0
878.0
872.0
872.0
870.0
872.0
871.0
866.0
861.0
858.0
857.0
854.0
860.0
864.0
867.0
870.0
870.0
871.0
864.0
858.0
860.0
869.0
892.0
912.0
924.0
913.0
888.0
867.0
861.0
871.0
886.0
899.0
910.0
918.0
923.0
927.0
926.0
932.0
940.0
947.0
945.0
942.0
939.0
935.0
933.0
934.0
939.0
945.0
950.0
957.0
963.0
970.0
974.0
980.0
991.0
996.0
997.0
993.0
996.0
998.0
1016.0
1034.0
1051.0
1069.0
1084.0
1094.0
1096.0
1082.0
1057.0
1011.0
946.0
872.0
800.0
739.0
693.0
664.0
640.0
621.0
606.0
595.0
584.0
578.0
580.0
584.0
594.0
609.0
624.0
646.0
671.0
691.0
710.0
721.0
736.0
750.0
768.0
791.0
815.0
847.0
876.0
891.0
896.0
892.0
889.0
900.0
919.0
948.0
977.0
1003.0
1020.0
1033.0
1040.0
1043.0
1045.0
1046.0
1048.0
1053.0
1053.0
1053.0
1051.0
1050.0
1048.0
1054.0
1063.0
1072.0
1079.0
1083.0
1086.0
1088.0
1089.0
1086.0
1082.0
1078.0
1079.0
1082.0
1086.0
1087.0
1093.0
1098.0
1105.0
1113.0
1119.0
1127.0
1135.0
1139.0
1136.0
1134.0
1134.0
1136.0
1142.0
1147.0
1155.0
1159.0
1160.0
1160.0
1165.0
1171.0
1178.0
1186.0
1185.0
1180.0
1177.0
1180.0
1185.0
1176.0
1158.0
1129.0
1102.0
1084.0
1074.0
1075.0
1079.0
1083.0
1086.0
1082.0
1076.0
1059.0
1043.0
1029.0
1022.0
1020.0
1029.0
1039.0
1042.0
1032.0
1016.0
996.0
983.0
984.0
986.0
986.0
985.0
984.0
979.0
978.0
977.0
977.0
976.0
977.0
978.0
981.0
989.0
1003.0
1007.0
996.0
973.0
959.0
947.0
944.0
942.0
942.0
952.0
961.0
970.0
975.0
973.0
967.0
961.0
958.0
961.0
965.0
969.0
974.0
979.0
982.0
986.0
991.0
990.0
987.0
983.0
979.0
976.0
968.0
951.0
935.0
923.0
918.0
925.0
939.0
950.0
957.0
965.0
970.0
979.0
991.0
993.0
986.0
972.0
958.0
947.0
949.0
960.0
972.0
978.0
975.0
967.0
954.0
944.0
937.0
929.0
926.0
929.0
935.0
946.0
955.0
960.0
963.0
963.0
955.0
951.0
946.0
947.0
950.0
959.0
969.0
975.0
976.0
974.0
964.0
959.0
949.0
943.0
943.0
950.0
958.0
969.0
975.0
977.0
972.0
965.0
961.0
959.0
964.0
975.0
989.0
1001.0
1014.0
1026.0
1027.0
1019.0
1012.0
1006.0
1000.0
998.0
999.0
1007.0
1016.0
1019.0
1013.0
995.0
980.0
974.0
970.0
973.0
974.0
973.0
973.0
969.0
965.0
956.0
947.0
943.0
942.0
943.0
948.0
950.0
952.0
952.0
952.0
950.0
949.0
949.0
950.0
952.0
954.0
958.0
970.0
995.0
1032.0
1081.0
1126.0
1164.0
1193.0
1213.0
1237.0
1266.0
1293.0
1319.0
1329.0
1319.0
1292.0
1243.0
1178.0
1115.0
1062.0
1023.0
1004.0
998.0
1000.0
1004.0
1003.0
997.0
982.0
969.0
958.0
947.0
933.0
919.0
909.0
906.0
909.0
913.0
921.0
926.0
932.0
932.0
928.0
921.0
919.0
919.0
919.0
919.0
918.0
915.0
917.0
916.0
914.0
911.0
910.0
903.0
899.0
898.0
900.0
907.0
917.0
919.0
918.0
911.0
901.0
893.0
891.0
893.0
900.0
906.0
907.0
908.0
907.0
903.0
893.0
884.0
875.0
873.0
876.0
883.0
887.0
882.0
871.0
860.0
849.0
839.0
834.0
837.0
842.0
846.0
845.0
844.0
845.0
843.0
841.0
840.0
843.0
845.0
847.0
851.0
853.0
856.0
862.0
873.0
886.0
898.0
895.0
889.0
883.0
879.0
883.0
894.0
906.0
922.0
933.0
936.0
930.0
924.0
921.0
919.0
926.0
931.0
936.0
942.0
945.0
948.0
953.0
954.0
955.0
951.0
948.0
947.0
947.0
950.0
955.0
957.0
959.0
956.0
953.0
945.0
942.0
943.0
945.0
948.0
952.0
957.0
957.0
956.0
955.0
952.0
952.0
957.0
962.0
959.0
955.0
948.0
944.0
948.0
957.0
966.0
978.0
984.0
986.0
988.0
991.0
992.0
1000.0
1005.0
1014.0
1022.0
1036.0
1051.0
1073.0
1093.0
1115.0
1139.0
1161.0
1178.0
1193.0
1209.0
1221.0
1230.0
1242.0
1255.0
1269.0
1278.0
1280.0
1265.0
1237.0
1194.0
1135.0
1061.0
980.0
894.0
816.0
757.0
713.0
689.0
684.0
700.0
728.0
753.0
766.0
769.0
769.0
779.0
802.0
829.0
855.0
874.0
895.0
907.0
917.0
928.0
936.0
946.0
950.0
945.0
935.0
928.0
929.0
926.0
930.0
929.0
928.0
927.0
924.0
924.0
930.0
935.0
941.0
941.0
933.0
922.0
918.0
918.0
919.0
925.0
931.0
939.0
944.0
951.0
951.0
948.0
938.0
931.0
924.0
921.0
921.0
923.0
929.0
940.0
952.0
960.0
963.0
961.0
954.0
945.0
943.0
948.0
958.0
969.0
972.0
977.0
976.0
975.0
975.0
975.0
976.0
978.0
982.0
986.0
991.0
993.0
992.0
992.0
990.0
991.0
985.0
982.0
980.0
977.0
976.0
975.0
971.0
964.0
959.0
954.0
951.0
956.0
965.0
974.0
972.0
964.0
954.0
948.0
949.0
953.0
950.0
950.0
947.0
943.0
935.0
932.0
932.0
936.0
941.0
949.0
956.0
958.0
959.0
957.0
955.0
953.0
948.0
944.0
945.0
950.0
955.0
963.0
967.0
961.0
948.0
936.0
934.0
943.0
952.0
966.0
974.0
971.0
967.0
956.0
945.0
935.0
936.0
940.0
947.0
954.0
956.0
956.0
953.0
952.0
953.0
950.0
951.0
948.0
950.0
953.0
958.0
962.0
966.0
966.0
967.0
964.0
960.0
955.0
952.0
953.0
954.0
953.0
945.0
946.0
945.0
945.0
947.0
950.0
957.0
964.0
970.0
971.0
970.0
965.0
962.0
962.0
966.0
974.0
983.0
989.0
992.0
997.0
1002.0
1007.0
1013.0
1019.0
1020.0
1021.0
1021.0
1021.0
1021.0
1022.0
1024.0
1023.0
1020.0
1005.0
993.0
980.0
979.0
985.0
989.0
988.0
984.0
975.0
970.0
964.0
960.0
954.0
948.0
944.0
942.0
944.0
947.0
950.0
950.0
952.0
955.0
958.0
959.0
959.0
953.0
950.0
949.0
952.0
960.0
969.0
983.0
1001.0
1029.0
1067.0
1104.0
1138.0
1169.0
1204.0
1238.0
1269.0
1298.0
1319.0
1328.0
1318.0
1295.0
1255.0
1205.0
1150.0
1092.0
1046.0
1013.0
991.0
976.0
966.0
959.0
957.0
953.0
943.0
930.0
924.0
921.0
924.0
926.0
926.0
922.0
920.0
920.0
923.0
928.0
933.0
931.0
928.0
922.0
920.0
921.0
931.0
935.0
934.0
922.0
907.0
897.0
894.0
901.0
905.0
908.0
906.0
907.0
905.0
903.0
907.0
906.0
905.0
904.0
904.0
906.0
908.0
910.0
909.0
906.0
901.0
897.0
893.0
893.0
892.0
893.0
894.0
893.0
890.0
887.0
883.0
879.0
875.0
874.0
872.0
872.0
869.0
869.0
867.0
864.0
859.0
858.0
858.0
858.0
859.0
861.0
862.0
867.0
869.0
872.0
873.0
873.0
873.0
876.0
879.0
885.0
896.0
905.0
912.0
917.0
917.0
917.0
921.0
925.0
926.0
931.0
934.0
937.0
946.0
951.0
957.0
962.0
967.0
967.0
966.0
963.0
961.0
956.0
958.0
959.0
963.0
966.0
968.0
972.0
970.0
971.0
973.0
976.0
978.0
978.0
981.0
980.0
972.0
966.0
959.0
958.0
964.0
968.0
967.0
965.0
961.0
959.0
961.0
969.0
978.0
989.0
1002.0
1010.0
1002.0
988.0
969.0
959.0
965.0
982.0
998.0
1004.0
1003.0
999.0
998.0
999.0
1002.0
1005.0
1013.0
1020.0
1026.0
1028.0
1031.0
1031.0
1027.0
1022.0
1018.0
1017.0
1017.0
1020.0
1016.0
1016.0
1011.0
1008.0
1008.0
1003.0
1004.0
1000.0
997.0
993.0
990.0
987.0
980.0
972.0
966.0
961.0
963.0
968.0
974.0
979.0
977.0
976.0
967.0
962.0
960.0
963.0
969.0
978.0
988.0
990.0
982.0
973.0
964.0
967.0
986.0
1019.0
1068.0
1116.0
1159.0
1187.0
1218.0
1247.0
1277.0
1304.0
1325.0
1330.0
1321.0
1303.0
1268.0
1225.0
1173.0
1118.0
1073.0
1039.0
1024.0
1011.0
1006.0
1003.0
995.0
987.0
972.0
959.0
951.0
941.0
934.0
934.0
934.0
938.0
943.0
949.0
949.0
943.0
934.0
924.0
919.0
917.0
921.0
932.0
943.0
951.0
949.0
942.0
932.0
927.0
927.0
929.0
931.0
930.0
930.0
927.0
929.0
931.0
934.0
938.0
940.0
938.0
934.0
926.0
919.0
914.0
912.0
911.0
913.0
917.0
920.0
922.0
923.0
925.0
927.0
923.0
920.0
913.0
907.0
904.0
905.0
908.0
916.0
919.0
915.0
910.0
905.0
900.0
899.0
899.0
902.0
906.0
910.0
913.0
913.0
911.0
909.0
909.0
912.0
915.0
923.0
927.0
937.0
945.0
956.0
960.0
961.0
966.0
966.0
968.0
969.0
972.0
974.0
975.0
973.0
977.0
983.0
987.0
993.0
995.0
997.0
998.0
998.0
1000.0
997.0
995.0
991.0
991.0
991.0
995.0
1000.0
1006.0
1010.0
1012.0
1014.0
1014.0
1008.0
1000.0
992.0
989.0
991.0
995.0
1000.0
1005.0
1006.0
1008.0
1010.0
1009.0
1010.0
1008.0
1007.0
1007.0
1008.0
1006.0
1008.0
1008.0
1008.0
1011.0
1013.0
1017.0
1020.0
1027.0
1033.0
1041.0
1044.0
1045.0
1046.0
1052.0
1059.0
1072.0
1082.0
1081.0
1075.0
1063.0
1054.0
1048.0
1050.0
1055.0
1064.0
1072.0
1078.0
1073.0
1067.0
1054.0
1040.0
1025.0
1015.0
1007.0
1002.0
1005.0
1009.0
1018.0
1019.0
1024.0
1028.0
1019.0
1002.0
985.0
973.0
967.0
971.0
979.0
988.0
997.0
999.0
996.0
989.0
986.0
990.0
1006.0
1035.0
1073.0
1117.0
1159.0
1198.0
1238.0
1272.0
1300.0
1325.0
1340.0
1341.0
1328.0
1307.0
1271.0
1227.0
1175.0
1126.0
1086.0
1057.0
1040.0
1027.0
1018.0
1015.0
1005.0
995.0
982.0
971.0
964.0
960.0
962.0
961.0
964.0
964.0
963.0
962.0
961.0
957.0
954.0
956.0
955.0
955.0
957.0
955.0
956.0
956.0
954.0
956.0
958.0
962.0
962.0
962.0
960.0
954.0
950.0
947.0
945.0
945.0
947.0
950.0
954.0
956.0
958.0
958.0
952.0
940.0
931.0
925.0
924.0
924.0
922.0
920.0
916.0
915.0
912.0
909.0
907.0
905.0
905.0
903.0
902.0
903.0
902.0
901.0
901.0
902.0
901.0
903.0
902.0
905.0
905.0
906.0
907.0
910.0
916.0
922.0
926.0
932.0
936.0
941.0
947.0
949.0
954.0
955.0
960.0
964.0
967.0
968.0
971.0
971.0
975.0
977.0
981.0
982.0
987.0
983.0
979.0
975.0
973.0
977.0
980.0
987.0
992.0
992.0
986.0
982.0
981.0
984.0
988.0
993.0
994.0
992.0
986.0
984.0
981.0
984.0
990.0
995.0
1005.0
1010.0
1014.0
1012.0
1013.0
1012.0
1016.0
1022.0
1028.0
1039.0
1052.0
1067.0
1088.0
1108.0
1130.0
1148.0
1164.0
1181.0
1199.0
1219.0
1237.0
1253.0
1269.0
1283.0
1298.0
1300.0
1309.0
1305.0
1283.0
1237.0
1171.0
1087.0
995.0
910.0
839.0
791.0
763.0
754.0
754.0
766.0
782.0
802.0
819.0
829.0
832.0
838.0
847.0
863.0
886.0
910.0
932.0
946.0
957.0
958.0
952.0
947.0
940.0
938.0
940.0
947.0
949.0
956.0
956.0
960.0
961.0
963.0
967.0
970.0
969.0
965.0
958.0
950.0
949.0
952.0
951.0
952.0
952.0
950.0
946.0
945.0
947.0
949.0
950.0
949.0
946.0
943.0
944.0
945.0
948.0
951.0
958.0
960.0
963.0
966.0
970.0
973.0
976.0
981.0
986.0
988.0
987.0
987.0
986.0
997.0
1005.0
1009.0
1005.0
999.0
993.0
990.0
990.0
993.0
997.0
999.0
1004.0
1005.0
1000.0
989.0
977.0
971.0
976.0
986.0
997.0
1008.0
1012.0
1010.0
1001.0
991.0
981.0
979.0
984.0
992.0
988.0
977.0
964.0
947.0
931.0
922.0
922.0
930.0
939.0
948.0
954.0
957.0
958.0
958.0
954.0
954.0
956.0
959.0
967.0
967.0
958.0
945.0
933.0
931.0
935.0
944.0
956.0
960.0
957.0
947.0
938.0
932.0
938.0
946.0
953.0
952.0
945.0
934.0
927.0
924.0
928.0
932.0
940.0
940.0
939.0
934.0
937.0
943.0
948.0
952.0
950.0
947.0
951.0
958.0
963.0
964.0
956.0
938.0
925.0
914.0
912.0
921.0
930.0
937.0
942.0
938.0
939.0
942.0
950.0
954.0
955.0
956.0
958.0
955.0
957.0
955.0
953.0
950.0
945.0
936.0
932.0
934.0
946.0
959.0
966.0
967.0
968.0
965.0
968.0
974.0
979.0
982.0
980.0
974.0
965.0
964.0
967.0
978.0
994.0
1006.0
1007.0
1008.0
1003.0
999.0
1002.0
1007.0
1015.0
1026.0
1032.0
1031.0
1020.0
1004.0
993.0
992.0
990.0
993.0
989.0
983.0
978.0
972.0
965.0
962.0
959.0
955.0
958.0
963.0
969.0
975.0
976.0
970.0
954.0
945.0
943.0
950.0
963.0
981.0
979.0
965.0
950.0
940.0
940.0
957.0
985.0
1021.0
1066.0
1111.0
1157.0
1197.0
1229.0
1261.0
1291.0
1314.0
1326.0
1326.0
1310.0
1279.0
1231.0
1167.0
1098.0
1043.0
1010.0
993.0
979.0
966.0
957.0
954.0
956.0
958.0
952.0
944.0
934.0
922.0
908.0
904.0
906.0
916.0
925.0
926.0
924.0
920.0
917.0
920.0
926.0
934.0
943.0
942.0
933.0
915.0
909.0
909.0
911.0
913.0
916.0
919.0
920.0
917.0
914.0
912.0
916.0
921.0
923.0
921.0
913.0
907.0
907.0
910.0
915.0
914.0
913.0
909.0
904.0
899.0
898.0
895.0
893.0
890.0
888.0
888.0
889.0
887.0
880.0
875.0
870.0
870.0
869.0
871.0
874.0
874.0
875.0
877.0
880.0
874.0
865.0
862.0
866.0
874.0
888.0
895.0
898.0
895.0
893.0
897.0
906.0
918.0
926.0
930.0
929.0
936.0
948.0
953.0
954.0
955.0
957.0
966.0
974.0
983.0
984.0
979.0
973.0
969.0
966.0
958.0
952.0
946.0
948.0
951.0
958.0
960.0
959.0
956.0
953.0
953.0
956.0
964.0
969.0
973.0
975.0
979.0
985.0
989.0
988.0
977.0
969.0
965.0
965.0
970.0
978.0
980.0
982.0
979.0
976.0
974.0
971.0
969.0
971.0
971.0
976.0
983.0
986.0
990.0
991.0
995.0
999.0
1005.0
1012.0
1017.0
1021.0
1018.0
1028.0
1032.0
1038.0
1044.0
1042.0
1038.0
1033.0
1024.0
1017.0
1012.0
1014.0
1022.0
1028.0
1033.0
1032.0
1024.0
1018.0
1009.0
1000.0
990.0
977.0
969.0
965.0
970.0
971.0
974.0
976.0
977.0
977.0
977.0
977.0
980.0
981.0
982.0
984.0
992.0
998.0
999.0
990.0
978.0
970.0
969.0
978.0
994.0
1017.0
1042.0
1076.0
1117.0
1158.0
1200.0
1235.0
1272.0
1307.0
1339.0
1361.0
1371.0
1365.0
1347.0
1316.0
1275.0
1223.0
1167.0
1114.0
1072.0
1043.0
1023.0
1014.0
1009.0
1008.0
1006.0
1000.0
990.0
979.0
974.0
975.0
986.0
984.0
978.0
963.0
943.0
931.0
926.0
932.0
937.0
946.0
951.0
957.0
960.0
960.0
958.0
954.0
954.0
952.0
954.0
952.0
953.0
953.0
953.0
954.0
954.0
952.0
952.0
952.0
950.0
949.0
947.0
948.0
950.0
951.0
953.0
951.0
950.0
951.0
954.0
952.0
949.0
940.0
930.0
923.0
922.0
926.0
929.0
935.0
939.0
943.0
943.0
942.0
936.0
927.0
917.0
907.0
901.0
895.0
895.0
896.0
901.0
906.0
910.0
916.0
922.0
925.0
928.0
930.0
933.0
934.0
938.0
948.0
956.0
969.0
978.0
982.0
977.0
971.0
968.0
967.0
972.0
979.0
987.0
994.0
998.0
1001.0
1000.0
1000.0
996.0
994.0
995.0
994.0
994.0
993.0
993.0
997.0
995.0
992.0
990.0
986.0
985.0
984.0
986.0
988.0
990.0
992.0
995.0
997.0
1001.0
1001.0
1002.0
1003.0
1008.0
1009.0
1006.0
999.0
999.0
997.0
998.0
997.0
1000.0
1002.0
1006.0
1009.0
1012.0
1014.0
1019.0
1019.0
1020.0
1020.0
1020.0
1026.0
1027.0
1029.0
1033.0
1032.0
1034.0
1037.0
1043.0
1050.0
1057.0
1063.0
1065.0
1064.0
1063.0
1060.0
1055.0
1057.0
1058.0
1059.0
1061.0
1059.0
1057.0
1054.0
1048.0
1039.0
1034.0
1027.0
1023.0
1021.0
1015.0
1011.0
1005.0
999.0
996.0
992.0
992.0
997.0
999.0
1001.0
1003.0
1004.0
1000.0
1000.0
1001.0
1003.0
1008.0
1011.0
1012.0
1015.0
1019.0
1026.0
1036.0
1049.0
1069.0
1100.0
1135.0
1174.0
1210.0
1244.0
1278.0
1305.0
1332.0
1350.0
1364.0
1365.0
1352.0
1334.0
1308.0
1275.0
1237.0
1192.0
1149.0
1114.0
1089.0
1077.0
1067.0
1057.0
1047.0
1038.0
1029.0
1018.0
1011.0
1005.0
1000.0
1000.0
1006.0
1011.0
1011.0
1009.0
1003.0
996.0
991.0
990.0
991.0
993.0
996.0
999.0
1002.0
1001.0
998.0
997.0
992.0
988.0
980.0
978.0
980.0
981.0
983.0
983.0
985.0
987.0
986.0
987.0
990.0
987.0
981.0
974.0
970.0
971.0
973.0
978.0
981.0
980.0
975.0
968.0
963.0
962.0
958.0
958.0
950.0
940.0
930.0
927.0
927.0
931.0
936.0
937.0
931.0
927.0
922.0
918.0
915.0
915.0
912.0
913.0
915.0
917.0
922.0
928.0
931.0
933.0
933.0
936.0
943.0
948.0
954.0
958.0
964.0
968.0
969.0
973.0
975.0
975.0
975.0
975.0
976.0
974.0
976.0
982.0
982.0
982.0
980.0
982.0
979.0
984.0
986.0
986.0
987.0
987.0
991.0
988.0
989.0
993.0
996.0
998.0
996.0
994.0
993.0
988.0
984.0
985.0
986.0
990.0
993.0
995.0
995.0
997.0
997.0
995.0
994.0
992.0
993.0
993.0
995.0
998.0
1004.0
1008.0
1011.0
1018.0
1018.0
1020.0
1022.0
1022.0
1022.0
1026.0
1027.0
1034.0
1038.0
1044.0
1052.0
1057.0
1055.0
1055.0
1047.0
1042.0
1039.0
1039.0
1042.0
1044.0
1045.0
1046.0
1038.0
1026.0
1017.0
1005.0
998.0
995.0
997.0
998.0
995.0
993.0
991.0
988.0
985.0
981.0
983.0
982.0
983.0
987.0
986.0
988.0
986.0
985.0
986.0
985.0
987.0
996.0
1013.0
1038.0
1076.0
1118.0
1162.0
1202.0
1239.0
1271.0
1303.0
1328.0
1344.0
1348.0
1338.0
1318.0
1287.0
1243.0
1188.0
1129.0
1081.0
1050.0
1037.0
1030.0
1022.0
1015.0
1000.0
984.0
970.0
960.0
957.0
957.0
962.0
966.0
966.0
962.0
957.0
954.0
953.0
957.0
960.0
958.0
955.0
954.0
948.0
946.0
946.0
946.0
947.0
944.0
949.0
949.0
948.0
949.0
946.0
944.0
941.0
940.0
940.0
941.0
941.0
937.0
929.0
920.0
919.0
918.0
920.0
924.0
924.0
921.0
918.0
912.0
910.0
910.0
909.0
913.0
914.0
914.0
910.0
900.0
894.0
890.0
890.0
893.0
894.0
892.0
889.0
884.0
882.0
882.0
884.0
883.0
879.0
876.0
873.0
872.0
875.0
882.0
891.0
898.0
902.0
904.0
904.0
906.0
907.0
913.0
913.0
916.0
923.0
927.0
