# Simple Text Format
# Sampling Rate (Hz):= 360.00
# Resolution:= 12
# Labels:= ECG
1005.0
1005.0
1005.0
1005.0
1005.0
1005.0
1005.0
1005.0
1005.0
1006.0
1007.0
1010.0
1012.0
1016.0
1018.0
1021.0
1026.0
1035.0
1043.0
1054.0
1067.0
1082.0
1097.0
1113.0
1133.0
1152.0
1175.0
1194.0
1203.0
1199.0
1173.0
1122.0
1050.0
959.0
871.0
794.0
734.0
690.0
659.0
633.0
611.0
594.0
578.0
571.0
566.0
573.0
581.0
596.0
614.0
638.0
660.0
681.0
706.0
723.0
738.0
752.0
766.0
782.0
802.0
825.0
848.0
868.0
884.0
898.0
909.0
918.0
926.0
935.0
955.0
978.0
1006.0
1031.0
1061.0
1078.0
1090.0
1094.0
1094.0
1089.0
1084.0
1086.0
1087.0
1090.0
1094.0
1099.0
1103.0
1102.0
1106.0
1111.0
1113.0
1114.0
1116.0
1117.0
1120.0
1120.0
1126.0
1131.0
1136.0
1139.0
1146.0
1150.0
1151.0
1152.0
1155.0
1158.0
1161.0
1165.0
1169.0
1174.0
1179.0
1185.0
1189.0
1194.0
1196.0
1197.0
1199.0
1203.0
1206.0
1209.0
1211.0
1213.0
1214.0
1214.0
1213.0
1212.0
1212.0
1209.0
1205.0
1200.0
1194.0
1188.0
1186.0
1180.0
1176.0
1171.0
1164.0
1157.0
1149.0
1141.0
1134.0
1125.0
1118.0
1110.0
1104.0
1102.0
1096.0
1092.0
1086.0
1080.0
1072.0
1066.0
1060.0
1055.0
1050.0
1045.0
1042.0
1041.0
1037.0
1036.0
1032.0
1029.0
1027.0
1023.0
1020.0
1022.0
1020.0
1020.0
1020.0
1022.0
1024.0
1026.0
1024.0
1023.0
1023.0
1022.0
1022.0
1020.0
1022.0
1022.0
1021.0
1023.0
1023.0
1025.0
1023.0
1022.0
1021.0
1019.0
1016.0
1016.0
1016.0
1014.0
1015.0
1014.0
1018.0
1018.0
1019.0
1017.0
1014.0
1013.0
1012.0
1010.0
1010.0
1011.0
1013.0
1015.0
1016.0
1016.0
1014.0
1013.0
1012.0
1011.0
1008.0
1008.0
1009.0
1005.0
1007.0
1010.0
1011.0
1013.0
1012.0
1009.0
1009.0
1005.0
1007.0
1004.0
1004.0
1006.0
1006.0
1007.0
1007.0
1010.0
1004.0
1007.0
1009.0
1007.0
1007.0
1004.0
1004.0
1004.0
1006.0
1004.0
1007.0
1008.0
1006.0
1005.0
1007.0
1007.0
1007.0
1005.0
1005.0
1006.0
1006.0
1006.0
1008.0
1009.0
1008.0
1012.0
1016.0
1017.0
1018.0
1022.0
1026.0
1029.0
1033.0
1037.0
1040.0
1044.0
1048.0
1053.0
1060.0
1064.0
1067.0
1067.0
1067.0
1060.0
1055.0
1053.0
1055.0
1057.0
1058.0
1058.0
1054.0
1049.0
1043.0
1035.0
1030.0
1024.0
1019.0
1017.0
1015.0
1015.0
1011.0
1007.0
1001.0
996.0
995.0
995.0
993.0
997.0
997.0
997.0
998.0
1003.0
1003.0
1005.0
1003.0
1002.0
1001.0
1004.0
1014.0
1030.0
1058.0
1096.0
1133.0
1175.0
1215.0
1251.0
1284.0
1316.0
1340.0
1355.0
1360.0
1354.0
1338.0
1308.0
1263.0
1206.0
1146.0
1092.0
1050.0
1021.0
1006.0
997.0
994.0
990.0
988.0
984.0
977.0
968.0
964.0
962.0
960.0
958.0
958.0
956.0
955.0
954.0
955.0
955.0
954.0
953.0
954.0
953.0
953.0
953.0
951.0
948.0
948.0
947.0
948.0
950.0
950.0
952.0
950.0
949.0
947.0
947.0
947.0
943.0
944.0
943.0
942.0
942.0
940.0
939.0
940.0
939.0
935.0
933.0
929.0
926.0
925.0
922.0
919.0
919.0
917.0
913.0
912.0
909.0
904.0
898.0
893.0
891.0
891.0
888.0
885.0
885.0
884.0
884.0
884.0
883.0
880.0
880.0
881.0
881.0
883.0
887.0
890.0
894.0
897.0
903.0
906.0
913.0
915.0
920.0
924.0
929.0
937.0
942.0
950.0
955.0
959.0
965.0
969.0
973.0
975.0
978.0
980.0
980.0
984.0
986.0
987.0
988.0
990.0
990.0
991.0
994.0
992.0
991.0
988.0
989.0
990.0
989.0
992.0
993.0
991.0
994.0
994.0
991.0
991.0
987.0
989.0
986.0
985.0
986.0
985.0
990.0
992.0
992.0
991.0
991.0
992.0
987.0
986.0
985.0
987.0
986.0
994.0
997.0
1003.0
1009.0
1014.0
1019.0
1023.0
1024.0
1029.0
1031.0
1037.0
1041.0
1049.0
1059.0
1069.0
1084.0
1100.0
1123.0
1144.0
1167.0
1184.0
1198.0
1210.0
1220.0
1228.0
1245.0
1263.0
1281.0
1302.0
1317.0
1327.0
1334.0
1333.0
1324.0
1301.0
1263.0
1201.0
1123.0
1032.0
932.0
843.0
771.0
715.0
688.0
684.0
693.0
711.0
736.0
764.0
784.0
804.0
822.0
840.0
863.0
884.0
907.0
924.0
933.0
938.0
940.0
940.0
939.0
938.0
940.0
942.0
942.0
943.0
943.0
941.0
942.0
940.0
938.0
938.0
941.0
941.0
946.0
944.0
944.0
943.0
940.0
941.0
941.0
939.0
939.0
939.0
938.0
938.0
940.0
941.0
941.0
940.0
940.0
938.0
937.0
937.0
938.0
938.0
941.0
942.0
943.0
943.0
949.0
950.0
949.0
952.0
954.0
958.0
959.0
963.0
967.0
970.0
975.0
977.0
979.0
983.0
984.0
984.0
986.0
987.0
989.0
990.0
990.0
992.0
995.0
993.0
994.0
992.0
989.0
986.0
984.0
978.0
975.0
976.0
975.0
974.0
969.0
967.0
963.0
961.0
957.0
954.0
954.0
951.0
952.0
950.0
951.0
951.0
951.0
953.0
949.0
948.0
948.0
948.0
946.0
945.0
942.0
944.0
944.0
945.0
946.0
948.0
948.0
949.0
945.0
944.0
941.0
940.0
941.0
944.0
944.0
947.0
949.0
950.0
948.0
948.0
947.0
945.0
942.0
941.0
944.0
944.0
946.0
945.0
949.0
947.0
947.0
946.0
945.0
943.0
942.0
942.0
940.0
938.0
939.0
941.0
943.0
944.0
943.0
942.0
941.0
939.0
941.0
937.0
939.0
939.0
941.0
941.0
942.0
942.0
940.0
942.0
940.0
938.0
937.0
940.0
943.0
946.0
950.0
953.0
958.0
960.0
962.0
964.0
968.0
968.0
969.0
971.0
977.0
985.0
989.0
995.0
1001.0
1002.0
997.0
993.0
987.0
983.0
983.0
980.0
984.0
985.0
985.0
984.0
979.0
970.0
964.0
957.0
949.0
944.0
941.0
937.0
935.0
934.0
931.0
929.0
931.0
926.0
925.0
925.0
922.0
924.0
922.0
921.0
923.0
924.0
925.0
927.0
928.0
926.0
930.0
932.0
938.0
952.0
975.0
1006.0
1046.0
1087.0
1127.0
1163.0
1197.0
1231.0
1257.0
1281.0
1292.0
1293.0
1282.0
1257.0
1224.0
1176.0
1118.0
1062.0
1013.0
977.0
952.0
936.0
928.0
922.0
918.0
914.0
908.0
900.0
898.0
894.0
892.0
892.0
891.0
890.0
888.0
885.0
886.0
882.0
881.0
883.0
883.0
884.0
883.0
884.0
883.0
884.0
880.0
877.0
877.0
875.0
876.0
879.0
879.0
881.0
879.0
881.0
880.0
880.0
876.0
875.0
875.0
873.0
873.0
873.0
872.0
873.0
874.0
872.0
870.0
866.0
864.0
862.0
858.0
856.0
855.0
851.0
850.0
849.0
850.0
844.0
843.0
839.0
836.0
834.0
830.0
827.0
823.0
824.0
824.0
824.0
822.0
822.0
823.0
824.0
825.0
827.0
827.0
827.0
833.0
837.0
841.0
849.0
854.0
859.0
863.0
868.0
872.0
877.0
881.0
883.0
887.0
892.0
899.0
903.0
909.0
911.0
912.0
912.0
913.0
913.0
914.0
915.0
915.0
917.0
918.0
919.0
922.0
922.0
921.0
922.0
922.0
919.0
918.0
918.0
918.0
920.0
918.0
920.0
923.0
924.0
924.0
920.0
921.0
919.0
918.0
918.0
918.0
919.0
920.0
922.0
923.0
924.0
924.0
920.0
920.0
917.0
916.0
920.0
922.0
924.0
927.0
931.0
936.0
941.0
944.0
948.0
948.0
952.0
952.0
957.0
961.0
969.0
978.0
987.0
992.0
990.0
988.0
983.0
979.0
975.0
975.0
976.0
977.0
977.0
974.0
969.0
965.0
957.0
949.0
942.0
936.0
931.0
930.0
924.0
924.0
919.0
917.0
918.0
919.0
919.0
918.0
922.0
919.0
919.0
917.0
917.0
919.0
923.0
921.0
923.0
927.0
928.0
932.0
941.0
959.0
987.0
1024.0
1063.0
1104.0
1146.0
1182.0
1213.0
1245.0
1269.0
1287.0
1291.0
1285.0
1269.0
1243.0
1204.0
1155.0
1098.0
1043.0
1000.0
969.0
948.0
935.0
929.0
924.0
919.0
916.0
910.0
904.0
899.0
898.0
899.0
898.0
900.0
898.0
899.0
894.0
895.0
894.0
893.0
893.0
893.0
894.0
895.0
898.0
898.0
894.0
892.0
891.0
890.0
889.0
888.0
890.0
894.0
894.0
897.0
895.0
895.0
895.0
891.0
891.0
887.0
886.0
885.0
887.0
885.0
884.0
887.0
885.0
881.0
880.0
877.0
874.0
871.0
870.0
869.0
867.0
866.0
865.0
863.0
865.0
860.0
862.0
863.0
860.0
857.0
857.0
855.0
856.0
858.0
861.0
864.0
868.0
870.0
874.0
876.0
880.0
881.0
885.0
888.0
895.0
899.0
903.0
909.0
914.0
916.0
920.0
921.0
923.0
926.0
927.0
928.0
931.0
931.0
935.0
937.0
940.0
938.0
940.0
939.0
941.0
942.0
941.0
945.0
949.0
952.0
956.0
965.0
970.0
978.0
986.0
995.0
1003.0
1015.0
1028.0
1044.0
1062.0
1080.0
1104.0
1124.0
1135.0
1130.0
1108.0
1060.0
987.0
899.0
807.0
728.0
668.0
623.0
596.0
578.0
560.0
548.0
537.0
530.0
530.0
533.0
540.0
557.0
576.0
598.0
621.0
645.0
666.0
688.0
704.0
714.0
726.0
743.0
766.0
792.0
820.0
839.0
852.0
860.0
866.0
876.0
894.0
920.0
951.0
988.0
1019.0
1040.0
1054.0
1058.0
1054.0
1051.0
1047.0
1045.0
1047.0
1051.0
1055.0
1057.0
1061.0
1064.0
1065.0
1068.0
1073.0
1079.0
1082.0
1086.0
1087.0
1091.0
1092.0
1095.0
1098.0
1100.0
1105.0
1111.0
1115.0
1122.0
1124.0
1130.0
1135.0
1135.0
1138.0
1141.0
1146.0
1153.0
1157.0
1162.0
1166.0
1171.0
1175.0
1178.0
1179.0
1179.0
1180.0
1178.0
1176.0
1176.0
1173.0
1175.0
1173.0
1170.0
1166.0
1161.0
1154.0
1145.0
1136.0
1127.0
1119.0
1113.0
1107.0
1099.0
1093.0
1085.0
1076.0
1070.0
1061.0
1052.0
1044.0
1037.0
1030.0
1025.0
1020.0
1014.0
1012.0
1012.0
1008.0
1002.0
999.0
995.0
992.0
988.0
986.0
987.0
986.0
984.0
986.0
988.0
985.0
986.0
983.0
981.0
981.0
979.0
976.0
978.0
980.0
981.0
982.0
984.0
985.0
985.0
986.0
982.0
982.0
981.0
979.0
980.0
980.0
979.0
979.0
982.0
982.0
983.0
982.0
980.0
977.0
977.0
975.0
974.0
976.0
976.0
977.0
980.0
979.0
978.0
976.0
976.0
973.0
972.0
972.0
970.0
970.0
973.0
972.0
975.0
974.0
977.0
977.0
976.0
976.0
973.0
972.0
971.0
975.0
975.0
977.0
978.0
978.0
976.0
975.0
975.0
973.0
973.0
975.0
976.0
975.0
974.0
976.0
978.0
980.0
978.0
980.0
979.0
977.0
975.0
978.0
978.0
976.0
977.0
979.0
984.0
984.0
984.0
984.0
982.0
980.0
982.0
982.0
986.0
989.0
993.0
1000.0
1003.0
1008.0
1010.0
1015.0
1016.0
1015.0
1014.0
1018.0
1023.0
1031.0
1038.0
1049.0
1056.0
1057.0
1054.0
1046.0
1040.0
1039.0
1037.0
1036.0
1040.0
1042.0
1041.0
1037.0
1035.0
1027.0
1019.0
1015.0
1010.0
1001.0
997.0
993.0
990.0
986.0
985.0
986.0
986.0
983.0
984.0
984.0
983.0
983.0
984.0
982.0
982.0
983.0
984.0
986.0
987.0
990.0
994.0
1002.0
1014.0
1035.0
1065.0
1100.0
1141.0
1182.0
1220.0
1252.0
1287.0
1313.0
1338.0
1352.0
1351.0
1340.0
1320.0
1289.0
1243.0
1190.0
1133.0
1085.0
1048.0
1021.0
1007.0
996.0
989.0
986.0
978.0
970.0
964.0
959.0
957.0
955.0
955.0
956.0
955.0
956.0
953.0
951.0
950.0
946.0
948.0
950.0
948.0
950.0
949.0
951.0
949.0
950.0
950.0
946.0
946.0
943.0
944.0
943.0
945.0
946.0
946.0
945.0
943.0
944.0
943.0
938.0
938.0
936.0
937.0
934.0
935.0
935.0
935.0
932.0
929.0
925.0
922.0
919.0
915.0
912.0
910.0
906.0
904.0
903.0
902.0
898.0
896.0
892.0
888.0
883.0
881.0
877.0
875.0
876.0
875.0
876.0
876.0
879.0
878.0
879.0
879.0
879.0
883.0
884.0
888.0
893.0
899.0
904.0
911.0
915.0
921.0
927.0
931.0
936.0
941.0
946.0
950.0
956.0
964.0
969.0
973.0
976.0
979.0
985.0
984.0
985.0
986.0
985.0
987.0
989.0
989.0
993.0
993.0
995.0
994.0
994.0
993.0
994.0
992.0
994.0
993.0
995.0
996.0
997.0
1000.0
1000.0
998.0
998.0
997.0
997.0
995.0
993.0
994.0
995.0
995.0
997.0
1001.0
1000.0
1000.0
1001.0
1002.0
1002.0
1003.0
1004.0
1008.0
1012.0
1018.0
1024.0
1031.0
1036.0
1038.0
1043.0
1049.0
1053.0
1060.0
1069.0
1081.0
1094.0
1112.0
1135.0
1158.0
1182.0
1199.0
1217.0
1227.0
1236.0
1245.0
1259.0
1277.0
1294.0
1314.0
1329.0
1339.0
1343.0
1337.0
1319.0
1287.0
1239.0
1169.0
1084.0
988.0
895.0
815.0
752.0
713.0
696.0
696.0
710.0
728.0
753.0
776.0
794.0
809.0
826.0
845.0
870.0
891.0
914.0
935.0
954.0
960.0
968.0
965.0
963.0
963.0
965.0
967.0
967.0
969.0
971.0
973.0
975.0
972.0
972.0
970.0
972.0
970.0
973.0
975.0
973.0
975.0
976.0
978.0
976.0
975.0
974.0
974.0
972.0
973.0
973.0
976.0
977.0
978.0
978.0
978.0
977.0
975.0
976.0
975.0
976.0
978.0
979.0
979.0
985.0
988.0
990.0
991.0
995.0
997.0
996.0
999.0
999.0
1002.0
1007.0
1011.0
1014.0
1019.0
1023.0
1026.0
1029.0
1031.0
1028.0
1028.0
1029.0
1032.0
1033.0
1033.0
1038.0
1037.0
1038.0
1036.0
1033.0
1030.0
1027.0
1023.0
1020.0
1020.0
1017.0
1016.0
1014.0
1013.0
1012.0
1010.0
1008.0
1002.0
1001.0
1000.0
997.0
998.0
997.0
999.0
996.0
1000.0
998.0
998.0
997.0
995.0
992.0
993.0
992.0
990.0
992.0
992.0
996.0
997.0
998.0
997.0
996.0
997.0
996.0
996.0
995.0
995.0
998.0
1000.0
1001.0
1005.0
1003.0
1002.0
1000.0
1000.0
1000.0
1001.0
999.0
998.0
999.0
1002.0
1002.0
1003.0
1003.0
1003.0
1002.0
1000.0
1000.0
999.0
997.0
996.0
999.0
1001.0
1001.0
1002.0
1003.0
1000.0
1002.0
1000.0
999.0
1000.0
1001.0
1001.0
1001.0
1002.0
1002.0
1003.0
1005.0
1001.0
1002.0
1001.0
1003.0
999.0
1001.0
1002.0
1006.0
1008.0
1011.0
1014.0
1018.0
1021.0
1023.0
1025.0
1026.0
1026.0
1031.0
1033.0
1032.0
1037.0
1042.0
1051.0
1056.0
1062.0
1070.0
1071.0
1068.0
1066.0
1061.0
1057.0
1055.0
1056.0
1057.0
1060.0
1062.0
1058.0
1056.0
1050.0
1042.0
1036.0
1029.0
1023.0
1016.0
1013.0
1012.0
1011.0
1005.0
1005.0
1003.0
998.0
995.0
993.0
994.0
993.0
995.0
1000.0
999.0
1000.0
1002.0
1003.0
1004.0
1004.0
1002.0
1006.0
1011.0
1020.0
1041.0
1072.0
1110.0
1149.0
1191.0
1226.0
1259.0
1290.0
1317.0
1338.0
1349.0
1351.0
1339.0
1318.0
1288.0
1243.0
1191.0
1135.0
1091.0
1052.0
1032.0
1014.0
1007.0
1003.0
998.0
993.0
986.0
980.0
975.0
973.0
970.0
968.0
967.0
965.0
965.0
965.0
965.0
965.0
967.0
966.0
967.0
966.0
966.0
964.0
963.0
960.0
961.0
960.0
963.0
961.0
963.0
962.0
961.0
961.0
962.0
958.0
957.0
956.0
954.0
953.0
952.0
951.0
950.0
951.0
953.0
952.0
948.0
944.0
942.0
937.0
931.0
930.0
929.0
926.0
925.0
924.0
922.0
920.0
917.0
914.0
912.0
909.0
906.0
903.0
903.0
900.0
899.0
902.0
907.0
908.0
908.0
910.0
911.0
912.0
914.0
918.0
922.0
926.0
930.0
938.0
945.0
947.0
954.0
957.0
961.0
963.0
967.0
973.0
978.0
984.0
989.0
994.0
998.0
999.0
1004.0
1002.0
1002.0
1001.0
999.0
1001.0
1002.0
1005.0
1004.0
1006.0
1006.0
1008.0
1008.0
1007.0
1007.0
1006.0
1004.0
1005.0
1006.0
1007.0
1006.0
1008.0
1006.0
1007.0
1005.0
1004.0
1005.0
1005.0
1004.0
1004.0
1005.0
1005.0
1005.0
1004.0
1008.0
1007.0
1008.0
1007.0
1006.0
1005.0
1004.0
1006.0
1009.0
1012.0
1014.0
1015.0
1021.0
1023.0
1028.0
1032.0
1034.0
1038.0
1039.0
1042.0
1046.0
1048.0
1055.0
1061.0
1071.0
1072.0
1075.0
1073.0
1069.0
1063.0
1061.0
1057.0
1055.0
1062.0
1062.0
1063.0
1060.0
1055.0
1049.0
1041.0
1034.0
1027.0
1025.0
1019.0
1020.0
1017.0
1015.0
1012.0
1010.0
1008.0
1006.0
1004.0
1003.0
1003.0
1002.0
1004.0
1004.0
1007.0
1009.0
1011.0
1011.0
1009.0
1009.0
1005.0
1007.0
1010.0
1016.0
1029.0
1055.0
1083.0
1122.0
1163.0
1204.0
1240.0
1275.0
1306.0
1327.0
1344.0
1351.0
1346.0
1332.0
1307.0
1269.0
1227.0
1172.0
1121.0
1080.0
1047.0
1029.0
1018.0
1008.0
1007.0
1005.0
999.0
994.0
987.0
983.0
978.0
979.0
978.0
978.0
976.0
973.0
973.0
972.0
972.0
972.0
973.0
973.0
974.0
972.0
971.0
971.0
972.0
968.0
968.0
967.0
970.0
972.0
971.0
972.0
970.0
968.0
966.0
964.0
963.0
962.0
959.0
956.0
956.0
960.0
959.0
959.0
955.0
955.0
951.0
949.0
944.0
942.0
940.0
937.0
935.0
933.0
932.0
930.0
929.0
925.0
924.0
920.0
919.0
916.0
916.0
912.0
916.0
919.0
919.0
921.0
924.0
926.0
926.0
929.0
931.0
934.0
936.0
944.0
949.0
954.0
960.0
964.0
967.0
970.0
972.0
972.0
975.0
975.0
977.0
981.0
983.0
984.0
986.0
986.0
988.0
986.0
987.0
986.0
983.0
984.0
985.0
983.0
992.0
994.0
999.0
1007.0
1011.0
1020.0
1030.0
1040.0
1052.0
1063.0
1080.0
1096.0
1120.0
1142.0
1160.0
1164.0
1148.0
1102.0
1024.0
926.0
821.0
729.0
657.0
606.0
576.0
555.0
544.0
535.0
533.0
535.0
538.0
546.0
558.0
574.0
598.0
621.0
646.0
670.0
690.0
704.0
715.0
728.0
744.0
768.0
792.0
816.0
833.0
846.0
854.0
860.0
869.0
881.0
901.0
930.0
963.0
993.0
1021.0
1037.0
1045.0
1049.0
1047.0
1043.0
1043.0
1046.0
1048.0
1053.0
1053.0
1056.0
1058.0
1058.0
1061.0
1066.0
1067.0
1071.0
1075.0
1081.0
1083.0
1085.0
1086.0
1087.0
1090.0
1093.0
1096.0
1101.0
1106.0
1110.0
1118.0
1125.0
1124.0
1128.0
1134.0
1137.0
1138.0
1139.0
1144.0
1146.0
1147.0
1151.0
1154.0
1154.0
1155.0
1153.0
1149.0
1144.0
1139.0
1135.0
1131.0
1128.0
1125.0
1117.0
1111.0
1105.0
1096.0
1084.0
1072.0
1064.0
1055.0
1048.0
1038.0
1032.0
1027.0
1020.0
1014.0
1007.0
1000.0
992.0
986.0
980.0
972.0
963.0
957.0
952.0
950.0
948.0
946.0
945.0
942.0
938.0
934.0
930.0
926.0
922.0
921.0
921.0
923.0
921.0
920.0
922.0
919.0
919.0
916.0
914.0
911.0
910.0
910.0
907.0
909.0
912.0
911.0
912.0
911.0
912.0
910.0
911.0
910.0
908.0
908.0
904.0
904.0
899.0
899.0
900.0
899.0
902.0
900.0
898.0
897.0
891.0
889.0
889.0
890.0
890.0
890.0
893.0
892.0
889.0
886.0
887.0
885.0
886.0
885.0
885.0
887.0
885.0
887.0
886.0
883.0
883.0
880.0
879.0
877.0
874.0
876.0
877.0
880.0
883.0
886.0
887.0
882.0
879.0
876.0
873.0
871.0
871.0
871.0
870.0
871.0
870.0
870.0
868.0
867.0
864.0
864.0
865.0
863.0
864.0
867.0
865.0
866.0
867.0
866.0
865.0
865.0
868.0
868.0
867.0
866.0
862.0
859.0
858.0
859.0
864.0
868.0
877.0
881.0
881.0
879.0
878.0
878.0
879.0
883.0
891.0
895.0
902.0
908.0
909.0
913.0
911.0
907.0
907.0
907.0
906.0
908.0
906.0
903.0
893.0
889.0
880.0
872.0
864.0
856.0
853.0
851.0
846.0
844.0
843.0
843.0
843.0
843.0
844.0
842.0
840.0
837.0
835.0
832.0
836.0
836.0
836.0
838.0
838.0
842.0
850.0
856.0
880.0
911.0
952.0
999.0
1043.0
1088.0
1128.0
1165.0
1198.0
1225.0
1240.0
1242.0
1229.0
1194.0
1143.0
1076.0
1001.0
931.0
880.0
850.0
840.0
842.0
846.0
847.0
846.0
838.0
829.0
818.0
811.0
809.0
808.0
808.0
808.0
811.0
813.0
810.0
810.0
806.0
800.0
799.0
797.0
799.0
800.0
802.0
803.0
802.0
804.0
804.0
803.0
801.0
799.0
797.0
795.0
795.0
799.0
798.0
803.0
803.0
800.0
799.0
798.0
796.0
792.0
792.0
785.0
788.0
786.0
786.0
785.0
785.0
785.0
783.0
779.0
775.0
773.0
770.0
763.0
764.0
760.0
759.0
760.0
759.0
756.0
754.0
748.0
748.0
746.0
742.0
740.0
739.0
737.0
737.0
738.0
739.0
739.0
739.0
740.0
741.0
745.0
747.0
750.0
755.0
756.0
762.0
768.0
774.0
780.0
786.0
793.0
798.0
804.0
808.0
812.0
818.0
822.0
828.0
834.0
836.0
844.0
843.0
848.0
853.0
851.0
850.0
848.0
850.0
852.0
851.0
853.0
853.0
855.0
852.0
852.0
852.0
855.0
853.0
853.0
853.0
853.0
855.0
856.0
858.0
861.0
863.0
864.0
864.0
860.0
858.0
855.0
856.0
857.0
858.0
859.0
861.0
859.0
863.0
865.0
863.0
864.0
863.0
864.0
865.0
866.0
868.0
872.0
874.0
875.0
878.0
881.0
885.0
887.0
889.0
891.0
895.0
894.0
897.0
902.0
907.0
915.0
922.0
927.0
930.0
929.0
928.0
923.0
920.0
919.0
921.0
922.0
924.0
926.0
925.0
923.0
915.0
908.0
903.0
896.0
893.0
891.0
887.0
885.0
884.0
880.0
878.0
875.0
874.0
871.0
870.0
870.0
871.0
871.0
872.0
873.0
874.0
876.0
877.0
880.0
880.0
880.0
878.0
883.0
895.0
912.0
942.0
981.0
1026.0
1077.0
1120.0
1163.0
1201.0
1234.0
1260.0
1277.0
1280.0
1266.0
1238.0
1194.0
1131.0
1059.0
986.0
936.0
900.0
882.0
875.0
879.0
880.0
879.0
876.0
870.0
867.0
861.0
860.0
861.0
860.0
858.0
857.0
854.0
855.0
854.0
856.0
857.0
860.0
861.0
859.0
857.0
857.0
856.0
855.0
853.0
855.0
856.0
853.0
854.0
855.0
855.0
857.0
854.0
851.0
854.0
852.0
851.0
849.0
851.0
853.0
853.0
853.0
849.0
849.0
844.0
843.0
841.0
838.0
833.0
835.0
832.0
832.0
830.0
831.0
829.0
831.0
828.0
826.0
822.0
819.0
819.0
821.0
823.0
824.0
824.0
826.0
828.0
830.0
833.0
835.0
836.0
841.0
843.0
850.0
855.0
862.0
867.0
874.0
880.0
884.0
886.0
888.0
891.0
891.0
894.0
896.0
898.0
900.0
903.0
904.0
907.0
906.0
905.0
907.0
904.0
903.0
904.0
904.0
908.0
909.0
907.0
911.0
908.0
909.0
912.0
910.0
909.0
908.0
909.0
908.0
909.0
908.0
909.0
913.0
914.0
915.0
917.0
915.0
915.0
914.0
913.0
913.0
915.0
913.0
915.0
917.0
918.0
922.0
921.0
920.0
921.0
922.0
922.0
924.0
925.0
931.0
936.0
941.0
946.0
948.0
950.0
951.0
953.0
956.0
962.0
967.0
976.0
981.0
984.0
986.0
984.0
981.0
979.0
977.0
974.0
976.0
978.0
980.0
980.0
978.0
974.0
967.0
961.0
954.0
948.0
945.0
942.0
939.0
938.0
936.0
937.0
935.0
934.0
934.0
933.0
933.0
935.0
933.0
933.0
931.0
931.0
933.0
935.0
935.0
937.0
937.0
940.0
942.0
946.0
954.0
966.0
990.0
1020.0
1062.0
1104.0
1150.0
1188.0
1228.0
1264.0
1295.0
1321.0
1336.0
1339.0
1327.0
1304.0
1269.0
1219.0
1156.0
1089.0
1035.0
991.0
964.0
954.0
950.0
948.0
947.0
946.0
939.0
932.0
920.0
919.0
921.0
921.0
920.0
920.0
921.0
918.0
915.0
913.0
913.0
913.0
917.0
919.0
922.0
921.0
917.0
919.0
918.0
917.0
917.0
916.0
917.0
919.0
920.0
918.0
917.0
918.0
917.0
914.0
915.0
913.0
911.0
911.0
911.0
911.0
912.0
911.0
912.0
910.0
910.0
909.0
906.0
904.0
899.0
896.0
895.0
893.0
891.0
890.0
890.0
891.0
888.0
886.0
884.0
881.0
878.0
875.0
873.0
872.0
872.0
875.0
877.0
878.0
880.0
883.0
886.0
888.0
888.0
892.0
897.0
903.0
909.0
915.0
920.0
925.0
930.0
934.0
939.0
942.0
944.0
946.0
951.0
955.0
960.0
962.0
967.0
971.0
968.0
970.0
971.0
968.0
966.0
969.0
971.0
974.0
978.0
983.0
988.0
997.0
1004.0
1012.0
1020.0
1029.0
1039.0
1052.0
1067.0
1084.0
1105.0
1128.0
1147.0
1163.0
1165.0
1149.0
1113.0
1053.0
978.0
898.0
827.0
764.0
719.0
689.0
665.0
647.0
630.0
614.0
599.0
589.0
586.0
589.0
599.0
617.0
632.0
650.0
671.0
694.0
713.0
732.0
744.0
756.0
770.0
785.0
807.0
836.0
863.0
885.0
903.0
913.0
919.0
924.0
935.0
952.0
974.0
1006.0
1041.0
1066.0
1083.0
1089.0
1088.0
1084.0
1078.0
1073.0
1074.0
1075.0
1076.0
1080.0
1082.0
1086.0
1089.0
1092.0
1096.0
1098.0
1101.0
1103.0
1107.0
1105.0
1108.0
1109.0
1113.0
1115.0
1123.0
1127.0
1133.0
1136.0
1140.0
1144.0
1145.0
1151.0
1153.0
1157.0
1161.0
1165.0
1170.0
1176.0
1185.0
1188.0
1192.0
1195.0
1195.0
1196.0
1196.0
1197.0
1197.0
1199.0
1199.0
1198.0
1192.0
1190.0
1188.0
1183.0
1177.0
1170.0
1166.0
1159.0
1151.0
1147.0
1141.0
1133.0
1124.0
1119.0
1110.0
1104.0
1096.0
1086.0
1080.0
1070.0
1067.0
1060.0
1056.0
1053.0
1049.0
1045.0
1039.0
1037.0
1036.0
1031.0
1028.0
1025.0
1022.0
1020.0
1019.0
1019.0
1016.0
1017.0
1018.0
1017.0
1017.0
1015.0
1015.0
1012.0
1013.0
1014.0
1015.0
1017.0
1017.0
1019.0
1016.0
1017.0
1015.0
1015.0
1016.0
1013.0
1015.0
1013.0
1016.0
1014.0
1017.0
1018.0
1017.0
1018.0
1017.0
1013.0
1012.0
1010.0
1009.0
1011.0
1007.0
1010.0
1012.0
1014.0
1013.0
1016.0
1012.0
1010.0
1007.0
1007.0
1009.0
1009.0
1010.0
1010.0
1012.0
1012.0
1012.0
1011.0
1008.0
1004.0
1005.0
1004.0
1003.0
1006.0
1009.0
1009.0
1010.0
1012.0
1010.0
1009.0
1008.0
1006.0
1008.0
1007.0
1008.0
1004.0
1007.0
1008.0
1010.0
1014.0
1013.0
1013.0
1011.0
1011.0
1008.0
1010.0
1008.0
1010.0
1012.0
1011.0
1012.0
1014.0
1012.0
1014.0
1013.0
1012.0
1013.0
1012.0
1010.0
1013.0
1015.0
1014.0
1017.0
1019.0
1022.0
1022.0
1024.0
1025.0
1029.0
1032.0
1037.0
1042.0
1043.0
1046.0
1050.0
1053.0
1057.0
1063.0
1068.0
1074.0
1077.0
1078.0
1076.0
1072.0
1068.0
1067.0
1068.0
1071.0
1068.0
1071.0
1070.0
1064.0
1058.0
1049.0
1044.0
1039.0
1035.0
1034.0
1033.0
1028.0
1027.0
1023.0
1020.0
1018.0
1016.0
1014.0
1014.0
1016.0
1018.0
1019.0
1024.0
1024.0
1023.0
1024.0
1022.0
1022.0
1023.0
1024.0
1036.0
1053.0
1083.0
1121.0
1163.0
1207.0
1246.0
1282.0
1318.0
1352.0
1381.0
1399.0
1405.0
1398.0
1376.0
1341.0
1290.0
1226.0
1162.0
1109.0
1069.0
1041.0
1029.0
1024.0
1024.0
1021.0
1018.0
1013.0
1005.0
1000.0
997.0
995.0
995.0
993.0
991.0
992.0
989.0
992.0
992.0
992.0
993.0
992.0
991.0
990.0
986.0
989.0
988.0
988.0
986.0
987.0
986.0
987.0
988.0
990.0
986.0
987.0
986.0
986.0
984.0
984.0
981.0
981.0
980.0
981.0
979.0
978.0
978.0
976.0
973.0
970.0
969.0
965.0
964.0
960.0
959.0
958.0
956.0
954.0
953.0
950.0
945.0
938.0
936.0
930.0
928.0
926.0
925.0
922.0
924.0
924.0
923.0
924.0
924.0
925.0
924.0
925.0
926.0
930.0
932.0
938.0
944.0
952.0
957.0
962.0
967.0
973.0
980.0
984.0
992.0
999.0
1006.0
1011.0
1018.0
1023.0
1027.0
1027.0
1033.0
1037.0
1037.0
1037.0
1037.0
1039.0
1041.0
1040.0
1045.0
1047.0
1047.0
1049.0
1048.0
1047.0
1044.0
1043.0
1045.0
1047.0
1049.0
1049.0
1049.0
1052.0
1053.0
1053.0
1050.0
1049.0
1048.0
1050.0
1048.0
1047.0
1047.0
1052.0
1052.0
1051.0
1052.0
1052.0
1053.0
1051.0
1052.0
1051.0
1055.0
1057.0
1062.0
1066.0
1070.0
1077.0
1077.0
1080.0
1084.0
1084.0
1085.0
1088.0
1092.0
1098.0
1105.0
1113.0
1121.0
1125.0
1122.0
1116.0
1112.0
1109.0
1106.0
1107.0
1108.0
1111.0
1112.0
1108.0
1106.0
1102.0
1096.0
1090.0
1085.0
1079.0
1074.0
1072.0
1068.0
1062.0
1062.0
1062.0
1060.0
1060.0
1059.0
1060.0
1059.0
1058.0
1057.0
1058.0
1061.0
1061.0
1063.0
1064.0
1064.0
1068.0
1071.0
1075.0
1079.0
1089.0
1106.0
1131.0
1168.0
1208.0
1248.0
1285.0
1318.0
1346.0
1377.0
1404.0
1420.0
1430.0
1428.0
1416.0
1396.0
1361.0
1314.0
1255.0
1196.0
1146.0
1105.0
1077.0
1061.0
1054.0
1051.0
1049.0
1050.0
1047.0
1045.0
1043.0
1043.0
1043.0
1039.0
1041.0
1041.0
1040.0
1039.0
1035.0
1034.0
1036.0
1036.0
1034.0
1038.0
1039.0
1039.0
1039.0
1038.0
1035.0
1035.0
1034.0
1034.0
1034.0
1032.0
1036.0
1038.0
1037.0
1038.0
1035.0
1034.0
1031.0
1029.0
1028.0
1025.0
1027.0
1027.0
1027.0
1026.0
1027.0
1024.0
1023.0
1021.0
1017.0
1013.0
1010.0
1006.0
1005.0
1004.0
1004.0
1004.0
1004.0
1002.0
1001.0
996.0
994.0
992.0
990.0
990.0
992.0
993.0
996.0
