# Simple Text Format
# Sampling Rate (Hz):= 360.00
# Resolution:= 12
# Labels:= ECG
874.0
880.0
875.0
873.0
880.0
889.0
904.0
909.0
906.0
904.0
900.0
899.0
905.0
909.0
923.0
932.0
927.0
917.0
906.0
898.0
891.0
892.0
898.0
908.0
918.0
923.0
919.0
915.0
912.0
913.0
916.0
914.0
914.0
917.0
919.0
926.0
934.0
934.0
933.0
934.0
940.0
939.0
936.0
925.0
918.0
916.0
919.0
923.0
925.0
928.0
927.0
930.0
934.0
938.0
942.0
945.0
938.0
936.0
940.0
942.0
949.0
949.0
946.0
947.0
942.0
948.0
959.0
965.0
960.0
957.0
955.0
957.0
963.0
965.0
960.0
954.0
948.0
945.0
948.0
945.0
943.0
947.0
950.0
944.0
943.0
944.0
946.0
949.0
953.0
955.0
956.0
955.0
949.0
950.0
947.0
948.0
949.0
949.0
949.0
949.0
950.0
955.0
955.0
958.0
957.0
954.0
955.0
955.0
955.0
956.0
946.0
943.0
941.0
945.0
953.0
951.0
948.0
941.0
944.0
947.0
950.0
947.0
947.0
948.0
948.0
953.0
959.0
958.0
955.0
950.0
949.0
948.0
955.0
955.0
954.0
952.0
952.0
955.0
956.0
957.0
955.0
953.0
953.0
953.0
958.0
958.0
956.0
954.0
953.0
958.0
960.0
958.0
952.0
953.0
949.0
955.0
956.0
957.0
957.0
952.0
955.0
960.0
959.0
955.0
952.0
955.0
959.0
958.0
958.0
957.0
955.0
956.0
957.0
959.0
959.0
957.0
955.0
948.0
948.0
950.0
957.0
957.0
954.0
952.0
954.0
955.0
959.0
955.0
952.0
950.0
954.0
957.0
963.0
968.0
965.0
965.0
965.0
969.0
973.0
978.0
980.0
989.0
999.0
1010.0
1015.0
1012.0
1010.0
1010.0
1008.0
1010.0
1010.0
1007.0
997.0
993.0
984.0
981.0
981.0
978.0
968.0
962.0
955.0
957.0
958.0
954.0
951.0
947.0
950.0
952.0
957.0
956.0
948.0
947.0
945.0
944.0
948.0
952.0
962.0
988.0
1040.0
1118.0
1198.0
1260.0
1295.0
1314.0
1318.0
1310.0
1278.0
1215.0
1115.0
1007.0
909.0
862.0
873.0
902.0
918.0
916.0
917.0
922.0
933.0
939.0
940.0
940.0
940.0
944.0
944.0
943.0
940.0
939.0
941.0
945.0
946.0
948.0
947.0
943.0
943.0
948.0
951.0
949.0
945.0
943.0
941.0
938.0
944.0
947.0
946.0
947.0
947.0
950.0
955.0
957.0
955.0
955.0
959.0
965.0
965.0
963.0
968.0
967.0
966.0
966.0
973.0
976.0
976.0
974.0
971.0
976.0
983.0
984.0
981.0
982.0
985.0
993.0
998.0
1000.0
999.0
1001.0
1003.0
1009.0
1013.0
1019.0
1021.0
1018.0
1023.0
1030.0
1036.0
1041.0
1043.0
1044.0
1048.0
1049.0
1052.0
1053.0
1050.0
1048.0
1049.0
1053.0
1053.0
1051.0
1051.0
1063.0
1073.0
1074.0
1066.0
1060.0
1054.0
1050.0
1047.0
1047.0
1048.0
1046.0
1037.0
1023.0
1013.0
1012.0
1020.0
1026.0
1022.0
1014.0
1006.0
1001.0
995.0
1005.0
1010.0
1010.0
1008.0
1006.0
1003.0
1002.0
999.0
995.0
992.0
990.0
988.0
986.0
986.0
986.0
987.0
997.0
999.0
999.0
996.0
996.0
997.0
1002.0
1005.0
1007.0
1005.0
1001.0
1000.0
1003.0
1014.0
1023.0
1026.0
1028.0
1030.0
1034.0
1038.0
1045.0
1057.0
1073.0
1090.0
1114.0
1131.0
1147.0
1159.0
1174.0
1191.0
1209.0
1232.0
1253.0
1277.0
1304.0
1342.0
1387.0
1427.0
1447.0
1446.0
1427.0
1393.0
1328.0
1239.0
1134.0
1056.0
1018.0
1023.0
1039.0
1048.0
1043.0
1036.0
1035.0
1033.0
1030.0
1026.0
1022.0
1015.0
1006.0
994.0
987.0
985.0
978.0
964.0
952.0
943.0
945.0
941.0
934.0
924.0
916.0
918.0
925.0
924.0
920.0
914.0
909.0
909.0
908.0
907.0
893.0
891.0
897.0
909.0
919.0
918.0
905.0
899.0
898.0
895.0
893.0
891.0
887.0
882.0
880.0
876.0
874.0
879.0
876.0
867.0
863.0
861.0
860.0
862.0
858.0
853.0
851.0
852.0
852.0
858.0
853.0
852.0
847.0
846.0
852.0
860.0
860.0
861.0
866.0
872.0
876.0
888.0
898.0
907.0
908.0
905.0
905.0
916.0
919.0
919.0
915.0
920.0
927.0
928.0
932.0
933.0
933.0
935.0
940.0
945.0
947.0
946.0
943.0
943.0
946.0
953.0
954.0
951.0
949.0
951.0
959.0
962.0
961.0
958.0
959.0
962.0
965.0
969.0
972.0
970.0
971.0
975.0
979.0
979.0
978.0
978.0
974.0
978.0
988.0
994.0
993.0
991.0
989.0
990.0
995.0
1001.0
999.0
996.0
994.0
995.0
993.0
996.0
999.0
1001.0
1000.0
1000.0
1003.0
1007.0
1008.0
1007.0
1004.0
1004.0
1005.0
1012.0
1008.0
1005.0
1004.0
1003.0
1002.0
1008.0
1009.0
1006.0
999.0
996.0
997.0
999.0
995.0
993.0
991.0
991.0
989.0
993.0
990.0
989.0
985.0
986.0
988.0
988.0
989.0
989.0
986.0
985.0
984.0
988.0
985.0
983.0
981.0
979.0
983.0
987.0
988.0
984.0
977.0
979.0
981.0
984.0
980.0
977.0
976.0
977.0
980.0
984.0
981.0
980.0
980.0
979.0
981.0
980.0
981.0
977.0
974.0
976.0
978.0
980.0
979.0
981.0
978.0
975.0
976.0
979.0
980.0
979.0
975.0
972.0
976.0
980.0
979.0
969.0
967.0
968.0
972.0
974.0
973.0
973.0
974.0
974.0
973.0
975.0
973.0
973.0
973.0
970.0
973.0
974.0
973.0
974.0
974.0
973.0
975.0
974.0
975.0
976.0
970.0
971.0
976.0
977.0
977.0
975.0
974.0
970.0
970.0
976.0
975.0
973.0
971.0
972.0
976.0
978.0
980.0
985.0
985.0
988.0
990.0
996.0
1001.0
1003.0
996.0
1001.0
1016.0
1025.0
1031.0
1033.0
1031.0
1032.0
1033.0
1034.0
1033.0
1033.0
1030.0
1023.0
1019.0
1017.0
1012.0
1007.0
997.0
992.0
988.0
988.0
988.0
985.0
981.0
981.0
983.0
986.0
988.0
984.0
982.0
981.0
981.0
975.0
969.0
967.0
975.0
1002.0
1052.0
1126.0
1211.0
1279.0
1314.0
1329.0
1336.0
1327.0
1284.0
1208.0
1104.0
991.0
905.0
883.0
908.0
935.0
942.0
943.0
947.0
957.0
963.0
967.0
965.0
970.0
969.0
974.0
971.0
972.0
969.0
970.0
970.0
971.0
974.0
971.0
968.0
969.0
969.0
972.0
974.0
971.0
970.0
967.0
966.0
969.0
973.0
971.0
971.0
968.0
973.0
974.0
974.0
971.0
968.0
971.0
973.0
978.0
978.0
979.0
980.0
978.0
982.0
989.0
991.0
992.0
987.0
991.0
993.0
1001.0
1004.0
1002.0
1004.0
1008.0
1013.0
1023.0
1027.0
1027.0
1023.0
1028.0
1036.0
1041.0
1046.0
1051.0
1055.0
1056.0
1057.0
1059.0
1061.0
1064.0
1068.0
1068.0
1076.0
1081.0
1083.0
1089.0
1091.0
1091.0
1097.0
1099.0
1097.0
1093.0
1088.0
1089.0
1092.0
1095.0
1092.0
1086.0
1079.0
1077.0
1077.0
1074.0
1067.0
1062.0
1058.0
1050.0
1046.0
1044.0
1040.0
1035.0
1028.0
1025.0
1023.0
1026.0
1025.0
1022.0
1014.0
1005.0
1005.0
1006.0
1004.0
997.0
998.0
998.0
996.0
998.0
996.0
992.0
987.0
987.0
992.0
997.0
993.0
989.0
982.0
982.0
985.0
990.0
988.0
987.0
986.0
989.0
995.0
999.0
1000.0
1000.0
1002.0
1008.0
1016.0
1027.0
1037.0
1053.0
1078.0
1103.0
1131.0
1154.0
1177.0
1203.0
1232.0
1263.0
1298.0
1330.0
1359.0
1382.0
1402.0
1407.0
1400.0
1383.0
1356.0
1316.0
1254.0
1162.0
1054.0
962.0
915.0
908.0
932.0
961.0
975.0
978.0
979.0
978.0
980.0
982.0
991.0
1000.0
1006.0
1004.0
1003.0
1000.0
999.0
1003.0
1003.0
999.0
995.0
992.0
992.0
990.0
981.0
969.0
959.0
957.0
949.0
943.0
933.0
926.0
921.0
920.0
919.0
919.0
915.0
904.0
893.0
891.0
898.0
909.0
914.0
910.0
902.0
896.0
895.0
894.0
891.0
887.0
877.0
868.0
871.0
876.0
875.0
875.0
872.0
865.0
864.0
864.0
864.0
865.0
873.0
882.0
888.0
893.0
890.0
887.0
894.0
913.0
924.0
923.0
925.0
930.0
936.0
942.0
946.0
951.0
953.0
956.0
954.0
954.0
953.0
957.0
961.0
957.0
951.0
950.0
954.0
957.0
959.0
957.0
951.0
955.0
954.0
959.0
958.0
967.0
969.0
970.0
970.0
967.0
964.0
960.0
961.0
958.0
961.0
962.0
967.0
971.0
967.0
970.0
966.0
974.0
975.0
980.0
980.0
981.0
982.0
981.0
978.0
980.0
981.0
986.0
988.0
990.0
992.0
992.0
992.0
991.0
995.0
998.0
999.0
998.0
994.0
993.0
994.0
997.0
996.0
996.0
992.0
989.0
990.0
994.0
995.0
993.0
994.0
995.0
997.0
995.0
996.0
990.0
988.0
987.0
987.0
990.0
988.0
985.0
983.0
983.0
989.0
990.0
988.0
985.0
982.0
977.0
979.0
979.0
978.0
977.0
974.0
974.0
976.0
976.0
973.0
973.0
970.0
971.0
971.0
968.0
972.0
970.0
966.0
966.0
971.0
967.0
969.0
970.0
967.0
966.0
967.0
971.0
972.0
970.0
966.0
965.0
969.0
971.0
974.0
967.0
964.0
963.0
967.0
969.0
969.0
965.0
961.0
960.0
962.0
967.0
967.0
966.0
964.0
960.0
961.0
964.0
967.0
966.0
961.0
960.0
961.0
963.0
964.0
962.0
960.0
961.0
965.0
966.0
965.0
964.0
962.0
962.0
966.0
966.0
961.0
962.0
960.0
962.0
965.0
965.0
963.0
962.0
958.0
961.0
963.0
964.0
963.0
962.0
957.0
959.0
960.0
964.0
959.0
964.0
961.0
960.0
961.0
959.0
958.0
951.0
954.0
957.0
959.0
960.0
961.0
963.0
960.0
958.0
960.0
963.0
965.0
966.0
962.0
966.0
970.0
974.0
977.0
979.0
979.0
983.0
993.0
1009.0
1016.0
1017.0
1015.0
1010.0
1010.0
1011.0
1011.0
1009.0
1010.0
1005.0
995.0
989.0
982.0
972.0
967.0
965.0
960.0
960.0
956.0
952.0
947.0
945.0
949.0
953.0
950.0
946.0
944.0
945.0
943.0
943.0
939.0
933.0
935.0
950.0
987.0
1051.0
1132.0
1210.0
1265.0
1296.0
1313.0
1318.0
1297.0
1247.0
1171.0
1061.0
954.0
881.0
859.0
881.0
910.0
920.0
918.0
923.0
925.0
924.0
924.0
927.0
934.0
934.0
932.0
931.0
928.0
928.0
934.0
938.0
942.0
936.0
930.0
930.0
936.0
944.0
938.0
928.0
927.0
934.0
942.0
942.0
941.0
936.0
936.0
935.0
936.0
940.0
945.0
947.0
941.0
940.0
943.0
946.0
948.0
946.0
946.0
948.0
954.0
958.0
959.0
959.0
959.0
963.0
967.0
971.0
971.0
973.0
969.0
974.0
974.0
984.0
986.0
987.0
988.0
991.0
998.0
1004.0
1007.0
1009.0
1007.0
1013.0
1020.0
1028.0
1033.0
1034.0
1036.0
1040.0
1043.0
1051.0
1051.0
1054.0
1055.0
1055.0
1059.0
1064.0
1067.0
1066.0
1061.0
1062.0
1063.0
1065.0
1060.0
1056.0
1052.0
1048.0
1046.0
1042.0
1038.0
1035.0
1026.0
1022.0
1018.0
1015.0
1014.0
1008.0
1001.0
1001.0
998.0
997.0
993.0
984.0
976.0
976.0
975.0
977.0
973.0
967.0
963.0
966.0
967.0
971.0
969.0
965.0
958.0
959.0
961.0
964.0
961.0
960.0
957.0
957.0
958.0
963.0
964.0
965.0
969.0
968.0
975.0
981.0
984.0
984.0
986.0
988.0
996.0
1008.0
1020.0
1034.0
1053.0
1074.0
1099.0
1120.0
1140.0
1163.0
1185.0
1210.0
1243.0
1279.0
1314.0
1348.0
1379.0
1402.0
1419.0
1416.0
1395.0
1358.0
1286.0
1190.0
1084.0
995.0
940.0
923.0
938.0
953.0
963.0
963.0
957.0
954.0
952.0
952.0
954.0
957.0
959.0
958.0
963.0
970.0
976.0
979.0
973.0
965.0
960.0
961.0
963.0
963.0
960.0
957.0
950.0
943.0
937.0
934.0
927.0
920.0
910.0
904.0
900.0
899.0
894.0
886.0
879.0
874.0
874.0
879.0
877.0
870.0
862.0
859.0
858.0
854.0
852.0
847.0
841.0
838.0
838.0
838.0
834.0
830.0
824.0
818.0
819.0
823.0
823.0
823.0
817.0
820.0
824.0
829.0
831.0
831.0
832.0
838.0
846.0
856.0
862.0
861.0
864.0
870.0
879.0
887.0
893.0
896.0
899.0
903.0
910.0
916.0
919.0
922.0
918.0
923.0
927.0
930.0
932.0
933.0
935.0
935.0
939.0
941.0
940.0
945.0
944.0
946.0
946.0
950.0
953.0
953.0
948.0
948.0
950.0
956.0
959.0
959.0
962.0
963.0
965.0
967.0
970.0
968.0
968.0
967.0
974.0
978.0
978.0
974.0
974.0
976.0
977.0
987.0
990.0
985.0
979.0
981.0
981.0
987.0
990.0
991.0
988.0
989.0
988.0
994.0
995.0
990.0
987.0
988.0
992.0
997.0
997.0
994.0
990.0
990.0
994.0
996.0
993.0
989.0
984.0
987.0
994.0
992.0
986.0
985.0
988.0
989.0
989.0
991.0
989.0
985.0
984.0
982.0
986.0
985.0
983.0
978.0
975.0
972.0
977.0
982.0
983.0
981.0
978.0
975.0
978.0
979.0
975.0
976.0
973.0
973.0
975.0
978.0
978.0
976.0
975.0
973.0
973.0
977.0
976.0
974.0
969.0
969.0
970.0
973.0
969.0
967.0
964.0
969.0
973.0
980.0
980.0
974.0
970.0
968.0
970.0
975.0
973.0
972.0
966.0
964.0
965.0
969.0
967.0
966.0
964.0
963.0
965.0
967.0
968.0
963.0
961.0
961.0
961.0
964.0
965.0
964.0
959.0
960.0
962.0
965.0
962.0
960.0
959.0
959.0
960.0
963.0
964.0
961.0
961.0
960.0
963.0
966.0
965.0
965.0
963.0
965.0
966.0
964.0
965.0
965.0
961.0
965.0
964.0
966.0
969.0
967.0
968.0
965.0
968.0
971.0
970.0
967.0
965.0
964.0
969.0
974.0
975.0
972.0
970.0
969.0
974.0
977.0
976.0
974.0
970.0
967.0
968.0
971.0
977.0
973.0
970.0
970.0
972.0
975.0
975.0
974.0
972.0
973.0
970.0
976.0
979.0
977.0
977.0
980.0
981.0
985.0
986.0
988.0
988.0
990.0
996.0
1001.0
1006.0
1011.0
1022.0
1034.0
1042.0
1044.0
1043.0
1039.0
1033.0
1031.0
1031.0
1034.0
1034.0
1027.0
1018.0
1011.0
1004.0
1003.0
998.0
992.0
983.0
979.0
978.0
979.0
977.0
973.0
969.0
971.0
971.0
974.0
971.0
967.0
963.0
964.0
962.0
959.0
949.0
934.0
926.0
934.0
963.0
1019.0
1100.0
1192.0
1271.0
1333.0
1376.0
1405.0
1409.0
1399.0
1371.0
1313.0
1221.0
1106.0
980.0
904.0
902.0
933.0
953.0
952.0
946.0
947.0
949.0
952.0
953.0
955.0
954.0
951.0
948.0
948.0
948.0
953.0
953.0
951.0
947.0
945.0
948.0
952.0
952.0
947.0
945.0
945.0
951.0
952.0
953.0
954.0
949.0
949.0
953.0
955.0
956.0
954.0
953.0
953.0
953.0
958.0
957.0
959.0
953.0
958.0
961.0
964.0
966.0
964.0
963.0
966.0
969.0
973.0
973.0
971.0
971.0
974.0
977.0
982.0
985.0
986.0
985.0
987.0
992.0
995.0
1000.0
1001.0
1000.0
1002.0
1006.0
1010.0
1015.0
1014.0
1016.0
1016.0
1023.0
1031.0
1034.0
1036.0
1036.0
1039.0
1045.0
1046.0
1050.0
1047.0
1045.0
1048.0
1050.0
1054.0
1054.0
1053.0
1052.0
1051.0
1053.0
1054.0
1049.0
1044.0
1040.0
1034.0
1032.0
1035.0
1031.0
1025.0
1024.0
1021.0
1019.0
1019.0
1015.0
1010.0
1009.0
1004.0
1004.0
1004.0
999.0
998.0
994.0
990.0
990.0
990.0
989.0
986.0
981.0
981.0
983.0
985.0
982.0
978.0
975.0
976.0
977.0
976.0
980.0
977.0
977.0
977.0
983.0
985.0
985.0
986.0
985.0
984.0
991.0
995.0
998.0
997.0
998.0
999.0
1003.0
1008.0
1011.0
1017.0
1023.0
1035.0
1054.0
1071.0
1088.0
1101.0
1116.0
1138.0
1164.0
1188.0
1216.0
1242.0
1265.0
1291.0
1314.0
1328.0
1321.0
1298.0
1268.0
1238.0
1220.0
1198.0
1166.0
1121.0
1061.0
983.0
917.0
872.0
852.0
852.0
865.0
889.0
917.0
935.0
942.0
938.0
940.0
940.0
942.0
940.0
938.0
936.0
934.0
937.0
936.0
936.0
931.0
931.0
923.0
923.0
926.0
927.0
927.0
925.0
925.0
928.0
934.0
938.0
939.0
939.0
940.0
947.0
950.0
955.0
952.0
951.0
947.0
946.0
949.0
953.0
952.0
950.0
945.0
943.0
942.0
944.0
940.0
939.0
938.0
937.0
940.0
941.0
938.0
938.0
935.0
937.0
942.0
947.0
947.0
948.0
949.0
952.0
959.0
964.0
969.0
973.0
974.0
979.0
986.0
994.0
996.0
997.0
999.0
1002.0
1008.0
1013.0
1017.0
1017.0
1017.0
1018.0
1022.0
1024.0
1024.0
1023.0
1020.0
1020.0
1020.0
1018.0
1016.0
1012.0
1008.0
1005.0
1004.0
1007.0
1002.0
1001.0
995.0
992.0
991.0
993.0
990.0
985.0
979.0
982.0
983.0
984.0
984.0
982.0
979.0
976.0
980.0
985.0
982.0
983.0
979.0
979.0
980.0
984.0
985.0
984.0
981.0
984.0
989.0
993.0
990.0
988.0
988.0
987.0
988.0
994.0
994.0
994.0
992.0
989.0
995.0
995.0
995.0
998.0
993.0
995.0
995.0
997.0
997.0
995.0
990.0
994.0
996.0
997.0
999.0
994.0
993.0
992.0
993.0
992.0
990.0
988.0
988.0
987.0
983.0
987.0
986.0
982.0
980.0
979.0
978.0
980.0
981.0
973.0
972.0
975.0
975.0
973.0
969.0
969.0
966.0
967.0
972.0
974.0
970.0
966.0
962.0
959.0
964.0
966.0
962.0
961.0
957.0
958.0
954.0
962.0
960.0
958.0
952.0
955.0
954.0
957.0
960.0
955.0
952.0
952.0
955.0
955.0
957.0
953.0
950.0
948.0
949.0
953.0
952.0
952.0
953.0
949.0
953.0
955.0
952.0
949.0
949.0
950.0
951.0
952.0
954.0
952.0
947.0
944.0
946.0
949.0
949.0
951.0
947.0
947.0
950.0
952.0
952.0
947.0
945.0
948.0
947.0
949.0
947.0
946.0
944.0
943.0
944.0
947.0
943.0
943.0
942.0
943.0
943.0
948.0
949.0
949.0
945.0
945.0
946.0
947.0
944.0
942.0
939.0
942.0
942.0
948.0
946.0
945.0
946.0
944.0
947.0
949.0
950.0
946.0
944.0
943.0
942.0
944.0
945.0
943.0
941.0
943.0
942.0
947.0
948.0
947.0
944.0
941.0
945.0
947.0
947.0
945.0
941.0
943.0
945.0
947.0
947.0
944.0
940.0
940.0
944.0
947.0
946.0
945.0
941.0
942.0
947.0
948.0
950.0
949.0
948.0
947.0
949.0
948.0
946.0
943.0
942.0
941.0
948.0
954.0
957.0
958.0
961.0
963.0
967.0
972.0
974.0
978.0
980.0
990.0
1002.0
1013.0
1012.0
1012.0
1006.0
1007.0
1009.0
1010.0
1013.0
1007.0
994.0
987.0
983.0
979.0
973.0
968.0
960.0
957.0
953.0
953.0
949.0
948.0
944.0
946.0
947.0
947.0
948.0
945.0
938.0
938.0
931.0
924.0
917.0
915.0
929.0
965.0
1029.0
1111.0
1199.0
1268.0
1315.0
1348.0
1369.0
1372.0
1347.0
1298.0
1211.0
1096.0
973.0
888.0
869.0
895.0
913.0
921.0
919.0
924.0
926.0
927.0
927.0
928.0
927.0
929.0
929.0
928.0
924.0
923.0
924.0
930.0
929.0
926.0
923.0
920.0
923.0
928.0
925.0
927.0
924.0
920.0
925.0
928.0
924.0
925.0
922.0
925.0
927.0
930.0
933.0
932.0
930.0
928.0
931.0
935.0
937.0
936.0
932.0
934.0
937.0
942.0
943.0
944.0
941.0
944.0
944.0
950.0
951.0
956.0
954.0
956.0
956.0
963.0
968.0
967.0
969.0
967.0
974.0
981.0
982.0
984.0
985.0
986.0
989.0
993.0
1000.0
1003.0
1004.0
1006.0
1010.0
1013.0
1017.0
1014.0
1014.0
1019.0
1024.0
1025.0
1026.0
1024.0
1022.0
1024.0
1025.0
1027.0
1026.0
1023.0
1021.0
1021.0
1020.0
1023.0
1020.0
1018.0
1012.0
1009.0
1010.0
1010.0
1011.0
1008.0
1003.0
999.0
1003.0
1004.0
1004.0
1003.0
998.0
998.0
1002.0
995.0
987.0
972.0
962.0
957.0
957.0
954.0
950.0
945.0
941.0
941.0
945.0
951.0
954.0
954.0
953.0
951.0
957.0
961.0
962.0
960.0
959.0
960.0
964.0
969.0
972.0
970.0
967.0
966.0
969.0
973.0
973.0
970.0
970.0
973.0
980.0
985.0
995.0
998.0
1001.0
1011.0
1032.0
1065.0
1090.0
1096.0
1081.0
1062.0
1052.0
1062.0
1082.0
1103.0
1122.0
1145.0
1168.0
1186.0
1183.0
1158.0
1123.0
1084.0
1046.0
1001.0
937.0
856.0
774.0
700.0
662.0
667.0
696.0
738.0
784.0
823.0
856.0
874.0
891.0
903.0
910.0
921.0
932.0
939.0
940.0
939.0
937.0
936.0
938.0
938.0
937.0
935.0
935.0
937.0
939.0
943.0
942.0
948.0
951.0
949.0
952.0
955.0
964.0
970.0
974.0
974.0
975.0
975.0
975.0
976.0
975.0
974.0
971.0
973.0
971.0
971.0
967.0
962.0
962.0
967.0
971.0
976.0
974.0
976.0
981.0
988.0
986.0
988.0
989.0
995.0
1000.0
1011.0
1019.0
1026.0
1032.0
1037.0
1045.0
1057.0
1061.0
1070.0
1072.0
1080.0
1088.0
1101.0
1107.0
1110.0
1108.0
1112.0
1117.0
1125.0
1122.0
1118.0
1113.0
1114.0
1116.0
1115.0
1107.0
1097.0
1091.0
1090.0
1087.0
1081.0
1075.0
1066.0
1056.0
1050.0
1045.0
1036.0
1026.0
1018.0
1012.0
1010.0
1010.0
1009.0
1007.0
999.0
994.0
989.0
988.0
990.0
993.0
991.0
986.0
982.0
980.0
983.0
987.0
986.0
982.0
984.0
988.0
991.0
989.0
983.0
980.0
980.0
983.0
985.0
983.0
984.0
982.0
983.0
983.0
982.0
984.0
982.0
979.0
976.0
982.0
986.0
991.0
993.0
986.0
979.0
976.0
974.0
975.0
977.0
972.0
972.0
970.0
972.0
970.0
968.0
967.0
967.0
968.0
968.0
966.0
962.0
958.0
956.0
959.0
954.0
948.0
948.0
945.0
946.0
947.0
945.0
943.0
943.0
945.0
943.0
950.0
952.0
952.0
951.0
946.0
947.0
948.0
949.0
945.0
941.0
940.0
939.0
937.0
936.0
935.0
929.0
925.0
924.0
930.0
934.0
936.0
932.0
924.0
925.0
928.0
935.0
933.0
930.0
930.0
932.0
936.0
938.0
936.0
933.0
930.0
930.0
935.0
939.0
937.0
935.0
933.0
937.0
939.0
937.0
934.0
936.0
932.0
925.0
916.0
910.0
906.0
909.0
910.0
916.0
921.0
924.0
926.0
923.0
918.0
917.0
920.0
926.0
928.0
929.0
927.0
923.0
926.0
926.0
926.0
924.0
921.0
921.0
923.0
928.0
924.0
925.0
921.0
923.0
925.0
932.0
935.0
934.0
932.0
926.0
921.0
919.0
918.0
920.0
919.0
916.0
918.0
925.0
924.0
924.0
920.0
923.0
925.0
927.0
930.0
927.0
924.0
925.0
926.0
931.0
931.0
931.0
928.0
928.0
932.0
936.0
934.0
932.0
931.0
934.0
942.0
948.0
953.0
954.0
955.0
960.0
967.0
978.0
987.0
993.0
993.0
994.0
992.0
995.0
992.0
990.0
986.0
985.0
979.0
968.0
959.0
952.0
941.0
937.0
934.0
931.0
929.0
927.0
922.0
922.0
924.0
926.0
930.0
928.0
926.0
928.0
926.0
919.0
906.0
894.0
893.0
918.0
975.0
1062.0
1161.0
1250.0
1305.0
1341.0
1359.0
1351.0
1313.0
1231.0
1116.0
988.0
890.0
864.0
885.0
907.0
905.0
898.0
898.0
905.0
912.0
910.0
908.0
906.0
909.0
911.0
912.0
910.0
907.0
909.0
915.0
914.0
917.0
915.0
910.0
908.0
911.0
914.0
914.0
911.0
909.0
908.0
913.0
912.0
911.0
910.0
910.0
915.0
919.0
920.0
922.0
920.0
923.0
923.0
926.0
930.0
933.0
927.0
921.0
919.0
920.0
925.0
932.0
934.0
931.0
931.0
934.0
936.0
938.0
937.0
940.0
941.0
947.0
951.0
958.0
960.0
960.0
961.0
966.0
970.0
972.0
974.0
978.0
978.0
983.0
987.0
990.0
991.0
995.0
996.0
999.0
1002.0
1003.0
1004.0
1002.0
1002.0
1005.0
1005.0
1004.0
1004.0
1001.0
1000.0
1003.0
1002.0
1000.0
998.0
995.0
994.0
993.0
992.0
989.0
984.0
981.0
978.0
975.0
977.0
978.0
977.0
968.0
968.0
968.0
970.0
970.0
963.0
960.0
959.0
960.0
960.0
960.0
957.0
955.0
955.0
958.0
962.0
963.0
961.0
959.0
961.0
963.0
967.0
969.0
968.0
966.0
966.0
969.0
975.0
978.0
977.0
976.0
973.0
975.0
977.0
981.0
982.0
984.0
983.0
982.0
985.0
988.0
987.0
990.0
993.0
999.0
1006.0
1013.0
1024.0
1036.0
1049.0
1060.0
1074.0
1083.0
1095.0
1107.0
1111.0
1105.0
1073.0
1022.0
956.0
890.0
833.0
792.0
757.0
703.0
655.0
625.0
621.0
653.0
683.0
713.0
729.0
735.0
737.0
741.0
751.0
766.0
773.0
776.0
785.0
801.0
820.0
833.0
850.0
868.0
887.0
904.0
916.0
924.0
931.0
939.0
946.0
951.0
959.0
966.0
969.0
971.0
967.0
971.0
969.0
968.0
965.0
960.0
960.0
960.0
962.0
967.0
972.0
970.0
971.0
974.0
982.0
985.0
984.0
986.0
988.0
997.0
1007.0
1018.0
1022.0
1022.0
1023.0
1029.0
1037.0
1038.0
1045.0
1050.0
1063.0
1075.0
1084.0
1095.0
1101.0
1107.0
1113.0
1122.0
1133.0
1139.0
1146.0
1147.0
1152.0
1157.0
1166.0
1171.0
1169.0
1167.0
1165.0
1169.0
1170.0
1165.0
1164.0
1157.0
1157.0
1155.0
1148.0
1137.0
1129.0
1117.0
1107.0
1101.0
1095.0
1092.0
1090.0
1081.0
1071.0
1058.0
1047.0
1040.0
1031.0
1026.0
1018.0
1014.0
1015.0
1011.0
1005.0
999.0
1001.0
999.0
1002.0
1000.0
997.0
991.0
992.0
992.0
994.0
992.0
987.0
982.0
980.0
981.0
986.0
982.0
979.0
977.0
980.0
978.0
981.0
985.0
981.0
978.0
977.0
976.0
977.0
975.0
974.0
969.0
967.0
969.0
969.0
970.0
966.0
960.0
961.0
959.0
962.0
962.0
957.0
952.0
949.0
951.0
952.0
952.0
949.0
944.0
941.0
943.0
945.0
945.0
942.0
935.0
932.0
938.0
940.0
939.0
936.0
934.0
927.0
929.0
929.0
925.0
927.0
926.0
925.0
925.0
929.0
928.0
926.0
923.0
923.0
924.0
924.0
918.0
917.0
917.0
916.0
920.0
923.0
922.0
923.0
919.0
921.0
923.0
921.0
919.0
912.0
909.0
908.0
915.0
922.0
918.0
916.0
915.0
913.0
914.0
918.0
920.0
920.0
916.0
914.0
917.0
920.0
921.0
919.0
915.0
916.0
916.0
917.0
917.0
914.0
914.0
912.0
914.0
916.0
921.0
920.0
918.0
917.0
921.0
924.0
923.0
917.0
914.0
908.0
909.0
912.0
915.0
917.0
917.0
916.0
920.0
921.0
922.0
924.0
922.0
923.0
922.0
922.0
918.0
912.0
914.0
916.0
917.0
919.0
921.0
923.0
923.0
923.0
921.0
923.0
924.0
920.0
924.0
929.0
933.0
935.0
934.0
935.0
932.0
928.0
926.0
923.0
919.0
918.0
923.0
930.0
934.0
938.0
940.0
942.0
945.0
947.0
952.0
957.0
969.0
979.0
988.0
995.0
994.0
994.0
993.0
995.0
999.0
1001.0
999.0
1000.0
989.0
979.0
969.0
960.0
953.0
948.0
948.0
944.0
939.0
936.0
938.0
938.0
940.0
938.0
936.0
936.0
939.0
938.0
935.0
926.0
911.0
910.0
930.0
966.0
1027.0
1112.0
1201.0
1282.0
1334.0
1361.0
1366.0
1347.0
1291.0
1196.0
1077.0
955.0
870.0
854.0
881.0
907.0
914.0
914.0
917.0
921.0
922.0
926.0
926.0
926.0
927.0
924.0
918.0
923.0
923.0
930.0
930.0
931.0
927.0
924.0
922.0
923.0
923.0
929.0
924.0
920.0
925.0
927.0
929.0
927.0
927.0
927.0
934.0
937.0
935.0
934.0
933.0
934.0
938.0
941.0
944.0
942.0
941.0
945.0
950.0
954.0
949.0
941.0
936.0
940.0
952.0
962.0
963.0
957.0
956.0
956.0
960.0
967.0
971.0
973.0
974.0
974.0
978.0
985.0
990.0
992.0
994.0
995.0
998.0
1007.0
1011.0
1009.0
1002.0
1003.0
1011.0
1018.0
1019.0
1018.0
1015.0
1012.0
1011.0
1013.0
1018.0
1018.0
1013.0
1011.0
1012.0
1018.0
1018.0
1018.0
1014.0
1012.0
1012.0
1011.0
1003.0
996.0
987.0
984.0
984.0
983.0
983.0
981.0
977.0
975.0
976.0
981.0
984.0
983.0
980.0
972.0
967.0
964.0
968.0
972.0
974.0
969.0
968.0
971.0
972.0
972.0
971.0
970.0
976.0
979.0
978.0
978.0
973.0
974.0
979.0
984.0
989.0
983.0
981.0
985.0
987.0
991.0
992.0
990.0
988.0
989.0
995.0
997.0
1000.0
1000.0
998.0
1000.0
1002.0
1005.0
1004.0
1003.0
1003.0
1005.0
1009.0
1013.0
1012.0
1013.0
1018.0
1018.0
1015.0
1006.0
1010.0
1009.0
1008.0
1015.0
1014.0
1012.0
996.0
970.0
940.0
914.0
906.0
909.0
917.0
914.0
899.0
891.0
888.0
887.0
888.0
893.0
906.0
925.0
951.0
983.0
1014.0
1046.0
1072.0
1096.0
1102.0
1099.0
1082.0
1062.0
1038.0
1018.0
998.0
984.0
979.0
977.0
976.0
988.0
992.0
988.0
979.0
976.0
971.0
971.0
971.0
971.0
968.0
961.0
952.0
948.0
946.0
945.0
938.0
931.0
932.0
934.0
938.0
943.0
943.0
943.0
942.0
942.0
944.0
950.0
949.0
953.0
955.0
959.0
956.0
964.0
965.0
963.0
965.0
972.0
979.0
989.0
990.0
995.0
996.0
998.0
1001.0
