# Simple Text Format
# Sampling Rate (Hz):= 360.00
# Resolution:= 12
# Labels:= ECG
961.0
963.0
961.0
959.0
960.0
965.0
968.0
967.0
964.0
962.0
962.0
961.0
962.0
964.0
962.0
964.0
965.0
966.0
969.0
961.0
961.0
962.0
963.0
963.0
966.0
965.0
965.0
964.0
964.0
965.0
967.0
968.0
967.0
966.0
966.0
969.0
969.0
972.0
972.0
973.0
975.0
982.0
986.0
986.0
985.0
985.0
992.0
1002.0
1016.0
1025.0
1027.0
1025.0
1023.0
1023.0
1023.0
1019.0
1011.0
1005.0
1004.0
1005.0
1001.0
994.0
987.0
982.0
983.0
979.0
980.0
972.0
968.0
967.0
968.0
973.0
974.0
974.0
969.0
969.0
972.0
972.0
973.0
970.0
965.0
961.0
965.0
982.0
1012.0
1063.0
1138.0
1224.0
1300.0
1357.0
1389.0
1400.0
1388.0
1349.0
1283.0
1189.0
1084.0
977.0
912.0
906.0
928.0
945.0
946.0
948.0
947.0
949.0
950.0
953.0
955.0
953.0
952.0
950.0
949.0
952.0
954.0
953.0
952.0
949.0
949.0
950.0
952.0
953.0
949.0
947.0
947.0
947.0
952.0
953.0
951.0
949.0
951.0
957.0
959.0
959.0
956.0
952.0
955.0
958.0
963.0
963.0
964.0
964.0
967.0
969.0
970.0
966.0
965.0
963.0
959.0
968.0
973.0
975.0
976.0
975.0
978.0
981.0
989.0
991.0
990.0
988.0
992.0
1001.0
1008.0
1009.0
1007.0
1010.0
1015.0
1023.0
1029.0
1032.0
1031.0
1033.0
1038.0
1043.0
1052.0
1057.0
1061.0
1062.0
1069.0
1075.0
1080.0
1089.0
1094.0
1099.0
1106.0
1107.0
1110.0
1111.0
1112.0
1118.0
1120.0
1124.0
1127.0
1125.0
1127.0
1124.0
1125.0
1121.0
1120.0
1117.0
1113.0
1108.0
1107.0
1104.0
1104.0
1099.0
1092.0
1082.0
1072.0
1066.0
1061.0
1055.0
1051.0
1043.0
1036.0
1035.0
1034.0
1030.0
1024.0
1019.0
1015.0
1013.0
1013.0
1010.0
1004.0
1001.0
1000.0
1000.0
1001.0
996.0
991.0
987.0
990.0
991.0
991.0
991.0
990.0
986.0
989.0
990.0
993.0
996.0
994.0
997.0
1002.0
1003.0
1008.0
1008.0
1006.0
1008.0
1013.0
1019.0
1025.0
1025.0
1034.0
1040.0
1052.0
1066.0
1090.0
1112.0
1130.0
1148.0
1169.0
1189.0
1205.0
1220.0
1234.0
1255.0
1284.0
1323.0
1372.0
1419.0
1462.0
1486.0
1499.0
1501.0
1499.0
1483.0
1462.0
1424.0
1363.0
1272.0
1159.0
1050.0
968.0
921.0
904.0
903.0
905.0
904.0
907.0
912.0
919.0
920.0
919.0
913.0
905.0
902.0
901.0
902.0
899.0
893.0
891.0
888.0
888.0
886.0
881.0
875.0
870.0
867.0
869.0
870.0
869.0
864.0
863.0
858.0
860.0
860.0
864.0
867.0
865.0
869.0
872.0
874.0
878.0
873.0
870.0
866.0
869.0
865.0
864.0
862.0
864.0
865.0
864.0
862.0
861.0
859.0
854.0
850.0
847.0
848.0
846.0
846.0
842.0
840.0
839.0
840.0
839.0
839.0
834.0
832.0
835.0
839.0
841.0
839.0
841.0
842.0
849.0
852.0
859.0
863.0
867.0
871.0
878.0
888.0
892.0
896.0
897.0
902.0
911.0
916.0
922.0
924.0
923.0
923.0
930.0
933.0
940.0
944.0
946.0
943.0
945.0
946.0
952.0
952.0
947.0
949.0
953.0
957.0
959.0
961.0
957.0
958.0
961.0
966.0
964.0
965.0
964.0
966.0
967.0
970.0
973.0
973.0
970.0
967.0
970.0
967.0
973.0
972.0
970.0
970.0
974.0
979.0
978.0
972.0
971.0
971.0
972.0
976.0
978.0
979.0
979.0
979.0
980.0
982.0
987.0
984.0
984.0
983.0
984.0
988.0
989.0
988.0
989.0
987.0
991.0
993.0
994.0
993.0
990.0
992.0
989.0
993.0
994.0
993.0
990.0
987.0
986.0
988.0
986.0
985.0
985.0
982.0
981.0
989.0
988.0
988.0
981.0
976.0
973.0
977.0
979.0
977.0
977.0
973.0
977.0
977.0
977.0
974.0
972.0
969.0
970.0
974.0
977.0
970.0
968.0
965.0
964.0
964.0
970.0
970.0
965.0
961.0
968.0
970.0
973.0
967.0
963.0
958.0
962.0
962.0
964.0
966.0
962.0
959.0
960.0
965.0
967.0
965.0
965.0
963.0
961.0
966.0
968.0
965.0
961.0
957.0
956.0
959.0
962.0
963.0
962.0
961.0
961.0
961.0
962.0
960.0
960.0
959.0
963.0
962.0
966.0
964.0
960.0
959.0
957.0
962.0
964.0
964.0
964.0
960.0
960.0
960.0
967.0
965.0
957.0
956.0
959.0
962.0
960.0
962.0
959.0
960.0
959.0
961.0
965.0
963.0
962.0
961.0
961.0
962.0
966.0
966.0
963.0
962.0
963.0
965.0
965.0
967.0
966.0
967.0
971.0
971.0
971.0
968.0
963.0
962.0
963.0
971.0
972.0
969.0
962.0
958.0
960.0
964.0
968.0
967.0
967.0
961.0
966.0
968.0
968.0
968.0
967.0
967.0
967.0
966.0
968.0
967.0
967.0
967.0
968.0
969.0
970.0
967.0
967.0
962.0
963.0
964.0
969.0
970.0
968.0
965.0
964.0
968.0
967.0
970.0
968.0
966.0
964.0
965.0
968.0
966.0
965.0
961.0
969.0
971.0
974.0
971.0
969.0
966.0
965.0
970.0
976.0
973.0
970.0
967.0
968.0
972.0
975.0
973.0
972.0
969.0
972.0
976.0
978.0
974.0
971.0
971.0
974.0
977.0
978.0
975.0
973.0
970.0
972.0
976.0
978.0
976.0
972.0
970.0
971.0
976.0
977.0
977.0
976.0
973.0
972.0
976.0
980.0
978.0
973.0
971.0
973.0
978.0
982.0
978.0
973.0
972.0
972.0
977.0
982.0
979.0
977.0
978.0
982.0
989.0
996.0
996.0
996.0
997.0
1002.0
1004.0
1008.0
1017.0
1026.0
1034.0
1039.0
1039.0
1043.0
1042.0
1041.0
1041.0
1037.0
1034.0
1027.0
1020.0
1014.0
1010.0
1005.0
999.0
994.0
986.0
984.0
980.0
976.0
973.0
974.0
977.0
977.0
974.0
977.0
977.0
975.0
968.0
961.0
955.0
964.0
988.0
1041.0
1121.0
1218.0
1305.0
1375.0
1424.0
1452.0
1455.0
1431.0
1374.0
1285.0
1173.0
1046.0
933.0
891.0
917.0
952.0
968.0
966.0
964.0
960.0
958.0
959.0
959.0
961.0
957.0
952.0
951.0
952.0
955.0
955.0
953.0
950.0
949.0
955.0
958.0
956.0
955.0
950.0
952.0
955.0
957.0
959.0
959.0
957.0
958.0
959.0
961.0
964.0
962.0
955.0
955.0
957.0
962.0
967.0
969.0
967.0
965.0
969.0
968.0
968.0
964.0
967.0
970.0
972.0
976.0
979.0
978.0
977.0
980.0
980.0
989.0
992.0
995.0
998.0
997.0
1006.0
1013.0
1014.0
1010.0
1012.0
1017.0
1024.0
1030.0
1038.0
1043.0
1049.0
1053.0
1060.0
1068.0
1069.0
1073.0
1074.0
1079.0
1088.0
1095.0
1102.0
1109.0
1113.0
1115.0
1122.0
1130.0
1137.0
1136.0
1138.0
1136.0
1140.0
1144.0
1145.0
1147.0
1142.0
1138.0
1136.0
1138.0
1136.0
1129.0
1121.0
1117.0
1115.0
1112.0
1107.0
1100.0
1088.0
1082.0
1077.0
1076.0
1068.0
1058.0
1054.0
1047.0
1041.0
1040.0
1039.0
1034.0
1029.0
1023.0
1021.0
1021.0
1020.0
1013.0
1009.0
1005.0
1002.0
1004.0
1006.0
1002.0
998.0
996.0
996.0
997.0
1001.0
1000.0
997.0
993.0
993.0
997.0
998.0
1001.0
998.0
997.0
1000.0
1002.0
1003.0
1005.0
1003.0
1006.0
1009.0
1012.0
1017.0
1019.0
1022.0
1028.0
1047.0
1066.0
1088.0
1107.0
1126.0
1145.0
1166.0
1190.0
1213.0
1237.0
1264.0
1300.0
1352.0
1411.0
1462.0
1495.0
1511.0
1507.0
1501.0
1497.0
1478.0
1438.0
1368.0
1259.0
1138.0
1039.0
973.0
936.0
905.0
875.0
867.0
875.0
884.0
894.0
903.0
909.0
913.0
911.0
907.0
899.0
896.0
890.0
889.0
889.0
888.0
882.0
876.0
872.0
870.0
871.0
870.0
867.0
864.0
862.0
865.0
871.0
876.0
878.0
879.0
880.0
882.0
884.0
882.0
884.0
881.0
879.0
880.0
881.0
882.0
878.0
873.0
873.0
870.0
873.0
872.0
869.0
863.0
863.0
863.0
861.0
860.0
856.0
851.0
849.0
850.0
850.0
853.0
852.0
853.0
851.0
855.0
862.0
866.0
869.0
869.0
875.0
885.0
895.0
903.0
908.0
910.0
914.0
921.0
928.0
934.0
939.0
939.0
941.0
945.0
951.0
954.0
955.0
952.0
953.0
957.0
960.0
963.0
962.0
958.0
960.0
959.0
963.0
965.0
961.0
960.0
960.0
960.0
960.0
966.0
963.0
962.0
961.0
960.0
964.0
966.0
963.0
961.0
959.0
962.0
962.0
966.0
964.0
959.0
959.0
961.0
964.0
967.0
966.0
964.0
963.0
965.0
967.0
972.0
969.0
967.0
967.0
970.0
970.0
972.0
972.0
972.0
972.0
975.0
979.0
979.0
979.0
976.0
977.0
980.0
980.0
984.0
981.0
978.0
974.0
978.0
982.0
983.0
978.0
977.0
974.0
976.0
976.0
978.0
976.0
973.0
967.0
971.0
970.0
976.0
971.0
969.0
966.0
963.0
966.0
969.0
965.0
964.0
961.0
961.0
965.0
965.0
965.0
960.0
959.0
961.0
962.0
963.0
963.0
958.0
955.0
957.0
958.0
960.0
960.0
957.0
953.0
955.0
955.0
959.0
956.0
954.0
952.0
951.0
954.0
952.0
954.0
952.0
952.0
952.0
955.0
957.0
954.0
954.0
951.0
950.0
949.0
954.0
954.0
950.0
951.0
951.0
953.0
955.0
955.0
952.0
951.0
954.0
953.0
957.0
956.0
953.0
949.0
951.0
952.0
955.0
955.0
951.0
949.0
951.0
951.0
957.0
954.0
952.0
953.0
953.0
952.0
953.0
955.0
950.0
951.0
950.0
954.0
957.0
953.0
954.0
949.0
952.0
953.0
956.0
954.0
953.0
952.0
953.0
954.0
953.0
952.0
954.0
951.0
954.0
954.0
954.0
953.0
954.0
951.0
954.0
956.0
957.0
957.0
955.0
954.0
953.0
958.0
960.0
957.0
957.0
955.0
957.0
959.0
955.0
958.0
954.0
951.0
954.0
957.0
960.0
958.0
959.0
957.0
957.0
960.0
958.0
957.0
958.0
957.0
957.0
960.0
965.0
963.0
961.0
959.0
960.0
961.0
962.0
962.0
960.0
958.0
959.0
961.0
967.0
968.0
961.0
961.0
961.0
964.0
967.0
965.0
963.0
962.0
964.0
967.0
970.0
968.0
963.0
961.0
961.0
964.0
969.0
964.0
960.0
959.0
961.0
966.0
967.0
966.0
965.0
964.0
965.0
966.0
967.0
968.0
966.0
963.0
963.0
967.0
972.0
970.0
968.0
967.0
967.0
969.0
971.0
970.0
969.0
965.0
968.0
967.0
974.0
971.0
969.0
970.0
969.0
971.0
978.0
976.0
975.0
971.0
972.0
978.0
980.0
983.0
980.0
982.0
983.0
992.0
994.0
995.0
996.0
999.0
1006.0
1020.0
1031.0
1037.0
1035.0
1032.0
1034.0
1035.0
1040.0
1037.0
1030.0
1020.0
1015.0
1011.0
1009.0
999.0
995.0
985.0
979.0
979.0
978.0
977.0
976.0
973.0
975.0
977.0
979.0
978.0
971.0
967.0
965.0
960.0
962.0
978.0
1010.0
1076.0
1178.0
1281.0
1362.0
1407.0
1425.0
1416.0
1380.0
1306.0
1192.0
1064.0
936.0
880.0
907.0
945.0
958.0
952.0
949.0
950.0
956.0
957.0
959.0
957.0
950.0
949.0
950.0
952.0
953.0
953.0
950.0
947.0
950.0
956.0
955.0
956.0
954.0
950.0
952.0
952.0
955.0
955.0
954.0
954.0
955.0
957.0
958.0
956.0
954.0
954.0
956.0
958.0
960.0
962.0
958.0
957.0
960.0
963.0
967.0
966.0
965.0
966.0
971.0
974.0
977.0
978.0
978.0
979.0
980.0
986.0
991.0
992.0
995.0
997.0
999.0
1005.0
1010.0
1017.0
1016.0
1017.0
1024.0
1032.0
1038.0
1044.0
1047.0
1049.0
1056.0
1064.0
1073.0
1075.0
1078.0
1081.0
1087.0
1096.0
1102.0
1103.0
1107.0
1110.0
1116.0
1119.0
1123.0
1122.0
1122.0
1120.0
1118.0
1120.0
1123.0
1115.0
1114.0
1109.0
1106.0
1103.0
1101.0
1093.0
1088.0
1082.0
1077.0
1073.0
1070.0
1061.0
1052.0
1047.0
1043.0
1043.0
1036.0
1033.0
1023.0
1020.0
1020.0
1012.0
1011.0
1005.0
1001.0
996.0
995.0
996.0
996.0
992.0
987.0
982.0
980.0
983.0
983.0
980.0
978.0
978.0
977.0
982.0
982.0
982.0
981.0
980.0
984.0
988.0
990.0
988.0
986.0
989.0
993.0
998.0
1001.0
1003.0
1005.0
1008.0
1013.0
1017.0
1030.0
1039.0
1056.0
1077.0
1102.0
1126.0
1150.0
1169.0
1182.0
1199.0
1219.0
1239.0
1260.0
1288.0
1318.0
1358.0
1410.0
1454.0
1483.0
1496.0
1494.0
1487.0
1477.0
1464.0
1436.0
1391.0
1310.0
1202.0
1089.0
994.0
931.0
902.0
898.0
896.0
892.0
890.0
895.0
902.0
905.0
902.0
899.0
898.0
897.0
893.0
886.0
879.0
877.0
877.0
878.0
876.0
868.0
862.0
858.0
860.0
861.0
858.0
851.0
846.0
847.0
849.0
854.0
848.0
844.0
843.0
850.0
856.0
862.0
866.0
864.0
861.0
859.0
859.0
862.0
862.0
858.0
856.0
853.0
857.0
856.0
854.0
851.0
844.0
847.0
845.0
844.0
839.0
831.0
824.0
823.0
826.0
830.0
825.0
819.0
815.0
815.0
818.0
820.0
817.0
817.0
817.0
819.0
825.0
831.0
832.0
835.0
835.0
839.0
848.0
854.0
861.0
863.0
866.0
870.0
880.0
888.0
892.0
893.0
895.0
901.0
909.0
914.0
916.0
921.0
921.0
926.0
931.0
936.0
935.0
937.0
936.0
937.0
941.0
943.0
944.0
943.0
943.0
943.0
948.0
950.0
950.0
947.0
945.0
948.0
947.0
951.0
951.0
950.0
950.0
952.0
956.0
958.0
956.0
956.0
956.0
959.0
962.0
961.0
963.0
962.0
960.0
960.0
963.0
967.0
966.0
964.0
965.0
967.0
972.0
976.0
974.0
975.0
972.0
975.0
979.0
981.0
983.0
981.0
976.0
980.0
983.0
988.0
985.0
982.0
980.0
982.0
984.0
986.0
988.0
984.0
981.0
984.0
984.0
984.0
985.0
983.0
979.0
978.0
983.0
982.0
981.0
977.0
974.0
975.0
976.0
974.0
973.0
972.0
968.0
965.0
969.0
972.0
971.0
968.0
965.0
966.0
968.0
967.0
968.0
962.0
959.0
962.0
961.0
966.0
963.0
958.0
955.0
960.0
959.0
963.0
963.0
960.0
957.0
955.0
958.0
959.0
960.0
957.0
956.0
957.0
956.0
955.0
955.0
952.0
954.0
955.0
954.0
959.0
956.0
951.0
949.0
949.0
952.0
955.0
953.0
951.0
950.0
950.0
952.0
954.0
954.0
949.0
945.0
946.0
952.0
952.0
949.0
947.0
946.0
945.0
949.0
953.0
951.0
950.0
945.0
945.0
948.0
949.0
950.0
945.0
943.0
945.0
948.0
951.0
947.0
947.0
947.0
947.0
946.0
951.0
950.0
948.0
945.0
949.0
950.0
950.0
944.0
942.0
945.0
946.0
945.0
948.0
945.0
945.0
942.0
943.0
950.0
948.0
947.0
942.0
944.0
943.0
948.0
949.0
948.0
944.0
944.0
943.0
946.0
950.0
947.0
943.0
940.0
940.0
945.0
948.0
944.0
942.0
940.0
940.0
944.0
947.0
944.0
940.0
940.0
940.0
943.0
946.0
943.0
942.0
938.0
939.0
942.0
942.0
941.0
939.0
941.0
939.0
940.0
942.0
943.0
940.0
938.0
940.0
944.0
947.0
945.0
941.0
937.0
941.0
944.0
946.0
943.0
943.0
941.0
942.0
943.0
944.0
943.0
940.0
938.0
942.0
943.0
943.0
942.0
937.0
941.0
943.0
943.0
945.0
942.0
940.0
940.0
942.0
946.0
947.0
947.0
941.0
939.0
941.0
940.0
944.0
943.0
941.0
938.0
939.0
941.0
946.0
942.0
943.0
942.0
944.0
943.0
944.0
943.0
941.0
934.0
942.0
943.0
946.0
944.0
943.0
942.0
943.0
944.0
947.0
945.0
938.0
939.0
941.0
940.0
946.0
944.0
942.0
944.0
943.0
944.0
949.0
947.0
945.0
942.0
942.0
946.0
951.0
950.0
947.0
947.0
946.0
949.0
952.0
951.0
950.0
949.0
949.0
953.0
955.0
961.0
960.0
962.0
964.0
966.0
970.0
971.0
970.0
973.0
985.0
998.0
1010.0
1015.0
1013.0
1012.0
1011.0
1013.0
1012.0
1008.0
1000.0
991.0
985.0
982.0
980.0
973.0
965.0
962.0
958.0
956.0
951.0
951.0
947.0
944.0
943.0
946.0
952.0
951.0
950.0
948.0
948.0
945.0
943.0
937.0
933.0
944.0
969.0
1017.0
1088.0
1185.0
1276.0
1346.0
1392.0
1413.0
1418.0
1395.0
1344.0
1252.0
1138.0
1011.0
905.0
858.0
876.0
909.0
925.0
924.0
927.0
927.0
927.0
925.0
927.0
929.0
929.0
927.0
924.0
921.0
924.0
926.0
930.0
926.0
929.0
925.0
928.0
929.0
931.0
928.0
925.0
924.0
927.0
930.0
928.0
929.0
931.0
927.0
929.0
929.0
934.0
933.0
935.0
934.0
937.0
937.0
938.0
938.0
935.0
935.0
937.0
942.0
945.0
941.0
940.0
940.0
940.0
950.0
953.0
955.0
952.0
955.0
956.0
960.0
963.0
965.0
969.0
967.0
974.0
980.0
985.0
990.0
993.0
991.0
998.0
1005.0
1015.0
1017.0
1018.0
1020.0
1030.0
1038.0
1044.0
1047.0
1047.0
1051.0
1060.0
1066.0
1076.0
1077.0
1080.0
1082.0
1089.0
1097.0
1103.0
1102.0
1105.0
1103.0
1105.0
1112.0
1111.0
1111.0
1106.0
1101.0
1102.0
1102.0
1104.0
1098.0
1089.0
1085.0
1078.0
1077.0
1076.0
1068.0
1060.0
1048.0
1047.0
1043.0
1041.0
1029.0
1025.0
1018.0
1013.0
1011.0
1009.0
1004.0
995.0
990.0
990.0
990.0
988.0
982.0
978.0
972.0
971.0
974.0
973.0
969.0
965.0
960.0
960.0
964.0
969.0
967.0
963.0
960.0
960.0
965.0
970.0
968.0
966.0
971.0
973.0
976.0
982.0
983.0
982.0
984.0
987.0
990.0
997.0
1000.0
1000.0
1005.0
1016.0
1033.0
1049.0
1071.0
1093.0
1111.0
1132.0
1155.0
1172.0
1189.0
1204.0
1216.0
1234.0
1261.0
1293.0
1332.0
1379.0
1424.0
1462.0
1488.0
1499.0
1500.0
1492.0
1481.0
1469.0
1442.0
1392.0
1307.0
1196.0
1073.0
970.0
905.0
881.0
881.0
883.0
884.0
882.0
885.0
891.0
892.0
892.0
887.0
887.0
885.0
879.0
877.0
870.0
867.0
865.0
865.0
864.0
861.0
855.0
849.0
843.0
846.0
849.0
846.0
839.0
836.0
837.0
840.0
841.0
842.0
839.0
839.0
843.0
851.0
858.0
857.0
853.0
851.0
851.0
850.0
855.0
853.0
849.0
844.0
841.0
842.0
841.0
838.0
835.0
833.0
828.0
829.0
829.0
820.0
817.0
814.0
813.0
812.0
810.0
805.0
802.0
799.0
800.0
800.0
801.0
798.0
795.0
794.0
800.0
803.0
808.0
810.0
810.0
812.0
816.0
827.0
832.0
833.0
834.0
837.0
844.0
853.0
860.0
866.0
867.0
871.0
874.0
883.0
889.0
893.0
893.0
893.0
899.0
903.0
905.0
906.0
908.0
909.0
910.0
919.0
918.0
923.0
917.0
920.0
920.0
924.0
927.0
929.0
927.0
925.0
927.0
928.0
932.0
931.0
932.0
930.0
932.0
936.0
935.0
936.0
936.0
935.0
938.0
938.0
941.0
942.0
944.0
941.0
941.0
946.0
947.0
948.0
947.0
943.0
944.0
948.0
948.0
948.0
949.0
944.0
948.0
952.0
957.0
957.0
952.0
950.0
953.0
955.0
960.0
960.0
958.0
957.0
958.0
962.0
964.0
965.0
963.0
962.0
962.0
963.0
967.0
966.0
963.0
958.0
959.0
962.0
963.0
965.0
960.0
958.0
958.0
963.0
961.0
959.0
960.0
956.0
954.0
957.0
956.0
953.0
951.0
950.0
951.0
952.0
951.0
949.0
948.0
947.0
945.0
948.0
950.0
945.0
943.0
942.0
941.0
943.0
945.0
945.0
944.0
938.0
942.0
941.0
943.0
942.0
939.0
939.0
940.0
938.0
941.0
936.0
937.0
938.0
938.0
940.0
942.0
939.0
939.0
936.0
936.0
939.0
938.0
939.0
936.0
934.0
933.0
934.0
938.0
936.0
933.0
933.0
936.0
938.0
942.0
940.0
936.0
933.0
936.0
936.0
937.0
938.0
937.0
937.0
937.0
937.0
944.0
942.0
938.0
937.0
936.0
941.0
942.0
940.0
940.0
937.0
939.0
939.0
942.0
939.0
939.0
935.0
937.0
938.0
941.0
939.0
939.0
937.0
939.0
941.0
943.0
944.0
941.0
939.0
939.0
943.0
943.0
942.0
941.0
939.0
938.0
943.0
943.0
944.0
940.0
939.0
942.0
942.0
944.0
945.0
941.0
938.0
941.0
942.0
945.0
946.0
941.0
941.0
941.0
941.0
944.0
943.0
941.0
939.0
939.0
940.0
944.0
945.0
941.0
939.0
940.0
944.0
942.0
943.0
942.0
942.0
940.0
941.0
947.0
946.0
940.0
940.0
938.0
943.0
948.0
945.0
940.0
935.0
942.0
941.0
943.0
944.0
941.0
942.0
944.0
946.0
946.0
944.0
943.0
941.0
942.0
946.0
948.0
946.0
944.0
941.0
943.0
945.0
946.0
946.0
943.0
941.0
943.0
942.0
946.0
946.0
943.0
941.0
940.0
943.0
947.0
946.0
944.0
942.0
943.0
943.0
946.0
947.0
943.0
943.0
943.0
943.0
947.0
946.0
944.0
941.0
942.0
944.0
947.0
944.0
945.0
943.0
946.0
948.0
949.0
948.0
944.0
944.0
944.0
947.0
950.0
948.0
948.0
947.0
948.0
952.0
954.0
954.0
954.0
957.0
957.0
963.0
969.0
971.0
966.0
969.0
979.0
990.0
1003.0
1010.0
1009.0
1008.0
1010.0
1011.0
1017.0
1016.0
1013.0
1008.0
1006.0
998.0
984.0
982.0
976.0
967.0
959.0
960.0
956.0
951.0
949.0
947.0
947.0
949.0
952.0
947.0
946.0
944.0
946.0
944.0
944.0
937.0
929.0
929.0
944.0
978.0
1044.0
1136.0
1229.0
1306.0
1364.0
1401.0
1424.0
1414.0
1378.0
1310.0
1203.0
1077.0
955.0
872.0
862.0
897.0
926.0
933.0
928.0
927.0
929.0
928.0
930.0
930.0
930.0
926.0
925.0
921.0
923.0
927.0
927.0
929.0
926.0
924.0
923.0
927.0
931.0
928.0
928.0
922.0
924.0
927.0
931.0
930.0
929.0
925.0
924.0
927.0
931.0
931.0
931.0
929.0
930.0
933.0
938.0
933.0
933.0
934.0
939.0
941.0
945.0
943.0
941.0
943.0
942.0
948.0
952.0
953.0
954.0
954.0
956.0
960.0
965.0
967.0
969.0
968.0
973.0
978.0
983.0
988.0
987.0
987.0
994.0
999.0
1007.0
1008.0
1011.0
1016.0
1023.0
1032.0
1040.0
1043.0
1045.0
1049.0
1058.0
1068.0
1076.0
1077.0
1083.0
1083.0
1090.0
1098.0
1105.0
1109.0
1111.0
1111.0
1114.0
1119.0
1122.0
1122.0
1119.0
1114.0
1118.0
1119.0
1119.0
1113.0
1108.0
1103.0
1099.0
1095.0
1091.0
1082.0
1076.0
1068.0
1065.0
1059.0
1056.0
1048.0
1039.0
1031.0
1027.0
1023.0
1022.0
1017.0
1005.0
1004.0
1001.0
999.0
998.0
992.0
988.0
985.0
983.0
983.0
983.0
979.0
976.0
974.0
973.0
971.0
977.0
976.0
970.0
968.0
969.0
971.0
974.0
975.0
973.0
969.0
971.0
976.0
979.0
977.0
975.0
975.0
979.0
983.0
984.0
986.0
985.0
985.0
991.0
995.0
1009.0
1018.0
1027.0
1040.0
1049.0
1065.0
1078.0
1095.0
1122.0
1148.0
1189.0
1236.0
1292.0
1349.0
1401.0
1434.0
1453.0
1453.0
1440.0
1418.0
1389.0
1339.0
1251.0
1130.0
1013.0
922.0
873.0
851.0
843.0
832.0
824.0
821.0
827.0
834.0
852.0
871.0
883.0
883.0
878.0
871.0
870.0
874.0
871.0
865.0
861.0
855.0
856.0
855.0
857.0
855.0
851.0
847.0
847.0
850.0
855.0
858.0
859.0
858.0
861.0
866.0
868.0
865.0
864.0
863.0
865.0
870.0
873.0
871.0
869.0
863.0
865.0
866.0
869.0
864.0
861.0
859.0
857.0
859.0
862.0
861.0
858.0
854.0
854.0
857.0
858.0
858.0
856.0
856.0
861.0
866.0
871.0
872.0
874.0
882.0
886.0
894.0
902.0
911.0
913.0
920.0
924.0
935.0
945.0
948.0
954.0
957.0
961.0
971.0
974.0
975.0
976.0
977.0
976.0
978.0
982.0
979.0
976.0
971.0
973.0
972.0
974.0
971.0
967.0
962.0
961.0
961.0
960.0
953.0
951.0
947.0
945.0
949.0
948.0
947.0
941.0
937.0
938.0
939.0
939.0
937.0
934.0
929.0
932.0
935.0
937.0
936.0
933.0
930.0
929.0
932.0
933.0
932.0
931.0
931.0
930.0
933.0
939.0
939.0
936.0
934.0
936.0
939.0
941.0
942.0
939.0
940.0
942.0
943.0
946.0
947.0
945.0
941.0
941.0
944.0
944.0
940.0
938.0
940.0
941.0
942.0
944.0
942.0
941.0
935.0
936.0
937.0
937.0
935.0
933.0
929.0
928.0
928.0
932.0
927.0
927.0
922.0
926.0
926.0
927.0
925.0
920.0
919.0
920.0
923.0
923.0
922.0
921.0
919.0
917.0
919.0
920.0
916.0
914.0
913.0
915.0
917.0
918.0
914.0
915.0
912.0
912.0
913.0
916.0
913.0
913.0
908.0
911.0
912.0
914.0
914.0
911.0
909.0
907.0
912.0
913.0
911.0
908.0
908.0
908.0
910.0
912.0
911.0
907.0
906.0
910.0
911.0
911.0
910.0
908.0
908.0
908.0
909.0
911.0
910.0
910.0
906.0
908.0
909.0
914.0
911.0
905.0
907.0
909.0
911.0
911.0
913.0
909.0
907.0
907.0
909.0
914.0
912.0
908.0
906.0
908.0
913.0
915.0
915.0
911.0
910.0
911.0
912.0
913.0
914.0
912.0
909.0
910.0
912.0
914.0
916.0
913.0
911.0
912.0
916.0
921.0
918.0
913.0
909.0
911.0
917.0
917.0
917.0
914.0
912.0
915.0
919.0
920.0
919.0
915.0
914.0
914.0
917.0
918.0
921.0
916.0
914.0
915.0
917.0
920.0
920.0
918.0
919.0
920.0
923.0
923.0
918.0
918.0
915.0
921.0
923.0
923.0
923.0
920.0
915.0
918.0
922.0
927.0
923.0
922.0
919.0
920.0
919.0
922.0
926.0
923.0
920.0
923.0
925.0
925.0
924.0
921.0
920.0
922.0
924.0
927.0
927.0
926.0
922.0
923.0
927.0
930.0
927.0
927.0
925.0
926.0
925.0
931.0
927.0
925.0
926.0
924.0
925.0
930.0
930.0
929.0
925.0
929.0
931.0
929.0
928.0
929.0
927.0
929.0
932.0
935.0
936.0
934.0
931.0
932.0
936.0
938.0
936.0
935.0
935.0
935.0
937.0
940.0
937.0
937.0
935.0
933.0
938.0
940.0
940.0
941.0
938.0
940.0
942.0
943.0
944.0
944.0
946.0
952.0
956.0
959.0
960.0
957.0
959.0
963.0
976.0
990.0
1004.0
1007.0
1007.0
1004.0
1003.0
1003.0
999.0
993.0
986.0
981.0
976.0
973.0
968.0
964.0
957.0
955.0
954.0
951.0
947.0
946.0
947.0
946.0
948.0
952.0
949.0
951.0
948.0
947.0
945.0
942.0
939.0
948.0
974.0
1032.0
1127.0
1239.0
1329.0
1381.0
1411.0
1415.0
1388.0
1328.0
1220.0
1092.0
964.0
863.0
867.0
908.0
929.0
927.0
921.0
924.0
931.0
936.0
934.0
928.0
927.0
925.0
931.0
932.0
931.0
930.0
927.0
926.0
930.0
933.0
931.0
929.0
927.0
926.0
931.0
932.0
931.0
931.0
930.0
929.0
933.0
934.0
936.0
935.0
930.0
931.0
937.0
940.0
942.0
941.0
937.0
941.0
942.0
947.0
948.0
947.0
947.0
950.0
953.0
954.0
957.0
956.0
957.0
960.0
965.0
971.0
973.0
974.0
977.0
980.0
986.0
991.0
993.0
995.0
994.0
998.0
1007.0
1015.0
1018.0
1021.0
1022.0
1030.0
1040.0
1046.0
1050.0
1054.0
1057.0
1064.0
1075.0
1081.0
1088.0
1089.0
1093.0
1095.0
1104.0
1109.0
1111.0
1112.0
1110.0
1114.0
1115.0
1120.0
1112.0
1111.0
1106.0
1103.0
1103.0
1101.0
1099.0
1090.0
1082.0
1079.0
1074.0
1071.0
1061.0
1055.0
1048.0
1046.0
1037.0
1035.0
1028.0
1022.0
1016.0
1015.0
1013.0
1009.0
1003.0
994.0
990.0
990.0
989.0
987.0
988.0
982.0
976.0
977.0
979.0
978.0
976.0
973.0
969.0
968.0
974.0
974.0
976.0
974.0
972.0
975.0
977.0
983.0
985.0
984.0
985.0
987.0
992.0
997.0
999.0
998.0
1000.0
1002.0
1012.0
1019.0
1029.0
1037.0
1055.0
1078.0
1105.0
1130.0
1148.0
1168.0
1189.0
1211.0
1232.0
1250.0
1268.0
1294.0
1327.0
1376.0
1426.0
1473.0
1504.0
1517.0
1520.0
1515.0
1510.0
1494.0
1468.0
1415.0
1339.0
1227.0
1105.0
998.0
924.0
896.0
894.0
895.0
896.0
893.0
891.0
896.0
899.0
901.0
899.0
898.0
892.0
884.0
880.0
877.0
877.0
876.0
871.0
866.0
861.0
857.0
857.0
858.0
851.0
849.0
845.0
847.0
848.0
851.0
845.0
845.0
848.0
853.0
858.0
862.0
864.0
859.0
857.0
854.0
855.0
858.0
856.0
852.0
850.0
851.0
851.0
852.0
846.0
844.0
837.0
836.0
834.0
833.0
829.0
823.0
818.0
820.0
818.0
816.0
814.0
813.0
809.0
808.0
810.0
812.0
811.0
811.0
807.0
816.0
819.0
825.0
828.0
830.0
832.0
838.0
845.0
851.0
855.0
860.0
865.0
871.0
878.0
885.0
885.0
889.0
891.0
901.0
906.0
911.0
912.0
916.0
918.0
917.0
922.0
928.0
928.0
924.0
925.0
932.0
934.0
938.0
939.0
936.0
935.0
940.0
940.0
945.0
942.0
942.0
942.0
944.0
946.0
950.0
949.0
948.0
947.0
948.0
952.0
958.0
957.0
956.0
954.0
955.0
956.0
959.0
960.0
959.0
959.0
960.0
964.0
965.0
965.0
966.0
962.0
963.0
967.0
