# Simple Text Format
# Sampling Rate (Hz):= 360.00
# Resolution:= 12
# Labels:= ECG
991.0
993.0
996.0
995.0
992.0
990.0
991.0
994.0
998.0
997.0
999.0
997.0
1002.0
1003.0
1006.0
1002.0
998.0
994.0
996.0
1000.0
1001.0
1003.0
996.0
992.0
989.0
989.0
996.0
996.0
995.0
996.0
1000.0
1002.0
1011.0
1015.0
1012.0
1013.0
1015.0
1019.0
1022.0
1024.0
1029.0
1033.0
1043.0
1056.0
1066.0
1061.0
1060.0
1054.0
1055.0
1059.0
1062.0
1066.0
1069.0
1060.0
1049.0
1037.0
1028.0
1023.0
1022.0
1017.0
1017.0
1015.0
1016.0
1010.0
1003.0
997.0
995.0
1001.0
1004.0
1004.0
1003.0
1000.0
998.0
996.0
996.0
1001.0
1020.0
1052.0
1117.0
1202.0
1286.0
1345.0
1378.0
1393.0
1395.0
1372.0
1319.0
1233.0
1127.0
1011.0
930.0
909.0
941.0
967.0
975.0
971.0
974.0
979.0
988.0
988.0
986.0
981.0
982.0
984.0
989.0
988.0
986.0
986.0
988.0
991.0
988.0
984.0
985.0
983.0
986.0
987.0
987.0
987.0
984.0
979.0
976.0
982.0
986.0
984.0
978.0
981.0
986.0
988.0
991.0
989.0
985.0
984.0
987.0
989.0
992.0
993.0
991.0
993.0
998.0
1003.0
1009.0
1008.0
1006.0
1008.0
1008.0
1005.0
1007.0
1012.0
1017.0
1021.0
1023.0
1025.0
1029.0
1033.0
1036.0
1040.0
1040.0
1040.0
1046.0
1052.0
1053.0
1054.0
1057.0
1067.0
1076.0
1082.0
1086.0
1086.0
1090.0
1092.0
1099.0
1106.0
1109.0
1111.0
1113.0
1115.0
1125.0
1128.0
1127.0
1127.0
1130.0
1133.0
1133.0
1133.0
1131.0
1126.0
1126.0
1126.0
1126.0
1123.0
1120.0
1116.0
1110.0
1102.0
1099.0
1094.0
1089.0
1080.0
1074.0
1071.0
1071.0
1063.0
1060.0
1045.0
1039.0
1039.0
1040.0
1033.0
1031.0
1026.0
1027.0
1027.0
1025.0
1023.0
1017.0
1010.0
1008.0
1011.0
1012.0
1007.0
1005.0
1006.0
1009.0
1015.0
1017.0
1015.0
1009.0
1003.0
1002.0
1004.0
1004.0
1006.0
1005.0
1007.0
1010.0
1011.0
1015.0
1014.0
1014.0
1007.0
1010.0
1011.0
1020.0
1025.0
1026.0
1026.0
1031.0
1036.0
1052.0
1068.0
1087.0
1111.0
1139.0
1163.0
1182.0
1197.0
1207.0
1223.0
1240.0
1262.0
1300.0
1343.0
1390.0
1434.0
1472.0
1488.0
1492.0
1485.0
1467.0
1442.0
1404.0
1347.0
1264.0
1163.0
1075.0
1007.0
960.0
939.0
936.0
934.0
927.0
923.0
928.0
929.0
933.0
932.0
927.0
918.0
913.0
911.0
912.0
910.0
906.0
899.0
899.0
898.0
898.0
891.0
884.0
878.0
882.0
886.0
890.0
891.0
887.0
884.0
881.0
884.0
890.0
890.0
887.0
884.0
885.0
888.0
897.0
895.0
889.0
884.0
877.0
876.0
876.0
876.0
875.0
874.0
872.0
868.0
859.0
850.0
843.0
844.0
847.0
843.0
843.0
838.0
830.0
829.0
831.0
836.0
836.0
830.0
825.0
826.0
829.0
838.0
844.0
845.0
846.0
848.0
853.0
861.0
871.0
876.0
882.0
885.0
888.0
899.0
910.0
916.0
915.0
918.0
925.0
925.0
933.0
936.0
938.0
942.0
946.0
945.0
950.0
950.0
949.0
947.0
950.0
955.0
963.0
965.0
963.0
964.0
964.0
967.0
970.0
970.0
970.0
967.0
969.0
977.0
983.0
982.0
976.0
976.0
977.0
980.0
981.0
980.0
975.0
975.0
980.0
985.0
987.0
989.0
986.0
984.0
989.0
994.0
1001.0
1001.0
998.0
993.0
996.0
1001.0
1004.0
1005.0
1008.0
1006.0
1005.0
1001.0
999.0
1001.0
1002.0
1002.0
1003.0
1003.0
1005.0
1004.0
1000.0
1000.0
1000.0
997.0
997.0
997.0
999.0
994.0
999.0
1002.0
1005.0
1002.0
994.0
989.0
988.0
991.0
997.0
993.0
987.0
982.0
984.0
987.0
990.0
991.0
986.0
981.0
979.0
982.0
984.0
987.0
984.0
977.0
976.0
975.0
980.0
979.0
977.0
975.0
974.0
976.0
980.0
979.0
975.0
971.0
969.0
978.0
983.0
981.0
973.0
966.0
967.0
967.0
968.0
970.0
969.0
970.0
974.0
976.0
975.0
972.0
969.0
965.0
969.0
972.0
973.0
970.0
965.0
965.0
969.0
970.0
970.0
968.0
967.0
967.0
969.0
971.0
971.0
971.0
968.0
969.0
969.0
970.0
969.0
971.0
971.0
968.0
965.0
967.0
968.0
969.0
968.0
966.0
964.0
966.0
967.0
966.0
963.0
961.0
963.0
968.0
969.0
971.0
969.0
966.0
968.0
969.0
969.0
970.0
969.0
966.0
966.0
969.0
970.0
976.0
976.0
973.0
971.0
969.0
972.0
970.0
971.0
972.0
970.0
969.0
971.0
973.0
972.0
967.0
967.0
969.0
976.0
976.0
973.0
971.0
971.0
974.0
972.0
969.0
966.0
967.0
966.0
975.0
976.0
978.0
975.0
973.0
973.0
974.0
979.0
974.0
972.0
969.0
971.0
975.0
977.0
976.0
973.0
973.0
974.0
978.0
978.0
978.0
970.0
967.0
968.0
973.0
979.0
981.0
978.0
970.0
970.0
973.0
977.0
976.0
974.0
972.0
971.0
975.0
978.0
977.0
978.0
976.0
976.0
980.0
978.0
979.0
973.0
971.0
974.0
977.0
979.0
982.0
977.0
975.0
977.0
979.0
982.0
982.0
981.0
977.0
975.0
980.0
985.0
986.0
985.0
985.0
983.0
984.0
983.0
980.0
981.0
981.0
983.0
982.0
977.0
975.0
976.0
981.0
984.0
985.0
986.0
986.0
980.0
979.0
983.0
984.0
987.0
984.0
978.0
978.0
980.0
983.0
983.0
985.0
984.0
982.0
982.0
985.0
987.0
989.0
987.0
982.0
981.0
983.0
985.0
981.0
982.0
983.0
985.0
992.0
996.0
998.0
992.0
992.0
995.0
1000.0
1006.0
1003.0
1005.0
1009.0
1018.0
1028.0
1041.0
1052.0
1056.0
1050.0
1045.0
1033.0
1024.0
1021.0
1020.0
1022.0
1024.0
1021.0
1014.0
1003.0
998.0
996.0
994.0
995.0
997.0
994.0
989.0
988.0
992.0
988.0
993.0
994.0
996.0
992.0
994.0
990.0
986.0
984.0
987.0
993.0
1008.0
1041.0
1101.0
1178.0
1257.0
1312.0
1349.0
1364.0
1359.0
1326.0
1270.0
1180.0
1073.0
976.0
911.0
899.0
924.0
948.0
955.0
956.0
961.0
966.0
970.0
966.0
967.0
969.0
972.0
973.0
973.0
970.0
970.0
975.0
980.0
980.0
979.0
972.0
973.0
975.0
982.0
981.0
975.0
966.0
967.0
973.0
978.0
977.0
973.0
973.0
974.0
978.0
983.0
983.0
982.0
981.0
981.0
985.0
989.0
990.0
989.0
985.0
984.0
984.0
989.0
989.0
994.0
993.0
995.0
999.0
1002.0
1002.0
999.0
998.0
1000.0
1006.0
1009.0
1014.0
1014.0
1017.0
1018.0
1025.0
1030.0
1035.0
1036.0
1038.0
1050.0
1058.0
1061.0
1060.0
1057.0
1057.0
1059.0
1058.0
1062.0
1069.0
1072.0
1077.0
1084.0
1095.0
1098.0
1102.0
1102.0
1103.0
1107.0
1117.0
1125.0
1122.0
1118.0
1108.0
1109.0
1109.0
1113.0
1113.0
1105.0
1093.0
1087.0
1089.0
1093.0
1089.0
1083.0
1072.0
1070.0
1067.0
1071.0
1067.0
1062.0
1055.0
1051.0
1046.0
1044.0
1043.0
1032.0
1023.0
1022.0
1021.0
1025.0
1023.0
1018.0
1012.0
1008.0
1007.0
1009.0
1009.0
1004.0
999.0
997.0
999.0
1003.0
1004.0
1003.0
1001.0
1003.0
1008.0
1007.0
1006.0
1003.0
1003.0
1005.0
1012.0
1022.0
1019.0
1021.0
1021.0
1023.0
1028.0
1035.0
1041.0
1044.0
1043.0
1047.0
1053.0
1060.0
1073.0
1090.0
1104.0
1126.0
1151.0
1173.0
1189.0
1202.0
1208.0
1220.0
1236.0
1265.0
1301.0
1334.0
1368.0
1410.0
1448.0
1473.0
1482.0
1477.0
1465.0
1449.0
1411.0
1345.0
1241.0
1120.0
1022.0
975.0
967.0
976.0
987.0
988.0
983.0
977.0
971.0
967.0
954.0
946.0
941.0
937.0
932.0
925.0
923.0
918.0
912.0
910.0
909.0
915.0
917.0
913.0
909.0
904.0
901.0
903.0
902.0
898.0
892.0
892.0
887.0
884.0
882.0
877.0
876.0
879.0
884.0
890.0
892.0
890.0
887.0
888.0
892.0
894.0
890.0
887.0
881.0
877.0
880.0
880.0
881.0
877.0
872.0
869.0
866.0
868.0
863.0
863.0
857.0
851.0
846.0
843.0
841.0
839.0
831.0
829.0
828.0
828.0
825.0
823.0
823.0
821.0
824.0
823.0
821.0
824.0
825.0
830.0
833.0
843.0
847.0
848.0
847.0
848.0
858.0
862.0
869.0
874.0
875.0
880.0
887.0
893.0
899.0
900.0
902.0
904.0
910.0
917.0
923.0
927.0
931.0
932.0
935.0
941.0
945.0
943.0
943.0
946.0
952.0
961.0
965.0
964.0
961.0
958.0
959.0
965.0
966.0
969.0
963.0
964.0
969.0
977.0
977.0
975.0
970.0
974.0
976.0
984.0
985.0
983.0
983.0
985.0
987.0
993.0
995.0
993.0
991.0
994.0
997.0
1001.0
1001.0
1001.0
999.0
1003.0
1001.0
1005.0
1003.0
1002.0
998.0
1001.0
1008.0
1012.0
1009.0
1005.0
1003.0
1006.0
1009.0
1013.0
1013.0
1015.0
1011.0
1012.0
1012.0
1013.0
1009.0
1008.0
1003.0
1005.0
1011.0
1015.0
1009.0
1000.0
992.0
990.0
993.0
997.0
998.0
998.0
995.0
994.0
996.0
1000.0
1000.0
999.0
994.0
992.0
988.0
983.0
986.0
987.0
988.0
991.0
994.0
995.0
990.0
982.0
977.0
980.0
985.0
992.0
991.0
986.0
979.0
980.0
983.0
987.0
993.0
987.0
978.0
974.0
974.0
974.0
978.0
977.0
978.0
978.0
981.0
981.0
978.0
975.0
975.0
981.0
981.0
984.0
982.0
977.0
972.0
976.0
980.0
982.0
980.0
977.0
976.0
977.0
978.0
981.0
982.0
981.0
980.0
981.0
982.0
982.0
980.0
975.0
974.0
978.0
982.0
987.0
983.0
979.0
975.0
977.0
980.0
984.0
985.0
983.0
980.0
978.0
982.0
984.0
988.0
989.0
985.0
981.0
978.0
975.0
977.0
976.0
976.0
981.0
983.0
984.0
983.0
978.0
977.0
981.0
984.0
986.0
985.0
983.0
984.0
981.0
983.0
981.0
976.0
981.0
979.0
978.0
975.0
976.0
975.0
974.0
975.0
977.0
980.0
985.0
988.0
985.0
981.0
980.0
976.0
979.0
979.0
981.0
981.0
985.0
987.0
991.0
988.0
982.0
974.0
970.0
977.0
978.0
982.0
982.0
976.0
977.0
978.0
984.0
982.0
981.0
979.0
981.0
985.0
982.0
981.0
981.0
980.0
983.0
985.0
992.0
990.0
988.0
984.0
984.0
985.0
989.0
989.0
993.0
992.0
996.0
998.0
997.0
990.0
982.0
981.0
983.0
988.0
992.0
995.0
995.0
993.0
988.0
988.0
987.0
983.0
984.0
984.0
985.0
990.0
994.0
991.0
988.0
989.0
991.0
994.0
1000.0
999.0
998.0
993.0
987.0
989.0
990.0
994.0
990.0
992.0
995.0
1003.0
1004.0
1002.0
990.0
984.0
980.0
987.0
992.0
995.0
992.0
989.0
992.0
1003.0
1005.0
997.0
990.0
983.0
983.0
986.0
993.0
1000.0
998.0
995.0
992.0
990.0
992.0
991.0
992.0
994.0
996.0
998.0
999.0
998.0
995.0
995.0
993.0
997.0
996.0
995.0
991.0
992.0
993.0
994.0
999.0
996.0
992.0
991.0
990.0
997.0
1002.0
1000.0
998.0
997.0
997.0
1002.0
1002.0
1004.0
1004.0
1005.0
1010.0
1014.0
1019.0
1019.0
1020.0
1018.0
1022.0
1031.0
1040.0
1043.0
1047.0
1050.0
1059.0
1069.0
1071.0
1066.0
1057.0
1044.0
1033.0
1034.0
1038.0
1041.0
1035.0
1027.0
1017.0
1015.0
1013.0
1010.0
1005.0
1002.0
1003.0
1010.0
1012.0
1005.0
1000.0
993.0
993.0
998.0
1007.0
1010.0
1005.0
998.0
988.0
981.0
982.0
998.0
1024.0
1072.0
1151.0
1234.0
1301.0
1348.0
1373.0
1386.0
1383.0
1359.0
1308.0
1225.0
1124.0
1020.0
938.0
911.0
935.0
962.0
974.0
971.0
971.0
977.0
982.0
983.0
985.0
983.0
980.0
982.0
984.0
984.0
982.0
980.0
979.0
983.0
987.0
986.0
983.0
979.0
980.0
982.0
987.0
986.0
986.0
988.0
992.0
999.0
1002.0
1004.0
1001.0
1000.0
996.0
990.0
981.0
971.0
972.0
974.0
981.0
984.0
988.0
991.0
991.0
991.0
996.0
1000.0
1007.0
1011.0
1016.0
1016.0
1016.0
1012.0
1008.0
1004.0
1005.0
1010.0
1015.0
1022.0
1024.0
1022.0
1023.0
1024.0
1031.0
1037.0
1043.0
1048.0
1051.0
1051.0
1054.0
1058.0
1067.0
1073.0
1077.0
1083.0
1089.0
1093.0
1098.0
1101.0
1101.0
1099.0
1104.0
1111.0
1120.0
1123.0
1125.0
1127.0
1125.0
1131.0
1133.0
1135.0
1137.0
1134.0
1132.0
1130.0
1130.0
1128.0
1126.0
1122.0
1122.0
1120.0
1120.0
1113.0
1105.0
1100.0
1096.0
1092.0
1096.0
1090.0
1084.0
1076.0
1069.0
1064.0
1061.0
1054.0
1046.0
1038.0
1037.0
1036.0
1038.0
1035.0
1031.0
1027.0
1023.0
1025.0
1026.0
1021.0
1021.0
1018.0
1017.0
1017.0
1019.0
1019.0
1016.0
1013.0
1015.0
1014.0
1019.0
1019.0
1018.0
1016.0
1014.0
1018.0
1019.0
1022.0
1021.0
1017.0
1016.0
1022.0
1024.0
1027.0
1023.0
1024.0
1028.0
1034.0
1041.0
1044.0
1047.0
1048.0
1056.0
1067.0
1090.0
1116.0
1145.0
1161.0
1177.0
1191.0
1206.0
1221.0
1238.0
1257.0
1289.0
1329.0
1374.0
1420.0
1454.0
1477.0
1488.0
1486.0
1480.0
1460.0
1439.0
1402.0
1351.0
1272.0
1180.0
1096.0
1028.0
979.0
945.0
932.0
931.0
930.0
928.0
930.0
935.0
942.0
944.0
938.0
930.0
919.0
918.0
921.0
922.0
919.0
914.0
912.0
909.0
906.0
902.0
896.0
894.0
891.0
889.0
888.0
885.0
877.0
872.0
873.0
877.0
884.0
887.0
889.0
889.0
888.0
890.0
889.0
892.0
895.0
898.0
893.0
889.0
878.0
875.0
870.0
868.0
866.0
864.0
862.0
862.0
861.0
859.0
852.0
847.0
843.0
842.0
840.0
838.0
832.0
831.0
827.0
831.0
825.0
822.0
823.0
823.0
826.0
829.0
827.0
823.0
818.0
819.0
826.0
835.0
839.0
841.0
840.0
845.0
853.0
856.0
860.0
863.0
871.0
880.0
885.0
895.0
900.0
902.0
905.0
907.0
917.0
924.0
924.0
929.0
926.0
932.0
939.0
945.0
945.0
946.0
946.0
948.0
950.0
956.0
956.0
958.0
957.0
960.0
965.0
970.0
972.0
971.0
970.0
971.0
975.0
981.0
977.0
976.0
975.0
978.0
983.0
984.0
986.0
984.0
982.0
983.0
987.0
992.0
990.0
994.0
992.0
995.0
998.0
1000.0
1002.0
997.0
996.0
994.0
998.0
998.0
998.0
994.0
991.0
996.0
996.0
1003.0
1003.0
1000.0
999.0
1003.0
1008.0
1009.0
1007.0
1005.0
1005.0
1007.0
1009.0
1010.0
1009.0
1010.0
1010.0
1009.0
1010.0
1012.0
1015.0
1013.0
1011.0
1005.0
1003.0
1012.0
1010.0
996.0
993.0
1003.0
1016.0
1017.0
1003.0
989.0
985.0
991.0
1002.0
1005.0
1005.0
997.0
986.0
981.0
992.0
1011.0
1014.0
1008.0
1001.0
997.0
993.0
994.0
995.0
995.0
990.0
994.0
994.0
993.0
991.0
994.0
992.0
994.0
1000.0
1002.0
994.0
990.0
994.0
994.0
989.0
999.0
1005.0
1003.0
995.0
993.0
998.0
1001.0
1003.0
1000.0
993.0
992.0
995.0
1002.0
1001.0
999.0
996.0
994.0
995.0
1001.0
1002.0
999.0
998.0
998.0
999.0
1001.0
1003.0
1005.0
1000.0
992.0
985.0
977.0
982.0
988.0
995.0
998.0
996.0
997.0
1001.0
1000.0
996.0
1001.0
1005.0
1010.0
1006.0
1001.0
992.0
991.0
998.0
1007.0
1011.0
1002.0
994.0
997.0
1005.0
1004.0
1001.0
1005.0
1005.0
1005.0
1004.0
1011.0
1012.0
1009.0
1003.0
999.0
1006.0
1015.0
1020.0
1012.0
999.0
1002.0
1008.0
1009.0
1004.0
1008.0
1010.0
1011.0
1010.0
1009.0
1010.0
1011.0
1010.0
1009.0
1009.0
1016.0
1017.0
1017.0
1013.0
1009.0
1011.0
1015.0
1016.0
1017.0
1016.0
1014.0
1014.0
1016.0
1014.0
1007.0
999.0
1001.0
1008.0
1013.0
1013.0
1013.0
1013.0
1008.0
1004.0
1006.0
1011.0
1011.0
1010.0
1007.0
1007.0
1013.0
1015.0
1016.0
1010.0
1008.0
1015.0
1018.0
1020.0
1023.0
1019.0
1017.0
1013.0
1017.0
1021.0
1020.0
1019.0
1017.0
1017.0
1018.0
1021.0
1022.0
1015.0
1013.0
1017.0
1022.0
1022.0
1018.0
1021.0
1025.0
1024.0
1026.0
1024.0
1023.0
1021.0
1018.0
1021.0
1023.0
1021.0
1024.0
1028.0
1027.0
1025.0
1028.0
1024.0
1025.0
1023.0
1019.0
1021.0
1029.0
1034.0
1032.0
1024.0
1018.0
1020.0
1025.0
1030.0
1026.0
1029.0
1025.0
1024.0
1026.0
1022.0
1018.0
1021.0
1026.0
1027.0
1032.0
1033.0
1029.0
1023.0
1020.0
1026.0
1034.0
1034.0
1029.0
1026.0
1030.0
1028.0
1030.0
1029.0
1031.0
1031.0
1029.0
1028.0
1031.0
1029.0
1026.0
1022.0
1025.0
1028.0
1034.0
1034.0
1029.0
1034.0
1035.0
1041.0
1048.0
1050.0
1052.0
1051.0
1049.0
1053.0
1060.0
1064.0
1069.0
1077.0
1091.0
1096.0
1091.0
1086.0
1087.0
1087.0
1081.0
1076.0
1076.0
1071.0
1062.0
1052.0
1048.0
1043.0
1044.0
1044.0
1039.0
1033.0
1030.0
1033.0
1036.0
1032.0
1026.0
1023.0
1028.0
1032.0
1030.0
1032.0
1033.0
1030.0
1038.0
1057.0
1087.0
1129.0
1190.0
1257.0
1314.0
1352.0
1371.0
1375.0
1363.0
1325.0
1261.0
1176.0
1093.0
1009.0
953.0
947.0
976.0
996.0
1001.0
1001.0
1004.0
1006.0
1013.0
1020.0
1024.0
1016.0
1009.0
1013.0
1011.0
1012.0
1012.0
1014.0
1018.0
1013.0
1013.0
1012.0
1019.0
1022.0
1020.0
1015.0
1014.0
1019.0
1020.0
1017.0
1014.0
1016.0
1016.0
1013.0
1021.0
1027.0
1026.0
1022.0
1023.0
1026.0
1030.0
1029.0
1027.0
1026.0
1025.0
1027.0
1026.0
1033.0
1039.0
1041.0
1039.0
1040.0
1044.0
1042.0
1039.0
1038.0
1044.0
1054.0
1056.0
1054.0
1049.0
1053.0
1061.0
1067.0
1066.0
1066.0
1068.0
1072.0
1075.0
1078.0
1087.0
1091.0
1092.0
1092.0
1093.0
1102.0
1110.0
1115.0
1117.0
1115.0
1117.0
1122.0
1131.0
1137.0
1137.0
1137.0
1137.0
1138.0
1145.0
1147.0
1145.0
1141.0
1143.0
1148.0
1146.0
1139.0
1131.0
1132.0
1132.0
1133.0
1133.0
1126.0
1120.0
1113.0
1106.0
1106.0
1110.0
1106.0
1098.0
1090.0
1084.0
1081.0
1080.0
1078.0
1075.0
1068.0
1064.0
1067.0
1066.0
1058.0
1051.0
1050.0
1052.0
1054.0
1054.0
1048.0
1046.0
1045.0
1046.0
1047.0
1050.0
1052.0
1050.0
1041.0
1038.0
1047.0
1056.0
1054.0
1049.0
1052.0
1054.0
1051.0
1052.0
1055.0
1057.0
1057.0
1059.0
1068.0
1072.0
1074.0
1070.0
1062.0
1066.0
1083.0
1096.0
1099.0
1106.0
1119.0
1144.0
1167.0
1192.0
1216.0
1235.0
1254.0
1283.0
1318.0
1356.0
1386.0
1400.0
1409.0
1415.0
1416.0
1411.0
1392.0
1359.0
1304.0
1218.0
1129.0
1068.0
1027.0
1005.0
986.0
963.0
949.0
946.0
946.0
946.0
952.0
959.0
965.0
970.0
963.0
952.0
941.0
946.0
947.0
941.0
940.0
938.0
929.0
928.0
926.0
925.0
926.0
923.0
920.0
920.0
916.0
923.0
922.0
924.0
922.0
923.0
927.0
933.0
932.0
927.0
926.0
930.0
933.0
936.0
935.0
929.0
929.0
923.0
914.0
905.0
905.0
913.0
909.0
908.0
908.0
912.0
909.0
905.0
902.0
901.0
902.0
909.0
906.0
904.0
902.0
904.0
915.0
917.0
918.0
913.0
909.0
920.0
933.0
947.0
948.0
948.0
954.0
961.0
967.0
974.0
980.0
982.0
986.0
990.0
995.0
995.0
998.0
997.0
1000.0
1002.0
993.0
996.0
1005.0
1011.0
1010.0
1007.0
1004.0
1005.0
1003.0
1004.0
1001.0
999.0
1001.0
1004.0
1003.0
1001.0
999.0
1002.0
1009.0
1006.0
997.0
996.0
997.0
999.0
1001.0
1005.0
1012.0
1013.0
1009.0
1005.0
1004.0
1007.0
1006.0
1008.0
1002.0
1003.0
1009.0
1016.0
1013.0
1007.0
1011.0
1015.0
1013.0
1005.0
1006.0
1014.0
1018.0
1016.0
1014.0
1014.0
1015.0
1016.0
1008.0
1001.0
1004.0
1013.0
1018.0
1012.0
1003.0
1000.0
1000.0
1003.0
998.0
992.0
994.0
995.0
998.0
997.0
993.0
989.0
986.0
989.0
991.0
992.0
987.0
980.0
978.0
983.0
982.0
985.0
987.0
983.0
978.0
975.0
975.0
974.0
970.0
970.0
970.0
970.0
971.0
975.0
970.0
962.0
954.0
958.0
968.0
971.0
967.0
960.0
960.0
957.0
956.0
962.0
962.0
957.0
954.0
956.0
956.0
957.0
956.0
956.0
956.0
949.0
942.0
949.0
957.0
955.0
951.0
952.0
952.0
951.0
951.0
945.0
940.0
941.0
944.0
952.0
951.0
947.0
940.0
943.0
948.0
947.0
943.0
942.0
942.0
944.0
948.0
949.0
948.0
943.0
938.0
941.0
943.0
942.0
940.0
945.0
948.0
945.0
948.0
947.0
944.0
944.0
938.0
933.0
937.0
946.0
948.0
943.0
938.0
939.0
946.0
947.0
946.0
947.0
944.0
944.0
942.0
945.0
946.0
944.0
942.0
936.0
944.0
949.0
944.0
941.0
938.0
944.0
950.0
949.0
943.0
939.0
944.0
945.0
946.0
947.0
948.0
944.0
941.0
943.0
946.0
946.0
946.0
948.0
944.0
945.0
940.0
940.0
942.0
953.0
951.0
945.0
944.0
943.0
952.0
950.0
949.0
943.0
945.0
951.0
954.0
950.0
941.0
943.0
945.0
954.0
957.0
952.0
947.0
947.0
950.0
955.0
955.0
953.0
952.0
948.0
942.0
941.0
951.0
955.0
955.0
955.0
954.0
952.0
952.0
951.0
949.0
945.0
946.0
949.0
954.0
953.0
951.0
949.0
952.0
953.0
954.0
951.0
948.0
950.0
955.0
958.0
956.0
951.0
946.0
945.0
951.0
957.0
954.0
954.0
950.0
946.0
949.0
956.0
959.0
955.0
951.0
948.0
955.0
956.0
951.0
947.0
952.0
954.0
955.0
956.0
955.0
951.0
946.0
950.0
955.0
958.0
954.0
948.0
945.0
946.0
955.0
960.0
958.0
953.0
946.0
948.0
954.0
959.0
958.0
954.0
952.0
949.0
950.0
956.0
958.0
956.0
957.0
957.0
962.0
964.0
965.0
966.0
966.0
972.0
979.0
980.0
986.0
992.0
1002.0
1014.0
1022.0
1022.0
1018.0
1015.0
1012.0
1008.0
1010.0
1004.0
998.0
995.0
988.0
983.0
972.0
969.0
965.0
965.0
959.0
953.0
947.0
956.0
964.0
961.0
950.0
954.0
958.0
962.0
960.0
957.0
956.0
957.0
969.0
996.0
1039.0
1101.0
1180.0
1253.0
1301.0
1320.0
1322.0
1305.0
1264.0
1190.0
1084.0
979.0
885.0
846.0
862.0
895.0
912.0
914.0
912.0
914.0
919.0
929.0
931.0
931.0
927.0
928.0
926.0
923.0
925.0
928.0
929.0
927.0
926.0
926.0
923.0
930.0
930.0
929.0
926.0
926.0
930.0
933.0
936.0
936.0
933.0
929.0
932.0
934.0
937.0
936.0
929.0
932.0
939.0
945.0
947.0
944.0
938.0
939.0
944.0
950.0
951.0
949.0
944.0
945.0
953.0
958.0
961.0
962.0
960.0
959.0
962.0
965.0
974.0
978.0
974.0
977.0
983.0
984.0
987.0
988.0
988.0
992.0
998.0
1003.0
1011.0
1013.0
1013.0
1017.0
1023.0
1032.0
1031.0
1028.0
1032.0
1042.0
1048.0
1045.0
1048.0
1050.0
1052.0
1053.0
1056.0
1061.0
1061.0
1059.0
1055.0
1056.0
1059.0
1062.0
1063.0
1057.0
1048.0
1043.0
1045.0
1051.0
1051.0
1046.0
1038.0
1035.0
1033.0
1029.0
1020.0
1018.0
1019.0
1017.0
1014.0
1008.0
1005.0
1003.0
1000.0
1000.0
1000.0
1000.0
996.0
998.0
995.0
988.0
979.0
986.0
991.0
992.0
985.0
980.0
982.0
988.0
987.0
982.0
980.0
984.0
986.0
986.0
986.0
985.0
989.0
990.0
993.0
999.0
1000.0
999.0
998.0
998.0
1001.0
1005.0
1006.0
1002.0
1003.0
1006.0
1010.0
1012.0
1012.0
1014.0
1010.0
1008.0
1011.0
1013.0
1009.0
1009.0
1014.0
1017.0
1019.0
1021.0
1022.0
1025.0
1026.0
1023.0
1020.0
1013.0
1006.0
996.0
988.0
985.0
983.0
973.0
948.0
909.0
862.0
814.0
782.0
774.0
770.0
768.0
757.0
747.0
739.0
743.0
746.0
755.0
771.0
791.0
817.0
850.0
880.0
909.0
940.0
977.0
1004.0
1020.0
1020.0
1005.0
990.0
972.0
961.0
952.0
949.0
946.0
945.0
943.0
944.0
942.0
944.0
947.0
946.0
943.0
940.0
944.0
948.0
953.0
957.0
956.0
961.0
963.0
965.0
968.0
966.0
968.0
972.0
977.0
974.0
970.0
964.0
970.0
982.0
988.0
987.0
983.0
985.0
987.0
992.0
995.0
997.0
996.0
1001.0
1007.0
1012.0
1016.0
1019.0
1020.0
1022.0
1031.0
1042.0
1052.0
1054.0
1057.0
1056.0
1064.0
1073.0
1082.0
1093.0
1097.0
1104.0
1111.0
1123.0
1131.0
1137.0
1142.0
1147.0
1156.0
1167.0
1176.0
1181.0
1184.0
1185.0
1189.0
1197.0
1198.0
1209.0
1206.0
1207.0
1202.0
1201.0
1198.0
1191.0
1189.0
1189.0
1187.0
1185.0
1182.0
1177.0
1167.0
1157.0
1152.0
1146.0
1147.0
1139.0
1129.0
1117.0
1106.0
1101.0
1099.0
1094.0
1083.0
1069.0
1058.0
1055.0
1051.0
1046.0
1039.0
1032.0
1026.0
1024.0
1024.0
1023.0
1018.0
1015.0
1015.0
1012.0
1011.0
1009.0
1009.0
1010.0
1008.0
1011.0
1013.0
1011.0
1008.0
1006.0
1006.0
1006.0
1008.0
1007.0
1005.0
1000.0
999.0
999.0
1002.0
1003.0
1000.0
999.0
998.0
995.0
991.0
990.0
992.0
988.0
989.0
989.0
989.0
986.0
983.0
980.0
980.0
978.0
981.0
978.0
976.0
972.0
970.0
969.0
970.0
967.0
969.0
967.0
965.0
962.0
958.0
959.0
961.0
957.0
952.0
952.0
956.0
956.0
953.0
947.0
944.0
946.0
950.0
953.0
948.0
945.0
947.0
944.0
945.0
945.0
942.0
940.0
939.0
938.0
942.0
943.0
942.0
940.0
936.0
937.0
936.0
935.0
935.0
935.0
936.0
935.0
935.0
938.0
937.0
928.0
929.0
931.0
933.0
935.0
929.0
927.0
930.0
932.0
933.0
932.0
931.0
927.0
928.0
931.0
931.0
931.0
928.0
929.0
928.0
930.0
934.0
935.0
936.0
931.0
929.0
929.0
930.0
931.0
930.0
930.0
932.0
929.0
927.0
928.0
930.0
930.0
928.0
926.0
928.0
928.0
930.0
927.0
924.0
926.0
929.0
931.0
929.0
927.0
927.0
930.0
929.0
928.0
927.0
927.0
925.0
927.0
928.0
930.0
930.0
929.0
930.0
930.0
931.0
931.0
929.0
928.0
929.0
931.0
934.0
933.0
930.0
929.0
929.0
933.0
933.0
926.0
925.0
925.0
925.0
928.0
932.0
933.0
931.0
928.0
927.0
934.0
940.0
938.0
934.0
934.0
934.0
934.0
935.0
936.0
934.0
930.0
934.0
936.0
936.0
935.0
935.0
932.0
934.0
937.0
941.0
937.0
932.0
936.0
939.0
941.0
939.0
938.0
938.0
938.0
942.0
941.0
937.0
933.0
934.0
939.0
942.0
941.0
941.0
943.0
941.0
937.0
937.0
941.0
947.0
947.0
941.0
938.0
938.0
936.0
943.0
946.0
944.0
942.0
942.0
944.0
948.0
945.0
941.0
941.0
942.0
941.0
944.0
946.0
946.0
940.0
940.0
945.0
946.0
948.0
945.0
938.0
939.0
941.0
946.0
949.0
945.0
942.0
942.0
945.0
948.0
951.0
947.0
945.0
940.0
940.0
947.0
951.0
949.0
945.0
943.0
945.0
946.0
945.0
945.0
943.0
947.0
949.0
946.0
945.0
945.0
946.0
947.0
948.0
953.0
954.0
951.0
949.0
947.0
952.0
953.0
953.0
951.0
952.0
955.0
951.0
954.0
955.0
951.0
949.0
951.0
953.0
957.0
956.0
954.0
954.0
956.0
959.0
963.0
967.0
967.0
968.0
972.0
978.0
983.0
987.0
992.0
994.0
1004.0
1018.0
1026.0
1023.0
1020.0
1021.0
1023.0
1021.0
1018.0
1014.0
1007.0
999.0
993.0
989.0
986.0
983.0
976.0
970.0
964.0
963.0
964.0
959.0
958.0
957.0
954.0
958.0
958.0
954.0
953.0
956.0
956.0
958.0
957.0
953.0
951.0
951.0
960.0
991.0
1037.0
1104.0
1179.0
1243.0
1286.0
1317.0
1335.0
1343.0
1329.0
1287.0
1214.0
1122.0
1030.0
946.0
885.0
869.0
896.0
923.0
931.0
933.0
939.0
937.0
939.0
943.0
949.0
951.0
946.0
942.0
943.0
943.0
947.0
944.0
947.0
942.0
939.0
941.0
949.0
951.0
952.0
949.0
949.0
945.0
942.0
945.0
948.0
951.0
945.0
945.0
949.0
951.0
951.0
947.0
948.0
948.0
951.0
959.0
958.0
955.0
957.0
957.0
961.0
968.0
964.0
960.0
961.0
963.0
969.0
973.0
969.0
968.0
969.0
972.0
978.0
979.0
981.0
982.0
981.0
985.0
991.0
994.0
991.0
987.0
992.0
999.0
1008.0
1009.0
1009.0
1009.0
1015.0
1019.0
1024.0
1027.0
1031.0
1034.0
1037.0
1045.0
1050.0
1054.0
1056.0
1055.0
1055.0
1065.0
1074.0
1075.0
1076.0
1073.0
1080.0
1084.0
1086.0
1087.0
1091.0
1088.0
1089.0
1088.0
1090.0
1084.0
1084.0
1078.0
1078.0
1079.0
1077.0
1066.0
1060.0
1059.0
1061.0
1061.0
1056.0
1051.0
1041.0
1033.0
1033.0
1033.0
1028.0
1022.0
1017.0
1011.0
1009.0
1013.0
1011.0
1004.0
1001.0
997.0
996.0
997.0
1001.0
999.0
996.0
991.0
987.0
992.0
993.0
991.0
987.0
983.0
985.0
992.0
999.0
991.0
982.0
983.0
992.0
995.0
994.0
991.0
989.0
993.0
993.0
997.0
999.0
996.0
995.0
997.0
1000.0
1000.0
999.0
1005.0
1005.0
1002.0
1002.0
1001.0
1004.0
1009.0
1015.0
1021.0
1033.0
1051.0
1065.0
1082.0
1094.0
1104.0
1121.0
1138.0
1162.0
1181.0
1197.0
1210.0
1227.0
1250.0
1274.0
1309.0
1341.0
1373.0
1405.0
1434.0
1451.0
1458.0
1450.0
1438.0
1418.0
1400.0
1371.0
1315.0
1247.0
1174.0
