# Simple Text Format
# Sampling Rate (Hz):= 360.00
# Resolution:= 12
# Labels:= ECG
1079.0
1104.0
1121.0
1139.0
1158.0
1173.0
1193.0
1212.0
1230.0
1260.0
1306.0
1354.0
1406.0
1450.0
1475.0
1479.0
1478.0
1475.0
1463.0
1433.0
1390.0
1324.0
1224.0
1115.0
1013.0
932.0
885.0
875.0
881.0
884.0
884.0
883.0
893.0
899.0
905.0
907.0
904.0
895.0
886.0
882.0
879.0
879.0
878.0
869.0
864.0
859.0
858.0
859.0
860.0
859.0
858.0
854.0
855.0
859.0
864.0
866.0
867.0
870.0
873.0
874.0
872.0
870.0
869.0
868.0
873.0
872.0
873.0
868.0
861.0
859.0
857.0
859.0
860.0
857.0
856.0
853.0
854.0
854.0
850.0
842.0
832.0
828.0
829.0
833.0
832.0
829.0
825.0
822.0
826.0
828.0
824.0
821.0
822.0
820.0
828.0
836.0
839.0
839.0
839.0
838.0
849.0
857.0
864.0
868.0
870.0
875.0
881.0
887.0
891.0
895.0
899.0
902.0
909.0
909.0
915.0
915.0
916.0
921.0
922.0
926.0
928.0
931.0
928.0
930.0
934.0
935.0
937.0
937.0
937.0
938.0
941.0
942.0
941.0
941.0
941.0
943.0
947.0
951.0
951.0
949.0
947.0
946.0
946.0
950.0
955.0
953.0
951.0
952.0
951.0
955.0
957.0
959.0
958.0
957.0
961.0
963.0
961.0
961.0
959.0
961.0
964.0
966.0
965.0
965.0
966.0
966.0
967.0
971.0
973.0
975.0
972.0
973.0
973.0
973.0
973.0
970.0
972.0
971.0
972.0
976.0
977.0
976.0
971.0
969.0
972.0
974.0
969.0
968.0
968.0
964.0
969.0
971.0
969.0
971.0
969.0
967.0
969.0
969.0
966.0
964.0
959.0
958.0
964.0
965.0
964.0
965.0
961.0
956.0
957.0
959.0
960.0
959.0
957.0
955.0
958.0
958.0
956.0
957.0
955.0
953.0
951.0
953.0
954.0
952.0
950.0
954.0
955.0
958.0
959.0
958.0
957.0
956.0
960.0
957.0
958.0
953.0
954.0
954.0
956.0
960.0
958.0
956.0
955.0
950.0
954.0
954.0
957.0
956.0
955.0
953.0
955.0
957.0
958.0
958.0
956.0
955.0
958.0
959.0
957.0
955.0
958.0
958.0
960.0
959.0
962.0
961.0
958.0
954.0
957.0
959.0
959.0
959.0
957.0
959.0
960.0
962.0
963.0
960.0
959.0
959.0
963.0
961.0
963.0
963.0
958.0
954.0
958.0
963.0
966.0
965.0
962.0
956.0
960.0
963.0
963.0
965.0
960.0
955.0
959.0
964.0
967.0
966.0
960.0
961.0
962.0
966.0
968.0
966.0
965.0
962.0
965.0
966.0
970.0
967.0
962.0
961.0
965.0
967.0
970.0
969.0
967.0
968.0
968.0
970.0
969.0
964.0
964.0
965.0
967.0
970.0
973.0
973.0
970.0
971.0
973.0
975.0
974.0
971.0
966.0
963.0
968.0
974.0
975.0
977.0
975.0
975.0
973.0
976.0
976.0
974.0
973.0
971.0
971.0
969.0
970.0
972.0
976.0
972.0
971.0
973.0
977.0
979.0
976.0
972.0
974.0
975.0
979.0
979.0
972.0
973.0
977.0
979.0
981.0
979.0
976.0
974.0
981.0
980.0
981.0
978.0
975.0
976.0
978.0
977.0
978.0
973.0
970.0
966.0
973.0
977.0
984.0
980.0
978.0
978.0
981.0
988.0
988.0
987.0
980.0
982.0
979.0
984.0
982.0
983.0
980.0
981.0
985.0
992.0
999.0
1000.0
1001.0
996.0
997.0
1000.0
1008.0
1018.0
1027.0
1037.0
1042.0
1047.0
1045.0
1035.0
1031.0
1028.0
1031.0
1031.0
1031.0
1021.0
1009.0
1003.0
998.0
998.0
997.0
991.0
985.0
984.0
985.0
988.0
991.0
989.0
985.0
981.0
980.0
984.0
986.0
979.0
969.0
963.0
983.0
1017.0
1080.0
1167.0
1262.0
1338.0
1390.0
1417.0
1423.0
1402.0
1351.0
1261.0
1144.0
1028.0
929.0
892.0
915.0
947.0
963.0
962.0
956.0
958.0
959.0
960.0
964.0
967.0
966.0
965.0
960.0
959.0
960.0
967.0
966.0
964.0
959.0
957.0
956.0
958.0
961.0
963.0
961.0
960.0
961.0
963.0
966.0
963.0
959.0
959.0
964.0
970.0
973.0
970.0
967.0
968.0
971.0
974.0
974.0
972.0
971.0
966.0
972.0
974.0
977.0
979.0
983.0
983.0
984.0
986.0
988.0
990.0
988.0
989.0
993.0
998.0
1000.0
1005.0
1006.0
1011.0
1017.0
1024.0
1021.0
1024.0
1026.0
1028.0
1032.0
1040.0
1048.0
1049.0
1051.0
1053.0
1059.0
1067.0
1079.0
1087.0
1088.0
1092.0
1096.0
1103.0
1108.0
1109.0
1110.0
1116.0
1125.0
1128.0
1131.0
1130.0
1127.0
1124.0
1126.0
1126.0
1129.0
1122.0
1117.0
1113.0
1108.0
1107.0
1106.0
1101.0
1092.0
1085.0
1082.0
1079.0
1075.0
1070.0
1060.0
1053.0
1048.0
1046.0
1045.0
1037.0
1031.0
1027.0
1023.0
1023.0
1021.0
1009.0
1005.0
1005.0
1004.0
1002.0
999.0
996.0
991.0
991.0
992.0
994.0
995.0
990.0
988.0
987.0
990.0
996.0
993.0
991.0
991.0
988.0
994.0
1000.0
1003.0
1002.0
1001.0
1000.0
1006.0
1007.0
1014.0
1019.0
1023.0
1028.0
1038.0
1050.0
1068.0
1089.0
1111.0
1136.0
1158.0
1183.0
1203.0
1224.0
1240.0
1257.0
1285.0
1319.0
1367.0
1412.0
1454.0
1482.0
1496.0
1498.0
1491.0
1476.0
1450.0
1411.0
1345.0
1248.0
1132.0
1026.0
950.0
913.0
906.0
909.0
905.0
901.0
900.0
906.0
909.0
915.0
912.0
903.0
894.0
889.0
887.0
887.0
882.0
885.0
881.0
879.0
877.0
873.0
867.0
862.0
858.0
853.0
855.0
855.0
858.0
851.0
848.0
852.0
858.0
866.0
870.0
870.0
863.0
861.0
861.0
868.0
870.0
869.0
862.0
855.0
853.0
853.0
854.0
852.0
849.0
849.0
850.0
847.0
841.0
830.0
822.0
818.0
820.0
823.0
823.0
821.0
814.0
809.0
809.0
814.0
815.0
812.0
811.0
810.0
816.0
821.0
825.0
823.0
823.0
829.0
838.0
844.0
857.0
863.0
862.0
861.0
866.0
870.0
885.0
890.0
892.0
894.0
899.0
905.0
910.0
913.0
914.0
916.0
920.0
927.0
928.0
929.0
928.0
926.0
928.0
935.0
937.0
940.0
937.0
936.0
941.0
948.0
949.0
942.0
935.0
934.0
939.0
943.0
947.0
946.0
948.0
948.0
947.0
954.0
955.0
953.0
954.0
956.0
959.0
958.0
955.0
956.0
955.0
960.0
966.0
969.0
966.0
963.0
960.0
962.0
965.0
970.0
968.0
966.0
963.0
965.0
971.0
969.0
973.0
970.0
965.0
971.0
973.0
978.0
979.0
978.0
978.0
977.0
980.0
980.0
980.0
978.0
974.0
971.0
968.0
972.0
975.0
974.0
971.0
970.0
970.0
974.0
975.0
973.0
970.0
967.0
967.0
966.0
967.0
968.0
962.0
961.0
960.0
963.0
965.0
960.0
956.0
951.0
956.0
958.0
957.0
956.0
955.0
955.0
955.0
957.0
957.0
955.0
949.0
946.0
949.0
955.0
958.0
956.0
950.0
952.0
954.0
955.0
948.0
946.0
946.0
950.0
952.0
954.0
954.0
955.0
951.0
946.0
948.0
950.0
953.0
951.0
948.0
947.0
948.0
949.0
952.0
950.0
944.0
945.0
952.0
953.0
954.0
951.0
947.0
946.0
947.0
952.0
952.0
951.0
946.0
946.0
949.0
951.0
954.0
949.0
947.0
947.0
946.0
949.0
947.0
946.0
947.0
948.0
949.0
951.0
953.0
949.0
947.0
950.0
951.0
956.0
954.0
949.0
946.0
943.0
945.0
946.0
952.0
954.0
953.0
951.0
950.0
950.0
953.0
953.0
952.0
955.0
954.0
956.0
954.0
954.0
949.0
947.0
952.0
955.0
955.0
954.0
952.0
952.0
955.0
956.0
957.0
953.0
951.0
950.0
951.0
958.0
960.0
955.0
949.0
950.0
958.0
961.0
965.0
964.0
957.0
954.0
952.0
956.0
957.0
956.0
954.0
955.0
954.0
962.0
964.0
961.0
956.0
956.0
958.0
960.0
961.0
961.0
957.0
956.0
953.0
955.0
958.0
957.0
957.0
956.0
961.0
965.0
966.0
966.0
967.0
962.0
957.0
958.0
960.0
959.0
954.0
955.0
959.0
962.0
960.0
962.0
957.0
961.0
960.0
967.0
971.0
970.0
965.0
961.0
959.0
960.0
961.0
962.0
961.0
964.0
967.0
970.0
968.0
965.0
958.0
956.0
957.0
959.0
965.0
967.0
964.0
962.0
964.0
967.0
969.0
966.0
959.0
958.0
964.0
966.0
970.0
969.0
971.0
968.0
965.0
969.0
967.0
965.0
962.0
961.0
963.0
967.0
971.0
972.0
965.0
963.0
966.0
969.0
970.0
966.0
965.0
967.0
965.0
969.0
973.0
973.0
971.0
976.0
981.0
984.0
988.0
988.0
982.0
989.0
996.0
1008.0
1021.0
1034.0
1039.0
1040.0
1036.0
1033.0
1029.0
1018.0
1015.0
1018.0
1017.0
1011.0
1000.0
988.0
980.0
980.0
981.0
982.0
979.0
974.0
966.0
964.0
964.0
969.0
972.0
969.0
964.0
966.0
968.0
967.0
972.0
971.0
968.0
960.0
957.0
956.0
962.0
982.0
1021.0
1093.0
1192.0
1276.0
1345.0
1388.0
1414.0
1420.0
1400.0
1362.0
1284.0
1170.0
1046.0
934.0
880.0
895.0
931.0
947.0
944.0
939.0
941.0
945.0
948.0
947.0
945.0
944.0
948.0
951.0
953.0
952.0
946.0
944.0
943.0
943.0
947.0
944.0
944.0
943.0
941.0
944.0
944.0
942.0
937.0
937.0
942.0
948.0
952.0
947.0
948.0
946.0
950.0
951.0
953.0
954.0
951.0
950.0
954.0
957.0
962.0
961.0
958.0
956.0
960.0
962.0
966.0
967.0
967.0
966.0
967.0
969.0
974.0
972.0
974.0
978.0
978.0
981.0
983.0
981.0
982.0
987.0
991.0
999.0
1004.0
1004.0
1004.0
1006.0
1009.0
1018.0
1024.0
1025.0
1029.0
1030.0
1038.0
1042.0
1051.0
1050.0
1055.0
1059.0
1067.0
1080.0
1084.0
1083.0
1082.0
1084.0
1090.0
1103.0
1110.0
1112.0
1114.0
1116.0
1120.0
1126.0
1127.0
1124.0
1122.0
1125.0
1124.0
1127.0
1129.0
1127.0
1119.0
1120.0
1116.0
1114.0
1110.0
1103.0
1097.0
1092.0
1090.0
1086.0
1080.0
1071.0
1063.0
1056.0
1054.0
1050.0
1045.0
1041.0
1033.0
1031.0
1027.0
1027.0
1023.0
1016.0
1009.0
1004.0
1003.0
1005.0
1006.0
1004.0
1000.0
995.0
993.0
987.0
988.0
986.0
983.0
984.0
986.0
987.0
989.0
988.0
984.0
982.0
981.0
983.0
981.0
980.0
980.0
978.0
980.0
984.0
988.0
987.0
989.0
990.0
998.0
1001.0
1004.0
1004.0
1001.0
1004.0
1008.0
1013.0
1022.0
1033.0
1042.0
1059.0
1082.0
1111.0
1135.0
1155.0
1166.0
1178.0
1194.0
1218.0
1236.0
1253.0
1272.0
1304.0
1347.0
1397.0
1443.0
1479.0
1495.0
1499.0
1500.0
1494.0
1488.0
1474.0
1446.0
1403.0
1336.0
1249.0
1141.0
1032.0
946.0
893.0
880.0
890.0
896.0
894.0
891.0
888.0
894.0
898.0
898.0
888.0
883.0
878.0
878.0
877.0
874.0
868.0
866.0
863.0
863.0
859.0
856.0
855.0
853.0
849.0
843.0
842.0
846.0
842.0
843.0
840.0
841.0
847.0
852.0
855.0
854.0
853.0
857.0
856.0
857.0
855.0
850.0
848.0
848.0
851.0
851.0
849.0
847.0
842.0
842.0
841.0
844.0
841.0
836.0
830.0
826.0
827.0
829.0
826.0
819.0
816.0
814.0
817.0
817.0
812.0
810.0
804.0
804.0
804.0
805.0
803.0
801.0
804.0
804.0
808.0
811.0
813.0
817.0
822.0
827.0
832.0
838.0
842.0
846.0
846.0
850.0
856.0
864.0
868.0
874.0
879.0
882.0
888.0
894.0
892.0
895.0
898.0
903.0
907.0
908.0
906.0
905.0
909.0
915.0
919.0
922.0
921.0
919.0
921.0
926.0
929.0
931.0
931.0
931.0
934.0
937.0
939.0
939.0
938.0
937.0
940.0
942.0
947.0
946.0
949.0
949.0
947.0
949.0
954.0
956.0
955.0
949.0
948.0
948.0
953.0
953.0
954.0
947.0
948.0
953.0
958.0
959.0
957.0
957.0
954.0
957.0
956.0
960.0
962.0
963.0
962.0
963.0
969.0
972.0
971.0
971.0
966.0
969.0
974.0
972.0
971.0
969.0
971.0
975.0
980.0
981.0
978.0
967.0
959.0
959.0
964.0
970.0
968.0
966.0
966.0
969.0
971.0
972.0
965.0
962.0
960.0
962.0
965.0
965.0
965.0
964.0
962.0
963.0
965.0
967.0
959.0
958.0
957.0
956.0
957.0
958.0
955.0
954.0
954.0
953.0
953.0
957.0
952.0
951.0
947.0
949.0
951.0
955.0
954.0
952.0
950.0
950.0
948.0
951.0
953.0
952.0
953.0
956.0
958.0
958.0
954.0
948.0
943.0
945.0
946.0
949.0
947.0
948.0
947.0
949.0
948.0
952.0
950.0
945.0
943.0
948.0
950.0
953.0
950.0
946.0
945.0
949.0
953.0
955.0
953.0
953.0
951.0
950.0
951.0
954.0
955.0
953.0
952.0
950.0
949.0
948.0
948.0
945.0
944.0
948.0
951.0
956.0
956.0
950.0
948.0
947.0
949.0
953.0
953.0
951.0
951.0
953.0
957.0
956.0
953.0
948.0
947.0
951.0
951.0
954.0
955.0
949.0
953.0
953.0
955.0
958.0
955.0
955.0
954.0
953.0
956.0
958.0
957.0
953.0
949.0
950.0
954.0
954.0
953.0
950.0
949.0
952.0
955.0
956.0
956.0
954.0
951.0
958.0
963.0
961.0
963.0
957.0
954.0
954.0
957.0
958.0
958.0
954.0
952.0
950.0
955.0
957.0
956.0
952.0
956.0
958.0
960.0
960.0
961.0
956.0
953.0
957.0
961.0
960.0
959.0
955.0
955.0
956.0
956.0
960.0
962.0
960.0
959.0
963.0
963.0
965.0
961.0
956.0
953.0
957.0
961.0
958.0
959.0
959.0
960.0
963.0
964.0
965.0
961.0
956.0
958.0
962.0
963.0
969.0
964.0
964.0
958.0
959.0
962.0
961.0
961.0
961.0
961.0
963.0
966.0
964.0
961.0
957.0
955.0
956.0
963.0
964.0
966.0
967.0
963.0
966.0
967.0
966.0
964.0
961.0
960.0
962.0
970.0
973.0
969.0
966.0
962.0
964.0
968.0
973.0
971.0
971.0
970.0
971.0
975.0
981.0
982.0
979.0
983.0
986.0
992.0
996.0
1001.0
1007.0
1014.0
1020.0
1022.0
1030.0
1030.0
1026.0
1025.0
1030.0
1033.0
1031.0
1028.0
1017.0
1006.0
1002.0
999.0
996.0
989.0
982.0
975.0
975.0
974.0
972.0
969.0
966.0
963.0
963.0
966.0
967.0
968.0
965.0
963.0
965.0
964.0
958.0
953.0
954.0
972.0
1015.0
1087.0
1186.0
1279.0
1349.0
1388.0
1415.0
1427.0
1415.0
1373.0
1305.0
1198.0
1081.0
968.0
892.0
885.0
917.0
942.0
947.0
945.0
943.0
943.0
945.0
944.0
947.0
947.0
948.0
947.0
946.0
944.0
943.0
946.0
945.0
946.0
944.0
945.0
943.0
946.0
946.0
945.0
946.0
943.0
945.0
948.0
946.0
949.0
947.0
943.0
943.0
946.0
953.0
950.0
947.0
946.0
946.0
951.0
954.0
956.0
957.0
960.0
962.0
962.0
965.0
962.0
961.0
962.0
964.0
969.0
974.0
977.0
975.0
973.0
976.0
982.0
985.0
990.0
988.0
992.0
994.0
1004.0
1009.0
1012.0
1012.0
1014.0
1020.0
1029.0
1035.0
1033.0
1038.0
1043.0
1052.0
1063.0
1068.0
1071.0
1071.0
1078.0
1084.0
1091.0
1098.0
1102.0
1104.0
1106.0
1115.0
1119.0
1125.0
1129.0
1128.0
1129.0
1130.0
1131.0
1125.0
1122.0
1120.0
1117.0
1117.0
1116.0
1114.0
1109.0
1099.0
1093.0
1089.0
1086.0
1083.0
1075.0
1069.0
1060.0
1054.0
1050.0
1043.0
1036.0
1032.0
1028.0
1025.0
1023.0
1020.0
1009.0
1009.0
1005.0
1004.0
1003.0
1000.0
1001.0
996.0
994.0
995.0
996.0
992.0
987.0
985.0
986.0
985.0
991.0
995.0
990.0
988.0
987.0
986.0
990.0
994.0
992.0
995.0
998.0
999.0
1002.0
1006.0
1002.0
1000.0
1003.0
1013.0
1015.0
1016.0
1023.0
1029.0
1045.0
1065.0
1090.0
1117.0
1146.0
1166.0
1187.0
1205.0
1226.0
1256.0
1290.0
1332.0
1382.0
1436.0
1482.0
1506.0
1507.0
1501.0
1489.0
1472.0
1441.0
1395.0
1322.0
1220.0
1111.0
1020.0
956.0
917.0
894.0
890.0
887.0
885.0
890.0
898.0
906.0
910.0
914.0
913.0
907.0
903.0
896.0
891.0
889.0
886.0
880.0
879.0
876.0
872.0
868.0
867.0
870.0
870.0
869.0
864.0
864.0
872.0
876.0
877.0
876.0
878.0
881.0
882.0
882.0
883.0
882.0
877.0
876.0
876.0
880.0
881.0
879.0
877.0
871.0
875.0
872.0
871.0
866.0
864.0
864.0
861.0
860.0
859.0
856.0
851.0
845.0
845.0
847.0
847.0
847.0
847.0
844.0
847.0
848.0
849.0
857.0
855.0
859.0
865.0
872.0
879.0
885.0
889.0
890.0
899.0
909.0
916.0
919.0
922.0
924.0
929.0
931.0
937.0
944.0
942.0
943.0
949.0
949.0
951.0
951.0
949.0
949.0
953.0
959.0
959.0
957.0
956.0
958.0
960.0
959.0
963.0
963.0
958.0
957.0
962.0
965.0
964.0
960.0
958.0
959.0
963.0
964.0
965.0
961.0
962.0
963.0
962.0
968.0
966.0
964.0
965.0
964.0
965.0
973.0
978.0
978.0
974.0
975.0
974.0
981.0
983.0
981.0
980.0
980.0
983.0
987.0
986.0
986.0
984.0
987.0
990.0
993.0
996.0
994.0
993.0
992.0
993.0
993.0
996.0
989.0
988.0
987.0
988.0
991.0
995.0
992.0
990.0
989.0
988.0
991.0
988.0
984.0
984.0
981.0
981.0
984.0
984.0
981.0
978.0
976.0
981.0
981.0
980.0
980.0
972.0
971.0
973.0
971.0
970.0
968.0
964.0
966.0
969.0
972.0
973.0
970.0
965.0
961.0
965.0
968.0
968.0
967.0
961.0
959.0
961.0
961.0
962.0
962.0
959.0
961.0
960.0
958.0
962.0
963.0
962.0
961.0
962.0
965.0
965.0
961.0
959.0
957.0
960.0
959.0
961.0
955.0
953.0
955.0
960.0
964.0
962.0
961.0
954.0
951.0
956.0
960.0
963.0
966.0
957.0
951.0
952.0
957.0
958.0
955.0
952.0
953.0
957.0
958.0
956.0
954.0
952.0
952.0
952.0
957.0
964.0
960.0
957.0
954.0
952.0
954.0
957.0
959.0
954.0
952.0
953.0
957.0
962.0
964.0
960.0
956.0
954.0
954.0
957.0
956.0
954.0
951.0
956.0
958.0
959.0
960.0
959.0
956.0
958.0
962.0
959.0
958.0
954.0
951.0
954.0
957.0
957.0
958.0
953.0
953.0
956.0
957.0
962.0
960.0
954.0
953.0
961.0
964.0
963.0
959.0
956.0
958.0
959.0
962.0
963.0
961.0
954.0
957.0
959.0
962.0
964.0
961.0
957.0
956.0
955.0
959.0
958.0
960.0
953.0
953.0
956.0
960.0
962.0
962.0
961.0
961.0
962.0
961.0
964.0
962.0
963.0
964.0
963.0
963.0
963.0
963.0
960.0
957.0
956.0
965.0
966.0
963.0
961.0
959.0
960.0
961.0
965.0
963.0
962.0
961.0
961.0
964.0
963.0
964.0
961.0
962.0
964.0
970.0
970.0
969.0
964.0
959.0
963.0
968.0
969.0
970.0
970.0
968.0
965.0
968.0
970.0
968.0
962.0
963.0
963.0
966.0
971.0
965.0
964.0
962.0
965.0
968.0
972.0
973.0
973.0
971.0
972.0
973.0
977.0
977.0
977.0
985.0
987.0
990.0
988.0
986.0
990.0
1001.0
1016.0
1033.0
1036.0
1034.0
1031.0
1026.0
1022.0
1017.0
1013.0
1010.0
1006.0
999.0
994.0
989.0
987.0
983.0
976.0
972.0
969.0
969.0
974.0
971.0
968.0
969.0
969.0
975.0
975.0
974.0
966.0
962.0
959.0
961.0
972.0
998.0
1045.0
1124.0
1218.0
1301.0
1360.0
1396.0
1408.0
1396.0
1363.0
1298.0
1198.0
1076.0
963.0
895.0
896.0
925.0
947.0
948.0
943.0
943.0
946.0
946.0
950.0
951.0
951.0
949.0
948.0
949.0
949.0
947.0
946.0
941.0
944.0
948.0
949.0
949.0
946.0
946.0
948.0
951.0
951.0
950.0
947.0
944.0
946.0
950.0
950.0
952.0
951.0
953.0
955.0
957.0
958.0
957.0
956.0
958.0
961.0
967.0
969.0
971.0
965.0
963.0
963.0
963.0
970.0
973.0
976.0
974.0
979.0
980.0
988.0
987.0
992.0
987.0
987.0
991.0
998.0
1001.0
1003.0
1006.0
1010.0
1018.0
1024.0
1027.0
1034.0
1036.0
1045.0
1055.0
1062.0
1067.0
1071.0
1076.0
1080.0
1084.0
1088.0
1090.0
1095.0
1102.0
1106.0
1114.0
1120.0
1118.0
1119.0
1120.0
1124.0
1125.0
1126.0
1124.0
1118.0
1117.0
1115.0
1113.0
1114.0
1108.0
1100.0
1094.0
1087.0
1083.0
1079.0
1071.0
1066.0
1060.0
1057.0
1051.0
1047.0
1040.0
1034.0
1027.0
1021.0
1017.0
1013.0
1013.0
1006.0
1000.0
997.0
992.0
993.0
992.0
988.0
984.0
984.0
984.0
983.0
979.0
975.0
973.0
977.0
982.0
986.0
986.0
985.0
981.0
979.0
983.0
988.0
988.0
990.0
991.0
995.0
1000.0
1007.0
1006.0
1010.0
1017.0
1028.0
1048.0
1078.0
1108.0
1134.0
1153.0
1176.0
1193.0
1208.0
1226.0
1248.0
1273.0
1308.0
1357.0
1412.0
1459.0
1489.0
1496.0
1494.0
1491.0
1480.0
1457.0
1414.0
1335.0
1234.0
1112.0
1002.0
925.0
890.0
886.0
893.0
900.0
902.0
906.0
911.0
913.0
909.0
906.0
899.0
890.0
887.0
884.0
883.0
885.0
883.0
876.0
870.0
866.0
862.0
859.0
853.0
852.0
849.0
847.0
849.0
852.0
853.0
847.0
851.0
854.0
858.0
861.0
863.0
862.0
862.0
863.0
863.0
864.0
863.0
859.0
855.0
848.0
851.0
852.0
851.0
848.0
839.0
836.0
829.0
829.0
833.0
830.0
827.0
821.0
822.0
822.0
822.0
818.0
816.0
814.0
813.0
814.0
813.0
817.0
815.0
814.0
816.0
823.0
829.0
832.0
834.0
837.0
844.0
852.0
856.0
860.0
861.0
864.0
874.0
880.0
886.0
891.0
896.0
899.0
903.0
908.0
910.0
912.0
914.0
917.0
920.0
924.0
928.0
930.0
933.0
933.0
936.0
937.0
938.0
935.0
939.0
937.0
939.0
943.0
945.0
949.0
950.0
947.0
951.0
956.0
958.0
958.0
956.0
955.0
954.0
959.0
963.0
962.0
959.0
959.0
957.0
960.0
964.0
962.0
962.0
962.0
964.0
967.0
963.0
963.0
960.0
963.0
966.0
968.0
972.0
974.0
974.0
975.0
980.0
981.0
982.0
978.0
975.0
974.0
978.0
982.0
986.0
986.0
986.0
984.0
982.0
983.0
984.0
978.0
976.0
974.0
972.0
975.0
979.0
975.0
974.0
971.0
974.0
983.0
983.0
980.0
975.0
970.0
968.0
969.0
973.0
972.0
970.0
966.0
969.0
972.0
972.0
969.0
967.0
963.0
965.0
969.0
970.0
969.0
963.0
960.0
958.0
960.0
967.0
966.0
962.0
959.0
962.0
963.0
963.0
962.0
959.0
957.0
958.0
961.0
963.0
959.0
957.0
956.0
961.0
961.0
962.0
961.0
958.0
956.0
956.0
961.0
963.0
963.0
958.0
958.0
956.0
957.0
959.0
956.0
955.0
952.0
958.0
959.0
962.0
962.0
959.0
955.0
954.0
955.0
955.0
954.0
953.0
954.0
957.0
959.0
962.0
958.0
955.0
952.0
956.0
959.0
963.0
961.0
959.0
957.0
957.0
960.0
962.0
960.0
958.0
956.0
958.0
959.0
960.0
961.0
962.0
963.0
959.0
960.0
958.0
955.0
952.0
953.0
952.0
953.0
956.0
956.0
954.0
955.0
960.0
963.0
962.0
962.0
958.0
953.0
954.0
958.0
961.0
960.0
962.0
960.0
959.0
961.0
962.0
960.0
959.0
957.0
958.0
957.0
957.0
958.0
954.0
956.0
956.0
961.0
965.0
965.0
960.0
957.0
962.0
965.0
966.0
965.0
962.0
955.0
961.0
963.0
964.0
965.0
964.0
962.0
959.0
958.0
961.0
963.0
963.0
961.0
959.0
963.0
967.0
963.0
963.0
965.0
964.0
965.0
966.0
969.0
967.0
964.0
958.0
963.0
965.0
965.0
962.0
959.0
959.0
962.0
966.0
965.0
962.0
961.0
959.0
962.0
963.0
967.0
965.0
964.0
966.0
964.0
964.0
967.0
966.0
967.0
967.0
965.0
967.0
962.0
960.0
956.0
959.0
967.0
972.0
971.0
966.0
961.0
961.0
963.0
965.0
966.0
966.0
964.0
966.0
969.0
970.0
967.0
966.0
964.0
967.0
972.0
973.0
967.0
967.0
965.0
966.0
971.0
975.0
980.0
981.0
981.0
983.0
987.0
991.0
994.0
995.0
998.0
1010.0
1022.0
1026.0
1025.0
1023.0
1023.0
1026.0
1025.0
1034.0
1035.0
1032.0
1024.0
1013.0
1009.0
1006.0
998.0
990.0
979.0
975.0
974.0
975.0
969.0
967.0
966.0
967.0
971.0
970.0
972.0
971.0
967.0
966.0
961.0
956.0
950.0
953.0
972.0
1014.0
1085.0
1182.0
1274.0
1345.0
1394.0
1425.0
1432.0
1417.0
1372.0
1295.0
1183.0
1058.0
943.0
884.0
896.0
930.0
945.0
946.0
947.0
949.0
947.0
948.0
948.0
946.0
949.0
946.0
944.0
939.0
937.0
938.0
942.0
943.0
946.0
944.0
942.0
943.0
945.0
947.0
943.0
939.0
940.0
941.0
945.0
947.0
947.0
943.0
942.0
945.0
951.0
952.0
954.0
954.0
953.0
952.0
951.0
952.0
949.0
947.0
951.0
956.0
958.0
961.0
961.0
961.0
961.0
961.0
968.0
972.0
975.0
974.0
974.0
979.0
983.0
987.0
985.0
986.0
988.0
992.0
1000.0
1005.0
1007.0
1006.0
1006.0
1009.0
1019.0
1021.0
1025.0
1024.0
1028.0
1035.0
1044.0
1053.0
1057.0
1059.0
1063.0
1070.0
1078.0
1086.0
1088.0
1091.0
1096.0
1100.0
1107.0
1114.0
1120.0
1122.0
1119.0
1124.0
1128.0
1130.0
1132.0
1127.0
1125.0
1126.0
1129.0
1133.0
1131.0
1127.0
1117.0
1114.0
1113.0
1112.0
1106.0
1102.0
1097.0
1093.0
1087.0
1083.0
1073.0
1066.0
1059.0
1056.0
1050.0
1049.0
1044.0
1040.0
1037.0
1035.0
1031.0
1025.0
1017.0
1009.0
1005.0
1008.0
1008.0
1008.0
1006.0
1000.0
995.0
993.0
992.0
994.0
989.0
984.0
982.0
981.0
988.0
991.0
990.0
988.0
986.0
984.0
984.0
986.0
987.0
985.0
986.0
987.0
990.0
992.0
992.0
993.0
989.0
993.0
998.0
1002.0
1004.0
999.0
1002.0
1003.0
1007.0
1012.0
1019.0
1025.0
1034.0
1049.0
1065.0
1083.0
1101.0
1120.0
1140.0
1157.0
1177.0
1195.0
1220.0
1248.0
1289.0
1339.0
1396.0
1445.0
1481.0
1492.0
1492.0
1489.0
1486.0
1472.0
1441.0
1396.0
1315.0
1212.0
1108.0
1025.0
968.0
935.0
906.0
884.0
870.0
865.0
866.0
871.0
879.0
888.0
902.0
909.0
906.0
899.0
890.0
888.0
888.0
887.0
887.0
879.0
878.0
875.0
875.0
875.0
872.0
867.0
865.0
866.0
869.0
871.0
868.0
865.0
864.0
867.0
871.0
875.0
877.0
875.0
870.0
876.0
881.0
884.0
880.0
882.0
877.0
873.0
874.0
877.0
874.0
869.0
863.0
864.0
868.0
868.0
870.0
864.0
861.0
859.0
858.0
861.0
858.0
857.0
852.0
854.0
858.0
858.0
852.0
848.0
851.0
857.0
864.0
871.0
872.0
877.0
881.0
880.0
886.0
891.0
898.0
904.0
909.0
915.0
925.0
933.0
938.0
941.0
945.0
951.0
955.0
962.0
963.0
961.0
964.0
966.0
969.0
971.0
974.0
975.0
970.0
966.0
968.0
969.0
970.0
968.0
968.0
967.0
967.0
967.0
962.0
958.0
953.0
956.0
962.0
964.0
962.0
958.0
955.0
955.0
957.0
961.0
957.0
956.0
953.0
953.0
958.0
964.0
964.0
959.0
954.0
956.0
960.0
964.0
965.0
963.0
963.0
964.0
966.0
969.0
971.0
964.0
962.0
964.0
970.0
972.0
972.0
968.0
968.0
970.0
976.0
980.0
977.0
974.0
977.0
979.0
983.0
986.0
984.0
981.0
978.0
981.0
986.0
984.0
984.0
979.0
975.0
974.0
980.0
982.0
983.0
979.0
975.0
976.0
973.0
974.0
970.0
968.0
967.0
972.0
972.0
973.0
968.0
964.0
963.0
960.0
963.0
965.0
964.0
962.0
962.0
962.0
963.0
965.0
963.0
959.0
959.0
960.0
960.0
956.0
955.0
952.0
951.0
954.0
956.0
955.0
953.0
952.0
950.0
952.0
954.0
952.0
952.0
949.0
945.0
950.0
954.0
957.0
957.0
951.0
944.0
942.0
946.0
946.0
942.0
945.0
943.0
947.0
949.0
949.0
950.0
947.0
944.0
946.0
945.0
946.0
939.0
944.0
942.0
945.0
947.0
947.0
947.0
941.0
942.0
948.0
952.0
950.0
949.0
945.0
943.0
940.0
939.0
941.0
941.0
938.0
942.0
947.0
947.0
950.0
947.0
941.0
940.0
942.0
947.0
948.0
949.0
948.0
943.0
945.0
950.0
950.0
949.0
946.0
945.0
946.0
947.0
949.0
949.0
947.0
947.0
950.0
954.0
954.0
951.0
950.0
948.0
950.0
951.0
953.0
951.0
950.0
949.0
945.0
951.0
954.0
952.0
949.0
947.0
947.0
951.0
954.0
952.0
952.0
950.0
949.0
950.0
952.0
952.0
949.0
948.0
951.0
954.0
956.0
956.0
955.0
955.0
954.0
957.0
958.0
954.0
948.0
950.0
952.0
951.0
952.0
954.0
954.0
956.0
956.0
961.0
960.0
955.0
955.0
952.0
954.0
958.0
960.0
958.0
956.0
956.0
957.0
960.0
961.0
960.0
959.0
957.0
960.0
958.0
964.0
962.0
956.0
956.0
958.0
960.0
960.0
956.0
950.0
950.0
953.0
957.0
962.0
960.0
958.0
957.0
955.0
958.0
961.0
962.0
959.0
957.0
957.0
958.0
