# Simple Text Format
# Sampling Rate (Hz):= 360.00
# Resolution:= 12
# Labels:= ECG
954.0
958.0
957.0
956.0
955.0
954.0
957.0
961.0
960.0
959.0
953.0
954.0
958.0
960.0
961.0
960.0
959.0
958.0
960.0
962.0
967.0
966.0
965.0
967.0
972.0
975.0
978.0
972.0
967.0
968.0
970.0
973.0
982.0
987.0
982.0
979.0
983.0
991.0
995.0
995.0
996.0
993.0
995.0
999.0
1003.0
1001.0
1005.0
1006.0
1011.0
1016.0
1019.0
1022.0
1021.0
1028.0
1031.0
1037.0
1041.0
1043.0
1043.0
1046.0
1051.0
1053.0
1058.0
1058.0
1061.0
1061.0
1065.0
1070.0
1073.0
1071.0
1069.0
1068.0
1069.0
1072.0
1074.0
1072.0
1070.0
1069.0
1072.0
1069.0
1066.0
1061.0
1058.0
1059.0
1060.0
1060.0
1055.0
1052.0
1042.0
1037.0
1033.0
1032.0
1031.0
1026.0
1019.0
1015.0
1019.0
1019.0
1022.0
1020.0
1013.0
1011.0
1008.0
1011.0
1012.0
1006.0
1003.0
1004.0
1004.0
1004.0
1003.0
1002.0
1000.0
1003.0
1007.0
1011.0
1011.0
1008.0
1011.0
1013.0
1017.0
1020.0
1017.0
1018.0
1015.0
1013.0
1017.0
1023.0
1027.0
1026.0
1023.0
1023.0
1029.0
1032.0
1037.0
1038.0
1039.0
1042.0
1049.0
1059.0
1065.0
1076.0
1090.0
1109.0
1126.0
1145.0
1160.0
1172.0
1184.0
1201.0
1217.0
1240.0
1264.0
1285.0
1313.0
1340.0
1371.0
1397.0
1417.0
1434.0
1442.0
1453.0
1462.0
1475.0
1471.0
1454.0
1430.0
1390.0
1343.0
1277.0
1179.0
1073.0
1005.0
984.0
988.0
991.0
988.0
980.0
965.0
954.0
945.0
941.0
933.0
926.0
916.0
912.0
909.0
909.0
913.0
906.0
899.0
899.0
900.0
906.0
906.0
899.0
891.0
884.0
876.0
876.0
877.0
879.0
880.0
884.0
889.0
893.0
894.0
892.0
889.0
887.0
892.0
896.0
898.0
898.0
897.0
895.0
894.0
891.0
884.0
878.0
869.0
871.0
871.0
873.0
865.0
865.0
863.0
864.0
855.0
855.0
854.0
848.0
846.0
845.0
851.0
851.0
850.0
847.0
842.0
842.0
845.0
850.0
853.0
855.0
859.0
864.0
869.0
874.0
878.0
881.0
882.0
884.0
890.0
895.0
902.0
906.0
906.0
908.0
914.0
920.0
923.0
925.0
927.0
930.0
931.0
937.0
942.0
940.0
938.0
935.0
937.0
942.0
947.0
944.0
944.0
940.0
943.0
950.0
954.0
954.0
952.0
951.0
953.0
956.0
956.0
958.0
957.0
957.0
958.0
960.0
962.0
954.0
953.0
956.0
964.0
966.0
970.0
966.0
966.0
968.0
971.0
975.0
971.0
971.0
968.0
969.0
976.0
983.0
984.0
982.0
982.0
986.0
990.0
992.0
989.0
990.0
988.0
987.0
988.0
991.0
994.0
991.0
988.0
991.0
994.0
994.0
996.0
992.0
991.0
988.0
989.0
992.0
988.0
989.0
985.0
983.0
986.0
988.0
992.0
992.0
990.0
987.0
986.0
990.0
988.0
985.0
985.0
983.0
985.0
985.0
985.0
983.0
979.0
976.0
979.0
979.0
980.0
978.0
975.0
971.0
975.0
976.0
974.0
972.0
969.0
967.0
972.0
978.0
981.0
979.0
971.0
969.0
969.0
970.0
971.0
969.0
972.0
974.0
977.0
978.0
979.0
975.0
975.0
972.0
973.0
974.0
974.0
973.0
972.0
973.0
974.0
973.0
974.0
974.0
973.0
974.0
974.0
977.0
980.0
982.0
980.0
977.0
975.0
975.0
975.0
966.0
960.0
961.0
965.0
967.0
968.0
969.0
968.0
969.0
973.0
975.0
975.0
976.0
973.0
974.0
972.0
975.0
977.0
975.0
971.0
972.0
973.0
974.0
977.0
976.0
973.0
974.0
979.0
981.0
979.0
977.0
975.0
974.0
983.0
986.0
990.0
985.0
979.0
974.0
976.0
981.0
982.0
985.0
982.0
983.0
983.0
983.0
984.0
987.0
984.0
987.0
989.0
991.0
988.0
983.0
980.0
981.0
984.0
986.0
988.0
986.0
979.0
980.0
982.0
985.0
987.0
989.0
989.0
993.0
996.0
998.0
996.0
991.0
989.0
988.0
988.0
994.0
993.0
990.0
984.0
984.0
998.0
1016.0
1026.0
1021.0
1009.0
989.0
979.0
978.0
985.0
991.0
994.0
995.0
1002.0
1008.0
1015.0
1019.0
1015.0
1005.0
992.0
982.0
983.0
987.0
990.0
992.0
993.0
992.0
995.0
1002.0
1007.0
1013.0
1022.0
1028.0
1023.0
1009.0
998.0
991.0
993.0
1001.0
1008.0
1010.0
1007.0
1005.0
1014.0
1021.0
1021.0
1016.0
1004.0
996.0
995.0
999.0
1004.0
1007.0
1004.0
1005.0
1002.0
1005.0
1008.0
1010.0
1010.0
1011.0
1017.0
1021.0
1025.0
1025.0
1029.0
1032.0
1038.0
1044.0
1048.0
1054.0
1059.0
1069.0
1079.0
1084.0
1085.0
1084.0
1084.0
1085.0
1087.0
1087.0
1079.0
1066.0
1055.0
1046.0
1043.0
1040.0
1038.0
1034.0
1027.0
1018.0
1014.0
1014.0
1018.0
1019.0
1016.0
1012.0
1008.0
1002.0
1000.0
1000.0
1000.0
993.0
995.0
993.0
1002.0
1021.0
1057.0
1126.0
1213.0
1290.0
1350.0
1382.0
1402.0
1408.0
1400.0
1368.0
1295.0
1185.0
1057.0
945.0
909.0
936.0
970.0
980.0
976.0
971.0
978.0
985.0
990.0
989.0
985.0
986.0
986.0
990.0
992.0
992.0
991.0
988.0
987.0
990.0
989.0
992.0
991.0
990.0
989.0
990.0
987.0
988.0
988.0
986.0
984.0
984.0
981.0
983.0
986.0
987.0
993.0
997.0
1001.0
998.0
995.0
993.0
991.0
994.0
997.0
1000.0
1007.0
1010.0
1014.0
1014.0
1009.0
1007.0
1007.0
1012.0
1020.0
1027.0
1024.0
1021.0
1012.0
1006.0
1011.0
1022.0
1023.0
1025.0
1025.0
1031.0
1040.0
1048.0
1056.0
1058.0
1061.0
1064.0
1071.0
1076.0
1079.0
1079.0
1073.0
1073.0
1078.0
1086.0
1091.0
1093.0
1095.0
1098.0
1105.0
1109.0
1108.0
1109.0
1104.0
1101.0
1100.0
1106.0
1111.0
1115.0
1117.0
1113.0
1105.0
1101.0
1097.0
1091.0
1084.0
1075.0
1070.0
1071.0
1072.0
1065.0
1060.0
1058.0
1053.0
1049.0
1048.0
1041.0
1037.0
1032.0
1032.0
1033.0
1030.0
1025.0
1019.0
1014.0
1016.0
1016.0
1017.0
1012.0
1009.0
1005.0
1007.0
1009.0
1009.0
1007.0
999.0
998.0
1004.0
1008.0
1009.0
1006.0
1004.0
1003.0
1004.0
1009.0
1011.0
1009.0
1008.0
1010.0
1015.0
1015.0
1008.0
1005.0
1000.0
1001.0
1005.0
1011.0
1015.0
1016.0
1014.0
1014.0
1021.0
1027.0
1035.0
1041.0
1051.0
1064.0
1082.0
1104.0
1119.0
1131.0
1143.0
1156.0
1171.0
1189.0
1202.0
1215.0
1228.0
1244.0
1267.0
1293.0
1321.0
1352.0
1372.0
1388.0
1402.0
1417.0
1431.0
1444.0
1449.0
1449.0
1454.0
1450.0
1430.0
1403.0
1351.0
1260.0
1142.0
1044.0
999.0
987.0
981.0
965.0
946.0
932.0
925.0
920.0
910.0
899.0
891.0
891.0
889.0
892.0
885.0
872.0
864.0
855.0
849.0
846.0
847.0
849.0
851.0
857.0
855.0
852.0
848.0
848.0
852.0
856.0
860.0
858.0
858.0
856.0
856.0
864.0
867.0
867.0
866.0
865.0
867.0
868.0
859.0
848.0
838.0
831.0
833.0
832.0
833.0
832.0
828.0
823.0
821.0
819.0
820.0
815.0
815.0
810.0
810.0
814.0
813.0
810.0
808.0
802.0
800.0
801.0
802.0
804.0
803.0
810.0
816.0
817.0
814.0
806.0
810.0
815.0
827.0
838.0
844.0
842.0
843.0
849.0
856.0
866.0
876.0
884.0
885.0
889.0
894.0
902.0
912.0
919.0
917.0
906.0
897.0
897.0
904.0
916.0
925.0
931.0
930.0
930.0
929.0
925.0
925.0
931.0
937.0
942.0
933.0
916.0
905.0
908.0
923.0
934.0
931.0
927.0
918.0
917.0
922.0
932.0
941.0
947.0
952.0
951.0
952.0
955.0
961.0
966.0
962.0
948.0
940.0
938.0
944.0
950.0
957.0
961.0
968.0
970.0
972.0
970.0
971.0
973.0
970.0
967.0
965.0
963.0
965.0
969.0
976.0
981.0
980.0
968.0
965.0
967.0
974.0
976.0
979.0
973.0
970.0
969.0
974.0
977.0
976.0
973.0
968.0
969.0
970.0
974.0
976.0
977.0
975.0
973.0
972.0
969.0
972.0
975.0
978.0
979.0
972.0
963.0
958.0
955.0
950.0
948.0
949.0
955.0
958.0
955.0
960.0
960.0
964.0
963.0
966.0
965.0
960.0
959.0
961.0
965.0
970.0
970.0
969.0
970.0
972.0
973.0
972.0
960.0
953.0
946.0
948.0
954.0
958.0
958.0
955.0
956.0
955.0
957.0
953.0
952.0
953.0
953.0
959.0
959.0
964.0
962.0
961.0
958.0
961.0
963.0
964.0
962.0
960.0
961.0
969.0
969.0
968.0
970.0
969.0
968.0
971.0
972.0
973.0
973.0
973.0
972.0
973.0
974.0
977.0
974.0
971.0
975.0
975.0
978.0
980.0
980.0
979.0
972.0
976.0
978.0
979.0
975.0
971.0
969.0
974.0
977.0
979.0
980.0
979.0
980.0
980.0
978.0
979.0
978.0
978.0
975.0
975.0
973.0
979.0
978.0
975.0
974.0
976.0
978.0
981.0
978.0
976.0
976.0
979.0
980.0
980.0
976.0
974.0
971.0
972.0
977.0
977.0
976.0
973.0
979.0
983.0
988.0
984.0
980.0
972.0
965.0
962.0
967.0
971.0
971.0
971.0
970.0
973.0
974.0
974.0
975.0
972.0
971.0
978.0
985.0
987.0
989.0
987.0
983.0
981.0
977.0
977.0
977.0
976.0
975.0
974.0
974.0
972.0
970.0
968.0
969.0
973.0
978.0
987.0
988.0
988.0
991.0
998.0
1003.0
1005.0
1010.0
1013.0
1023.0
1037.0
1048.0
1052.0
1051.0
1049.0
1047.0
1046.0
1053.0
1056.0
1053.0
1046.0
1036.0
1030.0
1024.0
1022.0
1011.0
1007.0
1003.0
996.0
996.0
989.0
991.0
986.0
986.0
986.0
987.0
990.0
989.0
986.0
986.0
984.0
981.0
977.0
981.0
995.0
1036.0
1101.0
1183.0
1270.0
1338.0
1378.0
1404.0
1414.0
1407.0
1374.0
1299.0
1192.0
1064.0
940.0
887.0
901.0
942.0
959.0
962.0
962.0
967.0
974.0
974.0
966.0
962.0
964.0
965.0
963.0
966.0
963.0
961.0
963.0
964.0
966.0
967.0
962.0
959.0
962.0
965.0
971.0
968.0
968.0
970.0
974.0
976.0
975.0
973.0
973.0
977.0
977.0
978.0
980.0
978.0
977.0
979.0
984.0
986.0
984.0
982.0
980.0
981.0
992.0
995.0
996.0
993.0
988.0
988.0
992.0
1002.0
1007.0
1011.0
1015.0
1015.0
1015.0
1020.0
1027.0
1032.0
1029.0
1028.0
1034.0
1041.0
1050.0
1053.0
1056.0
1056.0
1061.0
1066.0
1070.0
1072.0
1075.0
1080.0
1087.0
1094.0
1097.0
1096.0
1094.0
1094.0
1098.0
1099.0
1100.0
1101.0
1095.0
1090.0
1090.0
1091.0
1088.0
1088.0
1079.0
1075.0
1076.0
1072.0
1065.0
1061.0
1056.0
1051.0
1047.0
1044.0
1046.0
1042.0
1034.0
1029.0
1025.0
1026.0
1021.0
1019.0
1015.0
1014.0
1013.0
1014.0
1012.0
1007.0
1003.0
999.0
999.0
1000.0
1001.0
994.0
991.0
990.0
992.0
991.0
992.0
991.0
989.0
988.0
990.0
992.0
997.0
998.0
993.0
987.0
979.0
980.0
987.0
993.0
993.0
993.0
998.0
1003.0
1005.0
1004.0
1005.0
1006.0
1006.0
1004.0
1008.0
1006.0
1001.0
999.0
1003.0
1008.0
1010.0
1008.0
1004.0
1007.0
1014.0
1024.0
1034.0
1035.0
1032.0
1031.0
1029.0
1028.0
1030.0
1032.0
1025.0
1014.0
994.0
965.0
928.0
889.0
863.0
845.0
833.0
815.0
793.0
779.0
764.0
759.0
765.0
781.0
804.0
832.0
859.0
892.0
929.0
962.0
998.0
1021.0
1029.0
1019.0
1001.0
979.0
961.0
945.0
934.0
928.0
932.0
936.0
936.0
933.0
926.0
930.0
932.0
936.0
937.0
935.0
932.0
936.0
939.0
950.0
953.0
953.0
948.0
947.0
952.0
953.0
958.0
958.0
955.0
949.0
952.0
959.0
966.0
965.0
966.0
968.0
968.0
972.0
976.0
977.0
971.0
974.0
983.0
989.0
994.0
992.0
993.0
995.0
1003.0
1008.0
1019.0
1020.0
1022.0
1023.0
1031.0
1039.0
1042.0
1043.0
1052.0
1067.0
1085.0
1100.0
1107.0
1107.0
1107.0
1109.0
1114.0
1118.0
1121.0
1124.0
1125.0
1126.0
1134.0
1146.0
1158.0
1161.0
1154.0
1139.0
1121.0
1109.0
1101.0
1098.0
1098.0
1098.0
1096.0
1100.0
1095.0
1087.0
1079.0
1073.0
1068.0
1064.0
1064.0
1064.0
1058.0
1049.0
1039.0
1025.0
1013.0
1006.0
1005.0
1003.0
999.0
997.0
994.0
989.0
980.0
983.0
989.0
993.0
989.0
974.0
962.0
959.0
962.0
967.0
968.0
969.0
967.0
968.0
970.0
977.0
983.0
985.0
979.0
977.0
980.0
982.0
986.0
987.0
980.0
965.0
953.0
955.0
960.0
964.0
962.0
963.0
969.0
974.0
982.0
990.0
996.0
994.0
975.0
947.0
918.0
906.0
914.0
939.0
958.0
970.0
964.0
948.0
932.0
930.0
942.0
957.0
957.0
937.0
919.0
908.0
909.0
919.0
917.0
904.0
883.0
870.0
868.0
882.0
896.0
902.0
903.0
897.0
898.0
894.0
894.0
892.0
891.0
894.0
897.0
900.0
899.0
899.0
900.0
897.0
899.0
895.0
896.0
892.0
890.0
891.0
894.0
901.0
903.0
900.0
896.0
895.0
893.0
893.0
892.0
894.0
890.0
886.0
888.0
892.0
896.0
893.0
890.0
888.0
891.0
895.0
894.0
889.0
881.0
880.0
886.0
893.0
897.0
897.0
893.0
886.0
884.0
888.0
893.0
892.0
884.0
886.0
885.0
889.0
888.0
888.0
890.0
888.0
885.0
892.0
897.0
900.0
894.0
892.0
892.0
894.0
896.0
899.0
898.0
895.0
892.0
896.0
898.0
893.0
884.0
883.0
890.0
898.0
901.0
899.0
897.0
900.0
896.0
894.0
902.0
905.0
902.0
898.0
892.0
894.0
898.0
902.0
900.0
901.0
902.0
905.0
903.0
903.0
908.0
903.0
903.0
904.0
906.0
903.0
899.0
897.0
899.0
900.0
903.0
905.0
900.0
900.0
905.0
915.0
920.0
921.0
917.0
912.0
911.0
908.0
908.0
905.0
901.0
902.0
906.0
911.0
913.0
911.0
909.0
909.0
911.0
921.0
930.0
932.0
934.0
930.0
930.0
934.0
947.0
956.0
956.0
963.0
966.0
970.0
968.0
962.0
957.0
953.0
959.0
964.0
968.0
966.0
956.0
944.0
935.0
930.0
930.0
929.0
925.0
913.0
911.0
913.0
915.0
916.0
914.0
911.0
911.0
914.0
916.0
913.0
907.0
904.0
896.0
892.0
897.0
916.0
955.0
1026.0
1123.0
1212.0
1284.0
1334.0
1368.0
1379.0
1360.0
1317.0
1233.0
1112.0
984.0
873.0
840.0
867.0
897.0
907.0
900.0
894.0
900.0
909.0
915.0
915.0
907.0
904.0
904.0
905.0
909.0
911.0
911.0
903.0
898.0
896.0
897.0
893.0
891.0
891.0
893.0
897.0
901.0
902.0
903.0
897.0
897.0
899.0
903.0
903.0
905.0
907.0
911.0
909.0
903.0
897.0
895.0
898.0
903.0
907.0
911.0
911.0
913.0
911.0
915.0
924.0
927.0
922.0
913.0
916.0
920.0
929.0
932.0
932.0
929.0
929.0
936.0
943.0
947.0
950.0
950.0
950.0
953.0
957.0
958.0
958.0
958.0
964.0
973.0
985.0
990.0
989.0
984.0
987.0
1000.0
1010.0
1020.0
1020.0
1019.0
1018.0
1027.0
1033.0
1037.0
1029.0
1021.0
1017.0
1020.0
1024.0
1030.0
1029.0
1024.0
1021.0
1019.0
1020.0
1016.0
1013.0
999.0
986.0
986.0
986.0
983.0
978.0
979.0
979.0
981.0
972.0
969.0
967.0
960.0
955.0
952.0
950.0
951.0
949.0
945.0
942.0
944.0
948.0
948.0
948.0
939.0
935.0
938.0
944.0
949.0
946.0
939.0
932.0
936.0
935.0
936.0
935.0
941.0
948.0
951.0
952.0
954.0
944.0
934.0
929.0
935.0
941.0
942.0
940.0
943.0
951.0
959.0
965.0
968.0
970.0
968.0
969.0
972.0
978.0
990.0
1003.0
1022.0
1045.0
1074.0
1095.0
1121.0
1149.0
1177.0
1210.0
1239.0
1271.0
1312.0
1347.0
1376.0
1387.0
1384.0
1376.0
1357.0
1330.0
1279.0
1209.0
1124.0
1035.0
957.0
914.0
903.0
910.0
913.0
916.0
917.0
917.0
914.0
906.0
903.0
903.0
902.0
898.0
890.0
883.0
882.0
883.0
882.0
879.0
878.0
871.0
869.0
871.0
872.0
872.0
869.0
870.0
870.0
877.0
875.0
875.0
876.0
883.0
890.0
902.0
903.0
892.0
878.0
877.0
878.0
881.0
883.0
883.0
882.0
881.0
882.0
879.0
875.0
865.0
860.0
867.0
875.0
876.0
875.0
871.0
864.0
860.0
857.0
859.0
861.0
862.0
861.0
854.0
857.0
863.0
870.0
874.0
874.0
879.0
885.0
890.0
898.0
897.0
907.0
909.0
911.0
912.0
917.0
919.0
920.0
920.0
925.0
932.0
937.0
940.0
944.0
941.0
934.0
937.0
943.0
944.0
935.0
931.0
936.0
944.0
947.0
942.0
939.0
938.0
943.0
944.0
941.0
934.0
931.0
931.0
933.0
937.0
943.0
942.0
941.0
940.0
939.0
939.0
938.0
938.0
937.0
939.0
941.0
943.0
951.0
953.0
956.0
951.0
947.0
947.0
954.0
957.0
957.0
950.0
955.0
962.0
968.0
969.0
969.0
965.0
970.0
972.0
972.0
970.0
962.0
960.0
964.0
968.0
973.0
975.0
972.0
966.0
963.0
966.0
972.0
978.0
976.0
975.0
972.0
973.0
973.0
968.0
964.0
961.0
960.0
960.0
963.0
968.0
966.0
958.0
953.0
949.0
955.0
959.0
960.0
960.0
960.0
959.0
955.0
952.0
949.0
949.0
953.0
953.0
950.0
950.0
943.0
937.0
940.0
952.0
956.0
954.0
949.0
948.0
954.0
957.0
956.0
954.0
951.0
946.0
945.0
945.0
944.0
946.0
941.0
939.0
940.0
943.0
949.0
951.0
948.0
943.0
944.0
946.0
950.0
956.0
953.0
946.0
941.0
942.0
939.0
938.0
935.0
938.0
943.0
948.0
952.0
948.0
944.0
944.0
949.0
952.0
950.0
946.0
939.0
939.0
941.0
940.0
945.0
956.0
960.0
962.0
960.0
957.0
961.0
963.0
955.0
939.0
928.0
931.0
943.0
948.0
947.0
951.0
963.0
964.0
952.0
939.0
934.0
933.0
931.0
935.0
936.0
940.0
942.0
944.0
947.0
948.0
949.0
945.0
942.0
946.0
949.0
951.0
957.0
962.0
965.0
965.0
964.0
961.0
956.0
954.0
949.0
946.0
948.0
957.0
962.0
959.0
952.0
951.0
956.0
962.0
962.0
959.0
952.0
948.0
948.0
950.0
955.0
957.0
952.0
950.0
955.0
961.0
962.0
960.0
959.0
963.0
964.0
962.0
962.0
961.0
959.0
956.0
956.0
954.0
962.0
963.0
959.0
955.0
961.0
970.0
980.0
983.0
973.0
963.0
956.0
957.0
961.0
963.0
961.0
963.0
965.0
962.0
963.0
965.0
967.0
968.0
971.0
974.0
973.0
968.0
963.0
960.0
962.0
968.0
972.0
973.0
967.0
965.0
970.0
974.0
977.0
976.0
976.0
977.0
982.0
988.0
995.0
999.0
995.0
994.0
999.0
1009.0
1021.0
1028.0
1031.0
1031.0
1035.0
1040.0
1042.0
1040.0
1040.0
1036.0
1030.0
1019.0
1005.0
998.0
1000.0
1003.0
997.0
992.0
987.0
984.0
981.0
979.0
982.0
986.0
986.0
986.0
979.0
972.0
970.0
972.0
976.0
967.0
955.0
939.0
932.0
944.0
974.0
1025.0
1097.0
1187.0
1284.0
1356.0
1402.0
1426.0
1431.0
1417.0
1373.0
1283.0
1159.0
1031.0
925.0
904.0
926.0
949.0
950.0
946.0
944.0
950.0
956.0
959.0
962.0
961.0
957.0
955.0
957.0
957.0
960.0
958.0
949.0
946.0
943.0
946.0
955.0
954.0
953.0
952.0
953.0
956.0
962.0
960.0
958.0
953.0
954.0
953.0
954.0
954.0
952.0
952.0
960.0
963.0
968.0
974.0
976.0
973.0
965.0
965.0
968.0
973.0
971.0
964.0
968.0
973.0
978.0
975.0
974.0
976.0
980.0
984.0
982.0
985.0
989.0
991.0
997.0
998.0
1002.0
1002.0
1001.0
997.0
998.0
1005.0
1015.0
1019.0
1022.0
1026.0
1027.0
1034.0
1037.0
1042.0
1044.0
1046.0
1057.0
1067.0
1071.0
1069.0
1063.0
1057.0
1057.0
1064.0
1071.0
1076.0
1075.0
1076.0
1075.0
1072.0
1073.0
1075.0
1073.0
1077.0
1074.0
1073.0
1077.0
1076.0
1071.0
1063.0
1057.0
1060.0
1057.0
1051.0
1048.0
1043.0
1042.0
1041.0
1039.0
1037.0
1033.0
1025.0
1018.0
1014.0
1014.0
1010.0
1006.0
1004.0
1011.0
1015.0
1012.0
998.0
987.0
985.0
989.0
991.0
991.0
988.0
981.0
986.0
991.0
996.0
990.0
985.0
984.0
987.0
987.0
993.0
996.0
994.0
993.0
993.0
996.0
1002.0
1005.0
1005.0
1003.0
1005.0
1006.0
1002.0
1000.0
999.0
1001.0
1005.0
1013.0
1021.0
1036.0
1054.0
1066.0
1081.0
1099.0
1119.0
1137.0
1154.0
1166.0
1183.0
1203.0
1225.0
1251.0
1277.0
1299.0
1325.0
1355.0
1391.0
1424.0
1451.0
1461.0
1460.0
1452.0
1436.0
1409.0
1365.0
1303.0
1236.0
1172.0
1113.0
1046.0
992.0
958.0
948.0
945.0
940.0
939.0
935.0
930.0
930.0
928.0
929.0
924.0
917.0
908.0
901.0
902.0
903.0
902.0
897.0
890.0
888.0
886.0
885.0
885.0
880.0
877.0
874.0
876.0
873.0
874.0
881.0
880.0
877.0
878.0
883.0
883.0
880.0
874.0
876.0
878.0
881.0
881.0
879.0
874.0
869.0
865.0
867.0
873.0
871.0
862.0
854.0
852.0
854.0
858.0
849.0
838.0
834.0
830.0
832.0
834.0
829.0
828.0
828.0
829.0
830.0
825.0
824.0
824.0
824.0
832.0
835.0
835.0
838.0
840.0
849.0
857.0
860.0
864.0
866.0
866.0
866.0
867.0
880.0
887.0
886.0
891.0
892.0
898.0
905.0
915.0
917.0
916.0
915.0
917.0
927.0
931.0
928.0
926.0
926.0
932.0
938.0
944.0
945.0
943.0
942.0
943.0
943.0
946.0
946.0
946.0
948.0
950.0
956.0
957.0
954.0
955.0
953.0
956.0
959.0
963.0
965.0
964.0
964.0
966.0
967.0
967.0
969.0
967.0
967.0
970.0
974.0
978.0
981.0
978.0
974.0
974.0
979.0
985.0
986.0
986.0
988.0
989.0
991.0
988.0
987.0
979.0
979.0
982.0
986.0
994.0
992.0
989.0
991.0
992.0
1001.0
1006.0
1003.0
996.0
993.0
994.0
994.0
993.0
991.0
984.0
984.0
982.0
981.0
985.0
985.0
988.0
987.0
989.0
992.0
991.0
989.0
986.0
985.0
985.0
985.0
988.0
984.0
981.0
980.0
981.0
984.0
986.0
985.0
981.0
977.0
972.0
972.0
977.0
980.0
981.0
979.0
975.0
977.0
976.0
970.0
963.0
959.0
967.0
973.0
973.0
972.0
971.0
971.0
973.0
976.0
975.0
974.0
970.0
965.0
967.0
972.0
968.0
968.0
966.0
969.0
968.0
969.0
972.0
974.0
975.0
971.0
971.0
968.0
970.0
965.0
967.0
972.0
971.0
972.0
967.0
962.0
959.0
964.0
969.0
972.0
970.0
968.0
960.0
962.0
966.0
970.0
972.0
970.0
972.0
969.0
969.0
972.0
972.0
970.0
970.0
968.0
970.0
969.0
967.0
966.0
965.0
969.0
969.0
970.0
967.0
965.0
965.0
963.0
966.0
969.0
972.0
973.0
968.0
962.0
966.0
967.0
970.0
971.0
969.0
966.0
967.0
966.0
973.0
974.0
972.0
968.0
963.0
962.0
965.0
970.0
969.0
965.0
966.0
972.0
975.0
974.0
974.0
972.0
973.0
975.0
973.0
973.0
972.0
973.0
974.0
975.0
976.0
975.0
967.0
961.0
963.0
967.0
972.0
974.0
971.0
969.0
967.0
970.0
975.0
973.0
970.0
966.0
964.0
968.0
969.0
971.0
967.0
967.0
968.0
974.0
981.0
981.0
974.0
971.0
967.0
964.0
970.0
972.0
970.0
969.0
967.0
974.0
970.0
968.0
965.0
960.0
963.0
967.0
974.0
971.0
970.0
972.0
971.0
976.0
979.0
981.0
977.0
974.0
968.0
969.0
975.0
982.0
980.0
978.0
979.0
981.0
985.0
985.0
988.0
987.0
986.0
986.0
988.0
994.0
999.0
998.0
997.0
1004.0
1013.0
1025.0
1025.0
1022.0
1022.0
1026.0
1028.0
1027.0
1025.0
1024.0
1025.0
1023.0
1020.0
1014.0
1005.0
996.0
993.0
993.0
994.0
989.0
984.0
981.0
980.0
978.0
977.0
973.0
972.0
974.0
975.0
976.0
977.0
976.0
970.0
968.0
972.0
987.0
1021.0
1069.0
1133.0
1204.0
1268.0
1313.0
1340.0
1357.0
1360.0
1346.0
1308.0
1246.0
1159.0
1063.0
981.0
944.0
949.0
962.0
970.0
963.0
957.0
956.0
960.0
960.0
961.0
956.0
952.0
950.0
948.0
948.0
945.0
947.0
944.0
945.0
949.0
955.0
957.0
954.0
946.0
947.0
949.0
952.0
951.0
948.0
943.0
942.0
945.0
949.0
952.0
954.0
951.0
945.0
940.0
944.0
949.0
950.0
948.0
948.0
949.0
953.0
956.0
956.0
955.0
955.0
960.0
963.0
959.0
958.0
958.0
961.0
967.0
968.0
969.0
969.0
967.0
964.0
971.0
975.0
978.0
982.0
983.0
982.0
985.0
991.0
993.0
997.0
993.0
995.0
998.0
1006.0
1015.0
1021.0
1020.0
1020.0
1023.0
1030.0
1036.0
1037.0
1038.0
1039.0
1043.0
1046.0
1052.0
1052.0
1056.0
1058.0
1062.0
1067.0
1068.0
1068.0
1065.0
1061.0
1062.0
1062.0
1064.0
1061.0
1055.0
1053.0
1050.0
1054.0
1052.0
1046.0
1044.0
1041.0
1035.0
1034.0
1034.0
1028.0
1023.0
1018.0
1015.0
1016.0
1017.0
1014.0
1008.0
1005.0
1005.0
1005.0
1007.0
1003.0
998.0
992.0
994.0
993.0
997.0
998.0
994.0
987.0
989.0
988.0
987.0
984.0
984.0
983.0
988.0
986.0
987.0
984.0
984.0
984.0
987.0
991.0
991.0
992.0
990.0
988.0
991.0
995.0
999.0
998.0
999.0
1001.0
1008.0
1011.0
1012.0
1011.0
1010.0
1014.0
1018.0
1027.0
1037.0
1047.0
1054.0
1065.0
1084.0
1107.0
1124.0
1140.0
1151.0
1165.0
1186.0
1203.0
1223.0
1248.0
1267.0
1291.0
1318.0
1348.0
1377.0
1399.0
1409.0
1416.0
1423.0
1421.0
1412.0
1392.0
1366.0
1335.0
1293.0
1251.0
1202.0
1149.0
1087.0
1027.0
989.0
975.0
972.0
964.0
952.0
944.0
936.0
939.0
934.0
934.0
931.0
929.0
926.0
924.0
922.0
917.0
911.0
904.0
902.0
902.0
900.0
895.0
890.0
887.0
887.0
888.0
890.0
891.0
893.0
890.0
892.0
895.0
899.0
897.0
897.0
897.0
895.0
895.0
898.0
896.0
892.0
891.0
889.0
890.0
889.0
885.0
880.0
878.0
879.0
877.0
876.0
871.0
865.0
862.0
860.0
860.0
855.0
853.0
849.0
845.0
847.0
848.0
845.0
843.0
839.0
837.0
843.0
846.0
853.0
848.0
850.0
853.0
858.0
866.0
874.0
876.0
880.0
880.0
885.0
894.0
901.0
902.0
906.0
913.0
919.0
925.0
931.0
933.0
935.0
940.0
948.0
950.0
954.0
958.0
957.0
958.0
958.0
965.0
967.0
967.0
963.0
967.0
970.0
976.0
974.0
974.0
972.0
973.0
975.0
977.0
980.0
976.0
975.0
975.0
976.0
981.0
983.0
982.0
981.0
981.0
982.0
984.0
985.0
985.0
984.0
986.0
988.0
990.0
985.0
987.0
986.0
984.0
985.0
989.0
995.0
995.0
994.0
991.0
987.0
992.0
992.0
993.0
992.0
994.0
993.0
993.0
998.0
997.0
998.0
996.0
996.0
996.0
1000.0
1000.0
994.0
992.0
990.0
993.0
992.0
989.0
984.0
983.0
985.0
984.0
990.0
988.0
984.0
982.0
979.0
980.0
984.0
980.0
979.0
971.0
974.0
977.0
976.0
975.0
973.0
968.0
969.0
972.0
971.0
970.0
970.0
965.0
965.0
964.0
961.0
961.0
960.0
957.0
958.0
963.0
962.0
957.0
955.0
955.0
956.0
954.0
960.0
960.0
955.0
952.0
952.0
953.0
956.0
954.0
951.0
950.0
954.0
955.0
957.0
952.0
949.0
945.0
945.0
947.0
951.0
953.0
949.0
945.0
946.0
949.0
951.0
951.0
950.0
946.0
946.0
947.0
948.0
945.0
943.0
941.0
942.0
944.0
947.0
944.0
939.0
944.0
942.0
946.0
949.0
950.0
948.0
943.0
940.0
942.0
944.0
945.0
945.0
944.0
945.0
943.0
942.0
942.0
942.0
939.0
942.0
945.0
944.0
943.0
943.0
941.0
938.0
941.0
943.0
943.0
939.0
936.0
938.0
943.0
945.0
944.0
939.0
938.0
941.0
942.0
943.0
941.0
940.0
940.0
942.0
944.0
946.0
945.0
940.0
937.0
943.0
944.0
948.0
947.0
945.0
940.0
941.0
941.0
943.0
939.0
937.0
936.0
938.0
937.0
941.0
943.0
939.0
937.0
935.0
940.0
942.0
942.0
937.0
935.0
939.0
941.0
944.0
942.0
940.0
941.0
943.0
945.0
949.0
949.0
946.0
941.0
941.0
940.0
942.0
943.0
937.0
937.0
939.0
943.0
942.0
948.0
944.0
941.0
944.0
947.0
949.0
945.0
943.0
943.0
943.0
950.0
950.0
949.0
947.0
943.0
943.0
948.0
950.0
951.0
949.0
952.0
954.0
959.0
964.0
966.0
968.0
968.0
970.0
975.0
981.0
987.0
993.0
998.0
1001.0
1003.0
1004.0
1003.0
1000.0
997.0
996.0
994.0
985.0
980.0
975.0
971.0
963.0
964.0
962.0
959.0
956.0
951.0
953.0
955.0
959.0
958.0
959.0
958.0
958.0
963.0
968.0
973.0
984.0
1009.0
1055.0
1112.0
1173.0
1218.0
1244.0
1261.0
1261.0
1255.0
1229.0
1181.0
1107.0
1024.0
951.0
917.0
919.0
931.0
935.0
928.0
927.0
928.0
934.0
933.0
932.0
928.0
930.0
932.0
934.0
938.0
934.0
933.0
935.0
937.0
937.0
931.0
934.0
932.0
