# Simple Text Format
# Sampling Rate (Hz):= 360.00
# Resolution:= 12
# Labels:= ECG
999.0
1011.0
1016.0
1012.0
1008.0
1010.0
1011.0
1017.0
1018.0
1015.0
1010.0
1001.0
996.0
990.0
985.0
979.0
969.0
967.0
963.0
963.0
958.0
961.0
953.0
951.0
955.0
956.0
957.0
955.0
951.0
947.0
944.0
941.0
939.0
945.0
964.0
1005.0
1073.0
1162.0
1246.0
1308.0
1343.0
1370.0
1381.0
1375.0
1348.0
1292.0
1203.0
1092.0
980.0
892.0
864.0
887.0
911.0
918.0
920.0
925.0
926.0
931.0
931.0
931.0
934.0
932.0
932.0
931.0
928.0
927.0
932.0
937.0
936.0
932.0
931.0
932.0
935.0
940.0
936.0
937.0
930.0
928.0
934.0
939.0
939.0
935.0
934.0
933.0
933.0
935.0
935.0
931.0
928.0
933.0
943.0
945.0
947.0
945.0
942.0
939.0
942.0
948.0
950.0
946.0
943.0
944.0
944.0
947.0
948.0
951.0
952.0
958.0
961.0
964.0
967.0
966.0
964.0
965.0
969.0
976.0
976.0
976.0
974.0
982.0
986.0
990.0
993.0
994.0
998.0
1002.0
1005.0
1013.0
1016.0
1018.0
1019.0
1024.0
1025.0
1033.0
1035.0
1035.0
1035.0
1037.0
1036.0
1036.0
1040.0
1042.0
1037.0
1039.0
1041.0
1043.0
1042.0
1039.0
1035.0
1031.0
1029.0
1030.0
1027.0
1023.0
1013.0
1011.0
1012.0
1013.0
1008.0
1005.0
1000.0
999.0
997.0
995.0
995.0
991.0
986.0
981.0
982.0
985.0
983.0
976.0
972.0
970.0
972.0
971.0
971.0
970.0
966.0
963.0
971.0
972.0
969.0
968.0
966.0
968.0
972.0
975.0
976.0
975.0
971.0
975.0
978.0
983.0
984.0
982.0
983.0
982.0
987.0
992.0
997.0
990.0
992.0
994.0
1001.0
1008.0
1010.0
1012.0
1013.0
1016.0
1023.0
1031.0
1038.0
1053.0
1068.0
1088.0
1108.0
1125.0
1143.0
1157.0
1171.0
1196.0
1224.0
1254.0
1279.0
1304.0
1331.0
1361.0
1392.0
1422.0
1445.0
1466.0
1467.0
1463.0
1452.0
1427.0
1372.0
1293.0
1203.0
1111.0
1044.0
1014.0
1001.0
980.0
961.0
956.0
952.0
950.0
943.0
936.0
930.0
925.0
920.0
918.0
912.0
910.0
902.0
899.0
897.0
893.0
889.0
886.0
880.0
879.0
880.0
886.0
887.0
883.0
880.0
879.0
884.0
889.0
893.0
896.0
894.0
894.0
896.0
896.0
894.0
893.0
890.0
888.0
888.0
888.0
885.0
882.0
877.0
874.0
875.0
874.0
874.0
870.0
862.0
861.0
859.0
859.0
857.0
849.0
844.0
839.0
839.0
838.0
834.0
828.0
824.0
822.0
824.0
824.0
825.0
825.0
825.0
825.0
826.0
829.0
836.0
838.0
840.0
845.0
853.0
860.0
866.0
870.0
871.0
875.0
883.0
887.0
896.0
898.0
901.0
906.0
911.0
917.0
921.0
922.0
921.0
918.0
927.0
932.0
935.0
936.0
936.0
939.0
944.0
949.0
948.0
945.0
945.0
945.0
951.0
955.0
961.0
961.0
958.0
963.0
965.0
966.0
967.0
965.0
961.0
963.0
969.0
973.0
973.0
971.0
970.0
971.0
974.0
978.0
979.0
977.0
975.0
978.0
980.0
982.0
984.0
984.0
984.0
984.0
987.0
989.0
992.0
992.0
988.0
990.0
991.0
996.0
997.0
998.0
996.0
996.0
1000.0
1000.0
998.0
997.0
995.0
996.0
997.0
996.0
997.0
998.0
994.0
994.0
994.0
996.0
995.0
996.0
991.0
991.0
994.0
997.0
992.0
990.0
985.0
983.0
988.0
993.0
999.0
992.0
988.0
986.0
989.0
992.0
987.0
987.0
981.0
980.0
984.0
986.0
987.0
982.0
977.0
981.0
980.0
985.0
984.0
980.0
977.0
977.0
976.0
980.0
981.0
981.0
978.0
977.0
976.0
977.0
973.0
976.0
975.0
973.0
978.0
980.0
979.0
976.0
972.0
972.0
973.0
978.0
977.0
973.0
970.0
969.0
970.0
971.0
974.0
974.0
971.0
971.0
975.0
976.0
978.0
977.0
973.0
970.0
973.0
976.0
973.0
975.0
970.0
970.0
972.0
976.0
981.0
979.0
976.0
974.0
978.0
979.0
978.0
975.0
975.0
973.0
975.0
976.0
980.0
982.0
979.0
979.0
980.0
978.0
976.0
974.0
978.0
985.0
985.0
984.0
985.0
983.0
980.0
979.0
984.0
989.0
990.0
988.0
983.0
982.0
980.0
984.0
987.0
986.0
981.0
982.0
985.0
988.0
990.0
987.0
983.0
982.0
986.0
989.0
989.0
985.0
986.0
984.0
989.0
992.0
992.0
991.0
987.0
988.0
988.0
990.0
989.0
988.0
985.0
984.0
986.0
992.0
994.0
989.0
991.0
988.0
989.0
991.0
991.0
986.0
989.0
992.0
989.0
991.0
988.0
989.0
987.0
988.0
992.0
995.0
996.0
991.0
991.0
990.0
989.0
993.0
992.0
990.0
989.0
989.0
993.0
991.0
995.0
994.0
994.0
990.0
1003.0
1006.0
1010.0
1014.0
1017.0
1021.0
1024.0
1031.0
1038.0
1045.0
1051.0
1061.0
1067.0
1068.0
1065.0
1061.0
1063.0
1062.0
1064.0
1065.0
1054.0
1041.0
1029.0
1024.0
1021.0
1015.0
1004.0
995.0
986.0
984.0
989.0
995.0
998.0
991.0
985.0
983.0
984.0
982.0
977.0
968.0
956.0
951.0
963.0
995.0
1046.0
1126.0
1220.0
1308.0
1370.0
1405.0
1421.0
1422.0
1401.0
1350.0
1257.0
1135.0
1007.0
910.0
895.0
930.0
960.0
969.0
968.0
970.0
970.0
966.0
969.0
970.0
969.0
963.0
958.0
958.0
960.0
969.0
973.0
969.0
969.0
965.0
963.0
963.0
971.0
975.0
975.0
973.0
970.0
972.0
974.0
976.0
976.0
975.0
979.0
979.0
978.0
978.0
982.0
979.0
975.0
980.0
981.0
980.0
981.0
987.0
988.0
987.0
991.0
994.0
999.0
1000.0
995.0
998.0
999.0
1003.0
1003.0
1007.0
1009.0
1014.0
1016.0
1020.0
1023.0
1025.0
1031.0
1036.0
1035.0
1038.0
1043.0
1053.0
1054.0
1054.0
1056.0
1065.0
1078.0
1084.0
1089.0
1091.0
1088.0
1085.0
1086.0
1084.0
1080.0
1084.0
1098.0
1098.0
1092.0
1087.0
1088.0
1095.0
1096.0
1091.0
1082.0
1081.0
1079.0
1075.0
1073.0
1073.0
1072.0
1061.0
1056.0
1056.0
1053.0
1044.0
1038.0
1035.0
1036.0
1030.0
1025.0
1022.0
1016.0
1013.0
1011.0
1014.0
1013.0
1008.0
997.0
992.0
995.0
999.0
995.0
992.0
991.0
989.0
992.0
999.0
1005.0
1003.0
991.0
988.0
986.0
997.0
1006.0
1005.0
1003.0
1001.0
1002.0
1005.0
1009.0
1008.0
1009.0
1011.0
1017.0
1016.0
1014.0
1019.0
1024.0
1030.0
1038.0
1050.0
1070.0
1087.0
1101.0
1112.0
1131.0
1152.0
1165.0
1171.0
1186.0
1201.0
1225.0
1250.0
1277.0
1307.0
1335.0
1361.0
1387.0
1407.0
1421.0
1430.0
1433.0
1442.0
1449.0
1447.0
1435.0
1411.0
1361.0
1282.0
1181.0
1084.0
1026.0
997.0
979.0
956.0
935.0
920.0
916.0
910.0
902.0
894.0
891.0
894.0
891.0
883.0
869.0
864.0
862.0
857.0
856.0
852.0
848.0
849.0
852.0
853.0
850.0
853.0
852.0
856.0
857.0
859.0
859.0
854.0
850.0
846.0
852.0
861.0
866.0
861.0
852.0
844.0
847.0
849.0
848.0
843.0
837.0
833.0
830.0
832.0
833.0
831.0
824.0
816.0
816.0
817.0
811.0
800.0
795.0
790.0
792.0
795.0
794.0
790.0
784.0
781.0
782.0
786.0
790.0
783.0
783.0
795.0
807.0
809.0
809.0
808.0
812.0
820.0
833.0
840.0
845.0
848.0
849.0
851.0
853.0
860.0
870.0
875.0
876.0
887.0
897.0
903.0
906.0
910.0
910.0
907.0
903.0
913.0
927.0
928.0
919.0
915.0
915.0
924.0
926.0
927.0
926.0
923.0
925.0
935.0
935.0
924.0
923.0
937.0
942.0
940.0
936.0
942.0
942.0
941.0
939.0
942.0
937.0
941.0
945.0
952.0
959.0
966.0
967.0
969.0
969.0
971.0
979.0
985.0
986.0
981.0
974.0
976.0
978.0
982.0
983.0
985.0
983.0
983.0
987.0
988.0
987.0
984.0
985.0
991.0
989.0
986.0
989.0
989.0
982.0
977.0
975.0
979.0
979.0
980.0
978.0
980.0
981.0
981.0
977.0
975.0
972.0
971.0
969.0
968.0
971.0
969.0
969.0
968.0
966.0
967.0
964.0
960.0
963.0
970.0
968.0
964.0
959.0
956.0
956.0
962.0
968.0
968.0
962.0
960.0
959.0
958.0
958.0
955.0
954.0
952.0
948.0
946.0
950.0
957.0
957.0
957.0
953.0
952.0
955.0
953.0
950.0
950.0
950.0
952.0
955.0
959.0
957.0
954.0
949.0
948.0
950.0
958.0
960.0
955.0
948.0
948.0
952.0
956.0
959.0
959.0
951.0
947.0
951.0
953.0
953.0
952.0
951.0
951.0
950.0
948.0
950.0
955.0
954.0
954.0
959.0
962.0
958.0
952.0
950.0
950.0
951.0
953.0
950.0
949.0
948.0
952.0
955.0
953.0
952.0
952.0
949.0
948.0
951.0
959.0
956.0
954.0
950.0
951.0
957.0
957.0
959.0
956.0
954.0
951.0
953.0
958.0
958.0
956.0
955.0
953.0
955.0
958.0
960.0
957.0
954.0
954.0
957.0
957.0
958.0
958.0
954.0
954.0
951.0
953.0
955.0
954.0
955.0
956.0
957.0
957.0
956.0
957.0
955.0
953.0
955.0
957.0
956.0
956.0
955.0
956.0
956.0
965.0
967.0
967.0
966.0
966.0
970.0
981.0
987.0
985.0
984.0
990.0
995.0
1003.0
1010.0
1018.0
1018.0
1018.0
1023.0
1026.0
1028.0
1030.0
1024.0
1022.0
1017.0
1008.0
998.0
988.0
983.0
977.0
975.0
971.0
967.0
962.0
959.0
959.0
960.0
960.0
962.0
962.0
960.0
959.0
958.0
953.0
951.0
952.0
963.0
997.0
1055.0
1135.0
1220.0
1289.0
1332.0
1359.0
1376.0
1372.0
1334.0
1257.0
1143.0
1015.0
910.0
868.0
885.0
917.0
930.0
931.0
936.0
944.0
951.0
948.0
943.0
943.0
944.0
944.0
944.0
939.0
939.0
940.0
943.0
946.0
945.0
942.0
937.0
934.0
941.0
947.0
946.0
944.0
941.0
939.0
943.0
944.0
942.0
939.0
939.0
939.0
944.0
949.0
951.0
949.0
949.0
949.0
954.0
958.0
959.0
957.0
955.0
957.0
960.0
965.0
968.0
966.0
972.0
973.0
973.0
978.0
981.0
986.0
988.0
991.0
994.0
997.0
1001.0
1001.0
1001.0
1007.0
1012.0
1017.0
1018.0
1023.0
1027.0
1030.0
1034.0
1041.0
1050.0
1055.0
1051.0
1054.0
1060.0
1068.0
1074.0
1074.0
1070.0
1073.0
1079.0
1080.0
1080.0
1075.0
1074.0
1072.0
1075.0
1076.0
1076.0
1068.0
1063.0
1059.0
1060.0
1060.0
1054.0
1046.0
1039.0
1032.0
1033.0
1032.0
1027.0
1024.0
1016.0
1010.0
1009.0
1006.0
1005.0
996.0
990.0
986.0
989.0
996.0
993.0
989.0
983.0
982.0
980.0
983.0
980.0
979.0
973.0
976.0
979.0
982.0
975.0
977.0
975.0
972.0
979.0
979.0
979.0
975.0
978.0
982.0
989.0
993.0
995.0
992.0
987.0
987.0
993.0
998.0
999.0
1002.0
1003.0
1008.0
1012.0
1024.0
1036.0
1050.0
1064.0
1087.0
1116.0
1145.0
1161.0
1176.0
1189.0
1205.0
1225.0
1247.0
1275.0
1302.0
1339.0
1381.0
1414.0
1440.0
1447.0
1440.0
1427.0
1409.0
1394.0
1371.0
1326.0
1259.0
1177.0
1087.0
1007.0
947.0
925.0
918.0
914.0
911.0
911.0
912.0
909.0
902.0
893.0
885.0
882.0
881.0
882.0
874.0
867.0
861.0
858.0
854.0
851.0
849.0
846.0
846.0
842.0
843.0
848.0
845.0
843.0
844.0
848.0
853.0
859.0
855.0
844.0
844.0
845.0
853.0
853.0
846.0
841.0
840.0
839.0
841.0
838.0
833.0
825.0
819.0
819.0
822.0
820.0
815.0
801.0
799.0
803.0
806.0
803.0
797.0
799.0
798.0
794.0
793.0
793.0
793.0
796.0
801.0
803.0
807.0
812.0
815.0
820.0
825.0
834.0
841.0
847.0
854.0
855.0
859.0
865.0
875.0
883.0
885.0
886.0
887.0
893.0
900.0
905.0
907.0
905.0
907.0
906.0
912.0
913.0
913.0
913.0
916.0
918.0
921.0
921.0
919.0
917.0
917.0
921.0
923.0
923.0
923.0
923.0
922.0
924.0
926.0
927.0
927.0
924.0
926.0
928.0
931.0
933.0
931.0
926.0
924.0
931.0
936.0
937.0
935.0
930.0
930.0
932.0
937.0
935.0
934.0
935.0
933.0
939.0
947.0
951.0
952.0
946.0
946.0
950.0
956.0
953.0
949.0
947.0
944.0
945.0
944.0
945.0
944.0
944.0
944.0
945.0
947.0
949.0
946.0
943.0
943.0
946.0
947.0
944.0
940.0
939.0
938.0
940.0
940.0
941.0
939.0
938.0
935.0
938.0
938.0
940.0
939.0
934.0
933.0
933.0
934.0
934.0
930.0
928.0
931.0
930.0
933.0
931.0
931.0
927.0
929.0
930.0
933.0
934.0
930.0
923.0
921.0
924.0
929.0
929.0
925.0
920.0
921.0
924.0
925.0
923.0
925.0
925.0
923.0
925.0
926.0
928.0
927.0
926.0
926.0
924.0
926.0
928.0
926.0
928.0
928.0
929.0
934.0
934.0
930.0
926.0
925.0
926.0
926.0
927.0
926.0
924.0
925.0
927.0
928.0
930.0
929.0
929.0
925.0
929.0
934.0
936.0
929.0
926.0
926.0
929.0
931.0
930.0
932.0
928.0
927.0
932.0
936.0
937.0
936.0
933.0
933.0
936.0
936.0
935.0
929.0
926.0
925.0
931.0
937.0
932.0
932.0
929.0
926.0
931.0
936.0
937.0
933.0
934.0
931.0
933.0
937.0
941.0
940.0
935.0
935.0
935.0
937.0
938.0
936.0
930.0
933.0
937.0
940.0
938.0
935.0
931.0
931.0
933.0
938.0
938.0
940.0
937.0
936.0
939.0
943.0
943.0
944.0
941.0
939.0
940.0
939.0
942.0
940.0
938.0
938.0
937.0
941.0
945.0
941.0
935.0
937.0
939.0
945.0
946.0
948.0
945.0
942.0
943.0
948.0
948.0
947.0
944.0
945.0
944.0
944.0
943.0
943.0
939.0
942.0
947.0
952.0
953.0
950.0
947.0
944.0
945.0
951.0
951.0
952.0
949.0
951.0
954.0
958.0
957.0
960.0
959.0
962.0
967.0
971.0
974.0
976.0
983.0
994.0
1005.0
1011.0
1015.0
1015.0
1015.0
1015.0
1016.0
1020.0
1017.0
1011.0
1000.0
991.0
986.0
988.0
983.0
979.0
972.0
968.0
967.0
962.0
958.0
956.0
949.0
949.0
948.0
952.0
955.0
953.0
950.0
947.0
952.0
946.0
934.0
929.0
936.0
959.0
1000.0
1062.0
1149.0
1238.0
1310.0
1356.0
1384.0
1395.0
1380.0
1339.0
1257.0
1140.0
1021.0
918.0
871.0
880.0
905.0
915.0
912.0
915.0
918.0
920.0
925.0
929.0
929.0
929.0
930.0
928.0
926.0
930.0
933.0
936.0
935.0
934.0
932.0
929.0
934.0
933.0
935.0
935.0
932.0
932.0
934.0
939.0
939.0
939.0
938.0
939.0
943.0
947.0
945.0
942.0
943.0
945.0
952.0
954.0
949.0
944.0
942.0
944.0
949.0
957.0
958.0
955.0
953.0
953.0
958.0
961.0
966.0
972.0
969.0
975.0
977.0
980.0
981.0
981.0
985.0
985.0
993.0
996.0
999.0
1001.0
1000.0
1003.0
1010.0
1015.0
1020.0
1023.0
1026.0
1029.0
1035.0
1041.0
1046.0
1047.0
1044.0
1047.0
1052.0
1053.0
1057.0
1055.0
1054.0
1057.0
1059.0
1061.0
1060.0
1059.0
1059.0
1057.0
1055.0
1054.0
1051.0
1049.0
1044.0
1042.0
1041.0
1038.0
1034.0
1027.0
1021.0
1021.0
1021.0
1020.0
1014.0
1011.0
1003.0
1002.0
1001.0
1003.0
1001.0
998.0
989.0
987.0
987.0
987.0
986.0
981.0
977.0
975.0
975.0
978.0
978.0
978.0
974.0
974.0
974.0
978.0
982.0
980.0
977.0
974.0
979.0
980.0
983.0
979.0
978.0
979.0
985.0
986.0
988.0
987.0
983.0
987.0
990.0
993.0
1002.0
1003.0
1000.0
1003.0
1006.0
1012.0
1020.0
1027.0
1035.0
1048.0
1069.0
1090.0
1111.0
1126.0
1136.0
1154.0
1177.0
1195.0
1216.0
1239.0
1259.0
1283.0
1315.0
1352.0
1388.0
1422.0
1441.0
1446.0
1440.0
1427.0
1405.0
1379.0
1347.0
1298.0
1230.0
1150.0
1063.0
985.0
938.0
922.0
927.0
938.0
943.0
941.0
934.0
928.0
926.0
928.0
926.0
919.0
912.0
910.0
903.0
902.0
901.0
894.0
891.0
887.0
886.0
885.0
883.0
881.0
877.0
876.0
880.0
880.0
877.0
878.0
876.0
875.0
875.0
880.0
881.0
883.0
882.0
885.0
886.0
884.0
884.0
878.0
874.0
877.0
883.0
885.0
884.0
879.0
873.0
868.0
864.0
865.0
867.0
863.0
861.0
860.0
856.0
856.0
855.0
853.0
848.0
849.0
849.0
852.0
846.0
845.0
843.0
846.0
849.0
855.0
857.0
856.0
860.0
861.0
867.0
870.0
873.0
876.0
881.0
885.0
896.0
902.0
911.0
915.0
915.0
915.0
918.0
922.0
925.0
930.0
931.0
932.0
935.0
936.0
933.0
928.0
925.0
923.0
926.0
934.0
944.0
951.0
955.0
956.0
960.0
963.0
963.0
962.0
960.0
962.0
963.0
964.0
964.0
959.0
959.0
958.0
962.0
969.0
967.0
967.0
967.0
968.0
971.0
974.0
976.0
973.0
969.0
963.0
972.0
975.0
976.0
976.0
975.0
978.0
984.0
992.0
991.0
987.0
984.0
982.0
988.0
990.0
993.0
992.0
988.0
986.0
987.0
991.0
992.0
994.0
995.0
999.0
999.0
1005.0
1001.0
1004.0
1003.0
1002.0
1005.0
1006.0
1001.0
996.0
991.0
990.0
991.0
993.0
993.0
987.0
982.0
987.0
987.0
991.0
990.0
988.0
982.0
979.0
979.0
981.0
984.0
982.0
979.0
978.0
982.0
984.0
984.0
980.0
978.0
978.0
978.0
980.0
975.0
971.0
970.0
971.0
973.0
974.0
971.0
972.0
968.0
968.0
970.0
973.0
971.0
968.0
965.0
967.0
971.0
971.0
971.0
969.0
969.0
967.0
966.0
966.0
966.0
965.0
958.0
961.0
965.0
969.0
968.0
964.0
964.0
964.0
965.0
967.0
968.0
965.0
963.0
964.0
967.0
970.0
971.0
968.0
961.0
956.0
955.0
958.0
960.0
960.0
962.0
960.0
964.0
966.0
966.0
966.0
963.0
961.0
966.0
967.0
966.0
962.0
964.0
964.0
967.0
967.0
962.0
964.0
962.0
964.0
964.0
967.0
963.0
961.0
960.0
959.0
959.0
962.0
963.0
963.0
962.0
961.0
962.0
966.0
965.0
963.0
961.0
962.0
963.0
966.0
966.0
964.0
959.0
955.0
956.0
960.0
961.0
960.0
954.0
955.0
960.0
964.0
965.0
963.0
957.0
956.0
961.0
964.0
962.0
958.0
958.0
961.0
966.0
969.0
968.0
967.0
960.0
960.0
961.0
966.0
966.0
967.0
965.0
965.0
963.0
962.0
961.0
959.0
953.0
950.0
953.0
960.0
961.0
964.0
964.0
965.0
969.0
970.0
971.0
968.0
965.0
963.0
966.0
970.0
968.0
966.0
965.0
961.0
967.0
967.0
967.0
967.0
967.0
965.0
965.0
969.0
967.0
967.0
961.0
962.0
960.0
969.0
968.0
967.0
965.0
967.0
968.0
967.0
970.0
969.0
967.0
968.0
969.0
969.0
974.0
973.0
971.0
971.0
973.0
976.0
978.0
978.0
977.0
980.0
981.0
981.0
982.0
985.0
986.0
991.0
994.0
1000.0
1005.0
1004.0
1008.0
1017.0
1030.0
1037.0
1038.0
1039.0
1034.0
1033.0
1035.0
1037.0
1037.0
1032.0
1023.0
1015.0
1009.0
1006.0
1001.0
994.0
987.0
978.0
976.0
978.0
976.0
972.0
969.0
964.0
967.0
972.0
968.0
967.0
962.0
959.0
955.0
949.0
944.0
945.0
959.0
993.0
1056.0
1141.0
1236.0
1307.0
1353.0
1382.0
1405.0
1411.0
1387.0
1332.0
1238.0
1113.0
991.0
908.0
889.0
913.0
933.0
940.0
939.0
941.0
945.0
949.0
944.0
944.0
944.0
948.0
947.0
943.0
940.0
943.0
946.0
946.0
948.0
947.0
944.0
942.0
942.0
944.0
946.0
945.0
940.0
936.0
942.0
947.0
949.0
947.0
945.0
944.0
947.0
951.0
950.0
950.0
948.0
948.0
949.0
957.0
958.0
956.0
955.0
954.0
958.0
962.0
962.0
960.0
956.0
958.0
959.0
966.0
971.0
972.0
970.0
972.0
974.0
974.0
976.0
975.0
980.0
981.0
984.0
990.0
993.0
995.0
993.0
999.0
1003.0
1009.0
1013.0
1019.0
1019.0
1019.0
1024.0
1030.0
1033.0
1037.0
1040.0
1043.0
1049.0
1051.0
1053.0
1054.0
1058.0
1063.0
1063.0
1064.0
1069.0
1070.0
1071.0
1070.0
1077.0
1079.0
1075.0
1076.0
1071.0
1066.0
1067.0
1065.0
1069.0
1066.0
1061.0
1056.0
1057.0
1056.0
1051.0
1047.0
1040.0
1034.0
1034.0
1034.0
1030.0
1024.0
1018.0
1011.0
1012.0
1010.0
1010.0
1006.0
1002.0
998.0
999.0
1000.0
999.0
994.0
989.0
989.0
990.0
990.0
990.0
988.0
984.0
985.0
987.0
990.0
990.0
988.0
982.0
983.0
984.0
989.0
992.0
993.0
990.0
992.0
998.0
1004.0
1005.0
1004.0
1001.0
1003.0
1007.0
1014.0
1017.0
1027.0
1036.0
1055.0
1074.0
1101.0
1124.0
1149.0
1170.0
1189.0
1207.0
1228.0
1244.0
1267.0
1292.0
1322.0
1361.0
1400.0
1436.0
1458.0
1471.0
1476.0
1469.0
1455.0
1433.0
1404.0
1355.0
1291.0
1212.0
1125.0
1033.0
961.0
935.0
934.0
938.0
936.0
924.0
922.0
919.0
919.0
918.0
917.0
913.0
906.0
904.0
900.0
898.0
897.0
897.0
892.0
885.0
881.0
878.0
873.0
871.0
869.0
864.0
866.0
871.0
872.0
871.0
870.0
866.0
865.0
866.0
874.0
880.0
878.0
872.0
869.0
870.0
874.0
873.0
874.0
869.0
864.0
864.0
864.0
862.0
859.0
847.0
846.0
843.0
845.0
840.0
836.0
827.0
827.0
831.0
830.0
827.0
822.0
817.0
819.0
822.0
825.0
825.0
823.0
825.0
830.0
838.0
845.0
853.0
857.0
855.0
860.0
861.0
866.0
870.0
877.0
886.0
896.0
903.0
908.0
911.0
916.0
916.0
920.0
929.0
937.0
940.0
940.0
945.0
945.0
952.0
956.0
959.0
959.0
955.0
954.0
955.0
963.0
962.0
960.0
953.0
952.0
954.0
959.0
961.0
965.0
968.0
965.0
966.0
967.0
965.0
964.0
964.0
965.0
970.0
974.0
979.0
979.0
976.0
978.0
981.0
985.0
988.0
989.0
989.0
992.0
996.0
1000.0
1001.0
999.0
995.0
995.0
997.0
1001.0
1003.0
1003.0
997.0
998.0
1003.0
1006.0
1012.0
1016.0
1019.0
1021.0
1025.0
1028.0
1027.0
1018.0
1002.0
991.0
984.0
989.0
993.0
998.0
997.0
994.0
994.0
996.0
994.0
994.0
992.0
991.0
993.0
996.0
1000.0
995.0
993.0
989.0
992.0
995.0
991.0
989.0
987.0
987.0
989.0
989.0
989.0
989.0
989.0
987.0
989.0
990.0
989.0
985.0
981.0
980.0
983.0
985.0
987.0
990.0
988.0
987.0
985.0
987.0
987.0
988.0
981.0
980.0
983.0
985.0
986.0
986.0
983.0
982.0
983.0
986.0
987.0
986.0
985.0
985.0
986.0
987.0
986.0
988.0
992.0
1003.0
1015.0
1025.0
1019.0
1000.0
986.0
981.0
992.0
991.0
974.0
952.0
943.0
948.0
962.0
970.0
975.0
973.0
965.0
969.0
975.0
981.0
982.0
978.0
976.0
976.0
978.0
979.0
981.0
985.0
985.0
982.0
983.0
978.0
981.0
983.0
980.0
978.0
980.0
983.0
984.0
983.0
980.0
980.0
979.0
986.0
986.0
985.0
984.0
985.0
988.0
993.0
991.0
987.0
986.0
992.0
1005.0
1011.0
1002.0
982.0
971.0
966.0
967.0
978.0
980.0
978.0
978.0
977.0
981.0
983.0
984.0
984.0
982.0
983.0
983.0
985.0
983.0
980.0
984.0
986.0
987.0
988.0
988.0
983.0
982.0
981.0
984.0
992.0
988.0
995.0
992.0
990.0
991.0
997.0
1004.0
1006.0
999.0
986.0
982.0
985.0
985.0
979.0
970.0
963.0
964.0
970.0
977.0
981.0
980.0
978.0
981.0
983.0
984.0
982.0
980.0
982.0
988.0
991.0
994.0
998.0
998.0
996.0
992.0
992.0
989.0
984.0
979.0
980.0
988.0
1001.0
1006.0
1000.0
995.0
991.0
993.0
995.0
998.0
1002.0
1004.0
1008.0
1015.0
1016.0
1020.0
1024.0
1027.0
1041.0
1059.0
1073.0
1074.0
1067.0
1059.0
1052.0
1053.0
1059.0
1054.0
1053.0
1041.0
1028.0
1023.0
1021.0
1019.0
1012.0
1003.0
1000.0
1003.0
1007.0
1004.0
998.0
992.0
987.0
987.0
990.0
988.0
980.0
971.0
963.0
961.0
974.0
1009.0
1068.0
1153.0
1242.0
1321.0
1376.0
1413.0
1425.0
1414.0
1364.0
1276.0
1163.0
1035.0
938.0
910.0
938.0
971.0
981.0
979.0
983.0
984.0
978.0
968.0
960.0
963.0
966.0
967.0
964.0
966.0
966.0
968.0
967.0
965.0
965.0
969.0
971.0
972.0
969.0
963.0
963.0
964.0
967.0
972.0
970.0
970.0
970.0
973.0
979.0
979.0
975.0
975.0
976.0
974.0
977.0
978.0
977.0
977.0
978.0
983.0
990.0
994.0
996.0
995.0
996.0
1000.0
1004.0
1006.0
1005.0
1008.0
1009.0
1009.0
1012.0
1015.0
1015.0
1020.0
1023.0
1029.0
1036.0
1038.0
1038.0
1035.0
1040.0
1048.0
1056.0
1060.0
1064.0
1064.0
1068.0
1077.0
1078.0
1081.0
1079.0
1078.0
1082.0
1090.0
1094.0
1093.0
1095.0
1090.0
1092.0
1092.0
1094.0
1090.0
1088.0
1085.0
1082.0
1080.0
1081.0
1077.0
1073.0
1066.0
1060.0
1055.0
1057.0
1055.0
1047.0
1040.0
1039.0
1040.0
1039.0
1034.0
1031.0
1026.0
1023.0
1022.0
1021.0
1019.0
1011.0
1009.0
1012.0
1012.0
1018.0
1018.0
1017.0
1013.0
1013.0
1012.0
1013.0
1017.0
1018.0
1014.0
1019.0
1025.0
1024.0
1021.0
1015.0
1012.0
1019.0
1023.0
1025.0
1024.0
1024.0
1026.0
1028.0
1032.0
1034.0
1043.0
1049.0
1050.0
1054.0
1058.0
1064.0
1070.0
1086.0
1104.0
1125.0
1151.0
1177.0
1201.0
1220.0
1238.0
1259.0
1286.0
1317.0
1347.0
1376.0
1397.0
1408.0
1408.0
1395.0
1374.0
1352.0
1322.0
1282.0
1232.0
1173.0
1105.0
1042.0
1003.0
972.0
954.0
945.0
943.0
945.0
947.0
948.0
950.0
954.0
953.0
946.0
941.0
942.0
940.0
942.0
939.0
932.0
923.0
918.0
919.0
918.0
916.0
913.0
911.0
911.0
914.0
917.0
913.0
912.0
912.0
913.0
919.0
927.0
932.0
934.0
930.0
926.0
927.0
929.0
930.0
929.0
928.0
926.0
927.0
930.0
927.0
923.0
918.0
916.0
918.0
918.0
920.0
919.0
913.0
912.0
909.0
913.0
909.0
908.0
906.0
910.0
912.0
917.0
919.0
922.0
922.0
929.0
934.0
937.0
941.0
948.0
954.0
956.0
964.0
973.0
978.0
981.0
979.0
982.0
984.0
992.0
992.0
993.0
995.0
996.0
997.0
998.0
999.0
999.0
994.0
996.0
996.0
996.0
992.0
987.0
978.0
980.0
981.0
986.0
983.0
980.0
976.0
976.0
977.0
982.0
984.0
980.0
979.0
974.0
981.0
985.0
987.0
985.0
984.0
982.0
983.0
984.0
986.0
989.0
987.0
983.0
983.0
983.0
987.0
989.0
986.0
987.0
992.0
997.0
999.0
998.0
995.0
993.0
993.0
996.0
996.0
995.0
994.0
992.0
994.0
996.0
999.0
997.0
995.0
994.0
998.0
997.0
998.0
992.0
991.0
988.0
990.0
993.0
992.0
987.0
983.0
985.0
988.0
992.0
987.0
985.0
978.0
978.0
977.0
979.0
979.0
978.0
977.0
975.0
973.0
977.0
976.0
975.0
974.0
974.0
971.0
972.0
975.0
973.0
972.0
968.0
970.0
973.0
972.0
967.0
962.0
965.0
970.0
972.0
974.0
970.0
964.0
964.0
966.0
970.0
969.0
969.0
968.0
967.0
970.0
972.0
969.0
962.0
958.0
960.0
963.0
965.0
963.0
961.0
961.0
962.0
962.0
964.0
962.0
962.0
961.0
960.0
962.0
965.0
962.0
962.0
962.0
965.0
963.0
966.0
966.0
963.0
960.0
960.0
963.0
966.0
967.0
964.0
963.0
964.0
966.0
965.0
966.0
962.0
962.0
962.0
965.0
965.0
964.0
964.0
963.0
962.0
964.0
967.0
967.0
964.0
960.0
957.0
962.0
966.0
966.0
965.0
963.0
960.0
967.0
969.0
972.0
971.0
966.0
964.0
964.0
963.0
960.0
956.0
957.0
957.0
959.0
962.0
963.0
963.0
960.0
959.0
959.0
963.0
968.0
967.0
965.0
965.0
965.0
968.0
970.0
969.0
966.0
964.0
967.0
967.0
966.0
963.0
962.0
961.0
965.0
971.0
971.0
967.0
965.0
965.0
969.0
971.0
971.0
971.0
968.0
968.0
973.0
973.0
971.0
971.0
969.0
966.0
970.0
973.0
974.0
972.0
972.0
967.0
969.0
976.0
976.0
971.0
970.0
969.0
972.0
973.0
973.0
973.0
971.0
973.0
974.0
978.0
977.0
975.0
971.0
969.0
972.0
975.0
974.0
973.0
972.0
973.0
977.0
979.0
978.0
976.0
976.0
974.0
977.0
981.0
982.0
979.0
976.0
974.0
978.0
979.0
982.0
982.0
979.0
983.0
985.0
990.0
995.0
997.0
998.0
998.0
1000.0
1006.0
1019.0
1035.0
1036.0
1039.0
1041.0
1044.0
1042.0
1041.0
1041.0
1039.0
1036.0
1032.0
1023.0
1015.0
1007.0
1005.0
1002.0
1002.0
995.0
987.0
979.0
970.0
977.0
977.0
978.0
976.0
975.0
976.0
979.0
980.0
977.0
972.0
964.0
962.0
972.0
995.0
1039.0
1102.0
1180.0
1259.0
1319.0
1361.0
1388.0
1396.0
1383.0
1345.0
1276.0
1183.0
1073.0
968.0
907.0
902.0
927.0
947.0
951.0
951.0
948.0
950.0
956.0
961.0
965.0
964.0
957.0
958.0
957.0
957.0
957.0
959.0
955.0
951.0
