# Simple Text Format
# Sampling Rate (Hz):= 360.00
# Resolution:= 12
# Labels:= ECG
1008.0
1016.0
1021.0
1027.0
1032.0
1037.0
1043.0
1047.0
1052.0
1058.0
1065.0
1074.0
1081.0
1082.0
1081.0
1083.0
1088.0
1096.0
1100.0
1103.0
1099.0
1095.0
1096.0
1099.0
1103.0
1101.0
1096.0
1090.0
1083.0
1080.0
1083.0
1080.0
1077.0
1069.0
1064.0
1062.0
1060.0
1057.0
1047.0
1043.0
1039.0
1033.0
1030.0
1026.0
1017.0
1010.0
1004.0
1001.0
1001.0
1000.0
995.0
990.0
989.0
989.0
987.0
987.0
986.0
981.0
978.0
978.0
979.0
983.0
983.0
979.0
978.0
978.0
978.0
976.0
972.0
971.0
971.0
978.0
980.0
981.0
976.0
971.0
967.0
970.0
974.0
972.0
972.0
968.0
966.0
966.0
970.0
971.0
964.0
955.0
951.0
954.0
959.0
963.0
959.0
955.0
953.0
952.0
953.0
955.0
955.0
950.0
946.0
947.0
950.0
949.0
948.0
947.0
948.0
947.0
948.0
943.0
944.0
944.0
943.0
943.0
947.0
944.0
943.0
938.0
938.0
942.0
943.0
941.0
936.0
932.0
934.0
935.0
938.0
939.0
936.0
930.0
931.0
933.0
938.0
938.0
936.0
934.0
933.0
933.0
937.0
935.0
933.0
931.0
932.0
931.0
935.0
934.0
935.0
928.0
931.0
933.0
935.0
936.0
937.0
935.0
935.0
938.0
940.0
941.0
940.0
936.0
935.0
933.0
935.0
932.0
931.0
926.0
927.0
928.0
931.0
932.0
933.0
931.0
930.0
933.0
932.0
931.0
927.0
925.0
923.0
927.0
932.0
933.0
932.0
929.0
929.0
932.0
932.0
931.0
932.0
929.0
932.0
935.0
937.0
940.0
938.0
938.0
941.0
944.0
948.0
945.0
940.0
932.0
934.0
936.0
936.0
932.0
928.0
925.0
926.0
932.0
934.0
935.0
935.0
934.0
942.0
949.0
956.0
958.0
960.0
960.0
969.0
981.0
997.0
1008.0
1013.0
1011.0
1010.0
1008.0
1007.0
1003.0
1001.0
999.0
996.0
987.0
981.0
973.0
967.0
955.0
950.0
945.0
941.0
938.0
935.0
936.0
942.0
943.0
945.0
939.0
933.0
929.0
930.0
941.0
939.0
935.0
924.0
912.0
908.0
912.0
930.0
966.0
1024.0
1105.0
1193.0
1273.0
1323.0
1355.0
1370.0
1365.0
1339.0
1286.0
1200.0
1086.0
965.0
874.0
852.0
877.0
908.0
917.0
912.0
910.0
918.0
920.0
922.0
925.0
926.0
922.0
918.0
922.0
924.0
922.0
921.0
920.0
919.0
921.0
926.0
923.0
924.0
918.0
918.0
920.0
925.0
925.0
922.0
918.0
918.0
919.0
925.0
924.0
924.0
923.0
922.0
926.0
929.0
928.0
927.0
924.0
922.0
925.0
933.0
933.0
935.0
932.0
930.0
930.0
933.0
932.0
930.0
930.0
934.0
940.0
944.0
947.0
948.0
950.0
949.0
954.0
957.0
960.0
960.0
958.0
960.0
967.0
970.0
977.0
979.0
977.0
971.0
972.0
980.0
987.0
987.0
985.0
985.0
988.0
998.0
1003.0
999.0
999.0
1000.0
1009.0
1014.0
1016.0
1015.0
1012.0
1011.0
1011.0
1012.0
1014.0
1015.0
1015.0
1013.0
1014.0
1013.0
1013.0
1010.0
1010.0
1010.0
1012.0
1013.0
1010.0
1006.0
993.0
987.0
979.0
981.0
987.0
990.0
983.0
977.0
974.0
973.0
972.0
970.0
970.0
966.0
966.0
968.0
965.0
965.0
963.0
966.0
967.0
968.0
972.0
968.0
965.0
962.0
965.0
969.0
969.0
967.0
967.0
968.0
971.0
974.0
975.0
974.0
972.0
972.0
975.0
977.0
980.0
979.0
978.0
981.0
983.0
988.0
987.0
986.0
984.0
981.0
985.0
989.0
992.0
996.0
996.0
998.0
1003.0
1015.0
1027.0
1034.0
1041.0
1053.0
1067.0
1081.0
1094.0
1103.0
1110.0
1118.0
1131.0
1147.0
1160.0
1177.0
1193.0
1213.0
1244.0
1270.0
1294.0
1314.0
1329.0
1348.0
1363.0
1380.0
1398.0
1411.0
1414.0
1416.0
1416.0
1409.0
1394.0
1358.0
1297.0
1210.0
1123.0
1058.0
1021.0
1001.0
983.0
964.0
948.0
933.0
919.0
911.0
901.0
898.0
897.0
899.0
902.0
905.0
907.0
903.0
903.0
899.0
894.0
893.0
882.0
880.0
879.0
873.0
869.0
864.0
859.0
855.0
854.0
857.0
859.0
855.0
848.0
845.0
843.0
842.0
840.0
836.0
837.0
832.0
831.0
837.0
828.0
824.0
820.0
817.0
820.0
819.0
817.0
815.0
808.0
806.0
803.0
805.0
803.0
797.0
791.0
791.0
791.0
792.0
794.0
790.0
788.0
788.0
786.0
786.0
788.0
791.0
787.0
786.0
790.0
800.0
808.0
807.0
803.0
808.0
817.0
825.0
832.0
837.0
838.0
843.0
849.0
858.0
866.0
870.0
865.0
863.0
864.0
872.0
879.0
878.0
873.0
875.0
883.0
888.0
889.0
891.0
886.0
883.0
882.0
887.0
893.0
894.0
893.0
890.0
896.0
900.0
904.0
902.0
895.0
897.0
897.0
900.0
901.0
905.0
904.0
903.0
908.0
913.0
913.0
912.0
911.0
914.0
916.0
920.0
919.0
925.0
927.0
926.0
930.0
935.0
937.0
941.0
940.0
941.0
941.0
948.0
948.0
949.0
951.0
950.0
954.0
957.0
952.0
947.0
946.0
947.0
946.0
954.0
953.0
951.0
946.0
943.0
947.0
950.0
951.0
955.0
952.0
949.0
952.0
952.0
950.0
946.0
945.0
947.0
957.0
954.0
951.0
940.0
933.0
934.0
941.0
948.0
951.0
951.0
943.0
944.0
942.0
937.0
937.0
941.0
945.0
944.0
938.0
934.0
943.0
946.0
945.0
941.0
944.0
943.0
940.0
939.0
944.0
946.0
946.0
942.0
939.0
942.0
943.0
943.0
944.0
941.0
936.0
938.0
940.0
942.0
940.0
941.0
940.0
938.0
933.0
932.0
936.0
941.0
943.0
940.0
940.0
942.0
945.0
947.0
944.0
942.0
938.0
946.0
948.0
950.0
946.0
937.0
932.0
931.0
941.0
946.0
949.0
946.0
945.0
945.0
947.0
949.0
953.0
947.0
944.0
940.0
942.0
944.0
943.0
942.0
938.0
941.0
944.0
949.0
946.0
940.0
941.0
942.0
948.0
947.0
948.0
953.0
953.0
955.0
955.0
954.0
948.0
938.0
934.0
935.0
941.0
947.0
950.0
951.0
949.0
952.0
958.0
962.0
965.0
964.0
961.0
958.0
963.0
968.0
971.0
969.0
970.0
977.0
991.0
1006.0
1005.0
1003.0
1007.0
1015.0
1013.0
1010.0
1003.0
1008.0
1013.0
1017.0
1015.0
1007.0
988.0
968.0
961.0
961.0
968.0
967.0
967.0
959.0
953.0
945.0
943.0
947.0
953.0
951.0
949.0
953.0
959.0
965.0
961.0
951.0
937.0
929.0
944.0
973.0
1014.0
1076.0
1155.0
1229.0
1287.0
1325.0
1351.0
1357.0
1335.0
1280.0
1195.0
1093.0
980.0
894.0
871.0
898.0
922.0
930.0
929.0
928.0
930.0
931.0
939.0
944.0
941.0
934.0
930.0
930.0
940.0
940.0
942.0
942.0
943.0
937.0
932.0
928.0
928.0
932.0
937.0
938.0
936.0
937.0
939.0
938.0
934.0
934.0
937.0
945.0
948.0
944.0
940.0
945.0
947.0
947.0
938.0
932.0
935.0
948.0
953.0
955.0
954.0
956.0
953.0
955.0
963.0
966.0
965.0
960.0
959.0
959.0
965.0
971.0
981.0
984.0
978.0
975.0
975.0
984.0
992.0
988.0
991.0
992.0
1002.0
1008.0
1014.0
1017.0
1022.0
1027.0
1033.0
1030.0
1020.0
1013.0
1019.0
1034.0
1042.0
1049.0
1047.0
1050.0
1048.0
1051.0
1053.0
1060.0
1057.0
1055.0
1050.0
1051.0
1054.0
1054.0
1055.0
1053.0
1046.0
1043.0
1043.0
1043.0
1041.0
1036.0
1031.0
1028.0
1025.0
1024.0
1022.0
1020.0
1015.0
1019.0
1021.0
1019.0
1008.0
992.0
984.0
986.0
992.0
995.0
995.0
989.0
983.0
981.0
984.0
988.0
989.0
984.0
981.0
986.0
991.0
992.0
984.0
980.0
984.0
988.0
992.0
989.0
991.0
991.0
990.0
988.0
994.0
1001.0
1005.0
1002.0
1000.0
1003.0
1005.0
1010.0
1016.0
1016.0
1015.0
1019.0
1031.0
1051.0
1069.0
1085.0
1099.0
1112.0
1130.0
1152.0
1170.0
1185.0
1205.0
1224.0
1247.0
1278.0
1313.0
1347.0
1381.0
1403.0
1418.0
1420.0
1398.0
1365.0
1329.0
1300.0
1264.0
1208.0
1135.0
1061.0
995.0
946.0
927.0
930.0
935.0
931.0
924.0
915.0
910.0
905.0
909.0
917.0
920.0
918.0
915.0
914.0
902.0
895.0
896.0
900.0
906.0
910.0
911.0
906.0
906.0
910.0
918.0
921.0
919.0
913.0
905.0
905.0
907.0
914.0
916.0
909.0
893.0
878.0
877.0
881.0
883.0
879.0
874.0
873.0
870.0
866.0
865.0
863.0
861.0
856.0
856.0
860.0
852.0
849.0
845.0
839.0
836.0
835.0
838.0
838.0
836.0
835.0
837.0
835.0
836.0
841.0
846.0
845.0
847.0
846.0
851.0
859.0
861.0
867.0
871.0
883.0
891.0
886.0
881.0
887.0
895.0
904.0
911.0
909.0
915.0
915.0
918.0
926.0
926.0
922.0
921.0
925.0
927.0
926.0
927.0
934.0
934.0
933.0
930.0
930.0
931.0
935.0
932.0
933.0
935.0
943.0
947.0
940.0
932.0
931.0
942.0
955.0
962.0
956.0
947.0
939.0
940.0
948.0
956.0
956.0
952.0
954.0
960.0
963.0
962.0
962.0
957.0
960.0
965.0
970.0
969.0
967.0
962.0
964.0
973.0
982.0
986.0
985.0
980.0
975.0
969.0
969.0
974.0
978.0
976.0
978.0
980.0
980.0
978.0
976.0
973.0
972.0
975.0
977.0
976.0
974.0
969.0
968.0
972.0
973.0
969.0
963.0
957.0
954.0
958.0
966.0
968.0
967.0
959.0
955.0
954.0
962.0
968.0
966.0
963.0
960.0
959.0
958.0
959.0
958.0
958.0
958.0
963.0
963.0
957.0
948.0
947.0
950.0
952.0
944.0
944.0
947.0
949.0
951.0
951.0
952.0
955.0
954.0
950.0
949.0
950.0
952.0
951.0
950.0
949.0
945.0
940.0
944.0
949.0
949.0
945.0
943.0
945.0
948.0
946.0
939.0
934.0
940.0
943.0
951.0
951.0
945.0
945.0
943.0
948.0
954.0
957.0
946.0
933.0
929.0
932.0
939.0
943.0
940.0
939.0
936.0
940.0
947.0
948.0
944.0
934.0
936.0
938.0
943.0
943.0
941.0
936.0
933.0
937.0
938.0
937.0
932.0
928.0
930.0
940.0
946.0
947.0
942.0
935.0
935.0
937.0
945.0
948.0
948.0
941.0
939.0
937.0
939.0
940.0
942.0
931.0
929.0
935.0
942.0
943.0
936.0
932.0
932.0
936.0
937.0
940.0
939.0
935.0
936.0
940.0
946.0
945.0
940.0
936.0
942.0
946.0
952.0
955.0
958.0
955.0
958.0
962.0
968.0
976.0
979.0
986.0
995.0
1003.0
1005.0
1004.0
1003.0
1002.0
1005.0
1013.0
1013.0
1005.0
991.0
980.0
971.0
968.0
967.0
964.0
957.0
951.0
947.0
942.0
939.0
939.0
940.0
942.0
944.0
942.0
941.0
942.0
944.0
942.0
935.0
933.0
939.0
957.0
995.0
1058.0
1147.0
1228.0
1289.0
1330.0
1352.0
1350.0
1326.0
1276.0
1197.0
1087.0
971.0
881.0
860.0
889.0
915.0
920.0
919.0
919.0
922.0
927.0
931.0
929.0
924.0
924.0
921.0
923.0
925.0
929.0
927.0
925.0
922.0
924.0
925.0
928.0
927.0
924.0
924.0
929.0
934.0
931.0
928.0
924.0
923.0
924.0
927.0
928.0
928.0
930.0
931.0
933.0
934.0
935.0
932.0
932.0
932.0
938.0
943.0
943.0
945.0
940.0
941.0
941.0
948.0
952.0
950.0
951.0
951.0
959.0
962.0
967.0
969.0
970.0
971.0
975.0
979.0
984.0
988.0
986.0
987.0
995.0
1003.0
1007.0
1008.0
1011.0
1016.0
1023.0
1032.0
1034.0
1031.0
1028.0
1030.0
1036.0
1042.0
1047.0
1050.0
1049.0
1047.0
1045.0
1040.0
1035.0
1034.0
1033.0
1036.0
1038.0
1040.0
1039.0
1034.0
1028.0
1027.0
1027.0
1027.0
1025.0
1016.0
1008.0
1003.0
1003.0
1006.0
1003.0
997.0
993.0
987.0
986.0
992.0
989.0
987.0
981.0
979.0
973.0
981.0
980.0
978.0
974.0
972.0
975.0
979.0
980.0
977.0
974.0
971.0
976.0
981.0
980.0
979.0
978.0
979.0
982.0
986.0
990.0
990.0
988.0
992.0
997.0
1000.0
1007.0
1012.0
1018.0
1027.0
1043.0
1069.0
1092.0
1113.0
1130.0
1150.0
1180.0
1210.0
1239.0
1266.0
1285.0
1322.0
1365.0
1399.0
1414.0
1409.0
1392.0
1370.0
1342.0
1305.0
1238.0
1144.0
1053.0
995.0
960.0
943.0
930.0
911.0
901.0
899.0
909.0
917.0
930.0
932.0
929.0
927.0
923.0
925.0
928.0
922.0
919.0
912.0
912.0
907.0
908.0
904.0
901.0
896.0
896.0
899.0
901.0
901.0
898.0
897.0
901.0
906.0
910.0
911.0
911.0
910.0
914.0
920.0
923.0
921.0
914.0
910.0
903.0
907.0
909.0
903.0
899.0
894.0
895.0
899.0
903.0
902.0
902.0
901.0
901.0
906.0
907.0
908.0
910.0
911.0
917.0
921.0
924.0
929.0
929.0
935.0
939.0
941.0
950.0
950.0
952.0
955.0
960.0
966.0
970.0
976.0
973.0
974.0
978.0
980.0
982.0
980.0
977.0
977.0
975.0
978.0
980.0
975.0
969.0
967.0
970.0
975.0
978.0
976.0
978.0
977.0
976.0
979.0
977.0
976.0
971.0
970.0
966.0
969.0
970.0
971.0
968.0
968.0
970.0
970.0
974.0
973.0
970.0
971.0
975.0
978.0
981.0
981.0
980.0
979.0
981.0
983.0
986.0
985.0
983.0
985.0
988.0
988.0
993.0
993.0
988.0
989.0
993.0
996.0
995.0
996.0
995.0
990.0
994.0
1003.0
1010.0
1010.0
1001.0
994.0
988.0
988.0
985.0
980.0
977.0
978.0
982.0
983.0
982.0
986.0
982.0
983.0
984.0
983.0
984.0
980.0
978.0
978.0
980.0
982.0
984.0
982.0
981.0
978.0
975.0
976.0
978.0
975.0
976.0
981.0
984.0
984.0
984.0
979.0
974.0
965.0
963.0
967.0
968.0
970.0
967.0
970.0
970.0
975.0
974.0
972.0
966.0
963.0
961.0
966.0
968.0
971.0
965.0
966.0
969.0
969.0
972.0
969.0
968.0
965.0
967.0
972.0
969.0
971.0
969.0
966.0
971.0
974.0
971.0
971.0
966.0
967.0
969.0
971.0
972.0
968.0
969.0
969.0
971.0
971.0
970.0
967.0
965.0
965.0
965.0
968.0
972.0
973.0
970.0
966.0
968.0
969.0
970.0
969.0
972.0
972.0
972.0
975.0
978.0
975.0
970.0
959.0
955.0
957.0
961.0
960.0
956.0
953.0
956.0
960.0
962.0
958.0
960.0
959.0
961.0
966.0
968.0
966.0
964.0
964.0
966.0
969.0
974.0
974.0
967.0
962.0
958.0
960.0
962.0
963.0
961.0
961.0
963.0
966.0
970.0
967.0
963.0
966.0
970.0
969.0
968.0
966.0
965.0
962.0
965.0
969.0
973.0
973.0
974.0
975.0
982.0
987.0
992.0
994.0
991.0
989.0
993.0
999.0
1008.0
1020.0
1025.0
1028.0
1033.0
1037.0
1036.0
1035.0
1033.0
1031.0
1025.0
1022.0
1013.0
1003.0
993.0
986.0
982.0
979.0
974.0
972.0
966.0
963.0
966.0
971.0
971.0
973.0
970.0
968.0
963.0
960.0
950.0
937.0
931.0
947.0
978.0
1032.0
1106.0
1191.0
1266.0
1321.0
1368.0
1394.0
1397.0
1370.0
1306.0
1215.0
1104.0
989.0
915.0
901.0
924.0
944.0
947.0
949.0
948.0
952.0
948.0
945.0
945.0
947.0
950.0
953.0
952.0
955.0
953.0
955.0
952.0
952.0
946.0
944.0
946.0
950.0
949.0
950.0
945.0
940.0
944.0
947.0
951.0
950.0
949.0
949.0
953.0
958.0
960.0
955.0
951.0
952.0
954.0
956.0
960.0
956.0
954.0
958.0
960.0
963.0
968.0
969.0
966.0
966.0
969.0
972.0
977.0
974.0
977.0
978.0
980.0
986.0
988.0
991.0
992.0
994.0
999.0
1002.0
1005.0
1004.0
1006.0
1009.0
1015.0
1021.0
1026.0
1025.0
1028.0
1028.0
1035.0
1039.0
1043.0
1043.0
1043.0
1044.0
1050.0
1051.0
1055.0
1050.0
1044.0
1042.0
1045.0
1051.0
1055.0
1050.0
1043.0
1035.0
1030.0
1034.0
1034.0
1033.0
1031.0
1031.0
1029.0
1028.0
1025.0
1017.0
1010.0
1005.0
1005.0
1006.0
1004.0
1002.0
997.0
996.0
997.0
1000.0
998.0
991.0
985.0
978.0
977.0
982.0
985.0
982.0
981.0
982.0
985.0
989.0
990.0
988.0
987.0
986.0
987.0
988.0
992.0
986.0
981.0
981.0
985.0
990.0
994.0
995.0
993.0
991.0
995.0
996.0
1004.0
1003.0
1004.0
1011.0
1022.0
1032.0
1045.0
1057.0
1067.0
1081.0
1103.0
1128.0
1157.0
1186.0
1209.0
1237.0
1267.0
1292.0
1294.0
1279.0
1241.0
1202.0
1175.0
1157.0
1134.0
1102.0
1056.0
1001.0
958.0
925.0
897.0
881.0
866.0
861.0
863.0
870.0
875.0
883.0
892.0
903.0
919.0
933.0
938.0
939.0
934.0
932.0
933.0
935.0
933.0
933.0
926.0
924.0
922.0
926.0
925.0
923.0
921.0
921.0
924.0
929.0
929.0
933.0
934.0
937.0
945.0
951.0
953.0
951.0
945.0
948.0
955.0
962.0
963.0
958.0
958.0
955.0
963.0
968.0
974.0
975.0
979.0
985.0
988.0
994.0
999.0
1002.0
1003.0
1008.0
1012.0
1022.0
1032.0
1035.0
1043.0
1042.0
1046.0
1052.0
1057.0
1059.0
1061.0
1062.0
1065.0
1072.0
1074.0
1074.0
1072.0
1072.0
1074.0
1077.0
1073.0
1071.0
1068.0
1062.0
1061.0
1061.0
1059.0
1053.0
1045.0
1041.0
1038.0
1036.0
1036.0
1030.0
1023.0
1018.0
1018.0
1017.0
1014.0
1012.0
1006.0
1004.0
1002.0
1004.0
1003.0
999.0
996.0
991.0
991.0
990.0
990.0
990.0
989.0
986.0
986.0
989.0
989.0
986.0
984.0
979.0
982.0
983.0
984.0
982.0
979.0
976.0
978.0
980.0
984.0
982.0
980.0
979.0
977.0
980.0
980.0
978.0
976.0
974.0
974.0
976.0
978.0
975.0
974.0
974.0
974.0
976.0
975.0
974.0
969.0
968.0
967.0
969.0
969.0
965.0
964.0
960.0
961.0
964.0
966.0
964.0
960.0
957.0
956.0
955.0
959.0
957.0
956.0
953.0
954.0
955.0
955.0
953.0
949.0
947.0
946.0
950.0
953.0
950.0
947.0
943.0
948.0
950.0
951.0
950.0
946.0
944.0
945.0
947.0
947.0
945.0
941.0
938.0
940.0
943.0
945.0
944.0
942.0
941.0
943.0
946.0
948.0
947.0
944.0
943.0
943.0
946.0
944.0
942.0
938.0
934.0
936.0
941.0
944.0
945.0
942.0
940.0
941.0
942.0
942.0
942.0
939.0
939.0
943.0
943.0
942.0
939.0
934.0
935.0
937.0
940.0
947.0
946.0
942.0
942.0
940.0
945.0
945.0
943.0
941.0
939.0
941.0
945.0
947.0
943.0
942.0
941.0
941.0
945.0
945.0
944.0
941.0
940.0
940.0
944.0
946.0
945.0
941.0
939.0
942.0
942.0
945.0
943.0
941.0
938.0
943.0
946.0
946.0
944.0
944.0
942.0
943.0
944.0
945.0
943.0
944.0
942.0
943.0
946.0
944.0
942.0
942.0
940.0
944.0
944.0
943.0
945.0
944.0
942.0
943.0
945.0
946.0
944.0
943.0
941.0
944.0
945.0
947.0
944.0
945.0
945.0
946.0
947.0
950.0
948.0
943.0
944.0
943.0
947.0
950.0
945.0
943.0
944.0
947.0
951.0
951.0
949.0
947.0
944.0
947.0
949.0
949.0
951.0
951.0
949.0
952.0
957.0
962.0
963.0
963.0
965.0
971.0
976.0
979.0
979.0
981.0
984.0
994.0
999.0
1004.0
1004.0
1003.0
1003.0
1006.0
1008.0
1009.0
1006.0
1000.0
990.0
984.0
980.0
974.0
968.0
960.0
957.0
953.0
951.0
950.0
948.0
944.0
944.0
943.0
948.0
950.0
948.0
948.0
945.0
944.0
941.0
941.0
943.0
954.0
981.0
1027.0
1091.0
1162.0
1225.0
1272.0
1302.0
1323.0
1332.0
1317.0
1276.0
1209.0
1123.0
1029.0
950.0
900.0
892.0
903.0
911.0
915.0
915.0
918.0
922.0
924.0
920.0
922.0
925.0
925.0
925.0
921.0
919.0
920.0
922.0
924.0
927.0
925.0
921.0
923.0
922.0
928.0
927.0
922.0
920.0
919.0
924.0
924.0
923.0
921.0
921.0
922.0
926.0
927.0
929.0
927.0
927.0
930.0
934.0
936.0
933.0
936.0
936.0
938.0
939.0
945.0
943.0
940.0
941.0
944.0
943.0
946.0
945.0
945.0
948.0
946.0
951.0
957.0
962.0
961.0
961.0
966.0
974.0
977.0
980.0
980.0
983.0
987.0
993.0
995.0
997.0
1000.0
1001.0
1005.0
1009.0
1015.0
1013.0
1015.0
1017.0
1019.0
1025.0
1027.0
1027.0
1023.0
1023.0
1023.0
1027.0
1028.0
1025.0
1023.0
1017.0
1021.0
1021.0
1021.0
1017.0
1014.0
1011.0
1013.0
1014.0
1011.0
1005.0
1002.0
999.0
997.0
997.0
997.0
992.0
990.0
986.0
986.0
985.0
986.0
981.0
975.0
974.0
972.0
974.0
976.0
974.0
971.0
967.0
964.0
967.0
970.0
968.0
965.0
967.0
968.0
971.0
974.0
975.0
974.0
975.0
979.0
982.0
982.0
986.0
985.0
983.0
986.0
991.0
995.0
994.0
997.0
997.0
1003.0
1008.0
1013.0
1019.0
1018.0
1027.0
1042.0
1063.0
1082.0
1103.0
1120.0
1133.0
1152.0
1174.0
1196.0
1215.0
1235.0
1260.0
1294.0
1334.0
1367.0
1399.0
1414.0
1412.0
1405.0
1390.0
1364.0
1317.0
1253.0
1176.0
1077.0
986.0
935.0
919.0
926.0
937.0
949.0
951.0
946.0
940.0
932.0
925.0
923.0
923.0
923.0
921.0
915.0
912.0
908.0
911.0
910.0
906.0
900.0
897.0
895.0
892.0
891.0
890.0
884.0
882.0
883.0
883.0
889.0
889.0
886.0
884.0
888.0
892.0
896.0
897.0
899.0
899.0
898.0
896.0
898.0
896.0
892.0
890.0
886.0
888.0
889.0
887.0
883.0
877.0
878.0
876.0
876.0
875.0
870.0
869.0
869.0
870.0
870.0
867.0
866.0
867.0
865.0
872.0
874.0
873.0
872.0
873.0
876.0
880.0
890.0
894.0
894.0
896.0
902.0
908.0
917.0
920.0
918.0
920.0
923.0
929.0
931.0
935.0
934.0
936.0
941.0
943.0
946.0
944.0
943.0
941.0
942.0
943.0
948.0
948.0
946.0
942.0
944.0
948.0
948.0
946.0
948.0
945.0
946.0
949.0
948.0
949.0
948.0
947.0
949.0
952.0
954.0
954.0
952.0
953.0
953.0
959.0
961.0
961.0
960.0
960.0
960.0
962.0
964.0
964.0
964.0
964.0
965.0
966.0
971.0
971.0
969.0
964.0
969.0
971.0
974.0
976.0
974.0
973.0
976.0
979.0
981.0
977.0
975.0
973.0
973.0
977.0
981.0
984.0
985.0
984.0
985.0
989.0
989.0
988.0
986.0
986.0
986.0
987.0
986.0
983.0
977.0
974.0
974.0
981.0
986.0
983.0
977.0
978.0
976.0
979.0
983.0
977.0
973.0
972.0
970.0
971.0
970.0
969.0
967.0
966.0
968.0
972.0
975.0
971.0
971.0
969.0
970.0
969.0
971.0
967.0
966.0
963.0
968.0
965.0
963.0
961.0
963.0
963.0
965.0
964.0
965.0
963.0
961.0
962.0
965.0
966.0
966.0
963.0
961.0
957.0
956.0
959.0
964.0
964.0
959.0
954.0
959.0
957.0
964.0
960.0
960.0
961.0
960.0
961.0
961.0
960.0
958.0
960.0
961.0
965.0
967.0
964.0
962.0
961.0
961.0
964.0
966.0
964.0
961.0
956.0
957.0
961.0
963.0
964.0
963.0
960.0
963.0
966.0
968.0
966.0
961.0
961.0
957.0
959.0
966.0
967.0
962.0
963.0
963.0
964.0
966.0
962.0
959.0
957.0
959.0
964.0
966.0
966.0
961.0
962.0
960.0
963.0
966.0
965.0
966.0
965.0
965.0
966.0
965.0
964.0
965.0
964.0
964.0
965.0
968.0
970.0
967.0
963.0
964.0
969.0
974.0
972.0
969.0
964.0
966.0
967.0
969.0
966.0
964.0
963.0
966.0
968.0
970.0
969.0
964.0
960.0
962.0
967.0
969.0
969.0
967.0
966.0
968.0
973.0
972.0
971.0
965.0
963.0
966.0
967.0
970.0
971.0
969.0
963.0
963.0
967.0
967.0
970.0
970.0
968.0
970.0
971.0
973.0
969.0
964.0
964.0
968.0
971.0
975.0
974.0
968.0
966.0
966.0
972.0
975.0
978.0
977.0
974.0
976.0
981.0
983.0
982.0
982.0
985.0
994.0
1000.0
1008.0
1009.0
1009.0
1013.0
1022.0
1032.0
1043.0
1040.0
1036.0
1035.0
1038.0
1041.0
1046.0
1044.0
1035.0
1025.0
1018.0
1010.0
1005.0
995.0
987.0
981.0
982.0
976.0
976.0
973.0
971.0
972.0
974.0
981.0
982.0
987.0
987.0
986.0
983.0
970.0
956.0
942.0
931.0
943.0
974.0
1027.0
1100.0
1184.0
1260.0
1319.0
1364.0
1392.0
1397.0
1381.0
1327.0
1237.0
1115.0
994.0
907.0
888.0
912.0
935.0
940.0
939.0
944.0
953.0
959.0
962.0
962.0
957.0
950.0
943.0
935.0
938.0
944.0
945.0
946.0
947.0
943.0
942.0
946.0
951.0
952.0
949.0
942.0
940.0
942.0
945.0
951.0
951.0
946.0
937.0
938.0
937.0
944.0
944.0
945.0
945.0
944.0
945.0
950.0
947.0
948.0
949.0
950.0
955.0
958.0
958.0
957.0
955.0
958.0
959.0
962.0
964.0
962.0
962.0
965.0
970.0
974.0
972.0
976.0
976.0
979.0
984.0
989.0
989.0
990.0
991.0
993.0
1000.0
1005.0
1007.0
1011.0
1013.0
1014.0
1019.0
1025.0
1024.0
1025.0
1023.0
1030.0
1038.0
1043.0
1041.0
1042.0
1038.0
1040.0
1043.0
1045.0
1045.0
1040.0
1044.0
1042.0
1043.0
1045.0
1047.0
1045.0
1041.0
1034.0
1033.0
1027.0
1025.0
1019.0
1014.0
1013.0
1015.0
1017.0
1017.0
1014.0
1012.0
1008.0
1007.0
1001.0
993.0
983.0
982.0
983.0
986.0
981.0
975.0
969.0
964.0
961.0
964.0
966.0
963.0
960.0
958.0
961.0
967.0
969.0
971.0
971.0
973.0
978.0
983.0
982.0
981.0
980.0
977.0
979.0
977.0
972.0
969.0
969.0
969.0
971.0
975.0
979.0
983.0
982.0
988.0
1000.0
1016.0
1038.0
1059.0
1085.0
1114.0
1141.0
1163.0
1179.0
1197.0
1217.0
1239.0
1268.0
1301.0
1340.0
1376.0
1409.0
1429.0
1435.0
1431.0
1410.0
1381.0
1348.0
1306.0
1259.0
1200.0
1132.0
1061.0
999.0
954.0
924.0
910.0
906.0
902.0
894.0
894.0
901.0
905.0
906.0
905.0
899.0
891.0
892.0
893.0
890.0
888.0
882.0
880.0
878.0
879.0
877.0
870.0
862.0
859.0
856.0
855.0
857.0
853.0
853.0
853.0
854.0
856.0
862.0
860.0
857.0
860.0
864.0
871.0
873.0
870.0
869.0
866.0
869.0
872.0
870.0
871.0
866.0
863.0
861.0
861.0
861.0
856.0
851.0
848.0
853.0
854.0
857.0
858.0
854.0
853.0
860.0
867.0
874.0
877.0
882.0
888.0
894.0
892.0
893.0
896.0
894.0
896.0
898.0
901.0
909.0
913.0
918.0
922.0
929.0
935.0
938.0
940.0
942.0
942.0
947.0
954.0
962.0
970.0
966.0
963.0
960.0
964.0
973.0
974.0
965.0
949.0
939.0
937.0
940.0
940.0
934.0
931.0
933.0
936.0
941.0
945.0
944.0
947.0
953.0
957.0
961.0
959.0
959.0
962.0
969.0
981.0
991.0
991.0
986.0
972.0
955.0
944.0
934.0
930.0
931.0
936.0
944.0
949.0
954.0
957.0
956.0
956.0
961.0
962.0
971.0
976.0
976.0
974.0
975.0
974.0
981.0
979.0
975.0
974.0
974.0
976.0
980.0
976.0
974.0
974.0
980.0
980.0
982.0
979.0
973.0
969.0
970.0
975.0
980.0
982.0
983.0
981.0
983.0
983.0
976.0
959.0
947.0
946.0
955.0
956.0
961.0
958.0
956.0
958.0
963.0
961.0
967.0
966.0
964.0
963.0
965.0
968.0
969.0
971.0
964.0
965.0
967.0
968.0
970.0
975.0
970.0
969.0
970.0
971.0
970.0
973.0
968.0
965.0
970.0
973.0
979.0
978.0
973.0
970.0
972.0
977.0
981.0
979.0
977.0
974.0
976.0
978.0
981.0
981.0
980.0
981.0
978.0
980.0
982.0
980.0
979.0
979.0
979.0
981.0
986.0
985.0
987.0
983.0
984.0
982.0
984.0
985.0
982.0
980.0
981.0
983.0
986.0
988.0
986.0
984.0
983.0
987.0
991.0
992.0
990.0
988.0
987.0
991.0
991.0
992.0
989.0
985.0
983.0
986.0
985.0
983.0
979.0
977.0
979.0
981.0
982.0
981.0
979.0
980.0
981.0
978.0
982.0
982.0
979.0
977.0
977.0
981.0
978.0
978.0
978.0
973.0
975.0
979.0
981.0
980.0
975.0
973.0
977.0
981.0
980.0
980.0
978.0
977.0
976.0
980.0
980.0
979.0
977.0
974.0
972.0
977.0
980.0
979.0
977.0
975.0
975.0
978.0
982.0
982.0
980.0
979.0
979.0
979.0
983.0
981.0
981.0
980.0
981.0
980.0
981.0
982.0
981.0
978.0
980.0
982.0
987.0
986.0
982.0
982.0
985.0
985.0
984.0
986.0
982.0
984.0
984.0
986.0
987.0
987.0
983.0
980.0
980.0
984.0
986.0
983.0
985.0
983.0
988.0
991.0
993.0
993.0
994.0
995.0
1001.0
1003.0
1009.0
1009.0
1011.0
1011.0
1012.0
1030.0
1043.0
1053.0
1052.0
1049.0
1048.0
1050.0
1051.0
1052.0
1049.0
1042.0
1033.0
1025.0
1018.0
1009.0
1002.0
998.0
999.0
996.0
994.0
990.0
986.0
985.0
984.0
987.0
985.0
987.0
983.0
979.0
977.0
973.0
965.0
961.0
966.0
992.0
1044.0
1126.0
1220.0
1304.0
1355.0
1385.0
1402.0
1402.0
1374.0
1308.0
1200.0
1072.0
944.0
