# Simple Text Format
# Sampling Rate (Hz):= 360.00
# Resolution:= 12
# Labels:= ECG
837.0
838.0
835.0
837.0
835.0
837.0
838.0
840.0
838.0
836.0
838.0
835.0
831.0
832.0
834.0
835.0
838.0
840.0
841.0
843.0
845.0
843.0
841.0
837.0
841.0
842.0
844.0
847.0
845.0
844.0
846.0
847.0
848.0
846.0
849.0
850.0
849.0
853.0
860.0
876.0
899.0
924.0
960.0
993.0
1026.0
1061.0
1103.0
1141.0
1184.0
1230.0
1275.0
1318.0
1356.0
1382.0
1399.0
1410.0
1414.0
1411.0
1402.0
1390.0
1376.0
1359.0
1345.0
1335.0
1339.0
1346.0
1349.0
1350.0
1344.0
1327.0
1302.0
1269.0
1238.0
1201.0
1154.0
1094.0
1025.0
953.0
891.0
843.0
812.0
804.0
807.0
811.0
810.0
805.0
795.0
788.0
781.0
774.0
769.0
770.0
766.0
763.0
758.0
750.0
747.0
744.0
743.0
740.0
743.0
738.0
740.0
741.0
737.0
735.0
731.0
729.0
726.0
725.0
721.0
719.0
719.0
722.0
723.0
726.0
722.0
723.0
719.0
718.0
718.0
714.0
714.0
715.0
718.0
719.0
725.0
727.0
726.0
724.0
716.0
709.0
702.0
696.0
687.0
679.0
673.0
669.0
660.0
651.0
639.0
621.0
608.0
595.0
583.0
575.0
566.0
560.0
559.0
558.0
554.0
551.0
547.0
545.0
541.0
537.0
538.0
537.0
536.0
539.0
544.0
549.0
555.0
560.0
566.0
571.0
578.0
588.0
596.0
604.0
611.0
624.0
635.0
646.0
661.0
673.0
682.0
692.0
702.0
710.0
722.0
726.0
736.0
744.0
753.0
763.0
770.0
775.0
779.0
779.0
783.0
781.0
783.0
781.0
784.0
785.0
788.0
790.0
791.0
793.0
792.0
791.0
790.0
786.0
788.0
786.0
788.0
785.0
791.0
793.0
795.0
799.0
798.0
800.0
795.0
795.0
798.0
796.0
796.0
794.0
799.0
800.0
802.0
802.0
803.0
804.0
802.0
801.0
802.0
801.0
801.0
798.0
803.0
804.0
807.0
811.0
810.0
808.0
806.0
804.0
806.0
804.0
805.0
804.0
806.0
807.0
810.0
813.0
814.0
814.0
806.0
806.0
808.0
807.0
806.0
809.0
809.0
811.0
814.0
813.0
811.0
808.0
808.0
808.0
809.0
811.0
813.0
811.0
811.0
810.0
816.0
819.0
818.0
817.0
816.0
815.0
812.0
813.0
810.0
812.0
812.0
817.0
816.0
819.0
818.0
819.0
817.0
818.0
818.0
817.0
817.0
818.0
818.0
819.0
819.0
820.0
823.0
822.0
823.0
821.0
818.0
815.0
816.0
818.0
818.0
823.0
823.0
827.0
823.0
825.0
822.0
818.0
818.0
816.0
817.0
816.0
814.0
819.0
819.0
825.0
827.0
826.0
825.0
824.0
825.0
819.0
820.0
821.0
821.0
825.0
827.0
827.0
825.0
823.0
824.0
820.0
822.0
822.0
823.0
823.0
826.0
829.0
825.0
829.0
828.0
828.0
826.0
826.0
826.0
825.0
824.0
822.0
825.0
825.0
826.0
830.0
831.0
830.0
829.0
828.0
825.0
826.0
826.0
824.0
825.0
827.0
832.0
833.0
833.0
836.0
831.0
830.0
829.0
826.0
827.0
826.0
828.0
830.0
828.0
830.0
830.0
827.0
827.0
823.0
822.0
824.0
823.0
825.0
827.0
831.0
834.0
833.0
834.0
833.0
831.0
831.0
830.0
828.0
827.0
826.0
828.0
829.0
831.0
831.0
834.0
834.0
832.0
832.0
828.0
829.0
828.0
827.0
829.0
829.0
831.0
835.0
836.0
833.0
833.0
831.0
828.0
826.0
829.0
829.0
829.0
833.0
835.0
834.0
836.0
835.0
833.0
828.0
828.0
827.0
826.0
827.0
831.0
829.0
830.0
830.0
833.0
831.0
830.0
829.0
831.0
830.0
829.0
830.0
834.0
839.0
843.0
849.0
853.0
856.0
859.0
854.0
855.0
858.0
861.0
866.0
873.0
881.0
893.0
900.0
901.0
902.0
901.0
898.0
893.0
892.0
896.0
894.0
894.0
889.0
881.0
869.0
862.0
853.0
842.0
836.0
832.0
828.0
826.0
828.0
825.0
829.0
828.0
832.0
832.0
830.0
829.0
824.0
827.0
824.0
821.0
821.0
822.0
827.0
829.0
832.0
830.0
828.0
818.0
810.0
808.0
809.0
819.0
841.0
877.0
924.0
986.0
1055.0
1128.0
1190.0
1233.0
1254.0
1257.0
1239.0
1204.0
1136.0
1049.0
952.0
866.0
815.0
804.0
819.0
845.0
868.0
878.0
875.0
867.0
853.0
842.0
831.0
829.0
830.0
832.0
830.0
828.0
828.0
825.0
824.0
825.0
819.0
819.0
825.0
823.0
825.0
823.0
824.0
822.0
821.0
823.0
816.0
817.0
818.0
818.0
822.0
824.0
824.0
826.0
824.0
824.0
822.0
822.0
820.0
820.0
820.0
824.0
823.0
825.0
825.0
826.0
825.0
826.0
826.0
825.0
824.0
824.0
827.0
827.0
830.0
832.0
834.0
833.0
834.0
833.0
836.0
832.0
832.0
831.0
834.0
836.0
839.0
841.0
846.0
847.0
850.0
848.0
846.0
848.0
844.0
849.0
851.0
858.0
863.0
867.0
870.0
873.0
874.0
874.0
876.0
879.0
879.0
884.0
883.0
888.0
889.0
891.0
900.0
903.0
905.0
906.0
907.0
907.0
907.0
909.0
912.0
913.0
919.0
922.0
925.0
929.0
931.0
932.0
933.0
932.0
931.0
930.0
927.0
928.0
928.0
924.0
923.0
920.0
912.0
908.0
905.0
899.0
892.0
888.0
883.0
881.0
881.0
874.0
876.0
874.0
869.0
866.0
863.0
860.0
861.0
859.0
857.0
858.0
860.0
861.0
866.0
860.0
862.0
860.0
862.0
862.0
859.0
859.0
858.0
860.0
864.0
863.0
867.0
869.0
869.0
869.0
868.0
866.0
866.0
861.0
865.0
865.0
871.0
873.0
875.0
873.0
871.0
867.0
867.0
866.0
863.0
864.0
865.0
869.0
879.0
895.0
915.0
941.0
966.0
994.0
1026.0
1059.0
1093.0
1132.0
1176.0
1222.0
1269.0
1314.0
1349.0
1378.0
1399.0
1420.0
1429.0
1430.0
1430.0
1422.0
1410.0
1394.0
1378.0
1363.0
1357.0
1357.0
1361.0
1360.0
1355.0
1342.0
1319.0
1286.0
1251.0
1208.0
1156.0
1097.0
1022.0
948.0
881.0
837.0
819.0
813.0
820.0
821.0
822.0
818.0
810.0
804.0
792.0
786.0
781.0
776.0
772.0
768.0
767.0
761.0
759.0
759.0
758.0
758.0
753.0
755.0
749.0
752.0
748.0
742.0
739.0
735.0
734.0
732.0
731.0
729.0
727.0
727.0
726.0
723.0
720.0
720.0
717.0
715.0
713.0
713.0
711.0
715.0
716.0
715.0
716.0
718.0
717.0
715.0
709.0
701.0
693.0
686.0
683.0
679.0
674.0
664.0
650.0
638.0
620.0
608.0
597.0
580.0
574.0
565.0
566.0
567.0
564.0
566.0
561.0
561.0
563.0
564.0
562.0
565.0
572.0
577.0
584.0
593.0
598.0
605.0
617.0
627.0
634.0
644.0
651.0
662.0
677.0
689.0
697.0
707.0
719.0
730.0
741.0
747.0
756.0
761.0
767.0
771.0
775.0
782.0
785.0
790.0
793.0
795.0
794.0
797.0
796.0
795.0
793.0
791.0
794.0
794.0
795.0
794.0
795.0
795.0
797.0
799.0
800.0
799.0
798.0
792.0
797.0
799.0
799.0
801.0
805.0
806.0
806.0
804.0
804.0
804.0
800.0
800.0
803.0
803.0
805.0
805.0
807.0
806.0
807.0
807.0
805.0
804.0
802.0
804.0
801.0
802.0
808.0
811.0
813.0
815.0
813.0
813.0
810.0
811.0
808.0
802.0
806.0
805.0
807.0
810.0
813.0
816.0
816.0
815.0
816.0
812.0
807.0
811.0
812.0
813.0
815.0
816.0
820.0
818.0
819.0
816.0
815.0
809.0
806.0
806.0
807.0
807.0
815.0
815.0
818.0
818.0
819.0
815.0
814.0
812.0
812.0
811.0
811.0
817.0
820.0
820.0
822.0
823.0
819.0
819.0
814.0
815.0
815.0
814.0
813.0
813.0
817.0
820.0
820.0
821.0
821.0
819.0
819.0
819.0
816.0
816.0
816.0
817.0
819.0
821.0
821.0
824.0
824.0
823.0
820.0
819.0
818.0
815.0
817.0
817.0
821.0
821.0
825.0
823.0
822.0
822.0
821.0
821.0
818.0
820.0
820.0
819.0
823.0
825.0
826.0
826.0
824.0
828.0
826.0
821.0
822.0
820.0
821.0
823.0
824.0
828.0
826.0
826.0
827.0
827.0
822.0
818.0
816.0
819.0
821.0
824.0
823.0
825.0
825.0
828.0
827.0
828.0
822.0
821.0
821.0
824.0
823.0
823.0
825.0
828.0
827.0
830.0
827.0
826.0
826.0
821.0
824.0
823.0
825.0
824.0
822.0
828.0
829.0
829.0
832.0
830.0
831.0
830.0
827.0
825.0
823.0
824.0
827.0
829.0
829.0
834.0
830.0
830.0
828.0
826.0
826.0
825.0
825.0
825.0
829.0
828.0
831.0
832.0
830.0
830.0
830.0
828.0
824.0
823.0
825.0
826.0
827.0
831.0
831.0
833.0
833.0
831.0
829.0
828.0
829.0
827.0
829.0
829.0
829.0
833.0
831.0
834.0
833.0
832.0
831.0
827.0
825.0
827.0
828.0
829.0
832.0
831.0
833.0
834.0
832.0
833.0
833.0
832.0
832.0
830.0
829.0
830.0
832.0
833.0
835.0
835.0
836.0
834.0
838.0
834.0
837.0
838.0
840.0
845.0
851.0
855.0
858.0
864.0
866.0
868.0
867.0
868.0
873.0
879.0
884.0
893.0
899.0
904.0
906.0
905.0
903.0
902.0
897.0
900.0
898.0
891.0
885.0
877.0
868.0
860.0
847.0
843.0
834.0
830.0
831.0
830.0
830.0
831.0
831.0
828.0
828.0
827.0
830.0
830.0
830.0
831.0
832.0
828.0
827.0
827.0
827.0
827.0
827.0
827.0
824.0
821.0
815.0
818.0
829.0
856.0
894.0
948.0
1015.0
1094.0
1165.0
1220.0
1254.0
1259.0
1239.0
1199.0
1130.0
1033.0
933.0
857.0
813.0
809.0
829.0
850.0
873.0
885.0
880.0
866.0
850.0
840.0
828.0
825.0
825.0
827.0
830.0
831.0
829.0
833.0
831.0
829.0
824.0
824.0
820.0
820.0
819.0
822.0
824.0
823.0
824.0
827.0
828.0
824.0
821.0
822.0
821.0
819.0
816.0
819.0
818.0
820.0
825.0
828.0
822.0
824.0
821.0
822.0
822.0
821.0
820.0
820.0
824.0
826.0
827.0
830.0
829.0
829.0
830.0
828.0
826.0
822.0
828.0
829.0
829.0
834.0
837.0
841.0
841.0
841.0
842.0
838.0
839.0
838.0
841.0
844.0
847.0
851.0
855.0
858.0
865.0
859.0
866.0
865.0
866.0
870.0
874.0
873.0
881.0
883.0
885.0
892.0
894.0
894.0
896.0
900.0
901.0
904.0
907.0
911.0
912.0
915.0
920.0
925.0
927.0
926.0
929.0
930.0
930.0
932.0
933.0
932.0
935.0
932.0
930.0
932.0
930.0
923.0
920.0
914.0
910.0
906.0
904.0
901.0
898.0
890.0
889.0
889.0
882.0
879.0
875.0
870.0
865.0
864.0
860.0
862.0
860.0
858.0
860.0
860.0
859.0
855.0
854.0
854.0
850.0
853.0
851.0
852.0
858.0
856.0
859.0
857.0
859.0
858.0
859.0
856.0
853.0
855.0
856.0
856.0
861.0
863.0
864.0
865.0
865.0
865.0
862.0
863.0
861.0
859.0
862.0
861.0
864.0
865.0
868.0
867.0
866.0
865.0
864.0
860.0
860.0
865.0
882.0
903.0
931.0
961.0
994.0
1024.0
1061.0
1099.0
1145.0
1188.0
1239.0
1281.0
1322.0
1358.0
1390.0
1413.0
1425.0
1431.0
1430.0
1418.0
1411.0
1394.0
1375.0
1361.0
1356.0
1356.0
1361.0
1363.0
1361.0
1353.0
1329.0
1301.0
1263.0
1233.0
1189.0
1146.0
1089.0
1022.0
951.0
893.0
847.0
826.0
821.0
821.0
823.0
822.0
818.0
808.0
796.0
792.0
786.0
782.0
778.0
777.0
773.0
773.0
768.0
762.0
760.0
757.0
754.0
750.0
749.0
749.0
748.0
748.0
745.0
746.0
742.0
738.0
734.0
734.0
733.0
732.0
734.0
732.0
736.0
737.0
736.0
736.0
734.0
731.0
725.0
725.0
728.0
733.0
738.0
738.0
739.0
733.0
726.0
721.0
712.0
707.0
701.0
696.0
688.0
675.0
666.0
651.0
640.0
627.0
609.0
599.0
590.0
583.0
578.0
572.0
568.0
565.0
564.0
564.0
559.0
559.0
554.0
555.0
554.0
554.0
552.0
550.0
553.0
556.0
566.0
573.0
577.0
585.0
590.0
593.0
601.0
604.0
613.0
623.0
633.0
642.0
655.0
667.0
681.0
692.0
699.0
708.0
719.0
729.0
735.0
742.0
746.0
756.0
761.0
770.0
773.0
778.0
780.0
780.0
781.0
779.0
783.0
781.0
782.0
780.0
785.0
787.0
788.0
790.0
791.0
790.0
789.0
786.0
781.0
783.0
784.0
783.0
786.0
787.0
788.0
793.0
792.0
792.0
792.0
789.0
790.0
787.0
787.0
791.0
791.0
797.0
794.0
799.0
799.0
799.0
800.0
794.0
796.0
795.0
795.0
799.0
796.0
800.0
801.0
807.0
802.0
801.0
804.0
799.0
802.0
801.0
802.0
804.0
806.0
805.0
806.0
811.0
805.0
810.0
810.0
807.0
807.0
805.0
805.0
806.0
810.0
812.0
814.0
814.0
812.0
815.0
814.0
811.0
815.0
813.0
811.0
812.0
814.0
814.0
815.0
816.0
814.0
810.0
812.0
812.0
814.0
814.0
814.0
817.0
820.0
816.0
819.0
821.0
822.0
822.0
819.0
817.0
816.0
818.0
818.0
821.0
824.0
825.0
824.0
829.0
825.0
824.0
822.0
827.0
825.0
825.0
823.0
823.0
825.0
828.0
829.0
834.0
834.0
834.0
833.0
826.0
825.0
830.0
827.0
829.0
830.0
833.0
835.0
836.0
836.0
837.0
834.0
833.0
832.0
829.0
829.0
831.0
834.0
836.0
839.0
840.0
837.0
840.0
839.0
836.0
836.0
833.0
831.0
832.0
834.0
836.0
839.0
842.0
843.0
838.0
839.0
836.0
830.0
831.0
834.0
836.0
839.0
842.0
843.0
847.0
845.0
845.0
843.0
841.0
838.0
840.0
839.0
842.0
843.0
841.0
846.0
848.0
848.0
846.0
846.0
845.0
844.0
844.0
845.0
844.0
845.0
847.0
848.0
853.0
851.0
851.0
853.0
848.0
846.0
845.0
842.0
846.0
844.0
846.0
846.0
850.0
849.0
852.0
851.0
850.0
847.0
847.0
843.0
843.0
847.0
851.0
851.0
852.0
853.0
851.0
851.0
847.0
845.0
847.0
846.0
845.0
849.0
851.0
851.0
855.0
854.0
856.0
856.0
855.0
848.0
851.0
850.0
852.0
853.0
857.0
854.0
857.0
857.0
854.0
853.0
852.0
850.0
847.0
847.0
851.0
855.0
855.0
857.0
860.0
861.0
862.0
859.0
858.0
855.0
856.0
856.0
857.0
858.0
861.0
863.0
867.0
871.0
872.0
874.0
875.0
876.0
876.0
877.0
882.0
884.0
890.0
896.0
905.0
910.0
916.0
926.0
925.0
924.0
922.0
917.0
917.0
918.0
921.0
926.0
918.0
915.0
903.0
893.0
881.0
869.0
864.0
857.0
854.0
854.0
856.0
858.0
863.0
863.0
860.0
860.0
856.0
856.0
852.0
852.0
852.0
853.0
855.0
855.0
857.0
856.0
857.0
857.0
855.0
850.0
844.0
839.0
839.0
850.0
871.0
902.0
944.0
999.0
1064.0
1137.0
1203.0
1253.0
1284.0
1288.0
1278.0
1246.0
1185.0
1102.0
1006.0
912.0
856.0
834.0
848.0
869.0
897.0
909.0
904.0
898.0
886.0
875.0
867.0
863.0
863.0
863.0
862.0
860.0
859.0
859.0
859.0
856.0
859.0
859.0
862.0
861.0
856.0
854.0
854.0
853.0
852.0
849.0
847.0
851.0
852.0
853.0
857.0
858.0
858.0
855.0
854.0
853.0
852.0
851.0
851.0
852.0
850.0
856.0
858.0
858.0
858.0
856.0
856.0
853.0
853.0
854.0
853.0
855.0
858.0
859.0
866.0
864.0
866.0
865.0
864.0
862.0
867.0
867.0
868.0
869.0
871.0
873.0
877.0
882.0
880.0
883.0
880.0
883.0
885.0
885.0
889.0
895.0
900.0
904.0
906.0
908.0
910.0
912.0
912.0
915.0
915.0
918.0
921.0
924.0
928.0
935.0
937.0
941.0
943.0
948.0
948.0
949.0
950.0
954.0
957.0
958.0
961.0
966.0
969.0
969.0
967.0
965.0
964.0
958.0
955.0
949.0
946.0
945.0
941.0
941.0
937.0
933.0
928.0
921.0
917.0
914.0
909.0
905.0
900.0
897.0
898.0
897.0
893.0
892.0
893.0
889.0
888.0
886.0
880.0
884.0
883.0
885.0
885.0
887.0
888.0
888.0
885.0
883.0
880.0
880.0
879.0
877.0
880.0
880.0
884.0
887.0
889.0
891.0
892.0
891.0
888.0
889.0
888.0
887.0
887.0
887.0
892.0
893.0
898.0
899.0
896.0
894.0
892.0
890.0
888.0
888.0
887.0
889.0
890.0
891.0
892.0
893.0
892.0
891.0
888.0
886.0
884.0
885.0
882.0
886.0
883.0
885.0
890.0
891.0
889.0
887.0
883.0
878.0
877.0
878.0
880.0
879.0
883.0
892.0
898.0
919.0
937.0
966.0
990.0
1018.0
1044.0
1076.0
1107.0
1143.0
1181.0
1220.0
1260.0
1294.0
1322.0
1349.0
1368.0
1386.0
1396.0
1402.0
1409.0
1411.0
1411.0
1411.0
1404.0
1398.0
1391.0
1390.0
1386.0
1388.0
1388.0
1387.0
1378.0
1360.0
1340.0
1309.0
1270.0
1228.0
1170.0
1100.0
1019.0
942.0
884.0
852.0
844.0
850.0
860.0
866.0
869.0
866.0
857.0
847.0
841.0
838.0
834.0
836.0
840.0
846.0
853.0
857.0
859.0
855.0
847.0
844.0
837.0
834.0
831.0
826.0
820.0
811.0
803.0
792.0
779.0
769.0
759.0
749.0
742.0
737.0
733.0
728.0
724.0
724.0
720.0
717.0
713.0
710.0
705.0
698.0
692.0
686.0
680.0
673.0
670.0
669.0
662.0
660.0
656.0
649.0
639.0
638.0
633.0
626.0
619.0
612.0
604.0
605.0
601.0
596.0
594.0
593.0
588.0
581.0
576.0
575.0
573.0
571.0
569.0
571.0
572.0
574.0
579.0
579.0
583.0
583.0
589.0
593.0
597.0
603.0
610.0
619.0
633.0
643.0
658.0
669.0
680.0
692.0
702.0
712.0
722.0
731.0
739.0
754.0
765.0
774.0
782.0
791.0
795.0
800.0
806.0
801.0
805.0
808.0
807.0
811.0
813.0
818.0
818.0
820.0
820.0
820.0
817.0
817.0
816.0
814.0
816.0
815.0
817.0
819.0
822.0
822.0
823.0
822.0
819.0
818.0
818.0
818.0
818.0
822.0
822.0
825.0
827.0
830.0
830.0
830.0
829.0
827.0
823.0
827.0
828.0
826.0
829.0
833.0
835.0
835.0
837.0
836.0
836.0
837.0
835.0
833.0
833.0
836.0
837.0
839.0
843.0
843.0
844.0
843.0
842.0
843.0
842.0
842.0
843.0
841.0
847.0
848.0
848.0
848.0
848.0
846.0
846.0
845.0
846.0
845.0
845.0
847.0
847.0
848.0
847.0
849.0
849.0
851.0
848.0
848.0
844.0
846.0
848.0
850.0
849.0
850.0
851.0
855.0
850.0
852.0
850.0
847.0
846.0
845.0
847.0
851.0
853.0
856.0
858.0
860.0
859.0
856.0
856.0
855.0
850.0
853.0
854.0
856.0
857.0
861.0
862.0
863.0
859.0
859.0
861.0
855.0
855.0
854.0
857.0
857.0
859.0
862.0
864.0
863.0
864.0
860.0
860.0
859.0
857.0
854.0
855.0
854.0
855.0
857.0
859.0
859.0
860.0
861.0
860.0
859.0
858.0
859.0
857.0
856.0
858.0
863.0
864.0
867.0
864.0
862.0
861.0
862.0
859.0
861.0
859.0
861.0
861.0
863.0
866.0
866.0
864.0
862.0
861.0
858.0
862.0
857.0
859.0
863.0
867.0
868.0
868.0
869.0
871.0
867.0
867.0
865.0
864.0
861.0
866.0
865.0
865.0
866.0
868.0
871.0
872.0
872.0
869.0
871.0
866.0
864.0
867.0
869.0
870.0
869.0
871.0
872.0
873.0
872.0
869.0
867.0
865.0
865.0
867.0
866.0
870.0
872.0
875.0
876.0
875.0
875.0
873.0
866.0
871.0
867.0
870.0
868.0
868.0
869.0
871.0
874.0
875.0
874.0
873.0
875.0
874.0
872.0
870.0
872.0
874.0
871.0
871.0
875.0
872.0
875.0
872.0
872.0
870.0
868.0
869.0
875.0
873.0
875.0
877.0
877.0
875.0
876.0
876.0
877.0
875.0
873.0
871.0
873.0
880.0
886.0
888.0
892.0
897.0
898.0
899.0
899.0
898.0
900.0
904.0
909.0
916.0
926.0
932.0
938.0
936.0
931.0
923.0
915.0
911.0
907.0
901.0
900.0
897.0
892.0
892.0
886.0
878.0
871.0
867.0
865.0
865.0
866.0
868.0
867.0
869.0
873.0
872.0
873.0
870.0
873.0
869.0
869.0
869.0
866.0
869.0
869.0
874.0
876.0
879.0
877.0
872.0
864.0
857.0
857.0
862.0
880.0
909.0
956.0
1014.0
1087.0
1161.0
1226.0
1273.0
1304.0
1309.0
1295.0
1254.0
1182.0
1078.0
972.0
887.0
848.0
846.0
870.0
898.0
920.0
925.0
919.0
906.0
894.0
881.0
872.0
876.0
876.0
875.0
879.0
876.0
876.0
874.0
873.0
871.0
869.0
869.0
867.0
867.0
870.0
870.0
872.0
869.0
870.0
868.0
866.0
865.0
865.0
862.0
863.0
866.0
865.0
866.0
869.0
868.0
869.0
867.0
865.0
865.0
864.0
863.0
863.0
866.0
871.0
875.0
874.0
875.0
874.0
872.0
874.0
873.0
870.0
870.0
870.0
872.0
874.0
878.0
881.0
881.0
881.0
883.0
881.0
879.0
878.0
882.0
886.0
893.0
894.0
897.0
900.0
902.0
902.0
907.0
908.0
908.0
911.0
912.0
913.0
918.0
925.0
924.0
932.0
931.0
935.0
937.0
939.0
942.0
944.0
947.0
949.0
953.0
956.0
960.0
965.0
965.0
967.0
968.0
967.0
967.0
967.0
969.0
972.0
971.0
969.0
969.0
966.0
965.0
961.0
953.0
946.0
942.0
937.0
931.0
927.0
927.0
925.0
923.0
920.0
914.0
911.0
906.0
901.0
899.0
895.0
890.0
888.0
888.0
890.0
891.0
893.0
892.0
890.0
887.0
888.0
883.0
882.0
882.0
883.0
885.0
887.0
890.0
892.0
891.0
890.0
888.0
889.0
888.0
887.0
888.0
889.0
890.0
892.0
895.0
896.0
894.0
896.0
891.0
892.0
891.0
890.0
892.0
902.0
920.0
945.0
970.0
1000.0
1031.0
1065.0
1101.0
1139.0
1180.0
1228.0
1275.0
1321.0
1363.0
1396.0
1426.0
1451.0
1461.0
1471.0
1474.0
1476.0
1465.0
1457.0
1438.0
1420.0
1404.0
1393.0
1390.0
1390.0
1395.0
1392.0
1386.0
1370.0
1346.0
1318.0
1286.0
1254.0
1213.0
1163.0
1102.0
1023.0
954.0
896.0
860.0
843.0
842.0
845.0
846.0
845.0
840.0
833.0
822.0
817.0
810.0
806.0
800.0
798.0
791.0
792.0
787.0
785.0
785.0
784.0
784.0
781.0
777.0
776.0
772.0
769.0
763.0
763.0
755.0
755.0
756.0
758.0
760.0
763.0
765.0
766.0
762.0
757.0
754.0
756.0
754.0
755.0
757.0
761.0
764.0
765.0
763.0
760.0
755.0
746.0
738.0
732.0
726.0
722.0
716.0
706.0
700.0
692.0
673.0
663.0
647.0
636.0
624.0
615.0
608.0
602.0
602.0
597.0
595.0
594.0
588.0
587.0
585.0
578.0
575.0
574.0
576.0
579.0
583.0
591.0
592.0
598.0
604.0
607.0
613.0
618.0
628.0
639.0
646.0
658.0
671.0
683.0
693.0
705.0
717.0
725.0
735.0
744.0
753.0
760.0
769.0
777.0
785.0
794.0
799.0
803.0
806.0
809.0
811.0
811.0
810.0
811.0
809.0
808.0
816.0
817.0
819.0
820.0
820.0
821.0
819.0
817.0
818.0
815.0
818.0
814.0
817.0
823.0
823.0
824.0
824.0
824.0
821.0
821.0
822.0
821.0
821.0
818.0
820.0
824.0
827.0
828.0
827.0
827.0
827.0
826.0
821.0
824.0
822.0
823.0
826.0
826.0
829.0
830.0
831.0
831.0
829.0
826.0
824.0
828.0
826.0
827.0
828.0
827.0
828.0
833.0
834.0
832.0
831.0
829.0
829.0
829.0
829.0
828.0
828.0
831.0
837.0
839.0
841.0
838.0
835.0
836.0
833.0
832.0
832.0
834.0
837.0
837.0
841.0
842.0
841.0
841.0
837.0
839.0
835.0
836.0
836.0
835.0
837.0
842.0
840.0
840.0
841.0
839.0
837.0
835.0
838.0
836.0
839.0
838.0
839.0
842.0
843.0
844.0
844.0
843.0
841.0
841.0
842.0
839.0
838.0
840.0
839.0
842.0
846.0
847.0
845.0
845.0
844.0
843.0
843.0
842.0
842.0
842.0
843.0
845.0
847.0
850.0
847.0
846.0
845.0
842.0
840.0
842.0
842.0
844.0
845.0
847.0
847.0
847.0
846.0
847.0
847.0
846.0
843.0
844.0
840.0
846.0
845.0
848.0
846.0
850.0
850.0
848.0
848.0
845.0
847.0
845.0
846.0
844.0
846.0
850.0
852.0
853.0
850.0
850.0
846.0
845.0
844.0
846.0
844.0
845.0
848.0
849.0
851.0
855.0
853.0
852.0
851.0
851.0
847.0
845.0
846.0
848.0
848.0
851.0
853.0
856.0
853.0
851.0
854.0
851.0
850.0
846.0
850.0
845.0
847.0
852.0
854.0
855.0
855.0
855.0
850.0
852.0
852.0
851.0
847.0
851.0
851.0
853.0
858.0
859.0
856.0
857.0
855.0
852.0
853.0
850.0
848.0
851.0
854.0
857.0
856.0
858.0
857.0
857.0
855.0
854.0
854.0
852.0
850.0
850.0
851.0
854.0
856.0
856.0
857.0
856.0
854.0
854.0
853.0
851.0
852.0
852.0
853.0
854.0
856.0
858.0
857.0
854.0
853.0
850.0
850.0
851.0
850.0
852.0
851.0
851.0
852.0
857.0
855.0
859.0
858.0
855.0
855.0
853.0
850.0
853.0
853.0
857.0
858.0
861.0
862.0
864.0
866.0
865.0
868.0
869.0
874.0
880.0
883.0
885.0
890.0
899.0
901.0
907.0
914.0
922.0
924.0
922.0
920.0
922.0
922.0
924.0
922.0
928.0
925.0
916.0
908.0
901.0
890.0
877.0
866.0
862.0
859.0
859.0
859.0
861.0
858.0
857.0
855.0
853.0
851.0
853.0
852.0
852.0
853.0
856.0
852.0
854.0
857.0
856.0
856.0
856.0
854.0
852.0
851.0
845.0
842.0
840.0
837.0
851.0
871.0
905.0
952.0
1015.0
1088.0
1160.0
1224.0
1266.0
1285.0
1273.0
1243.0
1186.0
1095.0
999.0
908.0
850.0
829.0
842.0
868.0
889.0
901.0
904.0
896.0
883.0
872.0
864.0
857.0
856.0
856.0
855.0
854.0
854.0
854.0
850.0
851.0
849.0
853.0
853.0
850.0
849.0
848.0
847.0
845.0
847.0
848.0
853.0
852.0
852.0
854.0
852.0
853.0
851.0
849.0
843.0
848.0
850.0
852.0
850.0
852.0
853.0
853.0
852.0
851.0
851.0
849.0
850.0
852.0
853.0
851.0
856.0
859.0
855.0
859.0
859.0
862.0
857.0
859.0
859.0
858.0
858.0
861.0
866.0
868.0
871.0
872.0
873.0
875.0
875.0
875.0
875.0
874.0
876.0
880.0
884.0
887.0
892.0
894.0
895.0
897.0
900.0
901.0
900.0
905.0
907.0
912.0
915.0
922.0
928.0
930.0
928.0
931.0
934.0
935.0
936.0
937.0
938.0
942.0
950.0
953.0
957.0
961.0
963.0
963.0
965.0
967.0
963.0
966.0
964.0
966.0
967.0
968.0
965.0
965.0
961.0
961.0
956.0
953.0
947.0
943.0
940.0
933.0
934.0
927.0
927.0
921.0
918.0
913.0
909.0
904.0
900.0
897.0
894.0
893.0
898.0
895.0
898.0
895.0
892.0
891.0
889.0
889.0
886.0
886.0
886.0
885.0
886.0
886.0
890.0
894.0
891.0
893.0
892.0
890.0
890.0
888.0
888.0
892.0
894.0
896.0
898.0
899.0
899.0
897.0
899.0
890.0
890.0
892.0
892.0
894.0
896.0
900.0
906.0
917.0
933.0
955.0
979.0
1008.0
1034.0
1066.0
1102.0
1147.0
1190.0
1234.0
1283.0
1324.0
1360.0
1388.0
1412.0
1432.0
1439.0
1446.0
1454.0
1454.0
1450.0
1445.0
1429.0
1411.0
1396.0
1387.0
1387.0
1389.0
1387.0
1380.0
1368.0
1344.0
1315.0
1285.0
1249.0
1206.0
1147.0
1074.0
994.0
925.0
875.0
850.0
841.0
848.0
853.0
853.0
850.0
844.0
828.0
818.0
806.0
804.0
799.0
795.0
789.0
792.0
788.0
790.0
789.0
784.0
780.0
779.0
775.0
770.0
767.0
769.0
765.0
765.0
764.0
767.0
767.0
769.0
768.0
766.0
765.0
765.0
765.0
764.0
764.0
764.0
766.0
767.0
771.0
771.0
772.0
774.0
768.0
761.0
755.0
747.0
745.0
741.0
740.0
737.0
732.0
719.0
706.0
693.0
677.0
657.0
645.0
638.0
627.0
622.0
617.0
615.0
611.0
606.0
601.0
598.0
592.0
587.0
584.0
578.0
579.0
580.0
588.0
589.0
592.0
595.0
599.0
604.0
608.0
612.0
619.0
623.0
635.0
646.0
658.0
670.0
683.0
693.0
707.0
719.0
727.0
738.0
744.0
755.0
766.0
775.0
784.0
791.0
795.0
800.0
804.0
804.0
807.0
807.0
810.0
809.0
811.0
811.0
814.0
817.0
815.0
817.0
814.0
813.0
811.0
812.0
808.0
808.0
807.0
814.0
817.0
818.0
819.0
821.0
819.0
821.0
819.0
816.0
816.0
815.0
816.0
816.0
819.0
822.0
820.0
823.0
824.0
823.0
822.0
820.0
820.0
821.0
821.0
818.0
823.0
820.0
825.0
827.0
827.0
826.0
826.0
824.0
825.0
823.0
824.0
825.0
827.0
828.0
829.0
829.0
828.0
828.0
826.0
824.0
825.0
824.0
824.0
825.0
829.0
831.0
833.0
829.0
831.0
