# Simple Text Format
# Sampling Rate (Hz):= 360.00
# Resolution:= 12
# Labels:= ECG
1094.0
1094.0
1094.0
1094.0
1094.0
1094.0
1094.0
1094.0
1094.0
1028.0
982.0
958.0
950.0
957.0
967.0
978.0
981.0
984.0
986.0
984.0
984.0
982.0
978.0
974.0
973.0
975.0
976.0
981.0
977.0
978.0
978.0
983.0
988.0
991.0
985.0
982.0
981.0
985.0
990.0
993.0
989.0
985.0
982.0
984.0
984.0
985.0
987.0
987.0
988.0
989.0
989.0
991.0
996.0
1000.0
1001.0
998.0
993.0
986.0
986.0
987.0
988.0
992.0
996.0
998.0
1002.0
1000.0
998.0
998.0
999.0
1005.0
1005.0
1006.0
1008.0
1009.0
1010.0
1009.0
1011.0
1013.0
1012.0
1013.0
1016.0
1018.0
1020.0
1021.0
1021.0
1022.0
1027.0
1031.0
1029.0
1027.0
1027.0
1029.0
1029.0
1032.0
1032.0
1030.0
1027.0
1028.0
1031.0
1033.0
1034.0
1029.0
1028.0
1028.0
1026.0
1026.0
1024.0
1023.0
1019.0
1020.0
1018.0
1018.0
1017.0
1015.0
1013.0
1012.0
1011.0
1009.0
1008.0
1009.0
1009.0
1009.0
1010.0
1009.0
1008.0
1006.0
1004.0
1005.0
1005.0
1007.0
1005.0
1004.0
1004.0
1001.0
1001.0
998.0
996.0
994.0
992.0
995.0
993.0
992.0
990.0
987.0
989.0
990.0
991.0
990.0
990.0
991.0
988.0
988.0
984.0
984.0
981.0
983.0
982.0
983.0
982.0
980.0
979.0
979.0
976.0
979.0
982.0
983.0
985.0
986.0
984.0
986.0
986.0
987.0
990.0
990.0
989.0
991.0
991.0
987.0
987.0
983.0
983.0
982.0
985.0
985.0
986.0
985.0
985.0
985.0
987.0
989.0
989.0
984.0
979.0
974.0
976.0
976.0
976.0
974.0
972.0
970.0
968.0
963.0
957.0
954.0
956.0
967.0
983.0
997.0
1005.0
1015.0
1026.0
1039.0
1052.0
1059.0
1051.0
1033.0
993.0
939.0
882.0
841.0
806.0
773.0
745.0
731.0
723.0
726.0
734.0
746.0
756.0
770.0
793.0
819.0
834.0
838.0
838.0
842.0
847.0
851.0
856.0
864.0
873.0
881.0
892.0
898.0
908.0
916.0
922.0
931.0
937.0
945.0
951.0
961.0
971.0
984.0
993.0
1006.0
1016.0
1021.0
1022.0
1025.0
1030.0
1035.0
1040.0
1041.0
1042.0
1046.0
1046.0
1050.0
1054.0
1055.0
1054.0
1060.0
1061.0
1065.0
1068.0
1071.0
1071.0
1075.0
1078.0
1082.0
1082.0
1084.0
1084.0
1085.0
1089.0
1087.0
1086.0
1087.0
1087.0
1093.0
1096.0
1098.0
1099.0
1099.0
1097.0
1099.0
1101.0
1106.0
1105.0
1104.0
1104.0
1105.0
1104.0
1106.0
1103.0
1104.0
1101.0
1102.0
1103.0
1101.0
1100.0
1095.0
1095.0
1095.0
1094.0
1089.0
1084.0
1080.0
1074.0
1074.0
1074.0
1074.0
1071.0
1066.0
1059.0
1057.0
1056.0
1053.0
1052.0
1053.0
1050.0
1044.0
1040.0
1032.0
1027.0
1022.0
1019.0
1019.0
1018.0
1016.0
1015.0
1010.0
1003.0
1008.0
1009.0
1007.0
1006.0
1002.0
998.0
1000.0
1001.0
999.0
994.0
990.0
992.0
992.0
994.0
993.0
992.0
990.0
987.0
988.0
988.0
986.0
988.0
990.0
992.0
996.0
996.0
995.0
990.0
988.0
989.0
992.0
993.0
993.0
991.0
994.0
993.0
994.0
995.0
995.0
991.0
985.0
983.0
986.0
988.0
991.0
990.0
992.0
990.0
991.0
990.0
990.0
990.0
990.0
987.0
986.0
988.0
988.0
988.0
989.0
984.0
982.0
984.0
984.0
982.0
981.0
982.0
984.0
989.0
992.0
995.0
995.0
997.0
996.0
997.0
998.0
1000.0
1001.0
1002.0
1003.0
1004.0
1005.0
1002.0
996.0
989.0
988.0
988.0
988.0
991.0
989.0
989.0
989.0
991.0
991.0
991.0
989.0
991.0
992.0
993.0
994.0
993.0
992.0
992.0
993.0
995.0
994.0
994.0
987.0
984.0
984.0
985.0
986.0
986.0
985.0
984.0
985.0
987.0
989.0
989.0
993.0
990.0
990.0
991.0
994.0
992.0
991.0
989.0
990.0
990.0
987.0
981.0
979.0
986.0
999.0
1016.0
1034.0
1049.0
1067.0
1088.0
1107.0
1124.0
1145.0
1169.0
1193.0
1212.0
1236.0
1246.0
1244.0
1225.0
1196.0
1147.0
1072.0
1002.0
957.0
932.0
921.0
916.0
922.0
936.0
947.0
952.0
954.0
957.0
960.0
965.0
964.0
964.0
959.0
957.0
957.0
957.0
959.0
962.0
964.0
968.0
972.0
976.0
975.0
972.0
970.0
968.0
968.0
969.0
970.0
969.0
968.0
973.0
974.0
976.0
977.0
977.0
977.0
976.0
977.0
977.0
978.0
976.0
979.0
978.0
979.0
982.0
985.0
981.0
980.0
976.0
978.0
978.0
981.0
982.0
982.0
980.0
983.0
988.0
987.0
986.0
986.0
985.0
992.0
996.0
998.0
999.0
998.0
996.0
998.0
1000.0
999.0
999.0
995.0
999.0
1000.0
999.0
1001.0
1000.0
996.0
994.0
995.0
997.0
1002.0
1003.0
1004.0
1007.0
1005.0
1008.0
1011.0
1010.0
1010.0
1009.0
1010.0
1012.0
1013.0
1014.0
1009.0
1011.0
1011.0
1010.0
1008.0
1008.0
1008.0
1008.0
1008.0
1008.0
1009.0
1006.0
1006.0
1007.0
1006.0
1009.0
1009.0
1010.0
1009.0
1006.0
1009.0
1011.0
1010.0
1010.0
1007.0
1006.0
1006.0
1008.0
1004.0
1003.0
1001.0
1000.0
1001.0
1004.0
1003.0
1000.0
996.0
996.0
1001.0
1010.0
1009.0
1006.0
1003.0
1001.0
1002.0
1002.0
998.0
997.0
994.0
998.0
999.0
999.0
996.0
993.0
993.0
993.0
993.0
995.0
998.0
998.0
998.0
1000.0
1002.0
1006.0
1010.0
1012.0
1008.0
1009.0
1014.0
1021.0
1025.0
1028.0
1028.0
1032.0
1036.0
1040.0
1045.0
1046.0
1043.0
1048.0
1064.0
1077.0
1077.0
1068.0
1064.0
1062.0
1054.0
1031.0
979.0
899.0
806.0
729.0
675.0
645.0
633.0
625.0
622.0
624.0
631.0
643.0
655.0
674.0
703.0
729.0
754.0
769.0
777.0
788.0
803.0
817.0
836.0
858.0
870.0
881.0
891.0
903.0
920.0
931.0
940.0
944.0
946.0
949.0
956.0
963.0
970.0
986.0
999.0
1012.0
1023.0
1034.0
1046.0
1054.0
1061.0
1066.0
1070.0
1076.0
1081.0
1089.0
1090.0
1089.0
1094.0
1102.0
1110.0
1118.0
1117.0
1121.0
1125.0
1128.0
1132.0
1136.0
1141.0
1144.0
1148.0
1153.0
1155.0
1159.0
1160.0
1163.0
1167.0
1175.0
1181.0
1185.0
1183.0
1185.0
1188.0
1192.0
1197.0
1195.0
1194.0
1191.0
1190.0
1191.0
1189.0
1184.0
1182.0
1178.0
1180.0
1178.0
1175.0
1167.0
1160.0
1157.0
1152.0
1147.0
1145.0
1141.0
1136.0
1130.0
1123.0
1116.0
1111.0
1104.0
1096.0
1089.0
1082.0
1079.0
1073.0
1065.0
1061.0
1061.0
1059.0
1057.0
1055.0
1052.0
1050.0
1046.0
1043.0
1039.0
1035.0
1031.0
1027.0
1023.0
1026.0
1027.0
1024.0
1020.0
1016.0
1013.0
1017.0
1023.0
1025.0
1023.0
1019.0
1020.0
1022.0
1021.0
1020.0
1018.0
1015.0
1012.0
1011.0
1012.0
1014.0
1012.0
1007.0
1006.0
1002.0
1003.0
1005.0
1007.0
1009.0
1008.0
1005.0
1005.0
1006.0
1005.0
1001.0
1001.0
1000.0
1002.0
1005.0
1003.0
1002.0
999.0
1001.0
1006.0
1005.0
1002.0
999.0
997.0
998.0
999.0
999.0
997.0
995.0
993.0
995.0
998.0
997.0
996.0
993.0
993.0
997.0
999.0
998.0
997.0
995.0
991.0
986.0
989.0
994.0
997.0
999.0
995.0
1002.0
1006.0
1010.0
1009.0
1006.0
997.0
994.0
993.0
993.0
1000.0
1004.0
1008.0
1011.0
1009.0
1005.0
1004.0
1005.0
1007.0
1008.0
1008.0
1008.0
1005.0
1000.0
999.0
999.0
999.0
998.0
997.0
998.0
998.0
1000.0
1001.0
1003.0
1000.0
995.0
997.0
1002.0
1002.0
1002.0
999.0
1003.0
1004.0
1008.0
1014.0
1018.0
1010.0
1000.0
987.0
981.0
980.0
987.0
992.0
992.0
995.0
994.0
998.0
996.0
994.0
990.0
986.0
987.0
990.0
989.0
991.0
992.0
988.0
989.0
987.0
987.0
986.0
983.0
982.0
981.0
981.0
988.0
999.0
1009.0
1024.0
1041.0
1062.0
1082.0
1096.0
1112.0
1131.0
1160.0
1184.0
1205.0
1223.0
1229.0
1225.0
1208.0
1182.0
1138.0
1069.0
1000.0
957.0
938.0
923.0
920.0
925.0
936.0
944.0
951.0
950.0
947.0
952.0
950.0
948.0
946.0
941.0
943.0
943.0
943.0
941.0
942.0
945.0
947.0
947.0
947.0
951.0
953.0
955.0
957.0
953.0
946.0
944.0
946.0
952.0
958.0
956.0
948.0
945.0
943.0
946.0
945.0
946.0
944.0
944.0
945.0
946.0
947.0
946.0
947.0
947.0
948.0
950.0
956.0
957.0
957.0
958.0
959.0
954.0
951.0
953.0
955.0
956.0
956.0
952.0
954.0
955.0
954.0
953.0
955.0
956.0
957.0
955.0
951.0
954.0
954.0
957.0
958.0
962.0
966.0
967.0
971.0
969.0
968.0
964.0
963.0
963.0
965.0
967.0
963.0
960.0
960.0
963.0
969.0
971.0
969.0
967.0
968.0
970.0
972.0
974.0
973.0
973.0
971.0
971.0
974.0
972.0
975.0
972.0
967.0
966.0
966.0
968.0
967.0
967.0
968.0
962.0
962.0
964.0
967.0
969.0
965.0
963.0
964.0
964.0
960.0
964.0
963.0
961.0
963.0
965.0
965.0
963.0
957.0
957.0
956.0
957.0
957.0
955.0
952.0
951.0
953.0
957.0
958.0
960.0
962.0
965.0
969.0
974.0
978.0
982.0
984.0
989.0
994.0
996.0
995.0
993.0
993.0
998.0
998.0
1001.0
1003.0
1012.0
1016.0
1015.0
1007.0
992.0
972.0
938.0
886.0
812.0
739.0
678.0
638.0
617.0
611.0
612.0
608.0
613.0
625.0
644.0
663.0
683.0
697.0
716.0
736.0
759.0
777.0
795.0
811.0
825.0
836.0
841.0
850.0
858.0
872.0
886.0
893.0
899.0
902.0
907.0
911.0
918.0
926.0
930.0
940.0
954.0
969.0
983.0
993.0
1000.0
1006.0
1018.0
1028.0
1036.0
1040.0
1043.0
1050.0
1054.0
1058.0
1060.0
1061.0
1066.0
1069.0
1073.0
1078.0
1084.0
1087.0
1086.0
1087.0
1094.0
1098.0
1097.0
1098.0
1101.0
1104.0
1109.0
1118.0
1122.0
1125.0
1125.0
1130.0
1130.0
1131.0
1132.0
1133.0
1133.0
1138.0
1140.0
1138.0
1139.0
1136.0
1134.0
1133.0
1135.0
1134.0
1136.0
1134.0
1130.0
1124.0
1120.0
1117.0
1117.0
1112.0
1105.0
1103.0
1099.0
1096.0
1095.0
1093.0
1082.0
1074.0
1068.0
1063.0
1059.0
1054.0
1048.0
1043.0
1037.0
1035.0
1031.0
1028.0
1023.0
1019.0
1016.0
1011.0
1010.0
1008.0
1004.0
1001.0
997.0
998.0
996.0
993.0
992.0
990.0
990.0
989.0
988.0
983.0
982.0
979.0
981.0
984.0
987.0
984.0
980.0
978.0
978.0
982.0
985.0
983.0
981.0
979.0
982.0
984.0
985.0
984.0
980.0
978.0
977.0
978.0
978.0
979.0
976.0
973.0
974.0
978.0
979.0
976.0
976.0
972.0
974.0
975.0
978.0
981.0
980.0
979.0
979.0
978.0
981.0
981.0
975.0
974.0
975.0
976.0
976.0
978.0
978.0
975.0
976.0
975.0
976.0
975.0
975.0
974.0
974.0
979.0
976.0
976.0
977.0
976.0
976.0
976.0
976.0
973.0
973.0
972.0
979.0
979.0
980.0
981.0
979.0
977.0
974.0
975.0
975.0
974.0
973.0
976.0
981.0
982.0
981.0
979.0
978.0
978.0
979.0
979.0
978.0
979.0
980.0
980.0
982.0
986.0
989.0
991.0
990.0
989.0
990.0
993.0
995.0
996.0
997.0
997.0
997.0
996.0
995.0
993.0
992.0
988.0
987.0
987.0
988.0
985.0
983.0
981.0
980.0
980.0
979.0
980.0
981.0
982.0
982.0
983.0
985.0
984.0
984.0
984.0
987.0
987.0
986.0
987.0
986.0
984.0
982.0
981.0
979.0
974.0
975.0
978.0
977.0
977.0
980.0
981.0
982.0
983.0
985.0
984.0
981.0
977.0
977.0
979.0
990.0
1007.0
1027.0
1047.0
1065.0
1083.0
1105.0
1131.0
1161.0
1189.0
1214.0
1234.0
1247.0
1246.0
1223.0
1175.0
1089.0
997.0
940.0
916.0
915.0
920.0
932.0
942.0
950.0
951.0
956.0
954.0
954.0
949.0
948.0
948.0
953.0
958.0
956.0
955.0
959.0
964.0
969.0
968.0
966.0
962.0
962.0
964.0
965.0
964.0
961.0
956.0
957.0
963.0
967.0
968.0
965.0
964.0
965.0
967.0
969.0
967.0
968.0
967.0
970.0
971.0
970.0
970.0
970.0
972.0
976.0
973.0
973.0
973.0
973.0
971.0
972.0
974.0
973.0
973.0
972.0
970.0
973.0
972.0
969.0
972.0
974.0
977.0
979.0
979.0
978.0
980.0
981.0
983.0
985.0
984.0
983.0
980.0
982.0
980.0
982.0
983.0
987.0
985.0
985.0
985.0
989.0
994.0
996.0
995.0
992.0
992.0
995.0
997.0
999.0
999.0
996.0
998.0
1002.0
1003.0
1002.0
998.0
997.0
996.0
996.0
996.0
999.0
999.0
1002.0
1003.0
999.0
1000.0
1002.0
1002.0
998.0
995.0
995.0
996.0
996.0
997.0
992.0
991.0
991.0
993.0
995.0
993.0
990.0
989.0
992.0
993.0
994.0
991.0
987.0
986.0
988.0
992.0
992.0
992.0
990.0
986.0
989.0
988.0
988.0
991.0
993.0
995.0
1002.0
1010.0
1014.0
1019.0
1023.0
1024.0
1030.0
1036.0
1039.0
1041.0
1039.0
1042.0
1051.0
1055.0
1053.0
1042.0
1019.0
976.0
908.0
831.0
756.0
685.0
628.0
599.0
597.0
599.0
606.0
609.0
621.0
634.0
654.0
677.0
695.0
714.0
739.0
766.0
787.0
803.0
817.0
831.0
844.0
858.0
871.0
883.0
892.0
897.0
909.0
920.0
932.0
943.0
954.0
966.0
981.0
992.0
1005.0
1019.0
1028.0
1039.0
1048.0
1051.0
1060.0
1064.0
1068.0
1074.0
1078.0
1080.0
1083.0
1087.0
1093.0
1096.0
1099.0
1098.0
1102.0
1105.0
1111.0
1115.0
1118.0
1122.0
1128.0
1133.0
1135.0
1141.0
1144.0
1148.0
1151.0
1158.0
1160.0
1162.0
1161.0
1163.0
1169.0
1172.0
1175.0
1177.0
1177.0
1177.0
1180.0
1184.0
1187.0
1182.0
1182.0
1177.0
1177.0
1180.0
1180.0
1180.0
1173.0
1167.0
1166.0
1166.0
1164.0
1158.0
1150.0
1140.0
1131.0
1123.0
1117.0
1113.0
1106.0
1103.0
1099.0
1097.0
1093.0
1088.0
1080.0
1073.0
1067.0
1063.0
1060.0
1054.0
1048.0
1043.0
1043.0
1043.0
1040.0
1037.0
1032.0
1028.0
1024.0
1024.0
1024.0
1020.0
1020.0
1018.0
1017.0
1018.0
1018.0
1016.0
1010.0
1008.0
1011.0
1010.0
1013.0
1010.0
1007.0
1006.0
1006.0
1012.0
1013.0
1011.0
1005.0
1003.0
1003.0
1006.0
1008.0
1009.0
1007.0
1004.0
1009.0
1008.0
1008.0
1007.0
1002.0
1000.0
1002.0
1005.0
1008.0
1006.0
1006.0
1003.0
1001.0
1004.0
1005.0
1002.0
999.0
995.0
992.0
993.0
994.0
997.0
999.0
998.0
1002.0
999.0
1000.0
998.0
995.0
994.0
995.0
996.0
995.0
994.0
992.0
990.0
992.0
993.0
993.0
993.0
994.0
992.0
992.0
992.0
995.0
994.0
993.0
988.0
989.0
991.0
993.0
995.0
991.0
988.0
990.0
992.0
991.0
991.0
992.0
993.0
995.0
997.0
1001.0
1003.0
1005.0
1006.0
1007.0
1006.0
1005.0
1000.0
994.0
990.0
991.0
990.0
990.0
990.0
988.0
988.0
990.0
989.0
988.0
987.0
986.0
984.0
989.0
989.0
991.0
996.0
996.0
993.0
993.0
993.0
992.0
989.0
986.0
983.0
983.0
984.0
986.0
984.0
982.0
980.0
982.0
982.0
983.0
983.0
984.0
984.0
987.0
987.0
987.0
986.0
983.0
982.0
981.0
980.0
974.0
972.0
977.0
985.0
997.0
1018.0
1043.0
1063.0
1081.0
1096.0
1116.0
1140.0
1163.0
1186.0
1203.0
1213.0
1212.0
1193.0
1169.0
1133.0
1081.0
1019.0
970.0
943.0
930.0
926.0
931.0
939.0
947.0
954.0
956.0
961.0
961.0
958.0
954.0
952.0
949.0
948.0
948.0
948.0
952.0
955.0
960.0
962.0
960.0
957.0
957.0
958.0
958.0
959.0
955.0
957.0
957.0
956.0
960.0
959.0
959.0
959.0
962.0
963.0
962.0
961.0
961.0
963.0
964.0
965.0
967.0
965.0
964.0
962.0
964.0
969.0
969.0
968.0
968.0
966.0
965.0
968.0
966.0
967.0
965.0
964.0
967.0
972.0
975.0
979.0
976.0
971.0
970.0
972.0
971.0
977.0
975.0
974.0
976.0
976.0
979.0
980.0
977.0
977.0
979.0
980.0
977.0
974.0
976.0
978.0
987.0
989.0
992.0
990.0
986.0
983.0
984.0
981.0
982.0
986.0
984.0
983.0
988.0
989.0
989.0
988.0
986.0
983.0
986.0
987.0
992.0
989.0
984.0
980.0
980.0
984.0
986.0
990.0
989.0
987.0
988.0
988.0
990.0
990.0
990.0
979.0
983.0
981.0
979.0
979.0
980.0
981.0
985.0
985.0
985.0
981.0
977.0
980.0
982.0
988.0
986.0
988.0
985.0
981.0
982.0
982.0
982.0
979.0
976.0
972.0
974.0
976.0
978.0
980.0
974.0
970.0
971.0
969.0
972.0
973.0
974.0
974.0
977.0
980.0
982.0
982.0
983.0
982.0
986.0
989.0
993.0
1008.0
1027.0
1041.0
1048.0
1047.0
1044.0
1042.0
1028.0
1002.0
945.0
866.0
789.0
734.0
695.0
670.0
655.0
643.0
641.0
646.0
649.0
652.0
669.0
702.0
735.0
763.0
782.0
794.0
814.0
832.0
842.0
847.0
852.0
859.0
866.0
879.0
890.0
906.0
909.0
916.0
925.0
937.0
952.0
968.0
980.0
992.0
1004.0
1015.0
1024.0
1031.0
1035.0
1036.0
1040.0
1043.0
1045.0
1045.0
1047.0
1057.0
1063.0
1067.0
1070.0
1070.0
1069.0
1069.0
1074.0
1080.0
1086.0
1090.0
1094.0
1093.0
1098.0
1104.0
1107.0
1111.0
1109.0
1109.0
1111.0
1114.0
1117.0
1123.0
1128.0
1129.0
1129.0
1133.0
1136.0
1137.0
1135.0
1129.0
1130.0
1130.0
1128.0
1126.0
1120.0
1115.0
1116.0
1115.0
1112.0
1111.0
1103.0
1095.0
1093.0
1092.0
1091.0
1085.0
1076.0
1065.0
1055.0
1050.0
1043.0
1043.0
1036.0
1032.0
1026.0
1026.0
1021.0
1016.0
1012.0
1009.0
1011.0
1012.0
1012.0
1009.0
1004.0
1005.0
1004.0
1002.0
1000.0
995.0
993.0
989.0
990.0
994.0
993.0
992.0
987.0
981.0
980.0
987.0
988.0
991.0
988.0
988.0
989.0
992.0
997.0
995.0
995.0
994.0
998.0
1000.0
997.0
996.0
995.0
995.0
995.0
996.0
992.0
994.0
993.0
992.0
993.0
988.0
988.0
991.0
990.0
988.0
984.0
985.0
987.0
987.0
985.0
979.0
981.0
985.0
992.0
994.0
989.0
986.0
983.0
985.0
988.0
989.0
990.0
986.0
992.0
995.0
997.0
996.0
995.0
990.0
992.0
997.0
999.0
991.0
984.0
979.0
981.0
986.0
990.0
989.0
987.0
987.0
993.0
994.0
997.0
998.0
999.0
997.0
1000.0
1004.0
1006.0
1008.0
1008.0
1005.0
1006.0
1007.0
1002.0
1000.0
998.0
993.0
997.0
997.0
999.0
996.0
993.0
989.0
994.0
991.0
991.0
992.0
987.0
981.0
982.0
989.0
995.0
994.0
990.0
988.0
994.0
994.0
997.0
993.0
990.0
985.0
987.0
987.0
990.0
990.0
988.0
987.0
987.0
985.0
982.0
982.0
984.0
989.0
991.0
991.0
987.0
982.0
976.0
975.0
975.0
976.0
981.0
987.0
999.0
1014.0
1031.0
1053.0
1071.0
1089.0
1112.0
1135.0
1163.0
1190.0
1217.0
1243.0
1255.0
1253.0
1237.0
1208.0
1156.0
1067.0
987.0
943.0
928.0
926.0
932.0
940.0
950.0
954.0
956.0
956.0
956.0
953.0
947.0
946.0
949.0
951.0
950.0
952.0
953.0
950.0
957.0
961.0
963.0
965.0
962.0
960.0
963.0
966.0
969.0
969.0
971.0
969.0
967.0
968.0
969.0
971.0
970.0
971.0
974.0
973.0
971.0
969.0
964.0
962.0
964.0
970.0
973.0
972.0
971.0
969.0
975.0
977.0
972.0
966.0
963.0
961.0
963.0
967.0
971.0
975.0
976.0
977.0
977.0
980.0
984.0
982.0
979.0
973.0
977.0
980.0
983.0
984.0
984.0
982.0
977.0
974.0
974.0
977.0
981.0
982.0
984.0
985.0
988.0
987.0
988.0
987.0
993.0
996.0
1000.0
995.0
987.0
977.0
979.0
985.0
993.0
995.0
999.0
999.0
1000.0
1000.0
999.0
997.0
997.0
994.0
997.0
999.0
1000.0
1003.0
1004.0
1003.0
1000.0
996.0
997.0
994.0
994.0
991.0
992.0
994.0
991.0
987.0
987.0
985.0
986.0
986.0
984.0
982.0
978.0
978.0
983.0
988.0
987.0
989.0
989.0
986.0
986.0
978.0
969.0
965.0
966.0
969.0
974.0
981.0
988.0
987.0
990.0
990.0
998.0
1004.0
1011.0
1015.0
1013.0
1015.0
1018.0
1019.0
1024.0
1028.0
1026.0
1018.0
1007.0
985.0
935.0
857.0
772.0
697.0
635.0
598.0
589.0
589.0
593.0
598.0
610.0
627.0
648.0
670.0
692.0
715.0
745.0
782.0
807.0
823.0
834.0
844.0
855.0
869.0
882.0
890.0
897.0
906.0
920.0
933.0
944.0
955.0
974.0
991.0
1006.0
1018.0
1032.0
1043.0
1052.0
1056.0
1059.0
1067.0
1072.0
1079.0
1079.0
1081.0
1087.0
1088.0
1092.0
1095.0
1100.0
1101.0
1104.0
1109.0
1117.0
1123.0
1125.0
1127.0
1135.0
1144.0
1149.0
1150.0
1150.0
1153.0
1155.0
1162.0
1166.0
1168.0
1168.0
1167.0
1168.0
1171.0
1171.0
1175.0
1172.0
1170.0
1172.0
1176.0
1178.0
1174.0
1170.0
1166.0
1164.0
1162.0
1160.0
1156.0
1151.0
1144.0
1139.0
1133.0
1123.0
1115.0
1112.0
1108.0
1103.0
1100.0
1097.0
1095.0
1087.0
1080.0
1074.0
1072.0
1070.0
1067.0
1063.0
1060.0
1056.0
1054.0
1049.0
1047.0
1042.0
1035.0
1032.0
1026.0
1021.0
1017.0
1016.0
1015.0
1015.0
1018.0
1016.0
1018.0
1016.0
1014.0
1014.0
1013.0
1011.0
1011.0
1011.0
1010.0
1008.0
1003.0
1003.0
1003.0
1001.0
1003.0
1007.0
1007.0
1005.0
1006.0
1002.0
1000.0
1000.0
1000.0
1003.0
1002.0
1001.0
997.0
996.0
999.0
1000.0
1002.0
998.0
996.0
993.0
993.0
993.0
992.0
989.0
985.0
988.0
990.0
993.0
996.0
998.0
996.0
992.0
989.0
986.0
982.0
984.0
988.0
990.0
988.0
990.0
987.0
988.0
985.0
987.0
988.0
989.0
987.0
984.0
979.0
979.0
983.0
987.0
986.0
985.0
987.0
990.0
990.0
986.0
982.0
980.0
979.0
984.0
987.0
988.0
982.0
981.0
982.0
985.0
983.0
981.0
983.0
985.0
984.0
982.0
981.0
981.0
983.0
985.0
983.0
988.0
991.0
992.0
998.0
998.0
997.0
999.0
995.0
993.0
987.0
984.0
982.0
983.0
985.0
986.0
986.0
987.0
987.0
990.0
988.0
988.0
987.0
988.0
986.0
980.0
973.0
972.0
970.0
971.0
976.0
978.0
983.0
982.0
976.0
972.0
971.0
970.0
973.0
972.0
971.0
969.0
971.0
973.0
977.0
975.0
972.0
972.0
970.0
973.0
978.0
978.0
975.0
976.0
972.0
970.0
968.0
967.0
966.0
965.0
966.0
973.0
984.0
1000.0
1014.0
1027.0
1042.0
1060.0
1077.0
1098.0
1120.0
1143.0
1165.0
1182.0
1194.0
1195.0
1183.0
1161.0
1127.0
1080.0
1027.0
981.0
946.0
925.0
913.0
916.0
927.0
934.0
936.0
938.0
935.0
938.0
941.0
944.0
944.0
943.0
940.0
943.0
945.0
947.0
949.0
945.0
942.0
943.0
951.0
957.0
960.0
957.0
956.0
956.0
957.0
956.0
957.0
955.0
954.0
955.0
957.0
958.0
960.0
958.0
957.0
958.0
958.0
960.0
962.0
963.0
963.0
962.0
962.0
965.0
964.0
961.0
960.0
958.0
961.0
960.0
960.0
959.0
962.0
965.0
967.0
968.0
964.0
964.0
967.0
970.0
975.0
976.0
972.0
971.0
968.0
970.0
968.0
966.0
966.0
965.0
970.0
974.0
977.0
979.0
975.0
968.0
967.0
968.0
972.0
975.0
976.0
974.0
973.0
976.0
979.0
979.0
978.0
976.0
977.0
978.0
983.0
985.0
985.0
986.0
985.0
984.0
983.0
986.0
982.0
981.0
980.0
979.0
983.0
986.0
985.0
985.0
983.0
981.0
988.0
988.0
986.0
986.0
986.0
987.0
991.0
991.0
986.0
980.0
978.0
984.0
983.0
987.0
984.0
981.0
976.0
980.0
982.0
985.0
980.0
970.0
970.0
971.0
975.0
975.0
976.0
973.0
971.0
971.0
972.0
973.0
978.0
974.0
972.0
971.0
972.0
973.0
971.0
971.0
969.0
969.0
970.0
967.0
965.0
965.0
965.0
966.0
974.0
981.0
982.0
982.0
979.0
983.0
987.0
992.0
998.0
998.0
997.0
998.0
1002.0
1010.0
1012.0
1013.0
1017.0
1030.0
1047.0
1056.0
1056.0
1048.0
1046.0
1044.0
1039.0
1023.0
992.0
938.0
860.0
784.0
719.0
675.0
651.0
642.0
633.0
631.0
636.0
642.0
644.0
646.0
650.0
667.0
690.0
719.0
733.0
740.0
750.0
764.0
786.0
809.0
826.0
835.0
846.0
859.0
868.0
877.0
884.0
894.0
903.0
914.0
919.0
922.0
922.0
924.0
926.0
934.0
941.0
946.0
957.0
966.0
978.0
992.0
1005.0
1018.0
1026.0
1030.0
1035.0
1042.0
1048.0
1053.0
1056.0
1059.0
1057.0
1059.0
1063.0
1071.0
1074.0
1075.0
1072.0
1078.0
1080.0
1084.0
1090.0
1095.0
1098.0
1102.0
1103.0
1106.0
1109.0
1110.0
1118.0
1121.0
1128.0
1132.0
1131.0
1131.0
1133.0
1138.0
1142.0
1147.0
1146.0
1148.0
1146.0
1147.0
1150.0
1151.0
1151.0
1155.0
1156.0
1156.0
1156.0
1155.0
1153.0
1146.0
1142.0
1145.0
1147.0
1149.0
1148.0
1142.0
1136.0
1137.0
1136.0
1136.0
1130.0
1123.0
1119.0
1117.0
1119.0
1118.0
1112.0
1108.0
1102.0
1101.0
1096.0
1094.0
1087.0
1080.0
1073.0
1069.0
1067.0
1062.0
1057.0
1054.0
1048.0
1046.0
1041.0
1040.0
1034.0
1030.0
1026.0
1025.0
1025.0
1024.0
1025.0
1021.0
1014.0
1009.0
1004.0
1003.0
1007.0
1012.0
1012.0
1015.0
1014.0
1014.0
1014.0
1010.0
1009.0
1008.0
1005.0
1003.0
1007.0
1006.0
1003.0
1004.0
1004.0
1007.0
1006.0
1002.0
1000.0
1002.0
1007.0
1009.0
1007.0
1004.0
998.0
998.0
996.0
995.0
995.0
995.0
994.0
994.0
994.0
997.0
998.0
997.0
996.0
998.0
1000.0
1000.0
1000.0
1000.0
997.0
996.0
994.0
998.0
1000.0
1000.0
999.0
996.0
992.0
988.0
983.0
978.0
983.0
984.0
986.0
985.0
986.0
982.0
976.0
976.0
977.0
982.0
986.0
987.0
984.0
984.0
984.0
989.0
990.0
987.0
982.0
980.0
981.0
980.0
978.0
976.0
977.0
979.0
984.0
989.0
989.0
989.0
987.0
987.0
989.0
989.0
985.0
979.0
975.0
978.0
982.0
984.0
986.0
984.0
983.0
982.0
981.0
981.0
980.0
982.0
989.0
995.0
999.0
997.0
996.0
995.0
993.0
994.0
994.0
995.0
996.0
991.0
988.0
991.0
992.0
993.0
989.0
983.0
979.0
982.0
987.0
989.0
989.0
984.0
979.0
978.0
981.0
982.0
982.0
983.0
984.0
990.0
994.0
994.0
990.0
986.0
980.0
983.0
982.0
983.0
984.0
982.0
980.0
977.0
974.0
975.0
972.0
967.0
967.0
970.0
973.0
978.0
985.0
988.0
987.0
988.0
984.0
985.0
986.0
982.0
978.0
983.0
993.0
1009.0
1026.0
1043.0
1060.0
1078.0
1095.0
1115.0
1136.0
1159.0
1181.0
1205.0
1225.0
1230.0
1223.0
1199.0
1149.0
1068.0
990.0
946.0
935.0
929.0
929.0
940.0
950.0
955.0
957.0
956.0
951.0
948.0
946.0
944.0
945.0
948.0
947.0
947.0
945.0
949.0
958.0
964.0
965.0
959.0
955.0
954.0
956.0
960.0
967.0
970.0
971.0
970.0
972.0
965.0
961.0
960.0
961.0
965.0
967.0
969.0
967.0
969.0
970.0
971.0
971.0
970.0
969.0
968.0
972.0
972.0
973.0
972.0
969.0
972.0
973.0
974.0
972.0
971.0
971.0
968.0
969.0
971.0
974.0
976.0
980.0
986.0
988.0
982.0
968.0
953.0
953.0
964.0
971.0
974.0
966.0
958.0
959.0
968.0
971.0
974.0
974.0
975.0
974.0
974.0
974.0
976.0
977.0
977.0
978.0
985.0
987.0
991.0
992.0
989.0
987.0
991.0
997.0
997.0
1000.0
996.0
994.0
996.0
997.0
994.0
990.0
991.0
988.0
989.0
992.0
994.0
991.0
993.0
993.0
994.0
995.0
995.0
995.0
995.0
994.0
991.0
989.0
992.0
991.0
986.0
987.0
986.0
986.0
987.0
988.0
983.0
983.0
982.0
982.0
983.0
980.0
981.0
980.0
984.0
984.0
985.0
983.0
978.0
977.0
978.0
982.0
980.0
979.0
977.0
976.0
982.0
986.0
998.0
1003.0
1008.0
1010.0
1013.0
1019.0
1023.0
1026.0
1024.0
1020.0
1022.0
1030.0
1036.0
1035.0
1021.0
999.0
971.0
918.0
843.0
762.0
687.0
626.0
587.0
572.0
572.0
574.0
575.0
583.0
596.0
608.0
623.0
643.0
661.0
680.0
696.0
724.0
758.0
784.0
809.0
821.0
835.0
843.0
856.0
870.0
879.0
886.0
894.0
902.0
916.0
928.0
935.0
945.0
956.0
973.0
992.0
1005.0
1015.0
1023.0
1034.0
1044.0
1053.0
1057.0
1058.0
1063.0
1068.0
1071.0
1076.0
1081.0
1086.0
1087.0
1091.0
1093.0
1096.0
1098.0
1101.0
1103.0
1105.0
1112.0
1118.0
1122.0
1124.0
1128.0
1129.0
1132.0
1140.0
1145.0
1146.0
1147.0
1152.0
1156.0
1159.0
1161.0
1161.0
1158.0
1161.0
1164.0
1165.0
1165.0
1164.0
1164.0
1165.0
1163.0
1164.0
1164.0
1161.0
1155.0
1155.0
1151.0
1150.0
1148.0
1140.0
1133.0
1129.0
1122.0
1118.0
1110.0
1101.0
1093.0
1085.0
1082.0
1078.0
1074.0
1065.0
1057.0
1052.0
1049.0
1050.0
1047.0
1044.0
1036.0
1032.0
1032.0
1031.0
1029.0
1023.0
1012.0
1008.0
1007.0
1009.0
1006.0
1002.0
998.0
