# Simple Text Format
# Sampling Rate (Hz):= 360.00
# Resolution:= 12
# Labels:= ECG
957.0
963.0
968.0
975.0
981.0
985.0
990.0
990.0
996.0
997.0
1000.0
1000.0
1002.0
1004.0
1005.0
1011.0
1010.0
1008.0
1006.0
1003.0
1002.0
1000.0
996.0
996.0
993.0
992.0
990.0
987.0
984.0
981.0
976.0
972.0
966.0
964.0
961.0
958.0
953.0
951.0
950.0
947.0
947.0
942.0
938.0
933.0
931.0
925.0
924.0
922.0
922.0
925.0
926.0
926.0
927.0
927.0
927.0
925.0
923.0
922.0
920.0
919.0
920.0
920.0
922.0
924.0
923.0
926.0
927.0
922.0
921.0
919.0
920.0
919.0
920.0
920.0
924.0
926.0
926.0
922.0
922.0
923.0
923.0
922.0
921.0
922.0
923.0
922.0
924.0
924.0
924.0
921.0
922.0
919.0
918.0
920.0
917.0
917.0
916.0
918.0
919.0
923.0
922.0
920.0
921.0
921.0
917.0
917.0
916.0
918.0
917.0
920.0
918.0
920.0
921.0
918.0
919.0
918.0
918.0
912.0
917.0
916.0
917.0
915.0
916.0
918.0
920.0
921.0
921.0
918.0
917.0
919.0
914.0
915.0
912.0
919.0
919.0
922.0
921.0
921.0
921.0
919.0
915.0
914.0
916.0
916.0
914.0
917.0
918.0
921.0
921.0
921.0
922.0
922.0
922.0
923.0
922.0
923.0
924.0
924.0
925.0
927.0
925.0
927.0
927.0
927.0
927.0
930.0
930.0
932.0
934.0
935.0
936.0
940.0
947.0
947.0
948.0
945.0
944.0
943.0
943.0
940.0
940.0
937.0
936.0
934.0
933.0
933.0
929.0
924.0
921.0
915.0
913.0
908.0
911.0
908.0
908.0
909.0
908.0
909.0
907.0
907.0
907.0
907.0
911.0
912.0
913.0
913.0
915.0
917.0
917.0
919.0
921.0
921.0
925.0
929.0
935.0
945.0
960.0
975.0
993.0
1015.0
1040.0
1067.0
1099.0
1134.0
1163.0
1189.0
1208.0
1228.0
1247.0
1271.0
1290.0
1286.0
1255.0
1193.0
1111.0
1023.0
948.0
891.0
859.0
845.0
849.0
858.0
867.0
881.0
884.0
886.0
887.0
887.0
886.0
884.0
883.0
882.0
884.0
882.0
883.0
884.0
883.0
882.0
880.0
875.0
876.0
876.0
875.0
874.0
874.0
877.0
877.0
879.0
879.0
878.0
876.0
874.0
873.0
871.0
869.0
868.0
868.0
871.0
872.0
872.0
873.0
871.0
869.0
867.0
863.0
862.0
859.0
857.0
859.0
860.0
860.0
859.0
858.0
856.0
856.0
855.0
857.0
853.0
850.0
849.0
852.0
852.0
850.0
847.0
851.0
850.0
850.0
849.0
846.0
848.0
847.0
846.0
849.0
852.0
852.0
854.0
855.0
854.0
855.0
854.0
858.0
859.0
858.0
864.0
867.0
871.0
872.0
878.0
879.0
880.0
886.0
889.0
891.0
895.0
897.0
900.0
903.0
907.0
908.0
909.0
913.0
913.0
915.0
914.0
914.0
912.0
912.0
911.0
914.0
914.0
914.0
915.0
916.0
918.0
915.0
912.0
913.0
906.0
905.0
907.0
907.0
908.0
907.0
911.0
912.0
908.0
906.0
906.0
906.0
903.0
904.0
899.0
902.0
904.0
905.0
903.0
907.0
908.0
908.0
908.0
909.0
907.0
903.0
899.0
894.0
891.0
890.0
890.0
896.0
905.0
924.0
948.0
978.0
1006.0
1029.0
1044.0
1050.0
1054.0
1040.0
1019.0
987.0
951.0
915.0
890.0
863.0
832.0
798.0
767.0
739.0
726.0
726.0
734.0
752.0
766.0
779.0
791.0
794.0
796.0
801.0
805.0
811.0
819.0
829.0
839.0
847.0
854.0
859.0
868.0
873.0
877.0
882.0
886.0
886.0
890.0
893.0
896.0
896.0
896.0
895.0
894.0
896.0
895.0
893.0
896.0
896.0
895.0
898.0
897.0
898.0
898.0
899.0
898.0
894.0
895.0
893.0
895.0
896.0
897.0
896.0
898.0
900.0
901.0
902.0
901.0
902.0
901.0
902.0
905.0
907.0
911.0
914.0
917.0
923.0
926.0
929.0
933.0
937.0
939.0
943.0
947.0
953.0
962.0
970.0
978.0
985.0
989.0
993.0
998.0
999.0
1001.0
1006.0
1010.0
1014.0
1015.0
1018.0
1021.0
1023.0
1023.0
1024.0
1024.0
1021.0
1017.0
1017.0
1014.0
1013.0
1012.0
1013.0
1010.0
1008.0
1004.0
999.0
996.0
990.0
986.0
982.0
977.0
975.0
971.0
967.0
968.0
964.0
961.0
957.0
952.0
948.0
944.0
941.0
941.0
939.0
938.0
935.0
937.0
939.0
934.0
934.0
931.0
929.0
929.0
924.0
923.0
924.0
925.0
928.0
929.0
929.0
927.0
925.0
925.0
924.0
924.0
923.0
920.0
921.0
924.0
923.0
924.0
926.0
925.0
927.0
927.0
926.0
925.0
924.0
922.0
923.0
923.0
925.0
924.0
924.0
923.0
922.0
918.0
918.0
918.0
915.0
917.0
919.0
921.0
921.0
923.0
923.0
922.0
924.0
920.0
919.0
919.0
916.0
918.0
917.0
918.0
918.0
920.0
921.0
920.0
921.0
919.0
918.0
917.0
917.0
918.0
916.0
916.0
919.0
919.0
922.0
919.0
918.0
916.0
915.0
915.0
916.0
917.0
915.0
918.0
919.0
918.0
920.0
921.0
921.0
919.0
917.0
917.0
915.0
916.0
916.0
918.0
919.0
921.0
922.0
920.0
921.0
919.0
919.0
919.0
919.0
919.0
919.0
923.0
926.0
927.0
927.0
927.0
928.0
925.0
926.0
929.0
925.0
924.0
926.0
928.0
935.0
936.0
937.0
939.0
943.0
939.0
942.0
944.0
946.0
943.0
942.0
946.0
945.0
944.0
942.0
941.0
941.0
938.0
935.0
933.0
929.0
927.0
924.0
921.0
920.0
920.0
916.0
915.0
912.0
911.0
907.0
907.0
904.0
903.0
905.0
907.0
907.0
912.0
914.0
912.0
915.0
915.0
911.0
911.0
910.0
913.0
916.0
921.0
924.0
931.0
940.0
954.0
970.0
988.0
1010.0
1032.0
1062.0
1099.0
1136.0
1168.0
1196.0
1219.0
1239.0
1259.0
1284.0
1302.0
1306.0
1285.0
1232.0
1161.0
1077.0
994.0
929.0
885.0
862.0
857.0
863.0
868.0
875.0
878.0
880.0
879.0
880.0
882.0
883.0
883.0
884.0
884.0
882.0
881.0
878.0
874.0
873.0
874.0
875.0
874.0
876.0
878.0
880.0
878.0
878.0
874.0
874.0
871.0
870.0
870.0
870.0
870.0
870.0
872.0
871.0
873.0
871.0
870.0
869.0
865.0
864.0
863.0
864.0
863.0
863.0
865.0
865.0
863.0
862.0
860.0
858.0
854.0
853.0
850.0
850.0
851.0
851.0
852.0
852.0
852.0
849.0
846.0
847.0
844.0
841.0
841.0
841.0
843.0
840.0
843.0
845.0
844.0
843.0
842.0
841.0
841.0
838.0
836.0
838.0
838.0
842.0
845.0
849.0
851.0
852.0
850.0
850.0
852.0
854.0
856.0
859.0
863.0
868.0
871.0
874.0
876.0
877.0
880.0
882.0
884.0
886.0
888.0
891.0
891.0
897.0
899.0
902.0
903.0
902.0
903.0
903.0
902.0
901.0
903.0
902.0
904.0
904.0
905.0
907.0
906.0
906.0
902.0
903.0
901.0
901.0
900.0
902.0
901.0
903.0
904.0
902.0
902.0
899.0
897.0
898.0
897.0
895.0
895.0
895.0
896.0
895.0
896.0
897.0
896.0
896.0
894.0
896.0
894.0
894.0
894.0
895.0
891.0
892.0
891.0
891.0
890.0
894.0
901.0
911.0
928.0
953.0
979.0
1003.0
1025.0
1041.0
1055.0
1058.0
1058.0
1048.0
1028.0
1000.0
972.0
945.0
924.0
902.0
877.0
851.0
826.0
801.0
783.0
779.0
775.0
780.0
790.0
797.0
805.0
811.0
813.0
816.0
818.0
823.0
827.0
833.0
838.0
845.0
849.0
854.0
858.0
863.0
873.0
878.0
885.0
885.0
889.0
887.0
887.0
884.0
879.0
884.0
884.0
883.0
884.0
886.0
887.0
889.0
888.0
887.0
888.0
885.0
885.0
883.0
885.0
886.0
885.0
886.0
885.0
889.0
888.0
889.0
888.0
888.0
888.0
889.0
889.0
889.0
890.0
894.0
895.0
898.0
900.0
904.0
906.0
909.0
912.0
913.0
920.0
924.0
929.0
938.0
942.0
950.0
955.0
959.0
963.0
964.0
973.0
975.0
983.0
985.0
990.0
993.0
998.0
1004.0
1005.0
1005.0
1007.0
1006.0
1005.0
1005.0
1003.0
1001.0
1001.0
999.0
996.0
995.0
994.0
990.0
982.0
983.0
975.0
974.0
969.0
964.0
963.0
959.0
960.0
957.0
953.0
948.0
946.0
940.0
939.0
934.0
930.0
930.0
929.0
930.0
928.0
929.0
928.0
926.0
924.0
922.0
919.0
918.0
917.0
918.0
918.0
918.0
918.0
920.0
921.0
918.0
916.0
919.0
913.0
915.0
915.0
916.0
916.0
915.0
920.0
920.0
919.0
920.0
917.0
919.0
916.0
916.0
916.0
916.0
918.0
919.0
919.0
918.0
919.0
915.0
915.0
916.0
916.0
916.0
916.0
916.0
916.0
916.0
918.0
916.0
918.0
919.0
917.0
916.0
915.0
914.0
915.0
915.0
915.0
915.0
914.0
916.0
918.0
918.0
915.0
915.0
912.0
912.0
913.0
912.0
914.0
912.0
915.0
916.0
915.0
914.0
912.0
915.0
913.0
913.0
913.0
913.0
915.0
915.0
915.0
918.0
917.0
917.0
916.0
915.0
911.0
912.0
910.0
908.0
912.0
912.0
914.0
914.0
917.0
917.0
915.0
915.0
914.0
913.0
914.0
913.0
915.0
915.0
918.0
918.0
920.0
919.0
919.0
918.0
917.0
917.0
919.0
919.0
921.0
923.0
926.0
929.0
928.0
930.0
930.0
932.0
934.0
935.0
933.0
939.0
939.0
942.0
942.0
947.0
947.0
946.0
943.0
939.0
935.0
932.0
930.0
929.0
928.0
923.0
923.0
922.0
921.0
919.0
915.0
912.0
906.0
905.0
901.0
901.0
901.0
901.0
904.0
906.0
906.0
906.0
904.0
905.0
904.0
903.0
905.0
906.0
906.0
909.0
910.0
915.0
915.0
917.0
921.0
927.0
933.0
946.0
959.0
979.0
997.0
1023.0
1050.0
1081.0
1114.0
1142.0
1171.0
1198.0
1221.0
1245.0
1278.0
1299.0
1292.0
1258.0
1190.0
1103.0
1009.0
929.0
876.0
849.0
846.0
853.0
864.0
877.0
883.0
883.0
884.0
885.0
888.0
886.0
885.0
885.0
885.0
881.0
881.0
878.0
881.0
881.0
881.0
883.0
884.0
881.0
883.0
880.0
879.0
877.0
877.0
876.0
877.0
878.0
880.0
879.0
879.0
878.0
876.0
875.0
874.0
872.0
871.0
873.0
871.0
871.0
873.0
872.0
872.0
870.0
868.0
868.0
865.0
859.0
861.0
861.0
861.0
861.0
862.0
860.0
859.0
856.0
857.0
856.0
854.0
851.0
848.0
847.0
847.0
847.0
849.0
849.0
849.0
848.0
847.0
848.0
845.0
844.0
847.0
846.0
851.0
852.0
852.0
854.0
857.0
856.0
856.0
859.0
859.0
862.0
863.0
866.0
871.0
876.0
880.0
884.0
888.0
891.0
893.0
894.0
895.0
898.0
899.0
901.0
905.0
906.0
910.0
912.0
913.0
914.0
914.0
914.0
913.0
911.0
913.0
913.0
913.0
913.0
915.0
916.0
916.0
917.0
915.0
916.0
913.0
913.0
911.0
912.0
912.0
915.0
913.0
915.0
916.0
914.0
913.0
912.0
910.0
908.0
908.0
908.0
907.0
910.0
911.0
911.0
912.0
909.0
906.0
905.0
905.0
904.0
906.0
904.0
905.0
907.0
910.0
911.0
913.0
911.0
910.0
907.0
903.0
897.0
892.0
892.0
896.0
906.0
921.0
941.0
967.0
992.0
1017.0
1035.0
1047.0
1050.0
1052.0
1047.0
1039.0
1019.0
995.0
969.0
941.0
920.0
900.0
881.0
863.0
839.0
819.0
795.0
780.0
769.0
766.0
771.0
777.0
785.0
791.0
798.0
801.0
805.0
807.0
805.0
808.0
816.0
824.0
830.0
838.0
843.0
850.0
855.0
861.0
866.0
871.0
878.0
888.0
895.0
900.0
902.0
902.0
904.0
902.0
901.0
900.0
897.0
898.0
900.0
901.0
901.0
901.0
902.0
901.0
903.0
902.0
901.0
902.0
899.0
900.0
901.0
903.0
903.0
905.0
908.0
907.0
908.0
907.0
908.0
907.0
909.0
911.0
916.0
918.0
923.0
928.0
934.0
939.0
943.0
942.0
946.0
947.0
954.0
958.0
965.0
971.0
978.0
984.0
990.0
996.0
999.0
1002.0
1006.0
1009.0
1012.0
1014.0
1017.0
1019.0
1023.0
1026.0
1028.0
1029.0
1030.0
1028.0
1026.0
1020.0
1021.0
1018.0
1014.0
1011.0
1010.0
1006.0
1003.0
999.0
994.0
987.0
983.0
979.0
975.0
969.0
966.0
964.0
960.0
959.0
955.0
952.0
952.0
948.0
942.0
940.0
940.0
935.0
937.0
933.0
935.0
937.0
936.0
935.0
933.0
932.0
931.0
930.0
928.0
928.0
928.0
929.0
928.0
933.0
932.0
931.0
931.0
931.0
929.0
928.0
924.0
926.0
927.0
928.0
930.0
930.0
930.0
928.0
929.0
929.0
927.0
926.0
926.0
926.0
925.0
926.0
927.0
929.0
929.0
929.0
928.0
926.0
923.0
924.0
923.0
920.0
923.0
923.0
922.0
924.0
923.0
924.0
925.0
924.0
921.0
921.0
919.0
918.0
919.0
920.0
921.0
922.0
925.0
924.0
923.0
923.0
922.0
920.0
919.0
919.0
918.0
919.0
920.0
921.0
923.0
923.0
919.0
918.0
915.0
917.0
918.0
919.0
918.0
920.0
922.0
919.0
922.0
923.0
920.0
920.0
920.0
918.0
916.0
915.0
916.0
918.0
919.0
921.0
923.0
923.0
922.0
920.0
918.0
918.0
918.0
919.0
919.0
921.0
921.0
922.0
926.0
923.0
924.0
925.0
926.0
927.0
927.0
927.0
927.0
930.0
928.0
930.0
932.0
935.0
937.0
939.0
942.0
945.0
943.0
945.0
948.0
948.0
947.0
945.0
945.0
943.0
941.0
939.0
937.0
937.0
933.0
929.0
926.0
928.0
927.0
924.0
924.0
921.0
918.0
916.0
912.0
912.0
912.0
910.0
912.0
913.0
913.0
917.0
917.0
917.0
918.0
916.0
914.0
918.0
917.0
916.0
920.0
924.0
928.0
934.0
940.0
946.0
957.0
968.0
982.0
999.0
1019.0
1041.0
1071.0
1106.0
1142.0
1176.0
1200.0
1213.0
1229.0
1245.0
1265.0
1288.0
1299.0
1286.0
1243.0
1173.0
1092.0
1002.0
928.0
876.0
849.0
845.0
853.0
868.0
881.0
889.0
895.0
897.0
899.0
895.0
895.0
892.0
891.0
889.0
889.0
887.0
887.0
886.0
885.0
885.0
887.0
888.0
887.0
886.0
887.0
885.0
883.0
884.0
881.0
881.0
879.0
882.0
880.0
881.0
883.0
881.0
879.0
880.0
878.0
875.0
876.0
872.0
869.0
870.0
870.0
870.0
871.0
871.0
870.0
868.0
868.0
866.0
865.0
862.0
862.0
863.0
864.0
862.0
863.0
860.0
859.0
858.0
857.0
855.0
853.0
851.0
852.0
853.0
855.0
855.0
859.0
858.0
861.0
860.0
859.0
861.0
860.0
861.0
865.0
868.0
870.0
874.0
879.0
884.0
883.0
889.0
893.0
894.0
898.0
903.0
903.0
906.0
910.0
912.0
916.0
920.0
920.0
919.0
918.0
917.0
918.0
918.0
919.0
920.0
924.0
921.0
922.0
922.0
921.0
920.0
917.0
917.0
918.0
919.0
917.0
920.0
920.0
921.0
922.0
923.0
922.0
918.0
916.0
916.0
915.0
914.0
913.0
914.0
914.0
916.0
917.0
914.0
913.0
913.0
909.0
907.0
905.0
905.0
905.0
907.0
908.0
908.0
914.0
915.0
914.0
914.0
910.0
903.0
899.0
898.0
904.0
913.0
934.0
963.0
995.0
1025.0
1050.0
1067.0
1076.0
1076.0
1067.0
1049.0
1024.0
994.0
968.0
947.0
926.0
907.0
885.0
857.0
825.0
799.0
780.0
770.0
769.0
771.0
779.0
792.0
802.0
808.0
810.0
810.0
810.0
811.0
812.0
815.0
820.0
830.0
837.0
844.0
852.0
858.0
862.0
866.0
870.0
878.0
882.0
886.0
893.0
897.0
901.0
903.0
906.0
903.0
902.0
900.0
900.0
901.0
900.0
896.0
897.0
900.0
901.0
901.0
902.0
903.0
904.0
903.0
901.0
899.0
900.0
897.0
900.0
900.0
903.0
904.0
905.0
907.0
907.0
905.0
908.0
907.0
905.0
905.0
912.0
917.0
920.0
924.0
930.0
933.0
936.0
939.0
944.0
945.0
950.0
954.0
958.0
968.0
973.0
980.0
984.0
992.0
995.0
999.0
1002.0
1003.0
1007.0
1010.0
1012.0
1016.0
1020.0
1022.0
1026.0
1024.0
1025.0
1023.0
1022.0
1022.0
1020.0
1017.0
1016.0
1014.0
1010.0
1011.0
1008.0
1003.0
999.0
994.0
990.0
983.0
979.0
975.0
971.0
967.0
963.0
963.0
958.0
956.0
952.0
950.0
947.0
943.0
942.0
940.0
938.0
935.0
937.0
937.0
936.0
935.0
935.0
931.0
933.0
930.0
930.0
927.0
929.0
928.0
928.0
932.0
934.0
932.0
932.0
930.0
930.0
930.0
930.0
928.0
930.0
931.0
932.0
932.0
933.0
934.0
932.0
931.0
930.0
929.0
926.0
928.0
928.0
929.0
929.0
930.0
930.0
932.0
930.0
929.0
928.0
925.0
925.0
926.0
928.0
926.0
926.0
928.0
928.0
929.0
928.0
925.0
926.0
924.0
924.0
924.0
924.0
922.0
926.0
923.0
924.0
926.0
925.0
924.0
925.0
920.0
917.0
920.0
922.0
921.0
925.0
925.0
926.0
926.0
926.0
925.0
923.0
922.0
921.0
921.0
920.0
923.0
923.0
925.0
926.0
926.0
925.0
924.0
924.0
922.0
921.0
922.0
921.0
922.0
923.0
923.0
924.0
922.0
926.0
923.0
925.0
926.0
925.0
925.0
926.0
927.0
929.0
931.0
933.0
934.0
934.0
934.0
933.0
932.0
932.0
932.0
933.0
934.0
938.0
940.0
942.0
944.0
943.0
945.0
947.0
947.0
948.0
949.0
950.0
951.0
949.0
950.0
951.0
949.0
946.0
939.0
941.0
934.0
931.0
929.0
925.0
925.0
924.0
922.0
921.0
917.0
917.0
915.0
913.0
911.0
912.0
914.0
914.0
915.0
916.0
917.0
921.0
920.0
920.0
921.0
920.0
919.0
922.0
922.0
925.0
929.0
933.0
940.0
948.0
958.0
969.0
986.0
1003.0
1022.0
1043.0
1068.0
1098.0
1129.0
1161.0
1183.0
1209.0
1229.0
1248.0
1271.0
1296.0
1309.0
1301.0
1266.0
1205.0
1127.0
1047.0
977.0
925.0
893.0
875.0
875.0
879.0
881.0
887.0
888.0
890.0
892.0
892.0
897.0
899.0
897.0
896.0
895.0
892.0
889.0
887.0
885.0
886.0
888.0
888.0
889.0
890.0
888.0
887.0
887.0
883.0
884.0
883.0
879.0
880.0
880.0
880.0
884.0
884.0
884.0
884.0
879.0
879.0
877.0
875.0
874.0
874.0
875.0
873.0
875.0
873.0
872.0
871.0
868.0
868.0
866.0
867.0
864.0
865.0
864.0
862.0
863.0
864.0
862.0
862.0
861.0
859.0
857.0
853.0
851.0
854.0
854.0
852.0
853.0
856.0
854.0
854.0
855.0
856.0
854.0
852.0
851.0
852.0
851.0
856.0
857.0
859.0
862.0
862.0
864.0
863.0
865.0
867.0
867.0
872.0
874.0
879.0
885.0
890.0
893.0
896.0
899.0
899.0
903.0
903.0
905.0
906.0
908.0
912.0
915.0
913.0
917.0
919.0
916.0
915.0
914.0
914.0
914.0
915.0
915.0
919.0
920.0
922.0
920.0
921.0
921.0
920.0
918.0
917.0
917.0
915.0
915.0
915.0
917.0
916.0
917.0
917.0
918.0
914.0
914.0
913.0
910.0
912.0
912.0
913.0
914.0
914.0
911.0
911.0
908.0
910.0
907.0
907.0
905.0
904.0
906.0
908.0
911.0
914.0
914.0
916.0
915.0
910.0
908.0
905.0
903.0
906.0
911.0
922.0
943.0
969.0
999.0
1027.0
1050.0
1068.0
1074.0
1075.0
1065.0
1047.0
1021.0
994.0
966.0
946.0
930.0
912.0
889.0
864.0
838.0
817.0
802.0
794.0
790.0
793.0
801.0
809.0
815.0
820.0
825.0
824.0
826.0
824.0
823.0
830.0
838.0
843.0
852.0
857.0
862.0
867.0
871.0
874.0
879.0
886.0
893.0
896.0
903.0
906.0
909.0
908.0
911.0
908.0
907.0
909.0
907.0
908.0
908.0
908.0
908.0
910.0
909.0
913.0
914.0
913.0
912.0
911.0
910.0
909.0
906.0
907.0
910.0
912.0
911.0
913.0
913.0
909.0
908.0
911.0
913.0
911.0
912.0
915.0
918.0
919.0
923.0
929.0
932.0
933.0
937.0
940.0
944.0
947.0
951.0
952.0
960.0
963.0
970.0
977.0
982.0
988.0
994.0
998.0
1003.0
1007.0
1010.0
1011.0
1017.0
1017.0
1020.0
1025.0
1030.0
1030.0
1028.0
1028.0
1027.0
1025.0
1023.0
1023.0
1020.0
1019.0
1016.0
1016.0
1012.0
1008.0
1004.0
999.0
993.0
991.0
986.0
983.0
975.0
973.0
974.0
974.0
970.0
967.0
963.0
958.0
955.0
952.0
948.0
949.0
946.0
947.0
946.0
945.0
946.0
943.0
944.0
943.0
940.0
938.0
938.0
937.0
938.0
938.0
941.0
940.0
941.0
941.0
941.0
939.0
938.0
937.0
937.0
937.0
937.0
937.0
934.0
938.0
941.0
941.0
940.0
940.0
939.0
937.0
937.0
936.0
936.0
938.0
939.0
940.0
939.0
939.0
940.0
937.0
936.0
933.0
931.0
934.0
933.0
934.0
935.0
938.0
937.0
937.0
936.0
936.0
934.0
933.0
934.0
931.0
932.0
933.0
932.0
937.0
937.0
937.0
936.0
933.0
935.0
935.0
935.0
937.0
938.0
939.0
940.0
943.0
944.0
944.0
944.0
944.0
943.0
943.0
942.0
945.0
946.0
946.0
947.0
954.0
956.0
957.0
958.0
959.0
959.0
959.0
959.0
956.0
955.0
953.0
950.0
949.0
949.0
946.0
943.0
938.0
933.0
930.0
929.0
926.0
924.0
924.0
925.0
924.0
925.0
923.0
926.0
924.0
924.0
922.0
922.0
922.0
922.0
924.0
922.0
924.0
926.0
926.0
927.0
928.0
928.0
926.0
927.0
928.0
931.0
933.0
937.0
943.0
953.0
960.0
972.0
981.0
994.0
1013.0
1035.0
1061.0
1091.0
1125.0
1155.0
1186.0
1207.0
1226.0
1243.0
1263.0
1287.0
1296.0
1275.0
1222.0
1140.0
1050.0
966.0
903.0
869.0
856.0
862.0
872.0
885.0
891.0
894.0
898.0
900.0
900.0
901.0
898.0
901.0
900.0
896.0
897.0
895.0
894.0
890.0
893.0
894.0
894.0
895.0
896.0
895.0
894.0
893.0
888.0
885.0
885.0
884.0
888.0
885.0
888.0
887.0
890.0
888.0
887.0
884.0
883.0
884.0
880.0
879.0
877.0
879.0
879.0
878.0
880.0
878.0
879.0
879.0
874.0
874.0
871.0
870.0
868.0
866.0
868.0
866.0
867.0
866.0
864.0
863.0
862.0
861.0
859.0
857.0
859.0
858.0
858.0
860.0
862.0
863.0
865.0
866.0
865.0
866.0
866.0
867.0
871.0
872.0
878.0
880.0
885.0
888.0
890.0
895.0
898.0
900.0
902.0
903.0
907.0
911.0
915.0
917.0
921.0
924.0
925.0
923.0
923.0
925.0
922.0
923.0
924.0
926.0
927.0
928.0
930.0
930.0
930.0
927.0
925.0
924.0
924.0
923.0
924.0
923.0
925.0
924.0
923.0
925.0
924.0
922.0
918.0
920.0
918.0
915.0
915.0
915.0
915.0
916.0
918.0
914.0
913.0
917.0
912.0
911.0
908.0
911.0
912.0
914.0
916.0
917.0
919.0
918.0
915.0
911.0
907.0
904.0
907.0
915.0
932.0
955.0
985.0
1012.0
1036.0
1054.0
1060.0
1062.0
1053.0
1037.0
1009.0
976.0
943.0
913.0
891.0
871.0
851.0
827.0
794.0
767.0
741.0
724.0
720.0
722.0
729.0
738.0
752.0
766.0
777.0
784.0
789.0
793.0
794.0
799.0
802.0
811.0
820.0
827.0
839.0
849.0
859.0
870.0
876.0
882.0
888.0
896.0
904.0
912.0
918.0
920.0
923.0
924.0
922.0
919.0
919.0
917.0
916.0
915.0
912.0
912.0
911.0
907.0
909.0
909.0
910.0
911.0
912.0
911.0
909.0
908.0
906.0
908.0
909.0
908.0
909.0
911.0
912.0
913.0
914.0
916.0
917.0
916.0
918.0
918.0
919.0
920.0
925.0
928.0
935.0
939.0
945.0
949.0
951.0
954.0
958.0
961.0
969.0
971.0
978.0
984.0
991.0
996.0
1000.0
1001.0
1003.0
1008.0
1009.0
1013.0
1017.0
1023.0
1025.0
1030.0
1033.0
1034.0
1037.0
1037.0
1036.0
1033.0
1030.0
1028.0
1028.0
1025.0
1025.0
1025.0
1018.0
1019.0
1014.0
1007.0
1005.0
998.0
994.0
991.0
985.0
983.0
982.0
980.0
976.0
973.0
970.0
966.0
962.0
957.0
957.0
954.0
951.0
949.0
950.0
946.0
947.0
949.0
947.0
946.0
947.0
944.0
942.0
939.0
938.0
938.0
939.0
940.0
942.0
943.0
941.0
941.0
941.0
940.0
940.0
937.0
935.0
939.0
938.0
940.0
941.0
942.0
941.0
942.0
941.0
938.0
937.0
937.0
937.0
938.0
939.0
938.0
937.0
938.0
940.0
935.0
937.0
938.0
935.0
933.0
933.0
932.0
935.0
935.0
938.0
939.0
936.0
936.0
935.0
935.0
933.0
932.0
932.0
933.0
933.0
934.0
935.0
936.0
933.0
932.0
932.0
930.0
928.0
930.0
929.0
932.0
931.0
933.0
933.0
934.0
931.0
933.0
933.0
928.0
928.0
927.0
928.0
927.0
930.0
932.0
932.0
933.0
932.0
929.0
930.0
931.0
928.0
926.0
926.0
928.0
931.0
932.0
933.0
932.0
932.0
932.0
931.0
930.0
929.0
926.0
926.0
927.0
928.0
931.0
933.0
933.0
932.0
931.0
930.0
928.0
927.0
927.0
925.0
927.0
927.0
928.0
931.0
930.0
928.0
929.0
930.0
927.0
929.0
924.0
922.0
923.0
925.0
926.0
928.0
931.0
930.0
930.0
928.0
927.0
924.0
927.0
928.0
929.0
934.0
936.0
938.0
941.0
940.0
939.0
937.0
939.0
935.0
935.0
936.0
941.0
942.0
946.0
945.0
948.0
949.0
954.0
955.0
956.0
954.0
956.0
954.0
953.0
955.0
953.0
954.0
952.0
950.0
947.0
942.0
938.0
935.0
934.0
931.0
931.0
930.0
929.0
929.0
927.0
926.0
923.0
919.0
918.0
918.0
917.0
918.0
920.0
916.0
921.0
923.0
923.0
923.0
923.0
926.0
924.0
926.0
929.0
931.0
935.0
941.0
949.0
959.0
976.0
992.0
1011.0
1035.0
1067.0
1100.0
1134.0
1171.0
1202.0
1226.0
1249.0
1277.0
1306.0
1323.0
1324.0
1292.0
1234.0
1154.0
1072.0
991.0
932.0
891.0
871.0
868.0
875.0
881.0
887.0
889.0
892.0
892.0
893.0
892.0
894.0
893.0
893.0
894.0
894.0
892.0
890.0
891.0
888.0
886.0
885.0
883.0
883.0
885.0
885.0
888.0
887.0
887.0
884.0
884.0
883.0
880.0
881.0
881.0
880.0
880.0
880.0
881.0
883.0
879.0
877.0
875.0
873.0
872.0
869.0
869.0
868.0
873.0
869.0
871.0
872.0
871.0
871.0
870.0
865.0
862.0
860.0
859.0
861.0
860.0
862.0
862.0
862.0
861.0
861.0
858.0
854.0
852.0
850.0
853.0
852.0
851.0
852.0
854.0
855.0
855.0
854.0
853.0
853.0
853.0
852.0
853.0
852.0
852.0
860.0
863.0
865.0
865.0
865.0
867.0
868.0
870.0
871.0
874.0
876.0
880.0
880.0
886.0
891.0
894.0
897.0
899.0
899.0
899.0
901.0
904.0
906.0
908.0
910.0
913.0
915.0
915.0
916.0
916.0
914.0
912.0
912.0
911.0
913.0
914.0
916.0
912.0
915.0
914.0
916.0
915.0
910.0
912.0
911.0
907.0
909.0
909.0
907.0
908.0
912.0
910.0
907.0
905.0
906.0
903.0
904.0
902.0
902.0
904.0
905.0
907.0
905.0
904.0
903.0
904.0
904.0
901.0
900.0
899.0
899.0
896.0
896.0
897.0
899.0
908.0
920.0
938.0
958.0
985.0
1006.0
1026.0
1042.0
1054.0
1061.0
1064.0
1059.0
1045.0
1023.0
996.0
971.0
947.0
926.0
905.0
885.0
864.0
834.0
810.0
790.0
774.0
767.0
771.0
777.0
786.0
797.0
805.0
812.0
818.0
820.0
823.0
831.0
838.0
845.0
854.0
862.0
868.0
875.0
884.0
890.0
897.0
903.0
907.0
909.0
907.0
903.0
902.0
897.0
894.0
892.0
891.0
892.0
893.0
895.0
897.0
898.0
896.0
899.0
896.0
894.0
892.0
892.0
892.0
893.0
895.0
896.0
897.0
898.0
896.0
897.0
894.0
892.0
890.0
891.0
890.0
891.0
892.0
893.0
897.0
899.0
901.0
901.0
903.0
906.0
907.0
908.0
909.0
915.0
920.0
924.0
932.0
940.0
943.0
951.0
953.0
959.0
963.0
967.0
973.0
978.0
984.0
990.0
996.0
998.0
1006.0
1008.0
1010.0
1010.0
1011.0
1012.0
1012.0
1012.0
1012.0
1014.0
1011.0
1007.0
1007.0
1003.0
999.0
997.0
992.0
988.0
983.0
982.0
979.0
977.0
972.0
971.0
967.0
962.0
959.0
956.0
950.0
946.0
942.0
939.0
937.0
938.0
937.0
936.0
938.0
934.0
930.0
927.0
927.0
926.0
924.0
926.0
926.0
924.0
926.0
927.0
926.0
927.0
925.0
925.0
922.0
921.0
919.0
919.0
921.0
923.0
924.0
927.0
927.0
926.0
926.0
924.0
923.0
921.0
921.0
922.0
923.0
924.0
924.0
926.0
925.0
925.0
925.0
923.0
920.0
919.0
919.0
919.0
921.0
921.0
923.0
924.0
920.0
922.0
920.0
918.0
917.0
915.0
914.0
919.0
920.0
921.0
921.0
921.0
922.0
921.0
920.0
918.0
916.0
912.0
914.0
915.0
916.0
918.0
919.0
917.0
917.0
916.0
913.0
916.0
914.0
913.0
914.0
914.0
914.0
916.0
920.0
919.0
920.0
920.0
917.0
917.0
915.0
914.0
