# Simple Text Format
# Sampling Rate (Hz):= 360.00
# Resolution:= 12
# Labels:= ECG
914.0
913.0
917.0
918.0
919.0
920.0
919.0
918.0
915.0
915.0
911.0
910.0
911.0
913.0
915.0
917.0
916.0
917.0
918.0
917.0
918.0
917.0
916.0
915.0
915.0
916.0
914.0
916.0
918.0
919.0
919.0
920.0
919.0
919.0
916.0
918.0
920.0
921.0
924.0
925.0
926.0
928.0
927.0
928.0
929.0
929.0
927.0
927.0
928.0
930.0
932.0
936.0
942.0
943.0
943.0
946.0
946.0
946.0
945.0
944.0
943.0
942.0
940.0
941.0
941.0
941.0
940.0
937.0
934.0
930.0
925.0
923.0
919.0
921.0
919.0
918.0
917.0
914.0
912.0
912.0
908.0
910.0
907.0
906.0
907.0
907.0
911.0
912.0
912.0
915.0
916.0
916.0
919.0
915.0
916.0
917.0
923.0
926.0
937.0
950.0
966.0
983.0
1006.0
1033.0
1063.0
1095.0
1133.0
1164.0
1195.0
1221.0
1246.0
1271.0
1300.0
1323.0
1331.0
1306.0
1253.0
1177.0
1090.0
1001.0
929.0
883.0
858.0
854.0
863.0
874.0
884.0
887.0
888.0
890.0
888.0
888.0
888.0
887.0
887.0
890.0
890.0
892.0
889.0
888.0
888.0
887.0
882.0
884.0
883.0
885.0
886.0
887.0
886.0
886.0
886.0
885.0
883.0
883.0
881.0
880.0
880.0
878.0
880.0
880.0
878.0
880.0
878.0
879.0
878.0
875.0
874.0
874.0
873.0
873.0
873.0
874.0
875.0
874.0
871.0
871.0
868.0
868.0
866.0
864.0
863.0
863.0
863.0
863.0
864.0
863.0
862.0
862.0
859.0
857.0
855.0
852.0
850.0
851.0
851.0
851.0
854.0
855.0
854.0
854.0
852.0
851.0
850.0
850.0
848.0
850.0
854.0
857.0
859.0
862.0
864.0
865.0
864.0
867.0
866.0
867.0
870.0
873.0
879.0
882.0
887.0
894.0
895.0
898.0
898.0
899.0
898.0
899.0
901.0
904.0
904.0
909.0
909.0
911.0
912.0
914.0
913.0
915.0
913.0
913.0
914.0
913.0
914.0
916.0
917.0
916.0
917.0
915.0
913.0
914.0
914.0
914.0
914.0
915.0
916.0
916.0
916.0
912.0
913.0
914.0
913.0
911.0
910.0
905.0
908.0
908.0
909.0
907.0
907.0
909.0
910.0
909.0
909.0
908.0
907.0
905.0
907.0
908.0
910.0
909.0
909.0
910.0
908.0
904.0
900.0
897.0
896.0
900.0
914.0
935.0
960.0
989.0
1015.0
1034.0
1049.0
1058.0
1059.0
1054.0
1040.0
1020.0
992.0
962.0
933.0
912.0
893.0
876.0
856.0
831.0
804.0
778.0
759.0
747.0
746.0
753.0
762.0
778.0
793.0
806.0
815.0
819.0
823.0
826.0
830.0
837.0
843.0
854.0
862.0
870.0
880.0
887.0
891.0
897.0
897.0
898.0
898.0
897.0
899.0
901.0
903.0
903.0
904.0
906.0
904.0
905.0
903.0
901.0
904.0
903.0
904.0
905.0
905.0
906.0
907.0
909.0
907.0
906.0
905.0
905.0
907.0
907.0
906.0
907.0
908.0
910.0
912.0
916.0
918.0
920.0
921.0
924.0
926.0
927.0
931.0
933.0
938.0
946.0
951.0
954.0
963.0
968.0
973.0
979.0
981.0
988.0
991.0
995.0
1004.0
1008.0
1014.0
1020.0
1023.0
1027.0
1031.0
1029.0
1030.0
1030.0
1026.0
1023.0
1024.0
1025.0
1023.0
1023.0
1021.0
1016.0
1012.0
1006.0
1000.0
997.0
995.0
989.0
990.0
985.0
982.0
979.0
975.0
969.0
963.0
961.0
958.0
954.0
951.0
948.0
947.0
945.0
945.0
947.0
944.0
942.0
938.0
935.0
933.0
932.0
929.0
929.0
931.0
933.0
934.0
936.0
936.0
933.0
932.0
933.0
929.0
929.0
928.0
929.0
930.0
932.0
933.0
933.0
933.0
932.0
931.0
928.0
927.0
925.0
926.0
929.0
929.0
930.0
931.0
932.0
930.0
929.0
930.0
927.0
926.0
924.0
924.0
923.0
924.0
925.0
923.0
925.0
924.0
927.0
924.0
925.0
923.0
921.0
921.0
921.0
922.0
924.0
923.0
924.0
924.0
924.0
924.0
920.0
918.0
920.0
919.0
918.0
920.0
918.0
920.0
922.0
923.0
925.0
921.0
919.0
918.0
918.0
917.0
918.0
919.0
916.0
919.0
922.0
921.0
923.0
921.0
919.0
917.0
918.0
918.0
917.0
920.0
920.0
923.0
924.0
924.0
924.0
920.0
919.0
917.0
913.0
914.0
917.0
920.0
921.0
922.0
921.0
921.0
918.0
918.0
919.0
918.0
918.0
918.0
920.0
921.0
921.0
924.0
925.0
927.0
928.0
927.0
929.0
926.0
928.0
928.0
929.0
929.0
929.0
932.0
935.0
935.0
937.0
938.0
939.0
938.0
938.0
941.0
947.0
948.0
950.0
952.0
953.0
951.0
949.0
947.0
944.0
941.0
938.0
936.0
934.0
934.0
932.0
933.0
931.0
930.0
928.0
925.0
921.0
916.0
913.0
908.0
912.0
913.0
916.0
916.0
921.0
919.0
921.0
918.0
918.0
918.0
917.0
918.0
919.0
924.0
925.0
930.0
933.0
938.0
947.0
959.0
975.0
998.0
1025.0
1059.0
1102.0
1147.0
1187.0
1223.0
1252.0
1279.0
1307.0
1324.0
1314.0
1270.0
1195.0
1103.0
1010.0
931.0
879.0
857.0
853.0
862.0
876.0
885.0
893.0
898.0
897.0
897.0
897.0
893.0
891.0
894.0
894.0
894.0
896.0
894.0
892.0
890.0
888.0
888.0
890.0
891.0
890.0
893.0
895.0
890.0
890.0
889.0
887.0
887.0
886.0
886.0
882.0
886.0
885.0
884.0
885.0
886.0
885.0
884.0
881.0
879.0
877.0
877.0
876.0
876.0
875.0
874.0
874.0
876.0
873.0
871.0
869.0
865.0
860.0
861.0
861.0
859.0
859.0
859.0
863.0
862.0
861.0
860.0
858.0
856.0
856.0
856.0
856.0
858.0
860.0
862.0
864.0
864.0
864.0
865.0
863.0
866.0
866.0
867.0
871.0
877.0
878.0
882.0
887.0
888.0
893.0
893.0
897.0
895.0
896.0
898.0
904.0
906.0
908.0
912.0
917.0
915.0
916.0
915.0
917.0
918.0
916.0
917.0
917.0
919.0
919.0
919.0
922.0
922.0
923.0
920.0
918.0
919.0
919.0
919.0
918.0
919.0
920.0
921.0
922.0
920.0
922.0
917.0
916.0
914.0
912.0
912.0
911.0
913.0
913.0
915.0
916.0
914.0
911.0
911.0
909.0
908.0
908.0
906.0
907.0
909.0
909.0
908.0
912.0
914.0
913.0
914.0
911.0
909.0
903.0
901.0
900.0
902.0
905.0
913.0
928.0
947.0
967.0
997.0
1021.0
1041.0
1056.0
1068.0
1071.0
1074.0
1071.0
1060.0
1042.0
1018.0
991.0
967.0
945.0
926.0
903.0
881.0
854.0
829.0
803.0
785.0
777.0
774.0
779.0
785.0
793.0
803.0
808.0
811.0
812.0
814.0
817.0
821.0
828.0
833.0
840.0
846.0
853.0
858.0
864.0
868.0
873.0
879.0
883.0
890.0
896.0
900.0
902.0
903.0
901.0
901.0
898.0
898.0
899.0
896.0
898.0
900.0
902.0
905.0
902.0
903.0
901.0
899.0
899.0
898.0
899.0
899.0
898.0
899.0
901.0
901.0
899.0
899.0
898.0
897.0
900.0
899.0
900.0
903.0
903.0
907.0
910.0
910.0
909.0
911.0
913.0
916.0
916.0
919.0
925.0
927.0
932.0
938.0
945.0
948.0
953.0
959.0
961.0
965.0
970.0
973.0
979.0
985.0
993.0
999.0
1004.0
1008.0
1014.0
1013.0
1017.0
1017.0
1019.0
1019.0
1021.0
1021.0
1022.0
1020.0
1022.0
1017.0
1014.0
1014.0
1008.0
1005.0
1002.0
999.0
995.0
990.0
989.0
986.0
984.0
980.0
975.0
971.0
965.0
962.0
958.0
954.0
951.0
948.0
947.0
945.0
944.0
944.0
940.0
938.0
935.0
933.0
931.0
931.0
931.0
933.0
931.0
931.0
932.0
934.0
932.0
929.0
930.0
929.0
929.0
927.0
927.0
928.0
928.0
930.0
929.0
930.0
929.0
927.0
927.0
927.0
927.0
926.0
926.0
925.0
929.0
928.0
930.0
930.0
930.0
930.0
929.0
926.0
925.0
924.0
924.0
924.0
925.0
930.0
929.0
928.0
926.0
928.0
927.0
924.0
920.0
922.0
922.0
921.0
923.0
926.0
926.0
927.0
926.0
926.0
925.0
922.0
921.0
918.0
919.0
921.0
922.0
922.0
925.0
926.0
923.0
923.0
922.0
920.0
919.0
920.0
917.0
919.0
922.0
922.0
925.0
924.0
924.0
923.0
920.0
920.0
920.0
920.0
920.0
923.0
924.0
923.0
923.0
924.0
924.0
924.0
920.0
921.0
919.0
919.0
921.0
922.0
922.0
925.0
925.0
925.0
925.0
923.0
920.0
923.0
924.0
924.0
923.0
928.0
928.0
930.0
933.0
933.0
933.0
933.0
932.0
931.0
931.0
932.0
934.0
938.0
941.0
944.0
948.0
949.0
951.0
948.0
951.0
950.0
948.0
945.0
947.0
946.0
945.0
945.0
944.0
944.0
939.0
933.0
931.0
927.0
924.0
921.0
920.0
919.0
915.0
914.0
915.0
915.0
913.0
914.0
913.0
912.0
911.0
913.0
913.0
912.0
916.0
915.0
918.0
917.0
920.0
919.0
917.0
920.0
918.0
919.0
921.0
925.0
930.0
937.0
947.0
958.0
970.0
986.0
1003.0
1026.0
1053.0
1079.0
1114.0
1147.0
1181.0
1207.0
1235.0
1261.0
1289.0
1311.0
1320.0
1297.0
1241.0
1160.0
1067.0
983.0
914.0
877.0
863.0
863.0
869.0
880.0
886.0
889.0
887.0
887.0
886.0
887.0
890.0
890.0
889.0
890.0
887.0
889.0
887.0
885.0
884.0
882.0
882.0
885.0
886.0
885.0
885.0
887.0
887.0
885.0
882.0
881.0
880.0
879.0
880.0
878.0
879.0
879.0
878.0
880.0
878.0
877.0
876.0
874.0
871.0
870.0
865.0
869.0
870.0
869.0
870.0
872.0
869.0
868.0
864.0
863.0
861.0
861.0
858.0
857.0
861.0
858.0
860.0
859.0
859.0
855.0
854.0
852.0
849.0
850.0
849.0
848.0
846.0
849.0
849.0
850.0
849.0
850.0
851.0
852.0
852.0
853.0
851.0
855.0
859.0
860.0
863.0
867.0
870.0
871.0
874.0
876.0
878.0
881.0
884.0
888.0
893.0
896.0
900.0
902.0
904.0
907.0
908.0
911.0
909.0
911.0
913.0
915.0
917.0
917.0
921.0
921.0
921.0
921.0
922.0
920.0
920.0
919.0
918.0
919.0
922.0
922.0
924.0
923.0
925.0
923.0
921.0
921.0
920.0
919.0
918.0
919.0
919.0
918.0
920.0
919.0
919.0
918.0
914.0
915.0
913.0
911.0
911.0
911.0
910.0
914.0
912.0
915.0
912.0
912.0
912.0
913.0
916.0
915.0
913.0
913.0
911.0
909.0
908.0
911.0
919.0
934.0
953.0
979.0
1008.0
1033.0
1054.0
1069.0
1073.0
1073.0
1065.0
1046.0
1021.0
991.0
964.0
939.0
916.0
896.0
873.0
849.0
819.0
802.0
788.0
780.0
779.0
786.0
791.0
795.0
799.0
805.0
814.0
814.0
816.0
820.0
823.0
825.0
831.0
837.0
843.0
850.0
858.0
861.0
866.0
875.0
881.0
888.0
896.0
902.0
906.0
909.0
909.0
907.0
907.0
907.0
907.0
908.0
908.0
911.0
912.0
912.0
914.0
913.0
910.0
911.0
911.0
909.0
910.0
912.0
915.0
912.0
913.0
914.0
914.0
916.0
917.0
915.0
917.0
916.0
916.0
920.0
923.0
925.0
930.0
932.0
934.0
940.0
938.0
942.0
945.0
949.0
953.0
959.0
966.0
973.0
977.0
982.0
988.0
991.0
996.0
998.0
1003.0
1005.0
1010.0
1012.0
1018.0
1023.0
1029.0
1032.0
1034.0
1034.0
1036.0
1035.0
1033.0
1035.0
1033.0
1034.0
1032.0
1032.0
1029.0
1030.0
1024.0
1023.0
1018.0
1013.0
1008.0
1002.0
994.0
989.0
988.0
983.0
983.0
978.0
974.0
972.0
967.0
964.0
959.0
958.0
954.0
952.0
952.0
951.0
951.0
948.0
949.0
945.0
945.0
943.0
942.0
940.0
940.0
940.0
942.0
941.0
939.0
941.0
939.0
938.0
939.0
939.0
935.0
933.0
936.0
936.0
939.0
940.0
943.0
942.0
942.0
942.0
940.0
936.0
934.0
936.0
935.0
936.0
938.0
937.0
940.0
941.0
941.0
940.0
939.0
937.0
936.0
935.0
934.0
934.0
935.0
936.0
939.0
936.0
936.0
933.0
932.0
931.0
930.0
927.0
928.0
929.0
930.0
930.0
933.0
936.0
933.0
934.0
934.0
932.0
928.0
928.0
930.0
929.0
930.0
931.0
931.0
932.0
932.0
930.0
928.0
928.0
926.0
928.0
927.0
927.0
929.0
930.0
932.0
934.0
931.0
931.0
927.0
927.0
926.0
925.0
926.0
927.0
930.0
930.0
933.0
929.0
930.0
932.0
928.0
927.0
924.0
922.0
925.0
926.0
928.0
931.0
932.0
933.0
933.0
933.0
933.0
932.0
932.0
932.0
934.0
935.0
935.0
936.0
940.0
942.0
944.0
945.0
944.0
943.0
943.0
947.0
950.0
954.0
957.0
959.0
962.0
961.0
956.0
955.0
952.0
948.0
944.0
942.0
939.0
937.0
937.0
936.0
937.0
934.0
931.0
929.0
923.0
922.0
919.0
919.0
920.0
920.0
922.0
922.0
922.0
924.0
924.0
924.0
922.0
926.0
926.0
929.0
925.0
928.0
934.0
938.0
947.0
955.0
963.0
974.0
990.0
1009.0
1030.0
1051.0
1081.0
1120.0
1156.0
1185.0
1212.0
1228.0
1239.0
1254.0
1273.0
1296.0
1296.0
1275.0
1222.0
1148.0
1060.0
978.0
914.0
874.0
861.0
860.0
868.0
880.0
890.0
897.0
899.0
903.0
903.0
901.0
899.0
896.0
892.0
896.0
891.0
891.0
892.0
892.0
892.0
892.0
893.0
890.0
892.0
892.0
892.0
890.0
889.0
887.0
884.0
884.0
881.0
881.0
885.0
883.0
884.0
885.0
883.0
883.0
881.0
879.0
876.0
876.0
875.0
874.0
876.0
876.0
873.0
875.0
873.0
872.0
871.0
868.0
864.0
864.0
865.0
865.0
866.0
863.0
863.0
865.0
865.0
864.0
863.0
860.0
861.0
854.0
858.0
858.0
859.0
862.0
864.0
868.0
866.0
868.0
868.0
869.0
870.0
871.0
872.0
873.0
881.0
883.0
891.0
893.0
895.0
899.0
900.0
904.0
904.0
907.0
908.0
912.0
914.0
918.0
923.0
922.0
926.0
925.0
926.0
925.0
924.0
925.0
924.0
924.0
925.0
927.0
926.0
927.0
927.0
927.0
927.0
928.0
925.0
924.0
923.0
925.0
924.0
928.0
927.0
928.0
928.0
927.0
924.0
923.0
921.0
920.0
920.0
918.0
920.0
919.0
922.0
923.0
923.0
923.0
922.0
920.0
918.0
917.0
919.0
920.0
922.0
923.0
927.0
928.0
926.0
925.0
920.0
914.0
909.0
905.0
906.0
917.0
935.0
959.0
989.0
1020.0
1046.0
1067.0
1076.0
1077.0
1063.0
1039.0
1003.0
969.0
940.0
914.0
893.0
866.0
838.0
808.0
780.0
760.0
749.0
746.0
752.0
765.0
780.0
792.0
802.0
809.0
814.0
818.0
822.0
826.0
833.0
840.0
847.0
855.0
862.0
871.0
876.0
885.0
891.0
894.0
897.0
900.0
905.0
906.0
908.0
909.0
911.0
912.0
915.0
915.0
915.0
914.0
913.0
913.0
912.0
913.0
911.0
913.0
913.0
914.0
916.0
916.0
916.0
916.0
915.0
914.0
914.0
913.0
912.0
911.0
916.0
916.0
921.0
923.0
920.0
923.0
922.0
924.0
924.0
924.0
929.0
934.0
938.0
944.0
947.0
952.0
954.0
957.0
964.0
967.0
971.0
977.0
979.0
986.0
994.0
999.0
1007.0
1011.0
1015.0
1019.0
1024.0
1028.0
1030.0
1033.0
1035.0
1037.0
1038.0
1042.0
1044.0
1044.0
1044.0
1043.0
1039.0
1038.0
1036.0
1034.0
1033.0
1030.0
1028.0
1027.0
1026.0
1022.0
1019.0
1015.0
1008.0
1006.0
1000.0
993.0
990.0
986.0
984.0
982.0
977.0
976.0
973.0
970.0
964.0
959.0
957.0
956.0
955.0
950.0
951.0
951.0
953.0
952.0
949.0
950.0
946.0
946.0
945.0
942.0
944.0
943.0
941.0
942.0
943.0
947.0
946.0
946.0
945.0
943.0
939.0
939.0
939.0
945.0
941.0
940.0
942.0
943.0
942.0
944.0
943.0
943.0
939.0
938.0
939.0
940.0
941.0
942.0
941.0
944.0
942.0
942.0
942.0
939.0
938.0
935.0
934.0
935.0
938.0
939.0
938.0
941.0
938.0
939.0
938.0
937.0
935.0
934.0
934.0
933.0
934.0
935.0
937.0
937.0
934.0
936.0
936.0
934.0
934.0
932.0
931.0
934.0
933.0
932.0
935.0
936.0
935.0
935.0
932.0
932.0
928.0
927.0
928.0
929.0
932.0
932.0
932.0
934.0
934.0
934.0
933.0
933.0
929.0
929.0
929.0
931.0
931.0
932.0
935.0
934.0
935.0
933.0
932.0
930.0
931.0
930.0
931.0
931.0
934.0
935.0
935.0
935.0
934.0
935.0
934.0
933.0
934.0
936.0
939.0
939.0
941.0
941.0
944.0
945.0
943.0
945.0
944.0
945.0
946.0
945.0
946.0
948.0
951.0
957.0
958.0
961.0
962.0
962.0
960.0
959.0
958.0
953.0
953.0
950.0
950.0
948.0
948.0
946.0
943.0
941.0
934.0
928.0
928.0
925.0
922.0
920.0
920.0
920.0
922.0
925.0
926.0
924.0
923.0
924.0
922.0
925.0
924.0
926.0
930.0
931.0
935.0
938.0
942.0
948.0
954.0
963.0
976.0
993.0
1016.0
1041.0
1069.0
1103.0
1140.0
1175.0
1204.0
1229.0
1252.0
1274.0
1302.0
1321.0
1329.0
1300.0
1244.0
1167.0
1078.0
994.0
933.0
893.0
871.0
871.0
876.0
882.0
891.0
895.0
899.0
902.0
903.0
907.0
904.0
905.0
899.0
899.0
896.0
891.0
895.0
894.0
895.0
895.0
896.0
896.0
892.0
893.0
893.0
890.0
887.0
888.0
886.0
881.0
882.0
882.0
885.0
887.0
883.0
883.0
882.0
881.0
879.0
876.0
878.0
876.0
876.0
875.0
877.0
875.0
874.0
874.0
872.0
871.0
869.0
866.0
867.0
863.0
863.0
862.0
865.0
866.0
864.0
863.0
860.0
857.0
856.0
858.0
858.0
858.0
858.0
858.0
860.0
861.0
861.0
860.0
862.0
861.0
860.0
861.0
864.0
864.0
866.0
866.0
871.0
874.0
877.0
878.0
880.0
882.0
885.0
887.0
891.0
896.0
901.0
903.0
906.0
909.0
909.0
912.0
913.0
915.0
914.0
912.0
915.0
916.0
918.0
920.0
923.0
922.0
923.0
927.0
923.0
923.0
919.0
920.0
919.0
921.0
921.0
923.0
921.0
924.0
923.0
920.0
920.0
921.0
919.0
917.0
916.0
916.0
916.0
916.0
918.0
917.0
916.0
916.0
915.0
914.0
914.0
913.0
911.0
910.0
913.0
912.0
913.0
914.0
913.0
916.0
915.0
911.0
912.0
910.0
910.0
913.0
915.0
915.0
914.0
911.0
909.0
909.0
911.0
918.0
934.0
956.0
986.0
1016.0
1042.0
1065.0
1078.0
1084.0
1085.0
1075.0
1057.0
1031.0
1002.0
974.0
951.0
932.0
911.0
890.0
863.0
836.0
811.0
795.0
785.0
782.0
787.0
794.0
799.0
806.0
813.0
816.0
819.0
821.0
821.0
823.0
823.0
828.0
834.0
839.0
847.0
853.0
859.0
864.0
871.0
881.0
885.0
893.0
897.0
900.0
902.0
905.0
905.0
906.0
906.0
907.0
905.0
908.0
908.0
909.0
906.0
906.0
905.0
903.0
902.0
903.0
908.0
908.0
909.0
908.0
910.0
908.0
911.0
905.0
903.0
902.0
903.0
903.0
905.0
906.0
907.0
910.0
910.0
911.0
911.0
913.0
912.0
915.0
916.0
918.0
920.0
925.0
931.0
935.0
938.0
943.0
947.0
953.0
957.0
962.0
964.0
971.0
976.0
981.0
990.0
995.0
1000.0
1004.0
1006.0
1010.0
1013.0
1017.0
1018.0
1023.0
1026.0
1028.0
1030.0
1030.0
1030.0
1030.0
1029.0
1027.0
1024.0
1020.0
1018.0
1016.0
1015.0
1013.0
1011.0
1009.0
1005.0
1000.0
995.0
992.0
985.0
982.0
981.0
978.0
977.0
975.0
973.0
972.0
967.0
963.0
959.0
956.0
952.0
950.0
946.0
945.0
944.0
945.0
944.0
943.0
943.0
942.0
943.0
940.0
941.0
938.0
939.0
938.0
938.0
940.0
941.0
941.0
943.0
943.0
939.0
941.0
940.0
938.0
938.0
939.0
940.0
942.0
941.0
942.0
942.0
941.0
941.0
940.0
938.0
937.0
939.0
938.0
937.0
936.0
942.0
943.0
943.0
944.0
942.0
940.0
939.0
937.0
937.0
934.0
937.0
939.0
938.0
940.0
938.0
939.0
939.0
937.0
935.0
934.0
936.0
937.0
934.0
935.0
938.0
939.0
937.0
936.0
933.0
935.0
933.0
931.0
933.0
931.0
932.0
932.0
937.0
938.0
938.0
938.0
936.0
938.0
933.0
936.0
935.0
933.0
934.0
937.0
938.0
938.0
938.0
938.0
937.0
936.0
934.0
936.0
934.0
936.0
938.0
940.0
940.0
941.0
941.0
940.0
943.0
941.0
940.0
940.0
940.0
938.0
943.0
945.0
946.0
948.0
948.0
947.0
948.0
947.0
947.0
945.0
946.0
954.0
955.0
958.0
961.0
964.0
965.0
965.0
965.0
965.0
962.0
962.0
961.0
960.0
964.0
961.0
961.0
960.0
954.0
954.0
948.0
946.0
946.0
942.0
939.0
939.0
936.0
934.0
933.0
935.0
933.0
931.0
927.0
929.0
926.0
926.0
926.0
926.0
929.0
932.0
933.0
937.0
935.0
935.0
937.0
937.0
939.0
941.0
946.0
953.0
961.0
976.0
993.0
1010.0
1027.0
1049.0
1071.0
1100.0
1130.0
1161.0
1188.0
1210.0
1230.0
1248.0
1268.0
1288.0
1303.0
1301.0
1277.0
1226.0
1159.0
1083.0
1012.0
956.0
913.0
893.0
887.0
887.0
894.0
900.0
902.0
902.0
902.0
903.0
902.0
905.0
906.0
906.0
907.0
909.0
908.0
906.0
903.0
903.0
903.0
900.0
900.0
901.0
899.0
901.0
901.0
903.0
901.0
899.0
899.0
893.0
891.0
889.0
894.0
892.0
892.0
893.0
894.0
893.0
893.0
895.0
891.0
890.0
887.0
884.0
883.0
884.0
884.0
884.0
887.0
887.0
884.0
882.0
880.0
877.0
878.0
877.0
875.0
875.0
874.0
876.0
876.0
876.0
875.0
874.0
872.0
870.0
867.0
866.0
863.0
864.0
864.0
867.0
865.0
869.0
869.0
869.0
867.0
868.0
867.0
869.0
866.0
868.0
869.0
875.0
875.0
881.0
882.0
884.0
883.0
886.0
885.0
887.0
890.0
894.0
899.0
902.0
907.0
911.0
914.0
917.0
917.0
920.0
919.0
920.0
921.0
923.0
924.0
925.0
929.0
930.0
931.0
929.0
927.0
927.0
926.0
925.0
924.0
926.0
923.0
929.0
927.0
928.0
928.0
929.0
928.0
926.0
924.0
923.0
922.0
923.0
923.0
923.0
924.0
925.0
921.0
923.0
922.0
919.0
919.0
917.0
917.0
919.0
920.0
922.0
923.0
922.0
925.0
925.0
924.0
922.0
921.0
915.0
910.0
909.0
910.0
914.0
920.0
935.0
954.0
977.0
1002.0
1025.0
1040.0
1049.0
1055.0
1054.0
1049.0
1035.0
1008.0
979.0
949.0
924.0
902.0
877.0
848.0
822.0
793.0
772.0
760.0
755.0
760.0
770.0
780.0
792.0
799.0
807.0
808.0
809.0
818.0
825.0
838.0
849.0
860.0
870.0
877.0
883.0
889.0
893.0
897.0
902.0
902.0
903.0
907.0
909.0
905.0
909.0
909.0
907.0
910.0
908.0
909.0
909.0
908.0
909.0
910.0
912.0
911.0
914.0
915.0
916.0
915.0
913.0
913.0
911.0
911.0
911.0
914.0
916.0
917.0
919.0
919.0
921.0
922.0
920.0
923.0
920.0
925.0
927.0
929.0
933.0
937.0
941.0
946.0
948.0
952.0
956.0
960.0
963.0
969.0
975.0
983.0
988.0
996.0
1003.0
1009.0
1011.0
1011.0
1015.0
1021.0
1025.0
1027.0
1029.0
1033.0
1035.0
1039.0
1043.0
1043.0
1042.0
1041.0
1041.0
1036.0
1033.0
1032.0
1027.0
1025.0
1024.0
1021.0
1019.0
1018.0
1014.0
1010.0
1004.0
1000.0
994.0
990.0
985.0
983.0
981.0
978.0
977.0
973.0
970.0
967.0
965.0
962.0
958.0
956.0
951.0
952.0
951.0
953.0
951.0
949.0
949.0
949.0
945.0
942.0
941.0
942.0
940.0
941.0
942.0
941.0
943.0
941.0
940.0
940.0
941.0
936.0
936.0
932.0
934.0
936.0
938.0
939.0
941.0
941.0
943.0
941.0
940.0
939.0
935.0
937.0
938.0
934.0
935.0
938.0
940.0
941.0
938.0
938.0
937.0
936.0
937.0
936.0
936.0
936.0
937.0
939.0
940.0
940.0
939.0
938.0
936.0
936.0
932.0
934.0
934.0
935.0
936.0
935.0
936.0
937.0
935.0
936.0
935.0
933.0
933.0
932.0
933.0
933.0
934.0
934.0
936.0
937.0
936.0
935.0
935.0
933.0
932.0
932.0
933.0
934.0
935.0
937.0
937.0
938.0
935.0
936.0
935.0
935.0
934.0
932.0
933.0
933.0
935.0
933.0
935.0
938.0
937.0
936.0
936.0
934.0
934.0
934.0
932.0
934.0
938.0
940.0
943.0
945.0
944.0
943.0
943.0
942.0
944.0
943.0
945.0
946.0
948.0
949.0
954.0
960.0
959.0
960.0
961.0
960.0
961.0
960.0
962.0
960.0
960.0
960.0
959.0
956.0
953.0
951.0
946.0
943.0
941.0
938.0
936.0
936.0
933.0
932.0
930.0
928.0
928.0
925.0
925.0
925.0
926.0
925.0
925.0
925.0
926.0
928.0
932.0
931.0
929.0
932.0
930.0
934.0
934.0
936.0
941.0
948.0
958.0
971.0
989.0
1009.0
1033.0
1058.0
1092.0
1125.0
1159.0
1194.0
1226.0
1256.0
1289.0
1315.0
1323.0
1298.0
1242.0
1159.0
1066.0
981.0
919.0
886.0
869.0
871.0
883.0
894.0
904.0
909.0
908.0
907.0
906.0
903.0
899.0
899.0
897.0
897.0
897.0
899.0
900.0
901.0
899.0
899.0
897.0
894.0
894.0
892.0
891.0
890.0
892.0
892.0
892.0
894.0
893.0
892.0
888.0
888.0
885.0
883.0
884.0
884.0
883.0
883.0
883.0
884.0
880.0
879.0
877.0
877.0
874.0
874.0
873.0
871.0
871.0
873.0
873.0
874.0
871.0
870.0
868.0
865.0
861.0
860.0
860.0
861.0
861.0
858.0
860.0
860.0
859.0
861.0
857.0
856.0
858.0
858.0
859.0
859.0
861.0
864.0
866.0
866.0
865.0
867.0
868.0
870.0
869.0
873.0
877.0
877.0
884.0
887.0
891.0
894.0
898.0
899.0
900.0
902.0
904.0
902.0
906.0
911.0
911.0
912.0
917.0
918.0
919.0
919.0
919.0
918.0
916.0
917.0
918.0
919.0
921.0
923.0
925.0
924.0
925.0
924.0
924.0
922.0
917.0
918.0
913.0
917.0
919.0
921.0
920.0
922.0
921.0
920.0
917.0
913.0
915.0
913.0
915.0
915.0
915.0
916.0
917.0
914.0
913.0
911.0
910.0
907.0
909.0
907.0
908.0
907.0
908.0
909.0
911.0
914.0
914.0
913.0
913.0
911.0
910.0
906.0
907.0
907.0
912.0
923.0
936.0
955.0
976.0
1001.0
1021.0
1039.0
1053.0
1062.0
1067.0
1069.0
1067.0
1058.0
1044.0
1027.0
1005.0
986.0
965.0
951.0
941.0
924.0
905.0
884.0
860.0
839.0
817.0
802.0
791.0
787.0
786.0
789.0
795.0
799.0
808.0
811.0
815.0
816.0
816.0
818.0
824.0
832.0
835.0
841.0
847.0
853.0
858.0
865.0
874.0
881.0
890.0
895.0
898.0
897.0
899.0
898.0
897.0
896.0
896.0
895.0
899.0
898.0
900.0
899.0
901.0
899.0
897.0
897.0
896.0
895.0
896.0
895.0
899.0
899.0
901.0
903.0
901.0
902.0
899.0
897.0
895.0
895.0
898.0
896.0
898.0
903.0
908.0
908.0
909.0
910.0
910.0
913.0
912.0
916.0
918.0
922.0
924.0
928.0
934.0
941.0
942.0
947.0
951.0
953.0
957.0
960.0
970.0
977.0
985.0
990.0
996.0
1002.0
1004.0
1008.0
1010.0
1010.0
1012.0
1012.0
1012.0
1014.0
1014.0
1017.0
1016.0
1013.0
1012.0
1010.0
1004.0
1002.0
997.0
993.0
990.0
986.0
986.0
983.0
983.0
976.0
971.0
967.0
964.0
959.0
956.0
951.0
949.0
947.0
946.0
944.0
943.0
940.0
940.0
935.0
933.0
930.0
928.0
927.0
927.0
927.0
929.0
927.0
929.0
929.0
928.0
929.0
925.0
924.0
922.0
922.0
921.0
922.0
923.0
923.0
927.0
928.0
927.0
926.0
925.0
923.0
923.0
923.0
920.0
919.0
924.0
927.0
929.0
929.0
928.0
927.0
926.0
925.0
923.0
924.0
923.0
924.0
926.0
925.0
924.0
926.0
926.0
925.0
924.0
923.0
920.0
919.0
918.0
918.0
920.0
924.0
925.0
922.0
923.0
925.0
921.0
921.0
920.0
919.0
919.0
920.0
921.0
921.0
924.0
924.0
922.0
922.0
919.0
918.0
916.0
916.0
918.0
917.0
919.0
920.0
922.0
922.0
922.0
922.0
920.0
918.0
918.0
918.0
918.0
920.0
921.0
921.0
921.0
924.0
922.0
923.0
924.0
921.0
919.0
918.0
921.0
920.0
922.0
923.0
926.0
925.0
930.0
929.0
928.0
928.0
927.0
928.0
926.0
930.0
932.0
931.0
933.0
935.0
937.0
938.0
937.0
940.0
939.0
942.0
942.0
944.0
946.0
948.0
954.0
954.0
953.0
950.0
944.0
943.0
939.0
937.0
935.0
934.0
930.0
931.0
931.0
927.0
924.0
920.0
918.0
913.0
909.0
907.0
908.0
909.0
910.0
912.0
915.0
914.0
913.0
913.0
913.0
913.0
913.0
913.0
912.0
913.0
917.0
919.0
923.0
926.0
929.0
933.0
936.0
941.0
950.0
960.0
975.0
992.0
1013.0
1037.0
1062.0
1089.0
1119.0
1147.0
1172.0
1195.0
