# Simple Text Format
# Sampling Rate (Hz):= 360.00
# Resolution:= 12
# Labels:= ECG
854.0
863.0
874.0
877.0
883.0
886.0
889.0
893.0
895.0
897.0
902.0
903.0
905.0
904.0
905.0
899.0
896.0
895.0
891.0
891.0
890.0
891.0
891.0
893.0
896.0
895.0
897.0
899.0
898.0
896.0
894.0
893.0
890.0
889.0
892.0
891.0
891.0
893.0
895.0
892.0
895.0
894.0
893.0
890.0
890.0
890.0
892.0
895.0
898.0
902.0
904.0
907.0
908.0
911.0
914.0
918.0
920.0
927.0
930.0
937.0
943.0
950.0
954.0
959.0
968.0
970.0
973.0
975.0
980.0
983.0
987.0
994.0
997.0
1001.0
1003.0
1005.0
1006.0
1007.0
1008.0
1008.0
1006.0
1006.0
1005.0
1004.0
1004.0
1002.0
1002.0
1000.0
997.0
994.0
991.0
988.0
982.0
982.0
978.0
974.0
973.0
970.0
967.0
962.0
963.0
958.0
956.0
951.0
949.0
946.0
945.0
944.0
943.0
943.0
941.0
940.0
938.0
936.0
934.0
929.0
926.0
925.0
926.0
925.0
925.0
928.0
930.0
929.0
930.0
928.0
924.0
922.0
922.0
923.0
921.0
922.0
926.0
926.0
928.0
928.0
926.0
926.0
923.0
924.0
922.0
922.0
921.0
922.0
923.0
922.0
922.0
925.0
923.0
921.0
920.0
919.0
918.0
917.0
917.0
921.0
922.0
921.0
921.0
924.0
920.0
918.0
918.0
914.0
916.0
918.0
916.0
916.0
920.0
922.0
923.0
923.0
922.0
921.0
921.0
915.0
912.0
912.0
913.0
915.0
916.0
917.0
920.0
922.0
920.0
919.0
914.0
916.0
914.0
914.0
915.0
917.0
917.0
918.0
920.0
921.0
920.0
920.0
916.0
914.0
913.0
915.0
911.0
915.0
916.0
919.0
921.0
920.0
919.0
915.0
916.0
915.0
914.0
915.0
914.0
915.0
917.0
917.0
920.0
920.0
920.0
918.0
917.0
917.0
915.0
917.0
917.0
921.0
919.0
921.0
921.0
921.0
923.0
922.0
923.0
923.0
922.0
924.0
924.0
925.0
929.0
929.0
930.0
931.0
934.0
930.0
931.0
929.0
933.0
931.0
932.0
939.0
942.0
947.0
950.0
950.0
952.0
950.0
949.0
947.0
946.0
944.0
943.0
941.0
940.0
939.0
937.0
933.0
929.0
925.0
921.0
918.0
913.0
912.0
910.0
906.0
908.0
910.0
911.0
912.0
912.0
913.0
912.0
912.0
912.0
914.0
913.0
918.0
920.0
918.0
923.0
926.0
930.0
933.0
943.0
953.0
970.0
991.0
1017.0
1047.0
1080.0
1118.0
1155.0
1187.0
1212.0
1232.0
1250.0
1273.0
1295.0
1304.0
1286.0
1239.0
1165.0
1077.0
992.0
922.0
873.0
853.0
850.0
856.0
868.0
878.0
884.0
881.0
885.0
889.0
890.0
889.0
891.0
885.0
883.0
885.0
884.0
883.0
882.0
885.0
884.0
887.0
884.0
883.0
882.0
884.0
882.0
880.0
880.0
879.0
874.0
879.0
877.0
876.0
879.0
878.0
876.0
875.0
874.0
871.0
870.0
870.0
871.0
872.0
871.0
872.0
871.0
870.0
867.0
866.0
864.0
861.0
859.0
858.0
858.0
859.0
857.0
857.0
858.0
854.0
853.0
853.0
852.0
850.0
848.0
850.0
850.0
848.0
850.0
849.0
851.0
851.0
851.0
846.0
845.0
847.0
847.0
848.0
848.0
850.0
853.0
855.0
857.0
856.0
859.0
858.0
858.0
859.0
859.0
861.0
865.0
870.0
871.0
875.0
880.0
883.0
886.0
891.0
890.0
894.0
895.0
896.0
900.0
902.0
904.0
907.0
909.0
910.0
914.0
912.0
911.0
908.0
910.0
911.0
908.0
911.0
912.0
914.0
912.0
912.0
909.0
911.0
908.0
907.0
909.0
908.0
908.0
909.0
909.0
909.0
909.0
909.0
909.0
909.0
906.0
902.0
903.0
902.0
904.0
905.0
904.0
908.0
908.0
909.0
909.0
910.0
908.0
907.0
903.0
899.0
895.0
892.0
891.0
892.0
901.0
910.0
927.0
945.0
969.0
997.0
1020.0
1035.0
1043.0
1046.0
1044.0
1031.0
1005.0
973.0
937.0
908.0
885.0
864.0
843.0
819.0
791.0
767.0
745.0
736.0
736.0
744.0
757.0
771.0
783.0
791.0
797.0
806.0
811.0
821.0
832.0
840.0
851.0
861.0
868.0
875.0
882.0
884.0
891.0
895.0
903.0
909.0
911.0
915.0
915.0
912.0
906.0
900.0
900.0
895.0
895.0
898.0
899.0
900.0
902.0
903.0
905.0
905.0
904.0
903.0
901.0
897.0
899.0
901.0
901.0
902.0
902.0
902.0
907.0
905.0
907.0
906.0
908.0
906.0
907.0
908.0
909.0
914.0
917.0
921.0
926.0
930.0
934.0
936.0
938.0
945.0
948.0
953.0
960.0
967.0
975.0
980.0
986.0
991.0
994.0
1000.0
1004.0
1007.0
1013.0
1017.0
1019.0
1024.0
1028.0
1029.0
1029.0
1028.0
1027.0
1026.0
1026.0
1022.0
1018.0
1013.0
1013.0
1011.0
1010.0
1009.0
1003.0
998.0
993.0
988.0
985.0
978.0
974.0
973.0
970.0
967.0
966.0
962.0
961.0
958.0
957.0
952.0
948.0
947.0
946.0
945.0
942.0
945.0
941.0
941.0
940.0
940.0
936.0
934.0
933.0
931.0
929.0
927.0
929.0
930.0
929.0
930.0
929.0
928.0
929.0
927.0
927.0
924.0
922.0
926.0
924.0
925.0
928.0
927.0
930.0
931.0
929.0
930.0
927.0
924.0
923.0
923.0
922.0
923.0
921.0
924.0
924.0
924.0
924.0
925.0
925.0
922.0
919.0
919.0
921.0
920.0
921.0
923.0
923.0
919.0
920.0
921.0
918.0
917.0
918.0
918.0
919.0
918.0
919.0
917.0
922.0
922.0
922.0
923.0
920.0
919.0
917.0
918.0
917.0
918.0
922.0
923.0
923.0
924.0
924.0
922.0
919.0
920.0
919.0
919.0
919.0
921.0
922.0
922.0
924.0
924.0
921.0
923.0
920.0
918.0
917.0
918.0
920.0
922.0
923.0
923.0
922.0
923.0
919.0
920.0
922.0
920.0
919.0
919.0
919.0
920.0
921.0
922.0
922.0
924.0
924.0
923.0
925.0
924.0
924.0
924.0
924.0
928.0
929.0
932.0
934.0
936.0
932.0
932.0
929.0
933.0
934.0
938.0
940.0
942.0
944.0
949.0
952.0
954.0
953.0
953.0
949.0
950.0
948.0
948.0
946.0
943.0
942.0
941.0
942.0
938.0
935.0
932.0
928.0
926.0
924.0
918.0
918.0
917.0
915.0
914.0
914.0
913.0
917.0
915.0
912.0
911.0
911.0
911.0
912.0
916.0
916.0
920.0
922.0
922.0
923.0
925.0
928.0
929.0
934.0
944.0
956.0
972.0
991.0
1015.0
1038.0
1066.0
1099.0
1134.0
1165.0
1193.0
1213.0
1233.0
1253.0
1279.0
1302.0
1308.0
1285.0
1232.0
1150.0
1062.0
977.0
910.0
870.0
855.0
855.0
866.0
879.0
886.0
892.0
895.0
892.0
892.0
893.0
887.0
887.0
886.0
886.0
886.0
886.0
884.0
887.0
886.0
888.0
886.0
884.0
881.0
881.0
880.0
880.0
880.0
882.0
883.0
883.0
881.0
881.0
877.0
876.0
873.0
871.0
870.0
871.0
870.0
875.0
873.0
872.0
872.0
870.0
870.0
868.0
867.0
862.0
863.0
861.0
861.0
863.0
863.0
865.0
861.0
860.0
859.0
856.0
854.0
852.0
852.0
848.0
851.0
851.0
850.0
850.0
851.0
851.0
847.0
848.0
844.0
841.0
840.0
842.0
842.0
846.0
847.0
849.0
847.0
850.0
849.0
848.0
847.0
844.0
847.0
844.0
847.0
850.0
852.0
858.0
860.0
861.0
863.0
864.0
866.0
868.0
871.0
873.0
876.0
882.0
883.0
888.0
892.0
893.0
894.0
895.0
898.0
900.0
902.0
902.0
905.0
903.0
905.0
907.0
908.0
908.0
909.0
908.0
906.0
906.0
907.0
906.0
907.0
908.0
910.0
912.0
913.0
910.0
911.0
907.0
906.0
904.0
904.0
905.0
904.0
904.0
903.0
905.0
904.0
904.0
903.0
901.0
899.0
897.0
900.0
898.0
902.0
902.0
902.0
903.0
902.0
905.0
904.0
905.0
903.0
902.0
900.0
897.0
895.0
894.0
894.0
896.0
902.0
909.0
922.0
943.0
965.0
992.0
1016.0
1033.0
1050.0
1058.0
1064.0
1060.0
1045.0
1019.0
989.0
961.0
936.0
915.0
892.0
866.0
843.0
817.0
797.0
782.0
773.0
770.0
774.0
781.0
789.0
802.0
811.0
821.0
825.0
830.0
834.0
839.0
845.0
853.0
859.0
867.0
871.0
876.0
879.0
883.0
886.0
891.0
896.0
901.0
902.0
902.0
898.0
896.0
894.0
893.0
890.0
891.0
891.0
896.0
896.0
899.0
898.0
897.0
896.0
897.0
896.0
894.0
894.0
893.0
896.0
895.0
895.0
896.0
896.0
895.0
896.0
896.0
894.0
894.0
894.0
892.0
894.0
895.0
898.0
898.0
898.0
901.0
903.0
902.0
903.0
904.0
906.0
910.0
916.0
920.0
925.0
929.0
935.0
938.0
942.0
945.0
949.0
953.0
956.0
963.0
969.0
975.0
983.0
989.0
994.0
997.0
999.0
1002.0
1002.0
1003.0
1005.0
1006.0
1010.0
1013.0
1014.0
1014.0
1012.0
1010.0
1008.0
1005.0
1001.0
997.0
995.0
993.0
995.0
990.0
987.0
987.0
982.0
979.0
974.0
971.0
967.0
962.0
961.0
956.0
955.0
956.0
952.0
950.0
947.0
946.0
945.0
940.0
938.0
936.0
933.0
932.0
932.0
932.0
931.0
934.0
933.0
932.0
931.0
929.0
927.0
926.0
925.0
923.0
924.0
927.0
927.0
929.0
929.0
928.0
926.0
927.0
925.0
925.0
925.0
924.0
923.0
922.0
927.0
928.0
930.0
928.0
927.0
925.0
922.0
922.0
920.0
922.0
922.0
920.0
924.0
924.0
926.0
923.0
923.0
922.0
921.0
917.0
917.0
917.0
918.0
920.0
922.0
924.0
924.0
924.0
923.0
923.0
923.0
917.0
917.0
918.0
919.0
919.0
920.0
921.0
921.0
920.0
922.0
921.0
919.0
917.0
918.0
918.0
921.0
920.0
920.0
922.0
921.0
921.0
921.0
919.0
919.0
919.0
919.0
917.0
918.0
917.0
918.0
923.0
920.0
922.0
921.0
920.0
920.0
918.0
918.0
919.0
921.0
921.0
923.0
925.0
926.0
925.0
924.0
922.0
921.0
921.0
920.0
922.0
923.0
924.0
927.0
930.0
929.0
930.0
930.0
933.0
933.0
932.0
933.0
933.0
932.0
932.0
934.0
937.0
938.0
936.0
938.0
939.0
939.0
939.0
941.0
943.0
947.0
948.0
951.0
953.0
957.0
956.0
953.0
953.0
950.0
948.0
946.0
942.0
941.0
940.0
939.0
938.0
939.0
933.0
931.0
926.0
925.0
919.0
915.0
914.0
913.0
914.0
915.0
917.0
919.0
919.0
920.0
919.0
916.0
916.0
916.0
918.0
921.0
923.0
924.0
927.0
932.0
934.0
939.0
947.0
957.0
972.0
991.0
1015.0
1042.0
1074.0
1109.0
1144.0
1177.0
1203.0
1224.0
1242.0
1261.0
1283.0
1302.0
1302.0
1275.0
1221.0
1143.0
1058.0
979.0
916.0
875.0
860.0
859.0
865.0
871.0
882.0
886.0
891.0
895.0
898.0
897.0
894.0
895.0
891.0
890.0
888.0
886.0
887.0
888.0
886.0
888.0
889.0
889.0
888.0
888.0
887.0
884.0
884.0
883.0
880.0
883.0
886.0
884.0
886.0
888.0
886.0
882.0
879.0
876.0
876.0
877.0
873.0
876.0
876.0
874.0
876.0
874.0
874.0
873.0
873.0
871.0
869.0
867.0
868.0
868.0
865.0
867.0
866.0
865.0
863.0
861.0
861.0
859.0
856.0
856.0
854.0
852.0
852.0
854.0
856.0
855.0
854.0
857.0
853.0
853.0
850.0
849.0
850.0
852.0
853.0
856.0
857.0
859.0
857.0
860.0
860.0
859.0
857.0
860.0
861.0
866.0
869.0
872.0
877.0
880.0
884.0
883.0
887.0
887.0
888.0
890.0
895.0
897.0
901.0
905.0
909.0
910.0
912.0
911.0
912.0
911.0
911.0
910.0
911.0
915.0
915.0
918.0
920.0
919.0
919.0
919.0
916.0
912.0
913.0
911.0
911.0
911.0
912.0
912.0
913.0
914.0
912.0
914.0
911.0
910.0
908.0
906.0
905.0
906.0
908.0
909.0
907.0
908.0
911.0
910.0
911.0
911.0
910.0
910.0
910.0
907.0
909.0
905.0
902.0
898.0
895.0
895.0
898.0
909.0
925.0
949.0
976.0
1003.0
1026.0
1044.0
1055.0
1061.0
1056.0
1042.0
1019.0
989.0
956.0
927.0
903.0
885.0
869.0
850.0
827.0
802.0
775.0
752.0
738.0
734.0
735.0
743.0
752.0
765.0
776.0
788.0
796.0
803.0
809.0
820.0
831.0
843.0
854.0
865.0
873.0
884.0
893.0
903.0
911.0
916.0
919.0
920.0
917.0
912.0
909.0
903.0
901.0
899.0
900.0
903.0
905.0
907.0
907.0
903.0
905.0
905.0
904.0
902.0
903.0
902.0
903.0
904.0
909.0
908.0
911.0
911.0
911.0
910.0
910.0
912.0
915.0
915.0
921.0
926.0
930.0
935.0
939.0
941.0
948.0
951.0
954.0
959.0
964.0
969.0
975.0
981.0
990.0
994.0
999.0
1002.0
1009.0
1012.0
1015.0
1018.0
1020.0
1021.0
1024.0
1026.0
1029.0
1029.0
1028.0
1028.0
1024.0
1022.0
1020.0
1017.0
1012.0
1010.0
1007.0
1006.0
1002.0
999.0
994.0
989.0
987.0
980.0
975.0
971.0
970.0
967.0
965.0
962.0
960.0
958.0
955.0
953.0
950.0
948.0
944.0
941.0
940.0
941.0
939.0
940.0
940.0
939.0
939.0
936.0
936.0
935.0
934.0
933.0
932.0
933.0
934.0
936.0
934.0
934.0
936.0
932.0
933.0
929.0
930.0
929.0
929.0
927.0
931.0
931.0
930.0
932.0
929.0
929.0
929.0
931.0
930.0
928.0
929.0
929.0
930.0
929.0
932.0
931.0
931.0
930.0
929.0
925.0
923.0
922.0
924.0
926.0
927.0
927.0
927.0
929.0
928.0
928.0
928.0
926.0
926.0
923.0
925.0
922.0
923.0
923.0
925.0
923.0
922.0
926.0
925.0
924.0
922.0
920.0
922.0
922.0
922.0
923.0
923.0
923.0
926.0
924.0
923.0
923.0
922.0
921.0
921.0
921.0
924.0
925.0
926.0
924.0
926.0
922.0
920.0
922.0
919.0
919.0
920.0
923.0
924.0
926.0
925.0
926.0
926.0
926.0
923.0
923.0
922.0
922.0
922.0
921.0
920.0
920.0
925.0
926.0
927.0
924.0
925.0
922.0
920.0
921.0
920.0
921.0
925.0
926.0
931.0
930.0
931.0
934.0
931.0
929.0
930.0
931.0
930.0
934.0
935.0
936.0
937.0
940.0
941.0
945.0
943.0
944.0
947.0
948.0
951.0
951.0
954.0
954.0
954.0
953.0
953.0
950.0
946.0
944.0
941.0
938.0
937.0
933.0
933.0
932.0
933.0
931.0
927.0
922.0
917.0
917.0
910.0
909.0
912.0
915.0
917.0
919.0
919.0
921.0
919.0
918.0
917.0
918.0
917.0
920.0
921.0
924.0
926.0
931.0
937.0
944.0
951.0
967.0
979.0
996.0
1018.0
1046.0
1079.0
1120.0
1158.0
1195.0
1222.0
1246.0
1271.0
1297.0
1318.0
1322.0
1295.0
1238.0
1164.0
1078.0
996.0
931.0
891.0
870.0
865.0
869.0
876.0
881.0
883.0
887.0
890.0
891.0
891.0
894.0
893.0
894.0
894.0
889.0
888.0
887.0
883.0
883.0
882.0
885.0
888.0
885.0
886.0
888.0
887.0
886.0
886.0
885.0
880.0
882.0
880.0
880.0
882.0
883.0
883.0
880.0
879.0
879.0
878.0
875.0
871.0
871.0
870.0
872.0
871.0
873.0
872.0
873.0
871.0
869.0
868.0
865.0
866.0
863.0
862.0
860.0
862.0
859.0
860.0
861.0
859.0
858.0
855.0
853.0
850.0
850.0
851.0
849.0
849.0
850.0
849.0
849.0
847.0
847.0
845.0
846.0
844.0
843.0
844.0
846.0
847.0
847.0
849.0
852.0
852.0
851.0
851.0
852.0
853.0
853.0
854.0
858.0
860.0
861.0
869.0
873.0
872.0
874.0
876.0
879.0
880.0
881.0
883.0
887.0
889.0
892.0
896.0
900.0
903.0
902.0
902.0
903.0
903.0
902.0
904.0
905.0
907.0
907.0
911.0
912.0
911.0
912.0
910.0
910.0
909.0
908.0
908.0
908.0
910.0
910.0
910.0
911.0
910.0
910.0
907.0
907.0
904.0
903.0
903.0
905.0
904.0
905.0
906.0
906.0
905.0
905.0
904.0
903.0
902.0
902.0
903.0
906.0
906.0
907.0
909.0
906.0
903.0
898.0
896.0
895.0
894.0
900.0
913.0
933.0
959.0
988.0
1015.0
1036.0
1049.0
1061.0
1063.0
1058.0
1044.0
1023.0
995.0
967.0
943.0
921.0
903.0
882.0
856.0
826.0
797.0
774.0
758.0
757.0
760.0
774.0
788.0
802.0
816.0
826.0
828.0
831.0
835.0
843.0
846.0
854.0
864.0
871.0
879.0
887.0
894.0
899.0
902.0
902.0
903.0
896.0
892.0
893.0
891.0
892.0
891.0
894.0
896.0
899.0
900.0
900.0
895.0
890.0
887.0
892.0
889.0
891.0
891.0
893.0
892.0
897.0
896.0
898.0
896.0
896.0
891.0
893.0
896.0
899.0
899.0
903.0
905.0
908.0
907.0
911.0
914.0
917.0
919.0
923.0
925.0
931.0
937.0
944.0
949.0
957.0
961.0
966.0
969.0
974.0
978.0
982.0
984.0
990.0
996.0
999.0
1004.0
1007.0
1010.0
1011.0
1012.0
1010.0
1009.0
1010.0
1009.0
1010.0
1011.0
1010.0
1010.0
1006.0
1003.0
1000.0
996.0
991.0
983.0
980.0
979.0
977.0
975.0
971.0
968.0
964.0
959.0
957.0
953.0
952.0
947.0
943.0
940.0
937.0
935.0
933.0
934.0
936.0
936.0
932.0
928.0
929.0
924.0
921.0
920.0
923.0
924.0
926.0
926.0
927.0
925.0
923.0
924.0
921.0
921.0
921.0
920.0
917.0
921.0
924.0
925.0
925.0
924.0
923.0
921.0
923.0
923.0
919.0
919.0
919.0
920.0
922.0
924.0
924.0
922.0
922.0
919.0
915.0
915.0
916.0
916.0
916.0
914.0
918.0
915.0
918.0
919.0
918.0
918.0
916.0
913.0
913.0
911.0
915.0
914.0
913.0
913.0
917.0
916.0
917.0
914.0
914.0
912.0
914.0
914.0
914.0
913.0
912.0
911.0
915.0
918.0
917.0
914.0
914.0
912.0
912.0
909.0
908.0
912.0
914.0
916.0
915.0
916.0
915.0
914.0
913.0
913.0
912.0
911.0
912.0
911.0
914.0
915.0
916.0
915.0
915.0
914.0
913.0
911.0
911.0
911.0
912.0
913.0
915.0
914.0
915.0
915.0
914.0
914.0
916.0
913.0
911.0
912.0
913.0
911.0
915.0
915.0
915.0
916.0
916.0
916.0
917.0
914.0
914.0
914.0
917.0
918.0
918.0
923.0
924.0
924.0
924.0
925.0
925.0
924.0
921.0
926.0
930.0
931.0
936.0
937.0
941.0
941.0
943.0
944.0
941.0
940.0
939.0
939.0
939.0
938.0
937.0
936.0
935.0
931.0
929.0
926.0
922.0
919.0
916.0
914.0
909.0
908.0
906.0
905.0
907.0
905.0
905.0
901.0
900.0
903.0
903.0
903.0
906.0
908.0
909.0
909.0
912.0
911.0
912.0
912.0
915.0
916.0
919.0
924.0
930.0
940.0
958.0
979.0
997.0
1025.0
1053.0
1089.0
1128.0
1160.0
1191.0
1221.0
1249.0
1281.0
1305.0
1307.0
1278.0
1211.0
1125.0
1033.0
948.0
886.0
854.0
843.0
849.0
864.0
872.0
880.0
885.0
884.0
886.0
885.0
885.0
882.0
880.0
879.0
879.0
881.0
882.0
881.0
882.0
881.0
879.0
878.0
877.0
875.0
873.0
874.0
875.0
875.0
877.0
877.0
878.0
877.0
877.0
876.0
872.0
872.0
870.0
868.0
868.0
871.0
872.0
872.0
872.0
872.0
871.0
868.0
866.0
864.0
864.0
863.0
862.0
862.0
863.0
864.0
863.0
862.0
861.0
857.0
857.0
855.0
852.0
850.0
846.0
849.0
848.0
848.0
850.0
849.0
848.0
848.0
849.0
845.0
844.0
845.0
844.0
847.0
847.0
850.0
853.0
852.0
852.0
850.0
852.0
851.0
852.0
856.0
858.0
860.0
865.0
867.0
874.0
872.0
877.0
877.0
879.0
881.0
878.0
883.0
888.0
892.0
896.0
897.0
901.0
900.0
903.0
903.0
903.0
903.0
904.0
906.0
909.0
914.0
916.0
917.0
918.0
917.0
915.0
914.0
911.0
910.0
911.0
913.0
911.0
913.0
913.0
916.0
915.0
915.0
917.0
913.0
913.0
911.0
908.0
908.0
907.0
911.0
911.0
912.0
913.0
913.0
912.0
910.0
908.0
906.0
905.0
905.0
904.0
905.0
911.0
911.0
913.0
912.0
913.0
909.0
907.0
901.0
899.0
897.0
896.0
900.0
910.0
923.0
944.0
969.0
993.0
1014.0
1031.0
1043.0
1052.0
1055.0
1057.0
1050.0
1038.0
1020.0
998.0
971.0
947.0
927.0
911.0
892.0
874.0
855.0
831.0
811.0
790.0
776.0
768.0
767.0
772.0
779.0
788.0
798.0
805.0
812.0
817.0
821.0
823.0
827.0
835.0
838.0
843.0
850.0
855.0
861.0
867.0
873.0
881.0
889.0
893.0
900.0
904.0
906.0
906.0
905.0
903.0
901.0
901.0
902.0
901.0
904.0
905.0
907.0
906.0
907.0
907.0
907.0
905.0
904.0
901.0
903.0
903.0
905.0
906.0
907.0
907.0
906.0
906.0
908.0
906.0
906.0
906.0
904.0
905.0
907.0
910.0
911.0
915.0
915.0
916.0
917.0
919.0
917.0
920.0
925.0
928.0
930.0
935.0
940.0
946.0
950.0
952.0
957.0
958.0
964.0
970.0
972.0
976.0
984.0
989.0
994.0
1002.0
1005.0
1010.0
1013.0
1014.0
1018.0
1019.0
1022.0
1025.0
1028.0
1028.0
1031.0
1029.0
1030.0
1028.0
1023.0
1019.0
1017.0
1010.0
1008.0
1004.0
1002.0
1000.0
996.0
994.0
992.0
988.0
982.0
975.0
972.0
967.0
965.0
961.0
959.0
956.0
956.0
952.0
950.0
949.0
946.0
944.0
944.0
940.0
937.0
937.0
939.0
937.0
938.0
941.0
939.0
938.0
936.0
934.0
931.0
930.0
929.0
929.0
931.0
931.0
933.0
935.0
934.0
930.0
930.0
931.0
930.0
927.0
929.0
930.0
930.0
930.0
932.0
933.0
933.0
932.0
930.0
929.0
927.0
926.0
927.0
928.0
926.0
927.0
927.0
929.0
927.0
928.0
927.0
927.0
925.0
923.0
922.0
923.0
924.0
923.0
926.0
924.0
927.0
927.0
924.0
925.0
923.0
920.0
920.0
918.0
920.0
921.0
922.0
923.0
923.0
922.0
920.0
921.0
920.0
920.0
919.0
920.0
921.0
923.0
921.0
923.0
922.0
923.0
920.0
920.0
916.0
918.0
918.0
918.0
919.0
921.0
923.0
925.0
923.0
923.0
922.0
919.0
918.0
917.0
917.0
916.0
919.0
919.0
921.0
922.0
924.0
923.0
923.0
921.0
919.0
920.0
918.0
921.0
923.0
926.0
925.0
929.0
929.0
930.0
930.0
929.0
926.0
926.0
927.0
930.0
932.0
936.0
939.0
943.0
947.0
947.0
949.0
947.0
946.0
944.0
946.0
944.0
943.0
941.0
942.0
941.0
941.0
941.0
937.0
934.0
929.0
926.0
923.0
924.0
922.0
920.0
919.0
917.0
913.0
912.0
911.0
910.0
911.0
910.0
909.0
911.0
912.0
914.0
913.0
915.0
915.0
917.0
917.0
916.0
916.0
914.0
915.0
917.0
921.0
925.0
934.0
943.0
954.0
964.0
981.0
999.0
1020.0
1046.0
1078.0
1120.0
1155.0
1188.0
1215.0
1238.0
1261.0
1284.0
1297.0
1285.0
1239.0
1167.0
1076.0
989.0
919.0
870.0
850.0
847.0
857.0
868.0
874.0
883.0
883.0
885.0
886.0
887.0
891.0
890.0
889.0
891.0
890.0
888.0
886.0
886.0
885.0
884.0
885.0
880.0
883.0
887.0
885.0
886.0
884.0
882.0
882.0
881.0
880.0
879.0
879.0
878.0
879.0
879.0
880.0
881.0
880.0
881.0
879.0
877.0
874.0
870.0
870.0
869.0
869.0
869.0
869.0
871.0
870.0
869.0
868.0
865.0
864.0
863.0
861.0
860.0
862.0
862.0
862.0
859.0
860.0
859.0
857.0
855.0
852.0
849.0
850.0
850.0
851.0
854.0
853.0
856.0
856.0
854.0
856.0
855.0
854.0
855.0
856.0
857.0
856.0
859.0
862.0
866.0
867.0
871.0
872.0
875.0
876.0
879.0
882.0
884.0
888.0
893.0
896.0
900.0
903.0
905.0
904.0
908.0
908.0
910.0
910.0
911.0
908.0
913.0
914.0
917.0
917.0
918.0
918.0
916.0
917.0
918.0
915.0
915.0
917.0
916.0
917.0
922.0
920.0
919.0
918.0
917.0
914.0
912.0
911.0
913.0
911.0
912.0
912.0
915.0
914.0
913.0
911.0
908.0
907.0
908.0
907.0
908.0
910.0
911.0
912.0
916.0
916.0
914.0
909.0
904.0
897.0
895.0
896.0
901.0
918.0
937.0
968.0
999.0
1029.0
1051.0
1064.0
1067.0
1065.0
1049.0
1024.0
993.0
962.0
936.0
918.0
899.0
881.0
859.0
829.0
798.0
771.0
752.0
743.0
742.0
748.0
759.0
769.0
782.0
791.0
796.0
799.0
801.0
800.0
802.0
809.0
814.0
823.0
835.0
842.0
852.0
860.0
867.0
875.0
879.0
884.0
886.0
892.0
895.0
897.0
900.0
898.0
901.0
899.0
899.0
898.0
900.0
899.0
899.0
899.0
896.0
899.0
898.0
902.0
904.0
904.0
903.0
901.0
901.0
900.0
900.0
899.0
899.0
901.0
904.0
905.0
906.0
908.0
910.0
910.0
912.0
912.0
914.0
916.0
920.0
926.0
930.0
935.0
940.0
944.0
953.0
955.0
959.0
963.0
966.0
972.0
975.0
981.0
988.0
992.0
997.0
1004.0
1006.0
1010.0
1013.0
1016.0
1017.0
1020.0
1022.0
1026.0
1028.0
1027.0
1029.0
1029.0
1028.0
1024.0
1022.0
1019.0
1017.0
1012.0
1008.0
1004.0
1002.0
998.0
998.0
990.0
987.0
983.0
975.0
969.0
965.0
962.0
958.0
956.0
953.0
951.0
952.0
948.0
945.0
943.0
940.0
938.0
936.0
934.0
932.0
932.0
931.0
934.0
934.0
933.0
933.0
930.0
927.0
927.0
926.0
926.0
928.0
926.0
927.0
929.0
928.0
932.0
931.0
929.0
930.0
925.0
927.0
926.0
927.0
929.0
928.0
930.0
932.0
931.0
929.0
930.0
927.0
927.0
924.0
922.0
922.0
922.0
923.0
923.0
925.0
923.0
922.0
920.0
918.0
917.0
920.0
919.0
921.0
919.0
919.0
921.0
923.0
922.0
922.0
920.0
920.0
917.0
915.0
918.0
916.0
918.0
917.0
919.0
920.0
920.0
921.0
920.0
919.0
917.0
916.0
915.0
914.0
913.0
914.0
915.0
917.0
918.0
918.0
916.0
915.0
915.0
915.0
913.0
915.0
915.0
916.0
917.0
919.0
917.0
917.0
916.0
915.0
914.0
912.0
914.0
913.0
914.0
918.0
917.0
915.0
918.0
917.0
918.0
916.0
917.0
916.0
916.0
918.0
920.0
919.0
923.0
924.0
926.0
925.0
925.0
925.0
925.0
926.0
927.0
927.0
928.0
933.0
936.0
941.0
944.0
945.0
944.0
942.0
940.0
939.0
937.0
936.0
934.0
935.0
931.0
931.0
928.0
925.0
921.0
917.0
914.0
909.0
909.0
907.0
904.0
904.0
906.0
907.0
906.0
905.0
907.0
908.0
906.0
904.0
904.0
904.0
905.0
907.0
909.0
909.0
913.0
914.0
915.0
914.0
914.0
917.0
921.0
926.0
934.0
945.0
959.0
974.0
992.0
1005.0
1026.0
1051.0
1079.0
1108.0
1137.0
1164.0
1189.0
1212.0
1233.0
1259.0
1283.0
1297.0
1285.0
1238.0
1164.0
1074.0
985.0
912.0
866.0
847.0
846.0
855.0
866.0
876.0
880.0
881.0
881.0
880.0
878.0
876.0
877.0
876.0
877.0
876.0
877.0
876.0
873.0
871.0
870.0
871.0
872.0
870.0
869.0
871.0
870.0
872.0
872.0
870.0
872.0
870.0
869.0
866.0
866.0
864.0
866.0
867.0
864.0
865.0
867.0
863.0
861.0
862.0
861.0
858.0
857.0
858.0
855.0
856.0
857.0
858.0
857.0
858.0
853.0
852.0
851.0
850.0
847.0
849.0
849.0
849.0
850.0
851.0
849.0
848.0
844.0
843.0
841.0
838.0
838.0
836.0
838.0
838.0
839.0
839.0
844.0
843.0
841.0
842.0
840.0
839.0
840.0
840.0
844.0
844.0
848.0
852.0
853.0
857.0
858.0
859.0
860.0
864.0
865.0
869.0
872.0
878.0
878.0
884.0
886.0
888.0
891.0
890.0
892.0
892.0
894.0
896.0
894.0
896.0
900.0
900.0
905.0
905.0
903.0
903.0
902.0
900.0
900.0
899.0
903.0
903.0
907.0
906.0
907.0
907.0
905.0
903.0
903.0
902.0
902.0
904.0
903.0
903.0
905.0
907.0
906.0
906.0
905.0
903.0
901.0
899.0
898.0
897.0
898.0
899.0
900.0
899.0
900.0
898.0
898.0
895.0
894.0
893.0
894.0
893.0
895.0
897.0
898.0
898.0
900.0
899.0
897.0
890.0
887.0
885.0
889.0
895.0
913.0
936.0
960.0
988.0
1011.0
1029.0
1039.0
1050.0
1057.0
1057.0
1052.0
1042.0
1021.0
999.0
975.0
956.0
938.0
920.0
903.0
883.0
857.0
830.0
808.0
792.0
780.0
776.0
779.0
786.0
795.0
803.0
810.0
812.0
813.0
810.0
811.0
813.0
818.0
825.0
832.0
838.0
843.0
843.0
849.0
854.0
859.0
864.0
871.0
878.0
882.0
887.0
886.0
890.0
891.0
891.0
888.0
888.0
888.0
887.0
886.0
887.0
884.0
887.0
887.0
888.0
890.0
887.0
886.0
886.0
886.0
886.0
884.0
885.0
885.0
887.0
887.0
888.0
890.0
888.0
888.0
892.0
893.0
895.0
896.0
898.0
904.0
909.0
914.0
919.0
922.0
925.0
927.0
931.0
938.0
942.0
947.0
951.0
