# Simple Text Format
# Sampling Rate (Hz):= 360.00
# Resolution:= 12
# Labels:= ECG
1283.0
1307.0
1315.0
1294.0
1244.0
1168.0
1086.0
1006.0
937.0
889.0
863.0
855.0
856.0
863.0
867.0
867.0
874.0
877.0
878.0
879.0
880.0
880.0
876.0
875.0
875.0
872.0
871.0
871.0
872.0
873.0
873.0
876.0
874.0
873.0
874.0
869.0
867.0
867.0
866.0
866.0
868.0
868.0
868.0
870.0
868.0
867.0
866.0
863.0
862.0
861.0
858.0
856.0
855.0
855.0
858.0
860.0
859.0
857.0
855.0
855.0
853.0
847.0
844.0
848.0
847.0
849.0
850.0
850.0
847.0
845.0
843.0
841.0
839.0
838.0
835.0
832.0
833.0
833.0
834.0
838.0
836.0
837.0
834.0
833.0
831.0
831.0
831.0
830.0
833.0
835.0
837.0
838.0
837.0
836.0
837.0
836.0
839.0
841.0
842.0
843.0
847.0
852.0
855.0
861.0
861.0
864.0
867.0
874.0
874.0
878.0
880.0
886.0
890.0
892.0
894.0
897.0
900.0
899.0
901.0
902.0
901.0
903.0
905.0
904.0
905.0
904.0
907.0
910.0
910.0
910.0
909.0
908.0
909.0
907.0
906.0
907.0
906.0
909.0
908.0
910.0
908.0
909.0
908.0
908.0
906.0
904.0
903.0
903.0
901.0
902.0
902.0
901.0
902.0
901.0
903.0
901.0
899.0
898.0
898.0
898.0
894.0
899.0
901.0
902.0
903.0
905.0
901.0
904.0
903.0
900.0
900.0
902.0
902.0
900.0
902.0
902.0
902.0
905.0
910.0
918.0
934.0
957.0
986.0
1010.0
1034.0
1053.0
1066.0
1073.0
1071.0
1061.0
1042.0
1011.0
979.0
953.0
931.0
914.0
894.0
870.0
847.0
823.0
801.0
787.0
779.0
776.0
778.0
785.0
791.0
798.0
802.0
805.0
806.0
805.0
807.0
811.0
815.0
822.0
827.0
831.0
835.0
844.0
854.0
864.0
876.0
885.0
892.0
896.0
900.0
902.0
899.0
899.0
899.0
899.0
902.0
903.0
905.0
908.0
909.0
906.0
906.0
905.0
903.0
901.0
901.0
905.0
903.0
905.0
906.0
905.0
905.0
906.0
908.0
905.0
904.0
905.0
905.0
902.0
908.0
907.0
910.0
913.0
909.0
912.0
913.0
913.0
911.0
914.0
915.0
919.0
925.0
931.0
938.0
943.0
945.0
950.0
955.0
959.0
960.0
965.0
972.0
974.0
980.0
990.0
992.0
1002.0
1003.0
1007.0
1009.0
1014.0
1017.0
1019.0
1020.0
1023.0
1024.0
1025.0
1025.0
1027.0
1027.0
1026.0
1022.0
1019.0
1016.0
1010.0
1008.0
1007.0
1008.0
1006.0
1004.0
999.0
995.0
992.0
985.0
982.0
977.0
975.0
968.0
967.0
963.0
960.0
960.0
961.0
957.0
954.0
950.0
947.0
945.0
942.0
941.0
940.0
940.0
940.0
941.0
939.0
940.0
937.0
937.0
932.0
931.0
929.0
931.0
930.0
933.0
933.0
935.0
935.0
938.0
934.0
934.0
934.0
931.0
931.0
932.0
932.0
933.0
934.0
932.0
936.0
933.0
935.0
934.0
933.0
931.0
931.0
929.0
928.0
928.0
931.0
932.0
932.0
930.0
929.0
929.0
929.0
927.0
927.0
927.0
927.0
927.0
929.0
929.0
930.0
930.0
930.0
929.0
927.0
926.0
924.0
925.0
926.0
927.0
928.0
931.0
929.0
931.0
930.0
927.0
926.0
924.0
924.0
924.0
922.0
926.0
927.0
929.0
929.0
930.0
930.0
930.0
927.0
925.0
924.0
923.0
925.0
925.0
927.0
929.0
929.0
929.0
927.0
926.0
926.0
924.0
923.0
925.0
929.0
925.0
927.0
929.0
929.0
930.0
931.0
933.0
931.0
933.0
930.0
930.0
931.0
933.0
933.0
936.0
938.0
937.0
938.0
939.0
940.0
939.0
941.0
943.0
946.0
947.0
953.0
956.0
958.0
957.0
955.0
951.0
951.0
947.0
946.0
944.0
940.0
941.0
936.0
936.0
934.0
932.0
930.0
927.0
923.0
917.0
915.0
913.0
914.0
914.0
918.0
918.0
921.0
922.0
922.0
923.0
922.0
922.0
920.0
919.0
920.0
923.0
925.0
928.0
932.0
937.0
942.0
949.0
961.0
977.0
993.0
1016.0
1042.0
1075.0
1113.0
1153.0
1186.0
1213.0
1232.0
1253.0
1276.0
1303.0
1319.0
1312.0
1272.0
1199.0
1112.0
1022.0
944.0
890.0
860.0
856.0
861.0
873.0
884.0
895.0
898.0
902.0
903.0
902.0
901.0
903.0
901.0
899.0
897.0
895.0
894.0
894.0
894.0
893.0
894.0
894.0
893.0
894.0
893.0
893.0
890.0
889.0
887.0
889.0
887.0
887.0
888.0
889.0
891.0
892.0
890.0
886.0
884.0
882.0
879.0
876.0
876.0
877.0
878.0
878.0
883.0
879.0
876.0
874.0
870.0
868.0
868.0
866.0
867.0
867.0
866.0
866.0
865.0
865.0
862.0
859.0
859.0
857.0
856.0
855.0
854.0
856.0
855.0
857.0
858.0
858.0
858.0
860.0
858.0
860.0
858.0
859.0
863.0
863.0
867.0
872.0
875.0
879.0
882.0
885.0
885.0
888.0
892.0
895.0
897.0
904.0
908.0
913.0
917.0
920.0
922.0
921.0
923.0
924.0
921.0
922.0
926.0
925.0
928.0
927.0
929.0
927.0
929.0
928.0
926.0
924.0
925.0
921.0
923.0
926.0
927.0
927.0
926.0
927.0
923.0
923.0
923.0
922.0
919.0
920.0
916.0
916.0
918.0
918.0
920.0
920.0
919.0
918.0
913.0
915.0
917.0
916.0
919.0
920.0
918.0
917.0
916.0
912.0
907.0
903.0
902.0
907.0
913.0
927.0
945.0
971.0
998.0
1023.0
1045.0
1058.0
1068.0
1074.0
1077.0
1071.0
1058.0
1038.0
1013.0
987.0
964.0
948.0
931.0
917.0
899.0
872.0
842.0
812.0
787.0
772.0
763.0
765.0
776.0
786.0
799.0
810.0
816.0
821.0
821.0
822.0
824.0
831.0
837.0
845.0
852.0
861.0
871.0
877.0
883.0
887.0
890.0
894.0
895.0
899.0
901.0
902.0
902.0
904.0
903.0
904.0
904.0
905.0
903.0
902.0
902.0
902.0
903.0
905.0
903.0
903.0
903.0
905.0
904.0
903.0
903.0
900.0
901.0
902.0
900.0
902.0
902.0
906.0
907.0
908.0
906.0
905.0
907.0
905.0
905.0
907.0
910.0
912.0
914.0
921.0
923.0
923.0
928.0
931.0
934.0
938.0
943.0
946.0
951.0
956.0
965.0
972.0
979.0
984.0
988.0
992.0
995.0
997.0
1000.0
1005.0
1009.0
1010.0
1016.0
1017.0
1021.0
1023.0
1024.0
1023.0
1020.0
1019.0
1016.0
1013.0
1011.0
1008.0
1007.0
1006.0
1003.0
996.0
997.0
988.0
985.0
979.0
974.0
970.0
965.0
966.0
963.0
960.0
961.0
958.0
956.0
951.0
946.0
945.0
942.0
939.0
937.0
938.0
937.0
938.0
937.0
937.0
936.0
935.0
933.0
931.0
929.0
929.0
926.0
926.0
926.0
931.0
931.0
932.0
933.0
933.0
929.0
931.0
930.0
928.0
929.0
931.0
931.0
934.0
935.0
935.0
934.0
931.0
930.0
929.0
929.0
929.0
926.0
927.0
928.0
928.0
929.0
931.0
927.0
927.0
927.0
925.0
926.0
923.0
923.0
922.0
923.0
923.0
924.0
924.0
924.0
924.0
926.0
923.0
922.0
922.0
921.0
922.0
922.0
924.0
925.0
927.0
923.0
923.0
918.0
920.0
919.0
918.0
917.0
919.0
920.0
921.0
920.0
919.0
920.0
921.0
919.0
918.0
918.0
916.0
917.0
918.0
919.0
920.0
922.0
921.0
921.0
920.0
918.0
918.0
915.0
916.0
917.0
918.0
919.0
918.0
920.0
922.0
920.0
923.0
923.0
923.0
921.0
922.0
919.0
924.0
926.0
926.0
928.0
929.0
931.0
930.0
930.0
927.0
928.0
931.0
930.0
933.0
938.0
940.0
943.0
946.0
945.0
946.0
945.0
942.0
941.0
938.0
936.0
936.0
933.0
929.0
929.0
926.0
923.0
922.0
918.0
915.0
911.0
907.0
906.0
906.0
906.0
906.0
911.0
912.0
910.0
912.0
911.0
908.0
909.0
909.0
910.0
911.0
912.0
914.0
916.0
917.0
919.0
920.0
921.0
923.0
928.0
937.0
947.0
962.0
979.0
1000.0
1026.0
1052.0
1087.0
1123.0
1155.0
1186.0
1213.0
1235.0
1262.0
1286.0
1311.0
1317.0
1298.0
1248.0
1177.0
1093.0
1007.0
935.0
887.0
861.0
856.0
861.0
869.0
878.0
886.0
890.0
891.0
889.0
887.0
883.0
881.0
879.0
877.0
880.0
880.0
880.0
881.0
879.0
879.0
878.0
877.0
874.0
873.0
873.0
872.0
873.0
874.0
874.0
876.0
874.0
872.0
871.0
869.0
869.0
867.0
866.0
867.0
867.0
868.0
870.0
869.0
868.0
866.0
866.0
863.0
860.0
857.0
857.0
855.0
855.0
857.0
858.0
860.0
857.0
857.0
852.0
850.0
849.0
848.0
845.0
845.0
843.0
842.0
843.0
842.0
843.0
844.0
841.0
838.0
834.0
832.0
830.0
834.0
833.0
835.0
837.0
837.0
838.0
838.0
838.0
838.0
837.0
837.0
839.0
838.0
840.0
843.0
846.0
852.0
855.0
857.0
859.0
862.0
866.0
866.0
870.0
873.0
877.0
882.0
888.0
890.0
890.0
893.0
895.0
897.0
896.0
897.0
897.0
898.0
899.0
901.0
901.0
906.0
906.0
904.0
905.0
903.0
902.0
900.0
899.0
903.0
903.0
905.0
906.0
905.0
908.0
906.0
907.0
904.0
902.0
902.0
902.0
903.0
901.0
903.0
902.0
900.0
900.0
900.0
900.0
900.0
895.0
893.0
894.0
894.0
892.0
893.0
894.0
895.0
893.0
893.0
894.0
894.0
894.0
896.0
894.0
892.0
892.0
888.0
889.0
888.0
893.0
898.0
911.0
928.0
953.0
977.0
1003.0
1026.0
1043.0
1053.0
1059.0
1057.0
1045.0
1021.0
993.0
965.0
942.0
923.0
905.0
887.0
868.0
848.0
823.0
805.0
788.0
778.0
776.0
778.0
785.0
794.0
800.0
809.0
818.0
824.0
824.0
828.0
830.0
836.0
841.0
846.0
851.0
856.0
861.0
866.0
872.0
879.0
883.0
886.0
890.0
890.0
890.0
887.0
885.0
886.0
882.0
886.0
887.0
888.0
889.0
892.0
892.0
891.0
890.0
889.0
885.0
884.0
881.0
885.0
886.0
886.0
887.0
889.0
889.0
889.0
887.0
884.0
884.0
885.0
886.0
885.0
884.0
887.0
887.0
890.0
894.0
892.0
891.0
893.0
896.0
898.0
899.0
905.0
906.0
909.0
911.0
919.0
922.0
926.0
930.0
930.0
936.0
937.0
941.0
945.0
953.0
960.0
963.0
971.0
976.0
978.0
982.0
986.0
990.0
989.0
992.0
994.0
996.0
999.0
1000.0
1004.0
1003.0
1002.0
1000.0
994.0
991.0
988.0
983.0
981.0
979.0
977.0
975.0
973.0
967.0
963.0
959.0
955.0
950.0
945.0
940.0
939.0
935.0
936.0
935.0
934.0
933.0
932.0
929.0
929.0
925.0
922.0
922.0
920.0
921.0
921.0
920.0
923.0
926.0
924.0
923.0
921.0
922.0
919.0
919.0
918.0
919.0
920.0
923.0
925.0
925.0
924.0
923.0
921.0
920.0
918.0
919.0
921.0
920.0
921.0
922.0
925.0
926.0
924.0
923.0
922.0
923.0
922.0
922.0
921.0
923.0
923.0
921.0
922.0
924.0
924.0
923.0
919.0
921.0
918.0
919.0
919.0
920.0
917.0
922.0
924.0
922.0
921.0
917.0
918.0
918.0
919.0
918.0
918.0
920.0
920.0
925.0
924.0
924.0
922.0
923.0
920.0
920.0
918.0
920.0
919.0
920.0
922.0
923.0
924.0
923.0
923.0
925.0
920.0
922.0
920.0
922.0
920.0
920.0
922.0
924.0
925.0
924.0
924.0
922.0
920.0
918.0
918.0
919.0
920.0
922.0
924.0
924.0
927.0
926.0
926.0
924.0
923.0
925.0
922.0
922.0
923.0
922.0
923.0
926.0
928.0
930.0
931.0
931.0
931.0
931.0
931.0
930.0
928.0
932.0
933.0
936.0
940.0
940.0
942.0
945.0
944.0
946.0
949.0
949.0
947.0
950.0
953.0
956.0
957.0
956.0
950.0
950.0
943.0
942.0
938.0
936.0
934.0
933.0
932.0
930.0
928.0
927.0
922.0
920.0
917.0
917.0
918.0
917.0
920.0
918.0
920.0
921.0
923.0
924.0
924.0
924.0
924.0
924.0
925.0
926.0
931.0
935.0
941.0
950.0
961.0
974.0
987.0
1005.0
1023.0
1045.0
1073.0
1104.0
1139.0
1173.0
1207.0
1234.0
1263.0
1292.0
1322.0
1331.0
1307.0
1248.0
1160.0
1061.0
972.0
907.0
870.0
857.0
865.0
877.0
890.0
899.0
904.0
906.0
903.0
899.0
895.0
893.0
893.0
892.0
896.0
895.0
893.0
894.0
896.0
893.0
891.0
892.0
890.0
889.0
890.0
891.0
892.0
892.0
889.0
888.0
887.0
886.0
885.0
884.0
884.0
884.0
884.0
885.0
887.0
888.0
882.0
881.0
881.0
880.0
880.0
878.0
877.0
876.0
876.0
877.0
876.0
874.0
872.0
870.0
869.0
870.0
868.0
867.0
865.0
866.0
866.0
866.0
864.0
864.0
865.0
861.0
857.0
854.0
854.0
852.0
855.0
851.0
855.0
855.0
859.0
863.0
859.0
860.0
859.0
859.0
858.0
859.0
862.0
865.0
870.0
873.0
878.0
880.0
883.0
884.0
886.0
889.0
887.0
892.0
894.0
899.0
904.0
910.0
911.0
916.0
918.0
919.0
919.0
919.0
920.0
922.0
920.0
923.0
925.0
928.0
929.0
929.0
929.0
929.0
928.0
927.0
927.0
924.0
922.0
926.0
925.0
927.0
928.0
930.0
927.0
926.0
926.0
925.0
925.0
922.0
919.0
920.0
925.0
924.0
924.0
923.0
922.0
917.0
915.0
915.0
917.0
916.0
913.0
915.0
915.0
916.0
916.0
918.0
919.0
919.0
917.0
917.0
917.0
916.0
912.0
908.0
904.0
901.0
904.0
909.0
915.0
929.0
945.0
971.0
996.0
1022.0
1041.0
1055.0
1068.0
1074.0
1076.0
1067.0
1047.0
1017.0
983.0
957.0
933.0
917.0
901.0
878.0
856.0
829.0
800.0
777.0
766.0
760.0
758.0
766.0
775.0
787.0
792.0
800.0
808.0
809.0
811.0
815.0
817.0
821.0
824.0
834.0
838.0
844.0
851.0
859.0
866.0
875.0
881.0
886.0
890.0
896.0
898.0
901.0
904.0
904.0
905.0
906.0
908.0
909.0
910.0
912.0
911.0
909.0
904.0
908.0
907.0
908.0
906.0
906.0
909.0
909.0
909.0
911.0
912.0
910.0
909.0
905.0
906.0
904.0
910.0
909.0
908.0
909.0
912.0
917.0
916.0
916.0
916.0
917.0
918.0
918.0
921.0
928.0
934.0
936.0
942.0
944.0
949.0
957.0
959.0
964.0
966.0
972.0
979.0
984.0
990.0
997.0
1005.0
1008.0
1012.0
1016.0
1019.0
1021.0
1023.0
1023.0
1025.0
1026.0
1026.0
1029.0
1028.0
1029.0
1027.0
1024.0
1018.0
1019.0
1015.0
1011.0
1008.0
1004.0
1004.0
998.0
996.0
992.0
989.0
982.0
978.0
974.0
968.0
961.0
960.0
957.0
955.0
952.0
951.0
948.0
942.0
941.0
939.0
940.0
938.0
936.0
935.0
936.0
934.0
934.0
937.0
937.0
936.0
935.0
934.0
933.0
933.0
933.0
931.0
933.0
935.0
936.0
937.0
938.0
937.0
936.0
934.0
933.0
933.0
934.0
933.0
934.0
935.0
934.0
935.0
936.0
934.0
935.0
930.0
929.0
930.0
926.0
928.0
929.0
930.0
933.0
932.0
933.0
932.0
930.0
930.0
928.0
923.0
926.0
924.0
923.0
926.0
928.0
927.0
928.0
930.0
928.0
926.0
925.0
922.0
923.0
923.0
918.0
923.0
922.0
925.0
928.0
926.0
928.0
924.0
919.0
917.0
916.0
917.0
918.0
919.0
923.0
923.0
924.0
922.0
923.0
923.0
921.0
919.0
919.0
918.0
918.0
920.0
920.0
921.0
924.0
923.0
920.0
919.0
921.0
918.0
919.0
920.0
921.0
921.0
921.0
922.0
927.0
927.0
927.0
927.0
925.0
926.0
925.0
924.0
924.0
927.0
931.0
930.0
933.0
936.0
936.0
936.0
938.0
937.0
940.0
943.0
945.0
947.0
949.0
950.0
950.0
946.0
945.0
944.0
942.0
940.0
935.0
933.0
932.0
929.0
930.0
927.0
925.0
922.0
921.0
917.0
914.0
911.0
909.0
910.0
912.0
913.0
917.0
918.0
920.0
921.0
921.0
923.0
925.0
927.0
926.0
935.0
940.0
948.0
958.0
968.0
977.0
988.0
1003.0
1017.0
1040.0
1062.0
1088.0
1117.0
1151.0
1190.0
1235.0
1284.0
1329.0
1366.0
1393.0
1409.0
1414.0
1415.0
1416.0
1417.0
1410.0
1385.0
1337.0
1266.0
1180.0
1088.0
1006.0
943.0
904.0
886.0
885.0
889.0
892.0
896.0
893.0
887.0
883.0
877.0
872.0
868.0
866.0
864.0
863.0
861.0
861.0
859.0
859.0
856.0
859.0
856.0
856.0
852.0
848.0
846.0
844.0
843.0
844.0
844.0
843.0
842.0
841.0
841.0
838.0
836.0
834.0
831.0
829.0
826.0
824.0
824.0
824.0
822.0
818.0
817.0
816.0
812.0
809.0
806.0
803.0
803.0
800.0
798.0
797.0
798.0
796.0
794.0
789.0
788.0
783.0
780.0
778.0
774.0
772.0
777.0
772.0
774.0
774.0
772.0
769.0
769.0
767.0
765.0
765.0
764.0
765.0
767.0
769.0
773.0
775.0
777.0
780.0
781.0
785.0
783.0
788.0
792.0
796.0
802.0
810.0
815.0
822.0
827.0
830.0
834.0
839.0
842.0
846.0
847.0
850.0
857.0
861.0
865.0
869.0
867.0
868.0
870.0
869.0
870.0
870.0
871.0
874.0
874.0
875.0
877.0
878.0
877.0
878.0
876.0
874.0
873.0
873.0
873.0
874.0
874.0
874.0
875.0
875.0
873.0
873.0
871.0
871.0
867.0
867.0
867.0
866.0
868.0
869.0
871.0
872.0
871.0
872.0
870.0
872.0
871.0
869.0
871.0
872.0
877.0
880.0
884.0
888.0
887.0
890.0
889.0
886.0
883.0
884.0
889.0
899.0
918.0
944.0
977.0
1009.0
1038.0
1060.0
1076.0
1083.0
1077.0
1059.0
1034.0
1005.0
980.0
958.0
938.0
915.0
889.0
860.0
834.0
808.0
790.0
780.0
779.0
778.0
784.0
791.0
797.0
802.0
802.0
803.0
802.0
804.0
807.0
812.0
821.0
826.0
833.0
841.0
849.0
859.0
864.0
870.0
875.0
879.0
881.0
884.0
885.0
884.0
886.0
886.0
888.0
887.0
889.0
890.0
890.0
888.0
886.0
884.0
885.0
886.0
886.0
888.0
888.0
890.0
887.0
889.0
889.0
887.0
884.0
882.0
885.0
884.0
887.0
886.0
888.0
889.0
891.0
892.0
892.0
894.0
892.0
895.0
895.0
898.0
905.0
907.0
912.0
918.0
921.0
925.0
929.0
935.0
939.0
943.0
947.0
952.0
959.0
966.0
972.0
980.0
984.0
990.0
995.0
998.0
999.0
1001.0
1004.0
1006.0
1010.0
1010.0
1014.0
1015.0
1014.0
1012.0
1010.0
1007.0
1008.0
1006.0
1004.0
1004.0
1002.0
1000.0
997.0
997.0
993.0
988.0
984.0
978.0
974.0
971.0
965.0
961.0
960.0
958.0
954.0
951.0
947.0
947.0
939.0
935.0
932.0
930.0
928.0
930.0
930.0
926.0
929.0
930.0
926.0
923.0
924.0
922.0
919.0
917.0
918.0
920.0
922.0
922.0
924.0
924.0
925.0
925.0
923.0
920.0
920.0
917.0
916.0
917.0
918.0
918.0
920.0
923.0
920.0
923.0
922.0
917.0
920.0
918.0
918.0
918.0
920.0
920.0
922.0
924.0
924.0
923.0
921.0
921.0
917.0
917.0
916.0
916.0
917.0
918.0
918.0
922.0
921.0
919.0
918.0
917.0
916.0
913.0
915.0
914.0
914.0
912.0
915.0
915.0
917.0
915.0
915.0
910.0
911.0
910.0
911.0
912.0
912.0
913.0
913.0
914.0
916.0
916.0
915.0
914.0
913.0
913.0
913.0
914.0
913.0
914.0
916.0
918.0
919.0
919.0
919.0
919.0
918.0
919.0
920.0
924.0
923.0
925.0
926.0
927.0
929.0
930.0
929.0
929.0
931.0
931.0
932.0
936.0
939.0
942.0
943.0
945.0
946.0
944.0
942.0
939.0
935.0
934.0
930.0
930.0
930.0
930.0
929.0
927.0
925.0
921.0
921.0
912.0
910.0
904.0
903.0
903.0
904.0
901.0
903.0
900.0
901.0
904.0
903.0
903.0
903.0
901.0
902.0
903.0
905.0
906.0
911.0
913.0
914.0
917.0
920.0
920.0
927.0
935.0
951.0
964.0
986.0
1008.0
1036.0
1067.0
1099.0
1132.0
1160.0
1184.0
1207.0
1231.0
1261.0
1289.0
1312.0
1315.0
1286.0
1232.0
1155.0
1065.0
980.0
916.0
874.0
852.0
850.0
858.0
868.0
874.0
880.0
883.0
880.0
879.0
880.0
881.0
882.0
879.0
878.0
878.0
877.0
877.0
878.0
874.0
874.0
876.0
875.0
874.0
875.0
872.0
871.0
871.0
873.0
874.0
872.0
872.0
873.0
872.0
870.0
869.0
867.0
866.0
867.0
865.0
862.0
863.0
865.0
864.0
862.0
863.0
859.0
859.0
856.0
855.0
855.0
854.0
855.0
855.0
855.0
855.0
853.0
853.0
849.0
849.0
846.0
845.0
844.0
844.0
843.0
842.0
842.0
844.0
843.0
840.0
840.0
836.0
833.0
832.0
832.0
831.0
834.0
834.0
836.0
837.0
837.0
838.0
837.0
838.0
836.0
835.0
838.0
837.0
842.0
843.0
845.0
846.0
850.0
851.0
853.0
852.0
854.0
854.0
858.0
862.0
866.0
868.0
874.0
878.0
881.0
883.0
882.0
886.0
886.0
888.0
890.0
894.0
894.0
897.0
901.0
904.0
904.0
907.0
905.0
906.0
904.0
903.0
905.0
904.0
905.0
907.0
908.0
909.0
907.0
909.0
909.0
906.0
907.0
905.0
904.0
904.0
906.0
907.0
905.0
907.0
907.0
908.0
905.0
904.0
902.0
900.0
901.0
901.0
901.0
903.0
901.0
903.0
902.0
900.0
898.0
896.0
896.0
895.0
895.0
897.0
896.0
899.0
902.0
902.0
902.0
904.0
905.0
906.0
906.0
905.0
903.0
903.0
903.0
904.0
907.0
913.0
923.0
935.0
956.0
974.0
999.0
1021.0
1039.0
1054.0
1063.0
1069.0
1069.0
1066.0
1052.0
1032.0
1004.0
980.0
961.0
938.0
923.0
900.0
874.0
844.0
818.0
797.0
783.0
777.0
775.0
780.0
783.0
791.0
795.0
798.0
801.0
801.0
803.0
805.0
810.0
819.0
824.0
830.0
839.0
844.0
852.0
861.0
871.0
880.0
888.0
893.0
897.0
901.0
899.0
899.0
896.0
899.0
895.0
896.0
896.0
900.0
899.0
901.0
900.0
899.0
900.0
898.0
896.0
896.0
897.0
898.0
899.0
900.0
903.0
904.0
902.0
905.0
900.0
899.0
897.0
897.0
897.0
898.0
899.0
902.0
904.0
908.0
908.0
910.0
911.0
914.0
913.0
912.0
920.0
923.0
930.0
935.0
942.0
947.0
953.0
962.0
965.0
969.0
975.0
979.0
985.0
990.0
998.0
1003.0
1008.0
1013.0
1017.0
1018.0
1019.0
1020.0
1020.0
1019.0
1016.0
1016.0
1016.0
1015.0
1013.0
1012.0
1008.0
1007.0
1002.0
998.0
992.0
987.0
981.0
979.0
977.0
972.0
973.0
971.0
969.0
965.0
960.0
956.0
953.0
951.0
947.0
946.0
945.0
945.0
944.0
945.0
942.0
939.0
938.0
937.0
936.0
934.0
933.0
932.0
934.0
935.0
936.0
937.0
936.0
935.0
936.0
934.0
934.0
931.0
934.0
933.0
936.0
936.0
937.0
940.0
940.0
939.0
935.0
935.0
934.0
934.0
933.0
934.0
935.0
933.0
935.0
937.0
938.0
937.0
937.0
935.0
932.0
932.0
934.0
932.0
932.0
933.0
936.0
935.0
935.0
933.0
932.0
933.0
930.0
931.0
932.0
930.0
931.0
931.0
933.0
932.0
932.0
931.0
931.0
930.0
929.0
928.0
927.0
929.0
929.0
931.0
931.0
933.0
932.0
931.0
928.0
927.0
927.0
927.0
928.0
930.0
931.0
932.0
934.0
934.0
934.0
933.0
927.0
927.0
927.0
927.0
927.0
927.0
930.0
932.0
932.0
936.0
937.0
935.0
937.0
935.0
935.0
935.0
936.0
937.0
939.0
940.0
943.0
944.0
945.0
950.0
949.0
950.0
950.0
952.0
952.0
954.0
956.0
958.0
959.0
959.0
956.0
955.0
953.0
951.0
945.0
942.0
939.0
939.0
936.0
936.0
937.0
936.0
935.0
929.0
927.0
921.0
920.0
917.0
916.0
919.0
922.0
923.0
924.0
926.0
927.0
926.0
925.0
924.0
923.0
923.0
923.0
926.0
928.0
931.0
935.0
937.0
942.0
947.0
954.0
964.0
973.0
990.0
1009.0
1032.0
1060.0
1094.0
1131.0
1169.0
1202.0
1229.0
1251.0
1278.0
1301.0
1308.0
1283.0
1225.0
1144.0
1055.0
971.0
910.0
872.0
859.0
861.0
871.0
882.0
890.0
895.0
897.0
899.0
902.0
899.0
900.0
901.0
895.0
891.0
889.0
888.0
888.0
890.0
891.0
893.0
892.0
893.0
893.0
892.0
894.0
893.0
891.0
888.0
885.0
885.0
883.0
885.0
883.0
886.0
886.0
884.0
883.0
883.0
881.0
879.0
874.0
877.0
875.0
875.0
875.0
874.0
877.0
874.0
871.0
872.0
871.0
867.0
865.0
865.0
865.0
865.0
865.0
864.0
864.0
861.0
861.0
860.0
858.0
854.0
854.0
852.0
850.0
850.0
852.0
853.0
856.0
854.0
854.0
856.0
854.0
856.0
855.0
855.0
859.0
861.0
864.0
868.0
872.0
875.0
877.0
878.0
880.0
882.0
886.0
886.0
893.0
893.0
898.0
905.0
910.0
912.0
913.0
913.0
913.0
914.0
915.0
918.0
918.0
920.0
921.0
925.0
925.0
923.0
922.0
922.0
921.0
920.0
919.0
918.0
918.0
920.0
921.0
921.0
923.0
925.0
923.0
922.0
918.0
916.0
916.0
915.0
915.0
916.0
917.0
915.0
918.0
916.0
915.0
915.0
912.0
911.0
908.0
907.0
908.0
908.0
910.0
912.0
916.0
917.0
918.0
914.0
913.0
908.0
905.0
903.0
901.0
906.0
915.0
930.0
954.0
977.0
1004.0
1029.0
1051.0
1063.0
1071.0
1072.0
1062.0
1047.0
1022.0
992.0
968.0
949.0
932.0
919.0
903.0
879.0
852.0
827.0
806.0
790.0
781.0
776.0
776.0
784.0
790.0
796.0
801.0
802.0
805.0
807.0
806.0
808.0
814.0
822.0
829.0
836.0
845.0
849.0
851.0
858.0
862.0
870.0
877.0
885.0
892.0
894.0
896.0
898.0
898.0
895.0
897.0
893.0
893.0
894.0
896.0
897.0
897.0
898.0
898.0
899.0
899.0
898.0
897.0
894.0
896.0
896.0
893.0
895.0
898.0
898.0
899.0
899.0
899.0
896.0
893.0
896.0
896.0
897.0
897.0
899.0
900.0
902.0
905.0
906.0
908.0
908.0
910.0
910.0
913.0
916.0
918.0
923.0
928.0
932.0
936.0
941.0
944.0
947.0
953.0
956.0
960.0
961.0
970.0
977.0
982.0
989.0
994.0
996.0
999.0
1003.0
1006.0
1007.0
1008.0
1009.0
1009.0
1012.0
1013.0
1012.0
1012.0
1008.0
1006.0
1004.0
999.0
997.0
991.0
986.0
983.0
980.0
977.0
973.0
971.0
967.0
964.0
959.0
953.0
952.0
948.0
945.0
942.0
942.0
940.0
941.0
937.0
934.0
933.0
930.0
927.0
928.0
927.0
923.0
923.0
923.0
925.0
925.0
925.0
927.0
923.0
924.0
924.0
922.0
922.0
922.0
923.0
922.0
922.0
924.0
927.0
926.0
925.0
923.0
923.0
921.0
921.0
920.0
922.0
922.0
920.0
923.0
922.0
923.0
925.0
924.0
923.0
921.0
920.0
918.0
919.0
919.0
921.0
922.0
918.0
922.0
922.0
921.0
920.0
917.0
914.0
914.0
915.0
915.0
917.0
917.0
919.0
921.0
919.0
916.0
917.0
914.0
913.0
915.0
913.0
915.0
915.0
917.0
918.0
917.0
917.0
916.0
916.0
915.0
914.0
913.0
913.0
916.0
916.0
919.0
918.0
916.0
915.0
916.0
915.0
914.0
912.0
910.0
912.0
915.0
916.0
917.0
920.0
918.0
918.0
918.0
917.0
914.0
913.0
915.0
918.0
919.0
920.0
925.0
923.0
924.0
928.0
927.0
926.0
926.0
923.0
925.0
929.0
927.0
933.0
933.0
937.0
937.0
941.0
941.0
940.0
940.0
941.0
940.0
941.0
937.0
937.0
936.0
935.0
935.0
929.0
924.0
922.0
918.0
913.0
912.0
910.0
908.0
908.0
907.0
908.0
907.0
907.0
905.0
905.0
905.0
903.0
903.0
905.0
906.0
910.0
912.0
915.0
920.0
922.0
924.0
928.0
931.0
935.0
942.0
950.0
958.0
970.0
982.0
998.0
1019.0
1036.0
1062.0
1086.0
1115.0
1148.0
1185.0
1223.0
1265.0
1304.0
1333.0
1357.0
1374.0
1386.0
1397.0
1401.0
1384.0
1339.0
1266.0
1177.0
1078.0
994.0
933.0
903.0
889.0
890.0
894.0
897.0
896.0
893.0
888.0
879.0
874.0
870.0
867.0
864.0
867.0
866.0
864.0
863.0
861.0
859.0
856.0
855.0
854.0
853.0
854.0
856.0
855.0
852.0
851.0
849.0
847.0
844.0
843.0
841.0
841.0
841.0
840.0
838.0
839.0
839.0
837.0
833.0
830.0
827.0
826.0
825.0
823.0
824.0
824.0
825.0
822.0
821.0
818.0
815.0
811.0
810.0
804.0
804.0
801.0
799.0
799.0
801.0
798.0
795.0
791.0
788.0
784.0
780.0
778.0
779.0
777.0
777.0
777.0
776.0
775.0
773.0
775.0
773.0
772.0
773.0
773.0
775.0
780.0
779.0
783.0
790.0
792.0
797.0
799.0
802.0
806.0
812.0
815.0
821.0
826.0
832.0
839.0
845.0
851.0
857.0
857.0
862.0
860.0
864.0
864.0
866.0
872.0
872.0
874.0
877.0
877.0
880.0
878.0
879.0
879.0
879.0
880.0
881.0
882.0
882.0
884.0
885.0
884.0
881.0
885.0
