# Simple Text Format
# Sampling Rate (Hz):= 360.00
# Resolution:= 12
# Labels:= ECG
1216.0
1240.0
1264.0
1289.0
1310.0
1315.0
1293.0
1243.0
1165.0
1074.0
985.0
915.0
870.0
852.0
854.0
863.0
876.0
887.0
891.0
897.0
898.0
897.0
892.0
889.0
889.0
885.0
886.0
887.0
887.0
888.0
889.0
890.0
888.0
887.0
885.0
884.0
883.0
881.0
879.0
879.0
879.0
883.0
884.0
884.0
885.0
883.0
883.0
882.0
879.0
878.0
878.0
879.0
877.0
880.0
880.0
880.0
878.0
876.0
873.0
874.0
871.0
871.0
870.0
868.0
870.0
870.0
872.0
871.0
869.0
868.0
865.0
862.0
862.0
859.0
858.0
859.0
859.0
859.0
861.0
859.0
857.0
857.0
854.0
850.0
851.0
849.0
851.0
853.0
854.0
855.0
859.0
861.0
863.0
862.0
863.0
864.0
865.0
865.0
869.0
873.0
878.0
883.0
884.0
889.0
894.0
895.0
896.0
899.0
900.0
902.0
906.0
908.0
911.0
915.0
918.0
919.0
917.0
920.0
917.0
917.0
917.0
917.0
918.0
917.0
920.0
922.0
925.0
925.0
924.0
923.0
919.0
921.0
918.0
917.0
918.0
920.0
918.0
918.0
917.0
919.0
919.0
919.0
917.0
916.0
917.0
915.0
913.0
913.0
914.0
914.0
913.0
915.0
915.0
915.0
912.0
913.0
909.0
908.0
908.0
906.0
908.0
910.0
912.0
914.0
915.0
916.0
913.0
909.0
904.0
903.0
904.0
907.0
912.0
923.0
941.0
963.0
988.0
1013.0
1035.0
1051.0
1061.0
1065.0
1065.0
1058.0
1044.0
1020.0
995.0
968.0
944.0
924.0
906.0
886.0
862.0
836.0
812.0
791.0
777.0
769.0
766.0
770.0
777.0
783.0
788.0
795.0
796.0
798.0
800.0
802.0
805.0
810.0
817.0
823.0
829.0
835.0
840.0
847.0
852.0
860.0
867.0
875.0
886.0
891.0
898.0
902.0
904.0
902.0
900.0
901.0
901.0
902.0
902.0
901.0
903.0
905.0
905.0
907.0
906.0
907.0
906.0
904.0
904.0
903.0
903.0
904.0
908.0
910.0
910.0
911.0
908.0
910.0
909.0
908.0
909.0
910.0
911.0
910.0
913.0
918.0
920.0
924.0
925.0
927.0
932.0
934.0
936.0
939.0
943.0
946.0
953.0
960.0
967.0
973.0
976.0
981.0
984.0
987.0
990.0
996.0
1000.0
1006.0
1008.0
1013.0
1015.0
1025.0
1027.0
1030.0
1029.0
1029.0
1028.0
1029.0
1030.0
1031.0
1031.0
1028.0
1031.0
1032.0
1026.0
1023.0
1019.0
1014.0
1010.0
1009.0
1005.0
1000.0
997.0
996.0
992.0
987.0
979.0
974.0
969.0
968.0
962.0
957.0
954.0
954.0
952.0
950.0
950.0
948.0
946.0
943.0
941.0
939.0
937.0
932.0
929.0
928.0
930.0
932.0
933.0
934.0
933.0
935.0
932.0
929.0
930.0
929.0
929.0
929.0
931.0
928.0
933.0
933.0
933.0
931.0
931.0
933.0
927.0
929.0
929.0
928.0
931.0
934.0
934.0
935.0
930.0
929.0
931.0
926.0
926.0
928.0
926.0
926.0
927.0
929.0
930.0
930.0
930.0
929.0
928.0
926.0
924.0
921.0
923.0
924.0
924.0
926.0
926.0
926.0
925.0
926.0
924.0
923.0
921.0
919.0
921.0
918.0
921.0
920.0
924.0
924.0
924.0
924.0
924.0
923.0
921.0
920.0
919.0
922.0
922.0
923.0
923.0
925.0
925.0
922.0
922.0
917.0
920.0
917.0
918.0
918.0
922.0
925.0
923.0
924.0
924.0
924.0
924.0
921.0
924.0
923.0
924.0
926.0
927.0
931.0
930.0
932.0
933.0
931.0
931.0
931.0
930.0
930.0
933.0
934.0
934.0
937.0
944.0
944.0
945.0
950.0
951.0
949.0
949.0
949.0
949.0
948.0
946.0
946.0
947.0
942.0
939.0
937.0
932.0
929.0
926.0
920.0
916.0
913.0
915.0
915.0
914.0
917.0
917.0
916.0
915.0
915.0
914.0
914.0
915.0
915.0
917.0
920.0
920.0
921.0
919.0
920.0
922.0
928.0
931.0
935.0
944.0
953.0
968.0
983.0
1003.0
1025.0
1049.0
1078.0
1115.0
1150.0
1179.0
1202.0
1217.0
1233.0
1252.0
1277.0
1303.0
1316.0
1306.0
1265.0
1201.0
1122.0
1039.0
964.0
909.0
871.0
858.0
857.0
866.0
878.0
885.0
891.0
893.0
894.0
893.0
894.0
892.0
891.0
891.0
890.0
890.0
893.0
891.0
890.0
891.0
889.0
886.0
883.0
884.0
884.0
887.0
887.0
889.0
889.0
887.0
886.0
885.0
882.0
882.0
879.0
878.0
879.0
878.0
880.0
878.0
879.0
876.0
875.0
874.0
874.0
871.0
870.0
866.0
870.0
869.0
868.0
869.0
870.0
868.0
867.0
866.0
863.0
863.0
861.0
860.0
860.0
859.0
859.0
861.0
859.0
860.0
860.0
857.0
856.0
856.0
853.0
854.0
856.0
856.0
859.0
861.0
864.0
863.0
866.0
864.0
865.0
866.0
867.0
870.0
873.0
874.0
880.0
885.0
890.0
893.0
897.0
898.0
901.0
904.0
906.0
907.0
910.0
917.0
917.0
920.0
921.0
919.0
921.0
918.0
921.0
917.0
918.0
919.0
919.0
921.0
922.0
924.0
924.0
923.0
922.0
919.0
918.0
916.0
917.0
917.0
919.0
921.0
921.0
920.0
921.0
919.0
917.0
920.0
916.0
912.0
911.0
912.0
911.0
913.0
913.0
915.0
914.0
914.0
912.0
910.0
910.0
906.0
907.0
906.0
907.0
909.0
909.0
912.0
913.0
917.0
917.0
915.0
909.0
906.0
900.0
899.0
903.0
907.0
920.0
943.0
969.0
1002.0
1029.0
1055.0
1072.0
1079.0
1076.0
1061.0
1033.0
1000.0
968.0
943.0
924.0
901.0
874.0
844.0
813.0
788.0
768.0
760.0
757.0
763.0
771.0
782.0
790.0
800.0
801.0
801.0
803.0
802.0
806.0
811.0
821.0
828.0
837.0
844.0
851.0
857.0
863.0
871.0
875.0
879.0
882.0
890.0
894.0
899.0
899.0
901.0
903.0
901.0
901.0
900.0
900.0
898.0
896.0
897.0
896.0
897.0
896.0
900.0
902.0
902.0
904.0
903.0
903.0
900.0
899.0
900.0
899.0
899.0
902.0
903.0
906.0
906.0
906.0
905.0
905.0
904.0
905.0
907.0
909.0
915.0
918.0
923.0
926.0
929.0
932.0
933.0
940.0
943.0
946.0
952.0
956.0
961.0
965.0
970.0
977.0
981.0
983.0
989.0
995.0
996.0
1001.0
1005.0
1008.0
1014.0
1016.0
1021.0
1023.0
1025.0
1024.0
1025.0
1023.0
1023.0
1022.0
1021.0
1020.0
1018.0
1017.0
1018.0
1018.0
1013.0
1013.0
1010.0
1005.0
1001.0
997.0
992.0
988.0
988.0
985.0
982.0
980.0
977.0
971.0
965.0
962.0
957.0
952.0
950.0
948.0
947.0
945.0
945.0
944.0
942.0
939.0
937.0
934.0
930.0
927.0
930.0
927.0
928.0
928.0
929.0
930.0
929.0
929.0
927.0
929.0
925.0
925.0
926.0
926.0
927.0
928.0
928.0
931.0
930.0
928.0
928.0
926.0
927.0
922.0
924.0
926.0
925.0
927.0
928.0
931.0
931.0
930.0
929.0
929.0
926.0
924.0
926.0
924.0
925.0
927.0
929.0
927.0
928.0
928.0
926.0
922.0
923.0
922.0
920.0
920.0
920.0
920.0
924.0
927.0
922.0
926.0
923.0
922.0
919.0
918.0
916.0
915.0
919.0
920.0
921.0
923.0
921.0
921.0
920.0
917.0
918.0
917.0
917.0
916.0
920.0
921.0
923.0
924.0
924.0
922.0
921.0
921.0
919.0
916.0
917.0
919.0
919.0
922.0
923.0
925.0
925.0
924.0
922.0
921.0
920.0
921.0
918.0
918.0
918.0
920.0
922.0
927.0
925.0
928.0
928.0
929.0
927.0
926.0
928.0
929.0
930.0
931.0
934.0
935.0
935.0
934.0
934.0
933.0
933.0
938.0
939.0
940.0
946.0
947.0
950.0
953.0
950.0
952.0
951.0
948.0
945.0
942.0
942.0
939.0
936.0
934.0
932.0
931.0
931.0
928.0
924.0
919.0
916.0
912.0
907.0
909.0
911.0
912.0
913.0
916.0
916.0
918.0
917.0
916.0
911.0
912.0
913.0
916.0
918.0
921.0
924.0
926.0
930.0
935.0
944.0
953.0
966.0
981.0
1001.0
1025.0
1051.0
1087.0
1122.0
1155.0
1187.0
1213.0
1236.0
1263.0
1290.0
1311.0
1315.0
1288.0
1228.0
1145.0
1055.0
975.0
914.0
877.0
861.0
862.0
870.0
879.0
885.0
890.0
892.0
894.0
895.0
896.0
894.0
891.0
891.0
887.0
886.0
885.0
884.0
884.0
885.0
884.0
889.0
885.0
885.0
886.0
885.0
883.0
879.0
879.0
879.0
879.0
879.0
881.0
878.0
879.0
877.0
877.0
874.0
873.0
871.0
871.0
869.0
869.0
870.0
868.0
870.0
871.0
869.0
869.0
869.0
866.0
864.0
858.0
859.0
858.0
859.0
858.0
859.0
859.0
861.0
858.0
857.0
855.0
853.0
851.0
849.0
851.0
849.0
851.0
851.0
852.0
852.0
853.0
851.0
850.0
851.0
849.0
850.0
851.0
852.0
853.0
858.0
858.0
861.0
862.0
863.0
865.0
868.0
872.0
874.0
876.0
882.0
886.0
891.0
895.0
897.0
902.0
904.0
906.0
908.0
908.0
909.0
911.0
913.0
914.0
915.0
918.0
916.0
915.0
915.0
915.0
914.0
913.0
914.0
914.0
914.0
917.0
919.0
920.0
920.0
918.0
918.0
915.0
915.0
913.0
913.0
913.0
912.0
912.0
915.0
915.0
915.0
915.0
910.0
910.0
908.0
903.0
906.0
906.0
906.0
907.0
905.0
907.0
906.0
907.0
905.0
903.0
902.0
904.0
901.0
903.0
906.0
907.0
911.0
912.0
912.0
908.0
903.0
901.0
898.0
902.0
910.0
925.0
944.0
974.0
1006.0
1033.0
1053.0
1068.0
1076.0
1076.0
1071.0
1057.0
1034.0
1007.0
981.0
955.0
934.0
914.0
893.0
868.0
840.0
812.0
792.0
778.0
773.0
776.0
784.0
794.0
803.0
808.0
813.0
815.0
815.0
815.0
815.0
816.0
820.0
829.0
838.0
846.0
855.0
859.0
861.0
868.0
873.0
879.0
883.0
888.0
895.0
897.0
900.0
903.0
903.0
903.0
904.0
903.0
904.0
903.0
902.0
903.0
903.0
903.0
905.0
904.0
907.0
907.0
905.0
906.0
905.0
903.0
899.0
901.0
899.0
899.0
900.0
902.0
904.0
905.0
903.0
905.0
904.0
903.0
907.0
905.0
907.0
908.0
910.0
911.0
915.0
919.0
920.0
924.0
926.0
931.0
934.0
937.0
941.0
945.0
951.0
959.0
965.0
970.0
976.0
982.0
985.0
988.0
989.0
994.0
1000.0
1006.0
1008.0
1014.0
1017.0
1020.0
1020.0
1022.0
1023.0
1023.0
1020.0
1020.0
1020.0
1017.0
1015.0
1014.0
1011.0
1010.0
1010.0
1007.0
1002.0
997.0
993.0
988.0
987.0
983.0
977.0
979.0
975.0
974.0
969.0
966.0
962.0
958.0
954.0
950.0
948.0
945.0
944.0
942.0
941.0
941.0
938.0
938.0
937.0
935.0
931.0
930.0
929.0
930.0
929.0
927.0
932.0
934.0
935.0
932.0
931.0
929.0
928.0
927.0
927.0
928.0
925.0
928.0
930.0
931.0
933.0
934.0
932.0
932.0
927.0
927.0
928.0
927.0
929.0
930.0
933.0
932.0
933.0
934.0
932.0
930.0
926.0
925.0
925.0
926.0
925.0
928.0
929.0
930.0
930.0
929.0
928.0
926.0
927.0
926.0
926.0
922.0
923.0
924.0
925.0
926.0
927.0
927.0
927.0
926.0
925.0
922.0
922.0
922.0
925.0
923.0
926.0
927.0
925.0
926.0
926.0
926.0
922.0
921.0
919.0
922.0
922.0
925.0
924.0
928.0
926.0
927.0
924.0
925.0
923.0
922.0
922.0
920.0
921.0
923.0
928.0
927.0
927.0
926.0
926.0
927.0
924.0
924.0
924.0
925.0
926.0
924.0
928.0
931.0
932.0
933.0
933.0
933.0
930.0
929.0
929.0
930.0
935.0
935.0
937.0
941.0
942.0
944.0
943.0
943.0
944.0
944.0
946.0
948.0
950.0
953.0
953.0
957.0
954.0
954.0
951.0
949.0
944.0
943.0
940.0
939.0
937.0
937.0
935.0
935.0
934.0
929.0
927.0
924.0
917.0
915.0
911.0
912.0
910.0
913.0
916.0
918.0
918.0
920.0
920.0
918.0
918.0
917.0
917.0
918.0
923.0
922.0
925.0
930.0
934.0
940.0
947.0
956.0
967.0
982.0
998.0
1019.0
1042.0
1072.0
1106.0
1143.0
1174.0
1197.0
1215.0
1230.0
1246.0
1269.0
1292.0
1307.0
1297.0
1256.0
1193.0
1114.0
1030.0
958.0
906.0
874.0
860.0
860.0
867.0
873.0
881.0
886.0
888.0
892.0
895.0
897.0
896.0
894.0
891.0
889.0
890.0
890.0
889.0
889.0
889.0
894.0
892.0
893.0
891.0
890.0
890.0
887.0
886.0
885.0
884.0
886.0
885.0
884.0
884.0
885.0
882.0
881.0
881.0
878.0
878.0
877.0
876.0
877.0
878.0
877.0
875.0
876.0
876.0
873.0
870.0
870.0
870.0
868.0
869.0
870.0
870.0
871.0
868.0
867.0
867.0
865.0
865.0
863.0
858.0
860.0
859.0
856.0
855.0
857.0
857.0
858.0
859.0
856.0
857.0
856.0
855.0
855.0
855.0
854.0
861.0
865.0
865.0
863.0
864.0
862.0
863.0
862.0
864.0
867.0
872.0
876.0
878.0
884.0
886.0
888.0
890.0
892.0
894.0
895.0
899.0
900.0
905.0
909.0
911.0
912.0
916.0
919.0
918.0
918.0
915.0
917.0
917.0
916.0
919.0
918.0
918.0
920.0
921.0
919.0
920.0
919.0
917.0
917.0
917.0
918.0
919.0
920.0
921.0
922.0
922.0
918.0
917.0
911.0
912.0
911.0
909.0
908.0
906.0
908.0
907.0
911.0
910.0
909.0
908.0
907.0
908.0
908.0
909.0
910.0
912.0
911.0
911.0
908.0
901.0
897.0
896.0
898.0
903.0
918.0
941.0
969.0
1001.0
1028.0
1050.0
1064.0
1071.0
1069.0
1062.0
1044.0
1014.0
976.0
941.0
913.0
891.0
864.0
836.0
807.0
775.0
748.0
731.0
726.0
731.0
741.0
755.0
772.0
785.0
796.0
802.0
809.0
812.0
818.0
826.0
834.0
840.0
848.0
855.0
862.0
871.0
879.0
884.0
891.0
894.0
897.0
896.0
895.0
896.0
894.0
895.0
898.0
898.0
897.0
899.0
900.0
901.0
902.0
902.0
900.0
900.0
900.0
898.0
897.0
900.0
903.0
903.0
903.0
902.0
902.0
900.0
898.0
899.0
899.0
900.0
898.0
901.0
901.0
899.0
904.0
906.0
907.0
907.0
907.0
909.0
908.0
911.0
915.0
917.0
922.0
927.0
932.0
936.0
942.0
945.0
948.0
951.0
956.0
963.0
965.0
973.0
979.0
988.0
995.0
1000.0
1007.0
1010.0
1014.0
1016.0
1020.0
1023.0
1025.0
1029.0
1028.0
1034.0
1035.0
1033.0
1033.0
1030.0
1028.0
1024.0
1023.0
1019.0
1015.0
1012.0
1010.0
1010.0
1006.0
1004.0
998.0
992.0
987.0
983.0
978.0
973.0
970.0
970.0
966.0
965.0
962.0
961.0
956.0
954.0
949.0
946.0
944.0
942.0
941.0
939.0
940.0
939.0
939.0
939.0
937.0
936.0
933.0
934.0
934.0
933.0
932.0
933.0
934.0
932.0
936.0
933.0
934.0
932.0
932.0
930.0
930.0
928.0
929.0
930.0
934.0
935.0
935.0
934.0
933.0
933.0
931.0
932.0
929.0
930.0
930.0
930.0
932.0
930.0
931.0
930.0
930.0
929.0
929.0
927.0
927.0
926.0
927.0
927.0
930.0
928.0
929.0
932.0
930.0
929.0
926.0
926.0
922.0
922.0
923.0
922.0
924.0
929.0
928.0
929.0
928.0
925.0
923.0
923.0
922.0
924.0
924.0
923.0
924.0
927.0
927.0
925.0
925.0
926.0
922.0
921.0
920.0
922.0
922.0
922.0
925.0
924.0
925.0
929.0
927.0
925.0
923.0
922.0
922.0
921.0
921.0
921.0
924.0
925.0
930.0
927.0
928.0
926.0
924.0
925.0
924.0
925.0
925.0
927.0
927.0
931.0
934.0
934.0
936.0
936.0
935.0
931.0
934.0
932.0
935.0
936.0
940.0
944.0
947.0
949.0
952.0
953.0
953.0
955.0
954.0
954.0
952.0
950.0
950.0
947.0
947.0
945.0
945.0
939.0
936.0
934.0
931.0
928.0
924.0
923.0
919.0
917.0
916.0
919.0
916.0
916.0
917.0
916.0
915.0
915.0
915.0
916.0
919.0
921.0
922.0
924.0
924.0
924.0
926.0
928.0
932.0
937.0
948.0
961.0
979.0
1000.0
1032.0
1066.0
1105.0
1147.0
1185.0
1219.0
1246.0
1277.0
1306.0
1330.0
1330.0
1299.0
1233.0
1145.0
1052.0
968.0
906.0
872.0
859.0
865.0
873.0
885.0
893.0
897.0
902.0
900.0
900.0
898.0
895.0
892.0
890.0
889.0
888.0
890.0
889.0
890.0
893.0
890.0
891.0
890.0
889.0
888.0
886.0
885.0
884.0
886.0
887.0
889.0
887.0
889.0
887.0
886.0
884.0
877.0
876.0
872.0
875.0
877.0
877.0
877.0
878.0
878.0
876.0
874.0
870.0
870.0
867.0
865.0
867.0
867.0
865.0
865.0
865.0
867.0
866.0
864.0
859.0
858.0
855.0
853.0
853.0
854.0
853.0
854.0
854.0
855.0
852.0
852.0
847.0
851.0
852.0
851.0
852.0
854.0
855.0
855.0
857.0
859.0
862.0
861.0
861.0
862.0
865.0
864.0
871.0
873.0
877.0
881.0
886.0
890.0
893.0
892.0
893.0
898.0
898.0
900.0
903.0
907.0
909.0
913.0
913.0
915.0
915.0
913.0
916.0
913.0
914.0
915.0
915.0
916.0
916.0
920.0
921.0
920.0
921.0
919.0
919.0
917.0
913.0
912.0
912.0
913.0
912.0
911.0
915.0
915.0
912.0
911.0
912.0
911.0
909.0
910.0
906.0
906.0
904.0
907.0
908.0
907.0
907.0
906.0
905.0
904.0
903.0
903.0
903.0
905.0
906.0
908.0
909.0
910.0
907.0
905.0
899.0
896.0
898.0
898.0
907.0
920.0
941.0
965.0
993.0
1018.0
1041.0
1056.0
1067.0
1072.0
1075.0
1071.0
1060.0
1045.0
1023.0
999.0
978.0
961.0
943.0
927.0
908.0
884.0
855.0
829.0
806.0
789.0
782.0
782.0
785.0
791.0
796.0
803.0
807.0
806.0
806.0
806.0
807.0
810.0
818.0
828.0
837.0
844.0
850.0
856.0
862.0
869.0
876.0
880.0
887.0
891.0
896.0
895.0
897.0
900.0
898.0
899.0
899.0
899.0
898.0
897.0
898.0
898.0
899.0
899.0
902.0
901.0
900.0
900.0
899.0
899.0
898.0
899.0
894.0
895.0
898.0
900.0
901.0
901.0
899.0
900.0
899.0
900.0
899.0
900.0
903.0
905.0
906.0
908.0
912.0
915.0
917.0
920.0
923.0
925.0
924.0
927.0
934.0
938.0
945.0
950.0
958.0
963.0
969.0
975.0
977.0
981.0
985.0
988.0
992.0
999.0
1006.0
1009.0
1013.0
1018.0
1017.0
1020.0
1020.0
1020.0
1018.0
1016.0
1017.0
1015.0
1012.0
1012.0
1008.0
1008.0
1007.0
1000.0
997.0
990.0
988.0
980.0
978.0
977.0
976.0
971.0
969.0
966.0
962.0
960.0
957.0
953.0
946.0
944.0
943.0
942.0
940.0
937.0
940.0
939.0
938.0
934.0
935.0
930.0
929.0
927.0
927.0
926.0
926.0
929.0
930.0
928.0
929.0
926.0
925.0
924.0
925.0
924.0
924.0
924.0
927.0
928.0
929.0
931.0
928.0
926.0
926.0
927.0
923.0
922.0
924.0
924.0
925.0
926.0
925.0
926.0
927.0
926.0
925.0
923.0
923.0
921.0
923.0
921.0
923.0
923.0
924.0
924.0
924.0
924.0
921.0
924.0
922.0
917.0
917.0
918.0
922.0
922.0
923.0
923.0
923.0
924.0
922.0
922.0
920.0
918.0
919.0
920.0
920.0
921.0
923.0
922.0
921.0
922.0
921.0
920.0
918.0
917.0
914.0
916.0
918.0
916.0
919.0
923.0
923.0
922.0
920.0
920.0
916.0
918.0
918.0
916.0
918.0
919.0
923.0
922.0
923.0
923.0
920.0
921.0
919.0
917.0
918.0
920.0
920.0
923.0
926.0
924.0
926.0
926.0
925.0
927.0
927.0
926.0
925.0
927.0
930.0
932.0
933.0
936.0
938.0
935.0
937.0
937.0
940.0
940.0
943.0
944.0
948.0
950.0
953.0
954.0
952.0
949.0
945.0
943.0
940.0
939.0
938.0
935.0
934.0
933.0
932.0
932.0
928.0
925.0
923.0
918.0
913.0
909.0
908.0
909.0
910.0
911.0
914.0
916.0
916.0
914.0
915.0
912.0
912.0
912.0
912.0
913.0
915.0
914.0
918.0
921.0
923.0
923.0
924.0
925.0
929.0
935.0
943.0
954.0
970.0
987.0
1004.0
1027.0
1051.0
1077.0
1111.0
1142.0
1173.0
1201.0
1227.0
1255.0
1283.0
1315.0
1326.0
1302.0
1244.0
1158.0
1060.0
969.0
900.0
862.0
851.0
856.0
868.0
882.0
892.0
895.0
898.0
899.0
897.0
895.0
890.0
891.0
890.0
888.0
890.0
890.0
892.0
892.0
891.0
890.0
887.0
888.0
887.0
885.0
884.0
883.0
885.0
886.0
887.0
886.0
885.0
885.0
883.0
881.0
880.0
878.0
878.0
877.0
878.0
878.0
878.0
881.0
878.0
876.0
875.0
871.0
871.0
869.0
868.0
867.0
868.0
866.0
868.0
869.0
867.0
866.0
864.0
861.0
863.0
859.0
858.0
858.0
858.0
857.0
858.0
860.0
856.0
854.0
854.0
852.0
851.0
852.0
852.0
853.0
855.0
855.0
860.0
863.0
864.0
864.0
861.0
865.0
865.0
867.0
870.0
874.0
880.0
883.0
888.0
890.0
898.0
899.0
901.0
904.0
905.0
908.0
910.0
911.0
913.0
917.0
920.0
921.0
921.0
921.0
920.0
919.0
917.0
916.0
920.0
918.0
921.0
923.0
925.0
925.0
924.0
925.0
925.0
920.0
918.0
920.0
917.0
920.0
920.0
919.0
921.0
921.0
919.0
918.0
917.0
918.0
914.0
913.0
916.0
914.0
914.0
913.0
915.0
915.0
913.0
911.0
911.0
912.0
908.0
905.0
909.0
910.0
911.0
912.0
917.0
917.0
919.0
919.0
916.0
911.0
908.0
907.0
911.0
918.0
930.0
949.0
973.0
1002.0
1027.0
1045.0
1060.0
1071.0
1073.0
1072.0
1064.0
1050.0
1026.0
1002.0
977.0
959.0
940.0
924.0
904.0
879.0
851.0
824.0
800.0
787.0
779.0
777.0
784.0
791.0
800.0
807.0
810.0
814.0
814.0
816.0
817.0
821.0
826.0
832.0
838.0
844.0
848.0
854.0
860.0
865.0
870.0
879.0
886.0
893.0
900.0
905.0
910.0
912.0
912.0
913.0
908.0
908.0
908.0
907.0
910.0
910.0
911.0
915.0
913.0
916.0
914.0
915.0
913.0
911.0
909.0
911.0
909.0
911.0
912.0
913.0
915.0
917.0
917.0
916.0
914.0
914.0
915.0
916.0
917.0
919.0
923.0
924.0
927.0
930.0
932.0
936.0
938.0
942.0
943.0
949.0
952.0
955.0
960.0
967.0
973.0
978.0
984.0
990.0
993.0
998.0
1002.0
1004.0
1008.0
1012.0
1015.0
1016.0
1023.0
1026.0
1027.0
1030.0
1028.0
1028.0
1025.0
1025.0
1023.0
1023.0
1023.0
1025.0
1022.0
1020.0
1017.0
1012.0
1006.0
1004.0
998.0
994.0
989.0
986.0
984.0
980.0
978.0
976.0
970.0
966.0
961.0
958.0
954.0
954.0
949.0
948.0
949.0
947.0
946.0
944.0
944.0
943.0
941.0
939.0
937.0
936.0
937.0
936.0
940.0
938.0
940.0
940.0
939.0
941.0
940.0
938.0
937.0
935.0
936.0
936.0
932.0
936.0
936.0
938.0
937.0
939.0
939.0
937.0
938.0
935.0
936.0
935.0
936.0
937.0
937.0
936.0
937.0
936.0
935.0
934.0
932.0
931.0
929.0
932.0
930.0
935.0
938.0
937.0
935.0
934.0
931.0
931.0
930.0
929.0
929.0
928.0
928.0
932.0
935.0
934.0
933.0
935.0
930.0
929.0
930.0
928.0
929.0
927.0
930.0
932.0
931.0
932.0
932.0
932.0
931.0
931.0
932.0
928.0
928.0
929.0
929.0
932.0
932.0
933.0
932.0
933.0
930.0
930.0
928.0
928.0
928.0
929.0
930.0
929.0
932.0
933.0
936.0
935.0
933.0
935.0
933.0
934.0
933.0
937.0
938.0
939.0
942.0
943.0
943.0
946.0
945.0
946.0
946.0
949.0
952.0
952.0
955.0
957.0
960.0
963.0
960.0
960.0
955.0
952.0
947.0
945.0
941.0
937.0
938.0
934.0
935.0
935.0
931.0
928.0
923.0
921.0
917.0
919.0
918.0
920.0
922.0
923.0
925.0
928.0
926.0
928.0
928.0
927.0
927.0
927.0
930.0
931.0
937.0
943.0
949.0
959.0
970.0
984.0
1002.0
1020.0
1045.0
1078.0
1116.0
1151.0
1186.0
1214.0
1235.0
1252.0
1272.0
1296.0
1312.0
1304.0
1271.0
1211.0
1131.0
1046.0
968.0
911.0
875.0
863.0
863.0
871.0
881.0
888.0
893.0
898.0
902.0
901.0
900.0
899.0
901.0
900.0
897.0
897.0
897.0
896.0
893.0
888.0
889.0
891.0
892.0
894.0
894.0
896.0
895.0
894.0
892.0
891.0
888.0
887.0
888.0
887.0
888.0
887.0
889.0
890.0
886.0
887.0
882.0
882.0
880.0
879.0
880.0
879.0
879.0
878.0
878.0
875.0
879.0
877.0
876.0
873.0
874.0
868.0
867.0
870.0
869.0
869.0
870.0
869.0
867.0
864.0
863.0
861.0
857.0
856.0
859.0
857.0
859.0
861.0
863.0
863.0
862.0
864.0
863.0
864.0
861.0
862.0
864.0
865.0
867.0
869.0
869.0
873.0
875.0
880.0
880.0
883.0
885.0
890.0
893.0
896.0
900.0
906.0
908.0
914.0
915.0
918.0
921.0
918.0
919.0
918.0
920.0
922.0
921.0
925.0
926.0
925.0
925.0
926.0
926.0
924.0
923.0
922.0
923.0
923.0
924.0
924.0
926.0
926.0
925.0
925.0
923.0
922.0
919.0
918.0
919.0
917.0
920.0
918.0
920.0
920.0
921.0
917.0
918.0
914.0
913.0
911.0
911.0
912.0
913.0
913.0
914.0
916.0
917.0
917.0
916.0
915.0
914.0
910.0
912.0
907.0
902.0
903.0
906.0
914.0
931.0
954.0
981.0
1012.0
1035.0
1055.0
1066.0
1065.0
1053.0
1028.0
993.0
958.0
926.0
903.0
877.0
853.0
825.0
796.0
767.0
752.0
741.0
739.0
752.0
764.0
776.0
787.0
797.0
799.0
803.0
803.0
807.0
809.0
819.0
829.0
839.0
847.0
855.0
861.0
868.0
873.0
879.0
882.0
890.0
894.0
901.0
903.0
908.0
908.0
910.0
910.0
906.0
908.0
904.0
903.0
902.0
903.0
905.0
907.0
910.0
910.0
912.0
911.0
908.0
908.0
906.0
906.0
906.0
907.0
910.0
911.0
912.0
914.0
916.0
914.0
912.0
909.0
911.0
912.0
914.0
917.0
921.0
925.0
926.0
930.0
934.0
939.0
943.0
946.0
950.0
954.0
960.0
965.0
969.0
976.0
983.0
988.0
993.0
999.0
1002.0
1008.0
1008.0
1013.0
1015.0
1020.0
1023.0
1029.0
1032.0
1036.0
1037.0
1037.0
1038.0
1035.0
1034.0
1033.0
1032.0
1030.0
1030.0
1030.0
1029.0
1029.0
1026.0
1022.0
1020.0
1015.0
1011.0
1009.0
1001.0
1000.0
997.0
997.0
994.0
991.0
987.0
984.0
980.0
976.0
971.0
965.0
961.0
961.0
958.0
958.0
956.0
958.0
954.0
953.0
949.0
947.0
945.0
942.0
942.0
940.0
941.0
942.0
941.0
942.0
942.0
942.0
938.0
941.0
939.0
934.0
937.0
939.0
938.0
940.0
940.0
941.0
941.0
938.0
939.0
939.0
937.0
937.0
933.0
936.0
939.0
940.0
939.0
942.0
942.0
943.0
940.0
937.0
937.0
935.0
936.0
935.0
934.0
938.0
938.0
938.0
937.0
935.0
935.0
935.0
930.0
932.0
931.0
933.0
931.0
930.0
934.0
935.0
936.0
935.0
933.0
931.0
932.0
930.0
929.0
932.0
928.0
932.0
935.0
934.0
935.0
936.0
934.0
934.0
931.0
929.0
932.0
929.0
930.0
933.0
935.0
935.0
931.0
930.0
930.0
928.0
930.0
930.0
929.0
931.0
931.0
931.0
933.0
932.0
929.0
932.0
928.0
927.0
930.0
927.0
930.0
929.0
931.0
933.0
933.0
933.0
934.0
934.0
932.0
930.0
932.0
929.0
933.0
935.0
936.0
937.0
938.0
941.0
939.0
939.0
939.0
938.0
940.0
939.0
940.0
940.0
944.0
949.0
952.0
953.0
955.0
958.0
956.0
958.0
956.0
956.0
956.0
956.0
954.0
953.0
953.0
952.0
948.0
945.0
943.0
939.0
935.0
932.0
931.0
929.0
927.0
923.0
925.0
923.0
924.0
923.0
924.0
922.0
922.0
921.0
921.0
923.0
923.0
923.0
926.0
929.0
929.0
932.0
934.0
935.0
939.0
944.0
954.0
965.0
983.0
1004.0
1028.0
1058.0
1091.0
1128.0
1163.0
1195.0
1219.0
1241.0
1265.0
1295.0
1321.0
1329.0
1308.0
1257.0
1179.0
1089.0
1002.0
932.0
887.0
864.0
864.0
874.0
883.0
891.0
899.0
903.0
902.0
902.0
901.0
899.0
898.0
898.0
895.0
894.0
894.0
891.0
894.0
894.0
893.0
892.0
890.0
889.0
889.0
888.0
889.0
888.0
887.0
887.0
890.0
888.0
889.0
887.0
886.0
882.0
881.0
880.0
877.0
879.0
879.0
879.0
879.0
879.0
880.0
876.0
875.0
873.0
873.0
868.0
867.0
866.0
866.0
867.0
866.0
868.0
867.0
865.0
862.0
859.0
858.0
856.0
854.0
854.0
856.0
856.0
855.0
855.0
854.0
854.0
853.0
852.0
852.0
850.0
852.0
854.0
855.0
857.0
858.0
861.0
862.0
863.0
862.0
863.0
863.0
865.0
868.0
869.0
871.0
875.0
879.0
884.0
890.0
890.0
895.0
896.0
898.0
901.0
904.0
907.0
909.0
910.0
914.0
914.0
914.0
917.0
914.0
