# Simple Text Format
# Sampling Rate (Hz):= 360.00
# Resolution:= 12
# Labels:= ECG
896.0
891.0
890.0
890.0
893.0
900.0
919.0
941.0
971.0
999.0
1023.0
1041.0
1055.0
1066.0
1068.0
1060.0
1044.0
1018.0
989.0
964.0
945.0
924.0
910.0
890.0
864.0
838.0
811.0
790.0
774.0
768.0
764.0
770.0
780.0
788.0
796.0
803.0
810.0
810.0
810.0
810.0
810.0
815.0
821.0
825.0
831.0
836.0
841.0
847.0
850.0
857.0
867.0
872.0
877.0
880.0
884.0
885.0
887.0
887.0
890.0
888.0
888.0
885.0
888.0
889.0
889.0
891.0
890.0
888.0
887.0
888.0
885.0
885.0
886.0
887.0
886.0
887.0
890.0
888.0
887.0
885.0
886.0
884.0
880.0
884.0
885.0
886.0
887.0
888.0
889.0
891.0
893.0
892.0
893.0
892.0
890.0
894.0
898.0
900.0
905.0
910.0
915.0
920.0
925.0
929.0
934.0
936.0
940.0
941.0
948.0
951.0
956.0
960.0
968.0
975.0
977.0
980.0
982.0
984.0
985.0
991.0
992.0
995.0
996.0
1000.0
1001.0
1002.0
1002.0
1000.0
998.0
995.0
993.0
992.0
992.0
989.0
986.0
986.0
982.0
980.0
975.0
968.0
966.0
962.0
955.0
953.0
948.0
946.0
946.0
943.0
940.0
936.0
936.0
929.0
928.0
925.0
922.0
920.0
918.0
918.0
919.0
916.0
917.0
916.0
917.0
916.0
916.0
912.0
912.0
911.0
911.0
911.0
913.0
914.0
916.0
910.0
911.0
911.0
911.0
909.0
907.0
909.0
910.0
911.0
910.0
913.0
911.0
913.0
914.0
912.0
912.0
911.0
911.0
912.0
910.0
912.0
912.0
912.0
916.0
916.0
914.0
910.0
909.0
908.0
906.0
907.0
906.0
910.0
911.0
911.0
912.0
913.0
912.0
910.0
910.0
907.0
906.0
906.0
907.0
908.0
908.0
910.0
908.0
908.0
910.0
908.0
903.0
903.0
905.0
906.0
907.0
906.0
907.0
908.0
910.0
910.0
909.0
909.0
906.0
906.0
904.0
904.0
906.0
906.0
906.0
907.0
909.0
907.0
908.0
903.0
905.0
904.0
904.0
902.0
905.0
904.0
906.0
908.0
908.0
910.0
908.0
906.0
906.0
904.0
903.0
904.0
904.0
904.0
905.0
907.0
909.0
909.0
909.0
908.0
906.0
906.0
904.0
904.0
906.0
911.0
912.0
914.0
915.0
914.0
913.0
912.0
910.0
915.0
914.0
913.0
914.0
915.0
921.0
922.0
926.0
931.0
930.0
933.0
935.0
934.0
933.0
932.0
929.0
930.0
930.0
928.0
929.0
927.0
923.0
919.0
916.0
912.0
910.0
907.0
902.0
900.0
898.0
897.0
898.0
898.0
896.0
895.0
896.0
892.0
890.0
895.0
895.0
898.0
900.0
901.0
904.0
905.0
905.0
901.0
902.0
905.0
905.0
911.0
915.0
924.0
932.0
947.0
967.0
988.0
1008.0
1035.0
1062.0
1095.0
1127.0
1158.0
1184.0
1206.0
1229.0
1262.0
1290.0
1306.0
1295.0
1252.0
1179.0
1092.0
1001.0
924.0
876.0
849.0
844.0
850.0
861.0
871.0
876.0
881.0
883.0
881.0
877.0
873.0
873.0
875.0
873.0
873.0
872.0
874.0
874.0
874.0
870.0
868.0
867.0
868.0
867.0
866.0
867.0
870.0
870.0
870.0
868.0
868.0
865.0
864.0
862.0
862.0
860.0
863.0
861.0
862.0
864.0
863.0
864.0
863.0
860.0
857.0
856.0
852.0
854.0
852.0
852.0
851.0
850.0
849.0
850.0
848.0
847.0
843.0
843.0
843.0
841.0
842.0
842.0
841.0
844.0
842.0
844.0
840.0
837.0
836.0
835.0
834.0
835.0
833.0
837.0
839.0
838.0
840.0
841.0
840.0
841.0
840.0
837.0
840.0
842.0
845.0
848.0
853.0
854.0
859.0
860.0
865.0
866.0
867.0
869.0
874.0
877.0
879.0
885.0
888.0
893.0
896.0
898.0
899.0
896.0
900.0
898.0
898.0
901.0
903.0
905.0
905.0
907.0
907.0
908.0
908.0
904.0
902.0
904.0
903.0
903.0
908.0
908.0
910.0
911.0
910.0
909.0
908.0
908.0
905.0
902.0
903.0
904.0
903.0
904.0
902.0
905.0
904.0
904.0
904.0
901.0
902.0
898.0
898.0
897.0
898.0
897.0
900.0
898.0
898.0
895.0
893.0
894.0
894.0
892.0
896.0
894.0
896.0
896.0
893.0
896.0
893.0
895.0
895.0
904.0
918.0
941.0
968.0
998.0
1023.0
1037.0
1048.0
1055.0
1049.0
1035.0
1010.0
979.0
950.0
925.0
902.0
880.0
859.0
833.0
809.0
789.0
775.0
767.0
767.0
772.0
781.0
789.0
795.0
805.0
810.0
813.0
816.0
819.0
822.0
829.0
835.0
843.0
849.0
852.0
860.0
864.0
871.0
879.0
885.0
893.0
895.0
897.0
897.0
895.0
893.0
894.0
894.0
892.0
894.0
896.0
895.0
898.0
897.0
898.0
896.0
895.0
893.0
895.0
896.0
895.0
894.0
897.0
897.0
899.0
901.0
901.0
900.0
900.0
900.0
896.0
898.0
900.0
901.0
907.0
913.0
915.0
918.0
920.0
922.0
925.0
927.0
929.0
933.0
938.0
946.0
953.0
958.0
966.0
971.0
975.0
977.0
983.0
986.0
989.0
995.0
995.0
1000.0
1007.0
1010.0
1014.0
1018.0
1020.0
1019.0
1019.0
1018.0
1017.0
1014.0
1014.0
1012.0
1012.0
1011.0
1011.0
1007.0
1004.0
1000.0
998.0
993.0
989.0
983.0
982.0
978.0
972.0
969.0
965.0
963.0
962.0
957.0
952.0
947.0
941.0
937.0
937.0
936.0
936.0
933.0
934.0
931.0
933.0
930.0
928.0
927.0
926.0
923.0
923.0
925.0
924.0
927.0
927.0
927.0
930.0
925.0
923.0
923.0
925.0
925.0
924.0
925.0
926.0
928.0
927.0
927.0
927.0
924.0
924.0
924.0
925.0
924.0
924.0
927.0
924.0
926.0
928.0
927.0
926.0
925.0
924.0
922.0
921.0
919.0
919.0
919.0
921.0
923.0
924.0
924.0
924.0
923.0
923.0
921.0
922.0
921.0
920.0
920.0
920.0
921.0
922.0
922.0
923.0
921.0
919.0
920.0
921.0
920.0
918.0
920.0
923.0
922.0
925.0
923.0
924.0
923.0
921.0
920.0
918.0
918.0
920.0
919.0
920.0
921.0
921.0
922.0
922.0
920.0
920.0
918.0
918.0
918.0
919.0
919.0
922.0
923.0
922.0
922.0
922.0
922.0
922.0
922.0
920.0
920.0
920.0
924.0
926.0
928.0
930.0
930.0
930.0
927.0
927.0
926.0
926.0
928.0
930.0
930.0
934.0
934.0
937.0
937.0
940.0
941.0
941.0
941.0
943.0
943.0
945.0
947.0
948.0
950.0
948.0
944.0
944.0
942.0
940.0
934.0
931.0
927.0
926.0
925.0
924.0
923.0
922.0
919.0
918.0
915.0
913.0
913.0
912.0
912.0
914.0
914.0
916.0
916.0
918.0
920.0
923.0
924.0
924.0
922.0
925.0
926.0
931.0
936.0
944.0
955.0
971.0
989.0
1010.0
1034.0
1059.0
1088.0
1122.0
1151.0
1179.0
1197.0
1212.0
1230.0
1250.0
1274.0
1292.0
1287.0
1256.0
1198.0
1122.0
1040.0
966.0
910.0
872.0
857.0
854.0
864.0
874.0
886.0
889.0
892.0
893.0
892.0
891.0
893.0
892.0
889.0
891.0
890.0
892.0
890.0
889.0
888.0
888.0
888.0
886.0
886.0
887.0
886.0
890.0
887.0
887.0
886.0
885.0
883.0
883.0
879.0
880.0
880.0
880.0
880.0
879.0
878.0
877.0
875.0
876.0
874.0
873.0
871.0
871.0
871.0
870.0
868.0
870.0
869.0
867.0
866.0
864.0
860.0
859.0
860.0
858.0
857.0
857.0
859.0
860.0
860.0
858.0
856.0
857.0
857.0
855.0
856.0
855.0
853.0
854.0
858.0
857.0
861.0
859.0
860.0
858.0
859.0
859.0
860.0
859.0
864.0
870.0
869.0
874.0
878.0
882.0
888.0
891.0
894.0
894.0
897.0
902.0
903.0
908.0
912.0
915.0
917.0
919.0
919.0
918.0
919.0
918.0
917.0
917.0
917.0
920.0
919.0
920.0
919.0
917.0
919.0
915.0
912.0
913.0
914.0
914.0
914.0
916.0
917.0
916.0
915.0
914.0
915.0
914.0
913.0
910.0
910.0
910.0
909.0
911.0
911.0
910.0
910.0
909.0
908.0
906.0
906.0
906.0
906.0
903.0
908.0
908.0
909.0
913.0
913.0
915.0
913.0
913.0
910.0
904.0
900.0
896.0
891.0
894.0
897.0
906.0
919.0
941.0
966.0
994.0
1021.0
1040.0
1053.0
1063.0
1066.0
1064.0
1047.0
1020.0
990.0
959.0
932.0
906.0
880.0
853.0
823.0
794.0
770.0
756.0
753.0
755.0
766.0
776.0
788.0
795.0
802.0
806.0
805.0
806.0
811.0
817.0
824.0
832.0
841.0
847.0
854.0
859.0
865.0
871.0
874.0
878.0
884.0
890.0
893.0
899.0
898.0
902.0
901.0
900.0
900.0
897.0
896.0
898.0
900.0
901.0
902.0
904.0
904.0
905.0
903.0
901.0
901.0
901.0
900.0
898.0
900.0
900.0
903.0
904.0
904.0
904.0
901.0
903.0
902.0
900.0
900.0
902.0
903.0
904.0
908.0
910.0
912.0
915.0
916.0
920.0
922.0
926.0
931.0
936.0
943.0
948.0
955.0
961.0
968.0
973.0
976.0
979.0
985.0
988.0
993.0
997.0
1003.0
1007.0
1012.0
1014.0
1017.0
1020.0
1019.0
1024.0
1022.0
1020.0
1021.0
1019.0
1017.0
1016.0
1016.0
1016.0
1014.0
1012.0
1009.0
1004.0
1001.0
997.0
993.0
988.0
986.0
983.0
980.0
979.0
975.0
973.0
968.0
964.0
961.0
957.0
952.0
949.0
948.0
948.0
945.0
943.0
942.0
939.0
938.0
935.0
931.0
929.0
929.0
927.0
927.0
930.0
933.0
929.0
931.0
929.0
930.0
930.0
927.0
928.0
927.0
927.0
926.0
926.0
927.0
926.0
928.0
930.0
928.0
923.0
925.0
926.0
924.0
924.0
924.0
925.0
928.0
931.0
931.0
928.0
927.0
926.0
925.0
923.0
924.0
923.0
925.0
925.0
925.0
926.0
927.0
925.0
923.0
921.0
920.0
920.0
919.0
918.0
921.0
923.0
922.0
925.0
924.0
923.0
920.0
919.0
920.0
919.0
919.0
919.0
921.0
921.0
919.0
921.0
923.0
922.0
923.0
919.0
919.0
919.0
919.0
917.0
918.0
919.0
920.0
921.0
919.0
919.0
918.0
915.0
912.0
914.0
917.0
917.0
915.0
918.0
917.0
918.0
920.0
921.0
919.0
916.0
916.0
918.0
918.0
918.0
919.0
920.0
922.0
922.0
924.0
925.0
926.0
924.0
923.0
923.0
921.0
923.0
923.0
927.0
930.0
932.0
932.0
935.0
934.0
935.0
938.0
938.0
938.0
939.0
942.0
943.0
945.0
946.0
949.0
946.0
946.0
941.0
938.0
935.0
934.0
929.0
927.0
925.0
922.0
924.0
920.0
917.0
914.0
909.0
908.0
901.0
904.0
903.0
904.0
907.0
907.0
909.0
911.0
909.0
910.0
911.0
908.0
908.0
909.0
908.0
908.0
911.0
914.0
918.0
921.0
925.0
929.0
938.0
949.0
961.0
977.0
995.0
1022.0
1049.0
1080.0
1114.0
1144.0
1171.0
1194.0
1212.0
1233.0
1261.0
1287.0
1301.0
1292.0
1254.0
1194.0
1115.0
1032.0
962.0
907.0
874.0
862.0
861.0
863.0
873.0
878.0
879.0
885.0
884.0
886.0
886.0
886.0
883.0
883.0
880.0
879.0
879.0
880.0
879.0
882.0
882.0
883.0
880.0
879.0
877.0
876.0
876.0
872.0
873.0
873.0
874.0
874.0
876.0
875.0
875.0
871.0
870.0
870.0
868.0
866.0
865.0
866.0
866.0
867.0
867.0
868.0
866.0
865.0
862.0
858.0
856.0
854.0
854.0
854.0
856.0
855.0
855.0
856.0
851.0
852.0
848.0
846.0
843.0
840.0
840.0
839.0
838.0
843.0
844.0
841.0
843.0
838.0
838.0
837.0
837.0
835.0
836.0
837.0
838.0
841.0
842.0
845.0
845.0
844.0
844.0
844.0
846.0
846.0
849.0
851.0
855.0
859.0
865.0
868.0
872.0
873.0
872.0
877.0
881.0
881.0
885.0
888.0
893.0
894.0
898.0
902.0
903.0
903.0
901.0
903.0
901.0
902.0
904.0
902.0
907.0
908.0
910.0
909.0
907.0
906.0
908.0
906.0
903.0
903.0
903.0
903.0
904.0
904.0
905.0
905.0
905.0
905.0
901.0
900.0
900.0
897.0
897.0
898.0
898.0
899.0
899.0
900.0
898.0
898.0
897.0
895.0
895.0
894.0
893.0
895.0
897.0
898.0
901.0
901.0
900.0
898.0
896.0
893.0
891.0
888.0
892.0
898.0
909.0
928.0
953.0
979.0
1008.0
1030.0
1048.0
1058.0
1064.0
1060.0
1050.0
1026.0
1002.0
974.0
951.0
932.0
914.0
897.0
875.0
848.0
825.0
805.0
787.0
778.0
777.0
780.0
789.0
795.0
801.0
806.0
808.0
808.0
807.0
811.0
813.0
818.0
827.0
833.0
840.0
847.0
851.0
857.0
862.0
867.0
871.0
877.0
882.0
886.0
892.0
894.0
896.0
896.0
895.0
895.0
896.0
894.0
892.0
893.0
894.0
895.0
897.0
897.0
899.0
899.0
897.0
894.0
896.0
893.0
895.0
895.0
894.0
896.0
898.0
897.0
898.0
899.0
897.0
897.0
897.0
897.0
896.0
896.0
896.0
895.0
897.0
899.0
900.0
907.0
907.0
910.0
911.0
912.0
915.0
918.0
922.0
926.0
931.0
935.0
941.0
947.0
952.0
956.0
960.0
964.0
969.0
974.0
977.0
982.0
989.0
992.0
999.0
1001.0
1007.0
1009.0
1010.0
1012.0
1012.0
1012.0
1014.0
1013.0
1014.0
1015.0
1012.0
1014.0
1011.0
1012.0
1007.0
1005.0
1001.0
999.0
993.0
989.0
986.0
985.0
984.0
982.0
979.0
979.0
973.0
968.0
964.0
960.0
958.0
953.0
953.0
950.0
948.0
948.0
944.0
941.0
939.0
938.0
935.0
933.0
933.0
932.0
932.0
933.0
933.0
934.0
934.0
932.0
930.0
931.0
928.0
926.0
927.0
928.0
929.0
929.0
931.0
933.0
932.0
931.0
929.0
929.0
929.0
927.0
927.0
924.0
926.0
928.0
929.0
930.0
930.0
927.0
927.0
927.0
926.0
926.0
927.0
927.0
927.0
928.0
927.0
926.0
928.0
929.0
925.0
924.0
923.0
924.0
925.0
925.0
924.0
925.0
924.0
927.0
927.0
927.0
926.0
922.0
924.0
922.0
922.0
923.0
926.0
926.0
927.0
927.0
926.0
924.0
923.0
921.0
920.0
922.0
923.0
923.0
925.0
925.0
927.0
928.0
927.0
927.0
926.0
924.0
922.0
923.0
924.0
925.0
925.0
924.0
927.0
930.0
930.0
929.0
928.0
927.0
928.0
930.0
929.0
930.0
934.0
936.0
938.0
938.0
937.0
939.0
939.0
937.0
939.0
940.0
941.0
947.0
949.0
950.0
956.0
958.0
959.0
957.0
954.0
952.0
949.0
946.0
946.0
943.0
943.0
941.0
938.0
936.0
933.0
932.0
929.0
927.0
922.0
917.0
917.0
918.0
919.0
921.0
921.0
922.0
919.0
920.0
922.0
921.0
920.0
919.0
922.0
922.0
925.0
926.0
928.0
930.0
934.0
936.0
938.0
944.0
952.0
963.0
979.0
998.0
1022.0
1051.0
1085.0
1121.0
1161.0
1192.0
1219.0
1241.0
1265.0
1294.0
1313.0
1304.0
1263.0
1192.0
1107.0
1020.0
940.0
890.0
863.0
859.0
862.0
873.0
884.0
893.0
899.0
903.0
905.0
907.0
905.0
906.0
903.0
901.0
898.0
896.0
896.0
898.0
899.0
899.0
899.0
900.0
898.0
898.0
896.0
894.0
893.0
892.0
893.0
892.0
892.0
892.0
893.0
892.0
892.0
888.0
888.0
885.0
883.0
884.0
884.0
883.0
881.0
883.0
877.0
880.0
881.0
880.0
878.0
878.0
876.0
875.0
874.0
873.0
875.0
871.0
871.0
873.0
869.0
867.0
867.0
864.0
862.0
860.0
861.0
860.0
860.0
861.0
862.0
862.0
863.0
862.0
863.0
863.0
864.0
862.0
861.0
862.0
865.0
867.0
872.0
875.0
876.0
878.0
880.0
881.0
883.0
885.0
889.0
896.0
897.0
902.0
907.0
908.0
912.0
916.0
914.0
919.0
920.0
920.0
922.0
924.0
926.0
926.0
928.0
929.0
930.0
930.0
929.0
931.0
929.0
928.0
929.0
929.0
930.0
932.0
933.0
934.0
931.0
932.0
928.0
930.0
926.0
926.0
926.0
926.0
925.0
925.0
930.0
928.0
927.0
924.0
922.0
920.0
919.0
919.0
917.0
919.0
920.0
920.0
923.0
926.0
925.0
926.0
927.0
928.0
927.0
925.0
920.0
915.0
910.0
909.0
911.0
914.0
920.0
935.0
953.0
979.0
1005.0
1028.0
1048.0
1064.0
1072.0
1073.0
1063.0
1046.0
1014.0
982.0
951.0
926.0
906.0
883.0
861.0
835.0
805.0
781.0
759.0
749.0
751.0
756.0
764.0
771.0
781.0
790.0
797.0
800.0
804.0
808.0
815.0
824.0
832.0
841.0
849.0
856.0
863.0
871.0
875.0
883.0
891.0
901.0
908.0
913.0
915.0
915.0
915.0
915.0
912.0
911.0
911.0
910.0
913.0
914.0
917.0
918.0
916.0
918.0
918.0
918.0
918.0
916.0
915.0
916.0
916.0
917.0
919.0
921.0
920.0
920.0
919.0
919.0
921.0
920.0
921.0
923.0
926.0
928.0
928.0
931.0
936.0
938.0
936.0
937.0
942.0
943.0
947.0
950.0
956.0
961.0
966.0
971.0
974.0
978.0
980.0
986.0
991.0
994.0
999.0
1005.0
1010.0
1013.0
1022.0
1027.0
1030.0
1033.0
1036.0
1037.0
1039.0
1040.0
1040.0
1040.0
1042.0
1043.0
1043.0
1043.0
1041.0
1040.0
1036.0
1033.0
1027.0
1024.0
1019.0
1019.0
1016.0
1014.0
1009.0
1007.0
1000.0
995.0
992.0
986.0
982.0
978.0
975.0
973.0
971.0
970.0
969.0
966.0
964.0
962.0
962.0
958.0
955.0
953.0
954.0
954.0
954.0
954.0
953.0
953.0
952.0
952.0
951.0
950.0
947.0
948.0
947.0
948.0
950.0
949.0
949.0
949.0
949.0
950.0
949.0
946.0
946.0
948.0
947.0
948.0
949.0
948.0
950.0
950.0
945.0
946.0
944.0
943.0
942.0
940.0
945.0
946.0
946.0
946.0
949.0
947.0
946.0
943.0
945.0
942.0
940.0
939.0
941.0
940.0
943.0
942.0
944.0
944.0
944.0
943.0
944.0
944.0
941.0
940.0
940.0
938.0
942.0
942.0
942.0
946.0
944.0
943.0
941.0
939.0
938.0
940.0
938.0
938.0
940.0
941.0
945.0
945.0
941.0
942.0
942.0
940.0
941.0
940.0
938.0
938.0
939.0
942.0
943.0
944.0
944.0
945.0
944.0
942.0
939.0
936.0
937.0
938.0
941.0
941.0
948.0
950.0
949.0
949.0
948.0
948.0
948.0
947.0
945.0
949.0
951.0
954.0
955.0
960.0
962.0
962.0
963.0
964.0
964.0
965.0
963.0
962.0
965.0
964.0
963.0
964.0
963.0
957.0
953.0
952.0
948.0
944.0
943.0
941.0
940.0
936.0
936.0
934.0
935.0
930.0
930.0
933.0
930.0
928.0
930.0
927.0
932.0
931.0
934.0
937.0
936.0
938.0
937.0
938.0
937.0
937.0
940.0
941.0
946.0
951.0
958.0
966.0
975.0
987.0
999.0
1017.0
1034.0
1057.0
1084.0
1117.0
1149.0
1185.0
1212.0
1236.0
1257.0
1277.0
1305.0
1328.0
1324.0
1291.0
1225.0
1137.0
1042.0
962.0
906.0
878.0
871.0
877.0
888.0
898.0
902.0
908.0
905.0
904.0
904.0
907.0
905.0
905.0
902.0
901.0
901.0
898.0
898.0
896.0
896.0
896.0
897.0
897.0
898.0
897.0
897.0
895.0
895.0
894.0
890.0
890.0
891.0
892.0
890.0
889.0
889.0
889.0
891.0
889.0
887.0
885.0
885.0
881.0
880.0
882.0
881.0
879.0
880.0
882.0
882.0
879.0
878.0
875.0
871.0
870.0
867.0
866.0
867.0
869.0
868.0
869.0
868.0
866.0
867.0
864.0
860.0
859.0
858.0
856.0
857.0
857.0
858.0
860.0
859.0
858.0
857.0
856.0
855.0
853.0
856.0
857.0
858.0
861.0
866.0
870.0
871.0
875.0
874.0
875.0
875.0
876.0
880.0
887.0
893.0
895.0
900.0
906.0
907.0
912.0
911.0
912.0
913.0
911.0
914.0
916.0
916.0
918.0
923.0
923.0
924.0
925.0
925.0
924.0
922.0
921.0
920.0
922.0
922.0
923.0
925.0
927.0
925.0
923.0
922.0
921.0
917.0
918.0
914.0
917.0
917.0
919.0
920.0
922.0
920.0
918.0
917.0
915.0
911.0
911.0
909.0
910.0
910.0
910.0
913.0
913.0
913.0
910.0
909.0
908.0
906.0
905.0
906.0
907.0
907.0
910.0
910.0
912.0
909.0
906.0
903.0
905.0
910.0
922.0
945.0
973.0
1001.0
1030.0
1054.0
1070.0
1081.0
1085.0
1078.0
1070.0
1047.0
1021.0
993.0
971.0
953.0
937.0
920.0
898.0
866.0
841.0
816.0
797.0
785.0
779.0
782.0
787.0
797.0
805.0
810.0
816.0
816.0
816.0
815.0
814.0
817.0
821.0
828.0
835.0
842.0
847.0
854.0
861.0
867.0
873.0
875.0
881.0
885.0
889.0
894.0
894.0
901.0
901.0
902.0
901.0
900.0
899.0
900.0
898.0
899.0
897.0
898.0
899.0
899.0
901.0
903.0
905.0
902.0
901.0
902.0
898.0
897.0
896.0
897.0
896.0
896.0
897.0
897.0
903.0
902.0
903.0
900.0
902.0
902.0
901.0
901.0
902.0
906.0
907.0
913.0
917.0
918.0
923.0
924.0
927.0
928.0
931.0
934.0
940.0
947.0
952.0
956.0
963.0
966.0
971.0
976.0
980.0
983.0
987.0
991.0
995.0
1000.0
1005.0
1008.0
1010.0
1011.0
1014.0
1013.0
1013.0
1012.0
1008.0
1007.0
1006.0
1005.0
1005.0
1002.0
1003.0
998.0
996.0
991.0
990.0
983.0
978.0
974.0
971.0
969.0
965.0
962.0
960.0
957.0
955.0
949.0
946.0
940.0
937.0
934.0
933.0
933.0
932.0
931.0
932.0
931.0
930.0
927.0
926.0
925.0
922.0
922.0
923.0
926.0
928.0
930.0
928.0
929.0
926.0
927.0
928.0
925.0
924.0
924.0
925.0
925.0
926.0
929.0
929.0
930.0
931.0
928.0
927.0
928.0
925.0
926.0
925.0
927.0
929.0
928.0
928.0
928.0
929.0
928.0
926.0
926.0
923.0
922.0
920.0
921.0
923.0
926.0
928.0
927.0
927.0
925.0
925.0
923.0
922.0
922.0
921.0
924.0
924.0
927.0
926.0
928.0
925.0
923.0
927.0
924.0
923.0
922.0
925.0
927.0
926.0
923.0
924.0
924.0
925.0
926.0
927.0
925.0
922.0
920.0
921.0
921.0
924.0
926.0
926.0
928.0
926.0
926.0
929.0
925.0
925.0
926.0
926.0
928.0
930.0
930.0
932.0
936.0
936.0
935.0
936.0
937.0
937.0
936.0
936.0
940.0
941.0
943.0
947.0
948.0
949.0
953.0
952.0
954.0
954.0
955.0
956.0
956.0
957.0
955.0
956.0
955.0
952.0
948.0
943.0
939.0
934.0
931.0
929.0
929.0
929.0
927.0
926.0
923.0
922.0
919.0
919.0
917.0
917.0
917.0
919.0
921.0
921.0
925.0
927.0
928.0
927.0
929.0
928.0
932.0
931.0
933.0
936.0
943.0
953.0
964.0
981.0
998.0
1020.0
1039.0
1067.0
1097.0
1129.0
1163.0
1193.0
1219.0
1246.0
1269.0
1298.0
1326.0
1337.0
1323.0
1277.0
1207.0
1124.0
1038.0
965.0
914.0
885.0
875.0
879.0
886.0
895.0
901.0
902.0
900.0
901.0
901.0
902.0
904.0
904.0
905.0
905.0
903.0
904.0
901.0
900.0
897.0
896.0
898.0
894.0
895.0
894.0
897.0
901.0
900.0
897.0
898.0
895.0
891.0
891.0
890.0
890.0
891.0
893.0
892.0
890.0
891.0
889.0
887.0
885.0
887.0
882.0
882.0
880.0
883.0
882.0
880.0
881.0
882.0
878.0
876.0
874.0
874.0
870.0
869.0
865.0
867.0
869.0
869.0
869.0
868.0
866.0
865.0
863.0
862.0
860.0
860.0
859.0
859.0
861.0
862.0
862.0
863.0
864.0
863.0
863.0
862.0
862.0
864.0
865.0
865.0
868.0
872.0
874.0
876.0
879.0
879.0
880.0
882.0
885.0
889.0
890.0
896.0
900.0
908.0
908.0
914.0
917.0
918.0
922.0
920.0
922.0
923.0
925.0
927.0
929.0
929.0
933.0
933.0
931.0
931.0
931.0
929.0
930.0
929.0
931.0
931.0
933.0
931.0
934.0
931.0
930.0
928.0
927.0
924.0
925.0
925.0
924.0
924.0
924.0
925.0
926.0
923.0
923.0
923.0
922.0
920.0
919.0
918.0
918.0
919.0
918.0
920.0
921.0
921.0
921.0
920.0
922.0
921.0
920.0
918.0
913.0
913.0
907.0
910.0
912.0
917.0
928.0
946.0
967.0
993.0
1019.0
1039.0
1058.0
1069.0
1074.0
1070.0
1054.0
1025.0
991.0
959.0
931.0
906.0
883.0
856.0
827.0
798.0
777.0
763.0
761.0
764.0
774.0
784.0
793.0
799.0
802.0
804.0
804.0
809.0
818.0
827.0
835.0
841.0
847.0
856.0
863.0
870.0
879.0
886.0
894.0
900.0
908.0
912.0
912.0
913.0
915.0
914.0
913.0
909.0
909.0
910.0
910.0
913.0
912.0
913.0
913.0
913.0
915.0
911.0
911.0
913.0
914.0
914.0
913.0
915.0
914.0
914.0
916.0
916.0
915.0
916.0
915.0
914.0
915.0
917.0
916.0
917.0
921.0
927.0
931.0
933.0
937.0
936.0
941.0
944.0
945.0
951.0
955.0
961.0
968.0
975.0
983.0
986.0
994.0
999.0
1003.0
1008.0
1012.0
1016.0
1019.0
1024.0
1028.0
1029.0
1032.0
1033.0
1034.0
1031.0
1033.0
1028.0
1027.0
1024.0
1023.0
1023.0
1023.0
1019.0
1015.0
1016.0
1012.0
1005.0
1001.0
995.0
992.0
988.0
982.0
981.0
981.0
978.0
976.0
971.0
967.0
961.0
959.0
955.0
952.0
948.0
947.0
944.0
942.0
942.0
943.0
942.0
939.0
937.0
936.0
932.0
930.0
931.0
932.0
931.0
932.0
936.0
937.0
933.0
933.0
931.0
932.0
931.0
930.0
929.0
931.0
930.0
929.0
934.0
935.0
934.0
937.0
936.0
934.0
935.0
934.0
934.0
932.0
931.0
936.0
935.0
938.0
936.0
935.0
932.0
933.0
930.0
930.0
930.0
930.0
931.0
933.0
935.0
933.0
934.0
934.0
934.0
931.0
928.0
928.0
929.0
929.0
930.0
931.0
934.0
935.0
935.0
934.0
933.0
930.0
929.0
928.0
930.0
930.0
930.0
930.0
929.0
932.0
931.0
932.0
930.0
929.0
929.0
928.0
928.0
930.0
931.0
931.0
932.0
933.0
936.0
934.0
934.0
935.0
934.0
929.0
929.0
929.0
931.0
933.0
935.0
934.0
937.0
940.0
939.0
941.0
941.0
941.0
940.0
942.0
944.0
945.0
948.0
949.0
950.0
953.0
955.0
955.0
957.0
958.0
959.0
962.0
963.0
966.0
967.0
969.0
971.0
967.0
965.0
963.0
961.0
956.0
954.0
950.0
950.0
947.0
947.0
950.0
946.0
944.0
942.0
935.0
936.0
935.0
931.0
932.0
933.0
934.0
936.0
939.0
939.0
939.0
940.0
938.0
940.0
938.0
941.0
942.0
946.0
950.0
956.0
964.0
971.0
987.0
1003.0
1021.0
1042.0
1069.0
1101.0
1136.0
1172.0
1209.0
1237.0
1266.0
1295.0
1329.0
1349.0
1345.0
1309.0
1239.0
1148.0
1054.0
972.0
918.0
889.0
884.0
887.0
899.0
908.0
913.0
915.0
914.0
914.0
915.0
914.0
915.0
913.0
914.0
914.0
911.0
907.0
906.0
905.0
906.0
905.0
905.0
904.0
907.0
906.0
907.0
908.0
906.0
905.0
901.0
899.0
901.0
900.0
897.0
899.0
899.0
899.0
900.0
899.0
896.0
898.0
895.0
894.0
893.0
890.0
890.0
890.0
890.0
890.0
889.0
888.0
886.0
883.0
882.0
880.0
877.0
878.0
875.0
875.0
877.0
876.0
876.0
876.0
874.0
873.0
870.0
866.0
865.0
863.0
863.0
864.0
863.0
864.0
865.0
865.0
863.0
863.0
862.0
863.0
863.0
863.0
864.0
865.0
868.0
870.0
873.0
875.0
875.0
875.0
879.0
880.0
880.0
882.0
884.0
886.0
892.0
898.0
901.0
904.0
907.0
910.0
913.0
914.0
917.0
918.0
920.0
922.0
923.0
925.0
929.0
929.0
930.0
930.0
931.0
930.0
930.0
928.0
930.0
930.0
932.0
933.0
934.0
935.0
934.0
935.0
933.0
932.0
929.0
927.0
929.0
928.0
929.0
930.0
933.0
931.0
930.0
929.0
930.0
926.0
922.0
921.0
920.0
919.0
921.0
922.0
923.0
919.0
921.0
920.0
920.0
918.0
916.0
915.0
913.0
914.0
915.0
915.0
920.0
921.0
922.0
923.0
922.0
921.0
916.0
918.0
915.0
917.0
923.0
931.0
949.0
964.0
989.0
1015.0
1036.0
1053.0
1069.0
1079.0
1089.0
1090.0
1087.0
1076.0
1058.0
1034.0
1012.0
993.0
976.0
956.0
939.0
913.0
883.0
854.0
828.0
807.0
796.0
791.0
792.0
795.0
799.0
803.0
806.0
809.0
809.0
810.0
811.0
816.0
825.0
832.0
841.0
851.0
860.0
868.0
877.0
886.0
894.0
900.0
906.0
909.0
911.0
911.0
912.0
909.0
905.0
903.0
903.0
905.0
906.0
905.0
909.0
909.0
910.0
912.0
909.0
907.0
904.0
906.0
906.0
905.0
906.0
907.0
908.0
909.0
910.0
909.0
908.0
908.0
909.0
908.0
908.0
908.0
909.0
911.0
914.0
917.0
923.0
923.0
926.0
927.0
930.0
934.0
938.0
943.0
948.0
952.0
961.0
965.0
971.0
977.0
985.0
992.0
993.0
1000.0
1003.0
1008.0
1011.0
1015.0
1017.0
1023.0
1024.0
1027.0
1026.0
1024.0
1022.0
1019.0
1017.0
1012.0
1008.0
1005.0
1004.0
1001.0
998.0
994.0
991.0
985.0
981.0
975.0
974.0
