# Simple Text Format
# Sampling Rate (Hz):= 360.00
# Resolution:= 12
# Labels:= ECG
970.0
965.0
961.0
960.0
960.0
957.0
957.0
953.0
950.0
946.0
944.0
942.0
943.0
943.0
941.0
940.0
939.0
939.0
938.0
937.0
939.0
936.0
935.0
933.0
932.0
931.0
932.0
933.0
935.0
937.0
940.0
939.0
940.0
939.0
938.0
937.0
936.0
936.0
938.0
938.0
940.0
939.0
941.0
941.0
940.0
940.0
941.0
937.0
937.0
938.0
935.0
940.0
940.0
941.0
941.0
942.0
940.0
936.0
938.0
938.0
934.0
937.0
935.0
936.0
934.0
936.0
935.0
937.0
935.0
935.0
930.0
934.0
936.0
937.0
936.0
937.0
936.0
937.0
937.0
935.0
936.0
934.0
932.0
931.0
931.0
931.0
933.0
933.0
934.0
936.0
936.0
934.0
935.0
933.0
933.0
931.0
930.0
930.0
932.0
935.0
935.0
937.0
939.0
940.0
937.0
936.0
933.0
934.0
935.0
936.0
936.0
942.0
942.0
945.0
945.0
945.0
944.0
945.0
945.0
946.0
949.0
952.0
953.0
955.0
958.0
962.0
964.0
964.0
964.0
961.0
956.0
956.0
954.0
952.0
952.0
952.0
950.0
946.0
946.0
943.0
939.0
935.0
931.0
926.0
923.0
923.0
925.0
927.0
927.0
930.0
929.0
930.0
930.0
929.0
930.0
930.0
929.0
930.0
928.0
930.0
930.0
930.0
934.0
934.0
936.0
939.0
942.0
946.0
955.0
965.0
977.0
990.0
1007.0
1028.0
1049.0
1073.0
1102.0
1134.0
1164.0
1190.0
1212.0
1230.0
1249.0
1271.0
1300.0
1327.0
1341.0
1320.0
1269.0
1192.0
1099.0
1008.0
932.0
883.0
860.0
857.0
866.0
880.0
893.0
897.0
901.0
904.0
905.0
902.0
899.0
896.0
898.0
898.0
898.0
899.0
901.0
899.0
897.0
895.0
894.0
893.0
893.0
893.0
892.0
892.0
894.0
893.0
896.0
895.0
893.0
889.0
888.0
885.0
884.0
885.0
886.0
886.0
886.0
888.0
885.0
883.0
882.0
879.0
877.0
875.0
874.0
873.0
875.0
875.0
876.0
875.0
875.0
872.0
872.0
868.0
866.0
865.0
864.0
862.0
865.0
863.0
863.0
862.0
864.0
863.0
862.0
860.0
860.0
858.0
857.0
857.0
858.0
861.0
863.0
861.0
864.0
866.0
867.0
868.0
869.0
870.0
872.0
873.0
876.0
878.0
883.0
888.0
893.0
898.0
902.0
904.0
908.0
909.0
912.0
914.0
918.0
916.0
919.0
922.0
926.0
925.0
926.0
929.0
926.0
922.0
925.0
926.0
928.0
927.0
929.0
930.0
929.0
930.0
929.0
929.0
927.0
926.0
925.0
927.0
927.0
926.0
928.0
927.0
927.0
926.0
925.0
922.0
920.0
919.0
918.0
919.0
918.0
919.0
919.0
921.0
922.0
921.0
921.0
920.0
919.0
915.0
912.0
912.0
914.0
915.0
918.0
922.0
923.0
920.0
916.0
909.0
903.0
901.0
903.0
911.0
927.0
951.0
980.0
1013.0
1041.0
1062.0
1078.0
1085.0
1080.0
1066.0
1036.0
1003.0
969.0
942.0
920.0
904.0
882.0
857.0
828.0
796.0
772.0
751.0
743.0
744.0
749.0
757.0
768.0
779.0
789.0
793.0
795.0
797.0
800.0
801.0
808.0
817.0
825.0
834.0
841.0
851.0
854.0
861.0
866.0
874.0
878.0
887.0
895.0
901.0
904.0
909.0
911.0
913.0
914.0
913.0
912.0
910.0
909.0
908.0
907.0
906.0
912.0
913.0
915.0
915.0
917.0
915.0
914.0
912.0
911.0
911.0
910.0
911.0
912.0
912.0
915.0
916.0
917.0
916.0
914.0
915.0
917.0
918.0
917.0
916.0
918.0
921.0
925.0
929.0
935.0
936.0
938.0
942.0
943.0
945.0
950.0
953.0
960.0
966.0
972.0
978.0
984.0
988.0
992.0
995.0
1001.0
1003.0
1008.0
1011.0
1017.0
1025.0
1027.0
1033.0
1039.0
1040.0
1037.0
1037.0
1041.0
1041.0
1039.0
1038.0
1038.0
1040.0
1043.0
1043.0
1040.0
1037.0
1033.0
1030.0
1024.0
1020.0
1017.0
1012.0
1009.0
1009.0
1007.0
1002.0
1001.0
999.0
993.0
986.0
980.0
976.0
974.0
972.0
967.0
968.0
967.0
965.0
963.0
961.0
959.0
956.0
955.0
952.0
952.0
951.0
950.0
950.0
952.0
951.0
955.0
953.0
951.0
950.0
950.0
947.0
946.0
946.0
947.0
947.0
949.0
951.0
950.0
950.0
950.0
949.0
945.0
945.0
946.0
948.0
947.0
948.0
950.0
949.0
953.0
950.0
949.0
950.0
948.0
948.0
946.0
946.0
946.0
946.0
947.0
948.0
949.0
948.0
948.0
945.0
947.0
943.0
944.0
943.0
941.0
941.0
942.0
942.0
946.0
944.0
941.0
942.0
942.0
943.0
942.0
942.0
942.0
942.0
941.0
943.0
944.0
944.0
942.0
942.0
941.0
940.0
940.0
941.0
940.0
940.0
942.0
943.0
942.0
942.0
940.0
941.0
939.0
939.0
936.0
938.0
937.0
938.0
938.0
943.0
943.0
943.0
946.0
946.0
945.0
944.0
947.0
945.0
946.0
946.0
947.0
949.0
952.0
952.0
954.0
955.0
957.0
959.0
957.0
959.0
962.0
964.0
967.0
967.0
967.0
968.0
963.0
963.0
961.0
953.0
953.0
951.0
951.0
948.0
947.0
943.0
945.0
942.0
938.0
935.0
931.0
928.0
926.0
925.0
926.0
928.0
927.0
927.0
931.0
929.0
929.0
928.0
931.0
929.0
930.0
930.0
928.0
932.0
937.0
944.0
948.0
955.0
962.0
974.0
986.0
1001.0
1024.0
1047.0
1076.0
1112.0
1149.0
1187.0
1220.0
1245.0
1271.0
1297.0
1329.0
1356.0
1366.0
1347.0
1289.0
1207.0
1115.0
1026.0
954.0
905.0
884.0
876.0
880.0
887.0
893.0
897.0
901.0
903.0
903.0
904.0
905.0
906.0
902.0
901.0
898.0
896.0
895.0
895.0
894.0
893.0
895.0
896.0
896.0
895.0
895.0
891.0
892.0
891.0
889.0
889.0
887.0
887.0
891.0
890.0
888.0
887.0
888.0
886.0
884.0
880.0
877.0
876.0
877.0
877.0
877.0
876.0
874.0
873.0
871.0
873.0
867.0
868.0
864.0
865.0
864.0
860.0
859.0
861.0
862.0
860.0
860.0
856.0
854.0
852.0
850.0
851.0
852.0
852.0
853.0
852.0
856.0
856.0
855.0
856.0
854.0
853.0
850.0
852.0
852.0
853.0
858.0
862.0
864.0
864.0
867.0
864.0
865.0
870.0
872.0
876.0
876.0
880.0
883.0
889.0
895.0
899.0
903.0
904.0
907.0
908.0
908.0
911.0
912.0
915.0
917.0
918.0
919.0
920.0
918.0
919.0
918.0
920.0
919.0
920.0
917.0
919.0
920.0
923.0
923.0
924.0
923.0
920.0
920.0
917.0
916.0
915.0
915.0
914.0
916.0
919.0
919.0
919.0
918.0
916.0
914.0
911.0
908.0
906.0
908.0
909.0
911.0
911.0
910.0
909.0
909.0
910.0
909.0
907.0
906.0
907.0
908.0
911.0
913.0
914.0
913.0
912.0
911.0
914.0
917.0
924.0
939.0
959.0
983.0
1012.0
1036.0
1060.0
1076.0
1087.0
1094.0
1090.0
1080.0
1058.0
1031.0
1006.0
984.0
965.0
947.0
926.0
900.0
871.0
840.0
813.0
796.0
787.0
782.0
783.0
789.0
798.0
805.0
811.0
813.0
813.0
815.0
816.0
821.0
828.0
836.0
844.0
849.0
859.0
866.0
869.0
877.0
881.0
885.0
892.0
896.0
899.0
896.0
899.0
898.0
898.0
900.0
902.0
903.0
902.0
902.0
899.0
901.0
897.0
899.0
896.0
895.0
898.0
899.0
900.0
901.0
901.0
899.0
896.0
899.0
898.0
893.0
894.0
894.0
896.0
897.0
897.0
898.0
897.0
896.0
897.0
897.0
898.0
900.0
900.0
903.0
905.0
911.0
915.0
919.0
924.0
925.0
929.0
933.0
938.0
940.0
949.0
952.0
958.0
969.0
975.0
983.0
988.0
993.0
996.0
999.0
1002.0
1006.0
1005.0
1008.0
1011.0
1015.0
1012.0
1011.0
1012.0
1009.0
1006.0
1004.0
1002.0
998.0
995.0
992.0
989.0
987.0
985.0
982.0
975.0
973.0
967.0
964.0
962.0
960.0
955.0
954.0
952.0
950.0
948.0
944.0
945.0
940.0
938.0
936.0
931.0
929.0
930.0
927.0
930.0
929.0
928.0
930.0
929.0
927.0
926.0
926.0
925.0
925.0
923.0
926.0
927.0
927.0
930.0
929.0
931.0
929.0
928.0
926.0
925.0
928.0
925.0
926.0
928.0
929.0
931.0
931.0
930.0
928.0
928.0
927.0
927.0
927.0
927.0
928.0
928.0
928.0
931.0
929.0
930.0
927.0
926.0
925.0
924.0
923.0
922.0
921.0
926.0
926.0
928.0
929.0
930.0
926.0
926.0
923.0
925.0
922.0
921.0
919.0
923.0
923.0
925.0
925.0
925.0
924.0
925.0
921.0
922.0
921.0
922.0
921.0
922.0
926.0
926.0
927.0
925.0
922.0
922.0
921.0
919.0
919.0
919.0
921.0
923.0
927.0
929.0
930.0
931.0
932.0
931.0
931.0
931.0
930.0
931.0
932.0
934.0
934.0
935.0
937.0
940.0
942.0
942.0
944.0
944.0
947.0
948.0
951.0
951.0
954.0
954.0
951.0
953.0
949.0
950.0
948.0
944.0
939.0
937.0
933.0
933.0
930.0
929.0
928.0
925.0
923.0
920.0
917.0
915.0
913.0
911.0
911.0
913.0
915.0
915.0
917.0
919.0
919.0
920.0
919.0
917.0
916.0
917.0
920.0
922.0
923.0
926.0
931.0
933.0
938.0
940.0
944.0
955.0
967.0
985.0
1007.0
1036.0
1067.0
1102.0
1143.0
1179.0
1208.0
1233.0
1262.0
1289.0
1315.0
1333.0
1323.0
1283.0
1208.0
1116.0
1023.0
944.0
889.0
860.0
856.0
865.0
875.0
889.0
896.0
899.0
903.0
901.0
903.0
900.0
896.0
893.0
892.0
889.0
888.0
892.0
891.0
894.0
893.0
892.0
894.0
895.0
894.0
893.0
892.0
890.0
888.0
887.0
888.0
888.0
889.0
888.0
887.0
889.0
888.0
886.0
884.0
885.0
883.0
879.0
881.0
878.0
883.0
881.0
883.0
882.0
881.0
879.0
877.0
875.0
871.0
871.0
870.0
868.0
868.0
867.0
868.0
869.0
867.0
866.0
864.0
861.0
860.0
858.0
855.0
855.0
858.0
858.0
859.0
861.0
858.0
856.0
856.0
857.0
855.0
857.0
855.0
853.0
858.0
861.0
863.0
864.0
866.0
869.0
867.0
866.0
866.0
874.0
874.0
880.0
885.0
889.0
892.0
894.0
896.0
901.0
903.0
906.0
907.0
912.0
914.0
918.0
918.0
922.0
923.0
925.0
928.0
927.0
927.0
926.0
925.0
927.0
926.0
929.0
931.0
930.0
932.0
935.0
932.0
932.0
930.0
929.0
929.0
930.0
929.0
932.0
934.0
934.0
931.0
933.0
932.0
932.0
928.0
927.0
925.0
925.0
921.0
925.0
925.0
927.0
927.0
926.0
927.0
924.0
923.0
920.0
919.0
920.0
918.0
919.0
921.0
921.0
924.0
922.0
923.0
921.0
919.0
918.0
917.0
914.0
912.0
911.0
911.0
916.0
922.0
934.0
949.0
974.0
998.0
1021.0
1045.0
1061.0
1076.0
1083.0
1084.0
1083.0
1066.0
1044.0
1012.0
983.0
958.0
937.0
918.0
898.0
876.0
849.0
820.0
794.0
776.0
764.0
765.0
768.0
775.0
779.0
787.0
792.0
796.0
797.0
799.0
804.0
807.0
810.0
817.0
821.0
826.0
833.0
841.0
850.0
855.0
866.0
875.0
886.0
897.0
903.0
909.0
913.0
914.0
914.0
912.0
913.0
912.0
912.0
913.0
914.0
917.0
918.0
918.0
917.0
915.0
917.0
912.0
915.0
913.0
915.0
919.0
920.0
920.0
921.0
919.0
919.0
917.0
918.0
915.0
918.0
917.0
920.0
921.0
925.0
925.0
925.0
929.0
929.0
929.0
931.0
933.0
939.0
943.0
947.0
952.0
956.0
960.0
967.0
967.0
972.0
977.0
982.0
986.0
991.0
998.0
1005.0
1008.0
1015.0
1019.0
1021.0
1027.0
1028.0
1031.0
1032.0
1036.0
1037.0
1040.0
1040.0
1040.0
1038.0
1041.0
1043.0
1041.0
1036.0
1031.0
1026.0
1022.0
1017.0
1015.0
1011.0
1007.0
1005.0
1002.0
998.0
992.0
986.0
980.0
975.0
972.0
967.0
964.0
964.0
964.0
962.0
959.0
959.0
954.0
954.0
951.0
948.0
946.0
944.0
945.0
944.0
946.0
945.0
946.0
947.0
945.0
943.0
943.0
940.0
940.0
941.0
942.0
943.0
945.0
946.0
947.0
946.0
947.0
945.0
944.0
941.0
942.0
943.0
943.0
944.0
945.0
945.0
946.0
946.0
946.0
944.0
944.0
942.0
937.0
938.0
937.0
941.0
941.0
942.0
944.0
943.0
944.0
941.0
937.0
935.0
934.0
932.0
933.0
938.0
939.0
938.0
939.0
940.0
938.0
935.0
933.0
933.0
933.0
935.0
933.0
933.0
936.0
937.0
938.0
939.0
937.0
936.0
934.0
932.0
934.0
932.0
932.0
932.0
933.0
936.0
937.0
937.0
934.0
933.0
933.0
931.0
933.0
933.0
933.0
932.0
935.0
936.0
937.0
939.0
938.0
939.0
940.0
939.0
939.0
939.0
939.0
943.0
943.0
946.0
946.0
948.0
946.0
949.0
951.0
950.0
951.0
954.0
956.0
960.0
962.0
967.0
966.0
965.0
964.0
962.0
959.0
954.0
953.0
949.0
948.0
944.0
943.0
942.0
940.0
937.0
934.0
930.0
927.0
926.0
923.0
920.0
923.0
925.0
926.0
929.0
931.0
934.0
932.0
931.0
927.0
926.0
927.0
924.0
928.0
932.0
937.0
939.0
942.0
948.0
958.0
967.0
978.0
992.0
1010.0
1029.0
1056.0
1087.0
1122.0
1160.0
1193.0
1219.0
1241.0
1262.0
1287.0
1317.0
1339.0
1343.0
1316.0
1258.0
1184.0
1102.0
1023.0
958.0
910.0
883.0
875.0
875.0
882.0
885.0
890.0
894.0
897.0
899.0
901.0
901.0
899.0
898.0
895.0
894.0
891.0
891.0
892.0
889.0
890.0
886.0
890.0
889.0
890.0
888.0
888.0
885.0
882.0
881.0
883.0
883.0
885.0
883.0
885.0
886.0
883.0
882.0
880.0
878.0
875.0
875.0
874.0
874.0
870.0
871.0
874.0
871.0
871.0
870.0
866.0
866.0
863.0
863.0
860.0
859.0
859.0
861.0
860.0
859.0
857.0
856.0
854.0
850.0
851.0
848.0
849.0
847.0
847.0
848.0
850.0
848.0
846.0
846.0
844.0
841.0
841.0
841.0
843.0
847.0
848.0
851.0
853.0
854.0
854.0
854.0
855.0
855.0
857.0
857.0
861.0
868.0
874.0
877.0
882.0
883.0
888.0
892.0
895.0
896.0
897.0
901.0
902.0
903.0
909.0
911.0
910.0
913.0
914.0
912.0
911.0
912.0
911.0
914.0
913.0
912.0
914.0
915.0
916.0
916.0
915.0
913.0
913.0
911.0
911.0
911.0
909.0
910.0
909.0
910.0
910.0
910.0
909.0
909.0
907.0
903.0
901.0
901.0
900.0
900.0
898.0
901.0
900.0
901.0
900.0
898.0
897.0
896.0
896.0
893.0
892.0
896.0
896.0
899.0
900.0
902.0
901.0
900.0
895.0
895.0
901.0
909.0
929.0
958.0
989.0
1023.0
1051.0
1069.0
1082.0
1081.0
1068.0
1045.0
1014.0
985.0
962.0
939.0
920.0
901.0
877.0
851.0
824.0
801.0
786.0
778.0
779.0
781.0
786.0
794.0
796.0
799.0
799.0
799.0
800.0
803.0
807.0
812.0
815.0
821.0
827.0
839.0
847.0
856.0
865.0
872.0
879.0
881.0
883.0
886.0
884.0
885.0
887.0
888.0
888.0
889.0
891.0
892.0
890.0
890.0
889.0
888.0
888.0
885.0
885.0
886.0
888.0
885.0
888.0
887.0
886.0
884.0
883.0
880.0
883.0
883.0
883.0
884.0
886.0
886.0
891.0
890.0
892.0
893.0
894.0
894.0
895.0
900.0
901.0
908.0
913.0
919.0
925.0
930.0
933.0
937.0
941.0
944.0
949.0
953.0
958.0
964.0
970.0
974.0
980.0
986.0
990.0
993.0
995.0
995.0
998.0
999.0
1000.0
1001.0
1004.0
1004.0
1008.0
1004.0
1005.0
1004.0
998.0
996.0
990.0
987.0
986.0
984.0
984.0
982.0
980.0
975.0
973.0
969.0
960.0
956.0
954.0
949.0
946.0
945.0
943.0
940.0
938.0
936.0
932.0
931.0
926.0
922.0
922.0
920.0
919.0
917.0
918.0
918.0
920.0
920.0
918.0
916.0
914.0
912.0
914.0
911.0
911.0
911.0
914.0
915.0
918.0
917.0
919.0
920.0
917.0
915.0
914.0
915.0
914.0
915.0
915.0
918.0
920.0
914.0
918.0
918.0
915.0
912.0
912.0
911.0
911.0
913.0
912.0
916.0
918.0
918.0
915.0
915.0
914.0
914.0
911.0
913.0
910.0
911.0
912.0
913.0
916.0
917.0
914.0
915.0
913.0
909.0
912.0
909.0
909.0
909.0
911.0
913.0
915.0
915.0
912.0
910.0
909.0
909.0
907.0
908.0
907.0
909.0
910.0
910.0
913.0
910.0
912.0
910.0
912.0
908.0
907.0
907.0
908.0
908.0
910.0
912.0
911.0
911.0
914.0
915.0
911.0
913.0
911.0
912.0
911.0
915.0
917.0
919.0
919.0
921.0
920.0
919.0
918.0
921.0
919.0
919.0
922.0
926.0
928.0
934.0
937.0
937.0
938.0
941.0
939.0
936.0
935.0
932.0
934.0
932.0
933.0
932.0
930.0
928.0
926.0
922.0
919.0
916.0
913.0
909.0
906.0
905.0
902.0
901.0
899.0
900.0
901.0
900.0
902.0
901.0
901.0
901.0
901.0
901.0
906.0
907.0
909.0
909.0
910.0
913.0
916.0
921.0
928.0
941.0
960.0
981.0
1007.0
1037.0
1070.0
1103.0
1138.0
1170.0
1196.0
1219.0
1245.0
1271.0
1299.0
1318.0
1312.0
1279.0
1214.0
1131.0
1039.0
958.0
900.0
863.0
850.0
846.0
855.0
864.0
875.0
878.0
878.0
879.0
882.0
877.0
878.0
878.0
876.0
874.0
872.0
870.0
871.0
874.0
877.0
876.0
875.0
871.0
872.0
869.0
866.0
866.0
869.0
870.0
869.0
867.0
871.0
869.0
867.0
867.0
865.0
862.0
861.0
861.0
862.0
861.0
860.0
862.0
862.0
861.0
861.0
861.0
856.0
854.0
851.0
851.0
850.0
846.0
847.0
849.0
850.0
849.0
848.0
847.0
844.0
840.0
840.0
839.0
838.0
838.0
838.0
839.0
837.0
839.0
837.0
834.0
833.0
834.0
829.0
827.0
828.0
829.0
831.0
833.0
835.0
836.0
836.0
834.0
836.0
836.0
835.0
836.0
838.0
839.0
843.0
846.0
849.0
852.0
852.0
854.0
856.0
860.0
864.0
864.0
868.0
870.0
877.0
881.0
885.0
889.0
891.0
893.0
895.0
892.0
891.0
894.0
896.0
897.0
901.0
903.0
901.0
906.0
906.0
906.0
904.0
903.0
902.0
903.0
904.0
902.0
901.0
904.0
905.0
905.0
905.0
903.0
900.0
901.0
899.0
896.0
900.0
901.0
901.0
901.0
902.0
902.0
901.0
900.0
898.0
898.0
896.0
895.0
893.0
895.0
896.0
894.0
896.0
893.0
894.0
895.0
892.0
892.0
892.0
892.0
893.0
893.0
896.0
896.0
899.0
900.0
898.0
897.0
894.0
893.0
897.0
901.0
907.0
923.0
941.0
964.0
988.0
1016.0
1034.0
1051.0
1060.0
1070.0
1069.0
1058.0
1038.0
1013.0
986.0
963.0
945.0
925.0
903.0
875.0
845.0
816.0
791.0
776.0
770.0
772.0
780.0
789.0
796.0
802.0
803.0
803.0
805.0
804.0
808.0
816.0
824.0
832.0
844.0
854.0
863.0
867.0
876.0
885.0
889.0
892.0
891.0
891.0
893.0
893.0
896.0
897.0
895.0
897.0
898.0
898.0
896.0
895.0
894.0
893.0
892.0
892.0
892.0
895.0
895.0
897.0
897.0
895.0
893.0
894.0
892.0
891.0
892.0
893.0
896.0
897.0
899.0
902.0
903.0
904.0
902.0
902.0
902.0
907.0
909.0
916.0
922.0
927.0
932.0
936.0
939.0
945.0
951.0
957.0
963.0
966.0
973.0
981.0
987.0
992.0
999.0
1004.0
1005.0
1009.0
1012.0
1013.0
1013.0
1014.0
1015.0
1016.0
1016.0
1013.0
1015.0
1013.0
1012.0
1007.0
1003.0
1000.0
997.0
993.0
988.0
986.0
983.0
984.0
981.0
977.0
974.0
968.0
966.0
959.0
955.0
952.0
950.0
950.0
948.0
946.0
945.0
943.0
940.0
939.0
936.0
934.0
932.0
932.0
929.0
928.0
931.0
928.0
931.0
930.0
931.0
929.0
927.0
927.0
923.0
923.0
925.0
927.0
927.0
928.0
930.0
930.0
928.0
928.0
927.0
926.0
926.0
925.0
924.0
924.0
929.0
928.0
930.0
929.0
927.0
928.0
926.0
926.0
924.0
923.0
924.0
925.0
928.0
927.0
928.0
928.0
928.0
927.0
925.0
924.0
924.0
922.0
921.0
924.0
924.0
924.0
924.0
926.0
925.0
924.0
923.0
923.0
920.0
922.0
923.0
924.0
924.0
925.0
926.0
926.0
925.0
925.0
922.0
922.0
920.0
921.0
919.0
922.0
920.0
924.0
922.0
923.0
923.0
924.0
921.0
921.0
919.0
918.0
918.0
919.0
921.0
922.0
922.0
923.0
923.0
922.0
922.0
922.0
922.0
921.0
922.0
924.0
926.0
928.0
930.0
932.0
932.0
934.0
930.0
931.0
932.0
928.0
932.0
933.0
936.0
938.0
940.0
946.0
950.0
950.0
948.0
949.0
949.0
946.0
945.0
943.0
944.0
941.0
941.0
938.0
935.0
931.0
931.0
927.0
923.0
923.0
921.0
918.0
915.0
914.0
913.0
915.0
912.0
913.0
912.0
912.0
910.0
912.0
913.0
914.0
915.0
915.0
917.0
919.0
919.0
917.0
918.0
919.0
921.0
923.0
931.0
939.0
950.0
964.0
983.0
1007.0
1032.0
1065.0
1102.0
1141.0
1174.0
1204.0
1224.0
1248.0
1277.0
1305.0
1318.0
1298.0
1238.0
1150.0
1049.0
954.0
886.0
845.0
835.0
840.0
855.0
871.0
885.0
891.0
896.0
895.0
891.0
889.0
887.0
886.0
885.0
884.0
885.0
887.0
886.0
888.0
883.0
883.0
883.0
884.0
882.0
880.0
880.0
880.0
878.0
879.0
883.0
883.0
883.0
881.0
876.0
875.0
874.0
871.0
871.0
872.0
874.0
877.0
874.0
874.0
870.0
869.0
871.0
868.0
866.0
862.0
860.0
863.0
861.0
862.0
863.0
862.0
861.0
860.0
858.0
856.0
853.0
852.0
851.0
850.0
851.0
852.0
851.0
852.0
850.0
849.0
848.0
846.0
844.0
841.0
846.0
846.0
848.0
849.0
851.0
856.0
855.0
857.0
860.0
857.0
860.0
862.0
864.0
867.0
871.0
873.0
877.0
880.0
885.0
889.0
891.0
893.0
897.0
897.0
900.0
900.0
905.0
909.0
913.0
915.0
918.0
919.0
919.0
916.0
916.0
916.0
917.0
921.0
922.0
924.0
926.0
927.0
924.0
924.0
921.0
922.0
923.0
920.0
920.0
921.0
921.0
924.0
925.0
924.0
924.0
924.0
921.0
918.0
917.0
912.0
912.0
913.0
915.0
915.0
916.0
917.0
916.0
915.0
916.0
912.0
909.0
911.0
913.0
914.0
917.0
919.0
920.0
918.0
913.0
908.0
904.0
899.0
896.0
898.0
901.0
911.0
924.0
950.0
979.0
1008.0
1034.0
1055.0
1068.0
1076.0
1077.0
1072.0
1056.0
1031.0
1001.0
972.0
948.0
933.0
917.0
901.0
879.0
850.0
820.0
792.0
771.0
753.0
746.0
748.0
755.0
765.0
775.0
782.0
790.0
793.0
795.0
797.0
799.0
805.0
812.0
821.0
831.0
837.0
845.0
850.0
858.0
864.0
871.0
874.0
876.0
887.0
892.0
898.0
903.0
905.0
907.0
907.0
904.0
902.0
900.0
900.0
899.0
902.0
903.0
904.0
907.0
909.0
909.0
909.0
909.0
906.0
907.0
904.0
904.0
904.0
905.0
905.0
903.0
909.0
908.0
908.0
906.0
903.0
903.0
903.0
902.0
904.0
906.0
911.0
913.0
914.0
917.0
917.0
919.0
920.0
921.0
925.0
931.0
936.0
940.0
946.0
952.0
958.0
965.0
969.0
972.0
977.0
978.0
983.0
987.0
993.0
999.0
1003.0
1009.0
1015.0
1017.0
1020.0
1023.0
1024.0
1024.0
1026.0
1027.0
1030.0
1030.0
1030.0
1030.0
1029.0
1023.0
1022.0
1019.0
1017.0
1014.0
1008.0
1005.0
1001.0
997.0
995.0
992.0
989.0
984.0
979.0
976.0
970.0
968.0
962.0
959.0
957.0
954.0
952.0
951.0
951.0
951.0
947.0
944.0
945.0
942.0
940.0
937.0
938.0
941.0
940.0
941.0
942.0
940.0
940.0
937.0
937.0
935.0
934.0
932.0
933.0
934.0
936.0
936.0
938.0
938.0
936.0
935.0
933.0
933.0
932.0
935.0
935.0
936.0
937.0
940.0
938.0
936.0
936.0
936.0
931.0
930.0
932.0
932.0
931.0
931.0
933.0
935.0
935.0
933.0
930.0
929.0
929.0
927.0
925.0
925.0
926.0
926.0
927.0
928.0
925.0
926.0
926.0
926.0
923.0
922.0
924.0
926.0
925.0
926.0
926.0
927.0
927.0
925.0
927.0
926.0
924.0
922.0
923.0
923.0
924.0
923.0
924.0
927.0
927.0
926.0
928.0
924.0
925.0
923.0
922.0
922.0
922.0
924.0
922.0
926.0
926.0
926.0
924.0
922.0
922.0
920.0
919.0
921.0
919.0
924.0
925.0
929.0
928.0
929.0
928.0
928.0
929.0
927.0
924.0
924.0
929.0
930.0
932.0
934.0
936.0
934.0
936.0
942.0
944.0
941.0
943.0
944.0
946.0
948.0
947.0
948.0
946.0
940.0
940.0
937.0
933.0
928.0
927.0
925.0
922.0
922.0
921.0
919.0
918.0
915.0
910.0
906.0
905.0
905.0
903.0
906.0
907.0
909.0
910.0
912.0
913.0
914.0
914.0
915.0
914.0
912.0
916.0
915.0
917.0
923.0
927.0
934.0
948.0
957.0
970.0
987.0
1010.0
1034.0
1061.0
1097.0
1133.0
1168.0
1198.0
1226.0
1250.0
1275.0
1307.0
1334.0
1344.0
1322.0
1264.0
1178.0
1082.0
989.0
918.0
873.0
855.0
851.0
860.0
872.0
882.0
885.0
888.0
887.0
887.0
885.0
883.0
883.0
882.0
881.0
878.0
878.0
876.0
874.0
877.0
876.0
877.0
873.0
871.0
875.0
876.0
874.0
876.0
875.0
871.0
869.0
866.0
869.0
868.0
868.0
869.0
869.0
869.0
869.0
867.0
862.0
860.0
859.0
858.0
860.0
856.0
858.0
856.0
858.0
858.0
856.0
855.0
854.0
851.0
849.0
847.0
848.0
846.0
845.0
843.0
848.0
845.0
844.0
844.0
842.0
842.0
840.0
838.0
835.0
837.0
837.0
837.0
836.0
835.0
834.0
835.0
835.0
834.0
832.0
833.0
835.0
836.0
838.0
841.0
843.0
847.0
848.0
851.0
854.0
856.0
857.0
861.0
865.0
868.0
874.0
878.0
883.0
886.0
890.0
892.0
894.0
894.0
897.0
896.0
898.0
901.0
903.0
904.0
906.0
906.0
906.0
907.0
904.0
905.0
904.0
904.0
902.0
903.0
903.0
906.0
905.0
906.0
904.0
905.0
903.0
902.0
903.0
902.0
898.0
898.0
900.0
899.0
902.0
902.0
901.0
897.0
896.0
896.0
892.0
890.0
891.0
893.0
890.0
893.0
894.0
897.0
895.0
896.0
894.0
895.0
893.0
895.0
892.0
890.0
889.0
892.0
901.0
918.0
942.0
972.0
1003.0
1028.0
1050.0
1063.0
1066.0
1063.0
1051.0
1030.0
1005.0
981.0
960.0
941.0
919.0
898.0
872.0
843.0
819.0
798.0
785.0
780.0
782.0
786.0
794.0
800.0
803.0
805.0
806.0
804.0
803.0
804.0
810.0
817.0
823.0
829.0
832.0
836.0
842.0
846.0
850.0
855.0
860.0
868.0
873.0
881.0
885.0
887.0
888.0
888.0
886.0
884.0
884.0
882.0
884.0
881.0
883.0
886.0
887.0
888.0
887.0
888.0
884.0
884.0
884.0
884.0
881.0
881.0
884.0
884.0
885.0
884.0
884.0
884.0
885.0
883.0
882.0
882.0
882.0
886.0
886.0
888.0
892.0
898.0
900.0
901.0
905.0
907.0
909.0
910.0
915.0
922.0
927.0
932.0
939.0
943.0
949.0
953.0
957.0
961.0
964.0
969.0
973.0
977.0
982.0
989.0
991.0
996.0
997.0
1000.0
999.0
997.0
997.0
997.0
995.0
995.0
995.0
995.0
994.0
994.0
992.0
988.0
982.0
974.0
970.0
966.0
964.0
961.0
957.0
956.0
955.0
951.0
945.0
943.0
939.0
937.0
929.0
929.0
926.0
925.0
924.0
927.0
923.0
922.0
920.0
919.0
921.0
917.0
916.0
916.0
916.0
915.0
917.0
917.0
918.0
920.0
917.0
918.0
915.0
913.0
913.0
912.0
913.0
915.0
915.0
914.0
918.0
920.0
920.0
918.0
917.0
915.0
914.0
913.0
915.0
914.0
917.0
916.0
918.0
919.0
918.0
920.0
916.0
913.0
909.0
913.0
912.0
912.0
913.0
914.0
916.0
916.0
916.0
916.0
914.0
915.0
909.0
909.0
908.0
911.0
910.0
912.0
913.0
915.0
913.0
914.0
914.0
913.0
909.0
908.0
907.0
907.0
906.0
907.0
908.0
912.0
910.0
909.0
910.0
910.0
909.0
907.0
908.0
907.0
910.0
911.0
912.0
914.0
914.0
912.0
909.0
909.0
909.0
908.0
909.0
910.0
911.0
914.0
917.0
917.0
919.0
917.0
918.0
918.0
916.0
917.0
916.0
917.0
919.0
920.0
923.0
925.0
926.0
927.0
929.0
928.0
929.0
931.0
931.0
935.0
935.0
938.0
940.0
941.0
941.0
939.0
939.0
934.0
932.0
929.0
927.0
924.0
923.0
920.0
920.0
917.0
917.0
910.0
906.0
904.0
901.0
900.0
897.0
896.0
898.0
900.0
901.0
905.0
905.0
906.0
904.0
904.0
902.0
903.0
906.0
906.0
907.0
910.0
915.0
919.0
922.0
928.0
939.0
949.0
960.0
977.0
997.0
1022.0
1050.0
1084.0
1119.0
1151.0
1180.0
1203.0
1228.0
1254.0
