# Simple Text Format
# Sampling Rate (Hz):= 360.00
# Resolution:= 12
# Labels:= ECG
987.0
990.0
991.0
995.0
1000.0
1002.0
1007.0
1013.0
1016.0
1021.0
1023.0
1025.0
1023.0
1026.0
1024.0
1022.0
1021.0
1019.0
1020.0
1021.0
1018.0
1018.0
1015.0
1014.0
1010.0
1003.0
999.0
996.0
992.0
990.0
987.0
985.0
979.0
981.0
979.0
974.0
974.0
970.0
965.0
960.0
957.0
954.0
954.0
950.0
950.0
948.0
946.0
945.0
942.0
940.0
940.0
936.0
933.0
934.0
932.0
932.0
932.0
936.0
937.0
935.0
935.0
933.0
931.0
930.0
929.0
929.0
930.0
934.0
933.0
936.0
935.0
936.0
938.0
934.0
935.0
933.0
932.0
932.0
929.0
933.0
934.0
935.0
937.0
935.0
934.0
935.0
935.0
933.0
931.0
933.0
928.0
932.0
933.0
934.0
934.0
933.0
932.0
929.0
931.0
930.0
926.0
928.0
928.0
929.0
927.0
929.0
929.0
930.0
931.0
928.0
927.0
924.0
924.0
926.0
925.0
929.0
927.0
927.0
930.0
927.0
927.0
926.0
925.0
924.0
924.0
924.0
925.0
925.0
926.0
929.0
927.0
926.0
927.0
926.0
928.0
926.0
924.0
925.0
923.0
925.0
926.0
926.0
926.0
926.0
926.0
927.0
926.0
924.0
924.0
925.0
927.0
926.0
927.0
928.0
930.0
927.0
925.0
924.0
924.0
921.0
925.0
926.0
925.0
926.0
926.0
927.0
931.0
930.0
930.0
928.0
931.0
931.0
932.0
932.0
931.0
933.0
936.0
936.0
938.0
938.0
937.0
937.0
938.0
937.0
937.0
939.0
943.0
945.0
945.0
948.0
955.0
954.0
957.0
953.0
955.0
955.0
954.0
951.0
950.0
950.0
950.0
949.0
948.0
940.0
938.0
933.0
929.0
929.0
924.0
923.0
922.0
919.0
917.0
916.0
918.0
918.0
918.0
917.0
917.0
915.0
916.0
917.0
915.0
919.0
918.0
921.0
924.0
924.0
927.0
927.0
930.0
931.0
936.0
943.0
952.0
970.0
987.0
1009.0
1033.0
1058.0
1087.0
1120.0
1153.0
1181.0
1208.0
1231.0
1259.0
1289.0
1315.0
1322.0
1302.0
1247.0
1165.0
1074.0
988.0
923.0
881.0
864.0
863.0
871.0
882.0
891.0
895.0
899.0
898.0
898.0
897.0
895.0
894.0
893.0
892.0
893.0
892.0
896.0
895.0
893.0
893.0
891.0
888.0
888.0
888.0
888.0
887.0
887.0
888.0
889.0
887.0
886.0
886.0
884.0
881.0
881.0
880.0
880.0
880.0
877.0
877.0
878.0
882.0
878.0
878.0
877.0
875.0
871.0
870.0
867.0
869.0
867.0
866.0
868.0
870.0
867.0
868.0
865.0
861.0
858.0
855.0
854.0
857.0
853.0
856.0
856.0
856.0
856.0
854.0
855.0
852.0
855.0
853.0
854.0
852.0
855.0
859.0
861.0
861.0
862.0
862.0
863.0
864.0
864.0
868.0
868.0
872.0
875.0
878.0
883.0
890.0
893.0
894.0
897.0
900.0
900.0
904.0
906.0
909.0
913.0
917.0
917.0
920.0
921.0
922.0
919.0
919.0
921.0
918.0
922.0
922.0
925.0
924.0
927.0
927.0
927.0
926.0
925.0
924.0
921.0
920.0
921.0
919.0
922.0
922.0
924.0
923.0
924.0
921.0
921.0
920.0
916.0
915.0
914.0
913.0
915.0
914.0
914.0
915.0
914.0
913.0
913.0
911.0
906.0
908.0
907.0
906.0
907.0
911.0
913.0
912.0
913.0
914.0
912.0
913.0
912.0
910.0
907.0
906.0
907.0
910.0
914.0
921.0
932.0
952.0
977.0
1003.0
1028.0
1048.0
1063.0
1069.0
1069.0
1059.0
1043.0
1019.0
990.0
963.0
941.0
922.0
904.0
886.0
861.0
835.0
818.0
800.0
790.0
787.0
788.0
793.0
798.0
802.0
806.0
811.0
811.0
813.0
816.0
819.0
820.0
828.0
834.0
837.0
841.0
846.0
852.0
858.0
864.0
868.0
876.0
886.0
894.0
902.0
904.0
907.0
904.0
904.0
904.0
901.0
903.0
902.0
905.0
905.0
908.0
908.0
905.0
904.0
904.0
907.0
905.0
902.0
900.0
903.0
905.0
906.0
907.0
908.0
907.0
909.0
905.0
904.0
902.0
901.0
902.0
905.0
905.0
906.0
908.0
915.0
913.0
915.0
917.0
917.0
919.0
922.0
928.0
930.0
936.0
942.0
945.0
952.0
955.0
959.0
964.0
968.0
971.0
974.0
980.0
985.0
994.0
997.0
1003.0
1009.0
1011.0
1014.0
1014.0
1017.0
1017.0
1017.0
1019.0
1021.0
1023.0
1024.0
1023.0
1022.0
1022.0
1020.0
1016.0
1012.0
1008.0
1003.0
999.0
997.0
991.0
989.0
986.0
987.0
984.0
979.0
976.0
972.0
965.0
961.0
957.0
953.0
952.0
951.0
949.0
947.0
945.0
942.0
941.0
937.0
932.0
931.0
930.0
930.0
929.0
930.0
931.0
931.0
930.0
927.0
927.0
923.0
924.0
922.0
924.0
924.0
926.0
924.0
926.0
927.0
931.0
925.0
924.0
925.0
923.0
922.0
923.0
922.0
924.0
927.0
927.0
929.0
929.0
928.0
926.0
925.0
923.0
922.0
922.0
922.0
921.0
922.0
923.0
925.0
923.0
924.0
922.0
920.0
919.0
920.0
917.0
921.0
919.0
920.0
920.0
921.0
922.0
920.0
918.0
917.0
916.0
916.0
915.0
914.0
915.0
917.0
915.0
921.0
918.0
917.0
915.0
917.0
916.0
915.0
915.0
914.0
918.0
918.0
918.0
920.0
919.0
920.0
918.0
916.0
916.0
914.0
912.0
915.0
915.0
916.0
915.0
921.0
919.0
918.0
919.0
916.0
914.0
915.0
918.0
918.0
921.0
923.0
926.0
928.0
927.0
927.0
928.0
926.0
925.0
924.0
925.0
928.0
931.0
935.0
939.0
943.0
942.0
944.0
945.0
945.0
944.0
944.0
946.0
946.0
945.0
944.0
941.0
938.0
939.0
937.0
934.0
931.0
929.0
923.0
922.0
920.0
916.0
917.0
911.0
911.0
911.0
908.0
910.0
911.0
912.0
911.0
911.0
913.0
911.0
915.0
916.0
921.0
922.0
923.0
924.0
922.0
925.0
930.0
935.0
946.0
955.0
973.0
989.0
1010.0
1031.0
1057.0
1084.0
1116.0
1147.0
1173.0
1194.0
1212.0
1229.0
1252.0
1278.0
1293.0
1284.0
1245.0
1183.0
1102.0
1018.0
946.0
896.0
868.0
855.0
857.0
867.0
875.0
880.0
883.0
885.0
888.0
888.0
889.0
890.0
889.0
890.0
890.0
891.0
891.0
889.0
889.0
888.0
886.0
886.0
884.0
881.0
884.0
884.0
885.0
886.0
888.0
887.0
885.0
881.0
881.0
880.0
880.0
879.0
877.0
874.0
875.0
879.0
878.0
878.0
874.0
873.0
872.0
869.0
869.0
870.0
868.0
868.0
867.0
870.0
871.0
867.0
866.0
863.0
861.0
861.0
859.0
855.0
857.0
856.0
858.0
858.0
857.0
853.0
850.0
848.0
850.0
850.0
847.0
849.0
853.0
850.0
855.0
858.0
858.0
857.0
860.0
859.0
860.0
860.0
860.0
860.0
862.0
865.0
868.0
872.0
879.0
878.0
880.0
882.0
885.0
888.0
892.0
893.0
899.0
902.0
906.0
910.0
912.0
912.0
916.0
917.0
916.0
915.0
914.0
914.0
915.0
916.0
918.0
920.0
922.0
921.0
920.0
920.0
919.0
917.0
915.0
914.0
917.0
918.0
918.0
918.0
919.0
920.0
917.0
913.0
914.0
911.0
909.0
909.0
908.0
909.0
909.0
912.0
914.0
914.0
911.0
910.0
906.0
902.0
901.0
904.0
906.0
907.0
910.0
911.0
913.0
913.0
915.0
913.0
907.0
903.0
898.0
896.0
897.0
903.0
910.0
923.0
942.0
966.0
988.0
1013.0
1033.0
1047.0
1056.0
1060.0
1058.0
1046.0
1024.0
992.0
958.0
932.0
906.0
881.0
858.0
830.0
804.0
776.0
754.0
745.0
743.0
753.0
764.0
776.0
786.0
794.0
798.0
803.0
803.0
805.0
811.0
816.0
827.0
837.0
847.0
855.0
865.0
869.0
874.0
875.0
880.0
883.0
888.0
891.0
893.0
898.0
902.0
901.0
899.0
897.0
900.0
899.0
898.0
898.0
900.0
899.0
899.0
901.0
901.0
899.0
901.0
899.0
897.0
898.0
900.0
899.0
900.0
902.0
902.0
902.0
905.0
906.0
905.0
904.0
904.0
902.0
903.0
901.0
902.0
906.0
909.0
913.0
915.0
918.0
918.0
921.0
922.0
924.0
927.0
932.0
938.0
943.0
948.0
958.0
964.0
969.0
973.0
976.0
980.0
986.0
991.0
998.0
1000.0
1008.0
1012.0
1016.0
1018.0
1022.0
1025.0
1024.0
1026.0
1026.0
1026.0
1026.0
1026.0
1024.0
1023.0
1024.0
1026.0
1022.0
1018.0
1014.0
1009.0
1005.0
1002.0
997.0
996.0
993.0
989.0
990.0
984.0
982.0
976.0
974.0
969.0
963.0
959.0
956.0
957.0
954.0
953.0
952.0
952.0
948.0
947.0
947.0
945.0
943.0
938.0
938.0
936.0
938.0
937.0
937.0
938.0
939.0
937.0
935.0
933.0
931.0
931.0
931.0
931.0
933.0
932.0
935.0
935.0
935.0
936.0
933.0
934.0
931.0
932.0
930.0
934.0
934.0
935.0
935.0
938.0
935.0
936.0
933.0
931.0
930.0
929.0
929.0
931.0
933.0
932.0
934.0
932.0
933.0
930.0
929.0
928.0
926.0
925.0
926.0
928.0
926.0
928.0
930.0
930.0
929.0
931.0
927.0
927.0
927.0
926.0
926.0
925.0
925.0
926.0
926.0
928.0
924.0
928.0
927.0
927.0
926.0
925.0
924.0
926.0
927.0
928.0
928.0
931.0
929.0
928.0
924.0
925.0
926.0
923.0
924.0
923.0
928.0
928.0
930.0
931.0
930.0
930.0
926.0
926.0
924.0
924.0
924.0
926.0
924.0
925.0
927.0
930.0
930.0
929.0
930.0
932.0
930.0
930.0
929.0
932.0
933.0
938.0
937.0
938.0
939.0
939.0
942.0
941.0
944.0
945.0
948.0
950.0
952.0
955.0
957.0
956.0
956.0
955.0
952.0
951.0
947.0
943.0
942.0
938.0
937.0
937.0
937.0
935.0
933.0
930.0
928.0
924.0
920.0
915.0
914.0
913.0
916.0
918.0
917.0
920.0
920.0
920.0
919.0
918.0
918.0
919.0
919.0
921.0
925.0
927.0
929.0
934.0
938.0
945.0
952.0
965.0
981.0
997.0
1022.0
1049.0
1083.0
1121.0
1158.0
1188.0
1213.0
1230.0
1253.0
1276.0
1297.0
1303.0
1288.0
1246.0
1183.0
1108.0
1035.0
970.0
920.0
890.0
873.0
871.0
874.0
879.0
883.0
887.0
890.0
893.0
896.0
897.0
895.0
894.0
892.0
890.0
889.0
887.0
886.0
886.0
886.0
889.0
889.0
887.0
890.0
888.0
887.0
886.0
883.0
883.0
881.0
880.0
882.0
883.0
883.0
884.0
885.0
883.0
881.0
878.0
875.0
875.0
874.0
876.0
874.0
874.0
875.0
875.0
874.0
873.0
871.0
870.0
867.0
865.0
865.0
863.0
864.0
864.0
865.0
865.0
862.0
860.0
858.0
858.0
854.0
853.0
853.0
850.0
852.0
853.0
856.0
852.0
854.0
850.0
848.0
850.0
845.0
847.0
845.0
845.0
846.0
850.0
850.0
851.0
850.0
852.0
853.0
851.0
853.0
852.0
849.0
855.0
856.0
860.0
862.0
869.0
868.0
871.0
874.0
875.0
877.0
878.0
881.0
884.0
889.0
891.0
897.0
901.0
902.0
906.0
907.0
909.0
907.0
907.0
906.0
907.0
909.0
913.0
914.0
917.0
915.0
916.0
917.0
915.0
911.0
911.0
913.0
912.0
913.0
913.0
915.0
916.0
916.0
917.0
915.0
912.0
911.0
909.0
909.0
910.0
910.0
910.0
913.0
913.0
912.0
911.0
910.0
910.0
906.0
904.0
904.0
903.0
904.0
903.0
902.0
905.0
904.0
903.0
903.0
903.0
902.0
901.0
902.0
905.0
908.0
907.0
907.0
906.0
902.0
900.0
900.0
906.0
923.0
941.0
969.0
997.0
1022.0
1044.0
1060.0
1067.0
1072.0
1070.0
1056.0
1039.0
1012.0
985.0
960.0
938.0
920.0
900.0
882.0
857.0
831.0
808.0
791.0
781.0
779.0
780.0
788.0
795.0
803.0
809.0
811.0
812.0
815.0
816.0
820.0
828.0
834.0
838.0
844.0
851.0
861.0
868.0
875.0
885.0
889.0
896.0
898.0
898.0
897.0
897.0
896.0
895.0
896.0
898.0
897.0
900.0
900.0
900.0
900.0
897.0
895.0
895.0
894.0
896.0
897.0
899.0
900.0
899.0
898.0
901.0
898.0
897.0
895.0
896.0
895.0
896.0
897.0
900.0
905.0
906.0
907.0
906.0
907.0
906.0
904.0
908.0
909.0
912.0
917.0
922.0
926.0
931.0
936.0
942.0
944.0
948.0
952.0
957.0
959.0
968.0
973.0
978.0
984.0
993.0
997.0
1001.0
1006.0
1005.0
1008.0
1007.0
1012.0
1014.0
1014.0
1016.0
1016.0
1015.0
1017.0
1014.0
1011.0
1009.0
1002.0
999.0
998.0
992.0
990.0
988.0
987.0
985.0
981.0
978.0
973.0
968.0
965.0
960.0
958.0
954.0
953.0
951.0
951.0
950.0
945.0
945.0
941.0
938.0
936.0
932.0
932.0
932.0
932.0
933.0
932.0
933.0
933.0
933.0
931.0
928.0
927.0
928.0
926.0
924.0
926.0
928.0
927.0
930.0
931.0
931.0
931.0
928.0
925.0
926.0
926.0
924.0
927.0
928.0
926.0
929.0
931.0
931.0
926.0
928.0
927.0
924.0
924.0
924.0
927.0
926.0
926.0
927.0
929.0
928.0
926.0
926.0
925.0
924.0
922.0
925.0
924.0
925.0
929.0
928.0
930.0
929.0
927.0
927.0
926.0
924.0
924.0
924.0
924.0
924.0
924.0
926.0
923.0
924.0
927.0
925.0
924.0
920.0
923.0
923.0
925.0
926.0
924.0
927.0
928.0
928.0
926.0
924.0
923.0
923.0
922.0
923.0
923.0
924.0
925.0
927.0
928.0
926.0
924.0
925.0
922.0
919.0
920.0
922.0
922.0
925.0
924.0
927.0
927.0
927.0
925.0
924.0
924.0
923.0
923.0
923.0
925.0
926.0
929.0
929.0
933.0
932.0
934.0
931.0
928.0
927.0
927.0
930.0
933.0
934.0
938.0
940.0
942.0
944.0
947.0
949.0
947.0
948.0
952.0
952.0
954.0
952.0
953.0
954.0
951.0
949.0
946.0
944.0
940.0
933.0
931.0
929.0
928.0
927.0
927.0
926.0
922.0
917.0
915.0
912.0
910.0
908.0
911.0
912.0
912.0
912.0
915.0
919.0
919.0
919.0
920.0
917.0
919.0
918.0
921.0
921.0
925.0
928.0
933.0
939.0
946.0
962.0
974.0
994.0
1017.0
1043.0
1077.0
1113.0
1149.0
1184.0
1214.0
1237.0
1264.0
1290.0
1308.0
1308.0
1281.0
1224.0
1148.0
1062.0
982.0
921.0
883.0
867.0
867.0
873.0
882.0
890.0
896.0
897.0
897.0
897.0
897.0
896.0
900.0
896.0
895.0
896.0
894.0
892.0
893.0
891.0
889.0
889.0
889.0
891.0
892.0
893.0
889.0
889.0
888.0
888.0
888.0
884.0
886.0
883.0
882.0
885.0
887.0
887.0
888.0
884.0
883.0
882.0
880.0
879.0
876.0
876.0
877.0
876.0
877.0
876.0
874.0
874.0
868.0
868.0
865.0
865.0
865.0
864.0
863.0
864.0
863.0
863.0
864.0
860.0
858.0
856.0
856.0
852.0
854.0
855.0
854.0
857.0
856.0
858.0
857.0
858.0
856.0
856.0
854.0
858.0
857.0
860.0
862.0
867.0
870.0
874.0
875.0
879.0
880.0
881.0
883.0
886.0
885.0
891.0
894.0
899.0
902.0
905.0
906.0
908.0
910.0
911.0
913.0
913.0
913.0
917.0
917.0
919.0
922.0
924.0
925.0
926.0
922.0
923.0
922.0
922.0
921.0
920.0
923.0
925.0
924.0
925.0
926.0
923.0
920.0
920.0
919.0
918.0
919.0
917.0
918.0
917.0
918.0
918.0
918.0
915.0
914.0
914.0
910.0
911.0
909.0
909.0
910.0
911.0
911.0
913.0
910.0
912.0
911.0
910.0
913.0
911.0
913.0
913.0
914.0
914.0
911.0
910.0
909.0
906.0
909.0
914.0
923.0
937.0
957.0
983.0
1010.0
1033.0
1052.0
1064.0
1070.0
1068.0
1061.0
1046.0
1019.0
994.0
965.0
941.0
923.0
910.0
897.0
881.0
863.0
836.0
812.0
791.0
775.0
767.0
766.0
768.0
780.0
791.0
802.0
814.0
819.0
819.0
820.0
820.0
821.0
829.0
836.0
843.0
848.0
858.0
866.0
874.0
881.0
885.0
891.0
895.0
898.0
899.0
899.0
902.0
903.0
902.0
905.0
908.0
908.0
909.0
909.0
908.0
905.0
905.0
905.0
905.0
907.0
906.0
908.0
910.0
909.0
911.0
908.0
907.0
907.0
906.0
909.0
908.0
909.0
910.0
912.0
914.0
913.0
914.0
915.0
914.0
914.0
913.0
913.0
917.0
919.0
924.0
928.0
932.0
935.0
938.0
940.0
942.0
947.0
951.0
953.0
957.0
963.0
971.0
976.0
984.0
989.0
993.0
999.0
1002.0
1006.0
1012.0
1013.0
1018.0
1021.0
1023.0
1027.0
1028.0
1031.0
1027.0
1026.0
1024.0
1023.0
1019.0
1014.0
1014.0
1010.0
1010.0
1006.0
1004.0
1000.0
995.0
989.0
985.0
979.0
975.0
971.0
967.0
964.0
961.0
962.0
960.0
956.0
953.0
952.0
947.0
942.0
938.0
939.0
940.0
938.0
937.0
938.0
939.0
939.0
940.0
937.0
933.0
932.0
933.0
931.0
930.0
933.0
935.0
938.0
938.0
937.0
937.0
934.0
934.0
932.0
934.0
931.0
932.0
931.0
931.0
933.0
936.0
935.0
935.0
934.0
936.0
932.0
930.0
926.0
926.0
929.0
931.0
932.0
933.0
933.0
935.0
931.0
932.0
930.0
929.0
927.0
927.0
926.0
928.0
929.0
932.0
933.0
931.0
928.0
928.0
926.0
926.0
925.0
925.0
925.0
927.0
929.0
929.0
930.0
929.0
927.0
924.0
925.0
924.0
925.0
924.0
926.0
927.0
927.0
928.0
928.0
927.0
925.0
923.0
921.0
922.0
920.0
920.0
922.0
924.0
925.0
928.0
928.0
926.0
923.0
924.0
924.0
923.0
924.0
923.0
927.0
927.0
928.0
928.0
927.0
924.0
925.0
925.0
922.0
920.0
919.0
923.0
925.0
926.0
928.0
931.0
934.0
933.0
934.0
932.0
931.0
930.0
929.0
929.0
933.0
934.0
936.0
940.0
941.0
945.0
946.0
945.0
949.0
950.0
948.0
949.0
952.0
951.0
948.0
953.0
951.0
949.0
947.0
944.0
939.0
936.0
933.0
930.0
928.0
926.0
924.0
924.0
921.0
919.0
915.0
912.0
914.0
915.0
914.0
914.0
916.0
915.0
920.0
920.0
923.0
922.0
922.0
917.0
920.0
922.0
922.0
924.0
927.0
931.0
938.0
946.0
954.0
966.0
980.0
997.0
1020.0
1046.0
1078.0
1116.0
1153.0
1188.0
1216.0
1240.0
1258.0
1284.0
1297.0
1286.0
1245.0
1175.0
1092.0
1007.0
930.0
883.0
858.0
853.0
862.0
876.0
883.0
888.0
894.0
894.0
895.0
895.0
891.0
891.0
891.0
894.0
892.0
892.0
889.0
890.0
889.0
889.0
888.0
889.0
890.0
891.0
889.0
890.0
889.0
890.0
887.0
885.0
885.0
886.0
884.0
883.0
882.0
885.0
880.0
881.0
882.0
878.0
880.0
876.0
877.0
875.0
873.0
872.0
873.0
872.0
872.0
874.0
874.0
870.0
870.0
869.0
866.0
866.0
863.0
865.0
863.0
866.0
864.0
864.0
861.0
861.0
861.0
858.0
857.0
854.0
855.0
854.0
855.0
854.0
856.0
859.0
858.0
857.0
854.0
854.0
857.0
856.0
858.0
860.0
862.0
864.0
863.0
868.0
871.0
875.0
877.0
877.0
880.0
881.0
886.0
887.0
892.0
897.0
901.0
905.0
907.0
908.0
910.0
911.0
911.0
911.0
911.0
912.0
915.0
918.0
919.0
921.0
922.0
922.0
922.0
923.0
922.0
922.0
922.0
919.0
921.0
921.0
921.0
922.0
922.0
920.0
920.0
919.0
917.0
917.0
914.0
914.0
914.0
914.0
914.0
916.0
917.0
913.0
911.0
909.0
906.0
907.0
909.0
908.0
909.0
910.0
911.0
913.0
912.0
913.0
912.0
913.0
910.0
912.0
912.0
914.0
913.0
914.0
913.0
911.0
908.0
905.0
901.0
905.0
908.0
921.0
935.0
961.0
987.0
1016.0
1040.0
1056.0
1071.0
1079.0
1078.0
1069.0
1055.0
1030.0
996.0
973.0
943.0
926.0
912.0
895.0
874.0
850.0
821.0
794.0
775.0
760.0
754.0
759.0
767.0
781.0
790.0
803.0
808.0
812.0
814.0
814.0
817.0
822.0
826.0
834.0
842.0
851.0
859.0
867.0
875.0
879.0
888.0
890.0
893.0
890.0
892.0
894.0
897.0
899.0
899.0
899.0
901.0
900.0
901.0
898.0
898.0
895.0
894.0
896.0
899.0
900.0
902.0
904.0
903.0
903.0
904.0
901.0
900.0
897.0
897.0
897.0
899.0
901.0
900.0
902.0
903.0
901.0
904.0
903.0
906.0
906.0
905.0
909.0
908.0
912.0
917.0
921.0
924.0
928.0
930.0
935.0
935.0
940.0
941.0
945.0
952.0
958.0
964.0
971.0
976.0
979.0
982.0
987.0
994.0
999.0
1002.0
1005.0
1010.0
1014.0
1018.0
1022.0
1024.0
1026.0
1024.0
1022.0
1020.0
1019.0
1016.0
1012.0
1010.0
1010.0
1008.0
1006.0
1003.0
1000.0
995.0
991.0
986.0
980.0
978.0
975.0
971.0
968.0
965.0
964.0
960.0
957.0
956.0
952.0
948.0
945.0
942.0
941.0
937.0
938.0
939.0
937.0
937.0
934.0
934.0
930.0
929.0
927.0
926.0
928.0
928.0
929.0
931.0
930.0
932.0
930.0
930.0
929.0
929.0
926.0
927.0
924.0
925.0
926.0
927.0
930.0
928.0
930.0
930.0
926.0
927.0
925.0
924.0
925.0
927.0
926.0
926.0
928.0
928.0
928.0
927.0
926.0
927.0
924.0
923.0
922.0
922.0
922.0
923.0
926.0
927.0
926.0
923.0
925.0
924.0
920.0
920.0
922.0
923.0
920.0
923.0
921.0
925.0
924.0
921.0
920.0
918.0
916.0
917.0
919.0
918.0
919.0
922.0
921.0
921.0
921.0
919.0
920.0
921.0
919.0
918.0
916.0
918.0
919.0
918.0
919.0
921.0
919.0
918.0
919.0
917.0
916.0
916.0
915.0
916.0
917.0
918.0
917.0
917.0
921.0
920.0
920.0
920.0
915.0
916.0
916.0
915.0
919.0
917.0
921.0
921.0
917.0
920.0
919.0
918.0
918.0
914.0
918.0
918.0
919.0
923.0
922.0
926.0
924.0
926.0
926.0
926.0
925.0
926.0
926.0
926.0
928.0
929.0
932.0
933.0
937.0
938.0
939.0
941.0
939.0
941.0
945.0
947.0
947.0
949.0
949.0
948.0
944.0
945.0
939.0
938.0
933.0
931.0
927.0
925.0
923.0
923.0
922.0
919.0
915.0
914.0
911.0
909.0
908.0
908.0
906.0
908.0
909.0
911.0
913.0
914.0
912.0
915.0
916.0
915.0
913.0
914.0
917.0
919.0
922.0
928.0
937.0
947.0
961.0
977.0
997.0
1022.0
1051.0
1089.0
1127.0
1167.0
1199.0
1231.0
1261.0
1290.0
1315.0
1320.0
1291.0
1228.0
1140.0
1043.0
957.0
894.0
860.0
849.0
855.0
868.0
878.0
887.0
891.0
893.0
891.0
890.0
890.0
887.0
885.0
886.0
888.0
888.0
887.0
886.0
884.0
884.0
882.0
879.0
877.0
877.0
880.0
880.0
881.0
882.0
880.0
881.0
877.0
876.0
874.0
872.0
873.0
873.0
876.0
874.0
876.0
876.0
875.0
872.0
871.0
865.0
867.0
864.0
865.0
865.0
865.0
865.0
865.0
863.0
864.0
862.0
860.0
858.0
853.0
851.0
853.0
851.0
851.0
854.0
853.0
850.0
848.0
852.0
846.0
846.0
843.0
842.0
843.0
844.0
844.0
845.0
847.0
851.0
850.0
851.0
849.0
849.0
847.0
850.0
852.0
853.0
855.0
857.0
862.0
867.0
871.0
872.0
874.0
874.0
875.0
876.0
882.0
886.0
891.0
894.0
898.0
900.0
904.0
904.0
902.0
905.0
904.0
903.0
904.0
908.0
908.0
910.0
912.0
912.0
914.0
914.0
911.0
912.0
910.0
908.0
908.0
908.0
909.0
913.0
911.0
913.0
914.0
912.0
911.0
909.0
909.0
909.0
907.0
907.0
907.0
909.0
911.0
909.0
908.0
908.0
905.0
903.0
902.0
899.0
898.0
899.0
900.0
901.0
903.0
904.0
903.0
903.0
901.0
901.0
900.0
899.0
899.0
896.0
901.0
899.0
899.0
901.0
904.0
908.0
921.0
938.0
961.0
988.0
1010.0
1033.0
1048.0
1060.0
1064.0
1063.0
1051.0
1033.0
1008.0
979.0
949.0
927.0
909.0
896.0
875.0
854.0
831.0
813.0
795.0
785.0
779.0
780.0
782.0
790.0
796.0
800.0
810.0
814.0
816.0
817.0
818.0
820.0
822.0
828.0
829.0
840.0
847.0
857.0
865.0
872.0
880.0
886.0
891.0
897.0
896.0
896.0
896.0
899.0
897.0
900.0
900.0
899.0
902.0
906.0
905.0
904.0
903.0
903.0
901.0
899.0
899.0
901.0
902.0
902.0
907.0
906.0
904.0
904.0
902.0
900.0
899.0
899.0
897.0
901.0
903.0
906.0
909.0
910.0
910.0
911.0
910.0
911.0
915.0
917.0
921.0
926.0
927.0
932.0
938.0
943.0
946.0
951.0
954.0
960.0
961.0
964.0
971.0
976.0
983.0
989.0
994.0
999.0
1003.0
1006.0
1009.0
1010.0
1014.0
1016.0
1017.0
1018.0
1018.0
1020.0
1023.0
1022.0
1021.0
1017.0
1013.0
1008.0
1004.0
997.0
994.0
992.0
991.0
986.0
982.0
979.0
976.0
971.0
967.0
960.0
957.0
951.0
950.0
948.0
947.0
945.0
944.0
944.0
942.0
940.0
939.0
936.0
932.0
932.0
930.0
931.0
931.0
932.0
935.0
934.0
933.0
934.0
931.0
933.0
930.0
931.0
930.0
930.0
931.0
934.0
935.0
935.0
933.0
934.0
934.0
933.0
931.0
931.0
930.0
931.0
932.0
929.0
931.0
930.0
932.0
931.0
930.0
927.0
926.0
927.0
926.0
924.0
924.0
927.0
929.0
930.0
931.0
928.0
927.0
926.0
927.0
925.0
924.0
924.0
928.0
926.0
930.0
931.0
930.0
931.0
929.0
926.0
923.0
925.0
924.0
923.0
926.0
927.0
928.0
928.0
928.0
927.0
925.0
921.0
922.0
920.0
921.0
923.0
922.0
924.0
925.0
929.0
930.0
927.0
925.0
926.0
925.0
924.0
922.0
924.0
926.0
923.0
925.0
927.0
927.0
925.0
925.0
925.0
925.0
925.0
926.0
926.0
926.0
927.0
928.0
929.0
928.0
930.0
930.0
929.0
928.0
930.0
931.0
932.0
934.0
936.0
938.0
939.0
939.0
937.0
938.0
940.0
941.0
944.0
944.0
947.0
952.0
954.0
958.0
960.0
960.0
960.0
957.0
956.0
952.0
949.0
949.0
947.0
945.0
942.0
942.0
940.0
938.0
936.0
933.0
928.0
924.0
921.0
921.0
918.0
917.0
919.0
921.0
922.0
924.0
924.0
923.0
919.0
919.0
919.0
921.0
924.0
924.0
926.0
929.0
928.0
932.0
933.0
938.0
940.0
944.0
952.0
961.0
976.0
993.0
1017.0
1041.0
1071.0
1106.0
1141.0
1175.0
1204.0
1226.0
1248.0
1272.0
1295.0
1305.0
1286.0
1232.0
1152.0
1056.0
965.0
894.0
859.0
846.0
853.0
869.0
883.0
896.0
904.0
907.0
908.0
904.0
902.0
899.0
895.0
894.0
894.0
895.0
895.0
896.0
892.0
893.0
892.0
893.0
893.0
893.0
894.0
890.0
889.0
890.0
885.0
885.0
884.0
886.0
889.0
889.0
887.0
887.0
885.0
883.0
879.0
879.0
881.0
881.0
881.0
881.0
880.0
876.0
874.0
874.0
873.0
871.0
871.0
869.0
868.0
868.0
869.0
869.0
869.0
867.0
865.0
861.0
861.0
860.0
858.0
856.0
858.0
857.0
858.0
859.0
859.0
859.0
862.0
860.0
861.0
860.0
861.0
861.0
864.0
866.0
867.0
869.0
873.0
874.0
876.0
880.0
883.0
884.0
887.0
889.0
891.0
896.0
901.0
906.0
910.0
912.0
913.0
913.0
916.0
913.0
915.0
916.0
921.0
924.0
923.0
924.0
925.0
924.0
927.0
924.0
922.0
921.0
921.0
923.0
925.0
924.0
927.0
928.0
930.0
928.0
927.0
925.0
920.0
919.0
918.0
918.0
918.0
921.0
921.0
923.0
923.0
919.0
921.0
920.0
917.0
915.0
913.0
912.0
911.0
912.0
912.0
913.0
915.0
915.0
914.0
915.0
919.0
917.0
916.0
917.0
918.0
915.0
912.0
911.0
909.0
907.0
907.0
911.0
917.0
931.0
946.0
969.0
994.0
1020.0
1039.0
1054.0
1063.0
1063.0
1059.0
1047.0
1025.0
997.0
965.0
934.0
908.0
893.0
876.0
858.0
834.0
806.0
780.0
759.0
745.0
737.0
739.0
748.0
758.0
773.0
785.0
794.0
801.0
806.0
809.0
811.0
814.0
820.0
826.0
837.0
844.0
854.0
859.0
870.0
876.0
882.0
888.0
892.0
894.0
898.0
899.0
898.0
900.0
901.0
904.0
906.0
908.0
908.0
911.0
910.0
906.0
907.0
907.0
905.0
907.0
908.0
910.0
913.0
914.0
911.0
913.0
911.0
911.0
910.0
909.0
908.0
911.0
913.0
913.0
915.0
918.0
919.0
922.0
924.0
924.0
925.0
927.0
929.0
934.0
939.0
945.0
951.0
959.0
962.0
967.0
974.0
979.0
985.0
986.0
993.0
998.0
1005.0
1009.0
1016.0
1021.0
1024.0
1027.0
1032.0
1033.0
1031.0
1032.0
1035.0
1034.0
1036.0
1036.0
1038.0
1038.0
1034.0
1033.0
1028.0
1025.0
1020.0
1014.0
1008.0
1007.0
1003.0
998.0
997.0
996.0
988.0
984.0
979.0
974.0
970.0
966.0
963.0
960.0
960.0
958.0
958.0
958.0
955.0
952.0
947.0
946.0
940.0
940.0
943.0
942.0
942.0
945.0
946.0
946.0
948.0
946.0
946.0
943.0
943.0
941.0
938.0
938.0
940.0
943.0
946.0
947.0
