# Simple Text Format
# Sampling Rate (Hz):= 360.00
# Resolution:= 12
# Labels:= ECG
882.0
881.0
880.0
878.0
878.0
878.0
876.0
881.0
880.0
882.0
879.0
879.0
878.0
874.0
871.0
870.0
871.0
872.0
872.0
875.0
875.0
878.0
879.0
880.0
881.0
883.0
881.0
881.0
878.0
880.0
878.0
879.0
882.0
891.0
907.0
928.0
963.0
996.0
1026.0
1048.0
1062.0
1070.0
1071.0
1058.0
1039.0
1012.0
985.0
962.0
941.0
925.0
907.0
885.0
861.0
839.0
818.0
801.0
791.0
789.0
789.0
792.0
798.0
801.0
804.0
806.0
805.0
803.0
804.0
806.0
811.0
815.0
824.0
827.0
831.0
836.0
839.0
843.0
849.0
856.0
864.0
873.0
882.0
888.0
890.0
891.0
893.0
892.0
888.0
887.0
889.0
889.0
890.0
893.0
892.0
893.0
893.0
891.0
890.0
890.0
888.0
888.0
885.0
886.0
887.0
888.0
893.0
892.0
891.0
893.0
890.0
889.0
889.0
890.0
889.0
890.0
893.0
895.0
898.0
900.0
901.0
905.0
907.0
906.0
909.0
911.0
916.0
921.0
927.0
933.0
938.0
946.0
949.0
955.0
961.0
964.0
965.0
966.0
972.0
980.0
984.0
991.0
996.0
1000.0
1002.0
1004.0
1008.0
1008.0
1007.0
1010.0
1012.0
1014.0
1016.0
1014.0
1018.0
1018.0
1013.0
1009.0
1010.0
1007.0
1004.0
1000.0
999.0
997.0
996.0
991.0
990.0
984.0
981.0
977.0
970.0
965.0
961.0
958.0
955.0
954.0
950.0
948.0
946.0
946.0
943.0
940.0
937.0
933.0
930.0
928.0
927.0
928.0
930.0
926.0
928.0
928.0
924.0
924.0
922.0
920.0
920.0
919.0
921.0
922.0
922.0
923.0
925.0
926.0
926.0
924.0
922.0
921.0
920.0
920.0
920.0
920.0
922.0
921.0
923.0
924.0
924.0
923.0
923.0
921.0
921.0
921.0
921.0
920.0
920.0
922.0
924.0
924.0
921.0
921.0
920.0
920.0
918.0
916.0
918.0
918.0
919.0
920.0
918.0
920.0
920.0
918.0
918.0
917.0
916.0
914.0
915.0
916.0
916.0
917.0
920.0
916.0
920.0
917.0
917.0
915.0
914.0
915.0
915.0
915.0
917.0
918.0
919.0
920.0
918.0
920.0
918.0
917.0
915.0
914.0
915.0
915.0
917.0
918.0
917.0
920.0
920.0
918.0
918.0
916.0
917.0
915.0
914.0
915.0
917.0
920.0
920.0
921.0
922.0
923.0
921.0
922.0
921.0
921.0
921.0
924.0
925.0
922.0
924.0
925.0
925.0
929.0
929.0
929.0
929.0
929.0
933.0
935.0
939.0
938.0
944.0
945.0
948.0
945.0
948.0
946.0
944.0
940.0
941.0
937.0
935.0
936.0
934.0
929.0
926.0
923.0
921.0
915.0
911.0
908.0
906.0
905.0
906.0
907.0
909.0
910.0
911.0
910.0
909.0
910.0
910.0
908.0
909.0
912.0
914.0
914.0
917.0
919.0
920.0
925.0
928.0
935.0
944.0
957.0
973.0
994.0
1016.0
1040.0
1071.0
1104.0
1136.0
1164.0
1189.0
1212.0
1235.0
1259.0
1286.0
1310.0
1322.0
1305.0
1264.0
1200.0
1122.0
1042.0
972.0
917.0
883.0
867.0
866.0
869.0
875.0
882.0
885.0
886.0
885.0
886.0
885.0
886.0
883.0
883.0
882.0
879.0
882.0
882.0
883.0
885.0
882.0
881.0
881.0
878.0
878.0
876.0
875.0
877.0
877.0
877.0
881.0
880.0
878.0
878.0
876.0
874.0
870.0
869.0
871.0
870.0
871.0
867.0
867.0
871.0
869.0
870.0
868.0
864.0
862.0
861.0
861.0
859.0
858.0
861.0
862.0
860.0
858.0
855.0
854.0
854.0
852.0
849.0
849.0
848.0
846.0
845.0
846.0
846.0
845.0
843.0
841.0
843.0
841.0
840.0
841.0
839.0
841.0
842.0
843.0
846.0
842.0
846.0
844.0
844.0
844.0
845.0
846.0
852.0
854.0
857.0
860.0
868.0
867.0
872.0
876.0
879.0
880.0
883.0
887.0
892.0
894.0
898.0
900.0
906.0
908.0
909.0
905.0
907.0
910.0
908.0
910.0
912.0
912.0
913.0
916.0
918.0
919.0
919.0
917.0
914.0
914.0
915.0
913.0
914.0
915.0
917.0
917.0
918.0
917.0
919.0
916.0
914.0
913.0
912.0
912.0
912.0
913.0
913.0
913.0
916.0
914.0
912.0
910.0
909.0
908.0
907.0
908.0
907.0
908.0
908.0
912.0
911.0
911.0
914.0
912.0
910.0
910.0
912.0
912.0
911.0
910.0
911.0
909.0
908.0
906.0
909.0
915.0
926.0
946.0
973.0
1002.0
1030.0
1054.0
1070.0
1080.0
1079.0
1068.0
1047.0
1018.0
988.0
962.0
944.0
927.0
911.0
892.0
869.0
846.0
826.0
803.0
792.0
789.0
790.0
796.0
804.0
812.0
820.0
826.0
829.0
830.0
832.0
832.0
838.0
842.0
849.0
853.0
856.0
859.0
864.0
866.0
875.0
883.0
889.0
895.0
902.0
907.0
908.0
906.0
907.0
906.0
905.0
905.0
908.0
907.0
909.0
908.0
909.0
909.0
907.0
907.0
905.0
906.0
905.0
906.0
906.0
909.0
910.0
910.0
909.0
908.0
906.0
906.0
905.0
904.0
906.0
906.0
909.0
912.0
913.0
914.0
916.0
917.0
917.0
920.0
922.0
927.0
932.0
938.0
943.0
946.0
951.0
957.0
962.0
968.0
971.0
976.0
979.0
985.0
991.0
997.0
1005.0
1011.0
1014.0
1019.0
1022.0
1023.0
1020.0
1023.0
1024.0
1020.0
1022.0
1021.0
1021.0
1023.0
1023.0
1018.0
1016.0
1008.0
1004.0
999.0
995.0
992.0
990.0
984.0
983.0
980.0
979.0
973.0
969.0
964.0
962.0
960.0
957.0
956.0
952.0
950.0
948.0
947.0
948.0
946.0
944.0
940.0
940.0
937.0
937.0
937.0
937.0
938.0
938.0
939.0
939.0
937.0
938.0
937.0
937.0
934.0
934.0
935.0
934.0
935.0
938.0
940.0
941.0
941.0
938.0
938.0
936.0
934.0
932.0
933.0
932.0
935.0
935.0
934.0
938.0
937.0
936.0
932.0
931.0
933.0
932.0
932.0
932.0
932.0
934.0
935.0
936.0
938.0
937.0
935.0
933.0
929.0
928.0
931.0
931.0
931.0
933.0
932.0
934.0
934.0
934.0
931.0
932.0
930.0
929.0
928.0
930.0
931.0
929.0
933.0
934.0
933.0
934.0
933.0
932.0
931.0
930.0
929.0
931.0
931.0
933.0
933.0
934.0
934.0
932.0
932.0
932.0
927.0
930.0
929.0
929.0
931.0
932.0
933.0
934.0
934.0
932.0
931.0
930.0
928.0
929.0
930.0
932.0
934.0
935.0
939.0
939.0
938.0
939.0
939.0
938.0
938.0
939.0
940.0
940.0
942.0
944.0
949.0
951.0
953.0
953.0
955.0
953.0
955.0
954.0
957.0
956.0
956.0
955.0
956.0
954.0
951.0
950.0
947.0
942.0
940.0
934.0
931.0
930.0
930.0
928.0
930.0
927.0
924.0
922.0
919.0
919.0
916.0
916.0
918.0
920.0
921.0
921.0
924.0
925.0
927.0
927.0
927.0
929.0
933.0
936.0
943.0
953.0
966.0
984.0
1004.0
1025.0
1051.0
1083.0
1115.0
1149.0
1181.0
1209.0
1231.0
1250.0
1273.0
1303.0
1329.0
1335.0
1310.0
1258.0
1185.0
1096.0
1011.0
943.0
900.0
877.0
873.0
878.0
886.0
893.0
896.0
898.0
897.0
898.0
898.0
899.0
898.0
897.0
893.0
898.0
896.0
897.0
896.0
894.0
890.0
892.0
890.0
888.0
889.0
889.0
889.0
888.0
892.0
889.0
889.0
889.0
887.0
887.0
883.0
882.0
882.0
879.0
881.0
883.0
883.0
883.0
882.0
881.0
878.0
878.0
873.0
871.0
869.0
868.0
868.0
871.0
871.0
872.0
867.0
868.0
866.0
864.0
863.0
859.0
860.0
859.0
859.0
859.0
860.0
860.0
858.0
857.0
855.0
851.0
850.0
846.0
848.0
847.0
847.0
849.0
850.0
853.0
852.0
851.0
849.0
849.0
850.0
847.0
852.0
854.0
854.0
856.0
859.0
864.0
862.0
865.0
867.0
868.0
870.0
872.0
876.0
880.0
883.0
889.0
892.0
898.0
902.0
903.0
904.0
907.0
907.0
908.0
909.0
913.0
914.0
917.0
916.0
919.0
918.0
916.0
919.0
920.0
918.0
917.0
917.0
919.0
920.0
921.0
919.0
923.0
923.0
921.0
920.0
915.0
914.0
913.0
912.0
914.0
911.0
914.0
913.0
915.0
914.0
911.0
909.0
907.0
907.0
909.0
907.0
907.0
907.0
907.0
908.0
909.0
909.0
911.0
911.0
910.0
910.0
911.0
908.0
906.0
905.0
904.0
905.0
910.0
917.0
927.0
946.0
971.0
1000.0
1026.0
1047.0
1065.0
1077.0
1081.0
1076.0
1061.0
1034.0
1007.0
975.0
952.0
926.0
904.0
878.0
853.0
828.0
810.0
799.0
794.0
794.0
796.0
801.0
809.0
811.0
813.0
813.0
814.0
817.0
821.0
828.0
834.0
840.0
848.0
856.0
862.0
867.0
873.0
883.0
888.0
893.0
898.0
901.0
903.0
901.0
901.0
900.0
899.0
897.0
897.0
897.0
900.0
899.0
899.0
898.0
902.0
900.0
903.0
899.0
897.0
896.0
895.0
897.0
894.0
897.0
898.0
900.0
901.0
899.0
901.0
897.0
896.0
897.0
896.0
898.0
896.0
899.0
901.0
903.0
910.0
910.0
913.0
916.0
917.0
921.0
924.0
931.0
936.0
944.0
947.0
954.0
960.0
963.0
969.0
974.0
978.0
977.0
985.0
988.0
994.0
1000.0
1003.0
1006.0
1011.0
1010.0
1012.0
1013.0
1012.0
1009.0
1008.0
1008.0
1005.0
1005.0
1006.0
1005.0
1005.0
1001.0
997.0
994.0
988.0
985.0
978.0
975.0
974.0
972.0
967.0
966.0
965.0
962.0
960.0
957.0
951.0
948.0
949.0
947.0
945.0
943.0
942.0
939.0
941.0
938.0
935.0
932.0
931.0
933.0
929.0
930.0
930.0
930.0
931.0
931.0
933.0
933.0
930.0
926.0
928.0
924.0
926.0
925.0
928.0
932.0
931.0
931.0
933.0
933.0
933.0
930.0
930.0
930.0
928.0
925.0
929.0
929.0
928.0
929.0
929.0
930.0
929.0
928.0
929.0
928.0
925.0
924.0
923.0
927.0
928.0
928.0
929.0
929.0
929.0
927.0
925.0
924.0
922.0
921.0
921.0
923.0
924.0
925.0
928.0
926.0
926.0
923.0
924.0
920.0
919.0
920.0
922.0
923.0
924.0
922.0
927.0
924.0
923.0
923.0
921.0
922.0
919.0
920.0
919.0
921.0
920.0
922.0
924.0
925.0
922.0
920.0
921.0
921.0
920.0
918.0
919.0
923.0
925.0
924.0
924.0
923.0
924.0
923.0
924.0
921.0
923.0
919.0
921.0
923.0
929.0
929.0
931.0
933.0
932.0
932.0
930.0
931.0
931.0
934.0
935.0
936.0
940.0
942.0
944.0
947.0
950.0
950.0
951.0
952.0
949.0
948.0
946.0
946.0
946.0
945.0
945.0
944.0
941.0
939.0
934.0
932.0
929.0
928.0
925.0
922.0
920.0
920.0
919.0
917.0
914.0
911.0
912.0
910.0
910.0
910.0
913.0
915.0
915.0
918.0
919.0
919.0
917.0
917.0
917.0
918.0
918.0
920.0
925.0
929.0
933.0
945.0
956.0
970.0
985.0
1002.0
1026.0
1049.0
1083.0
1118.0
1155.0
1188.0
1218.0
1247.0
1278.0
1309.0
1327.0
1323.0
1282.0
1216.0
1128.0
1040.0
962.0
908.0
878.0
867.0
871.0
881.0
890.0
891.0
891.0
890.0
890.0
889.0
891.0
890.0
890.0
892.0
890.0
889.0
888.0
890.0
886.0
883.0
886.0
884.0
883.0
884.0
884.0
887.0
889.0
886.0
887.0
886.0
883.0
882.0
879.0
880.0
880.0
879.0
882.0
882.0
881.0
882.0
880.0
879.0
879.0
876.0
874.0
873.0
873.0
872.0
873.0
872.0
873.0
874.0
870.0
868.0
865.0
863.0
862.0
861.0
861.0
860.0
859.0
857.0
857.0
857.0
854.0
852.0
851.0
850.0
843.0
848.0
846.0
845.0
846.0
847.0
848.0
846.0
845.0
842.0
844.0
842.0
842.0
843.0
843.0
844.0
847.0
849.0
853.0
854.0
856.0
855.0
857.0
856.0
859.0
862.0
864.0
868.0
872.0
875.0
880.0
879.0
882.0
888.0
891.0
892.0
895.0
899.0
896.0
904.0
908.0
910.0
912.0
914.0
911.0
912.0
912.0
909.0
908.0
911.0
910.0
917.0
917.0
919.0
920.0
920.0
918.0
917.0
918.0
913.0
910.0
911.0
912.0
911.0
914.0
915.0
918.0
918.0
916.0
916.0
914.0
911.0
909.0
909.0
907.0
910.0
911.0
911.0
911.0
912.0
912.0
909.0
906.0
905.0
904.0
905.0
906.0
905.0
907.0
909.0
908.0
911.0
912.0
911.0
913.0
913.0
911.0
911.0
912.0
911.0
910.0
910.0
913.0
914.0
919.0
929.0
948.0
971.0
997.0
1021.0
1042.0
1063.0
1073.0
1081.0
1083.0
1077.0
1063.0
1041.0
1017.0
995.0
979.0
966.0
953.0
938.0
923.0
904.0
887.0
875.0
866.0
868.0
879.0
894.0
910.0
931.0
950.0
965.0
978.0
984.0
984.0
973.0
964.0
947.0
932.0
919.0
909.0
902.0
900.0
899.0
899.0
900.0
900.0
900.0
898.0
897.0
895.0
893.0
892.0
891.0
890.0
890.0
890.0
888.0
889.0
890.0
890.0
888.0
887.0
885.0
883.0
882.0
882.0
883.0
882.0
882.0
884.0
881.0
880.0
877.0
876.0
876.0
876.0
874.0
875.0
875.0
879.0
880.0
879.0
881.0
885.0
883.0
885.0
884.0
885.0
889.0
891.0
893.0
897.0
900.0
906.0
908.0
913.0
914.0
918.0
921.0
924.0
926.0
930.0
934.0
940.0
944.0
949.0
953.0
955.0
956.0
954.0
956.0
956.0
956.0
955.0
956.0
956.0
956.0
956.0
954.0
952.0
949.0
947.0
944.0
940.0
938.0
939.0
937.0
937.0
936.0
936.0
935.0
934.0
931.0
932.0
928.0
926.0
924.0
923.0
921.0
920.0
921.0
920.0
926.0
924.0
925.0
923.0
921.0
920.0
921.0
921.0
920.0
920.0
924.0
924.0
925.0
925.0
922.0
921.0
921.0
919.0
919.0
920.0
922.0
923.0
924.0
926.0
926.0
925.0
924.0
923.0
923.0
923.0
921.0
923.0
924.0
925.0
927.0
928.0
927.0
927.0
927.0
925.0
925.0
924.0
925.0
925.0
924.0
927.0
927.0
931.0
929.0
929.0
927.0
924.0
924.0
924.0
922.0
923.0
924.0
925.0
926.0
930.0
930.0
929.0
929.0
925.0
926.0
924.0
921.0
923.0
926.0
928.0
928.0
930.0
928.0
929.0
927.0
926.0
923.0
923.0
922.0
923.0
925.0
926.0
926.0
928.0
928.0
928.0
926.0
927.0
924.0
924.0
925.0
925.0
924.0
926.0
928.0
930.0
929.0
928.0
929.0
930.0
926.0
926.0
929.0
929.0
930.0
934.0
934.0
935.0
939.0
938.0
938.0
936.0
935.0
936.0
939.0
944.0
946.0
948.0
951.0
954.0
955.0
958.0
956.0
956.0
955.0
954.0
950.0
950.0
950.0
949.0
950.0
951.0
946.0
940.0
937.0
934.0
928.0
927.0
927.0
925.0
924.0
920.0
923.0
920.0
918.0
919.0
921.0
917.0
917.0
916.0
919.0
921.0
922.0
923.0
926.0
928.0
926.0
929.0
928.0
926.0
930.0
930.0
932.0
937.0
945.0
952.0
963.0
977.0
996.0
1012.0
1033.0
1057.0
1085.0
1118.0
1153.0
1180.0
1211.0
1235.0
1257.0
1288.0
1315.0
1328.0
1308.0
1259.0
1178.0
1080.0
988.0
916.0
873.0
857.0
859.0
872.0
887.0
897.0
903.0
905.0
903.0
900.0
895.0
893.0
895.0
894.0
897.0
897.0
897.0
897.0
895.0
893.0
890.0
890.0
892.0
892.0
892.0
892.0
894.0
895.0
889.0
890.0
889.0
888.0
887.0
883.0
883.0
882.0
882.0
884.0
887.0
885.0
884.0
882.0
880.0
877.0
877.0
875.0
874.0
877.0
878.0
876.0
876.0
876.0
877.0
874.0
872.0
868.0
865.0
864.0
861.0
862.0
860.0
860.0
860.0
861.0
863.0
861.0
858.0
856.0
854.0
853.0
851.0
853.0
854.0
853.0
857.0
858.0
860.0
859.0
856.0
859.0
859.0
861.0
861.0
862.0
868.0
870.0
874.0
879.0
882.0
886.0
887.0
890.0
892.0
896.0
898.0
903.0
907.0
911.0
914.0
919.0
919.0
918.0
918.0
919.0
919.0
918.0
919.0
920.0
924.0
924.0
924.0
927.0
927.0
929.0
928.0
927.0
926.0
924.0
926.0
923.0
925.0
924.0
929.0
928.0
926.0
927.0
925.0
923.0
922.0
919.0
921.0
922.0
920.0
922.0
922.0
924.0
921.0
918.0
916.0
916.0
915.0
914.0
913.0
914.0
915.0
913.0
917.0
917.0
921.0
922.0
920.0
919.0
916.0
912.0
908.0
905.0
904.0
907.0
913.0
926.0
941.0
963.0
988.0
1015.0
1037.0
1055.0
1067.0
1072.0
1073.0
1063.0
1046.0
1021.0
989.0
963.0
940.0
922.0
902.0
882.0
860.0
836.0
811.0
795.0
784.0
779.0
781.0
789.0
799.0
806.0
814.0
820.0
823.0
824.0
825.0
828.0
832.0
842.0
846.0
855.0
860.0
866.0
872.0
876.0
881.0
887.0
892.0
897.0
901.0
905.0
906.0
907.0
907.0
907.0
906.0
907.0
905.0
906.0
907.0
908.0
909.0
912.0
910.0
911.0
910.0
908.0
906.0
907.0
905.0
907.0
907.0
908.0
908.0
908.0
910.0
910.0
907.0
904.0
905.0
904.0
906.0
906.0
907.0
911.0
911.0
917.0
917.0
919.0
924.0
926.0
925.0
928.0
929.0
931.0
938.0
946.0
951.0
957.0
961.0
965.0
969.0
973.0
979.0
977.0
984.0
989.0
996.0
1000.0
1003.0
1008.0
1013.0
1015.0
1014.0
1015.0
1015.0
1011.0
1014.0
1017.0
1015.0
1016.0
1018.0
1017.0
1014.0
1009.0
1005.0
999.0
994.0
992.0
988.0
986.0
982.0
978.0
975.0
971.0
966.0
965.0
959.0
957.0
954.0
948.0
946.0
946.0
945.0
943.0
944.0
943.0
942.0
939.0
937.0
937.0
935.0
933.0
933.0
933.0
934.0
936.0
936.0
936.0
936.0
934.0
933.0
931.0
932.0
933.0
932.0
930.0
934.0
931.0
933.0
937.0
935.0
935.0
932.0
934.0
931.0
931.0
930.0
931.0
931.0
932.0
933.0
935.0
935.0
935.0
933.0
931.0
929.0
927.0
929.0
930.0
928.0
929.0
929.0
931.0
932.0
929.0
929.0
926.0
928.0
927.0
923.0
924.0
927.0
927.0
929.0
929.0
929.0
929.0
926.0
926.0
927.0
924.0
922.0
921.0
922.0
927.0
928.0
929.0
928.0
929.0
927.0
927.0
925.0
925.0
923.0
923.0
923.0
924.0
925.0
929.0
924.0
926.0
924.0
925.0
923.0
925.0
923.0
922.0
924.0
923.0
924.0
929.0
929.0
929.0
928.0
927.0
926.0
925.0
925.0
926.0
926.0
927.0
926.0
928.0
930.0
930.0
926.0
928.0
928.0
928.0
928.0
927.0
931.0
931.0
935.0
936.0
935.0
937.0
936.0
937.0
938.0
940.0
939.0
938.0
938.0
944.0
947.0
950.0
954.0
957.0
955.0
952.0
950.0
947.0
944.0
943.0
941.0
940.0
939.0
938.0
933.0
932.0
929.0
926.0
922.0
922.0
915.0
915.0
912.0
916.0
915.0
917.0
917.0
919.0
917.0
919.0
917.0
916.0
917.0
915.0
919.0
922.0
924.0
925.0
926.0
927.0
930.0
929.0
930.0
932.0
938.0
945.0
956.0
967.0
981.0
996.0
1016.0
1037.0
1057.0
1088.0
1119.0
1152.0
1181.0
1208.0
1236.0
1261.0
1286.0
1312.0
1317.0
1291.0
1235.0
1151.0
1061.0
978.0
916.0
882.0
867.0
869.0
877.0
886.0
894.0
897.0
900.0
898.0
897.0
894.0
891.0
891.0
890.0
890.0
892.0
891.0
893.0
891.0
891.0
887.0
888.0
885.0
885.0
884.0
884.0
884.0
887.0
887.0
886.0
887.0
884.0
881.0
880.0
881.0
878.0
877.0
876.0
877.0
878.0
879.0
878.0
878.0
875.0
874.0
871.0
869.0
867.0
866.0
866.0
867.0
867.0
868.0
870.0
869.0
866.0
863.0
861.0
858.0
856.0
856.0
855.0
857.0
858.0
857.0
859.0
855.0
855.0
852.0
850.0
847.0
847.0
846.0
848.0
846.0
847.0
848.0
849.0
849.0
848.0
846.0
848.0
846.0
846.0
848.0
851.0
855.0
857.0
861.0
859.0
863.0
868.0
868.0
873.0
875.0
877.0
880.0
883.0
889.0
896.0
900.0
904.0
905.0
907.0
906.0
907.0
908.0
905.0
907.0
911.0
913.0
912.0
916.0
917.0
917.0
918.0
915.0
915.0
913.0
913.0
913.0
914.0
917.0
914.0
915.0
914.0
914.0
916.0
913.0
914.0
911.0
909.0
909.0
908.0
909.0
911.0
912.0
911.0
907.0
908.0
908.0
904.0
904.0
902.0
899.0
898.0
902.0
902.0
907.0
908.0
911.0
911.0
909.0
908.0
905.0
902.0
899.0
901.0
907.0
920.0
943.0
969.0
997.0
1022.0
1045.0
1058.0
1066.0
1072.0
1068.0
1056.0
1035.0
1009.0
983.0
960.0
941.0
925.0
904.0
879.0
852.0
827.0
808.0
796.0
789.0
786.0
793.0
800.0
805.0
818.0
822.0
823.0
826.0
824.0
826.0
829.0
835.0
837.0
844.0
850.0
855.0
859.0
863.0
871.0
874.0
877.0
880.0
886.0
889.0
893.0
897.0
900.0
899.0
900.0
899.0
898.0
896.0
896.0
897.0
898.0
900.0
897.0
901.0
902.0
901.0
898.0
899.0
897.0
892.0
892.0
895.0
894.0
895.0
896.0
897.0
899.0
898.0
898.0
896.0
896.0
896.0
896.0
897.0
901.0
901.0
905.0
908.0
912.0
914.0
913.0
916.0
922.0
923.0
927.0
932.0
936.0
941.0
946.0
948.0
954.0
959.0
961.0
964.0
968.0
969.0
974.0
978.0
983.0
988.0
992.0
997.0
998.0
1002.0
1001.0
1003.0
1003.0
1005.0
1005.0
1009.0
1008.0
1007.0
1006.0
1007.0
1005.0
1001.0
998.0
997.0
993.0
988.0
985.0
983.0
979.0
978.0
977.0
975.0
971.0
968.0
964.0
960.0
956.0
951.0
947.0
945.0
942.0
942.0
941.0
940.0
938.0
936.0
937.0
932.0
931.0
931.0
929.0
930.0
927.0
927.0
930.0
933.0
930.0
931.0
930.0
926.0
926.0
924.0
922.0
924.0
924.0
926.0
926.0
928.0
928.0
927.0
927.0
925.0
925.0
924.0
924.0
921.0
923.0
924.0
926.0
926.0
929.0
931.0
930.0
929.0
926.0
927.0
925.0
926.0
926.0
926.0
928.0
929.0
928.0
928.0
927.0
927.0
925.0
926.0
924.0
923.0
923.0
923.0
921.0
922.0
923.0
924.0
924.0
926.0
924.0
924.0
922.0
923.0
923.0
923.0
920.0
922.0
926.0
925.0
925.0
925.0
925.0
922.0
922.0
920.0
921.0
923.0
921.0
923.0
925.0
921.0
922.0
920.0
920.0
920.0
917.0
920.0
921.0
921.0
923.0
925.0
926.0
922.0
923.0
922.0
919.0
921.0
919.0
920.0
921.0
923.0
922.0
924.0
923.0
921.0
923.0
922.0
921.0
917.0
918.0
918.0
920.0
923.0
924.0
926.0
929.0
928.0
926.0
926.0
927.0
927.0
927.0
929.0
931.0
933.0
935.0
936.0
937.0
939.0
942.0
939.0
942.0
944.0
947.0
945.0
948.0
951.0
948.0
949.0
947.0
946.0
942.0
940.0
933.0
929.0
927.0
927.0
924.0
923.0
922.0
923.0
921.0
916.0
914.0
910.0
910.0
909.0
908.0
910.0
909.0
913.0
909.0
916.0
917.0
914.0
914.0
913.0
913.0
914.0
911.0
916.0
920.0
923.0
926.0
932.0
940.0
948.0
959.0
970.0
985.0
1002.0
1021.0
1045.0
1073.0
1103.0
1137.0
1168.0
1193.0
1216.0
1238.0
1262.0
1287.0
1306.0
1305.0
1270.0
1208.0
1124.0
1037.0
959.0
902.0
869.0
857.0
862.0
869.0
878.0
882.0
884.0
886.0
889.0
889.0
889.0
889.0
889.0
890.0
887.0
885.0
887.0
883.0
883.0
882.0
883.0
882.0
885.0
884.0
883.0
884.0
883.0
880.0
878.0
878.0
877.0
878.0
876.0
878.0
879.0
878.0
878.0
878.0
875.0
875.0
869.0
872.0
871.0
869.0
870.0
871.0
871.0
870.0
868.0
863.0
864.0
863.0
862.0
860.0
859.0
858.0
859.0
860.0
862.0
860.0
860.0
859.0
855.0
852.0
850.0
850.0
847.0
849.0
849.0
850.0
849.0
847.0
847.0
846.0
844.0
843.0
839.0
840.0
840.0
839.0
843.0
842.0
842.0
844.0
845.0
846.0
846.0
845.0
847.0
848.0
849.0
852.0
857.0
858.0
861.0
868.0
868.0
871.0
874.0
877.0
878.0
882.0
884.0
889.0
893.0
899.0
902.0
903.0
905.0
905.0
907.0
907.0
907.0
905.0
908.0
909.0
910.0
913.0
914.0
916.0
915.0
914.0
915.0
914.0
912.0
911.0
911.0
909.0
909.0
912.0
914.0
914.0
914.0
913.0
910.0
906.0
906.0
907.0
909.0
906.0
908.0
909.0
907.0
909.0
909.0
905.0
905.0
904.0
900.0
900.0
900.0
899.0
902.0
903.0
906.0
906.0
906.0
905.0
906.0
907.0
909.0
908.0
911.0
907.0
906.0
905.0
905.0
907.0
910.0
917.0
934.0
954.0
976.0
1005.0
1028.0
1045.0
1059.0
1072.0
1072.0
1066.0
1049.0
1026.0
997.0
969.0
948.0
929.0
910.0
892.0
869.0
844.0
823.0
805.0
793.0
787.0
790.0
794.0
800.0
807.0
813.0
821.0
826.0
826.0
830.0
835.0
840.0
847.0
852.0
858.0
864.0
867.0
871.0
876.0
880.0
886.0
891.0
897.0
901.0
898.0
901.0
901.0
899.0
899.0
899.0
900.0
900.0
900.0
902.0
901.0
902.0
901.0
900.0
898.0
898.0
897.0
898.0
898.0
902.0
901.0
903.0
902.0
900.0
901.0
901.0
900.0
900.0
899.0
899.0
902.0
904.0
906.0
908.0
911.0
916.0
917.0
918.0
919.0
924.0
929.0
933.0
937.0
940.0
946.0
952.0
962.0
964.0
969.0
974.0
977.0
982.0
986.0
989.0
992.0
997.0
1000.0
1006.0
1010.0
1009.0
1009.0
1009.0
1008.0
1006.0
1002.0
1009.0
1007.0
1007.0
1003.0
1003.0
1002.0
997.0
992.0
988.0
985.0
978.0
975.0
969.0
967.0
967.0
962.0
957.0
955.0
953.0
948.0
944.0
943.0
938.0
937.0
935.0
934.0
934.0
936.0
934.0
933.0
936.0
933.0
932.0
930.0
929.0
928.0
926.0
928.0
928.0
927.0
929.0
931.0
931.0
932.0
929.0
929.0
928.0
928.0
928.0
929.0
930.0
927.0
929.0
930.0
932.0
930.0
930.0
929.0
927.0
929.0
929.0
929.0
930.0
929.0
930.0
933.0
932.0
928.0
929.0
928.0
926.0
926.0
925.0
925.0
927.0
926.0
928.0
927.0
924.0
926.0
925.0
925.0
925.0
923.0
922.0
922.0
926.0
926.0
928.0
928.0
923.0
924.0
922.0
925.0
921.0
923.0
923.0
924.0
926.0
926.0
926.0
928.0
926.0
926.0
924.0
925.0
924.0
923.0
919.0
920.0
923.0
924.0
927.0
924.0
923.0
922.0
920.0
918.0
920.0
920.0
919.0
920.0
920.0
923.0
925.0
925.0
924.0
926.0
926.0
924.0
923.0
918.0
918.0
922.0
921.0
925.0
926.0
928.0
929.0
927.0
925.0
922.0
925.0
925.0
926.0
927.0
930.0
932.0
932.0
934.0
932.0
935.0
934.0
934.0
935.0
934.0
938.0
941.0
943.0
946.0
950.0
951.0
953.0
955.0
953.0
953.0
948.0
946.0
943.0
940.0
939.0
935.0
935.0
936.0
931.0
929.0
926.0
923.0
920.0
916.0
913.0
912.0
912.0
913.0
915.0
915.0
916.0
916.0
913.0
914.0
913.0
913.0
915.0
917.0
918.0
920.0
921.0
922.0
923.0
926.0
929.0
933.0
939.0
947.0
964.0
979.0
1002.0
1028.0
1056.0
1093.0
1129.0
1165.0
1193.0
1216.0
1237.0
1260.0
1283.0
1305.0
1313.0
1294.0
1245.0
1171.0
1083.0
995.0
926.0
878.0
854.0
849.0
857.0
871.0
880.0
889.0
895.0
896.0
896.0
895.0
891.0
889.0
885.0
885.0
886.0
886.0
887.0
887.0
888.0
890.0
888.0
887.0
884.0
883.0
880.0
881.0
878.0
879.0
880.0
875.0
878.0
878.0
879.0
876.0
875.0
874.0
872.0
871.0
869.0
868.0
869.0
869.0
870.0
869.0
871.0
869.0
868.0
865.0
863.0
861.0
862.0
859.0
861.0
861.0
859.0
861.0
860.0
858.0
856.0
852.0
851.0
849.0
849.0
846.0
850.0
851.0
850.0
848.0
846.0
846.0
845.0
844.0
846.0
844.0
841.0
842.0
844.0
850.0
850.0
854.0
852.0
853.0
856.0
853.0
858.0
859.0
863.0
866.0
873.0
878.0
881.0
887.0
889.0
894.0
897.0
900.0
898.0
903.0
905.0
907.0
909.0
912.0
913.0
916.0
916.0
917.0
914.0
912.0
911.0
914.0
914.0
913.0
916.0
916.0
916.0
918.0
917.0
915.0
916.0
915.0
913.0
911.0
912.0
912.0
911.0
913.0
915.0
915.0
914.0
912.0
911.0
909.0
909.0
906.0
904.0
904.0
906.0
906.0
906.0
908.0
906.0
905.0
901.0
902.0
901.0
902.0
902.0
904.0
904.0
908.0
911.0
914.0
917.0
916.0
913.0
907.0
904.0
900.0
900.0
905.0
919.0
936.0
965.0
997.0
1027.0
1050.0
1068.0
1077.0
1072.0
1066.0
1047.0
1023.0
990.0
966.0
947.0
930.0
909.0
887.0
859.0
835.0
813.0
798.0
794.0
801.0
815.0
832.0
849.0
863.0
874.0
883.0
889.0
891.0
895.0
898.0
902.0
906.0
909.0
909.0
908.0
908.0
906.0
901.0
896.0
895.0
890.0
891.0
891.0
892.0
893.0
894.0
894.0
895.0
894.0
