# Simple Text Format
# Sampling Rate (Hz):= 360.00
# Resolution:= 12
# Labels:= ECG
946.0
946.0
946.0
945.0
943.0
942.0
941.0
942.0
943.0
944.0
945.0
946.0
945.0
945.0
944.0
944.0
941.0
938.0
938.0
940.0
940.0
939.0
942.0
942.0
942.0
940.0
940.0
938.0
938.0
936.0
936.0
935.0
938.0
938.0
939.0
939.0
939.0
938.0
935.0
936.0
934.0
934.0
933.0
935.0
934.0
934.0
934.0
936.0
938.0
935.0
934.0
936.0
937.0
934.0
934.0
935.0
936.0
936.0
938.0
939.0
938.0
937.0
938.0
937.0
935.0
932.0
935.0
936.0
936.0
935.0
937.0
940.0
939.0
939.0
937.0
934.0
934.0
930.0
933.0
935.0
936.0
937.0
933.0
936.0
936.0
940.0
939.0
937.0
937.0
936.0
937.0
939.0
940.0
942.0
944.0
947.0
949.0
947.0
943.0
945.0
943.0
945.0
947.0
950.0
952.0
955.0
959.0
960.0
962.0
963.0
963.0
962.0
962.0
959.0
962.0
958.0
959.0
959.0
958.0
956.0
954.0
950.0
946.0
943.0
938.0
933.0
931.0
931.0
929.0
927.0
930.0
927.0
929.0
930.0
928.0
927.0
926.0
925.0
926.0
923.0
926.0
929.0
931.0
930.0
934.0
934.0
937.0
935.0
935.0
935.0
937.0
941.0
949.0
957.0
965.0
977.0
990.0
1003.0
1022.0
1041.0
1063.0
1089.0
1121.0
1151.0
1182.0
1209.0
1228.0
1249.0
1265.0
1288.0
1315.0
1331.0
1333.0
1306.0
1247.0
1165.0
1075.0
992.0
925.0
887.0
869.0
870.0
877.0
888.0
895.0
898.0
900.0
903.0
900.0
901.0
900.0
901.0
898.0
898.0
897.0
893.0
893.0
893.0
892.0
892.0
892.0
892.0
893.0
894.0
894.0
894.0
891.0
889.0
888.0
885.0
887.0
884.0
885.0
883.0
886.0
885.0
884.0
884.0
882.0
880.0
876.0
876.0
876.0
875.0
875.0
875.0
875.0
876.0
875.0
873.0
871.0
868.0
866.0
864.0
863.0
863.0
863.0
864.0
861.0
863.0
859.0
859.0
858.0
856.0
852.0
849.0
851.0
852.0
851.0
852.0
854.0
854.0
855.0
855.0
853.0
853.0
853.0
851.0
855.0
855.0
857.0
861.0
863.0
867.0
868.0
872.0
873.0
874.0
877.0
879.0
884.0
886.0
892.0
896.0
902.0
904.0
908.0
909.0
909.0
909.0
910.0
910.0
912.0
913.0
914.0
914.0
916.0
918.0
917.0
919.0
921.0
918.0
917.0
917.0
916.0
919.0
917.0
919.0
921.0
922.0
921.0
921.0
920.0
916.0
914.0
914.0
916.0
914.0
915.0
914.0
918.0
917.0
917.0
915.0
914.0
911.0
912.0
910.0
908.0
909.0
908.0
907.0
907.0
908.0
909.0
906.0
907.0
907.0
909.0
909.0
909.0
907.0
906.0
905.0
904.0
902.0
905.0
911.0
924.0
942.0
966.0
995.0
1027.0
1047.0
1061.0
1071.0
1073.0
1069.0
1054.0
1034.0
1006.0
980.0
952.0
934.0
918.0
899.0
876.0
856.0
832.0
812.0
794.0
783.0
778.0
779.0
783.0
789.0
796.0
803.0
810.0
814.0
818.0
820.0
821.0
822.0
824.0
826.0
834.0
841.0
846.0
854.0
858.0
862.0
868.0
874.0
878.0
879.0
887.0
890.0
892.0
893.0
895.0
896.0
898.0
899.0
898.0
900.0
899.0
900.0
898.0
898.0
896.0
896.0
897.0
896.0
898.0
898.0
900.0
901.0
900.0
900.0
901.0
899.0
898.0
895.0
895.0
897.0
897.0
899.0
902.0
902.0
903.0
904.0
903.0
904.0
901.0
900.0
901.0
906.0
908.0
912.0
917.0
921.0
922.0
928.0
929.0
934.0
933.0
939.0
945.0
949.0
956.0
961.0
967.0
971.0
976.0
978.0
982.0
988.0
990.0
995.0
998.0
1001.0
1008.0
1010.0
1012.0
1019.0
1018.0
1018.0
1015.0
1016.0
1013.0
1011.0
1011.0
1011.0
1011.0
1007.0
1008.0
1007.0
1002.0
1001.0
996.0
992.0
986.0
984.0
978.0
976.0
974.0
971.0
968.0
964.0
958.0
958.0
954.0
949.0
946.0
942.0
941.0
937.0
936.0
932.0
932.0
933.0
931.0
932.0
930.0
928.0
925.0
923.0
924.0
922.0
924.0
928.0
926.0
928.0
927.0
927.0
924.0
926.0
923.0
921.0
919.0
920.0
923.0
924.0
927.0
928.0
928.0
929.0
926.0
924.0
925.0
923.0
922.0
922.0
922.0
924.0
927.0
927.0
927.0
929.0
925.0
923.0
923.0
920.0
917.0
917.0
918.0
922.0
922.0
924.0
922.0
923.0
921.0
921.0
920.0
918.0
919.0
919.0
919.0
920.0
921.0
923.0
922.0
924.0
924.0
921.0
919.0
918.0
918.0
917.0
919.0
920.0
921.0
923.0
923.0
922.0
922.0
921.0
919.0
917.0
918.0
918.0
919.0
921.0
921.0
924.0
924.0
923.0
922.0
919.0
916.0
918.0
919.0
919.0
920.0
920.0
922.0
924.0
925.0
923.0
922.0
920.0
918.0
918.0
920.0
922.0
921.0
923.0
927.0
930.0
931.0
930.0
929.0
930.0
930.0
928.0
930.0
929.0
931.0
932.0
935.0
941.0
944.0
945.0
945.0
945.0
944.0
946.0
947.0
947.0
948.0
948.0
947.0
947.0
945.0
943.0
938.0
932.0
932.0
928.0
925.0
922.0
921.0
917.0
915.0
913.0
913.0
911.0
910.0
910.0
911.0
909.0
911.0
911.0
913.0
915.0
916.0
919.0
919.0
919.0
917.0
918.0
917.0
921.0
923.0
929.0
934.0
944.0
956.0
971.0
987.0
1005.0
1028.0
1050.0
1079.0
1109.0
1142.0
1172.0
1200.0
1222.0
1249.0
1275.0
1298.0
1310.0
1299.0
1254.0
1185.0
1103.0
1024.0
956.0
906.0
877.0
865.0
868.0
877.0
883.0
888.0
889.0
887.0
890.0
891.0
891.0
892.0
893.0
893.0
895.0
894.0
895.0
891.0
891.0
889.0
886.0
886.0
887.0
887.0
888.0
891.0
890.0
892.0
890.0
888.0
883.0
885.0
883.0
885.0
881.0
880.0
881.0
882.0
882.0
882.0
882.0
880.0
874.0
875.0
873.0
872.0
873.0
874.0
874.0
873.0
874.0
873.0
872.0
867.0
866.0
864.0
861.0
857.0
857.0
856.0
859.0
861.0
860.0
862.0
859.0
858.0
856.0
854.0
852.0
852.0
851.0
853.0
854.0
855.0
856.0
853.0
856.0
856.0
856.0
858.0
856.0
857.0
857.0
861.0
865.0
867.0
871.0
873.0
875.0
879.0
880.0
884.0
885.0
888.0
894.0
898.0
904.0
906.0
912.0
912.0
913.0
914.0
915.0
915.0
915.0
915.0
917.0
918.0
920.0
921.0
924.0
923.0
924.0
925.0
923.0
923.0
919.0
916.0
917.0
920.0
920.0
919.0
919.0
922.0
922.0
921.0
920.0
916.0
915.0
916.0
915.0
917.0
918.0
917.0
918.0
916.0
916.0
915.0
915.0
911.0
910.0
910.0
908.0
910.0
911.0
912.0
914.0
915.0
914.0
913.0
913.0
914.0
911.0
912.0
911.0
907.0
904.0
902.0
904.0
905.0
914.0
928.0
949.0
979.0
1008.0
1034.0
1050.0
1061.0
1060.0
1047.0
1020.0
983.0
943.0
910.0
879.0
853.0
830.0
804.0
779.0
762.0
752.0
753.0
757.0
765.0
778.0
790.0
798.0
802.0
808.0
809.0
812.0
818.0
828.0
836.0
844.0
852.0
859.0
866.0
873.0
877.0
882.0
886.0
892.0
897.0
900.0
902.0
906.0
906.0
907.0
907.0
906.0
906.0
907.0
905.0
906.0
903.0
905.0
907.0
906.0
906.0
906.0
908.0
907.0
906.0
906.0
906.0
907.0
907.0
909.0
908.0
912.0
913.0
912.0
912.0
912.0
912.0
912.0
909.0
914.0
917.0
918.0
925.0
928.0
931.0
935.0
939.0
944.0
944.0
949.0
953.0
959.0
965.0
971.0
978.0
986.0
992.0
993.0
998.0
1002.0
1005.0
1006.0
1012.0
1015.0
1020.0
1024.0
1027.0
1030.0
1031.0
1031.0
1030.0
1028.0
1027.0
1023.0
1022.0
1017.0
1018.0
1016.0
1014.0
1015.0
1012.0
1007.0
1002.0
999.0
993.0
991.0
986.0
982.0
981.0
978.0
978.0
976.0
971.0
966.0
963.0
960.0
957.0
952.0
949.0
947.0
945.0
943.0
942.0
940.0
939.0
938.0
936.0
934.0
932.0
931.0
930.0
930.0
930.0
931.0
932.0
933.0
931.0
931.0
929.0
925.0
924.0
923.0
924.0
925.0
924.0
924.0
928.0
930.0
932.0
930.0
930.0
928.0
925.0
925.0
925.0
924.0
924.0
927.0
927.0
927.0
928.0
929.0
927.0
926.0
923.0
922.0
921.0
919.0
919.0
919.0
924.0
926.0
926.0
925.0
923.0
924.0
920.0
917.0
914.0
915.0
914.0
918.0
920.0
923.0
924.0
922.0
922.0
917.0
918.0
916.0
915.0
915.0
916.0
919.0
920.0
922.0
922.0
921.0
919.0
919.0
917.0
917.0
916.0
917.0
918.0
919.0
920.0
921.0
921.0
920.0
919.0
918.0
916.0
916.0
913.0
916.0
918.0
920.0
921.0
922.0
922.0
920.0
920.0
916.0
918.0
916.0
915.0
914.0
914.0
920.0
920.0
920.0
920.0
920.0
919.0
919.0
920.0
921.0
921.0
923.0
925.0
926.0
929.0
931.0
931.0
931.0
933.0
931.0
930.0
929.0
931.0
933.0
937.0
940.0
941.0
946.0
947.0
949.0
949.0
948.0
949.0
948.0
945.0
944.0
939.0
940.0
941.0
941.0
937.0
934.0
933.0
928.0
925.0
921.0
919.0
918.0
914.0
913.0
914.0
916.0
913.0
915.0
915.0
914.0
914.0
915.0
914.0
913.0
915.0
918.0
920.0
920.0
927.0
927.0
929.0
932.0
936.0
942.0
951.0
965.0
982.0
1004.0
1026.0
1056.0
1089.0
1129.0
1162.0
1192.0
1213.0
1231.0
1251.0
1274.0
1295.0
1304.0
1288.0
1243.0
1174.0
1093.0
1014.0
942.0
893.0
865.0
857.0
861.0
867.0
876.0
884.0
889.0
893.0
893.0
894.0
895.0
895.0
893.0
893.0
891.0
890.0
891.0
892.0
893.0
893.0
893.0
892.0
889.0
887.0
887.0
884.0
880.0
882.0
883.0
887.0
890.0
889.0
887.0
886.0
884.0
882.0
880.0
876.0
875.0
878.0
878.0
879.0
881.0
879.0
879.0
877.0
873.0
871.0
870.0
868.0
864.0
867.0
868.0
864.0
867.0
867.0
866.0
862.0
864.0
860.0
856.0
855.0
853.0
855.0
856.0
856.0
855.0
856.0
854.0
853.0
851.0
848.0
848.0
849.0
849.0
849.0
850.0
851.0
851.0
852.0
849.0
852.0
853.0
852.0
852.0
854.0
855.0
857.0
860.0
865.0
866.0
870.0
871.0
875.0
875.0
879.0
881.0
883.0
888.0
891.0
895.0
900.0
906.0
907.0
910.0
911.0
910.0
912.0
911.0
911.0
912.0
914.0
916.0
917.0
920.0
920.0
918.0
918.0
917.0
915.0
915.0
915.0
915.0
915.0
918.0
917.0
919.0
917.0
916.0
917.0
914.0
915.0
913.0
912.0
910.0
910.0
909.0
909.0
910.0
911.0
909.0
909.0
907.0
906.0
905.0
904.0
903.0
903.0
903.0
903.0
907.0
904.0
905.0
907.0
906.0
905.0
905.0
904.0
903.0
905.0
902.0
900.0
898.0
896.0
895.0
900.0
908.0
923.0
945.0
971.0
1000.0
1024.0
1046.0
1060.0
1066.0
1067.0
1058.0
1039.0
1012.0
981.0
952.0
927.0
906.0
886.0
863.0
838.0
815.0
792.0
775.0
764.0
760.0
764.0
772.0
779.0
787.0
795.0
800.0
803.0
805.0
806.0
805.0
808.0
814.0
817.0
826.0
830.0
835.0
841.0
850.0
855.0
863.0
869.0
872.0
878.0
883.0
887.0
888.0
890.0
893.0
894.0
894.0
894.0
896.0
891.0
893.0
895.0
894.0
894.0
895.0
893.0
892.0
891.0
892.0
892.0
895.0
898.0
896.0
895.0
894.0
894.0
891.0
891.0
891.0
892.0
893.0
892.0
895.0
896.0
896.0
897.0
898.0
896.0
896.0
896.0
898.0
901.0
903.0
906.0
911.0
914.0
917.0
921.0
923.0
925.0
931.0
935.0
936.0
942.0
949.0
955.0
959.0
965.0
969.0
975.0
978.0
982.0
986.0
989.0
991.0
996.0
1000.0
1006.0
1008.0
1012.0
1013.0
1014.0
1013.0
1013.0
1011.0
1009.0
1008.0
1006.0
1007.0
1007.0
1003.0
1000.0
996.0
993.0
985.0
980.0
980.0
975.0
971.0
971.0
968.0
967.0
964.0
962.0
956.0
952.0
951.0
946.0
939.0
937.0
934.0
933.0
932.0
933.0
933.0
931.0
930.0
928.0
925.0
924.0
922.0
922.0
920.0
919.0
922.0
921.0
922.0
922.0
920.0
922.0
920.0
919.0
918.0
917.0
918.0
917.0
921.0
921.0
919.0
924.0
923.0
924.0
921.0
921.0
917.0
918.0
915.0
916.0
917.0
922.0
922.0
922.0
918.0
917.0
915.0
917.0
914.0
913.0
914.0
912.0
912.0
912.0
915.0
916.0
912.0
913.0
912.0
913.0
911.0
909.0
910.0
909.0
909.0
914.0
915.0
918.0
916.0
917.0
914.0
915.0
913.0
911.0
913.0
912.0
913.0
912.0
912.0
913.0
913.0
915.0
914.0
913.0
912.0
911.0
910.0
910.0
910.0
912.0
912.0
915.0
916.0
915.0
913.0
911.0
909.0
909.0
910.0
911.0
914.0
913.0
914.0
918.0
917.0
917.0
914.0
913.0
913.0
911.0
912.0
912.0
916.0
915.0
919.0
920.0
920.0
920.0
921.0
920.0
917.0
917.0
919.0
920.0
921.0
924.0
928.0
928.0
930.0
932.0
934.0
937.0
938.0
938.0
940.0
940.0
943.0
944.0
941.0
941.0
939.0
936.0
931.0
930.0
928.0
924.0
921.0
919.0
918.0
917.0
915.0
912.0
911.0
908.0
904.0
901.0
898.0
896.0
897.0
899.0
901.0
904.0
905.0
907.0
905.0
908.0
908.0
906.0
907.0
909.0
910.0
912.0
919.0
922.0
929.0
938.0
948.0
962.0
978.0
997.0
1020.0
1046.0
1080.0
1114.0
1150.0
1181.0
1205.0
1231.0
1253.0
1279.0
1302.0
1309.0
1287.0
1234.0
1161.0
1076.0
993.0
924.0
879.0
856.0
851.0
856.0
865.0
866.0
869.0
874.0
875.0
877.0
880.0
880.0
880.0
881.0
878.0
878.0
876.0
874.0
874.0
873.0
871.0
874.0
875.0
875.0
879.0
876.0
877.0
877.0
873.0
871.0
868.0
865.0
868.0
866.0
867.0
866.0
867.0
869.0
869.0
868.0
866.0
863.0
861.0
862.0
858.0
856.0
860.0
861.0
861.0
861.0
861.0
858.0
855.0
854.0
853.0
849.0
849.0
849.0
850.0
848.0
851.0
848.0
846.0
845.0
844.0
841.0
838.0
837.0
836.0
834.0
838.0
839.0
840.0
842.0
841.0
839.0
838.0
838.0
837.0
837.0
838.0
838.0
837.0
842.0
846.0
847.0
848.0
850.0
852.0
852.0
855.0
855.0
859.0
861.0
865.0
871.0
875.0
881.0
883.0
886.0
889.0
889.0
891.0
893.0
896.0
897.0
902.0
902.0
905.0
905.0
906.0
907.0
906.0
905.0
905.0
906.0
906.0
907.0
908.0
909.0
908.0
910.0
909.0
910.0
907.0
908.0
905.0
904.0
902.0
901.0
901.0
902.0
905.0
907.0
905.0
908.0
905.0
903.0
898.0
897.0
896.0
896.0
897.0
898.0
899.0
901.0
898.0
899.0
897.0
896.0
894.0
895.0
897.0
897.0
899.0
901.0
904.0
902.0
899.0
896.0
888.0
890.0
890.0
894.0
906.0
923.0
945.0
970.0
999.0
1024.0
1040.0
1053.0
1056.0
1054.0
1039.0
1016.0
987.0
958.0
932.0
910.0
889.0
866.0
840.0
813.0
789.0
770.0
760.0
758.0
763.0
772.0
781.0
791.0
800.0
805.0
801.0
806.0
804.0
810.0
818.0
824.0
832.0
843.0
849.0
855.0
860.0
870.0
877.0
883.0
887.0
888.0
891.0
891.0
891.0
891.0
891.0
895.0
893.0
895.0
895.0
895.0
894.0
893.0
894.0
894.0
894.0
895.0
895.0
897.0
897.0
898.0
897.0
897.0
897.0
895.0
893.0
892.0
894.0
896.0
896.0
896.0
901.0
903.0
903.0
905.0
906.0
908.0
910.0
913.0
914.0
920.0
924.0
930.0
936.0
941.0
946.0
949.0
954.0
959.0
964.0
970.0
976.0
979.0
987.0
994.0
999.0
1004.0
1005.0
1009.0
1011.0
1010.0
1011.0
1011.0
1010.0
1014.0
1016.0
1015.0
1014.0
1016.0
1012.0
1015.0
1011.0
1006.0
1004.0
1000.0
994.0
993.0
992.0
990.0
987.0
985.0
984.0
979.0
976.0
971.0
966.0
962.0
958.0
955.0
953.0
950.0
948.0
947.0
943.0
943.0
936.0
934.0
930.0
926.0
925.0
926.0
927.0
927.0
928.0
927.0
925.0
925.0
924.0
921.0
920.0
915.0
917.0
917.0
917.0
920.0
920.0
921.0
921.0
919.0
918.0
915.0
918.0
915.0
916.0
916.0
917.0
916.0
918.0
921.0
919.0
919.0
920.0
920.0
917.0
915.0
917.0
915.0
917.0
915.0
918.0
918.0
916.0
917.0
916.0
917.0
914.0
912.0
914.0
912.0
914.0
916.0
916.0
915.0
918.0
915.0
914.0
915.0
912.0
913.0
910.0
912.0
912.0
915.0
912.0
914.0
913.0
915.0
914.0
913.0
912.0
910.0
911.0
911.0
912.0
912.0
913.0
916.0
913.0
913.0
912.0
911.0
910.0
909.0
909.0
909.0
909.0
912.0
913.0
913.0
914.0
912.0
913.0
912.0
910.0
910.0
910.0
911.0
913.0
914.0
915.0
916.0
917.0
918.0
918.0
917.0
917.0
917.0
917.0
918.0
919.0
920.0
922.0
925.0
925.0
927.0
929.0
930.0
930.0
932.0
932.0
937.0
939.0
941.0
942.0
942.0
941.0
943.0
940.0
934.0
933.0
929.0
929.0
926.0
926.0
925.0
924.0
924.0
921.0
919.0
914.0
911.0
909.0
906.0
904.0
905.0
904.0
905.0
906.0
908.0
909.0
909.0
908.0
909.0
907.0
908.0
910.0
910.0
914.0
916.0
918.0
923.0
927.0
934.0
939.0
949.0
962.0
982.0
1002.0
1031.0
1063.0
1102.0
1137.0
1169.0
1194.0
1210.0
1224.0
1243.0
1262.0
1279.0
1282.0
1261.0
1214.0
1146.0
1070.0
997.0
933.0
887.0
862.0
851.0
850.0
858.0
864.0
871.0
879.0
883.0
884.0
888.0
886.0
889.0
886.0
884.0
883.0
881.0
879.0
880.0
879.0
880.0
881.0
882.0
881.0
881.0
880.0
880.0
876.0
876.0
875.0
877.0
874.0
878.0
876.0
877.0
879.0
878.0
875.0
874.0
870.0
870.0
871.0
870.0
871.0
867.0
870.0
872.0
871.0
872.0
869.0
864.0
861.0
862.0
861.0
859.0
861.0
861.0
860.0
861.0
860.0
857.0
856.0
853.0
852.0
851.0
848.0
849.0
848.0
850.0
852.0
852.0
852.0
849.0
848.0
848.0
847.0
844.0
844.0
845.0
847.0
846.0
847.0
851.0
851.0
853.0
852.0
852.0
853.0
853.0
856.0
857.0
859.0
861.0
864.0
868.0
869.0
873.0
873.0
874.0
878.0
879.0
882.0
886.0
889.0
892.0
895.0
899.0
902.0
906.0
906.0
907.0
906.0
906.0
906.0
909.0
909.0
911.0
910.0
914.0
913.0
912.0
913.0
912.0
914.0
911.0
911.0
909.0
912.0
911.0
912.0
911.0
914.0
910.0
910.0
907.0
905.0
904.0
902.0
905.0
904.0
904.0
905.0
906.0
906.0
906.0
904.0
901.0
900.0
899.0
899.0
899.0
900.0
901.0
902.0
904.0
906.0
902.0
904.0
904.0
905.0
901.0
899.0
894.0
894.0
892.0
895.0
903.0
918.0
936.0
962.0
986.0
1012.0
1033.0
1045.0
1054.0
1056.0
1049.0
1034.0
1006.0
973.0
940.0
912.0
884.0
858.0
825.0
792.0
764.0
748.0
742.0
744.0
758.0
771.0
784.0
792.0
796.0
799.0
800.0
804.0
811.0
820.0
831.0
842.0
851.0
859.0
866.0
871.0
880.0
883.0
888.0
891.0
892.0
893.0
892.0
893.0
897.0
897.0
897.0
895.0
895.0
895.0
894.0
895.0
893.0
894.0
897.0
898.0
896.0
899.0
898.0
895.0
895.0
894.0
895.0
895.0
895.0
896.0
897.0
898.0
899.0
898.0
899.0
899.0
900.0
900.0
900.0
903.0
905.0
910.0
911.0
915.0
918.0
923.0
927.0
926.0
931.0
936.0
941.0
943.0
947.0
954.0
962.0
966.0
972.0
976.0
981.0
984.0
988.0
991.0
993.0
994.0
998.0
1006.0
1009.0
1015.0
1019.0
1019.0
1025.0
1024.0
1021.0
1022.0
1018.0
1015.0
1013.0
1012.0
1011.0
1012.0
1008.0
1006.0
1004.0
999.0
995.0
991.0
983.0
981.0
976.0
974.0
972.0
968.0
965.0
962.0
960.0
959.0
953.0
950.0
945.0
943.0
940.0
938.0
940.0
939.0
939.0
936.0
936.0
931.0
931.0
927.0
925.0
924.0
927.0
928.0
927.0
925.0
928.0
928.0
927.0
926.0
922.0
921.0
921.0
920.0
919.0
922.0
923.0
924.0
927.0
926.0
925.0
926.0
924.0
924.0
923.0
922.0
922.0
920.0
922.0
924.0
924.0
926.0
925.0
922.0
922.0
920.0
916.0
915.0
918.0
917.0
921.0
920.0
923.0
921.0
922.0
920.0
919.0
918.0
915.0
917.0
917.0
915.0
918.0
916.0
920.0
917.0
916.0
918.0
914.0
915.0
915.0
913.0
916.0
917.0
918.0
919.0
919.0
919.0
918.0
918.0
917.0
916.0
913.0
914.0
914.0
915.0
917.0
918.0
922.0
920.0
920.0
918.0
914.0
916.0
912.0
912.0
913.0
914.0
915.0
915.0
918.0
918.0
915.0
917.0
915.0
914.0
915.0
913.0
913.0
914.0
913.0
914.0
917.0
917.0
916.0
917.0
916.0
913.0
914.0
915.0
913.0
917.0
918.0
922.0
921.0
924.0
924.0
921.0
923.0
925.0
923.0
924.0
923.0
926.0
929.0
933.0
934.0
940.0
943.0
943.0
943.0
944.0
942.0
942.0
939.0
937.0
936.0
937.0
936.0
932.0
930.0
927.0
923.0
917.0
914.0
914.0
912.0
909.0
908.0
906.0
905.0
903.0
904.0
904.0
902.0
903.0
901.0
900.0
901.0
902.0
904.0
906.0
909.0
908.0
907.0
910.0
912.0
913.0
916.0
922.0
928.0
941.0
957.0
975.0
998.0
1026.0
1059.0
1094.0
1132.0
1166.0
1195.0
1223.0
1249.0
1276.0
1300.0
1297.0
1268.0
1210.0
1129.0
1044.0
967.0
907.0
870.0
856.0
852.0
860.0
871.0
877.0
883.0
883.0
884.0
884.0
882.0
882.0
879.0
879.0
877.0
877.0
877.0
875.0
876.0
877.0
875.0
875.0
874.0
872.0
871.0
869.0
870.0
873.0
873.0
876.0
876.0
874.0
873.0
872.0
870.0
869.0
869.0
867.0
864.0
867.0
867.0
867.0
869.0
868.0
866.0
862.0
859.0
858.0
856.0
854.0
855.0
856.0
856.0
856.0
854.0
854.0
853.0
849.0
850.0
848.0
845.0
843.0
842.0
841.0
840.0
843.0
845.0
841.0
841.0
839.0
836.0
837.0
838.0
837.0
836.0
836.0
836.0
837.0
839.0
839.0
840.0
840.0
838.0
837.0
837.0
836.0
839.0
842.0
847.0
844.0
850.0
854.0
854.0
854.0
857.0
858.0
860.0
862.0
864.0
870.0
875.0
879.0
882.0
885.0
884.0
886.0
888.0
890.0
891.0
893.0
894.0
893.0
895.0
896.0
900.0
901.0
904.0
903.0
901.0
899.0
899.0
901.0
901.0
902.0
902.0
903.0
905.0
905.0
904.0
901.0
900.0
901.0
899.0
898.0
898.0
899.0
901.0
901.0
902.0
903.0
900.0
898.0
896.0
895.0
893.0
893.0
894.0
895.0
893.0
895.0
895.0
895.0
892.0
891.0
887.0
886.0
888.0
886.0
888.0
889.0
889.0
893.0
894.0
895.0
895.0
895.0
891.0
886.0
886.0
883.0
880.0
885.0
890.0
901.0
921.0
939.0
964.0
990.0
1014.0
1029.0
1042.0
1047.0
1050.0
1048.0
1038.0
1019.0
997.0
972.0
947.0
927.0
910.0
891.0
871.0
845.0
821.0
799.0
780.0
769.0
766.0
767.0
772.0
778.0
786.0
791.0
794.0
795.0
797.0
801.0
803.0
809.0
818.0
825.0
829.0
834.0
842.0
848.0
850.0
857.0
861.0
869.0
874.0
878.0
881.0
883.0
883.0
884.0
879.0
881.0
880.0
881.0
880.0
880.0
883.0
883.0
886.0
885.0
882.0
883.0
883.0
880.0
878.0
879.0
881.0
882.0
882.0
883.0
885.0
884.0
882.0
883.0
884.0
881.0
880.0
878.0
880.0
882.0
885.0
887.0
891.0
892.0
895.0
897.0
898.0
901.0
902.0
906.0
909.0
914.0
920.0
923.0
930.0
935.0
941.0
945.0
949.0
952.0
961.0
964.0
972.0
976.0
983.0
989.0
993.0
999.0
999.0
1001.0
1001.0
998.0
997.0
996.0
995.0
993.0
992.0
991.0
990.0
988.0
983.0
978.0
975.0
970.0
963.0
958.0
956.0
951.0
948.0
947.0
945.0
940.0
936.0
935.0
930.0
927.0
922.0
922.0
918.0
917.0
917.0
916.0
918.0
913.0
916.0
915.0
911.0
911.0
909.0
907.0
908.0
910.0
913.0
913.0
916.0
916.0
916.0
915.0
913.0
912.0
912.0
911.0
909.0
911.0
910.0
914.0
915.0
916.0
914.0
916.0
915.0
916.0
913.0
909.0
911.0
911.0
908.0
912.0
914.0
914.0
916.0
916.0
914.0
915.0
914.0
911.0
913.0
912.0
912.0
914.0
910.0
913.0
913.0
911.0
911.0
911.0
906.0
909.0
912.0
911.0
910.0
915.0
916.0
914.0
915.0
917.0
915.0
913.0
913.0
912.0
910.0
911.0
914.0
914.0
916.0
916.0
913.0
913.0
913.0
912.0
911.0
910.0
911.0
914.0
914.0
915.0
917.0
917.0
918.0
916.0
915.0
914.0
912.0
912.0
911.0
913.0
913.0
911.0
914.0
916.0
918.0
916.0
916.0
915.0
916.0
915.0
915.0
917.0
918.0
921.0
923.0
924.0
925.0
927.0
922.0
922.0
923.0
922.0
922.0
925.0
928.0
929.0
937.0
939.0
940.0
941.0
942.0
941.0
944.0
942.0
938.0
945.0
943.0
941.0
942.0
940.0
936.0
932.0
929.0
925.0
923.0
921.0
918.0
917.0
916.0
914.0
911.0
911.0
908.0
907.0
907.0
907.0
906.0
905.0
905.0
907.0
908.0
911.0
911.0
914.0
913.0
914.0
911.0
912.0
912.0
912.0
915.0
917.0
922.0
927.0
934.0
946.0
955.0
970.0
989.0
1011.0
1036.0
1064.0
1099.0
1137.0
1169.0
1197.0
1224.0
1249.0
1272.0
1287.0
1277.0
1238.0
1173.0
1092.0
1009.0
937.0
889.0
861.0
855.0
856.0
864.0
872.0
873.0
879.0
879.0
882.0
881.0
882.0
885.0
884.0
885.0
883.0
882.0
881.0
878.0
876.0
876.0
874.0
876.0
875.0
875.0
875.0
877.0
879.0
879.0
877.0
874.0
872.0
870.0
870.0
871.0
872.0
870.0
872.0
874.0
873.0
871.0
871.0
867.0
867.0
863.0
863.0
865.0
864.0
865.0
865.0
865.0
863.0
864.0
863.0
858.0
859.0
855.0
851.0
852.0
851.0
850.0
852.0
852.0
853.0
850.0
849.0
847.0
844.0
844.0
840.0
841.0
844.0
844.0
847.0
849.0
850.0
850.0
850.0
847.0
849.0
848.0
849.0
852.0
853.0
858.0
861.0
866.0
867.0
871.0
873.0
873.0
877.0
875.0
878.0
881.0
885.0
888.0
894.0
898.0
900.0
901.0
903.0
901.0
902.0
901.0
901.0
906.0
906.0
908.0
910.0
912.0
913.0
913.0
912.0
909.0
909.0
905.0
907.0
908.0
907.0
910.0
909.0
908.0
909.0
909.0
909.0
906.0
905.0
903.0
905.0
903.0
900.0
902.0
899.0
902.0
904.0
902.0
902.0
897.0
896.0
896.0
895.0
895.0
897.0
896.0
897.0
897.0
900.0
902.0
900.0
900.0
900.0
897.0
892.0
889.0
883.0
884.0
886.0
895.0
909.0
927.0
953.0
978.0
1001.0
1020.0
1032.0
1038.0
1039.0
1034.0
1016.0
994.0
964.0
932.0
904.0
882.0
865.0
844.0
822.0
798.0
771.0
750.0
736.0
730.0
729.0
732.0
744.0
755.0
766.0
778.0
786.0
792.0
798.0
803.0
810.0
823.0
833.0
838.0
848.0
857.0
862.0
867.0
872.0
878.0
883.0
890.0
892.0
893.0
892.0
892.0
890.0
888.0
889.0
888.0
889.0
890.0
889.0
890.0
892.0
894.0
894.0
894.0
893.0
892.0
892.0
890.0
891.0
891.0
890.0
892.0
894.0
894.0
896.0
894.0
895.0
896.0
894.0
895.0
896.0
898.0
901.0
902.0
905.0
907.0
912.0
914.0
915.0
916.0
920.0
923.0
928.0
930.0
935.0
940.0
945.0
951.0
957.0
962.0
966.0
970.0
975.0
981.0
984.0
991.0
997.0
1001.0
1008.0
1012.0
1014.0
1017.0
1018.0
1017.0
1015.0
1012.0
1011.0
1013.0
1010.0
1009.0
1007.0
1005.0
1003.0
996.0
993.0
989.0
984.0
978.0
973.0
970.0
967.0
965.0
963.0
960.0
957.0
954.0
949.0
945.0
942.0
938.0
936.0
934.0
928.0
928.0
932.0
930.0
929.0
930.0
925.0
923.0
922.0
921.0
920.0
918.0
918.0
920.0
922.0
922.0
922.0
922.0
918.0
917.0
919.0
916.0
915.0
915.0
916.0
918.0
920.0
920.0
922.0
921.0
918.0
918.0
917.0
917.0
916.0
916.0
917.0
919.0
920.0
922.0
921.0
922.0
919.0
917.0
914.0
912.0
912.0
915.0
917.0
916.0
917.0
919.0
919.0
918.0
919.0
915.0
915.0
913.0
909.0
908.0
910.0
916.0
916.0
917.0
917.0
913.0
913.0
912.0
911.0
910.0
908.0
909.0
912.0
913.0
915.0
917.0
916.0
917.0
916.0
914.0
915.0
914.0
914.0
913.0
914.0
913.0
915.0
917.0
917.0
914.0
915.0
916.0
914.0
914.0
912.0
912.0
912.0
913.0
916.0
