# Simple Text Format
# Sampling Rate (Hz):= 360.00
# Resolution:= 12
# Labels:= ECG
894.0
892.0
891.0
889.0
887.0
887.0
887.0
888.0
887.0
886.0
889.0
890.0
887.0
887.0
882.0
880.0
880.0
881.0
882.0
883.0
886.0
886.0
888.0
888.0
888.0
889.0
888.0
887.0
890.0
893.0
896.0
900.0
905.0
908.0
913.0
916.0
920.0
921.0
925.0
928.0
932.0
936.0
942.0
947.0
952.0
958.0
964.0
966.0
968.0
968.0
972.0
975.0
975.0
973.0
980.0
980.0
982.0
983.0
985.0
983.0
983.0
979.0
978.0
972.0
970.0
968.0
967.0
966.0
964.0
962.0
962.0
957.0
953.0
952.0
948.0
946.0
941.0
939.0
937.0
937.0
937.0
936.0
935.0
932.0
930.0
925.0
927.0
923.0
923.0
921.0
920.0
921.0
923.0
924.0
925.0
925.0
922.0
921.0
920.0
921.0
919.0
918.0
920.0
922.0
923.0
924.0
925.0
925.0
923.0
922.0
922.0
921.0
919.0
918.0
917.0
919.0
921.0
922.0
924.0
925.0
921.0
920.0
923.0
921.0
920.0
919.0
920.0
922.0
922.0
923.0
924.0
923.0
924.0
924.0
921.0
919.0
918.0
918.0
920.0
917.0
919.0
921.0
924.0
922.0
922.0
919.0
918.0
918.0
917.0
913.0
917.0
919.0
919.0
922.0
919.0
922.0
921.0
921.0
919.0
917.0
915.0
915.0
916.0
917.0
917.0
919.0
919.0
921.0
922.0
919.0
918.0
918.0
918.0
916.0
917.0
917.0
919.0
921.0
921.0
921.0
919.0
920.0
920.0
918.0
916.0
917.0
916.0
917.0
917.0
921.0
921.0
921.0
923.0
921.0
919.0
920.0
918.0
919.0
919.0
921.0
920.0
923.0
924.0
926.0
924.0
926.0
925.0
924.0
924.0
926.0
927.0
929.0
930.0
931.0
932.0
932.0
932.0
932.0
931.0
933.0
934.0
940.0
940.0
942.0
945.0
947.0
952.0
953.0
953.0
949.0
949.0
947.0
942.0
940.0
939.0
940.0
938.0
935.0
933.0
929.0
925.0
921.0
918.0
914.0
911.0
908.0
910.0
911.0
912.0
915.0
915.0
915.0
913.0
913.0
914.0
913.0
914.0
911.0
913.0
915.0
918.0
921.0
924.0
927.0
928.0
931.0
935.0
944.0
949.0
969.0
983.0
1007.0
1029.0
1059.0
1089.0
1120.0
1153.0
1178.0
1202.0
1222.0
1245.0
1269.0
1297.0
1321.0
1327.0
1307.0
1257.0
1186.0
1105.0
1026.0
959.0
909.0
878.0
865.0
865.0
872.0
878.0
881.0
885.0
887.0
888.0
888.0
890.0
889.0
887.0
887.0
884.0
885.0
886.0
886.0
886.0
886.0
886.0
886.0
882.0
882.0
882.0
881.0
882.0
880.0
880.0
883.0
884.0
882.0
881.0
880.0
878.0
876.0
874.0
873.0
872.0
873.0
872.0
869.0
872.0
872.0
871.0
870.0
869.0
868.0
865.0
863.0
864.0
862.0
862.0
863.0
863.0
864.0
863.0
860.0
860.0
857.0
856.0
852.0
853.0
852.0
851.0
851.0
851.0
849.0
847.0
847.0
842.0
840.0
840.0
840.0
839.0
840.0
843.0
845.0
843.0
844.0
844.0
845.0
845.0
844.0
844.0
844.0
846.0
847.0
851.0
851.0
857.0
859.0
861.0
864.0
865.0
866.0
869.0
874.0
877.0
882.0
889.0
893.0
895.0
899.0
901.0
897.0
899.0
900.0
902.0
905.0
907.0
909.0
910.0
912.0
914.0
915.0
913.0
913.0
913.0
911.0
911.0
911.0
911.0
912.0
914.0
914.0
914.0
914.0
913.0
913.0
911.0
910.0
905.0
908.0
909.0
910.0
911.0
912.0
911.0
911.0
911.0
909.0
907.0
906.0
903.0
904.0
903.0
903.0
903.0
905.0
906.0
904.0
903.0
900.0
901.0
900.0
901.0
901.0
901.0
905.0
907.0
910.0
911.0
908.0
906.0
902.0
901.0
900.0
908.0
922.0
946.0
978.0
1009.0
1038.0
1059.0
1072.0
1078.0
1077.0
1065.0
1044.0
1015.0
987.0
965.0
946.0
929.0
914.0
894.0
871.0
852.0
835.0
829.0
835.0
844.0
860.0
882.0
905.0
926.0
940.0
951.0
953.0
952.0
947.0
944.0
935.0
928.0
920.0
912.0
907.0
901.0
898.0
895.0
893.0
893.0
892.0
891.0
888.0
887.0
887.0
885.0
887.0
887.0
887.0
889.0
887.0
887.0
885.0
883.0
883.0
882.0
882.0
879.0
878.0
881.0
882.0
883.0
882.0
881.0
882.0
880.0
878.0
877.0
876.0
876.0
875.0
876.0
879.0
877.0
882.0
880.0
880.0
880.0
877.0
881.0
882.0
884.0
889.0
891.0
894.0
899.0
900.0
902.0
906.0
906.0
910.0
913.0
916.0
919.0
924.0
928.0
934.0
940.0
946.0
948.0
950.0
951.0
955.0
951.0
954.0
957.0
958.0
960.0
962.0
964.0
961.0
959.0
958.0
955.0
954.0
952.0
949.0
947.0
947.0
946.0
945.0
945.0
943.0
943.0
939.0
935.0
932.0
931.0
928.0
929.0
927.0
928.0
927.0
929.0
926.0
924.0
921.0
921.0
918.0
918.0
918.0
915.0
915.0
915.0
917.0
920.0
920.0
921.0
919.0
918.0
915.0
914.0
912.0
912.0
915.0
914.0
916.0
918.0
918.0
918.0
917.0
917.0
917.0
914.0
914.0
917.0
917.0
919.0
919.0
920.0
920.0
921.0
920.0
919.0
918.0
918.0
918.0
918.0
918.0
919.0
920.0
922.0
920.0
921.0
920.0
917.0
916.0
916.0
918.0
918.0
920.0
918.0
922.0
921.0
919.0
917.0
919.0
916.0
917.0
917.0
915.0
914.0
918.0
920.0
919.0
920.0
920.0
921.0
921.0
920.0
917.0
914.0
915.0
920.0
920.0
919.0
919.0
923.0
922.0
920.0
920.0
919.0
918.0
915.0
917.0
915.0
920.0
920.0
922.0
924.0
922.0
923.0
923.0
921.0
918.0
917.0
918.0
919.0
921.0
923.0
921.0
925.0
925.0
924.0
923.0
923.0
921.0
921.0
924.0
926.0
928.0
930.0
931.0
932.0
932.0
933.0
932.0
931.0
929.0
931.0
933.0
936.0
940.0
943.0
947.0
949.0
951.0
950.0
951.0
951.0
950.0
949.0
947.0
947.0
945.0
945.0
942.0
942.0
939.0
938.0
933.0
930.0
926.0
921.0
921.0
917.0
915.0
913.0
913.0
915.0
915.0
917.0
913.0
917.0
916.0
914.0
916.0
913.0
916.0
918.0
920.0
922.0
924.0
922.0
923.0
926.0
927.0
931.0
936.0
947.0
958.0
975.0
992.0
1016.0
1041.0
1067.0
1099.0
1134.0
1167.0
1196.0
1222.0
1244.0
1272.0
1302.0
1327.0
1323.0
1287.0
1216.0
1122.0
1023.0
941.0
880.0
851.0
848.0
859.0
874.0
884.0
894.0
898.0
898.0
896.0
895.0
890.0
888.0
886.0
884.0
886.0
888.0
888.0
890.0
890.0
889.0
887.0
889.0
886.0
885.0
883.0
884.0
884.0
885.0
884.0
886.0
886.0
885.0
882.0
880.0
877.0
876.0
874.0
874.0
875.0
875.0
875.0
876.0
874.0
873.0
872.0
871.0
867.0
864.0
864.0
863.0
863.0
862.0
862.0
862.0
864.0
861.0
859.0
856.0
855.0
852.0
850.0
850.0
852.0
851.0
852.0
852.0
851.0
851.0
850.0
848.0
847.0
848.0
850.0
852.0
852.0
856.0
857.0
859.0
861.0
860.0
862.0
862.0
864.0
865.0
868.0
873.0
878.0
883.0
887.0
894.0
897.0
899.0
904.0
905.0
905.0
906.0
908.0
912.0
915.0
918.0
921.0
923.0
922.0
925.0
922.0
922.0
919.0
921.0
922.0
923.0
922.0
926.0
926.0
927.0
927.0
927.0
925.0
921.0
921.0
919.0
916.0
918.0
919.0
919.0
919.0
921.0
921.0
919.0
916.0
915.0
912.0
910.0
911.0
910.0
909.0
912.0
915.0
917.0
916.0
918.0
916.0
918.0
914.0
914.0
915.0
914.0
917.0
916.0
916.0
916.0
912.0
910.0
908.0
909.0
911.0
917.0
933.0
955.0
986.0
1013.0
1039.0
1059.0
1072.0
1078.0
1072.0
1057.0
1031.0
1000.0
973.0
952.0
937.0
920.0
904.0
885.0
869.0
857.0
856.0
867.0
886.0
914.0
945.0
974.0
1000.0
1018.0
1026.0
1027.0
1018.0
1005.0
988.0
972.0
959.0
948.0
938.0
930.0
925.0
919.0
917.0
915.0
912.0
909.0
902.0
898.0
896.0
893.0
893.0
892.0
894.0
894.0
892.0
897.0
893.0
893.0
891.0
890.0
888.0
887.0
886.0
885.0
886.0
887.0
885.0
887.0
888.0
888.0
886.0
886.0
883.0
881.0
880.0
881.0
881.0
880.0
880.0
883.0
878.0
879.0
878.0
877.0
879.0
880.0
882.0
884.0
887.0
888.0
891.0
897.0
899.0
903.0
904.0
907.0
909.0
913.0
918.0
919.0
927.0
931.0
936.0
939.0
943.0
947.0
949.0
951.0
948.0
951.0
953.0
952.0
954.0
954.0
955.0
955.0
957.0
954.0
953.0
950.0
948.0
947.0
945.0
944.0
942.0
943.0
943.0
944.0
942.0
942.0
940.0
939.0
938.0
935.0
934.0
929.0
930.0
931.0
931.0
931.0
930.0
929.0
930.0
926.0
927.0
925.0
923.0
925.0
923.0
923.0
924.0
926.0
925.0
923.0
924.0
923.0
922.0
921.0
920.0
921.0
922.0
923.0
924.0
925.0
925.0
925.0
925.0
924.0
921.0
921.0
921.0
920.0
921.0
924.0
926.0
925.0
925.0
926.0
924.0
923.0
923.0
922.0
919.0
920.0
919.0
923.0
924.0
926.0
925.0
922.0
922.0
925.0
923.0
922.0
922.0
923.0
924.0
926.0
925.0
929.0
927.0
926.0
922.0
921.0
922.0
920.0
919.0
920.0
923.0
923.0
924.0
927.0
926.0
925.0
925.0
922.0
921.0
922.0
922.0
921.0
922.0
924.0
925.0
926.0
927.0
926.0
926.0
922.0
922.0
923.0
923.0
922.0
919.0
924.0
922.0
925.0
927.0
926.0
924.0
923.0
923.0
921.0
921.0
920.0
923.0
924.0
926.0
926.0
926.0
925.0
925.0
924.0
925.0
921.0
921.0
923.0
922.0
924.0
924.0
927.0
928.0
929.0
928.0
931.0
931.0
930.0
928.0
929.0
929.0
932.0
932.0
934.0
937.0
936.0
942.0
941.0
940.0
941.0
942.0
945.0
947.0
952.0
953.0
956.0
956.0
955.0
953.0
952.0
949.0
946.0
942.0
941.0
941.0
939.0
938.0
937.0
935.0
931.0
929.0
926.0
922.0
919.0
914.0
913.0
912.0
913.0
917.0
919.0
917.0
918.0
918.0
918.0
917.0
916.0
914.0
915.0
915.0
922.0
926.0
929.0
933.0
935.0
939.0
944.0
954.0
965.0
980.0
997.0
1019.0
1045.0
1081.0
1115.0
1152.0
1185.0
1212.0
1236.0
1256.0
1283.0
1306.0
1319.0
1308.0
1272.0
1204.0
1121.0
1035.0
959.0
903.0
870.0
858.0
861.0
868.0
875.0
884.0
885.0
891.0
895.0
896.0
896.0
893.0
891.0
887.0
885.0
885.0
883.0
885.0
887.0
887.0
887.0
887.0
886.0
884.0
882.0
881.0
878.0
876.0
878.0
879.0
880.0
878.0
879.0
879.0
876.0
874.0
873.0
870.0
867.0
867.0
867.0
869.0
865.0
866.0
867.0
869.0
867.0
865.0
859.0
858.0
857.0
855.0
853.0
856.0
857.0
856.0
857.0
856.0
856.0
851.0
849.0
850.0
847.0
844.0
844.0
845.0
844.0
844.0
845.0
843.0
845.0
844.0
843.0
842.0
841.0
842.0
842.0
844.0
849.0
848.0
854.0
855.0
853.0
852.0
853.0
852.0
853.0
857.0
862.0
866.0
871.0
876.0
879.0
882.0
885.0
888.0
891.0
893.0
897.0
898.0
900.0
902.0
902.0
905.0
909.0
912.0
912.0
910.0
909.0
907.0
907.0
905.0
905.0
907.0
908.0
910.0
914.0
915.0
913.0
912.0
910.0
906.0
906.0
905.0
906.0
906.0
908.0
906.0
908.0
909.0
907.0
905.0
902.0
899.0
898.0
896.0
896.0
898.0
901.0
902.0
903.0
902.0
903.0
902.0
901.0
899.0
901.0
900.0
904.0
904.0
903.0
902.0
898.0
897.0
895.0
899.0
909.0
919.0
937.0
961.0
992.0
1018.0
1039.0
1052.0
1063.0
1066.0
1058.0
1047.0
1022.0
994.0
967.0
941.0
920.0
903.0
884.0
863.0
842.0
821.0
802.0
788.0
780.0
777.0
782.0
786.0
794.0
802.0
810.0
815.0
818.0
819.0
818.0
820.0
823.0
829.0
832.0
836.0
841.0
850.0
857.0
858.0
862.0
869.0
872.0
876.0
879.0
883.0
886.0
888.0
888.0
889.0
888.0
890.0
893.0
892.0
893.0
892.0
892.0
892.0
889.0
889.0
891.0
890.0
892.0
894.0
895.0
893.0
891.0
892.0
890.0
890.0
889.0
887.0
888.0
885.0
888.0
892.0
893.0
894.0
893.0
892.0
890.0
890.0
890.0
889.0
891.0
893.0
893.0
898.0
901.0
904.0
906.0
907.0
908.0
909.0
912.0
915.0
923.0
928.0
936.0
942.0
946.0
953.0
958.0
962.0
967.0
969.0
974.0
978.0
983.0
986.0
991.0
994.0
998.0
1001.0
1004.0
1002.0
1002.0
1002.0
1002.0
1000.0
1000.0
999.0
999.0
1000.0
999.0
997.0
991.0
989.0
985.0
981.0
977.0
972.0
967.0
968.0
964.0
963.0
961.0
958.0
955.0
949.0
946.0
942.0
939.0
933.0
932.0
930.0
930.0
929.0
931.0
930.0
927.0
924.0
922.0
920.0
921.0
918.0
918.0
918.0
918.0
919.0
920.0
920.0
918.0
918.0
917.0
916.0
914.0
914.0
914.0
914.0
914.0
914.0
917.0
920.0
919.0
919.0
917.0
914.0
916.0
914.0
914.0
915.0
916.0
916.0
918.0
916.0
917.0
916.0
915.0
915.0
913.0
911.0
909.0
909.0
913.0
913.0
915.0
916.0
914.0
913.0
912.0
912.0
910.0
912.0
909.0
910.0
910.0
912.0
912.0
913.0
913.0
911.0
907.0
910.0
909.0
908.0
907.0
911.0
908.0
912.0
912.0
915.0
915.0
912.0
910.0
909.0
907.0
908.0
908.0
908.0
911.0
911.0
912.0
910.0
911.0
910.0
908.0
909.0
906.0
905.0
906.0
909.0
910.0
913.0
914.0
912.0
913.0
911.0
911.0
908.0
909.0
906.0
907.0
909.0
911.0
913.0
916.0
916.0
915.0
915.0
915.0
915.0
916.0
914.0
917.0
918.0
918.0
922.0
922.0
925.0
924.0
925.0
928.0
929.0
932.0
933.0
932.0
937.0
940.0
942.0
943.0
944.0
943.0
941.0
935.0
934.0
931.0
930.0
928.0
927.0
928.0
923.0
922.0
921.0
917.0
913.0
910.0
906.0
903.0
900.0
898.0
898.0
901.0
902.0
902.0
904.0
903.0
905.0
903.0
901.0
902.0
902.0
905.0
904.0
908.0
910.0
915.0
918.0
921.0
928.0
935.0
947.0
961.0
978.0
1001.0
1029.0
1059.0
1091.0
1128.0
1163.0
1190.0
1213.0
1235.0
1256.0
1279.0
1301.0
1306.0
1285.0
1232.0
1157.0
1074.0
990.0
922.0
880.0
856.0
853.0
854.0
863.0
870.0
873.0
878.0
880.0
882.0
883.0
881.0
882.0
880.0
875.0
878.0
874.0
873.0
875.0
874.0
874.0
875.0
877.0
874.0
872.0
872.0
872.0
870.0
870.0
869.0
870.0
870.0
869.0
870.0
873.0
869.0
869.0
866.0
866.0
865.0
862.0
864.0
863.0
863.0
861.0
865.0
862.0
863.0
861.0
856.0
856.0
855.0
853.0
853.0
850.0
850.0
850.0
849.0
853.0
850.0
849.0
846.0
844.0
844.0
840.0
840.0
840.0
839.0
840.0
840.0
840.0
837.0
837.0
835.0
832.0
832.0
830.0
830.0
832.0
831.0
834.0
834.0
835.0
836.0
834.0
834.0
838.0
836.0
837.0
838.0
840.0
843.0
846.0
850.0
853.0
855.0
859.0
862.0
864.0
867.0
868.0
875.0
875.0
879.0
884.0
889.0
892.0
892.0
891.0
892.0
896.0
895.0
897.0
898.0
902.0
903.0
905.0
904.0
907.0
906.0
907.0
905.0
906.0
905.0
904.0
903.0
904.0
906.0
906.0
907.0
907.0
906.0
906.0
903.0
902.0
901.0
899.0
899.0
901.0
900.0
900.0
902.0
903.0
901.0
899.0
898.0
898.0
893.0
893.0
894.0
895.0
898.0
898.0
900.0
905.0
904.0
903.0
905.0
904.0
902.0
896.0
895.0
894.0
896.0
897.0
907.0
919.0
937.0
958.0
981.0
1006.0
1026.0
1041.0
1052.0
1060.0
1063.0
1059.0
1048.0
1030.0
1002.0
975.0
948.0
926.0
907.0
887.0
865.0
840.0
818.0
797.0
784.0
776.0
777.0
779.0
784.0
789.0
795.0
798.0
800.0
801.0
804.0
808.0
815.0
822.0
829.0
834.0
840.0
848.0
856.0
864.0
870.0
879.0
884.0
892.0
897.0
898.0
899.0
898.0
896.0
896.0
896.0
895.0
895.0
899.0
899.0
899.0
901.0
902.0
900.0
901.0
899.0
899.0
897.0
896.0
897.0
897.0
899.0
900.0
902.0
902.0
902.0
905.0
905.0
902.0
901.0
903.0
903.0
904.0
904.0
909.0
914.0
916.0
919.0
921.0
923.0
929.0
932.0
933.0
936.0
939.0
947.0
952.0
960.0
967.0
973.0
980.0
981.0
989.0
994.0
997.0
1000.0
1004.0
1009.0
1013.0
1019.0
1020.0
1021.0
1020.0
1020.0
1016.0
1012.0
1010.0
1011.0
1009.0
1007.0
1009.0
1006.0
1004.0
1000.0
995.0
991.0
985.0
980.0
977.0
974.0
970.0
969.0
968.0
967.0
966.0
963.0
958.0
954.0
950.0
947.0
944.0
945.0
943.0
941.0
940.0
941.0
941.0
940.0
940.0
936.0
935.0
932.0
932.0
931.0
931.0
931.0
932.0
931.0
931.0
931.0
931.0
928.0
928.0
927.0
924.0
928.0
928.0
928.0
931.0
933.0
935.0
931.0
932.0
931.0
931.0
930.0
929.0
929.0
929.0
929.0
930.0
933.0
931.0
930.0
933.0
929.0
930.0
926.0
928.0
925.0
927.0
927.0
928.0
931.0
931.0
930.0
930.0
928.0
925.0
925.0
923.0
923.0
925.0
924.0
928.0
926.0
927.0
926.0
927.0
926.0
925.0
924.0
923.0
924.0
923.0
927.0
926.0
927.0
927.0
926.0
925.0
924.0
920.0
923.0
922.0
924.0
922.0
924.0
925.0
926.0
927.0
926.0
926.0
926.0
924.0
920.0
921.0
921.0
923.0
924.0
927.0
929.0
928.0
928.0
927.0
926.0
924.0
924.0
923.0
924.0
927.0
933.0
935.0
935.0
938.0
937.0
937.0
937.0
938.0
938.0
936.0
939.0
940.0
943.0
947.0
953.0
954.0
958.0
958.0
955.0
954.0
953.0
952.0
949.0
948.0
949.0
948.0
944.0
941.0
938.0
936.0
934.0
929.0
928.0
923.0
921.0
918.0
920.0
919.0
919.0
921.0
920.0
919.0
918.0
918.0
918.0
917.0
916.0
917.0
920.0
925.0
928.0
929.0
930.0
931.0
934.0
939.0
944.0
952.0
966.0
983.0
1006.0
1030.0
1060.0
1091.0
1125.0
1162.0
1193.0
1219.0
1240.0
1269.0
1296.0
1309.0
1295.0
1241.0
1157.0
1057.0
964.0
895.0
855.0
844.0
850.0
865.0
880.0
889.0
900.0
901.0
902.0
899.0
900.0
895.0
892.0
892.0
889.0
887.0
888.0
888.0
887.0
889.0
891.0
889.0
890.0
889.0
888.0
887.0
882.0
882.0
882.0
882.0
882.0
880.0
881.0
883.0
882.0
882.0
880.0
879.0
876.0
873.0
873.0
873.0
873.0
873.0
875.0
873.0
872.0
873.0
870.0
869.0
866.0
863.0
865.0
865.0
865.0
861.0
863.0
859.0
855.0
855.0
856.0
853.0
852.0
850.0
848.0
847.0
846.0
848.0
847.0
848.0
847.0
846.0
846.0
845.0
844.0
844.0
844.0
845.0
847.0
851.0
850.0
853.0
855.0
856.0
858.0
858.0
860.0
863.0
863.0
871.0
874.0
881.0
885.0
889.0
894.0
895.0
895.0
898.0
900.0
901.0
904.0
906.0
909.0
910.0
912.0
914.0
914.0
913.0
911.0
913.0
910.0
912.0
913.0
913.0
916.0
914.0
916.0
915.0
916.0
915.0
912.0
911.0
910.0
910.0
908.0
909.0
910.0
908.0
911.0
913.0
912.0
909.0
908.0
904.0
904.0
901.0
903.0
905.0
903.0
905.0
905.0
905.0
907.0
906.0
903.0
904.0
903.0
903.0
904.0
907.0
911.0
913.0
912.0
912.0
908.0
903.0
899.0
899.0
903.0
913.0
929.0
949.0
978.0
1008.0
1033.0
1055.0
1069.0
1075.0
1073.0
1068.0
1050.0
1026.0
1000.0
974.0
955.0
939.0
928.0
919.0
900.0
878.0
856.0
834.0
816.0
808.0
807.0
815.0
825.0
840.0
857.0
872.0
885.0
897.0
902.0
909.0
914.0
916.0
917.0
918.0
915.0
909.0
908.0
902.0
897.0
894.0
890.0
889.0
886.0
887.0
887.0
887.0
886.0
890.0
892.0
890.0
891.0
887.0
887.0
883.0
882.0
881.0
880.0
881.0
884.0
884.0
880.0
884.0
883.0
882.0
882.0
879.0
877.0
874.0
877.0
876.0
877.0
879.0
880.0
881.0
882.0
881.0
878.0
879.0
878.0
879.0
880.0
881.0
885.0
888.0
891.0
895.0
894.0
894.0
898.0
899.0
900.0
903.0
907.0
910.0
914.0
917.0
924.0
929.0
933.0
935.0
938.0
939.0
942.0
944.0
948.0
955.0
958.0
962.0
964.0
969.0
969.0
967.0
967.0
965.0
963.0
962.0
962.0
959.0
959.0
957.0
958.0
955.0
952.0
951.0
945.0
941.0
938.0
934.0
933.0
931.0
929.0
930.0
926.0
926.0
927.0
925.0
924.0
920.0
918.0
915.0
915.0
917.0
913.0
917.0
918.0
917.0
916.0
917.0
912.0
912.0
908.0
910.0
909.0
907.0
910.0
911.0
913.0
916.0
916.0
914.0
915.0
913.0
912.0
912.0
911.0
913.0
915.0
916.0
914.0
915.0
917.0
916.0
916.0
915.0
912.0
913.0
911.0
912.0
913.0
913.0
914.0
917.0
916.0
915.0
913.0
913.0
914.0
912.0
910.0
911.0
913.0
913.0
914.0
916.0
914.0
915.0
913.0
915.0
909.0
907.0
907.0
912.0
908.0
912.0
914.0
916.0
914.0
917.0
914.0
912.0
909.0
911.0
911.0
910.0
912.0
914.0
914.0
914.0
914.0
913.0
912.0
911.0
910.0
909.0
911.0
912.0
911.0
912.0
916.0
917.0
915.0
916.0
916.0
911.0
910.0
909.0
910.0
910.0
911.0
912.0
914.0
914.0
913.0
916.0
914.0
911.0
912.0
911.0
912.0
913.0
916.0
916.0
919.0
919.0
920.0
921.0
921.0
922.0
920.0
919.0
917.0
919.0
922.0
926.0
927.0
928.0
929.0
931.0
933.0
933.0
934.0
935.0
934.0
938.0
942.0
944.0
944.0
945.0
948.0
944.0
942.0
938.0
936.0
932.0
932.0
930.0
928.0
926.0
926.0
925.0
921.0
920.0
915.0
912.0
907.0
904.0
904.0
904.0
907.0
908.0
908.0
911.0
911.0
911.0
909.0
908.0
907.0
907.0
907.0
910.0
911.0
913.0
915.0
920.0
921.0
924.0
924.0
929.0
936.0
944.0
957.0
967.0
987.0
1010.0
1032.0
1057.0
1082.0
1113.0
1139.0
1165.0
1188.0
1208.0
1227.0
1250.0
1272.0
1289.0
1293.0
1272.0
1222.0
1153.0
1072.0
992.0
930.0
887.0
869.0
861.0
867.0
874.0
882.0
886.0
890.0
889.0
889.0
888.0
884.0
882.0
881.0
880.0
881.0
882.0
881.0
884.0
882.0
882.0
881.0
877.0
878.0
876.0
875.0
876.0
877.0
877.0
879.0
879.0
877.0
877.0
875.0
875.0
873.0
870.0
868.0
870.0
871.0
870.0
870.0
872.0
870.0
869.0
867.0
864.0
862.0
860.0
859.0
858.0
859.0
858.0
859.0
860.0
859.0
857.0
856.0
851.0
850.0
850.0
848.0
845.0
847.0
849.0
849.0
849.0
850.0
848.0
847.0
844.0
842.0
841.0
839.0
838.0
839.0
841.0
841.0
840.0
841.0
842.0
842.0
842.0
841.0
843.0
844.0
847.0
848.0
853.0
857.0
859.0
862.0
867.0
867.0
873.0
875.0
877.0
880.0
883.0
887.0
891.0
895.0
901.0
903.0
904.0
905.0
906.0
904.0
904.0
908.0
908.0
910.0
911.0
911.0
912.0
912.0
913.0
916.0
913.0
914.0
912.0
913.0
913.0
913.0
914.0
916.0
917.0
915.0
914.0
913.0
912.0
911.0
908.0
906.0
906.0
908.0
908.0
909.0
910.0
910.0
910.0
908.0
906.0
903.0
901.0
899.0
903.0
903.0
903.0
904.0
905.0
907.0
906.0
904.0
905.0
904.0
903.0
903.0
904.0
906.0
906.0
904.0
906.0
905.0
907.0
909.0
914.0
925.0
944.0
967.0
990.0
1017.0
1034.0
1048.0
1056.0
1054.0
1044.0
1029.0
1006.0
976.0
950.0
931.0
910.0
892.0
872.0
848.0
824.0
804.0
788.0
782.0
780.0
783.0
788.0
795.0
800.0
804.0
810.0
815.0
819.0
824.0
829.0
834.0
838.0
844.0
849.0
855.0
864.0
869.0
877.0
887.0
891.0
894.0
898.0
898.0
899.0
897.0
894.0
895.0
896.0
898.0
898.0
901.0
902.0
903.0
902.0
899.0
898.0
899.0
899.0
898.0
899.0
902.0
903.0
903.0
907.0
907.0
906.0
905.0
901.0
904.0
903.0
902.0
904.0
907.0
911.0
909.0
914.0
918.0
919.0
922.0
921.0
923.0
925.0
929.0
935.0
941.0
946.0
950.0
957.0
960.0
965.0
971.0
974.0
976.0
979.0
984.0
988.0
996.0
1000.0
1002.0
1006.0
1009.0
1013.0
1014.0
1014.0
1012.0
1011.0
1011.0
1010.0
1011.0
1013.0
1012.0
1010.0
1009.0
1006.0
999.0
997.0
993.0
990.0
986.0
984.0
980.0
976.0
976.0
974.0
971.0
968.0
962.0
956.0
955.0
951.0
948.0
943.0
942.0
940.0
941.0
942.0
941.0
940.0
940.0
936.0
934.0
934.0
932.0
931.0
929.0
931.0
933.0
933.0
932.0
931.0
929.0
929.0
928.0
927.0
927.0
928.0
930.0
933.0
933.0
935.0
933.0
930.0
931.0
930.0
928.0
926.0
925.0
927.0
927.0
932.0
933.0
936.0
933.0
932.0
931.0
930.0
927.0
927.0
926.0
925.0
926.0
928.0
928.0
931.0
929.0
928.0
926.0
926.0
924.0
923.0
922.0
924.0
925.0
924.0
925.0
925.0
926.0
923.0
923.0
924.0
920.0
924.0
921.0
922.0
922.0
926.0
925.0
926.0
928.0
926.0
924.0
922.0
923.0
922.0
922.0
921.0
921.0
920.0
922.0
925.0
926.0
926.0
925.0
923.0
922.0
921.0
919.0
919.0
918.0
922.0
924.0
929.0
926.0
926.0
926.0
927.0
926.0
923.0
923.0
922.0
922.0
926.0
926.0
929.0
929.0
928.0
928.0
927.0
930.0
928.0
927.0
929.0
932.0
929.0
931.0
934.0
939.0
938.0
941.0
940.0
942.0
943.0
944.0
946.0
949.0
952.0
950.0
951.0
948.0
949.0
944.0
942.0
939.0
937.0
933.0
931.0
926.0
928.0
927.0
924.0
919.0
917.0
914.0
914.0
917.0
915.0
915.0
916.0
917.0
917.0
921.0
926.0
925.0
925.0
925.0
924.0
927.0
927.0
932.0
937.0
947.0
958.0
975.0
995.0
1017.0
1043.0
1074.0
1110.0
1148.0
1185.0
1210.0
1231.0
1254.0
1276.0
1287.0
1280.0
1241.0
1179.0
1100.0
1018.0
948.0
897.0
869.0
860.0
864.0
874.0
884.0
892.0
898.0
900.0
901.0
899.0
895.0
891.0
888.0
886.0
889.0
890.0
892.0
893.0
891.0
891.0
890.0
889.0
885.0
884.0
884.0
882.0
884.0
884.0
885.0
885.0
884.0
885.0
883.0
877.0
878.0
877.0
875.0
873.0
877.0
878.0
877.0
878.0
875.0
873.0
874.0
870.0
869.0
868.0
867.0
864.0
866.0
866.0
867.0
865.0
866.0
866.0
862.0
862.0
859.0
858.0
856.0
856.0
855.0
856.0
854.0
855.0
854.0
854.0
855.0
851.0
851.0
850.0
850.0
847.0
848.0
850.0
855.0
855.0
857.0
858.0
860.0
862.0
861.0
862.0
862.0
864.0
868.0
870.0
875.0
878.0
882.0
885.0
890.0
889.0
894.0
897.0
901.0
902.0
906.0
910.0
911.0
915.0
917.0
916.0
918.0
917.0
917.0
917.0
916.0
917.0
918.0
920.0
923.0
923.0
922.0
922.0
924.0
923.0
921.0
919.0
920.0
917.0
920.0
919.0
922.0
922.0
923.0
921.0
920.0
916.0
916.0
914.0
911.0
913.0
915.0
913.0
916.0
915.0
913.0
912.0
913.0
911.0
906.0
909.0
910.0
911.0
912.0
915.0
917.0
920.0
920.0
921.0
917.0
915.0
911.0
906.0
902.0
900.0
902.0
907.0
920.0
938.0
962.0
991.0
1018.0
1040.0
1058.0
1070.0
1071.0
1062.0
1043.0
1016.0
983.0
955.0
931.0
913.0
892.0
871.0
843.0
813.0
787.0
766.0
752.0
750.0
754.0
765.0
775.0
787.0
793.0
799.0
805.0
805.0
809.0
812.0
820.0
828.0
837.0
845.0
853.0
858.0
864.0
868.0
874.0
878.0
885.0
893.0
897.0
901.0
904.0
904.0
904.0
905.0
905.0
903.0
902.0
899.0
899.0
899.0
900.0
903.0
903.0
908.0
905.0
905.0
903.0
902.0
902.0
900.0
901.0
902.0
901.0
901.0
902.0
903.0
903.0
904.0
904.0
905.0
904.0
902.0
903.0
905.0
906.0
908.0
909.0
914.0
915.0
920.0
922.0
925.0
929.0
930.0
934.0
939.0
942.0
950.0
956.0
963.0
969.0
973.0
975.0
977.0
981.0
985.0
990.0
996.0
1002.0
1008.0
1011.0
1017.0
1018.0
1020.0
1020.0
1022.0
1024.0
1022.0
1020.0
1020.0
1022.0
1023.0
1022.0
1021.0
1020.0
1018.0
1016.0
1010.0
1007.0
1005.0
999.0
996.0
993.0
991.0
989.0
988.0
985.0
979.0
974.0
969.0
966.0
962.0
960.0
958.0
955.0
953.0
951.0
951.0
