# Simple Text Format
# Sampling Rate (Hz):= 360.00
# Resolution:= 12
# Labels:= ECG
1047.0
1043.0
1037.0
1040.0
1041.0
1040.0
1035.0
1030.0
1031.0
1034.0
1035.0
1034.0
1029.0
1017.0
1007.0
1001.0
1003.0
1004.0
1003.0
1007.0
1012.0
1033.0
1053.0
1072.0
1088.0
1108.0
1131.0
1154.0
1190.0
1227.0
1263.0
1297.0
1327.0
1351.0
1381.0
1410.0
1434.0
1452.0
1470.0
1490.0
1512.0
1530.0
1541.0
1543.0
1555.0
1553.0
1545.0
1514.0
1468.0
1411.0
1342.0
1272.0
1204.0
1145.0
1091.0
1057.0
1031.0
1006.0
980.0
958.0
943.0
938.0
932.0
931.0
934.0
937.0
934.0
930.0
924.0
922.0
922.0
925.0
922.0
918.0
916.0
913.0
911.0
911.0
909.0
908.0
908.0
909.0
913.0
914.0
915.0
913.0
909.0
908.0
909.0
911.0
910.0
907.0
905.0
901.0
897.0
899.0
897.0
896.0
894.0
893.0
893.0
890.0
894.0
893.0
892.0
893.0
895.0
898.0
896.0
897.0
891.0
890.0
889.0
892.0
896.0
900.0
895.0
897.0
896.0
899.0
902.0
898.0
892.0
891.0
894.0
899.0
900.0
896.0
894.0
898.0
903.0
908.0
911.0
913.0
908.0
909.0
912.0
915.0
916.0
916.0
922.0
927.0
936.0
938.0
943.0
939.0
939.0
941.0
947.0
955.0
962.0
965.0
964.0
963.0
963.0
963.0
964.0
962.0
960.0
964.0
971.0
976.0
976.0
974.0
972.0
972.0
976.0
978.0
979.0
976.0
972.0
969.0
968.0
971.0
976.0
974.0
974.0
974.0
981.0
984.0
984.0
984.0
982.0
980.0
983.0
987.0
987.0
988.0
988.0
986.0
989.0
987.0
983.0
982.0
985.0
986.0
988.0
989.0
990.0
988.0
984.0
984.0
985.0
983.0
986.0
984.0
983.0
983.0
983.0
982.0
980.0
980.0
977.0
976.0
982.0
982.0
978.0
976.0
976.0
975.0
980.0
983.0
985.0
984.0
979.0
972.0
977.0
979.0
979.0
979.0
979.0
976.0
980.0
982.0
978.0
978.0
974.0
973.0
976.0
981.0
987.0
990.0
990.0
986.0
984.0
982.0
984.0
983.0
981.0
981.0
982.0
984.0
981.0
978.0
977.0
973.0
973.0
977.0
977.0
982.0
981.0
980.0
981.0
978.0
979.0
981.0
979.0
976.0
981.0
982.0
979.0
979.0
975.0
973.0
975.0
981.0
982.0
981.0
978.0
978.0
981.0
979.0
979.0
978.0
977.0
980.0
985.0
980.0
978.0
978.0
973.0
972.0
972.0
975.0
977.0
979.0
974.0
972.0
975.0
981.0
986.0
985.0
987.0
987.0
993.0
996.0
993.0
989.0
989.0
995.0
1001.0
1005.0
1008.0
1009.0
1003.0
993.0
992.0
992.0
993.0
993.0
991.0
991.0
990.0
986.0
985.0
976.0
969.0
970.0
969.0
974.0
977.0
975.0
974.0
971.0
973.0
974.0
970.0
968.0
966.0
966.0
964.0
964.0
964.0
961.0
959.0
958.0
963.0
966.0
966.0
964.0
961.0
961.0
959.0
957.0
957.0
960.0
967.0
970.0
973.0
975.0
973.0
973.0
970.0
976.0
980.0
984.0
981.0
980.0
978.0
976.0
978.0
984.0
987.0
985.0
982.0
981.0
980.0
984.0
985.0
982.0
977.0
974.0
969.0
968.0
963.0
963.0
963.0
969.0
978.0
990.0
1002.0
1010.0
1015.0
1017.0
1028.0
1047.0
1074.0
1117.0
1148.0
1152.0
1139.0
1128.0
1114.0
1088.0
1056.0
1030.0
1016.0
1012.0
1010.0
1003.0
996.0
995.0
999.0
1006.0
1013.0
1015.0
1013.0
1013.0
1012.0
1009.0
1011.0
1012.0
1011.0
1014.0
1019.0
1023.0
1022.0
1019.0
1017.0
1014.0
1018.0
1027.0
1032.0
1035.0
1034.0
1030.0
1026.0
1028.0
1027.0
1028.0
1028.0
1032.0
1037.0
1034.0
1036.0
1039.0
1039.0
1042.0
1045.0
1047.0
1051.0
1051.0
1051.0
1049.0
1051.0
1055.0
1060.0
1061.0
1058.0
1056.0
1060.0
1063.0
1066.0
1066.0
1065.0
1070.0
1074.0
1076.0
1078.0
1079.0
1076.0
1074.0
1074.0
1075.0
1079.0
1085.0
1086.0
1085.0
1088.0
1088.0
1085.0
1082.0
1077.0
1079.0
1084.0
1084.0
1084.0
1080.0
1076.0
1071.0
1072.0
1077.0
1080.0
1081.0
1077.0
1072.0
1074.0
1075.0
1075.0
1071.0
1063.0
1054.0
1055.0
1059.0
1059.0
1058.0
1050.0
1040.0
1041.0
1041.0
1039.0
1042.0
1043.0
1041.0
1038.0
1034.0
1031.0
1032.0
1034.0
1036.0
1038.0
1041.0
1034.0
1029.0
1023.0
1022.0
1029.0
1037.0
1046.0
1051.0
1049.0
1046.0
1044.0
1045.0
1043.0
1042.0
1039.0
1037.0
1036.0
1034.0
1030.0
1028.0
1025.0
1024.0
1027.0
1032.0
1036.0
1035.0
1032.0
1032.0
1030.0
1030.0
1026.0
1025.0
1020.0
1018.0
1020.0
1023.0
1026.0
1025.0
1018.0
1011.0
1003.0
996.0
990.0
989.0
985.0
987.0
989.0
999.0
1014.0
1036.0
1056.0
1071.0
1095.0
1118.0
1142.0
1174.0
1208.0
1249.0
1286.0
1319.0
1349.0
1372.0
1402.0
1422.0
1441.0
1457.0
1477.0
1492.0
1503.0
1512.0
1525.0
1532.0
1530.0
1512.0
1479.0
1429.0
1379.0
1323.0
1268.0
1210.0
1154.0
1107.0
1068.0
1040.0
1017.0
994.0
971.0
950.0
938.0
935.0
931.0
928.0
920.0
919.0
919.0
916.0
911.0
908.0
904.0
906.0
909.0
913.0
914.0
908.0
908.0
900.0
899.0
899.0
899.0
900.0
900.0
904.0
906.0
907.0
905.0
905.0
897.0
896.0
899.0
902.0
905.0
902.0
898.0
892.0
891.0
892.0
893.0
893.0
890.0
887.0
887.0
886.0
884.0
886.0
880.0
883.0
884.0
886.0
887.0
887.0
883.0
878.0
875.0
875.0
876.0
876.0
872.0
871.0
874.0
879.0
879.0
879.0
877.0
876.0
880.0
884.0
889.0
887.0
888.0
889.0
891.0
897.0
900.0
899.0
900.0
901.0
903.0
907.0
910.0
912.0
909.0
909.0
910.0
912.0
917.0
919.0
918.0
921.0
926.0
932.0
938.0
938.0
941.0
939.0
947.0
953.0
955.0
959.0
959.0
958.0
961.0
963.0
971.0
972.0
970.0
972.0
973.0
974.0
975.0
978.0
978.0
977.0
979.0
981.0
985.0
987.0
987.0
988.0
991.0
993.0
993.0
988.0
986.0
989.0
995.0
1002.0
1003.0
1006.0
1001.0
997.0
993.0
998.0
1001.0
1005.0
1004.0
1005.0
1006.0
1008.0
1007.0
1006.0
1005.0
1003.0
1002.0
1005.0
1004.0
1007.0
1007.0
1003.0
1007.0
1010.0
1012.0
1009.0
1009.0
1006.0
1009.0
1011.0
1012.0
1011.0
1009.0
1012.0
1015.0
1016.0
1014.0
1011.0
1010.0
1004.0
1010.0
1009.0
1012.0
1012.0
1010.0
1011.0
1008.0
1009.0
1011.0
1007.0
1008.0
1007.0
1012.0
1017.0
1019.0
1017.0
1013.0
1010.0
1014.0
1016.0
1018.0
1016.0
1011.0
1011.0
1015.0
1019.0
1023.0
1023.0
1020.0
1013.0
1014.0
1014.0
1018.0
1019.0
1020.0
1019.0
1021.0
1021.0
1021.0
1022.0
1019.0
1017.0
1015.0
1017.0
1020.0
1023.0
1022.0
1019.0
1021.0
1019.0
1017.0
1013.0
1013.0
1011.0
1016.0
1017.0
1017.0
1016.0
1016.0
1013.0
1013.0
1013.0
1013.0
1013.0
1012.0
1011.0
1014.0
1015.0
1016.0
1016.0
1016.0
1013.0
1012.0
1011.0
1010.0
1011.0
1007.0
1007.0
1008.0
1015.0
1019.0
1014.0
1011.0
1013.0
1014.0
1013.0
1016.0
1013.0
1009.0
1003.0
1008.0
1013.0
1018.0
1023.0
1023.0
1020.0
1020.0
1024.0
1028.0
1033.0
1036.0
1035.0
1038.0
1037.0
1035.0
1032.0
1030.0
1027.0
1026.0
1025.0
1025.0
1028.0
1022.0
1014.0
1008.0
1007.0
1010.0
1014.0
1010.0
1008.0
1005.0
1003.0
1000.0
999.0
1001.0
1000.0
1000.0
1003.0
1006.0
1004.0
1000.0
996.0
993.0
992.0
991.0
987.0
987.0
988.0
988.0
986.0
990.0
993.0
994.0
990.0
985.0
979.0
979.0
983.0
981.0
983.0
983.0
985.0
993.0
996.0
997.0
996.0
1000.0
1003.0
1008.0
1011.0
1006.0
1002.0
1003.0
1002.0
1003.0
1007.0
1007.0
1006.0
1009.0
1008.0
1010.0
1009.0
1006.0
1007.0
1010.0
1013.0
1012.0
1013.0
1006.0
998.0
989.0
979.0
974.0
978.0
982.0
989.0
992.0
995.0
1005.0
1011.0
1013.0
1015.0
1022.0
1035.0
1050.0
1076.0
1111.0
1139.0
1151.0
1144.0
1130.0
1109.0
1086.0
1062.0
1049.0
1039.0
1032.0
1025.0
1019.0
1015.0
1012.0
1013.0
1016.0
1017.0
1015.0
1018.0
1017.0
1019.0
1016.0
1015.0
1015.0
1017.0
1021.0
1027.0
1029.0
1026.0
1024.0
1023.0
1022.0
1024.0
1022.0
1023.0
1022.0
1023.0
1028.0
1033.0
1032.0
1024.0
1021.0
1019.0
1029.0
1036.0
1041.0
1039.0
1043.0
1039.0
1040.0
1041.0
1042.0
1043.0
1041.0
1040.0
1048.0
1050.0
1052.0
1052.0
1050.0
1048.0
1050.0
1051.0
1054.0
1055.0
1057.0
1055.0
1055.0
1058.0
1059.0
1062.0
1065.0
1065.0
1067.0
1066.0
1066.0
1068.0
1069.0
1069.0
1068.0
1064.0
1068.0
1073.0
1073.0
1074.0
1071.0
1071.0
1070.0
1067.0
1066.0
1064.0
1065.0
1067.0
1071.0
1074.0
1076.0
1076.0
1076.0
1075.0
1072.0
1070.0
1066.0
1065.0
1067.0
1071.0
1073.0
1069.0
1063.0
1053.0
1048.0
1049.0
1049.0
1053.0
1048.0
1049.0
1048.0
1045.0
1044.0
1039.0
1036.0
1032.0
1034.0
1036.0
1035.0
1031.0
1031.0
1028.0
1025.0
1021.0
1024.0
1023.0
1021.0
1019.0
1017.0
1020.0
1018.0
1015.0
1013.0
1009.0
1009.0
1012.0
1017.0
1019.0
1016.0
1013.0
1017.0
1017.0
1018.0
1017.0
1013.0
1008.0
1008.0
1012.0
1015.0
1017.0
1012.0
1010.0
1003.0
1002.0
1000.0
998.0
997.0
998.0
1002.0
1004.0
1007.0
1005.0
1000.0
996.0
993.0
996.0
1001.0
1003.0
1003.0
998.0
1001.0
1003.0
1001.0
998.0
993.0
988.0
987.0
986.0
983.0
979.0
972.0
967.0
972.0
973.0
973.0
978.0
993.0
1015.0
1040.0
1063.0
1083.0
1099.0
1114.0
1131.0
1158.0
1193.0
1231.0
1263.0
1299.0
1328.0
1355.0
1379.0
1400.0
1421.0
1435.0
1451.0
1473.0
1495.0
1512.0
1521.0
1531.0
1535.0
1538.0
1536.0
1520.0
1493.0
1455.0
1414.0
1372.0
1329.0
1283.0
1224.0
1162.0
1106.0
1060.0
1032.0
1004.0
977.0
953.0
936.0
926.0
923.0
925.0
923.0
916.0
911.0
911.0
911.0
908.0
906.0
900.0
897.0
899.0
903.0
904.0
901.0
899.0
895.0
895.0
895.0
894.0
894.0
898.0
897.0
900.0
901.0
903.0
902.0
899.0
899.0
901.0
908.0
913.0
910.0
904.0
898.0
895.0
895.0
896.0
894.0
889.0
890.0
897.0
899.0
903.0
900.0
895.0
893.0
890.0
887.0
890.0
889.0
888.0
886.0
885.0
887.0
884.0
881.0
878.0
874.0
874.0
879.0
886.0
889.0
892.0
891.0
889.0
888.0
890.0
886.0
886.0
886.0
889.0
894.0
897.0
894.0
893.0
891.0
892.0
896.0
898.0
902.0
902.0
909.0
913.0
915.0
916.0
914.0
913.0
911.0
917.0
923.0
931.0
935.0
940.0
940.0
939.0
942.0
946.0
952.0
957.0
958.0
961.0
965.0
968.0
967.0
967.0
966.0
969.0
972.0
981.0
981.0
983.0
981.0
981.0
983.0
985.0
986.0
986.0
989.0
991.0
995.0
1001.0
1000.0
993.0
988.0
988.0
992.0
994.0
994.0
996.0
995.0
996.0
1001.0
1002.0
1001.0
998.0
993.0
997.0
996.0
1001.0
1005.0
1003.0
1003.0
1001.0
1003.0
1003.0
999.0
996.0
995.0
998.0
1001.0
1002.0
1003.0
1002.0
1001.0
1004.0
1005.0
1006.0
1004.0
1001.0
1000.0
1003.0
1006.0
1009.0
1007.0
1003.0
994.0
999.0
1004.0
1004.0
1002.0
1001.0
999.0
998.0
1002.0
1003.0
1006.0
1002.0
997.0
1000.0
1005.0
1011.0
1012.0
1009.0
1003.0
1000.0
1003.0
1006.0
1004.0
1002.0
998.0
996.0
1000.0
1004.0
1003.0
999.0
998.0
999.0
1000.0
1001.0
1001.0
1005.0
1004.0
1005.0
1008.0
1008.0
1004.0
999.0
995.0
995.0
997.0
999.0
1005.0
1005.0
1005.0
1002.0
1003.0
1003.0
1002.0
1002.0
1005.0
1007.0
1006.0
1008.0
1003.0
999.0
995.0
997.0
1003.0
1004.0
1008.0
1009.0
1006.0
1007.0
1008.0
1008.0
1005.0
1003.0
997.0
999.0
999.0
1001.0
1004.0
1003.0
1003.0
1004.0
1002.0
1000.0
999.0
993.0
990.0
993.0
996.0
999.0
1004.0
1003.0
1003.0
999.0
995.0
997.0
998.0
997.0
998.0
999.0
1004.0
1006.0
1004.0
1000.0
996.0
995.0
999.0
1002.0
1004.0
1001.0
1007.0
1010.0
1012.0
1015.0
1013.0
1011.0
1016.0
1024.0
1027.0
1031.0
1032.0
1024.0
1016.0
1014.0
1014.0
1013.0
1015.0
1015.0
1015.0
1016.0
1014.0
1013.0
1005.0
999.0
992.0
990.0
989.0
990.0
992.0
991.0
987.0
987.0
983.0
987.0
986.0
983.0
980.0
983.0
986.0
987.0
987.0
984.0
982.0
980.0
976.0
972.0
968.0
967.0
965.0
968.0
971.0
975.0
973.0
973.0
973.0
974.0
972.0
971.0
969.0
970.0
970.0
977.0
982.0
984.0
987.0
986.0
983.0
984.0
986.0
989.0
988.0
988.0
988.0
989.0
993.0
993.0
992.0
989.0
990.0
991.0
993.0
998.0
999.0
997.0
995.0
997.0
994.0
997.0
994.0
990.0
991.0
993.0
994.0
995.0
996.0
991.0
980.0
972.0
962.0
958.0
957.0
958.0
961.0
964.0
970.0
973.0
973.0
976.0
977.0
981.0
985.0
988.0
1000.0
1020.0
1044.0
1078.0
1113.0
1132.0
1138.0
1125.0
1113.0
1104.0
1088.0
1068.0
1053.0
1037.0
1030.0
1023.0
1017.0
1012.0
1008.0
1003.0
1003.0
1011.0
1021.0
1027.0
1027.0
1024.0
1022.0
1018.0
1015.0
1016.0
1017.0
1013.0
1013.0
1016.0
1021.0
1021.0
1022.0
1022.0
1019.0
1020.0
1022.0
1024.0
1023.0
1021.0
1024.0
1026.0
1028.0
1031.0
1032.0
1030.0
1027.0
1026.0
1030.0
1032.0
1040.0
1042.0
1042.0
1040.0
1041.0
1043.0
1042.0
1041.0
1039.0
1043.0
1049.0
1052.0
1056.0
1056.0
1055.0
1053.0
1052.0
1052.0
1048.0
1046.0
1046.0
1052.0
1057.0
1064.0
1067.0
1064.0
1062.0
1061.0
1061.0
1061.0
1065.0
1064.0
1064.0
1065.0
1069.0
1074.0
1074.0
1074.0
1067.0
1067.0
1069.0
1076.0
1075.0
1073.0
1072.0
1070.0
1073.0
1073.0
1071.0
1067.0
1067.0
1071.0
1077.0
1080.0
1081.0
1078.0
1075.0
1074.0
1075.0
1072.0
1067.0
1066.0
1062.0
1065.0
1069.0
1068.0
1068.0
1065.0
1061.0
1059.0
1059.0
1060.0
1058.0
1051.0
1048.0
1046.0
1046.0
1044.0
1041.0
1035.0
1029.0
1033.0
1031.0
1036.0
1038.0
1035.0
1029.0
1027.0
1024.0
1024.0
1021.0
1016.0
1014.0
1012.0
1018.0
1022.0
1022.0
1014.0
1009.0
1011.0
1013.0
1016.0
1015.0
1014.0
1010.0
1009.0
1008.0
1007.0
1006.0
1001.0
998.0
998.0
999.0
999.0
1000.0
995.0
990.0
989.0
992.0
999.0
999.0
1001.0
994.0
991.0
995.0
998.0
995.0
992.0
988.0
986.0
981.0
980.0
984.0
979.0
976.0
975.0
978.0
982.0
984.0
981.0
981.0
978.0
983.0
984.0
982.0
980.0
978.0
982.0
982.0
979.0
980.0
983.0
986.0
989.0
990.0
992.0
991.0
996.0
998.0
1000.0
1004.0
1007.0
1007.0
1005.0
1004.0
1003.0
1002.0
1006.0
1005.0
1003.0
999.0
999.0
1001.0
999.0
991.0
983.0
974.0
971.0
974.0
980.0
984.0
990.0
989.0
989.0
986.0
984.0
981.0
975.0
970.0
968.0
968.0
969.0
970.0
970.0
972.0
974.0
973.0
973.0
968.0
964.0
963.0
960.0
964.0
964.0
965.0
964.0
961.0
962.0
964.0
966.0
963.0
963.0
964.0
968.0
975.0
984.0
981.0
982.0
978.0
980.0
982.0
984.0
985.0
983.0
977.0
977.0
978.0
979.0
983.0
982.0
980.0
983.0
987.0
989.0
990.0
988.0
985.0
987.0
989.0
983.0
985.0
980.0
977.0
973.0
966.0
960.0
955.0
956.0
959.0
966.0
968.0
975.0
979.0
985.0
988.0
994.0
1004.0
1019.0
1039.0
1067.0
1103.0
1122.0
1118.0
1114.0
1101.0
1079.0
1053.0
1033.0
1024.0
1019.0
1011.0
1003.0
997.0
995.0
996.0
997.0
999.0
997.0
997.0
993.0
994.0
1002.0
1000.0
1002.0
1002.0
1003.0
1007.0
1010.0
1012.0
1011.0
1005.0
1004.0
1005.0
1007.0
1007.0
1006.0
1006.0
1005.0
1006.0
1009.0
1009.0
1008.0
1010.0
1014.0
1017.0
1022.0
1022.0
1018.0
1018.0
1019.0
1021.0
1023.0
1025.0
1024.0
1023.0
1023.0
1030.0
1035.0
1036.0
1033.0
1030.0
1031.0
1034.0
1038.0
1038.0
1037.0
1034.0
1032.0
1040.0
1046.0
1048.0
1048.0
1043.0
1043.0
1045.0
1049.0
1049.0
1049.0
1047.0
1049.0
1052.0
1054.0
1052.0
1052.0
1049.0
1049.0
1051.0
1050.0
1050.0
1052.0
1051.0
1053.0
1053.0
1051.0
1047.0
1045.0
1042.0
1046.0
1046.0
1045.0
1042.0
1038.0
1034.0
1032.0
1031.0
1031.0
1029.0
1025.0
1020.0
1017.0
1014.0
1015.0
1014.0
1009.0
1004.0
1000.0
1000.0
1003.0
1000.0
994.0
994.0
994.0
996.0
994.0
989.0
988.0
986.0
986.0
987.0
994.0
994.0
985.0
980.0
982.0
984.0
982.0
981.0
982.0
983.0
984.0
982.0
984.0
980.0
977.0
977.0
979.0
982.0
984.0
981.0
976.0
970.0
971.0
972.0
977.0
980.0
980.0
979.0
982.0
980.0
984.0
980.0
975.0
971.0
971.0
973.0
979.0
978.0
976.0
974.0
973.0
973.0
977.0
972.0
971.0
967.0
969.0
969.0
969.0
970.0
972.0
972.0
972.0
973.0
972.0
974.0
970.0
969.0
969.0
976.0
981.0
983.0
983.0
981.0
980.0
984.0
986.0
986.0
987.0
990.0
995.0
999.0
1002.0
1002.0
999.0
994.0
993.0
993.0
995.0
992.0
990.0
988.0
987.0
986.0
983.0
979.0
973.0
969.0
967.0
969.0
969.0
970.0
968.0
966.0
964.0
964.0
965.0
961.0
959.0
959.0
960.0
960.0
960.0
960.0
956.0
956.0
956.0
956.0
958.0
952.0
952.0
952.0
953.0
951.0
954.0
954.0
950.0
951.0
952.0
956.0
956.0
958.0
957.0
956.0
959.0
963.0
970.0
971.0
970.0
969.0
973.0
977.0
977.0
976.0
972.0
967.0
966.0
971.0
977.0
977.0
978.0
980.0
980.0
980.0
978.0
978.0
981.0
983.0
983.0
986.0
983.0
978.0
972.0
962.0
954.0
947.0
944.0
946.0
953.0
955.0
958.0
967.0
975.0
981.0
985.0
983.0
989.0
1003.0
1026.0
1058.0
1092.0
1119.0
1127.0
1119.0
1104.0
1090.0
1070.0
1046.0
1027.0
1015.0
1008.0
997.0
995.0
994.0
989.0
990.0
994.0
999.0
995.0
994.0
992.0
1004.0
1007.0
1006.0
1009.0
1003.0
1000.0
998.0
1002.0
1002.0
1004.0
1005.0
1008.0
1011.0
1017.0
1019.0
1018.0
1011.0
1006.0
1007.0
1013.0
1018.0
1020.0
1021.0
1016.0
1019.0
1017.0
1015.0
1015.0
1013.0
1020.0
1025.0
1031.0
1032.0
1031.0
1029.0
1029.0
1030.0
1034.0
1034.0
1039.0
1042.0
1042.0
1040.0
1043.0
1045.0
1041.0
1044.0
1046.0
1049.0
1054.0
1055.0
1054.0
1054.0
1053.0
1057.0
1059.0
1058.0
1056.0
1056.0
1056.0
1057.0
1059.0
1059.0
1058.0
1054.0
1055.0
1059.0
1064.0
1061.0
1058.0
1056.0
1052.0
1056.0
1054.0
1051.0
1050.0
1045.0
1043.0
1041.0
1039.0
1034.0
1031.0
1026.0
1023.0
1022.0
1021.0
1018.0
1010.0
1005.0
1007.0
1014.0
1014.0
1010.0
1005.0
1005.0
1004.0
1000.0
998.0
995.0
996.0
994.0
998.0
1000.0
999.0
993.0
986.0
982.0
982.0
987.0
989.0
992.0
993.0
990.0
988.0
984.0
983.0
981.0
979.0
986.0
983.0
987.0
983.0
978.0
971.0
966.0
969.0
972.0
980.0
981.0
976.0
973.0
969.0
967.0
973.0
975.0
972.0
972.0
970.0
968.0
969.0
964.0
962.0
958.0
957.0
959.0
962.0
962.0
963.0
963.0
961.0
967.0
971.0
970.0
967.0
968.0
971.0
976.0
979.0
980.0
981.0
985.0
991.0
994.0
996.0
990.0
986.0
983.0
980.0
980.0
976.0
971.0
973.0
972.0
969.0
972.0
970.0
963.0
964.0
964.0
964.0
965.0
962.0
959.0
955.0
953.0
950.0
952.0
954.0
954.0
954.0
951.0
948.0
948.0
947.0
940.0
938.0
940.0
942.0
945.0
951.0
949.0
943.0
939.0
939.0
940.0
942.0
948.0
950.0
950.0
956.0
960.0
965.0
962.0
956.0
954.0
954.0
960.0
964.0
963.0
961.0
960.0
959.0
965.0
970.0
973.0
973.0
967.0
963.0
967.0
966.0
961.0
961.0
962.0
964.0
970.0
975.0
966.0
952.0
935.0
926.0
923.0
930.0
937.0
945.0
953.0
960.0
963.0
963.0
966.0
965.0
971.0
980.0
1006.0
1047.0
1086.0
1111.0
1109.0
1097.0
1083.0
1067.0
1042.0
1027.0
1015.0
1007.0
998.0
990.0
981.0
974.0
970.0
971.0
977.0
981.0
980.0
978.0
976.0
978.0
984.0
987.0
982.0
984.0
982.0
981.0
987.0
988.0
990.0
983.0
981.0
981.0
984.0
990.0
991.0
990.0
988.0
989.0
988.0
994.0
997.0
998.0
997.0
999.0
1000.0
1002.0
1002.0
1004.0
1002.0
1003.0
1007.0
1010.0
1011.0
1012.0
1013.0
1009.0
1009.0
1012.0
1012.0
1011.0
1008.0
1010.0
1014.0
1024.0
1023.0
1023.0
1021.0
1021.0
1023.0
1025.0
1026.0
1032.0
1033.0
1035.0
1037.0
1038.0
1036.0
1033.0
1031.0
1030.0
1033.0
1036.0
1038.0
1042.0
1037.0
1035.0
1037.0
1040.0
1036.0
1038.0
1039.0
1037.0
1037.0
1040.0
1035.0
1037.0
1033.0
1028.0
1025.0
1028.0
1026.0
1019.0
1017.0
1015.0
1012.0
1011.0
1009.0
1005.0
1007.0
1006.0
1008.0
1007.0
1002.0
998.0
990.0
991.0
991.0
992.0
992.0
992.0
990.0
987.0
988.0
987.0
981.0
977.0
976.0
980.0
988.0
990.0
991.0
986.0
984.0
981.0
981.0
982.0
983.0
984.0
982.0
982.0
985.0
987.0
978.0
975.0
972.0
974.0
980.0
982.0
980.0
981.0
977.0
977.0
978.0
979.0
976.0
976.0
973.0
968.0
968.0
971.0
969.0
970.0
972.0
974.0
977.0
979.0
974.0
967.0
967.0
968.0
971.0
976.0
979.0
979.0
976.0
974.0
974.0
978.0
981.0
981.0
984.0
986.0
989.0
992.0
993.0
990.0
990.0
990.0
993.0
999.0
1003.0
1010.0
1008.0
1005.0
1001.0
1001.0
996.0
993.0
994.0
994.0
994.0
992.0
985.0
980.0
979.0
978.0
981.0
982.0
982.0
983.0
985.0
986.0
990.0
986.0
981.0
974.0
974.0
975.0
976.0
979.0
977.0
973.0
967.0
962.0
962.0
966.0
969.0
970.0
973.0
971.0
969.0
972.0
971.0
967.0
966.0
972.0
979.0
983.0
985.0
980.0
978.0
981.0
980.0
986.0
987.0
987.0
988.0
986.0
988.0
989.0
988.0
987.0
988.0
992.0
996.0
1001.0
1001.0
1002.0
1003.0
1002.0
1002.0
1002.0
999.0
999.0
1000.0
998.0
997.0
993.0
985.0
980.0
977.0
973.0
981.0
993.0
998.0
1007.0
1017.0
1028.0
1036.0
1038.0
1034.0
1038.0
1045.0
1071.0
1110.0
1148.0
1168.0
1161.0
1147.0
1129.0
1109.0
1085.0
1061.0
1046.0
1034.0
1023.0
1016.0
1017.0
1012.0
1007.0
1005.0
1004.0
1008.0
1011.0
1011.0
1011.0
1009.0
1011.0
1016.0
1016.0
1012.0
1015.0
1019.0
1020.0
1024.0
1026.0
1025.0
1025.0
1023.0
1018.0
1018.0
1022.0
1026.0
1027.0
1028.0
1028.0
1035.0
1032.0
1030.0
1026.0
1025.0
1028.0
1027.0
1033.0
1037.0
1038.0
1032.0
1031.0
1032.0
1036.0
1037.0
1042.0
1041.0
1037.0
1039.0
1038.0
1036.0
1033.0
1035.0
1034.0
1038.0
1041.0
1043.0
1047.0
1044.0
1043.0
1048.0
1052.0
1052.0
1048.0
1042.0
1042.0
1047.0
1052.0
1054.0
1055.0
1054.0
1054.0
1055.0
1056.0
1051.0
1047.0
1046.0
1050.0
1054.0
1054.0
1058.0
1056.0
1054.0
1054.0
1056.0
1059.0
1057.0
1059.0
1060.0
1062.0
1060.0
1059.0
1059.0
1054.0
1050.0
1046.0
1049.0
1044.0
1046.0
1044.0
1038.0
1037.0
1036.0
1034.0
1029.0
1024.0
1020.0
1019.0
1024.0
1027.0
1029.0
1026.0
1022.0
1018.0
1012.0
1013.0
1006.0
1006.0
1002.0
1002.0
1003.0
1005.0
1003.0
1002.0
1000.0
995.0
992.0
994.0
993.0
992.0
995.0
996.0
1000.0
1003.0
1002.0
1000.0
993.0
993.0
992.0
995.0
995.0
993.0
991.0
993.0
997.0
999.0
1002.0
999.0
993.0
993.0
992.0
993.0
995.0
995.0
990.0
988.0
986.0
990.0
987.0
984.0
982.0
983.0
983.0
987.0
989.0
987.0
983.0
982.0
979.0
978.0
977.0
977.0
978.0
978.0
984.0
985.0
989.0
987.0
982.0
979.0
975.0
976.0
980.0
978.0
975.0
972.0
979.0
979.0
977.0
977.0
973.0
972.0
975.0
983.0
987.0
988.0
988.0
986.0
996.0
1004.0
1008.0
1009.0
1004.0
1001.0
999.0
1002.0
1002.0
1002.0
1001.0
999.0
1000.0
999.0
991.0
986.0
983.0
981.0
980.0
979.0
978.0
974.0
969.0
971.0
971.0
974.0
974.0
970.0
972.0
970.0
973.0
977.0
975.0
971.0
967.0
966.0
966.0
966.0
967.0
965.0
962.0
960.0
961.0
969.0
970.0
966.0
959.0
956.0
957.0
962.0
964.0
961.0
959.0
956.0
957.0
956.0
955.0
958.0
956.0
963.0
964.0
967.0
970.0
971.0
970.0
969.0
970.0
975.0
974.0
975.0
974.0
978.0
983.0
984.0
985.0
981.0
977.0
977.0
979.0
985.0
982.0
983.0
983.0
986.0
987.0
987.0
990.0
989.0
986.0
984.0
984.0
983.0
982.0
976.0
974.0
962.0
955.0
951.0
950.0
952.0
957.0
964.0
976.0
989.0
994.0
994.0
992.0
992.0
994.0
1005.0
1025.0
1051.0
1090.0
1126.0
1148.0
1152.0
1136.0
1120.0
1103.0
1082.0
1062.0
1046.0
1036.0
1027.0
1018.0
1018.0
1015.0
1010.0
1007.0
1007.0
1003.0
1003.0
1010.0
1012.0
1016.0
1014.0
1009.0
1010.0
1009.0
1010.0
1010.0
1010.0
1009.0
1012.0
1017.0
1020.0
1020.0
1018.0
1014.0
1014.0
1018.0
1018.0
1019.0
1019.0
1018.0
1022.0
1023.0
1026.0
1026.0
1026.0
1025.0
1023.0
1030.0
1034.0
1035.0
1035.0
1035.0
1034.0
1036.0
1037.0
1036.0
1035.0
1031.0
1034.0
1040.0
1044.0
1047.0
1050.0
1049.0
1049.0
1050.0
1050.0
1053.0
1058.0
1056.0
1065.0
1071.0
1074.0
1075.0
1073.0
1071.0
1069.0
1071.0
1073.0
1073.0
1071.0
1070.0
1070.0
1076.0
1078.0
1077.0
1075.0
1073.0
1073.0
1075.0
1079.0
1080.0
1079.0
1079.0
1077.0
1078.0
1079.0
1079.0
1078.0
1080.0
1080.0
1085.0
1087.0
1088.0
1083.0
1081.0
1078.0
1074.0
1071.0
1072.0
1069.0
1065.0
1062.0
1061.0
1061.0
1060.0
1057.0
1055.0
1055.0
1054.0
1052.0
1051.0
1051.0
1052.0
1050.0
1049.0
1046.0
1043.0
1038.0
1037.0
1035.0
1036.0
1037.0
1037.0
1034.0
1035.0
1031.0
1032.0
1034.0
1031.0
1030.0
1029.0
1026.0
1023.0
1022.0
1023.0
1023.0
1021.0
1023.0
1023.0
1025.0
1022.0
1020.0
1020.0
1021.0
1020.0
1023.0
1021.0
1021.0
1015.0
1016.0
1018.0
1016.0
1014.0
1012.0
1010.0
1011.0
1013.0
1018.0
1020.0
1018.0
1012.0
1008.0
1006.0
1007.0
1008.0
1009.0
1008.0
1005.0
1009.0
1010.0
1009.0
1007.0
1004.0
1004.0
1005.0
1001.0
1001.0
1003.0
1000.0
1000.0
1000.0
999.0
998.0
997.0
996.0
997.0
1000.0
1001.0
1003.0
1005.0
1004.0
998.0
999.0
1001.0
1001.0
1006.0
1004.0
1003.0
1007.0
1010.0
1013.0
1014.0
1015.0
1014.0
1017.0
1021.0
1023.0
1024.0
1023.0
1022.0
1024.0
1025.0
1025.0
1024.0
1024.0
1023.0
1021.0
1024.0
1021.0
1019.0
1014.0
1012.0
1011.0
1011.0
1010.0
1008.0
1004.0
999.0
997.0
1000.0
1001.0
998.0
999.0
996.0
1001.0
1002.0
1000.0
1000.0
997.0
995.0
998.0
995.0
992.0
989.0
989.0
988.0
989.0
990.0
987.0
986.0
984.0
984.0
985.0
984.0
984.0
982.0
983.0
984.0
985.0
989.0
988.0
987.0
982.0
980.0
977.0
981.0
985.0
984.0
985.0
985.0
988.0
995.0
996.0
996.0
992.0
997.0
994.0
996.0
1000.0
1001.0
1000.0
1001.0
1006.0
1007.0
1007.0
1008.0
1005.0
1005.0
1005.0
1006.0
1010.0
1007.0
1005.0
1008.0
1006.0
1007.0
1009.0
1010.0
1007.0
1005.0
1008.0
1010.0
1011.0
1007.0
1003.0
999.0
995.0
992.0
984.0
977.0
969.0
971.0
978.0
985.0
993.0
999.0
1008.0
1018.0
1029.0
1033.0
1038.0
1042.0
1043.0
1045.0
1060.0
1080.0
1110.0
1139.0
1162.0
1172.0
1171.0
1164.0
1152.0
1142.0
1128.0
1108.0
1084.0
1065.0
1052.0
1038.0
1027.0
1019.0
1016.0
1015.0
1014.0
1008.0
1007.0
1007.0
1009.0
1012.0
1012.0
1011.0
1013.0
1012.0
1014.0
1017.0
1018.0
1018.0
1012.0
1010.0
1015.0
1015.0
1017.0
1017.0
1016.0
1017.0
1017.0
1018.0
1022.0
1022.0
1019.0
1020.0
1020.0
1022.0
1022.0
1022.0
1023.0
1022.0
1022.0
1024.0
1024.0
1024.0
1022.0
1020.0
1021.0
1022.0
1026.0
1030.0
1031.0
1030.0
1029.0
1027.0
1033.0
1031.0
1031.0
1031.0
1035.0
1039.0
1042.0
1042.0
1041.0
1040.0
1041.0
1045.0
1044.0
1043.0
1042.0
1043.0
1045.0
1050.0
1051.0
1051.0
1048.0
1049.0
1048.0
1048.0
1048.0
1046.0
1043.0
1048.0
1050.0
1056.0
1058.0
1058.0
1052.0
1050.0
1051.0
1054.0
1056.0
1058.0
1061.0
1057.0
1058.0
1061.0
1058.0
1056.0
1051.0
1048.0
1049.0
1050.0
1053.0
1056.0
1055.0
1052.0
1053.0
1052.0
1051.0
1048.0
1043.0
1041.0
1039.0
1043.0
1040.0
1034.0
1029.0
1024.0
1022.0
1022.0
1023.0
1020.0
1017.0
1014.0
1017.0
1018.0
1018.0
1014.0
1008.0
1005.0
1004.0
1008.0
1010.0
1010.0
1007.0
1001.0
1003.0
1005.0
1004.0
999.0
997.0
993.0
993.0
996.0
1002.0
1003.0
1001.0
997.0
996.0
996.0
994.0
995.0
993.0
991.0
995.0
