# Simple Text Format
# Sampling Rate (Hz):= 360.00
# Resolution:= 12
# Labels:= ECG
1141.0
1134.0
1126.0
1117.0
1109.0
1103.0
1094.0
1087.0
1079.0
1072.0
1066.0
1060.0
1051.0
1046.0
1037.0
1031.0
1024.0
1018.0
1014.0
1009.0
1006.0
1003.0
999.0
997.0
991.0
988.0
984.0
982.0
979.0
975.0
974.0
973.0
974.0
976.0
976.0
975.0
974.0
972.0
972.0
971.0
969.0
969.0
967.0
968.0
972.0
972.0
974.0
974.0
972.0
974.0
972.0
972.0
971.0
967.0
968.0
965.0
967.0
968.0
969.0
971.0
971.0
972.0
969.0
967.0
963.0
964.0
964.0
962.0
962.0
963.0
963.0
963.0
961.0
961.0
959.0
958.0
957.0
956.0
957.0
955.0
956.0
957.0
958.0
961.0
959.0
958.0
957.0
958.0
955.0
954.0
954.0
956.0
955.0
956.0
957.0
957.0
956.0
955.0
953.0
951.0
949.0
949.0
951.0
953.0
954.0
956.0
957.0
958.0
959.0
959.0
957.0
956.0
954.0
955.0
956.0
956.0
956.0
957.0
959.0
959.0
959.0
959.0
961.0
962.0
963.0
963.0
965.0
967.0
970.0
975.0
980.0
985.0
986.0
990.0
994.0
993.0
994.0
998.0
1001.0
1006.0
1017.0
1022.0
1024.0
1026.0
1021.0
1016.0
1011.0
1011.0
1012.0
1013.0
1014.0
1013.0
1011.0
1007.0
1002.0
996.0
990.0
985.0
977.0
972.0
967.0
960.0
960.0
958.0
957.0
953.0
950.0
954.0
952.0
950.0
953.0
953.0
952.0
951.0
952.0
953.0
958.0
955.0
957.0
959.0
965.0
976.0
1000.0
1034.0
1072.0
1116.0
1158.0
1200.0
1241.0
1275.0
1310.0
1338.0
1353.0
1358.0
1345.0
1319.0
1280.0
1219.0
1150.0
1084.0
1031.0
998.0
979.0
968.0
960.0
961.0
955.0
945.0
936.0
927.0
918.0
915.0
915.0
916.0
917.0
918.0
918.0
918.0
915.0
914.0
912.0
911.0
911.0
912.0
910.0
911.0
911.0
911.0
909.0
908.0
908.0
907.0
902.0
903.0
904.0
903.0
904.0
905.0
907.0
906.0
902.0
903.0
902.0
898.0
894.0
891.0
890.0
890.0
889.0
889.0
890.0
888.0
884.0
882.0
876.0
872.0
867.0
863.0
861.0
860.0
857.0
857.0
857.0
854.0
852.0
848.0
844.0
839.0
836.0
835.0
832.0
831.0
830.0
834.0
835.0
837.0
837.0
841.0
840.0
844.0
843.0
844.0
849.0
853.0
861.0
866.0
872.0
879.0
885.0
893.0
898.0
904.0
908.0
911.0
914.0
921.0
927.0
932.0
938.0
943.0
947.0
954.0
955.0
958.0
958.0
958.0
965.0
966.0
972.0
979.0
986.0
994.0
1003.0
1014.0
1025.0
1041.0
1055.0
1067.0
1083.0
1101.0
1112.0
1123.0
1124.0
1111.0
1081.0
1035.0
975.0
905.0
836.0
773.0
722.0
677.0
639.0
612.0
587.0
572.0
556.0
544.0
537.0
531.0
530.0
536.0
545.0
554.0
569.0
583.0
605.0
627.0
648.0
673.0
697.0
723.0
747.0
773.0
794.0
816.0
837.0
858.0
879.0
896.0
915.0
934.0
957.0
986.0
1016.0
1043.0
1065.0
1080.0
1091.0
1089.0
1087.0
1083.0
1080.0
1076.0
1072.0
1072.0
1073.0
1074.0
1078.0
1080.0
1081.0
1083.0
1085.0
1089.0
1090.0
1092.0
1095.0
1093.0
1095.0
1096.0
1099.0
1103.0
1105.0
1110.0
1114.0
1116.0
1120.0
1124.0
1126.0
1126.0
1129.0
1131.0
1137.0
1137.0
1141.0
1147.0
1152.0
1157.0
1158.0
1163.0
1162.0
1165.0
1165.0
1168.0
1171.0
1172.0
1175.0
1176.0
1178.0
1179.0
1176.0
1172.0
1169.0
1162.0
1155.0
1150.0
1144.0
1138.0
1135.0
1129.0
1123.0
1119.0
1110.0
1102.0
1095.0
1087.0
1077.0
1067.0
1059.0
1052.0
1048.0
1043.0
1037.0
1034.0
1028.0
1023.0
1016.0
1011.0
1001.0
999.0
997.0
993.0
993.0
991.0
991.0
990.0
991.0
989.0
987.0
984.0
982.0
980.0
980.0
980.0
982.0
984.0
986.0
985.0
985.0
984.0
984.0
983.0
982.0
979.0
979.0
979.0
979.0
979.0
975.0
977.0
977.0
975.0
977.0
975.0
975.0
973.0
972.0
971.0
971.0
971.0
968.0
970.0
968.0
970.0
969.0
969.0
967.0
967.0
967.0
967.0
965.0
965.0
966.0
968.0
966.0
967.0
965.0
964.0
961.0
962.0
964.0
964.0
965.0
966.0
963.0
964.0
965.0
964.0
963.0
963.0
963.0
964.0
963.0
961.0
964.0
964.0
966.0
965.0
968.0
964.0
962.0
962.0
959.0
957.0
961.0
963.0
965.0
967.0
965.0
965.0
964.0
965.0
966.0
967.0
965.0
966.0
963.0
964.0
967.0
969.0
973.0
975.0
978.0
981.0
984.0
983.0
988.0
992.0
995.0
995.0
995.0
1001.0
1006.0
1015.0
1022.0
1029.0
1033.0
1033.0
1028.0
1023.0
1018.0
1015.0
1015.0
1018.0
1023.0
1024.0
1025.0
1021.0
1013.0
1008.0
999.0
991.0
986.0
982.0
980.0
977.0
974.0
973.0
967.0
963.0
957.0
956.0
952.0
951.0
952.0
953.0
957.0
958.0
960.0
962.0
962.0
961.0
959.0
958.0
957.0
958.0
965.0
979.0
1001.0
1034.0
1074.0
1118.0
1158.0
1196.0
1231.0
1264.0
1299.0
1329.0
1351.0
1362.0
1364.0
1354.0
1331.0
1292.0
1235.0
1169.0
1107.0
1054.0
1014.0
990.0
974.0
968.0
965.0
961.0
954.0
947.0
939.0
932.0
928.0
924.0
922.0
920.0
919.0
918.0
920.0
919.0
916.0
918.0
917.0
916.0
917.0
915.0
917.0
914.0
914.0
914.0
912.0
912.0
911.0
914.0
914.0
912.0
913.0
913.0
911.0
910.0
909.0
908.0
907.0
907.0
905.0
904.0
902.0
901.0
897.0
895.0
890.0
888.0
887.0
883.0
881.0
879.0
876.0
871.0
868.0
866.0
863.0
859.0
854.0
850.0
848.0
845.0
842.0
839.0
839.0
837.0
837.0
838.0
836.0
837.0
837.0
837.0
839.0
836.0
841.0
847.0
851.0
858.0
861.0
865.0
870.0
878.0
884.0
889.0
897.0
900.0
908.0
916.0
920.0
926.0
931.0
936.0
940.0
944.0
947.0
950.0
954.0
956.0
956.0
960.0
961.0
963.0
964.0
967.0
965.0
963.0
962.0
964.0
967.0
969.0
972.0
976.0
979.0
983.0
987.0
990.0
997.0
1002.0
1011.0
1021.0
1033.0
1046.0
1062.0
1077.0
1091.0
1110.0
1128.0
1143.0
1145.0
1131.0
1091.0
1030.0
951.0
867.0
784.0
713.0
658.0
622.0
596.0
582.0
573.0
563.0
556.0
553.0
554.0
563.0
582.0
600.0
625.0
650.0
678.0
703.0
723.0
743.0
756.0
772.0
793.0
814.0
839.0
866.0
887.0
905.0
918.0
932.0
947.0
964.0
988.0
1012.0
1034.0
1049.0
1057.0
1059.0
1059.0
1058.0
1056.0
1058.0
1060.0
1063.0
1066.0
1071.0
1074.0
1079.0
1085.0
1087.0
1090.0
1095.0
1097.0
1100.0
1102.0
1106.0
1107.0
1112.0
1118.0
1121.0
1124.0
1128.0
1134.0
1137.0
1140.0
1145.0
1146.0
1152.0
1153.0
1158.0
1163.0
1169.0
1176.0
1182.0
1188.0
1190.0
1191.0
1194.0
1194.0
1193.0
1194.0
1194.0
1193.0
1191.0
1189.0
1185.0
1182.0
1178.0
1171.0
1163.0
1154.0
1145.0
1137.0
1132.0
1123.0
1116.0
1107.0
1099.0
1093.0
1088.0
1080.0
1071.0
1062.0
1054.0
1045.0
1039.0
1032.0
1027.0
1025.0
1024.0
1020.0
1018.0
1011.0
1006.0
1001.0
997.0
992.0
990.0
989.0
988.0
992.0
988.0
989.0
992.0
992.0
992.0
989.0
987.0
985.0
984.0
984.0
986.0
987.0
987.0
990.0
991.0
991.0
991.0
988.0
989.0
985.0
985.0
983.0
982.0
982.0
985.0
985.0
985.0
985.0
988.0
986.0
983.0
983.0
981.0
979.0
980.0
979.0
979.0
982.0
980.0
983.0
982.0
981.0
978.0
977.0
974.0
974.0
974.0
975.0
977.0
981.0
980.0
979.0
981.0
979.0
980.0
974.0
974.0
975.0
973.0
975.0
976.0
980.0
980.0
979.0
980.0
980.0
976.0
975.0
974.0
974.0
973.0
974.0
974.0
975.0
976.0
978.0
979.0
976.0
978.0
976.0
975.0
975.0
977.0
979.0
980.0
983.0
986.0
989.0
993.0
997.0
998.0
1001.0
1003.0
1005.0
1009.0
1012.0
1016.0
1021.0
1027.0
1035.0
1041.0
1047.0
1045.0
1045.0
1040.0
1033.0
1034.0
1033.0
1034.0
1033.0
1036.0
1032.0
1029.0
1022.0
1015.0
1007.0
1001.0
996.0
992.0
987.0
985.0
981.0
979.0
976.0
972.0
969.0
965.0
963.0
965.0
966.0
966.0
972.0
972.0
972.0
973.0
973.0
972.0
971.0
971.0
977.0
987.0
1007.0
1043.0
1083.0
1129.0
1178.0
1220.0
1258.0
1297.0
1330.0
1355.0
1371.0
1377.0
1368.0
1347.0
1307.0
1252.0
1186.0
1117.0
1060.0
1020.0
995.0
985.0
976.0
974.0
967.0
960.0
950.0
943.0
939.0
938.0
934.0
935.0
933.0
932.0
932.0
930.0
929.0
928.0
929.0
932.0
929.0
930.0
930.0
930.0
927.0
927.0
927.0
925.0
923.0
924.0
926.0
923.0
927.0
928.0
925.0
923.0
923.0
919.0
918.0
913.0
913.0
908.0
910.0
910.0
909.0
908.0
905.0
901.0
898.0
894.0
889.0
887.0
882.0
880.0
878.0
877.0
874.0
871.0
865.0
862.0
859.0
851.0
846.0
844.0
844.0
842.0
840.0
841.0
842.0
842.0
843.0
840.0
842.0
844.0
846.0
848.0
852.0
856.0
861.0
868.0
875.0
885.0
892.0
900.0
906.0
910.0
915.0
920.0
926.0
931.0
936.0
944.0
951.0
955.0
959.0
963.0
960.0
962.0
963.0
963.0
966.0
966.0
968.0
971.0
971.0
970.0
972.0
973.0
973.0
973.0
971.0
970.0
971.0
970.0
970.0
972.0
974.0
974.0
974.0
973.0
976.0
976.0
976.0
977.0
978.0
980.0
984.0
987.0
994.0
995.0
999.0
997.0
997.0
999.0
1000.0
1002.0
1010.0
1018.0
1030.0
1045.0
1060.0
1081.0
1104.0
1126.0
1149.0
1168.0
1186.0
1205.0
1227.0
1250.0
1275.0
1301.0
1324.0
1348.0
1366.0
1376.0
1379.0
1369.0
1346.0
1303.0
1241.0
1155.0
1055.0
951.0
864.0
796.0
751.0
730.0
730.0
742.0
762.0
779.0
796.0
813.0
827.0
842.0
861.0
878.0
897.0
911.0
928.0
938.0
941.0
941.0
943.0
942.0
942.0
943.0
948.0
948.0
948.0
950.0
947.0
945.0
943.0
943.0
943.0
944.0
946.0
946.0
947.0
946.0
944.0
944.0
944.0
944.0
942.0
942.0
944.0
944.0
947.0
946.0
948.0
948.0
947.0
945.0
944.0
944.0
943.0
941.0
942.0
944.0
946.0
947.0
952.0
953.0
955.0
958.0
960.0
961.0
964.0
965.0
969.0
970.0
975.0
981.0
984.0
990.0
992.0
995.0
999.0
1003.0
1003.0
1001.0
1000.0
1000.0
1002.0
1005.0
1007.0
1008.0
1010.0
1009.0
1002.0
1000.0
995.0
996.0
993.0
991.0
990.0
989.0
988.0
989.0
987.0
984.0
981.0
979.0
976.0
972.0
971.0
972.0
972.0
974.0
976.0
980.0
977.0
978.0
976.0
974.0
969.0
967.0
969.0
968.0
972.0
974.0
976.0
978.0
979.0
977.0
975.0
976.0
975.0
971.0
971.0
970.0
971.0
974.0
975.0
978.0
978.0
975.0
972.0
977.0
979.0
977.0
975.0
975.0
975.0
976.0
978.0
982.0
983.0
984.0
980.0
980.0
979.0
974.0
977.0
979.0
982.0
983.0
982.0
981.0
980.0
978.0
976.0
975.0
975.0
974.0
973.0
972.0
976.0
977.0
980.0
980.0
980.0
979.0
979.0
977.0
979.0
978.0
978.0
977.0
979.0
982.0
984.0
984.0
985.0
987.0
989.0
993.0
995.0
998.0
1003.0
1005.0
1005.0
1008.0
1014.0
1021.0
1029.0
1034.0
1040.0
1045.0
1044.0
1040.0
1038.0
1034.0
1033.0
1033.0
1036.0
1037.0
1037.0
1033.0
1030.0
1023.0
1015.0
1005.0
997.0
991.0
988.0
985.0
985.0
986.0
980.0
978.0
972.0
969.0
966.0
963.0
964.0
962.0
962.0
963.0
966.0
968.0
970.0
972.0
973.0
972.0
969.0
967.0
967.0
974.0
988.0
1009.0
1039.0
1079.0
1120.0
1165.0
1201.0
1235.0
1270.0
1302.0
1336.0
1363.0
1381.0
1387.0
1379.0
1355.0
1314.0
1250.0
1176.0
1106.0
1046.0
1011.0
990.0
986.0
985.0
986.0
982.0
978.0
967.0
954.0
945.0
937.0
934.0
930.0
933.0
931.0
933.0
932.0
933.0
930.0
929.0
929.0
928.0
925.0
924.0
921.0
924.0
925.0
923.0
926.0
925.0
924.0
924.0
923.0
923.0
924.0
918.0
918.0
916.0
916.0
914.0
914.0
916.0
915.0
917.0
914.0
911.0
907.0
905.0
903.0
902.0
900.0
899.0
897.0
896.0
895.0
892.0
889.0
884.0
880.0
877.0
875.0
872.0
867.0
865.0
863.0
861.0
861.0
857.0
854.0
850.0
848.0
847.0
846.0
847.0
847.0
850.0
850.0
851.0
854.0
855.0
857.0
861.0
864.0
867.0
871.0
877.0
881.0
889.0
895.0
904.0
912.0
916.0
923.0
927.0
931.0
935.0
934.0
938.0
943.0
951.0
955.0
960.0
961.0
961.0
963.0
963.0
960.0
958.0
958.0
957.0
960.0
960.0
962.0
962.0
965.0
963.0
964.0
961.0
961.0
961.0
957.0
960.0
958.0
958.0
958.0
960.0
963.0
962.0
962.0
959.0
955.0
957.0
954.0
954.0
956.0
958.0
961.0
960.0
965.0
964.0
967.0
968.0
967.0
967.0
967.0
971.0
975.0
978.0
983.0
991.0
994.0
995.0
997.0
999.0
1004.0
1010.0
1015.0
1020.0
1018.0
1018.0
1015.0
1014.0
1014.0
1012.0
1016.0
1016.0
1013.0
1008.0
1002.0
998.0
990.0
984.0
977.0
975.0
972.0
966.0
966.0
962.0
958.0
952.0
947.0
951.0
951.0
952.0
951.0
953.0
957.0
955.0
958.0
957.0
957.0
956.0
954.0
953.0
953.0
958.0
966.0
984.0
1014.0
1048.0
1091.0
1134.0
1173.0
1207.0
1239.0
1273.0
1308.0
1334.0
1350.0
1361.0
1358.0
1338.0
1304.0
1250.0
1178.0
1111.0
1050.0
1007.0
979.0
967.0
960.0
962.0
959.0
954.0
947.0
935.0
927.0
921.0
922.0
921.0
920.0
921.0
921.0
921.0
921.0
920.0
920.0
918.0
917.0
916.0
915.0
915.0
914.0
915.0
916.0
916.0
916.0
912.0
915.0
913.0
914.0
911.0
912.0
912.0
910.0
910.0
909.0
910.0
911.0
911.0
910.0
907.0
905.0
899.0
899.0
897.0
894.0
893.0
893.0
892.0
891.0
888.0
886.0
884.0
877.0
873.0
871.0
871.0
869.0
871.0
868.0
869.0
868.0
866.0
866.0
865.0
863.0
863.0
862.0
864.0
866.0
871.0
875.0
880.0
884.0
888.0
891.0
896.0
901.0
905.0
909.0
913.0
920.0
925.0
930.0
936.0
942.0
943.0
946.0
948.0
947.0
947.0
949.0
950.0
950.0
951.0
953.0
957.0
957.0
959.0
958.0
959.0
958.0
956.0
957.0
959.0
963.0
967.0
968.0
974.0
981.0
987.0
994.0
1007.0
1021.0
1034.0
1048.0
1062.0
1081.0
1103.0
1126.0
1154.0
1177.0
1189.0
1186.0
1162.0
1113.0
1037.0
941.0
842.0
755.0
690.0
643.0
610.0
590.0
570.0
557.0
549.0
546.0
545.0
548.0
556.0
567.0
582.0
601.0
626.0
654.0
680.0
703.0
720.0
730.0
742.0
751.0
764.0
784.0
807.0
830.0
852.0
873.0
882.0
888.0
891.0
897.0
908.0
926.0
948.0
973.0
997.0
1016.0
1032.0
1040.0
1043.0
1043.0
1040.0
1041.0
1040.0
1044.0
1048.0
1051.0
1057.0
1062.0
1065.0
1069.0
1071.0
1072.0
1076.0
1078.0
1081.0
1080.0
1088.0
1095.0
1099.0
1104.0
1107.0
1113.0
1117.0
1118.0
1122.0
1124.0
1124.0
1132.0
1137.0
1143.0
1148.0
1155.0
1158.0
1164.0
1168.0
1170.0
1174.0
1174.0
1177.0
1178.0
1179.0
1180.0
1184.0
1183.0
1181.0
1181.0
1175.0
1171.0
1163.0
1156.0
1151.0
1144.0
1139.0
1131.0
1124.0
1119.0
1112.0
1103.0
1097.0
1089.0
1081.0
1071.0
1064.0
1056.0
1049.0
1042.0
1038.0
1033.0
1030.0
1025.0
1020.0
1016.0
1008.0
1003.0
999.0
996.0
994.0
990.0
991.0
992.0
991.0
991.0
992.0
989.0
986.0
985.0
981.0
982.0
981.0
982.0
983.0
986.0
988.0
989.0
987.0
989.0
987.0
986.0
984.0
983.0
983.0
982.0
981.0
981.0
983.0
985.0
987.0
987.0
987.0
984.0
983.0
981.0
979.0
980.0
979.0
982.0
983.0
985.0
984.0
984.0
982.0
981.0
979.0
973.0
976.0
978.0
980.0
980.0
982.0
981.0
984.0
985.0
983.0
982.0
980.0
978.0
978.0
978.0
978.0
981.0
981.0
982.0
984.0
984.0
982.0
981.0
980.0
979.0
978.0
979.0
979.0
980.0
983.0
985.0
985.0
982.0
984.0
984.0
983.0
981.0
981.0
982.0
983.0
983.0
984.0
986.0
985.0
990.0
990.0
992.0
992.0
994.0
997.0
1002.0
1006.0
1008.0
1013.0
1018.0
1018.0
1023.0
1027.0
1031.0
1035.0
1042.0
1046.0
1049.0
1051.0
1048.0
1045.0
1043.0
1040.0
1039.0
1039.0
1039.0
1041.0
1039.0
1036.0
1029.0
1026.0
1020.0
1013.0
1009.0
1005.0
1001.0
998.0
994.0
986.0
982.0
977.0
974.0
976.0
975.0
977.0
981.0
982.0
984.0
984.0
982.0
983.0
982.0
981.0
981.0
981.0
984.0
996.0
1014.0
1043.0
1081.0
1125.0
1168.0
1206.0
1244.0
1282.0
1317.0
1351.0
1379.0
1392.0
1393.0
1382.0
1353.0
1311.0
1249.0
1179.0
1114.0
1066.0
1027.0
1007.0
997.0
991.0
988.0
983.0
974.0
962.0
954.0
948.0
946.0
945.0
947.0
946.0
950.0
946.0
947.0
943.0
944.0
940.0
939.0
937.0
937.0
936.0
937.0
938.0
938.0
939.0
939.0
938.0
938.0
936.0
933.0
931.0
930.0
928.0
927.0
930.0
932.0
932.0
933.0
931.0
928.0
927.0
923.0
922.0
919.0
918.0
915.0
915.0
916.0
914.0
912.0
908.0
906.0
902.0
896.0
891.0
882.0
881.0
878.0
878.0
877.0
875.0
874.0
871.0
868.0
862.0
859.0
857.0
857.0
855.0
857.0
860.0
865.0
868.0
873.0
874.0
878.0
881.0
884.0
887.0
893.0
901.0
909.0
916.0
925.0
934.0
939.0
944.0
951.0
958.0
960.0
964.0
966.0
969.0
975.0
978.0
982.0
985.0
988.0
989.0
992.0
990.0
991.0
993.0
993.0
997.0
1000.0
1008.0
1016.0
1023.0
1035.0
1050.0
1063.0
1080.0
1094.0
1106.0
1122.0
1140.0
1154.0
1162.0
1157.0
1134.0
1085.0
1017.0
934.0
846.0
766.0
697.0
645.0
611.0
586.0
576.0
568.0
564.0
562.0
557.0
561.0
564.0
572.0
581.0
597.0
614.0
636.0
660.0
689.0
718.0
749.0
776.0
801.0
824.0
842.0
860.0
875.0
894.0
914.0
934.0
960.0
990.0
1020.0
1050.0
1078.0
1094.0
1104.0
1107.0
1103.0
1102.0
1100.0
1098.0
1099.0
1100.0
1098.0
1100.0
1101.0
1103.0
1103.0
1105.0
1109.0
1110.0
1114.0
1114.0
1119.0
1122.0
1127.0
1130.0
1130.0
1132.0
1137.0
1137.0
1142.0
1143.0
1147.0
1152.0
1152.0
1159.0
1164.0
1168.0
1170.0
1173.0
1174.0
1178.0
1181.0
1187.0
1192.0
1196.0
1200.0
1207.0
1211.0
1211.0
1213.0
1215.0
1215.0
1214.0
1211.0
1211.0
1210.0
1206.0
1204.0
1199.0
1197.0
1188.0
1183.0
1177.0
1169.0
1163.0
1151.0
1144.0
1140.0
1131.0
1126.0
1119.0
1113.0
1104.0
1097.0
1091.0
1082.0
1076.0
1069.0
1064.0
1057.0
1054.0
1050.0
1048.0
1044.0
1040.0
1036.0
1035.0
1031.0
1027.0
1024.0
1025.0
1024.0
1025.0
1025.0
1025.0
1027.0
1025.0
1026.0
1025.0
1023.0
1020.0
1020.0
1020.0
1022.0
1022.0
1023.0
1022.0
1023.0
1023.0
1021.0
1019.0
1019.0
1019.0
1017.0
1014.0
1016.0
1016.0
1015.0
1016.0
1016.0
1016.0
1016.0
1017.0
1014.0
1013.0
1011.0
1009.0
1010.0
1012.0
1010.0
1014.0
1012.0
1012.0
1010.0
1007.0
1008.0
1009.0
1007.0
1008.0
1007.0
1006.0
1008.0
1010.0
1011.0
1009.0
1008.0
1008.0
1007.0
1005.0
1004.0
1005.0
1003.0
1007.0
1009.0
1010.0
1010.0
1012.0
1007.0
1005.0
1003.0
1004.0
1003.0
1002.0
1003.0
1006.0
1008.0
1011.0
1012.0
1011.0
1011.0
1007.0
1007.0
1005.0
1004.0
1002.0
1003.0
1009.0
1008.0
1011.0
1011.0
1010.0
1008.0
1012.0
1011.0
1013.0
1013.0
1016.0
1017.0
1023.0
1030.0
1035.0
1039.0
1045.0
1045.0
1046.0
1049.0
1054.0
1062.0
1065.0
1070.0
1074.0
1077.0
1074.0
1071.0
1066.0
1065.0
1064.0
1066.0
1064.0
1063.0
1060.0
1056.0
1053.0
1047.0
1040.0
1035.0
1028.0
1025.0
1022.0
1016.0
1012.0
1007.0
1006.0
1002.0
999.0
1000.0
1002.0
1003.0
1005.0
1005.0
1002.0
1001.0
1005.0
1003.0
1004.0
1002.0
1002.0
1003.0
1009.0
1019.0
1037.0
1067.0
1101.0
1141.0
1182.0
1222.0
1258.0
1298.0
1334.0
1366.0
1389.0
1402.0
1399.0
1391.0
1362.0
1322.0
1264.0
1200.0
1137.0
1088.0
1051.0
1029.0
1019.0
1013.0
1008.0
1002.0
995.0
985.0
974.0
967.0
962.0
963.0
962.0
963.0
962.0
963.0
963.0
961.0
961.0
960.0
958.0
956.0
954.0
952.0
953.0
954.0
955.0
956.0
957.0
954.0
952.0
953.0
951.0
949.0
949.0
949.0
950.0
950.0
951.0
951.0
949.0
947.0
945.0
942.0
940.0
938.0
936.0
932.0
932.0
931.0
931.0
926.0
922.0
922.0
917.0
913.0
908.0
903.0
897.0
896.0
893.0
891.0
889.0
888.0
885.0
882.0
878.0
875.0
872.0
868.0
869.0
867.0
867.0
871.0
873.0
876.0
880.0
881.0
881.0
883.0
885.0
888.0
896.0
901.0
908.0
915.0
921.0
925.0
936.0
940.0
946.0
951.0
958.0
960.0
965.0
971.0
976.0
980.0
984.0
991.0
993.0
995.0
995.0
995.0
992.0
992.0
995.0
995.0
998.0
1000.0
1003.0
1004.0
1006.0
1009.0
1014.0
1015.0
1017.0
1022.0
1030.0
1036.0
1047.0
1059.0
1072.0
1086.0
1105.0
1119.0
1136.0
1149.0
1164.0
1172.0
1167.0
1142.0
1092.0
1023.0
940.0
853.0
772.0
701.0
651.0
617.0
595.0
581.0
574.0
567.0
565.0
565.0
572.0
578.0
590.0
606.0
622.0
642.0
665.0
692.0
726.0
756.0
781.0
803.0
818.0
835.0
846.0
866.0
889.0
912.0
936.0
959.0
984.0
1007.0
1028.0
1052.0
1074.0
1090.0
1099.0
1104.0
1103.0
1103.0
1099.0
1095.0
1097.0
1093.0
1099.0
1102.0
1106.0
1110.0
1113.0
1116.0
1118.0
1120.0
1121.0
1122.0
1125.0
1124.0
1131.0
1134.0
1135.0
1140.0
1143.0
1145.0
1147.0
1150.0
1152.0
1156.0
1159.0
1165.0
1168.0
1174.0
1178.0
1185.0
1188.0
1191.0
1194.0
1196.0
1200.0
1206.0
1210.0
1214.0
1216.0
1216.0
1219.0
1222.0
1224.0
1222.0
1221.0
1218.0
1214.0
1212.0
1208.0
1201.0
1200.0
1192.0
1188.0
1181.0
1174.0
1167.0
1162.0
1152.0
1145.0
1137.0
1132.0
1122.0
1116.0
1110.0
1104.0
1100.0
1092.0
1084.0
1077.0
1073.0
1062.0
1055.0
1050.0
1046.0
1041.0
1042.0
1038.0
1038.0
1036.0
1035.0
1031.0
1027.0
1024.0
1022.0
1021.0
1020.0
1019.0
1021.0
1023.0
1025.0
1023.0
1026.0
1022.0
1021.0
1022.0
1019.0
1016.0
1016.0
1016.0
1018.0
1018.0
1020.0
1020.0
1021.0
1021.0
1019.0
1019.0
1014.0
1012.0
1013.0
1011.0
1012.0
1012.0
1013.0
1015.0
1013.0
1013.0
1010.0
1009.0
1009.0
1009.0
1009.0
1011.0
1011.0
1008.0
1009.0
1009.0
1009.0
1003.0
1005.0
1005.0
1003.0
1001.0
1004.0
1004.0
1007.0
1007.0
1008.0
1005.0
1005.0
1006.0
1006.0
1003.0
1004.0
1004.0
1004.0
1005.0
1007.0
1007.0
1010.0
1008.0
1006.0
1005.0
1005.0
1005.0
1002.0
1002.0
1002.0
1002.0
1003.0
1007.0
1006.0
1005.0
1006.0
1006.0
1006.0
1005.0
1003.0
1005.0
1005.0
1006.0
1006.0
1006.0
1008.0
1007.0
1010.0
1007.0
1005.0
1008.0
1008.0
1015.0
1018.0
1023.0
1028.0
1031.0
1036.0
1037.0
1039.0
1041.0
1044.0
1051.0
1057.0
1064.0
1071.0
1074.0
1072.0
1069.0
1065.0
1060.0
1061.0
1061.0
1059.0
1060.0
1057.0
1052.0
1047.0
1041.0
1036.0
1028.0
1025.0
1019.0
1017.0
1012.0
1007.0
1002.0
998.0
994.0
993.0
995.0
998.0
999.0
1001.0
1001.0
1003.0
1004.0
1001.0
999.0
996.0
996.0
994.0
998.0
1006.0
1023.0
1052.0
1087.0
1128.0
1173.0
1215.0
1253.0
1292.0
1327.0
1361.0
1385.0
1397.0
1397.0
1383.0
1350.0
1300.0
1233.0
1165.0
1107.0
1060.0
1032.0
1016.0
1011.0
1009.0
1005.0
1000.0
991.0
981.0
971.0
967.0
963.0
960.0
960.0
959.0
960.0
960.0
961.0
963.0
959.0
961.0
959.0
957.0
956.0
953.0
951.0
951.0
952.0
954.0
955.0
955.0
955.0
951.0
954.0
952.0
952.0
950.0
949.0
949.0
947.0
946.0
945.0
945.0
942.0
944.0
941.0
940.0
934.0
933.0
929.0
927.0
926.0
922.0
920.0
921.0
914.0
913.0
908.0
905.0
899.0
894.0
891.0
889.0
884.0
880.0
878.0
879.0
876.0
872.0
870.0
867.0
866.0
864.0
863.0
864.0
864.0
867.0
868.0
874.0
875.0
882.0
886.0
891.0
896.0
903.0
910.0
919.0
924.0
932.0
940.0
947.0
951.0
959.0
965.0
967.0
974.0
978.0
982.0
984.0
991.0
994.0
995.0
997.0
998.0
998.0
996.0
996.0
994.0
996.0
998.0
998.0
1000.0
1000.0
1002.0
1003.0
1002.0
1002.0
999.0
997.0
1000.0
998.0
999.0
1002.0
1004.0
1006.0
1008.0
1008.0
1012.0
1014.0
1016.0
1019.0
1020.0
1023.0
1024.0
1027.0
1028.0
1031.0
1035.0
1038.0
1044.0
1056.0
1063.0
1079.0
1095.0
1119.0
1145.0
1170.0
1194.0
1216.0
1237.0
1261.0
1280.0
1299.0
1322.0
1344.0
1364.0
1384.0
1398.0
1402.0
1396.0
1372.0
1325.0
1256.0
1167.0
1064.0
964.0
880.0
819.0
786.0
772.0
775.0
789.0
808.0
823.0
834.0
847.0
861.0
875.0
891.0
909.0
925.0
940.0
952.0
960.0
963.0
966.0
966.0
968.0
968.0
968.0
968.0
966.0
966.0
965.0
965.0
965.0
967.0
969.0
971.0
972.0
970.0
969.0
967.0
967.0
965.0
964.0
963.0
963.0
963.0
965.0
967.0
965.0
966.0
967.0
966.0
966.0
964.0
963.0
962.0
963.0
963.0
964.0
969.0
970.0
970.0
969.0
972.0
972.0
973.0
975.0
978.0
978.0
983.0
986.0
990.0
995.0
1001.0
1005.0
1008.0
1011.0
1010.0
1015.0
1017.0
1017.0
1023.0
1022.0
1027.0
1027.0
1028.0
1027.0
1026.0
1022.0
1022.0
1014.0
1014.0
1014.0
1012.0
1012.0
1014.0
1014.0
1013.0
1011.0
1012.0
1011.0
1012.0
1013.0
1015.0
1025.0
1033.0
1044.0
1057.0
1069.0
1085.0
1103.0
1120.0
1136.0
1151.0
1164.0
1167.0
1159.0
1140.0
1105.0
1055.0
997.0
928.0
858.0
794.0
734.0
679.0
636.0
600.0
574.0
559.0
555.0
559.0
566.0
578.0
596.0
617.0
639.0
665.0
688.0
705.0
719.0
736.0
751.0
770.0
788.0
807.0
820.0
830.0
837.0
843.0
856.0
872.0
893.0
919.0
951.0
977.0
1005.0
1023.0
1039.0
1053.0
1061.0
1067.0
1072.0
1076.0
1078.0
1086.0
1093.0
1096.0
1102.0
1102.0
1106.0
1107.0
1108.0
1110.0
1112.0
1116.0
1122.0
1127.0
1132.0
1134.0
1138.0
1142.0
1143.0
1147.0
1147.0
1152.0
1156.0
1159.0
1163.0
1171.0
1176.0
1183.0
1190.0
1194.0
1199.0
1202.0
1205.0
1206.0
1209.0
1210.0
1212.0
1213.0
1217.0
1215.0
1215.0
1213.0
1207.0
1199.0
1194.0
1186.0
1181.0
1174.0
1170.0
1164.0
1158.0
1150.0
1143.0
1133.0
1127.0
1121.0
1116.0
1107.0
1102.0
1096.0
1088.0
1083.0
1077.0
1072.0
1065.0
1060.0
1055.0
1050.0
1048.0
1043.0
1037.0
1034.0
1032.0
1030.0
1030.0
1030.0
1029.0
1027.0
1026.0
1025.0
1023.0
1022.0
1021.0
1019.0
1021.0
1021.0
1019.0
1020.0
1022.0
1021.0
1019.0
1019.0
1019.0
1019.0
1019.0
1018.0
1017.0
1016.0
1017.0
1018.0
1018.0
1015.0
1015.0
1011.0
1008.0
1009.0
1008.0
1008.0
1008.0
1008.0
1010.0
1012.0
1011.0
1007.0
1004.0
1002.0
998.0
994.0
991.0
995.0
995.0
998.0
999.0
1001.0
998.0
999.0
997.0
996.0
993.0
992.0
991.0
991.0
992.0
991.0
992.0
994.0
990.0
992.0
989.0
991.0
988.0
987.0
986.0
985.0
987.0
987.0
991.0
992.0
992.0
993.0
990.0
988.0
987.0
986.0
983.0
983.0
985.0
986.0
988.0
989.0
988.0
987.0
986.0
983.0
983.0
983.0
983.0
982.0
985.0
984.0
986.0
987.0
987.0
984.0
982.0
978.0
979.0
977.0
977.0
977.0
980.0
982.0
986.0
983.0
984.0
984.0
983.0
984.0
980.0
981.0
980.0
978.0
980.0
980.0
981.0
985.0
983.0
984.0
981.0
981.0
981.0
979.0
978.0
976.0
978.0
980.0
982.0
983.0
981.0
983.0
981.0
982.0
980.0
979.0
980.0
980.0
980.0
980.0
983.0
988.0
989.0
993.0
994.0
995.0
997.0
998.0
1001.0
1004.0
1007.0
1008.0
1012.0
1019.0
1025.0
1032.0
1040.0
1046.0
1044.0
1044.0
1037.0
1035.0
1034.0
1034.0
1038.0
1040.0
1039.0
1037.0
1034.0
1026.0
1019.0
1009.0
1003.0
997.0
993.0
992.0
988.0
987.0
983.0
978.0
974.0
970.0
969.0
968.0
969.0
972.0
972.0
975.0
975.0
978.0
976.0
977.0
976.0
977.0
985.0
1003.0
1033.0
1070.0
1120.0
1162.0
1209.0
1249.0
1285.0
1321.0
1350.0
1372.0
1383.0
1383.0
1373.0
1345.0
1302.0
1239.0
1166.0
1100.0
1047.0
1014.0
999.0
991.0
985.0
980.0
972.0
964.0
951.0
942.0
932.0
930.0
928.0
929.0
928.0
926.0
926.0
922.0
924.0
922.0
922.0
921.0
922.0
924.0
