# Simple Text Format
# Sampling Rate (Hz):= 360.00
# Resolution:= 12
# Labels:= ECG
1059.0
1059.0
1059.0
1059.0
1059.0
1059.0
1059.0
1059.0
1059.0
1060.0
1061.0
1066.0
1070.0
1068.0
1063.0
1056.0
1043.0
1036.0
1041.0
1054.0
1063.0
1056.0
1037.0
1035.0
1048.0
1068.0
1072.0
1064.0
1056.0
1052.0
1052.0
1049.0
1046.0
1044.0
1046.0
1051.0
1052.0
1045.0
1035.0
1030.0
1026.0
1027.0
1021.0
1017.0
1012.0
1006.0
999.0
999.0
1002.0
1002.0
1002.0
998.0
998.0
997.0
996.0
994.0
989.0
992.0
991.0
990.0
987.0
985.0
988.0
991.0
989.0
984.0
981.0
981.0
987.0
990.0
986.0
978.0
978.0
982.0
989.0
992.0
990.0
986.0
985.0
986.0
991.0
992.0
988.0
986.0
989.0
988.0
989.0
985.0
984.0
988.0
987.0
985.0
982.0
975.0
976.0
987.0
1008.0
1029.0
1046.0
1058.0
1064.0
1065.0
1071.0
1090.0
1109.0
1131.0
1144.0
1150.0
1146.0
1139.0
1134.0
1131.0
1128.0
1122.0
1113.0
1102.0
1090.0
1078.0
1068.0
1059.0
1043.0
1020.0
995.0
968.0
943.0
926.0
915.0
910.0
900.0
892.0
884.0
886.0
890.0
892.0
893.0
892.0
896.0
901.0
905.0
906.0
909.0
908.0
908.0
912.0
921.0
927.0
929.0
927.0
927.0
931.0
932.0
932.0
932.0
930.0
929.0
931.0
930.0
927.0
927.0
923.0
923.0
924.0
926.0
926.0
925.0
923.0
918.0
918.0
920.0
924.0
925.0
923.0
920.0
921.0
923.0
923.0
921.0
921.0
920.0
924.0
927.0
925.0
926.0
927.0
928.0
928.0
928.0
933.0
934.0
937.0
935.0
941.0
941.0
943.0
945.0
947.0
947.0
950.0
954.0
954.0
951.0
949.0
954.0
963.0
971.0
973.0
969.0
967.0
968.0
976.0
982.0
981.0
979.0
980.0
976.0
978.0
984.0
986.0
988.0
987.0
985.0
987.0
993.0
992.0
989.0
987.0
987.0
988.0
990.0
990.0
988.0
989.0
991.0
995.0
999.0
999.0
997.0
992.0
987.0
985.0
992.0
995.0
994.0
988.0
982.0
986.0
988.0
987.0
981.0
977.0
976.0
984.0
992.0
995.0
989.0
985.0
984.0
986.0
990.0
987.0
983.0
980.0
981.0
985.0
987.0
985.0
982.0
976.0
971.0
969.0
965.0
960.0
953.0
949.0
943.0
939.0
937.0
934.0
936.0
936.0
936.0
938.0
940.0
938.0
937.0
933.0
930.0
929.0
933.0
932.0
931.0
927.0
927.0
930.0
933.0
934.0
932.0
932.0
934.0
936.0
937.0
933.0
929.0
928.0
929.0
935.0
938.0
930.0
926.0
923.0
927.0
935.0
939.0
938.0
934.0
930.0
931.0
933.0
936.0
932.0
927.0
927.0
925.0
927.0
925.0
925.0
927.0
941.0
961.0
983.0
999.0
1007.0
1014.0
1017.0
1030.0
1052.0
1075.0
1087.0
1098.0
1103.0
1104.0
1102.0
1103.0
1097.0
1093.0
1082.0
1068.0
1062.0
1058.0
1045.0
1028.0
1011.0
990.0
963.0
941.0
913.0
891.0
874.0
863.0
855.0
847.0
842.0
843.0
842.0
839.0
843.0
848.0
854.0
856.0
858.0
858.0
862.0
870.0
872.0
875.0
878.0
882.0
882.0
888.0
886.0
886.0
885.0
885.0
884.0
886.0
885.0
882.0
883.0
881.0
881.0
882.0
880.0
879.0
877.0
877.0
881.0
882.0
880.0
877.0
874.0
873.0
876.0
880.0
878.0
877.0
877.0
876.0
878.0
884.0
882.0
882.0
881.0
880.0
885.0
889.0
891.0
893.0
891.0
892.0
893.0
899.0
903.0
903.0
903.0
903.0
906.0
913.0
917.0
918.0
919.0
918.0
923.0
930.0
933.0
932.0
933.0
934.0
940.0
944.0
944.0
946.0
946.0
946.0
948.0
950.0
951.0
950.0
951.0
953.0
955.0
961.0
961.0
960.0
956.0
955.0
956.0
961.0
962.0
965.0
967.0
970.0
970.0
965.0
962.0
960.0
956.0
952.0
951.0
952.0
952.0
953.0
952.0
952.0
957.0
962.0
962.0
965.0
964.0
966.0
962.0
957.0
951.0
949.0
944.0
944.0
946.0
950.0
947.0
949.0
947.0
946.0
947.0
949.0
942.0
933.0
926.0
917.0
914.0
910.0
906.0
903.0
900.0
900.0
902.0
905.0
901.0
902.0
900.0
901.0
900.0
901.0
896.0
893.0
891.0
891.0
895.0
898.0
898.0
896.0
896.0
897.0
906.0
910.0
910.0
906.0
901.0
899.0
899.0
898.0
898.0
903.0
902.0
903.0
900.0
902.0
906.0
913.0
916.0
916.0
909.0
906.0
900.0
893.0
891.0
888.0
895.0
904.0
900.0
893.0
880.0
876.0
876.0
880.0
891.0
909.0
935.0
956.0
978.0
995.0
1005.0
1014.0
1023.0
1039.0
1064.0
1085.0
1106.0
1124.0
1136.0
1142.0
1141.0
1141.0
1135.0
1131.0
1120.0
1101.0
1086.0
1069.0
1056.0
1041.0
1031.0
1014.0
987.0
951.0
909.0
872.0
843.0
819.0
802.0
794.0
786.0
783.0
784.0
783.0
788.0
791.0
794.0
799.0
796.0
793.0
791.0
793.0
798.0
805.0
812.0
822.0
828.0
831.0
829.0
828.0
825.0
826.0
827.0
829.0
828.0
832.0
839.0
841.0
842.0
837.0
827.0
823.0
818.0
813.0
812.0
810.0
809.0
808.0
807.0
808.0
813.0
816.0
816.0
819.0
817.0
816.0
818.0
819.0
822.0
822.0
822.0
822.0
825.0
828.0
825.0
823.0
821.0
824.0
834.0
841.0
849.0
847.0
837.0
832.0
833.0
839.0
849.0
857.0
857.0
853.0
851.0
848.0
848.0
850.0
857.0
861.0
864.0
868.0
872.0
876.0
880.0
880.0
882.0
886.0
887.0
889.0
887.0
897.0
904.0
911.0
910.0
905.0
903.0
906.0
913.0
915.0
913.0
912.0
911.0
908.0
910.0
914.0
921.0
931.0
932.0
931.0
925.0
915.0
908.0
910.0
911.0
914.0
922.0
924.0
921.0
908.0
901.0
903.0
912.0
916.0
914.0
904.0
896.0
892.0
896.0
903.0
905.0
909.0
908.0
901.0
898.0
899.0
902.0
904.0
902.0
898.0
900.0
902.0
901.0
897.0
891.0
883.0
877.0
871.0
862.0
861.0
861.0
863.0
865.0
861.0
852.0
847.0
847.0
853.0
858.0
860.0
855.0
850.0
855.0
860.0
863.0
860.0
856.0
851.0
853.0
852.0
854.0
864.0
869.0
870.0
865.0
855.0
850.0
850.0
849.0
846.0
841.0
841.0
846.0
854.0
856.0
853.0
848.0
845.0
844.0
851.0
854.0
853.0
852.0
845.0
842.0
847.0
854.0
858.0
856.0
854.0
852.0
850.0
844.0
838.0
831.0
838.0
858.0
893.0
928.0
952.0
965.0
978.0
984.0
988.0
995.0
1008.0
1019.0
1036.0
1053.0
1065.0
1066.0
1061.0
1052.0
1044.0
1039.0
1034.0
1021.0
1005.0
989.0
976.0
965.0
953.0
934.0
915.0
890.0
856.0
825.0
798.0
776.0
755.0
732.0
719.0
713.0
709.0
708.0
711.0
715.0
723.0
725.0
731.0
730.0
734.0
738.0
743.0
749.0
759.0
764.0
764.0
765.0
770.0
776.0
783.0
786.0
792.0
793.0
795.0
798.0
804.0
803.0
801.0
800.0
800.0
802.0
804.0
804.0
800.0
801.0
802.0
804.0
805.0
805.0
805.0
804.0
805.0
804.0
805.0
802.0
802.0
802.0
804.0
806.0
808.0
807.0
806.0
806.0
807.0
810.0
812.0
811.0
810.0
810.0
810.0
815.0
820.0
820.0
818.0
820.0
818.0
826.0
831.0
832.0
831.0
833.0
832.0
838.0
844.0
843.0
846.0
847.0
851.0
853.0
857.0
859.0
860.0
861.0
863.0
866.0
872.0
873.0
877.0
876.0
879.0
880.0
884.0
886.0
889.0
889.0
889.0
893.0
897.0
897.0
896.0
895.0
896.0
899.0
901.0
904.0
902.0
902.0
904.0
909.0
910.0
909.0
910.0
909.0
911.0
913.0
912.0
912.0
914.0
909.0
907.0
905.0
902.0
904.0
904.0
906.0
908.0
910.0
914.0
915.0
914.0
911.0
910.0
913.0
916.0
913.0
909.0
907.0
907.0
907.0
910.0
912.0
911.0
908.0
906.0
904.0
901.0
894.0
885.0
877.0
870.0
867.0
866.0
860.0
856.0
852.0
851.0
850.0
848.0
850.0
848.0
847.0
846.0
851.0
853.0
850.0
850.0
850.0
850.0
851.0
853.0
854.0
852.0
854.0
855.0
858.0
856.0
857.0
857.0
858.0
859.0
861.0
861.0
861.0
858.0
861.0
859.0
864.0
865.0
861.0
860.0
862.0
864.0
866.0
865.0
863.0
864.0
864.0
862.0
861.0
861.0
858.0
855.0
858.0
868.0
889.0
908.0
927.0
944.0
954.0
958.0
965.0
974.0
993.0
1010.0
1022.0
1040.0
1051.0
1053.0
1050.0
1049.0
1047.0
1047.0
1044.0
1033.0
1022.0
1007.0
998.0
992.0
982.0
969.0
947.0
925.0
898.0
874.0
852.0
822.0
801.0
786.0
778.0
778.0
776.0
776.0
775.0
777.0
776.0
776.0
780.0
785.0
790.0
796.0
799.0
804.0
809.0
815.0
816.0
818.0
824.0
834.0
839.0
840.0
841.0
842.0
843.0
845.0
847.0
850.0
848.0
842.0
842.0
845.0
849.0
846.0
847.0
846.0
846.0
850.0
852.0
846.0
846.0
841.0
846.0
850.0
850.0
852.0
847.0
849.0
847.0
848.0
852.0
853.0
851.0
850.0
849.0
852.0
856.0
856.0
860.0
854.0
856.0
860.0
862.0
860.0
864.0
866.0
871.0
873.0
878.0
878.0
879.0
877.0
881.0
884.0
888.0
889.0
888.0
889.0
890.0
894.0
900.0
904.0
902.0
906.0
907.0
908.0
916.0
918.0
917.0
917.0
919.0
922.0
926.0
930.0
931.0
931.0
930.0
934.0
940.0
940.0
938.0
936.0
936.0
939.0
943.0
942.0
942.0
944.0
946.0
948.0
947.0
949.0
947.0
948.0
954.0
953.0
954.0
949.0
947.0
943.0
942.0
946.0
950.0
950.0
948.0
946.0
949.0
952.0
952.0
952.0
948.0
948.0
949.0
948.0
951.0
945.0
947.0
946.0
941.0
946.0
950.0
952.0
951.0
946.0
940.0
937.0
934.0
927.0
922.0
915.0
908.0
905.0
903.0
901.0
900.0
896.0
896.0
898.0
897.0
894.0
892.0
888.0
889.0
890.0
891.0
893.0
892.0
888.0
885.0
887.0
887.0
886.0
889.0
887.0
887.0
887.0
890.0
891.0
892.0
888.0
887.0
888.0
891.0
892.0
888.0
885.0
887.0
891.0
894.0
894.0
893.0
891.0
891.0
893.0
896.0
896.0
894.0
891.0
894.0
894.0
890.0
887.0
881.0
883.0
889.0
905.0
926.0
947.0
967.0
983.0
989.0
996.0
1009.0
1028.0
1045.0
1062.0
1076.0
1088.0
1099.0
1100.0
1096.0
1094.0
1089.0
1087.0
1084.0
1070.0
1053.0
1035.0
1023.0
1013.0
995.0
974.0
942.0
913.0
884.0
861.0
839.0
822.0
808.0
799.0
793.0
792.0
792.0
793.0
793.0
791.0
797.0
804.0
813.0
817.0
821.0
822.0
827.0
832.0
837.0
844.0
845.0
842.0
848.0
851.0
859.0
861.0
862.0
861.0
860.0
859.0
862.0
860.0
859.0
859.0
861.0
860.0
862.0
862.0
861.0
858.0
860.0
862.0
863.0
863.0
861.0
859.0
857.0
860.0
865.0
865.0
863.0
863.0
861.0
865.0
864.0
867.0
868.0
866.0
868.0
870.0
874.0
874.0
873.0
875.0
880.0
886.0
886.0
888.0
887.0
887.0
891.0
896.0
901.0
903.0
902.0
902.0
905.0
905.0
909.0
915.0
917.0
915.0
921.0
924.0
926.0
929.0
932.0
932.0
934.0
937.0
940.0
940.0
939.0
944.0
943.0
944.0
949.0
950.0
948.0
947.0
952.0
951.0
957.0
956.0
958.0
957.0
957.0
962.0
961.0
963.0
960.0
957.0
958.0
962.0
964.0
961.0
958.0
952.0
949.0
950.0
959.0
961.0
961.0
958.0
957.0
962.0
962.0
961.0
963.0
961.0
959.0
960.0
959.0
955.0
952.0
947.0
950.0
953.0
953.0
951.0
951.0
949.0
943.0
937.0
934.0
926.0
917.0
907.0
907.0
905.0
904.0
902.0
901.0
901.0
901.0
900.0
903.0
903.0
900.0
899.0
899.0
899.0
902.0
905.0
902.0
902.0
902.0
904.0
906.0
905.0
906.0
902.0
900.0
904.0
907.0
905.0
903.0
902.0
901.0
903.0
908.0
905.0
905.0
904.0
904.0
905.0
908.0
909.0
908.0
907.0
909.0
911.0
914.0
913.0
911.0
906.0
908.0
911.0
913.0
910.0
909.0
906.0
910.0
923.0
943.0
968.0
994.0
1024.0
1047.0
1053.0
1052.0
1054.0
1059.0
1065.0
1074.0
1088.0
1106.0
1116.0
1120.0
1119.0
1118.0
1120.0
1119.0
1112.0
1094.0
1075.0
1058.0
1042.0
1031.0
1013.0
988.0
956.0
927.0
902.0
883.0
861.0
841.0
821.0
812.0
808.0
807.0
807.0
806.0
808.0
809.0
813.0
817.0
819.0
826.0
831.0
839.0
846.0
853.0
857.0
858.0
861.0
868.0
873.0
880.0
884.0
886.0
887.0
889.0
893.0
893.0
895.0
892.0
887.0
888.0
892.0
895.0
894.0
892.0
888.0
885.0
887.0
888.0
889.0
888.0
885.0
881.0
882.0
888.0
888.0
887.0
885.0
883.0
889.0
891.0
888.0
885.0
885.0
887.0
889.0
889.0
891.0
892.0
892.0
893.0
896.0
898.0
900.0
900.0
900.0
902.0
903.0
905.0
906.0
907.0
908.0
910.0
917.0
921.0
922.0
925.0
923.0
929.0
929.0
934.0
937.0
940.0
937.0
942.0
947.0
948.0
949.0
948.0
950.0
952.0
955.0
958.0
959.0
961.0
958.0
963.0
968.0
971.0
972.0
971.0
972.0
975.0
977.0
981.0
982.0
980.0
978.0
981.0
984.0
986.0
986.0
985.0
982.0
982.0
983.0
985.0
983.0
982.0
980.0
978.0
977.0
976.0
978.0
977.0
975.0
975.0
980.0
984.0
984.0
983.0
980.0
980.0
979.0
983.0
982.0
976.0
972.0
971.0
971.0
971.0
972.0
972.0
973.0
972.0
970.0
965.0
960.0
954.0
948.0
942.0
938.0
933.0
933.0
929.0
925.0
923.0
925.0
926.0
926.0
927.0
926.0
925.0
923.0
924.0
922.0
919.0
920.0
922.0
926.0
926.0
926.0
924.0
922.0
921.0
919.0
923.0
923.0
922.0
921.0
922.0
924.0
926.0
924.0
927.0
924.0
923.0
921.0
922.0
926.0
928.0
929.0
929.0
930.0
929.0
928.0
929.0
926.0
925.0
930.0
931.0
933.0
931.0
928.0
925.0
928.0
929.0
931.0
939.0
952.0
975.0
1003.0
1031.0
1052.0
1071.0
1080.0
1085.0
1090.0
1100.0
1112.0
1127.0
1137.0
1155.0
1167.0
1170.0
1168.0
1161.0
1151.0
1141.0
1130.0
1115.0
1093.0
1072.0
1056.0
1038.0
1018.0
996.0
972.0
946.0
916.0
890.0
868.0
851.0
832.0
811.0
796.0
791.0
790.0
794.0
798.0
798.0
798.0
801.0
806.0
814.0
821.0
821.0
827.0
835.0
842.0
849.0
855.0
859.0
861.0
867.0
873.0
877.0
881.0
885.0
883.0
881.0
883.0
888.0
890.0
886.0
885.0
887.0
889.0
891.0
890.0
887.0
887.0
889.0
889.0
889.0
886.0
888.0
887.0
886.0
887.0
887.0
886.0
886.0
884.0
887.0
888.0
890.0
891.0
890.0
888.0
885.0
886.0
892.0
893.0
893.0
896.0
896.0
900.0
902.0
904.0
906.0
906.0
908.0
911.0
917.0
919.0
918.0
919.0
926.0
932.0
937.0
938.0
940.0
938.0
939.0
945.0
947.0
950.0
952.0
953.0
957.0
960.0
964.0
964.0
965.0
966.0
970.0
973.0
974.0
976.0
977.0
976.0
979.0
983.0
984.0
982.0
982.0
981.0
984.0
987.0
991.0
994.0
992.0
990.0
989.0
988.0
991.0
990.0
987.0
980.0
980.0
982.0
983.0
983.0
984.0
983.0
987.0
988.0
989.0
986.0
984.0
981.0
981.0
979.0
980.0
979.0
976.0
971.0
974.0
976.0
980.0
974.0
966.0
959.0
955.0
955.0
950.0
945.0
937.0
932.0
931.0
930.0
930.0
933.0
931.0
929.0
926.0
930.0
926.0
927.0
928.0
922.0
926.0
929.0
931.0
927.0
924.0
925.0
926.0
925.0
925.0
923.0
921.0
916.0
916.0
920.0
921.0
923.0
925.0
924.0
924.0
928.0
926.0
925.0
927.0
925.0
925.0
930.0
933.0
934.0
939.0
945.0
952.0
954.0
951.0
946.0
936.0
926.0
921.0
922.0
935.0
957.0
982.0
1006.0
1030.0
1047.0
1060.0
1062.0
1073.0
1082.0
1090.0
1096.0
1106.0
1109.0
1111.0
1104.0
1097.0
1096.0
1092.0
1084.0
1067.0
1055.0
1042.0
1033.0
1021.0
1006.0
987.0
960.0
935.0
913.0
895.0
874.0
850.0
832.0
827.0
831.0
835.0
835.0
827.0
823.0
825.0
833.0
846.0
856.0
861.0
857.0
854.0
851.0
851.0
857.0
867.0
881.0
893.0
896.0
895.0
890.0
887.0
886.0
891.0
897.0
901.0
901.0
901.0
901.0
900.0
902.0
904.0
905.0
901.0
899.0
897.0
897.0
895.0
901.0
900.0
898.0
897.0
899.0
904.0
905.0
904.0
904.0
904.0
905.0
910.0
910.0
909.0
911.0
915.0
917.0
919.0
918.0
915.0
914.0
916.0
920.0
920.0
923.0
925.0
923.0
926.0
929.0
936.0
937.0
937.0
940.0
944.0
947.0
950.0
953.0
954.0
954.0
957.0
960.0
962.0
968.0
967.0
966.0
969.0
971.0
975.0
976.0
975.0
974.0
974.0
980.0
982.0
982.0
985.0
984.0
987.0
989.0
993.0
991.0
991.0
989.0
993.0
997.0
1000.0
999.0
995.0
993.0
994.0
994.0
997.0
994.0
992.0
988.0
991.0
995.0
994.0
994.0
997.0
995.0
995.0
997.0
995.0
993.0
990.0
984.0
983.0
983.0
985.0
988.0
985.0
987.0
992.0
992.0
990.0
979.0
970.0
966.0
962.0
962.0
957.0
953.0
946.0
942.0
940.0
937.0
940.0
941.0
936.0
935.0
933.0
937.0
938.0
940.0
937.0
934.0
933.0
935.0
935.0
939.0
937.0
937.0
935.0
938.0
940.0
939.0
938.0
936.0
937.0
941.0
943.0
942.0
941.0
937.0
940.0
942.0
940.0
942.0
936.0
934.0
936.0
943.0
942.0
944.0
942.0
943.0
940.0
940.0
938.0
937.0
935.0
941.0
959.0
987.0
1010.0
1024.0
1029.0
1031.0
1043.0
1061.0
1084.0
1101.0
1111.0
1110.0
1111.0
1110.0
1110.0
1105.0
1096.0
1079.0
1066.0
1056.0
1047.0
1033.0
1015.0
990.0
966.0
942.0
917.0
890.0
869.0
853.0
846.0
841.0
840.0
840.0
845.0
843.0
840.0
844.0
854.0
864.0
868.0
871.0
873.0
880.0
889.0
894.0
895.0
898.0
903.0
906.0
907.0
909.0
909.0
908.0
909.0
912.0
913.0
910.0
907.0
904.0
908.0
909.0
910.0
910.0
909.0
905.0
909.0
912.0
912.0
911.0
909.0
907.0
908.0
911.0
912.0
913.0
910.0
908.0
911.0
913.0
917.0
919.0
914.0
917.0
920.0
922.0
924.0
927.0
925.0
926.0
928.0
931.0
935.0
937.0
941.0
941.0
944.0
947.0
945.0
949.0
954.0
956.0
956.0
963.0
965.0
969.0
968.0
969.0
973.0
975.0
978.0
979.0
978.0
979.0
983.0
984.0
989.0
988.0
989.0
993.0
991.0
996.0
997.0
1002.0
999.0
1001.0
1004.0
1008.0
1007.0
1008.0
1008.0
1004.0
1003.0
1002.0
1001.0
1000.0
1002.0
1000.0
1005.0
1007.0
1009.0
1010.0
1007.0
1002.0
1003.0
1006.0
1005.0
1004.0
1001.0
997.0
996.0
995.0
996.0
997.0
996.0
993.0
991.0
986.0
982.0
975.0
971.0
964.0
960.0
954.0
953.0
949.0
943.0
943.0
944.0
945.0
944.0
944.0
942.0
940.0
940.0
943.0
942.0
943.0
942.0
938.0
939.0
943.0
946.0
944.0
943.0
939.0
941.0
946.0
944.0
946.0
945.0
944.0
943.0
943.0
944.0
945.0
942.0
939.0
943.0
946.0
948.0
949.0
944.0
943.0
945.0
950.0
951.0
952.0
948.0
945.0
943.0
943.0
941.0
940.0
939.0
949.0
973.0
997.0
1021.0
1036.0
1040.0
1042.0
1056.0
1078.0
1103.0
1122.0
1135.0
1142.0
1147.0
1147.0
1145.0
1140.0
1129.0
1110.0
1095.0
1083.0
1072.0
1057.0
1036.0
1005.0
973.0
944.0
919.0
894.0
871.0
857.0
850.0
848.0
850.0
848.0
848.0
846.0
848.0
850.0
857.0
865.0
867.0
872.0
878.0
883.0
890.0
894.0
894.0
897.0
903.0
909.0
913.0
914.0
913.0
912.0
916.0
916.0
915.0
915.0
916.0
914.0
912.0
915.0
917.0
918.0
916.0
912.0
914.0
915.0
917.0
918.0
915.0
913.0
913.0
916.0
919.0
921.0
920.0
917.0
919.0
924.0
925.0
926.0
925.0
925.0
925.0
931.0
931.0
934.0
932.0
932.0
937.0
941.0
940.0
943.0
942.0
942.0
948.0
951.0
958.0
959.0
961.0
961.0
961.0
967.0
972.0
976.0
978.0
977.0
977.0
980.0
983.0
987.0
984.0
984.0
988.0
992.0
998.0
1001.0
1001.0
997.0
998.0
999.0
1003.0
1003.0
1005.0
1008.0
1013.0
1022.0
1026.0
1026.0
1020.0
1017.0
1025.0
1034.0
1037.0
1027.0
1011.0
994.0
988.0
991.0
995.0
1001.0
1003.0
1005.0
1009.0
1011.0
1011.0
1008.0
1008.0
1010.0
1010.0
1012.0
1012.0
1012.0
1009.0
1003.0
1001.0
1001.0
1001.0
1002.0
1002.0
997.0
993.0
989.0
984.0
980.0
975.0
972.0
973.0
972.0
968.0
960.0
954.0
951.0
956.0
971.0
983.0
987.0
979.0
964.0
952.0
943.0
937.0
933.0
929.0
929.0
933.0
935.0
939.0
944.0
945.0
944.0
939.0
938.0
941.0
946.0
947.0
942.0
939.0
939.0
944.0
949.0
953.0
953.0
955.0
958.0
965.0
969.0
972.0
967.0
967.0
964.0
958.0
954.0
954.0
959.0
961.0
958.0
953.0
953.0
959.0
977.0
995.0
1010.0
1016.0
1025.0
1037.0
1052.0
1070.0
1090.0
1105.0
1111.0
1116.0
1128.0
1149.0
1163.0
1164.0
1154.0
1143.0
1139.0
1143.0
1144.0
1134.0
1119.0
1105.0
1090.0
1077.0
1063.0
1044.0
1015.0
981.0
943.0
912.0
886.0
874.0
864.0
854.0
840.0
835.0
833.0
835.0
841.0
838.0
840.0
851.0
862.0
870.0
876.0
881.0
888.0
891.0
900.0
904.0
906.0
907.0
912.0
923.0
928.0
929.0
928.0
926.0
933.0
939.0
941.0
946.0
953.0
952.0
939.0
927.0
919.0
923.0
918.0
912.0
900.0
897.0
898.0
901.0
901.0
903.0
903.0
903.0
902.0
905.0
906.0
905.0
906.0
909.0
911.0
911.0
919.0
921.0
923.0
924.0
925.0
929.0
934.0
936.0
940.0
944.0
957.0
968.0
974.0
970.0
958.0
942.0
935.0
940.0
953.0
967.0
977.0
984.0
983.0
987.0
994.0
995.0
989.0
983.0
987.0
993.0
1001.0
1001.0
999.0
1000.0
994.0
991.0
988.0
985.0
979.0
984.0
993.0
1013.0
1034.0
1039.0
1038.0
1027.0
1014.0
1008.0
1008.0
1012.0
1018.0
1027.0
1035.0
1040.0
1043.0
1046.0
1053.0
1045.0
1019.0
997.0
989.0
995.0
1002.0
1000.0
990.0
985.0
994.0
1003.0
1012.0
1018.0
1013.0
1011.0
1008.0
1003.0
993.0
981.0
968.0
965.0
966.0
967.0
963.0
962.0
960.0
962.0
964.0
968.0
962.0
960.0
964.0
973.0
977.0
967.0
951.0
944.0
943.0
953.0
950.0
943.0
936.0
939.0
944.0
950.0
954.0
954.0
953.0
954.0
956.0
954.0
954.0
950.0
954.0
956.0
957.0
957.0
958.0
960.0
959.0
960.0
961.0
967.0
968.0
966.0
968.0
971.0
976.0
978.0
970.0
964.0
955.0
951.0
952.0
955.0
956.0
957.0
962.0
977.0
1002.0
1023.0
1041.0
1057.0
1065.0
1064.0
1064.0
1074.0
1093.0
1113.0
1132.0
1151.0
1169.0
1183.0
1185.0
1182.0
1175.0
1173.0
1169.0
1160.0
1138.0
1121.0
1109.0
1096.0
1082.0
1064.0
1037.0
1009.0
981.0
959.0
938.0
918.0
901.0
885.0
875.0
869.0
867.0
864.0
864.0
865.0
865.0
864.0
862.0
867.0
871.0
879.0
885.0
893.0
899.0
903.0
906.0
906.0
906.0
912.0
917.0
922.0
929.0
929.0
932.0
934.0
937.0
940.0
940.0
936.0
937.0
939.0
940.0
937.0
939.0
937.0
936.0
934.0
937.0
938.0
936.0
935.0
932.0
934.0
936.0
938.0
939.0
936.0
934.0
936.0
939.0
939.0
941.0
939.0
936.0
939.0
940.0
942.0
943.0
941.0
942.0
943.0
947.0
952.0
953.0
951.0
951.0
956.0
960.0
963.0
963.0
965.0
966.0
971.0
977.0
979.0
980.0
979.0
976.0
981.0
986.0
992.0
996.0
997.0
997.0
1000.0
1005.0
1008.0
1009.0
1009.0
1009.0
1013.0
1018.0
1018.0
1018.0
1021.0
1021.0
1023.0
1027.0
1031.0
1031.0
1031.0
1030.0
1035.0
1039.0
1043.0
1044.0
1045.0
1043.0
1045.0
1047.0
1046.0
1045.0
1039.0
1037.0
1037.0
1040.0
1043.0
1043.0
1046.0
1043.0
1044.0
1046.0
1043.0
1042.0
1040.0
1036.0
1038.0
1037.0
1036.0
1037.0
1036.0
1035.0
1036.0
1040.0
1039.0
1035.0
1028.0
1021.0
1014.0
1011.0
1006.0
1002.0
997.0
989.0
985.0
982.0
982.0
982.0
980.0
975.0
974.0
977.0
980.0
978.0
978.0
976.0
975.0
977.0
978.0
977.0
976.0
973.0
974.0
978.0
977.0
976.0
971.0
973.0
972.0
974.0
978.0
977.0
977.0
976.0
978.0
979.0
977.0
976.0
976.0
976.0
980.0
981.0
983.0
982.0
981.0
980.0
979.0
982.0
982.0
982.0
981.0
977.0
973.0
972.0
971.0
971.0
970.0
974.0
993.0
1016.0
1034.0
1054.0
1067.0
1079.0
1088.0
1102.0
1122.0
1143.0
1162.0
1180.0
1196.0
1211.0
1218.0
1220.0
1214.0
1212.0
1207.0
1200.0
1184.0
1161.0
1141.0
1123.0
1106.0
1087.0
1064.0
1038.0
1004.0
971.0
949.0
928.0
906.0
888.0
874.0
866.0
859.0
858.0
857.0
857.0
858.0
855.0
855.0
860.0
869.0
873.0
878.0
884.0
890.0
894.0
899.0
902.0
903.0
906.0
913.0
921.0
926.0
926.0
928.0
926.0
931.0
933.0
933.0
935.0
934.0
932.0
931.0
932.0
931.0
933.0
929.0
929.0
929.0
932.0
931.0
932.0
929.0
927.0
925.0
927.0
928.0
928.0
924.0
922.0
923.0
926.0
926.0
925.0
925.0
924.0
924.0
927.0
930.0
929.0
930.0
929.0
930.0
934.0
937.0
937.0
937.0
938.0
941.0
942.0
946.0
946.0
947.0
947.0
949.0
951.0
957.0
961.0
962.0
961.0
963.0
967.0
973.0
975.0
977.0
976.0
979.0
981.0
989.0
992.0
995.0
993.0
994.0
997.0
1000.0
1000.0
1002.0
1002.0
1004.0
1008.0
1012.0
1014.0
1015.0
1013.0
1016.0
1016.0
1022.0
1027.0
1028.0
1027.0
1024.0
1026.0
1029.0
1029.0
1028.0
1027.0
1027.0
1029.0
1027.0
1023.0
1019.0
1017.0
1019.0
1024.0
1029.0
1030.0
1027.0
1023.0
1021.0
1023.0
1023.0
1023.0
1018.0
1017.0
1017.0
1017.0
1018.0
1017.0
1012.0
1011.0
1014.0
1016.0
1015.0
1012.0
1005.0
997.0
992.0
988.0
984.0
979.0
971.0
966.0
960.0
959.0
957.0
955.0
952.0
947.0
950.0
952.0
957.0
955.0
955.0
952.0
951.0
954.0
957.0
956.0
953.0
951.0
952.0
955.0
957.0
955.0
952.0
951.0
952.0
954.0
957.0
955.0
954.0
949.0
954.0
956.0
960.0
959.0
957.0
955.0
955.0
956.0
958.0
963.0
961.0
958.0
958.0
962.0
961.0
962.0
959.0
953.0
954.0
963.0
980.0
1002.0
1028.0
1048.0
1064.0
1081.0
1093.0
1103.0
1110.0
1123.0
1137.0
1155.0
1172.0
1185.0
1188.0
1183.0
1175.0
1170.0
1164.0
1154.0
1136.0
1113.0
1097.0
1083.0
1066.0
1046.0
1025.0
994.0
963.0
934.0
913.0
892.0
870.0
850.0
839.0
834.0
830.0
832.0
829.0
829.0
834.0
836.0
841.0
845.0
852.0
856.0
860.0
869.0
874.0
880.0
879.0
883.0
887.0
896.0
902.0
902.0
904.0
902.0
909.0
915.0
918.0
918.0
915.0
913.0
912.0
913.0
914.0
915.0
912.0
911.0
911.0
911.0
916.0
912.0
911.0
908.0
911.0
913.0
916.0
914.0
912.0
912.0
915.0
916.0
919.0
917.0
917.0
915.0
917.0
919.0
922.0
923.0
924.0
924.0
929.0
932.0
937.0
937.0
935.0
935.0
940.0
942.0
945.0
947.0
944.0
948.0
950.0
952.0
956.0
960.0
959.0
958.0
961.0
967.0
971.0
973.0
978.0
979.0
982.0
983.0
989.0
989.0
992.0
989.0
990.0
992.0
997.0
996.0
997.0
997.0
1000.0
1002.0
1004.0
1007.0
1007.0
1006.0
1011.0
1014.0
1016.0
1014.0
1015.0
1014.0
1016.0
1020.0
1021.0
1017.0
1013.0
1009.0
1007.0
1014.0
1016.0
1016.0
1014.0
1013.0
1009.0
1009.0
1011.0
1011.0
1009.0
1008.0
1007.0
1009.0
1011.0
1010.0
1009.0
1005.0
1003.0
1006.0
1008.0
1008.0
1006.0
1002.0
998.0
997.0
990.0
987.0
979.0
971.0
966.0
963.0
959.0
956.0
951.0
952.0
953.0
954.0
953.0
952.0
951.0
949.0
951.0
951.0
954.0
952.0
948.0
950.0
950.0
954.0
953.0
949.0
948.0
945.0
948.0
951.0
953.0
957.0
953.0
951.0
951.0
950.0
953.0
952.0
952.0
950.0
952.0
951.0
954.0
954.0
955.0
950.0
951.0
953.0
954.0
955.0
956.0
958.0
959.0
960.0
957.0
952.0
948.0
946.0
951.0
960.0
983.0
1008.0
1029.0
1041.0
1053.0
1058.0
1063.0
1072.0
1083.0
1095.0
1110.0
1126.0
1141.0
1143.0
1142.0
1134.0
1133.0
1132.0
1130.0
1125.0
1111.0
1096.0
1084.0
1071.0
1059.0
1046.0
1024.0
999.0
975.0
953.0
931.0
