# Simple Text Format
# Sampling Rate (Hz):= 360.00
# Resolution:= 12
# Labels:= ECG
922.0
923.0
926.0
926.0
928.0
934.0
939.0
941.0
944.0
944.0
946.0
952.0
957.0
960.0
960.0
961.0
965.0
969.0
973.0
977.0
979.0
981.0
985.0
988.0
989.0
993.0
996.0
996.0
997.0
1000.0
1004.0
1005.0
1005.0
1004.0
1003.0
1006.0
1009.0
1006.0
1006.0
1005.0
1003.0
1003.0
1006.0
1005.0
1004.0
1000.0
1000.0
1001.0
1003.0
1004.0
1001.0
996.0
995.0
996.0
999.0
995.0
993.0
993.0
995.0
997.0
1002.0
1001.0
1000.0
999.0
998.0
1000.0
1001.0
1000.0
999.0
997.0
995.0
998.0
1004.0
1004.0
1005.0
1005.0
1005.0
1009.0
1009.0
1008.0
1006.0
1001.0
1000.0
1001.0
1003.0
1003.0
1004.0
1003.0
1002.0
1005.0
1008.0
1004.0
1003.0
996.0
992.0
986.0
984.0
977.0
973.0
969.0
966.0
964.0
962.0
961.0
959.0
959.0
956.0
955.0
958.0
958.0
958.0
958.0
957.0
959.0
961.0
961.0
959.0
957.0
958.0
958.0
961.0
962.0
960.0
960.0
960.0
964.0
963.0
964.0
963.0
962.0
961.0
963.0
966.0
966.0
965.0
963.0
962.0
966.0
970.0
970.0
970.0
967.0
965.0
969.0
973.0
971.0
971.0
968.0
966.0
961.0
963.0
957.0
955.0
956.0
965.0
987.0
1014.0
1040.0
1066.0
1085.0
1101.0
1120.0
1144.0
1173.0
1204.0
1229.0
1253.0
1274.0
1288.0
1290.0
1288.0
1278.0
1265.0
1237.0
1203.0
1169.0
1140.0
1114.0
1085.0
1052.0
1015.0
973.0
940.0
906.0
882.0
865.0
853.0
848.0
844.0
842.0
841.0
846.0
850.0
851.0
854.0
864.0
870.0
881.0
888.0
891.0
892.0
896.0
903.0
911.0
914.0
918.0
915.0
916.0
919.0
919.0
921.0
920.0
917.0
917.0
917.0
915.0
917.0
917.0
915.0
910.0
908.0
910.0
914.0
909.0
907.0
906.0
905.0
905.0
906.0
905.0
904.0
901.0
900.0
903.0
905.0
906.0
903.0
902.0
902.0
907.0
911.0
908.0
911.0
909.0
911.0
914.0
921.0
920.0
922.0
925.0
926.0
930.0
936.0
939.0
942.0
942.0
949.0
953.0
956.0
960.0
962.0
963.0
965.0
971.0
976.0
979.0
981.0
982.0
984.0
990.0
995.0
997.0
996.0
997.0
999.0
1003.0
1008.0
1007.0
1008.0
1005.0
1005.0
1007.0
1011.0
1008.0
1007.0
1007.0
1003.0
1006.0
1007.0
1005.0
1003.0
1001.0
999.0
997.0
1000.0
997.0
994.0
993.0
989.0
990.0
991.0
991.0
988.0
988.0
989.0
993.0
997.0
993.0
993.0
992.0
992.0
994.0
998.0
995.0
995.0
995.0
995.0
999.0
1003.0
1005.0
1004.0
1004.0
1002.0
1005.0
1008.0
1005.0
1001.0
1000.0
999.0
1001.0
1003.0
1004.0
1001.0
1001.0
999.0
1003.0
1002.0
996.0
989.0
980.0
977.0
975.0
975.0
969.0
964.0
961.0
960.0
961.0
961.0
962.0
960.0
955.0
955.0
958.0
961.0
960.0
957.0
956.0
959.0
959.0
961.0
961.0
960.0
959.0
960.0
963.0
965.0
963.0
961.0
960.0
960.0
962.0
964.0
965.0
964.0
962.0
961.0
963.0
967.0
968.0
966.0
965.0
966.0
967.0
969.0
969.0
967.0
968.0
968.0
970.0
971.0
973.0
968.0
962.0
958.0
958.0
964.0
971.0
988.0
1013.0
1042.0
1070.0
1096.0
1113.0
1127.0
1149.0
1179.0
1208.0
1238.0
1264.0
1285.0
1297.0
1299.0
1298.0
1296.0
1286.0
1264.0
1227.0
1186.0
1156.0
1131.0
1102.0
1071.0
1029.0
987.0
950.0
921.0
894.0
869.0
853.0
840.0
839.0
840.0
840.0
842.0
842.0
842.0
847.0
857.0
864.0
872.0
875.0
881.0
887.0
894.0
894.0
899.0
902.0
904.0
910.0
916.0
916.0
913.0
914.0
914.0
913.0
916.0
914.0
911.0
910.0
908.0
908.0
910.0
910.0
908.0
903.0
904.0
904.0
907.0
905.0
904.0
900.0
900.0
902.0
902.0
899.0
898.0
897.0
896.0
898.0
900.0
899.0
899.0
897.0
897.0
903.0
907.0
905.0
906.0
907.0
909.0
912.0
914.0
917.0
920.0
920.0
921.0
927.0
933.0
933.0
935.0
938.0
940.0
944.0
949.0
953.0
955.0
957.0
960.0
967.0
971.0
971.0
974.0
976.0
979.0
986.0
987.0
988.0
991.0
992.0
992.0
996.0
997.0
1001.0
1000.0
1000.0
1001.0
1001.0
1004.0
1005.0
1003.0
1002.0
1000.0
1003.0
1004.0
1005.0
1000.0
997.0
996.0
998.0
998.0
997.0
993.0
991.0
989.0
989.0
993.0
992.0
988.0
983.0
983.0
984.0
987.0
986.0
987.0
986.0
988.0
986.0
987.0
988.0
986.0
987.0
986.0
988.0
988.0
986.0
984.0
983.0
987.0
992.0
997.0
998.0
997.0
994.0
994.0
997.0
998.0
998.0
992.0
993.0
992.0
994.0
998.0
998.0
995.0
996.0
997.0
996.0
999.0
993.0
986.0
977.0
974.0
970.0
968.0
962.0
956.0
953.0
951.0
952.0
953.0
952.0
949.0
949.0
951.0
951.0
952.0
953.0
952.0
951.0
949.0
951.0
953.0
954.0
953.0
952.0
953.0
955.0
957.0
957.0
956.0
954.0
954.0
957.0
957.0
959.0
958.0
956.0
956.0
960.0
960.0
960.0
957.0
956.0
957.0
959.0
962.0
963.0
960.0
960.0
960.0
963.0
965.0
965.0
963.0
958.0
958.0
961.0
960.0
955.0
955.0
955.0
962.0
980.0
1008.0
1040.0
1067.0
1091.0
1114.0
1130.0
1150.0
1172.0
1195.0
1215.0
1241.0
1265.0
1286.0
1298.0
1301.0
1297.0
1289.0
1283.0
1273.0
1246.0
1207.0
1172.0
1141.0
1116.0
1091.0
1062.0
1029.0
987.0
951.0
920.0
894.0
871.0
852.0
838.0
826.0
824.0
828.0
830.0
830.0
831.0
830.0
834.0
840.0
850.0
856.0
863.0
868.0
875.0
882.0
885.0
886.0
890.0
896.0
899.0
903.0
905.0
907.0
905.0
906.0
907.0
910.0
907.0
906.0
903.0
901.0
904.0
905.0
906.0
900.0
899.0
898.0
900.0
901.0
900.0
898.0
896.0
894.0
894.0
897.0
896.0
895.0
894.0
893.0
892.0
896.0
897.0
895.0
896.0
896.0
897.0
900.0
899.0
898.0
900.0
902.0
907.0
908.0
913.0
913.0
913.0
915.0
919.0
924.0
928.0
929.0
929.0
933.0
940.0
946.0
946.0
950.0
954.0
956.0
960.0
965.0
967.0
966.0
969.0
972.0
976.0
981.0
985.0
985.0
987.0
987.0
991.0
996.0
995.0
996.0
996.0
998.0
1001.0
1002.0
1003.0
1001.0
1000.0
1001.0
1000.0
1001.0
1000.0
998.0
993.0
995.0
993.0
996.0
997.0
992.0
990.0
991.0
991.0
991.0
988.0
988.0
985.0
986.0
986.0
987.0
987.0
983.0
983.0
984.0
987.0
992.0
993.0
991.0
988.0
989.0
992.0
994.0
992.0
988.0
987.0
989.0
992.0
999.0
1000.0
1001.0
998.0
999.0
1001.0
1002.0
1002.0
999.0
996.0
994.0
998.0
1001.0
998.0
998.0
997.0
1000.0
1004.0
1004.0
1002.0
997.0
990.0
985.0
980.0
980.0
975.0
970.0
964.0
961.0
958.0
963.0
960.0
959.0
958.0
956.0
957.0
959.0
958.0
955.0
956.0
954.0
955.0
959.0
956.0
955.0
954.0
954.0
956.0
959.0
957.0
958.0
955.0
955.0
959.0
962.0
959.0
958.0
958.0
958.0
962.0
962.0
964.0
962.0
960.0
959.0
962.0
965.0
965.0
962.0
962.0
962.0
965.0
969.0
969.0
968.0
968.0
966.0
970.0
969.0
968.0
964.0
962.0
958.0
959.0
962.0
962.0
966.0
975.0
997.0
1021.0
1046.0
1066.0
1087.0
1101.0
1115.0
1137.0
1163.0
1186.0
1208.0
1229.0
1251.0
1268.0
1279.0
1280.0
1280.0
1275.0
1268.0
1258.0
1237.0
1205.0
1176.0
1149.0
1130.0
1110.0
1086.0
1058.0
1022.0
988.0
957.0
932.0
910.0
885.0
869.0
854.0
848.0
846.0
846.0
848.0
845.0
847.0
847.0
848.0
854.0
858.0
864.0
871.0
874.0
882.0
887.0
890.0
893.0
893.0
899.0
906.0
912.0
913.0
914.0
915.0
915.0
917.0
922.0
918.0
916.0
914.0
912.0
913.0
917.0
914.0
914.0
913.0
912.0
910.0
913.0
912.0
909.0
907.0
906.0
907.0
907.0
908.0
906.0
901.0
903.0
903.0
906.0
903.0
902.0
901.0
902.0
905.0
906.0
909.0
905.0
903.0
905.0
907.0
909.0
909.0
910.0
910.0
910.0
916.0
919.0
922.0
921.0
923.0
924.0
929.0
932.0
936.0
936.0
939.0
943.0
947.0
950.0
951.0
956.0
955.0
958.0
963.0
967.0
969.0
969.0
973.0
975.0
979.0
981.0
987.0
987.0
987.0
990.0
994.0
996.0
998.0
999.0
998.0
1000.0
1005.0
1005.0
1005.0
1005.0
1002.0
1005.0
1005.0
1008.0
1009.0
1005.0
1002.0
998.0
1003.0
1002.0
1000.0
1002.0
997.0
996.0
995.0
995.0
995.0
993.0
990.0
990.0
990.0
992.0
990.0
988.0
986.0
987.0
990.0
993.0
996.0
995.0
994.0
993.0
994.0
997.0
996.0
992.0
994.0
994.0
996.0
1001.0
1003.0
1003.0
1002.0
1002.0
1005.0
1006.0
1004.0
1003.0
999.0
998.0
1000.0
998.0
1002.0
999.0
999.0
1000.0
1002.0
1001.0
1002.0
997.0
992.0
989.0
983.0
982.0
976.0
967.0
965.0
962.0
961.0
960.0
958.0
955.0
954.0
956.0
955.0
957.0
953.0
952.0
954.0
954.0
954.0
955.0
958.0
956.0
955.0
956.0
957.0
958.0
958.0
956.0
956.0
956.0
957.0
960.0
958.0
957.0
956.0
957.0
958.0
960.0
961.0
957.0
956.0
958.0
959.0
961.0
960.0
960.0
960.0
959.0
961.0
965.0
963.0
964.0
960.0
964.0
966.0
968.0
968.0
964.0
963.0
962.0
958.0
959.0
957.0
953.0
954.0
965.0
987.0
1011.0
1036.0
1060.0
1081.0
1098.0
1111.0
1135.0
1160.0
1185.0
1208.0
1231.0
1255.0
1278.0
1289.0
1289.0
1288.0
1286.0
1281.0
1272.0
1246.0
1211.0
1180.0
1153.0
1134.0
1114.0
1086.0
1053.0
1011.0
971.0
942.0
918.0
894.0
872.0
855.0
842.0
839.0
838.0
835.0
836.0
836.0
836.0
842.0
845.0
849.0
855.0
862.0
867.0
873.0
880.0
882.0
885.0
884.0
888.0
898.0
905.0
906.0
906.0
908.0
908.0
912.0
915.0
915.0
913.0
911.0
909.0
910.0
912.0
910.0
909.0
906.0
905.0
908.0
910.0
907.0
906.0
904.0
904.0
902.0
905.0
903.0
902.0
900.0
900.0
901.0
902.0
899.0
900.0
898.0
899.0
900.0
902.0
900.0
900.0
898.0
896.0
901.0
903.0
901.0
901.0
902.0
903.0
905.0
908.0
908.0
910.0
910.0
913.0
917.0
920.0
923.0
922.0
926.0
929.0
933.0
939.0
940.0
941.0
944.0
947.0
952.0
959.0
959.0
962.0
965.0
967.0
973.0
977.0
980.0
979.0
981.0
984.0
991.0
992.0
995.0
996.0
995.0
995.0
998.0
1001.0
1002.0
1003.0
1000.0
1001.0
1002.0
1005.0
1004.0
1003.0
1002.0
1000.0
1000.0
1006.0
1004.0
1001.0
1000.0
999.0
1000.0
1000.0
998.0
994.0
994.0
994.0
996.0
993.0
991.0
986.0
985.0
985.0
987.0
988.0
991.0
990.0
989.0
991.0
992.0
993.0
991.0
992.0
990.0
989.0
992.0
992.0
993.0
993.0
994.0
998.0
1001.0
1003.0
1001.0
1002.0
997.0
996.0
996.0
998.0
1000.0
995.0
996.0
996.0
1000.0
1003.0
1004.0
1001.0
999.0
997.0
993.0
988.0
982.0
977.0
969.0
968.0
966.0
964.0
961.0
956.0
953.0
955.0
956.0
956.0
956.0
955.0
952.0
953.0
954.0
955.0
957.0
956.0
951.0
952.0
956.0
957.0
960.0
956.0
955.0
956.0
955.0
961.0
961.0
958.0
957.0
960.0
960.0
963.0
962.0
962.0
961.0
961.0
965.0
964.0
964.0
963.0
963.0
963.0
965.0
967.0
967.0
966.0
964.0
965.0
967.0
967.0
967.0
963.0
959.0
955.0
951.0
957.0
960.0
969.0
987.0
1015.0
1044.0
1071.0
1089.0
1105.0
1119.0
1140.0
1169.0
1197.0
1223.0
1244.0
1268.0
1286.0
1298.0
1303.0
1300.0
1297.0
1288.0
1272.0
1246.0
1216.0
1184.0
1156.0
1128.0
1101.0
1074.0
1042.0
999.0
961.0
930.0
903.0
880.0
862.0
847.0
840.0
832.0
830.0
833.0
837.0
839.0
839.0
837.0
844.0
852.0
861.0
868.0
872.0
875.0
877.0
884.0
889.0
894.0
898.0
902.0
905.0
909.0
914.0
914.0
914.0
913.0
912.0
913.0
915.0
915.0
910.0
909.0
908.0
909.0
909.0
909.0
906.0
903.0
903.0
904.0
904.0
905.0
900.0
900.0
897.0
898.0
901.0
899.0
899.0
897.0
898.0
898.0
899.0
901.0
898.0
898.0
898.0
900.0
902.0
901.0
902.0
900.0
899.0
903.0
907.0
908.0
909.0
910.0
913.0
915.0
921.0
922.0
922.0
923.0
927.0
929.0
934.0
936.0
936.0
939.0
940.0
948.0
952.0
953.0
956.0
958.0
961.0
967.0
970.0
974.0
975.0
975.0
976.0
982.0
986.0
989.0
991.0
992.0
994.0
999.0
1001.0
1002.0
1002.0
1003.0
1005.0
1005.0
1008.0
1009.0
1007.0
1007.0
1006.0
1007.0
1008.0
1005.0
1005.0
1001.0
1000.0
1000.0
1004.0
1003.0
999.0
997.0
995.0
994.0
995.0
994.0
992.0
989.0
989.0
990.0
992.0
991.0
992.0
992.0
991.0
995.0
997.0
992.0
993.0
992.0
993.0
996.0
995.0
993.0
992.0
990.0
991.0
998.0
999.0
1001.0
1002.0
1000.0
999.0
1001.0
1003.0
1001.0
998.0
996.0
996.0
996.0
1000.0
999.0
1002.0
1001.0
999.0
1000.0
997.0
992.0
984.0
976.0
972.0
970.0
971.0
966.0
961.0
957.0
957.0
958.0
959.0
958.0
956.0
953.0
955.0
956.0
959.0
958.0
958.0
954.0
953.0
956.0
955.0
957.0
956.0
957.0
956.0
957.0
958.0
958.0
957.0
956.0
957.0
959.0
962.0
961.0
963.0
960.0
960.0
962.0
966.0
964.0
962.0
961.0
963.0
964.0
966.0
967.0
966.0
966.0
966.0
969.0
970.0
968.0
967.0
962.0
958.0
958.0
961.0
967.0
979.0
1003.0
1033.0
1062.0
1088.0
1109.0
1128.0
1146.0
1173.0
1204.0
1230.0
1260.0
1280.0
1298.0
1306.0
1307.0
1306.0
1299.0
1279.0
1246.0
1201.0
1169.0
1139.0
1105.0
1075.0
1036.0
995.0
961.0
929.0
902.0
875.0
854.0
840.0
834.0
835.0
833.0
832.0
832.0
836.0
840.0
846.0
852.0
860.0
867.0
871.0
879.0
883.0
887.0
889.0
894.0
899.0
904.0
907.0
909.0
909.0
911.0
911.0
914.0
913.0
912.0
911.0
907.0
907.0
908.0
909.0
907.0
905.0
903.0
903.0
904.0
905.0
903.0
900.0
898.0
896.0
898.0
898.0
900.0
897.0
893.0
892.0
894.0
895.0
893.0
893.0
894.0
893.0
895.0
897.0
899.0
900.0
900.0
899.0
903.0
906.0
903.0
907.0
910.0
912.0
916.0
921.0
921.0
921.0
923.0
924.0
932.0
935.0
939.0
940.0
939.0
946.0
951.0
954.0
957.0
958.0
961.0
963.0
968.0
971.0
975.0
976.0
978.0
980.0
984.0
987.0
990.0
991.0
993.0
994.0
996.0
1002.0
1001.0
1000.0
997.0
998.0
1000.0
1002.0
999.0
1001.0
995.0
996.0
996.0
999.0
998.0
993.0
991.0
991.0
993.0
992.0
992.0
989.0
986.0
986.0
987.0
989.0
988.0
986.0
980.0
984.0
987.0
990.0
989.0
988.0
986.0
985.0
987.0
992.0
987.0
987.0
983.0
983.0
985.0
989.0
991.0
993.0
994.0
994.0
995.0
996.0
996.0
993.0
991.0
991.0
993.0
995.0
993.0
992.0
991.0
991.0
994.0
997.0
995.0
990.0
985.0
980.0
977.0
975.0
969.0
965.0
957.0
957.0
954.0
956.0
953.0
953.0
950.0
950.0
951.0
953.0
953.0
951.0
949.0
951.0
950.0
953.0
954.0
952.0
952.0
951.0
954.0
955.0
956.0
953.0
952.0
953.0
953.0
955.0
956.0
954.0
952.0
953.0
955.0
960.0
959.0
955.0
955.0
954.0
956.0
960.0
960.0
957.0
958.0
958.0
960.0
961.0
962.0
961.0
959.0
959.0
960.0
960.0
959.0
953.0
949.0
952.0
958.0
976.0
999.0
1027.0
1052.0
1075.0
1097.0
1115.0
1134.0
1156.0
1180.0
1209.0
1233.0
1257.0
1275.0
1283.0
1285.0
1283.0
1283.0
1277.0
1264.0
1233.0
1196.0
1163.0
1139.0
1115.0
1086.0
1055.0
1016.0
977.0
946.0
922.0
898.0
870.0
854.0
843.0
838.0
839.0
835.0
837.0
839.0
840.0
844.0
847.0
853.0
859.0
866.0
871.0
878.0
884.0
888.0
890.0
893.0
896.0
900.0
908.0
910.0
910.0
909.0
910.0
911.0
912.0
910.0
911.0
907.0
909.0
910.0
909.0
907.0
905.0
904.0
903.0
905.0
906.0
904.0
904.0
901.0
899.0
900.0
902.0
903.0
900.0
896.0
898.0
898.0
900.0
900.0
897.0
894.0
897.0
897.0
901.0
902.0
901.0
900.0
901.0
905.0
907.0
908.0
909.0
908.0
911.0
915.0
918.0
924.0
925.0
927.0
931.0
934.0
938.0
941.0
943.0
943.0
947.0
951.0
957.0
960.0
962.0
964.0
967.0
971.0
976.0
979.0
979.0
980.0
981.0
986.0
990.0
992.0
992.0
992.0
993.0
996.0
1000.0
1001.0
1001.0
998.0
1000.0
1000.0
1004.0
1005.0
1002.0
1001.0
999.0
1001.0
1001.0
1000.0
998.0
997.0
997.0
995.0
996.0
995.0
993.0
992.0
989.0
991.0
993.0
992.0
991.0
988.0
988.0
992.0
992.0
993.0
995.0
992.0
991.0
991.0
994.0
994.0
990.0
987.0
989.0
989.0
994.0
994.0
996.0
997.0
999.0
1000.0
1000.0
1000.0
998.0
996.0
995.0
997.0
998.0
997.0
997.0
994.0
995.0
998.0
1000.0
998.0
995.0
992.0
989.0
987.0
983.0
977.0
971.0
965.0
960.0
959.0
959.0
956.0
951.0
950.0
950.0
951.0
951.0
951.0
948.0
949.0
948.0
951.0
953.0
952.0
951.0
949.0
949.0
951.0
955.0
953.0
953.0
953.0
953.0
953.0
958.0
956.0
954.0
953.0
954.0
955.0
957.0
957.0
959.0
954.0
957.0
958.0
960.0
961.0
961.0
958.0
956.0
957.0
962.0
963.0
961.0
958.0
957.0
961.0
964.0
962.0
960.0
953.0
950.0
951.0
951.0
957.0
968.0
987.0
1014.0
1041.0
1069.0
1089.0
1105.0
1124.0
1152.0
1186.0
1217.0
1247.0
1267.0
1283.0
1291.0
1291.0
1290.0
1277.0
1257.0
1220.0
1179.0
1146.0
1119.0
1086.0
1048.0
1004.0
963.0
934.0
907.0
881.0
858.0
841.0
835.0
833.0
834.0
835.0
838.0
837.0
839.0
845.0
857.0
865.0
869.0
874.0
878.0
883.0
889.0
894.0
898.0
900.0
904.0
908.0
912.0
913.0
911.0
910.0
907.0
907.0
908.0
907.0
904.0
903.0
902.0
903.0
903.0
904.0
901.0
899.0
899.0
901.0
898.0
898.0
897.0
895.0
894.0
894.0
897.0
896.0
895.0
892.0
892.0
894.0
897.0
899.0
899.0
896.0
898.0
902.0
905.0
905.0
906.0
905.0
906.0
912.0
914.0
920.0
919.0
920.0
923.0
929.0
934.0
938.0
937.0
939.0
943.0
948.0
953.0
957.0
959.0
958.0
963.0
968.0
974.0
974.0
977.0
976.0
985.0
988.0
992.0
993.0
995.0
994.0
996.0
1000.0
1001.0
1001.0
1002.0
1001.0
1003.0
1002.0
1004.0
1004.0
1003.0
999.0
1000.0
1001.0
1001.0
1002.0
999.0
996.0
996.0
997.0
995.0
994.0
994.0
991.0
990.0
990.0
991.0
990.0
987.0
986.0
988.0
992.0
993.0
995.0
992.0
988.0
989.0
991.0
994.0
992.0
991.0
987.0
988.0
994.0
997.0
1000.0
1000.0
996.0
996.0
997.0
998.0
996.0
994.0
991.0
991.0
995.0
995.0
994.0
996.0
996.0
997.0
996.0
999.0
995.0
987.0
980.0
974.0
972.0
969.0
966.0
962.0
956.0
954.0
955.0
956.0
955.0
952.0
950.0
949.0
953.0
954.0
953.0
953.0
950.0
951.0
952.0
953.0
954.0
953.0
951.0
950.0
953.0
954.0
955.0
952.0
951.0
954.0
954.0
959.0
957.0
958.0
955.0
954.0
958.0
960.0
959.0
960.0
958.0
955.0
959.0
962.0
961.0
961.0
960.0
959.0
962.0
965.0
964.0
964.0
959.0
960.0
960.0
956.0
954.0
951.0
948.0
956.0
969.0
996.0
1024.0
1050.0
1074.0
1097.0
1115.0
1139.0
1170.0
1198.0
1223.0
1249.0
1275.0
1294.0
1302.0
1303.0
1300.0
1295.0
1286.0
1264.0
1229.0
1187.0
1155.0
1127.0
1097.0
1069.0
1030.0
987.0
947.0
917.0
888.0
866.0
848.0
833.0
828.0
828.0
830.0
834.0
834.0
834.0
835.0
842.0
853.0
863.0
872.0
874.0
875.0
880.0
888.0
895.0
900.0
902.0
903.0
905.0
905.0
910.0
910.0
909.0
907.0
906.0
907.0
907.0
908.0
906.0
903.0
903.0
905.0
904.0
903.0
900.0
897.0
895.0
898.0
898.0
898.0
896.0
893.0
893.0
892.0
896.0
895.0
895.0
893.0
893.0
895.0
898.0
898.0
896.0
897.0
899.0
902.0
905.0
909.0
907.0
908.0
910.0
914.0
916.0
918.0
920.0
922.0
926.0
929.0
937.0
939.0
940.0
939.0
946.0
950.0
955.0
958.0
960.0
962.0
964.0
970.0
976.0
979.0
980.0
981.0
983.0
988.0
992.0
995.0
993.0
995.0
998.0
998.0
1004.0
1003.0
1003.0
999.0
1001.0
1002.0
1004.0
1003.0
1003.0
999.0
1000.0
1000.0
1001.0
999.0
997.0
991.0
991.0
991.0
992.0
991.0
988.0
986.0
984.0
987.0
991.0
992.0
992.0
990.0
990.0
991.0
993.0
992.0
988.0
990.0
987.0
990.0
993.0
995.0
997.0
996.0
998.0
1001.0
1001.0
1003.0
998.0
992.0
995.0
994.0
996.0
999.0
998.0
997.0
996.0
998.0
997.0
995.0
989.0
980.0
974.0
971.0
969.0
966.0
960.0
955.0
953.0
954.0
955.0
956.0
954.0
952.0
951.0
953.0
952.0
957.0
955.0
953.0
951.0
954.0
957.0
959.0
955.0
953.0
956.0
955.0
959.0
960.0
957.0
956.0
957.0
958.0
961.0
961.0
961.0
957.0
955.0
961.0
960.0
961.0
960.0
958.0
956.0
961.0
963.0
964.0
961.0
960.0
962.0
963.0
968.0
966.0
966.0
962.0
960.0
959.0
957.0
956.0
955.0
956.0
964.0
986.0
1012.0
1040.0
1067.0
1087.0
1106.0
1124.0
1153.0
1182.0
1210.0
1236.0
1262.0
1285.0
1305.0
1311.0
1311.0
1306.0
1301.0
1289.0
1260.0
1222.0
1183.0
1149.0
1119.0
1091.0
1063.0
1026.0
983.0
943.0
913.0
889.0
865.0
850.0
834.0
830.0
828.0
832.0
834.0
839.0
837.0
837.0
843.0
853.0
863.0
869.0
875.0
879.0
882.0
886.0
894.0
900.0
901.0
901.0
906.0
908.0
911.0
913.0
912.0
910.0
911.0
911.0
911.0
911.0
909.0
905.0
905.0
906.0
906.0
906.0
905.0
902.0
903.0
899.0
902.0
902.0
899.0
896.0
894.0
897.0
899.0
898.0
895.0
892.0
894.0
893.0
895.0
897.0
898.0
894.0
896.0
898.0
903.0
903.0
903.0
904.0
907.0
911.0
913.0
915.0
918.0
916.0
922.0
927.0
931.0
934.0
936.0
938.0
941.0
945.0
950.0
951.0
953.0
954.0
959.0
966.0
970.0
973.0
974.0
976.0
977.0
983.0
984.0
988.0
989.0
990.0
990.0
998.0
996.0
998.0
999.0
998.0
999.0
1002.0
1003.0
1004.0
1002.0
1000.0
1000.0
1000.0
1003.0
1001.0
998.0
996.0
995.0
998.0
998.0
996.0
993.0
991.0
990.0
988.0
989.0
988.0
986.0
986.0
988.0
988.0
993.0
993.0
990.0
992.0
992.0
991.0
992.0
992.0
991.0
988.0
987.0
990.0
994.0
997.0
994.0
995.0
996.0
999.0
1000.0
1000.0
998.0
996.0
995.0
996.0
997.0
999.0
995.0
994.0
996.0
999.0
1000.0
1001.0
998.0
993.0
990.0
987.0
982.0
975.0
970.0
964.0
963.0
962.0
959.0
958.0
954.0
954.0
955.0
953.0
955.0
953.0
954.0
951.0
950.0
954.0
954.0
955.0
952.0
951.0
952.0
956.0
957.0
955.0
956.0
954.0
954.0
957.0
958.0
957.0
957.0
957.0
956.0
957.0
959.0
960.0
959.0
958.0
959.0
962.0
963.0
962.0
960.0
961.0
960.0
964.0
966.0
965.0
964.0
962.0
967.0
968.0
967.0
965.0
964.0
960.0
957.0
956.0
955.0
954.0
957.0
968.0
987.0
1015.0
1044.0
1067.0
1089.0
1105.0
1122.0
1147.0
1176.0
1207.0
1236.0
1261.0
1287.0
1303.0
1313.0
1313.0
1308.0
1301.0
1287.0
1265.0
1231.0
1200.0
1167.0
1137.0
1108.0
1082.0
1056.0
1015.0
976.0
943.0
914.0
892.0
869.0
851.0
840.0
831.0
829.0
831.0
835.0
835.0
836.0
834.0
837.0
843.0
852.0
861.0
864.0
871.0
876.0
881.0
886.0
888.0
890.0
892.0
899.0
907.0
912.0
913.0
914.0
913.0
914.0
915.0
917.0
915.0
912.0
912.0
911.0
910.0
910.0
911.0
906.0
903.0
904.0
906.0
907.0
905.0
902.0
898.0
899.0
899.0
900.0
900.0
899.0
894.0
895.0
894.0
897.0
896.0
896.0
894.0
895.0
897.0
898.0
898.0
900.0
895.0
898.0
899.0
905.0
907.0
908.0
906.0
908.0
912.0
918.0
916.0
916.0
919.0
924.0
929.0
933.0
936.0
936.0
938.0
942.0
946.0
950.0
953.0
955.0
957.0
959.0
964.0
970.0
975.0
976.0
977.0
980.0
984.0
988.0
990.0
992.0
992.0
994.0
998.0
1000.0
1001.0
1003.0
999.0
1003.0
1005.0
1007.0
1008.0
1006.0
1005.0
1003.0
1003.0
1005.0
1004.0
1001.0
997.0
998.0
1000.0
1000.0
998.0
994.0
991.0
991.0
995.0
995.0
995.0
996.0
993.0
993.0
998.0
1001.0
1001.0
997.0
994.0
994.0
997.0
999.0
996.0
995.0
995.0
997.0
1001.0
1006.0
1005.0
1004.0
1001.0
1002.0
1000.0
1004.0
1001.0
999.0
995.0
997.0
1000.0
1001.0
1002.0
1001.0
1000.0
1000.0
1000.0
999.0
996.0
984.0
979.0
977.0
973.0
970.0
966.0
960.0
955.0
957.0
956.0
957.0
958.0
953.0
952.0
953.0
955.0
956.0
956.0
952.0
952.0
957.0
956.0
959.0
957.0
957.0
954.0
955.0
956.0
958.0
958.0
955.0
957.0
956.0
957.0
960.0
961.0
957.0
958.0
960.0
961.0
963.0
962.0
961.0
959.0
962.0
965.0
968.0
966.0
966.0
962.0
965.0
968.0
969.0
970.0
969.0
966.0
965.0
967.0
967.0
961.0
956.0
952.0
951.0
960.0
972.0
993.0
1018.0
1040.0
1069.0
1092.0
1111.0
1126.0
1140.0
1164.0
1191.0
1217.0
1242.0
1268.0
1290.0
1306.0
1317.0
1319.0
1319.0
1315.0
1308.0
1285.0
1255.0
1219.0
1186.0
1159.0
1127.0
1095.0
1063.0
1030.0
994.0
958.0
925.0
898.0
875.0
856.0
843.0
834.0
829.0
826.0
826.0
831.0
835.0
837.0
835.0
837.0
847.0
855.0
864.0
870.0
874.0
873.0
878.0
883.0
889.0
892.0
896.0
898.0
900.0
906.0
911.0
911.0
911.0
911.0
911.0
913.0
915.0
914.0
910.0
909.0
908.0
909.0
910.0
908.0
907.0
906.0
901.0
906.0
907.0
907.0
903.0
899.0
900.0
901.0
902.0
901.0
899.0
897.0
895.0
895.0
901.0
900.0
898.0
895.0
896.0
897.0
900.0
898.0
900.0
897.0
897.0
901.0
904.0
905.0
905.0
906.0
908.0
912.0
914.0
916.0
917.0
917.0
920.0
921.0
928.0
929.0
933.0
933.0
935.0
941.0
945.0
948.0
949.0
951.0
955.0
958.0
964.0
967.0
968.0
969.0
974.0
977.0
982.0
985.0
985.0
988.0
989.0
995.0
997.0
998.0
1000.0
997.0
999.0
1005.0
1004.0
1007.0
1005.0
1005.0
1006.0
1007.0
1010.0
1011.0
1010.0
1007.0
1006.0
1010.0
1012.0
1009.0
1007.0
1002.0
1003.0
1002.0
1006.0
1005.0
1002.0
997.0
997.0
1000.0
1000.0
1000.0
997.0
994.0
997.0
1000.0
1003.0
1002.0
999.0
998.0
996.0
998.0
999.0
998.0
995.0
993.0
994.0
997.0
1000.0
1004.0
1006.0
1007.0
1005.0
1009.0
1011.0
1010.0
1006.0
1002.0
1004.0
1006.0
1008.0
1006.0
1004.0
1004.0
1002.0
1005.0
1006.0
1008.0
1007.0
1001.0
1001.0
996.0
992.0
986.0
981.0
976.0
975.0
970.0
969.0
966.0
965.0
962.0
961.0
962.0
963.0
962.0
961.0
960.0
962.0
964.0
964.0
966.0
963.0
963.0
963.0
965.0
968.0
968.0
968.0
965.0
963.0
967.0
967.0
969.0
967.0
965.0
966.0
968.0
971.0
971.0
967.0
966.0
966.0
968.0
971.0
971.0
971.0
968.0
970.0
971.0
974.0
976.0
973.0
973.0
972.0
977.0
978.0
978.0
975.0
970.0
971.0
967.0
967.0
966.0
967.0
973.0
990.0
1014.0
1045.0
1071.0
1096.0
1116.0
1136.0
1153.0
1176.0
1208.0
1234.0
1260.0
1286.0
1314.0
1330.0
1337.0
1331.0
1330.0
1323.0
1312.0
1286.0
1248.0
1208.0
1174.0
1146.0
1118.0
1092.0
1059.0
1023.0
983.0
952.0
927.0
906.0
881.0
861.0
844.0
838.0
834.0
835.0
837.0
838.0
838.0
841.0
844.0
849.0
855.0
861.0
867.0
877.0
884.0
890.0
893.0
895.0
897.0
905.0
910.0
915.0
919.0
920.0
918.0
920.0
923.0
925.0
924.0
925.0
921.0
919.0
921.0
922.0
921.0
918.0
916.0
916.0
917.0
917.0
916.0
915.0
913.0
910.0
913.0
