# Simple Text Format
# Sampling Rate (Hz):= 360.00
# Resolution:= 12
# Labels:= ECG
947.0
946.0
945.0
949.0
951.0
952.0
953.0
954.0
955.0
959.0
963.0
965.0
965.0
968.0
972.0
974.0
979.0
983.0
985.0
983.0
988.0
992.0
997.0
998.0
1001.0
1003.0
1002.0
1009.0
1014.0
1018.0
1019.0
1021.0
1020.0
1025.0
1030.0
1031.0
1032.0
1033.0
1035.0
1036.0
1041.0
1042.0
1039.0
1038.0
1037.0
1039.0
1043.0
1043.0
1042.0
1040.0
1038.0
1040.0
1040.0
1042.0
1039.0
1037.0
1039.0
1037.0
1037.0
1037.0
1035.0
1033.0
1030.0
1032.0
1032.0
1031.0
1031.0
1026.0
1027.0
1027.0
1027.0
1029.0
1028.0
1025.0
1025.0
1029.0
1031.0
1033.0
1032.0
1031.0
1030.0
1031.0
1032.0
1031.0
1033.0
1033.0
1033.0
1035.0
1038.0
1039.0
1039.0
1037.0
1035.0
1038.0
1040.0
1039.0
1037.0
1037.0
1036.0
1037.0
1039.0
1041.0
1041.0
1037.0
1037.0
1038.0
1041.0
1036.0
1031.0
1025.0
1018.0
1015.0
1014.0
1008.0
1002.0
999.0
995.0
992.0
990.0
993.0
991.0
987.0
987.0
991.0
993.0
992.0
991.0
988.0
989.0
991.0
989.0
992.0
991.0
988.0
989.0
991.0
993.0
995.0
994.0
994.0
994.0
997.0
1000.0
999.0
993.0
996.0
996.0
996.0
1001.0
1003.0
998.0
998.0
998.0
999.0
1000.0
999.0
999.0
999.0
997.0
1000.0
1003.0
1002.0
1001.0
1001.0
998.0
996.0
995.0
991.0
985.0
985.0
988.0
1005.0
1030.0
1056.0
1084.0
1103.0
1123.0
1143.0
1162.0
1186.0
1214.0
1239.0
1265.0
1293.0
1314.0
1329.0
1333.0
1331.0
1330.0
1327.0
1314.0
1287.0
1250.0
1213.0
1183.0
1159.0
1132.0
1103.0
1064.0
1020.0
984.0
955.0
929.0
906.0
887.0
875.0
870.0
869.0
867.0
875.0
875.0
875.0
877.0
885.0
895.0
903.0
910.0
912.0
915.0
920.0
925.0
930.0
935.0
938.0
940.0
943.0
946.0
949.0
949.0
947.0
946.0
946.0
949.0
947.0
946.0
944.0
942.0
943.0
945.0
944.0
942.0
939.0
938.0
937.0
938.0
940.0
937.0
936.0
933.0
935.0
937.0
938.0
936.0
935.0
931.0
936.0
937.0
936.0
936.0
935.0
934.0
935.0
938.0
939.0
939.0
936.0
935.0
939.0
942.0
945.0
949.0
946.0
947.0
951.0
956.0
957.0
958.0
961.0
964.0
966.0
968.0
973.0
978.0
977.0
979.0
985.0
989.0
996.0
996.0
999.0
1000.0
1004.0
1006.0
1009.0
1011.0
1013.0
1015.0
1014.0
1018.0
1022.0
1023.0
1025.0
1023.0
1028.0
1031.0
1034.0
1034.0
1034.0
1031.0
1034.0
1037.0
1037.0
1040.0
1036.0
1034.0
1035.0
1039.0
1039.0
1039.0
1037.0
1032.0
1035.0
1037.0
1037.0
1035.0
1033.0
1029.0
1032.0
1032.0
1032.0
1030.0
1026.0
1025.0
1022.0
1024.0
1025.0
1023.0
1021.0
1017.0
1020.0
1025.0
1026.0
1026.0
1025.0
1024.0
1025.0
1030.0
1027.0
1025.0
1026.0
1028.0
1031.0
1034.0
1037.0
1037.0
1037.0
1035.0
1035.0
1038.0
1038.0
1037.0
1034.0
1031.0
1031.0
1034.0
1037.0
1036.0
1034.0
1032.0
1037.0
1038.0
1038.0
1037.0
1031.0
1024.0
1021.0
1016.0
1011.0
1008.0
1003.0
995.0
995.0
992.0
991.0
990.0
988.0
984.0
984.0
986.0
988.0
986.0
984.0
984.0
988.0
989.0
989.0
988.0
986.0
985.0
988.0
990.0
990.0
990.0
990.0
990.0
991.0
992.0
995.0
994.0
993.0
990.0
991.0
995.0
994.0
992.0
991.0
989.0
992.0
995.0
996.0
994.0
991.0
992.0
995.0
995.0
997.0
997.0
997.0
996.0
998.0
999.0
1000.0
998.0
997.0
993.0
993.0
990.0
988.0
987.0
989.0
991.0
1007.0
1033.0
1059.0
1087.0
1108.0
1128.0
1147.0
1168.0
1196.0
1225.0
1252.0
1280.0
1309.0
1325.0
1335.0
1334.0
1332.0
1326.0
1315.0
1286.0
1252.0
1215.0
1184.0
1154.0
1129.0
1094.0
1057.0
1014.0
979.0
951.0
927.0
906.0
889.0
878.0
872.0
868.0
867.0
869.0
871.0
872.0
875.0
873.0
882.0
890.0
899.0
905.0
911.0
910.0
916.0
923.0
929.0
931.0
936.0
939.0
942.0
945.0
948.0
948.0
947.0
944.0
945.0
946.0
946.0
944.0
943.0
940.0
942.0
944.0
943.0
943.0
940.0
939.0
939.0
940.0
941.0
937.0
935.0
934.0
933.0
935.0
933.0
934.0
932.0
930.0
932.0
934.0
935.0
935.0
935.0
932.0
932.0
936.0
938.0
938.0
938.0
938.0
943.0
947.0
949.0
950.0
951.0
953.0
956.0
962.0
966.0
967.0
968.0
973.0
976.0
979.0
984.0
985.0
987.0
988.0
990.0
994.0
998.0
1000.0
1002.0
1002.0
1007.0
1010.0
1014.0
1016.0
1016.0
1021.0
1021.0
1024.0
1024.0
1027.0
1027.0
1029.0
1031.0
1031.0
1033.0
1030.0
1031.0
1031.0
1033.0
1034.0
1035.0
1033.0
1035.0
1034.0
1034.0
1034.0
1034.0
1032.0
1031.0
1027.0
1026.0
1026.0
1022.0
1023.0
1020.0
1018.0
1019.0
1019.0
1020.0
1020.0
1016.0
1016.0
1016.0
1021.0
1021.0
1019.0
1020.0
1019.0
1021.0
1023.0
1024.0
1022.0
1021.0
1020.0
1025.0
1027.0
1032.0
1032.0
1033.0
1034.0
1035.0
1036.0
1036.0
1036.0
1033.0
1029.0
1028.0
1031.0
1031.0
1026.0
1029.0
1028.0
1031.0
1033.0
1032.0
1030.0
1026.0
1021.0
1018.0
1012.0
1009.0
1005.0
1000.0
993.0
991.0
990.0
985.0
983.0
982.0
983.0
983.0
984.0
984.0
984.0
983.0
982.0
985.0
984.0
988.0
985.0
984.0
984.0
985.0
988.0
987.0
987.0
985.0
986.0
985.0
989.0
989.0
988.0
987.0
986.0
988.0
988.0
989.0
988.0
988.0
988.0
989.0
990.0
993.0
991.0
989.0
990.0
991.0
993.0
994.0
993.0
995.0
992.0
997.0
997.0
998.0
998.0
995.0
991.0
992.0
988.0
988.0
983.0
981.0
983.0
1002.0
1027.0
1057.0
1084.0
1105.0
1119.0
1140.0
1163.0
1192.0
1223.0
1250.0
1276.0
1305.0
1324.0
1332.0
1335.0
1331.0
1326.0
1316.0
1292.0
1257.0
1219.0
1187.0
1156.0
1128.0
1095.0
1054.0
1013.0
974.0
948.0
923.0
902.0
882.0
871.0
863.0
863.0
863.0
867.0
868.0
867.0
868.0
871.0
881.0
890.0
898.0
904.0
908.0
910.0
915.0
922.0
928.0
930.0
932.0
933.0
939.0
943.0
945.0
944.0
943.0
941.0
945.0
946.0
944.0
946.0
942.0
941.0
940.0
940.0
942.0
938.0
937.0
935.0
935.0
938.0
935.0
934.0
933.0
931.0
932.0
932.0
933.0
931.0
929.0
929.0
930.0
932.0
933.0
931.0
932.0
931.0
933.0
935.0
937.0
939.0
939.0
941.0
943.0
946.0
947.0
949.0
949.0
947.0
954.0
956.0
960.0
960.0
963.0
963.0
965.0
972.0
974.0
978.0
977.0
978.0
982.0
988.0
991.0
995.0
995.0
996.0
1002.0
1005.0
1009.0
1011.0
1013.0
1013.0
1018.0
1021.0
1024.0
1027.0
1026.0
1027.0
1031.0
1035.0
1036.0
1037.0
1038.0
1035.0
1039.0
1041.0
1042.0
1040.0
1036.0
1033.0
1035.0
1037.0
1036.0
1035.0
1033.0
1028.0
1030.0
1032.0
1032.0
1030.0
1028.0
1025.0
1024.0
1025.0
1026.0
1025.0
1022.0
1018.0
1020.0
1020.0
1021.0
1023.0
1023.0
1022.0
1028.0
1030.0
1030.0
1030.0
1029.0
1026.0
1026.0
1028.0
1031.0
1033.0
1033.0
1031.0
1035.0
1037.0
1037.0
1037.0
1037.0
1035.0
1033.0
1035.0
1033.0
1033.0
1028.0
1029.0
1034.0
1035.0
1034.0
1036.0
1035.0
1031.0
1031.0
1031.0
1027.0
1023.0
1014.0
1008.0
1006.0
1004.0
1001.0
999.0
994.0
989.0
990.0
988.0
991.0
989.0
988.0
985.0
986.0
986.0
988.0
987.0
988.0
983.0
986.0
986.0
986.0
988.0
987.0
987.0
989.0
990.0
991.0
989.0
989.0
988.0
990.0
991.0
991.0
990.0
987.0
987.0
990.0
994.0
996.0
993.0
995.0
992.0
995.0
996.0
997.0
996.0
994.0
994.0
997.0
999.0
1001.0
1001.0
996.0
996.0
996.0
997.0
997.0
992.0
989.0
983.0
983.0
985.0
986.0
998.0
1016.0
1043.0
1073.0
1103.0
1127.0
1145.0
1158.0
1180.0
1212.0
1239.0
1267.0
1291.0
1316.0
1332.0
1342.0
1348.0
1346.0
1340.0
1327.0
1298.0
1257.0
1222.0
1190.0
1158.0
1124.0
1087.0
1046.0
1004.0
970.0
940.0
912.0
886.0
868.0
864.0
863.0
860.0
861.0
865.0
866.0
870.0
875.0
881.0
888.0
896.0
904.0
911.0
916.0
919.0
923.0
927.0
933.0
939.0
944.0
945.0
942.0
942.0
941.0
942.0
943.0
939.0
938.0
933.0
934.0
936.0
939.0
935.0
933.0
929.0
930.0
930.0
931.0
929.0
927.0
925.0
926.0
926.0
927.0
927.0
925.0
923.0
924.0
926.0
930.0
927.0
926.0
925.0
929.0
931.0
929.0
929.0
931.0
931.0
935.0
939.0
941.0
945.0
944.0
946.0
948.0
953.0
957.0
960.0
959.0
963.0
967.0
968.0
973.0
976.0
978.0
980.0
985.0
990.0
993.0
997.0
998.0
1001.0
1007.0
1008.0
1012.0
1015.0
1014.0
1016.0
1018.0
1019.0
1022.0
1023.0
1020.0
1022.0
1021.0
1025.0
1027.0
1027.0
1025.0
1024.0
1026.0
1027.0
1028.0
1026.0
1024.0
1021.0
1021.0
1023.0
1021.0
1019.0
1019.0
1017.0
1017.0
1017.0
1017.0
1017.0
1016.0
1014.0
1013.0
1015.0
1012.0
1015.0
1012.0
1012.0
1013.0
1015.0
1018.0
1016.0
1014.0
1014.0
1015.0
1016.0
1015.0
1017.0
1017.0
1016.0
1017.0
1022.0
1023.0
1023.0
1025.0
1023.0
1024.0
1026.0
1024.0
1023.0
1022.0
1018.0
1019.0
1022.0
1028.0
1027.0
1028.0
1024.0
1025.0
1026.0
1023.0
1018.0
1011.0
1002.0
997.0
997.0
995.0
988.0
985.0
980.0
977.0
981.0
980.0
980.0
976.0
974.0
975.0
978.0
979.0
978.0
975.0
976.0
977.0
981.0
980.0
980.0
978.0
978.0
978.0
979.0
983.0
983.0
982.0
980.0
983.0
983.0
984.0
985.0
981.0
981.0
983.0
985.0
986.0
987.0
985.0
982.0
983.0
982.0
986.0
985.0
986.0
984.0
985.0
986.0
991.0
990.0
988.0
988.0
990.0
989.0
990.0
986.0
982.0
979.0
979.0
984.0
989.0
1005.0
1027.0
1052.0
1080.0
1105.0
1126.0
1141.0
1156.0
1173.0
1201.0
1227.0
1253.0
1275.0
1294.0
1305.0
1309.0
1309.0
1307.0
1297.0
1279.0
1251.0
1216.0
1185.0
1160.0
1134.0
1106.0
1075.0
1037.0
1002.0
975.0
944.0
919.0
895.0
878.0
869.0
865.0
864.0
863.0
862.0
866.0
870.0
871.0
874.0
880.0
886.0
895.0
901.0
907.0
908.0
911.0
916.0
921.0
927.0
931.0
934.0
935.0
933.0
937.0
936.0
936.0
936.0
936.0
933.0
936.0
938.0
938.0
937.0
932.0
931.0
931.0
931.0
932.0
932.0
931.0
927.0
929.0
929.0
930.0
928.0
926.0
924.0
926.0
926.0
926.0
924.0
923.0
922.0
922.0
923.0
926.0
926.0
928.0
928.0
929.0
932.0
931.0
934.0
936.0
937.0
942.0
944.0
949.0
951.0
951.0
952.0
958.0
964.0
967.0
968.0
970.0
973.0
978.0
983.0
987.0
988.0
990.0
992.0
993.0
995.0
1001.0
1002.0
1004.0
1005.0
1008.0
1012.0
1015.0
1015.0
1018.0
1017.0
1021.0
1023.0
1024.0
1025.0
1025.0
1025.0
1026.0
1029.0
1028.0
1027.0
1026.0
1025.0
1026.0
1027.0
1029.0
1029.0
1026.0
1023.0
1021.0
1023.0
1024.0
1023.0
1020.0
1015.0
1017.0
1015.0
1016.0
1014.0
1010.0
1008.0
1011.0
1012.0
1016.0
1016.0
1016.0
1016.0
1018.0
1020.0
1020.0
1021.0
1017.0
1018.0
1021.0
1023.0
1025.0
1026.0
1029.0
1030.0
1031.0
1033.0
1034.0
1035.0
1033.0
1030.0
1029.0
1029.0
1032.0
1031.0
1030.0
1030.0
1028.0
1032.0
1031.0
1029.0
1026.0
1020.0
1017.0
1012.0
1010.0
1002.0
998.0
993.0
988.0
988.0
985.0
985.0
985.0
982.0
983.0
983.0
985.0
984.0
984.0
984.0
983.0
986.0
988.0
987.0
984.0
984.0
987.0
988.0
990.0
990.0
990.0
986.0
986.0
986.0
989.0
988.0
986.0
986.0
988.0
991.0
990.0
992.0
989.0
988.0
989.0
994.0
994.0
993.0
990.0
992.0
992.0
995.0
996.0
1000.0
996.0
994.0
996.0
998.0
999.0
1000.0
996.0
993.0
992.0
988.0
988.0
986.0
982.0
987.0
1003.0
1026.0
1053.0
1075.0
1096.0
1113.0
1130.0
1150.0
1175.0
1200.0
1225.0
1251.0
1275.0
1295.0
1305.0
1309.0
1308.0
1305.0
1299.0
1290.0
1262.0
1228.0
1196.0
1168.0
1145.0
1121.0
1094.0
1057.0
1019.0
980.0
954.0
932.0
909.0
893.0
879.0
870.0
871.0
870.0
873.0
873.0
873.0
873.0
875.0
882.0
892.0
899.0
906.0
906.0
912.0
917.0
922.0
926.0
930.0
933.0
936.0
942.0
945.0
946.0
946.0
942.0
945.0
947.0
950.0
948.0
946.0
944.0
944.0
943.0
944.0
940.0
938.0
937.0
935.0
936.0
937.0
936.0
934.0
931.0
933.0
935.0
934.0
931.0
929.0
928.0
929.0
936.0
937.0
935.0
933.0
931.0
934.0
937.0
938.0
938.0
939.0
937.0
941.0
947.0
949.0
950.0
949.0
952.0
956.0
961.0
965.0
965.0
965.0
967.0
970.0
974.0
978.0
983.0
984.0
982.0
988.0
993.0
996.0
1000.0
1002.0
1003.0
1010.0
1013.0
1015.0
1018.0
1019.0
1019.0
1024.0
1026.0
1032.0
1032.0
1031.0
1030.0
1033.0
1035.0
1035.0
1037.0
1035.0
1033.0
1034.0
1033.0
1034.0
1031.0
1028.0
1025.0
1026.0
1025.0
1024.0
1025.0
1023.0
1018.0
1019.0
1017.0
1016.0
1016.0
1013.0
1013.0
1012.0
1016.0
1018.0
1016.0
1020.0
1017.0
1020.0
1023.0
1025.0
1023.0
1022.0
1020.0
1024.0
1025.0
1030.0
1031.0
1030.0
1027.0
1028.0
1030.0
1031.0
1031.0
1025.0
1023.0
1024.0
1028.0
1025.0
1026.0
1026.0
1024.0
1027.0
1026.0
1026.0
1023.0
1014.0
1005.0
1002.0
998.0
996.0
992.0
988.0
985.0
985.0
985.0
986.0
985.0
981.0
980.0
981.0
982.0
985.0
982.0
981.0
979.0
978.0
982.0
983.0
981.0
981.0
980.0
980.0
984.0
985.0
986.0
983.0
981.0
982.0
983.0
985.0
984.0
984.0
983.0
983.0
986.0
986.0
988.0
988.0
986.0
989.0
991.0
994.0
993.0
992.0
991.0
993.0
994.0
996.0
993.0
991.0
989.0
990.0
985.0
982.0
981.0
977.0
981.0
994.0
1019.0
1046.0
1070.0
1090.0
1108.0
1123.0
1140.0
1167.0
1196.0
1223.0
1248.0
1278.0
1302.0
1314.0
1320.0
1317.0
1311.0
1307.0
1287.0
1256.0
1219.0
1182.0
1153.0
1128.0
1098.0
1064.0
1021.0
984.0
951.0
926.0
904.0
886.0
872.0
862.0
858.0
859.0
862.0
866.0
868.0
869.0
867.0
873.0
883.0
891.0
898.0
900.0
904.0
910.0
917.0
923.0
928.0
932.0
933.0
937.0
941.0
939.0
941.0
941.0
937.0
938.0
935.0
937.0
938.0
935.0
933.0
932.0
933.0
932.0
930.0
929.0
925.0
926.0
927.0
927.0
926.0
924.0
923.0
923.0
923.0
924.0
925.0
922.0
920.0
923.0
926.0
927.0
927.0
929.0
923.0
928.0
930.0
932.0
933.0
932.0
932.0
932.0
937.0
942.0
941.0
942.0
942.0
945.0
950.0
952.0
958.0
957.0
958.0
963.0
965.0
971.0
976.0
977.0
976.0
981.0
987.0
992.0
993.0
995.0
997.0
1000.0
1005.0
1006.0
1012.0
1009.0
1010.0
1017.0
1018.0
1022.0
1023.0
1022.0
1022.0
1024.0
1025.0
1027.0
1026.0
1026.0
1023.0
1024.0
1027.0
1026.0
1025.0
1024.0
1019.0
1018.0
1019.0
1019.0
1019.0
1016.0
1012.0
1013.0
1013.0
1014.0
1014.0
1011.0
1009.0
1008.0
1010.0
1013.0
1011.0
1008.0
1010.0
1013.0
1012.0
1017.0
1015.0
1015.0
1010.0
1010.0
1012.0
1014.0
1014.0
1016.0
1015.0
1018.0
1023.0
1023.0
1022.0
1022.0
1018.0
1021.0
1018.0
1018.0
1019.0
1019.0
1019.0
1021.0
1022.0
1023.0
1020.0
1020.0
1017.0
1012.0
1008.0
1004.0
997.0
991.0
985.0
983.0
980.0
978.0
977.0
975.0
971.0
969.0
968.0
973.0
973.0
970.0
967.0
971.0
972.0
972.0
971.0
971.0
967.0
971.0
972.0
976.0
976.0
976.0
974.0
976.0
978.0
979.0
980.0
978.0
978.0
979.0
980.0
983.0
982.0
979.0
978.0
980.0
980.0
980.0
980.0
982.0
978.0
980.0
980.0
982.0
985.0
983.0
980.0
979.0
979.0
979.0
972.0
969.0
965.0
968.0
981.0
1008.0
1034.0
1061.0
1088.0
1112.0
1132.0
1153.0
1180.0
1208.0
1234.0
1262.0
1289.0
1311.0
1324.0
1324.0
1323.0
1320.0
1311.0
1290.0
1252.0
1212.0
1177.0
1147.0
1117.0
1086.0
1042.0
997.0
957.0
929.0
905.0
882.0
864.0
849.0
847.0
847.0
851.0
855.0
856.0
856.0
858.0
866.0
876.0
887.0
892.0
897.0
899.0
903.0
907.0
913.0
918.0
922.0
922.0
925.0
929.0
930.0
931.0
930.0
927.0
927.0
929.0
927.0
928.0
927.0
924.0
924.0
924.0
925.0
925.0
922.0
919.0
919.0
921.0
922.0
920.0
919.0
915.0
917.0
919.0
919.0
918.0
915.0
914.0
916.0
917.0
918.0
916.0
914.0
912.0
913.0
917.0
919.0
919.0
921.0
916.0
919.0
924.0
928.0
930.0
928.0
931.0
934.0
940.0
944.0
943.0
944.0
950.0
951.0
958.0
963.0
967.0
969.0
969.0
973.0
976.0
982.0
983.0
986.0
988.0
991.0
995.0
999.0
1001.0
1000.0
999.0
1001.0
1005.0
1009.0
1010.0
1010.0
1011.0
1009.0
1014.0
1017.0
1018.0
1018.0
1017.0
1019.0
1020.0
1021.0
1020.0
1020.0
1016.0
1017.0
1016.0
1020.0
1019.0
1019.0
1015.0
1016.0
1017.0
1014.0
1012.0
1012.0
1009.0
1007.0
1006.0
1009.0
1006.0
1001.0
999.0
1001.0
1001.0
1002.0
1003.0
1003.0
1003.0
1005.0
1008.0
1008.0
1008.0
1005.0
1000.0
1003.0
1010.0
1013.0
1014.0
1010.0
1013.0
1012.0
1014.0
1017.0
1020.0
1017.0
1015.0
1014.0
1015.0
1015.0
1016.0
1015.0
1014.0
1015.0
1019.0
1018.0
1018.0
1014.0
1008.0
1009.0
1002.0
998.0
995.0
987.0
982.0
979.0
975.0
974.0
971.0
972.0
966.0
968.0
969.0
968.0
968.0
967.0
967.0
968.0
970.0
972.0
972.0
970.0
968.0
971.0
974.0
975.0
973.0
975.0
971.0
971.0
972.0
976.0
976.0
974.0
969.0
970.0
972.0
974.0
974.0
974.0
971.0
974.0
975.0
976.0
977.0
975.0
974.0
974.0
977.0
977.0
979.0
976.0
977.0
976.0
979.0
981.0
980.0
979.0
978.0
977.0
977.0
975.0
974.0
970.0
968.0
968.0
976.0
991.0
1014.0
1039.0
1064.0
1090.0
1111.0
1127.0
1144.0
1166.0
1193.0
1220.0
1247.0
1275.0
1301.0
1317.0
1321.0
1324.0
1321.0
1319.0
1300.0
1270.0
1231.0
1197.0
1166.0
1141.0
1115.0
1082.0
1044.0
1002.0
970.0
944.0
917.0
896.0
873.0
862.0
856.0
852.0
852.0
852.0
851.0
852.0
855.0
857.0
859.0
864.0
867.0
874.0
884.0
889.0
895.0
896.0
898.0
905.0
910.0
917.0
921.0
922.0
923.0
924.0
928.0
930.0
929.0
926.0
925.0
926.0
925.0
928.0
929.0
926.0
924.0
924.0
927.0
926.0
924.0
921.0
920.0
921.0
923.0
921.0
918.0
916.0
915.0
911.0
914.0
915.0
916.0
913.0
909.0
911.0
911.0
915.0
913.0
913.0
911.0
914.0
915.0
915.0
915.0
913.0
916.0
916.0
920.0
924.0
925.0
925.0
925.0
928.0
933.0
936.0
937.0
939.0
938.0
941.0
948.0
951.0
954.0
955.0
954.0
959.0
960.0
963.0
967.0
968.0
968.0
971.0
976.0
979.0
981.0
983.0
983.0
987.0
990.0
993.0
997.0
1001.0
999.0
1001.0
1006.0
1009.0
1009.0
1010.0
1009.0
1012.0
1013.0
1017.0
1016.0
1017.0
1018.0
1019.0
1019.0
1020.0
1022.0
1020.0
1019.0
1019.0
1019.0
1020.0
1020.0
1016.0
1012.0
1013.0
1014.0
1015.0
1012.0
1011.0
1006.0
1005.0
1006.0
1005.0
1005.0
1005.0
999.0
999.0
1002.0
1003.0
1003.0
998.0
998.0
1000.0
1004.0
1006.0
1005.0
1006.0
1005.0
1003.0
1008.0
1008.0
1008.0
1008.0
1006.0
1011.0
1014.0
1015.0
1015.0
1014.0
1018.0
1017.0
1020.0
1022.0
1018.0
1018.0
1011.0
1012.0
1012.0
1015.0
1019.0
1015.0
1016.0
1013.0
1017.0
1019.0
1017.0
1014.0
1008.0
1004.0
1000.0
997.0
992.0
988.0
982.0
978.0
978.0
975.0
976.0
975.0
972.0
974.0
975.0
975.0
976.0
972.0
972.0
973.0
976.0
976.0
975.0
976.0
971.0
974.0
975.0
977.0
977.0
975.0
975.0
975.0
976.0
979.0
977.0
972.0
973.0
974.0
979.0
976.0
979.0
978.0
976.0
977.0
979.0
980.0
980.0
979.0
978.0
981.0
983.0
986.0
987.0
985.0
983.0
984.0
985.0
988.0
988.0
983.0
978.0
977.0
973.0
972.0
970.0
972.0
978.0
1002.0
1027.0
1051.0
1077.0
1098.0
1114.0
1128.0
1150.0
1179.0
1209.0
1231.0
1256.0
1282.0
1303.0
1316.0
1319.0
1319.0
1315.0
1306.0
1282.0
1248.0
1209.0
1176.0
1145.0
1117.0
1087.0
1049.0
1007.0
968.0
935.0
909.0
885.0
871.0
858.0
852.0
849.0
851.0
854.0
856.0
856.0
855.0
856.0
864.0
875.0
884.0
891.0
894.0
896.0
901.0
907.0
912.0
918.0
922.0
922.0
927.0
932.0
933.0
935.0
933.0
933.0
933.0
935.0
936.0
936.0
931.0
927.0
927.0
928.0
928.0
926.0
924.0
921.0
924.0
924.0
922.0
925.0
921.0
916.0
916.0
919.0
918.0
920.0
919.0
914.0
917.0
919.0
920.0
919.0
918.0
916.0
921.0
920.0
926.0
925.0
925.0
925.0
927.0
929.0
934.0
935.0
934.0
932.0
937.0
940.0
943.0
944.0
944.0
942.0
950.0
955.0
956.0
959.0
960.0
961.0
963.0
967.0
972.0
973.0
975.0
978.0
982.0
985.0
991.0
992.0
993.0
993.0
999.0
1001.0
1004.0
1003.0
1006.0
1008.0
1013.0
1016.0
1017.0
1019.0
1020.0
1019.0
1019.0
1021.0
1023.0
1023.0
1021.0
1019.0
1019.0
1022.0
1021.0
1021.0
1018.0
1016.0
1016.0
1019.0
1018.0
1017.0
1016.0
1013.0
1011.0
1012.0
1012.0
1012.0
1010.0
1006.0
1006.0
1008.0
1007.0
1008.0
1005.0
1005.0
1004.0
1006.0
1009.0
1010.0
1011.0
1007.0
1010.0
1013.0
1012.0
1013.0
1009.0
1009.0
1009.0
1015.0
1015.0
1018.0
1016.0
1016.0
1015.0
1016.0
1020.0
1020.0
1020.0
1015.0
1014.0
1012.0
1016.0
1016.0
1018.0
1014.0
1016.0
1021.0
1021.0
1020.0
1021.0
1016.0
1014.0
1013.0
1011.0
1006.0
998.0
991.0
988.0
986.0
984.0
979.0
976.0
972.0
974.0
972.0
974.0
971.0
969.0
967.0
968.0
970.0
973.0
973.0
970.0
969.0
971.0
973.0
974.0
975.0
971.0
971.0
970.0
974.0
975.0
977.0
974.0
973.0
975.0
977.0
979.0
980.0
979.0
977.0
977.0
980.0
981.0
982.0
980.0
979.0
981.0
979.0
982.0
980.0
980.0
977.0
978.0
981.0
982.0
983.0
982.0
978.0
980.0
976.0
976.0
970.0
963.0
963.0
968.0
978.0
994.0
1019.0
1042.0
1064.0
1088.0
1112.0
1131.0
1149.0
1174.0
1201.0
1230.0
1260.0
1289.0
1309.0
1319.0
1322.0
1321.0
1319.0
1309.0
1282.0
1245.0
1204.0
1174.0
1145.0
1114.0
1082.0
1039.0
994.0
958.0
934.0
913.0
888.0
867.0
855.0
848.0
850.0
849.0
853.0
853.0
853.0
854.0
862.0
868.0
879.0
884.0
889.0
895.0
898.0
906.0
910.0
915.0
917.0
919.0
923.0
927.0
926.0
927.0
926.0
923.0
925.0
927.0
924.0
922.0
919.0
920.0
921.0
923.0
920.0
919.0
915.0
916.0
918.0
917.0
916.0
914.0
912.0
912.0
913.0
915.0
914.0
916.0
912.0
912.0
914.0
914.0
915.0
915.0
914.0
914.0
913.0
915.0
912.0
914.0
915.0
917.0
920.0
925.0
925.0
927.0
927.0
928.0
934.0
938.0
942.0
942.0
941.0
945.0
950.0
957.0
959.0
961.0
963.0
964.0
971.0
975.0
979.0
982.0
983.0
985.0
987.0
990.0
998.0
999.0
998.0
1000.0
1004.0
1006.0
1005.0
1008.0
1007.0
1009.0
1016.0
1015.0
1018.0
1016.0
1016.0
1015.0
1017.0
1019.0
1017.0
1015.0
1013.0
1013.0
1015.0
1015.0
1014.0
1014.0
1009.0
1011.0
1013.0
1014.0
1013.0
1008.0
1008.0
1006.0
1007.0
1007.0
1007.0
1005.0
1001.0
1000.0
1000.0
999.0
1000.0
998.0
996.0
999.0
1001.0
1003.0
1005.0
1002.0
1003.0
1004.0
1003.0
1005.0
1006.0
1008.0
1010.0
1012.0
1015.0
1016.0
1017.0
1015.0
1015.0
1015.0
1017.0
1017.0
1016.0
1016.0
1017.0
1015.0
1017.0
1019.0
1019.0
1019.0
1017.0
1014.0
1012.0
1010.0
1005.0
997.0
990.0
985.0
984.0
984.0
978.0
974.0
970.0
967.0
968.0
971.0
970.0
968.0
968.0
969.0
970.0
972.0
971.0
968.0
967.0
966.0
970.0
972.0
973.0
974.0
973.0
973.0
974.0
975.0
977.0
974.0
974.0
973.0
975.0
976.0
977.0
975.0
974.0
970.0
975.0
975.0
975.0
974.0
972.0
974.0
975.0
977.0
977.0
977.0
976.0
979.0
978.0
981.0
980.0
979.0
979.0
977.0
979.0
982.0
980.0
977.0
972.0
969.0
968.0
971.0
979.0
993.0
1017.0
1044.0
1072.0
1101.0
1117.0
1133.0
1151.0
1181.0
1212.0
1241.0
1270.0
1293.0
1312.0
1323.0
1327.0
1328.0
1323.0
1304.0
1272.0
1233.0
1199.0
1169.0
1137.0
1106.0
1070.0
1026.0
988.0
955.0
927.0
899.0
876.0
863.0
856.0
852.0
848.0
850.0
852.0
850.0
854.0
858.0
862.0
870.0
877.0
885.0
893.0
897.0
899.0
903.0
907.0
912.0
918.0
925.0
924.0
925.0
926.0
928.0
929.0
928.0
927.0
927.0
924.0
923.0
924.0
926.0
924.0
924.0
921.0
920.0
923.0
923.0
923.0
919.0
916.0
913.0
913.0
916.0
915.0
912.0
909.0
908.0
911.0
912.0
913.0
912.0
908.0
911.0
912.0
915.0
915.0
913.0
912.0
914.0
916.0
922.0
922.0
923.0
922.0
925.0
929.0
934.0
934.0
940.0
940.0
944.0
948.0
953.0
951.0
953.0
955.0
959.0
965.0
967.0
968.0
971.0
972.0
977.0
977.0
983.0
985.0
986.0
986.0
993.0
996.0
1000.0
1002.0
1005.0
1006.0
1004.0
1009.0
1013.0
1015.0
1014.0
1013.0
1013.0
1015.0
1021.0
1022.0
1020.0
1018.0
1017.0
1019.0
1021.0
1020.0
1019.0
1016.0
1014.0
1014.0
1013.0
1013.0
1010.0
1007.0
1005.0
1005.0
1008.0
1005.0
1004.0
1002.0
999.0
998.0
1001.0
1003.0
999.0
997.0
998.0
1001.0
1005.0
1003.0
1003.0
1004.0
1003.0
1005.0
1010.0
1011.0
1012.0
1014.0
1014.0
1017.0
1020.0
1019.0
1016.0
1017.0
1018.0
1018.0
1021.0
1016.0
1013.0
1010.0
1011.0
1015.0
1018.0
1019.0
1018.0
1015.0
1013.0
1014.0
1014.0
1010.0
1005.0
995.0
992.0
989.0
987.0
982.0
978.0
974.0
973.0
972.0
975.0
972.0
971.0
969.0
971.0
973.0
978.0
975.0
973.0
972.0
973.0
972.0
977.0
973.0
972.0
972.0
972.0
973.0
972.0
973.0
971.0
969.0
971.0
974.0
974.0
975.0
974.0
973.0
973.0
975.0
977.0
977.0
975.0
975.0
975.0
975.0
979.0
980.0
980.0
978.0
978.0
982.0
983.0
982.0
983.0
982.0
984.0
984.0
983.0
981.0
978.0
973.0
968.0
967.0
971.0
980.0
995.0
1019.0
1046.0
1075.0
1101.0
1123.0
1139.0
1159.0
1187.0
1219.0
1247.0
1275.0
1299.0
1315.0
1323.0
1330.0
1329.0
1321.0
1305.0
1267.0
1225.0
1189.0
1161.0
1128.0
1093.0
1052.0
1010.0
973.0
942.0
915.0
887.0
868.0
855.0
851.0
852.0
854.0
851.0
856.0
855.0
859.0
864.0
873.0
880.0
888.0
894.0
899.0
906.0
910.0
914.0
920.0
923.0
929.0
933.0
933.0
933.0
930.0
931.0
932.0
934.0
929.0
930.0
926.0
925.0
927.0
925.0
925.0
923.0
920.0
919.0
920.0
921.0
919.0
918.0
916.0
914.0
915.0
918.0
918.0
916.0
914.0
914.0
917.0
920.0
919.0
920.0
917.0
919.0
920.0
923.0
925.0
925.0
926.0
926.0
930.0
933.0
937.0
938.0
938.0
940.0
945.0
949.0
951.0
951.0
955.0
959.0
962.0
969.0
969.0
971.0
974.0
975.0
980.0
987.0
988.0
989.0
992.0
995.0
1001.0
1007.0
1008.0
1008.0
1009.0
1012.0
1015.0
1020.0
1020.0
1019.0
1018.0
1017.0
1019.0
1021.0
1021.0
1019.0
1016.0
1016.0
1017.0
1019.0
1018.0
1014.0
1012.0
1010.0
1011.0
1013.0
1011.0
1009.0
1007.0
1005.0
1005.0
1005.0
1003.0
1002.0
1002.0
1001.0
1000.0
1002.0
1005.0
1004.0
1004.0
1003.0
1006.0
1008.0
1010.0
1008.0
1004.0
1004.0
1006.0
1009.0
1010.0
1011.0
1011.0
1014.0
1014.0
1017.0
1017.0
1016.0
1015.0
1012.0
1013.0
1014.0
1014.0
1014.0
1013.0
1014.0
1017.0
1019.0
1018.0
1019.0
1013.0
1006.0
1003.0
997.0
993.0
990.0
984.0
980.0
977.0
975.0
975.0
972.0
969.0
968.0
970.0
971.0
970.0
968.0
967.0
970.0
971.0
973.0
971.0
971.0
969.0
970.0
972.0
975.0
974.0
974.0
972.0
972.0
973.0
976.0
978.0
979.0
975.0
975.0
978.0
980.0
980.0
979.0
977.0
978.0
980.0
983.0
982.0
978.0
977.0
978.0
978.0
981.0
980.0
977.0
976.0
979.0
981.0
983.0
981.0
979.0
975.0
972.0
970.0
970.0
968.0
972.0
983.0
1002.0
1031.0
1055.0
