# Simple Text Format
# Sampling Rate (Hz):= 360.00
# Resolution:= 12
# Labels:= ECG
912.0
913.0
914.0
914.0
912.0
908.0
909.0
910.0
910.0
906.0
908.0
905.0
907.0
907.0
909.0
909.0
905.0
904.0
903.0
905.0
908.0
909.0
908.0
907.0
908.0
912.0
914.0
917.0
919.0
919.0
923.0
929.0
931.0
935.0
933.0
935.0
939.0
944.0
949.0
951.0
953.0
953.0
959.0
963.0
967.0
969.0
972.0
972.0
977.0
981.0
988.0
990.0
991.0
989.0
993.0
996.0
999.0
1002.0
1000.0
1000.0
1004.0
1006.0
1007.0
1009.0
1009.0
1007.0
1008.0
1011.0
1010.0
1011.0
1010.0
1008.0
1007.0
1009.0
1008.0
1009.0
1006.0
1001.0
1001.0
1001.0
1002.0
999.0
997.0
994.0
995.0
995.0
996.0
994.0
989.0
990.0
993.0
995.0
997.0
997.0
994.0
993.0
991.0
995.0
996.0
999.0
1001.0
1003.0
1004.0
1006.0
1011.0
1008.0
1009.0
1009.0
1010.0
1009.0
1010.0
1006.0
1006.0
1002.0
1006.0
1009.0
1011.0
1010.0
1010.0
1007.0
1006.0
1000.0
994.0
986.0
980.0
976.0
970.0
967.0
966.0
961.0
960.0
959.0
959.0
961.0
960.0
961.0
958.0
959.0
960.0
963.0
966.0
964.0
964.0
962.0
962.0
965.0
966.0
967.0
965.0
962.0
963.0
964.0
967.0
966.0
966.0
963.0
965.0
965.0
967.0
966.0
965.0
963.0
965.0
968.0
966.0
966.0
967.0
966.0
967.0
970.0
971.0
972.0
971.0
970.0
973.0
974.0
975.0
974.0
971.0
966.0
965.0
965.0
966.0
973.0
978.0
998.0
1027.0
1055.0
1082.0
1109.0
1127.0
1142.0
1168.0
1191.0
1221.0
1247.0
1271.0
1296.0
1316.0
1325.0
1332.0
1332.0
1330.0
1317.0
1301.0
1270.0
1236.0
1204.0
1174.0
1142.0
1114.0
1083.0
1051.0
1009.0
970.0
937.0
911.0
890.0
869.0
856.0
845.0
837.0
837.0
838.0
841.0
843.0
843.0
842.0
844.0
854.0
864.0
871.0
877.0
879.0
886.0
891.0
893.0
897.0
901.0
904.0
908.0
913.0
917.0
919.0
917.0
914.0
916.0
918.0
917.0
915.0
915.0
914.0
914.0
916.0
916.0
914.0
914.0
912.0
913.0
914.0
914.0
911.0
908.0
906.0
906.0
907.0
909.0
909.0
905.0
903.0
902.0
904.0
907.0
904.0
901.0
899.0
901.0
901.0
902.0
904.0
902.0
904.0
904.0
907.0
911.0
911.0
910.0
911.0
913.0
918.0
922.0
926.0
926.0
928.0
932.0
936.0
940.0
940.0
944.0
945.0
947.0
953.0
959.0
964.0
964.0
966.0
968.0
972.0
978.0
978.0
980.0
980.0
986.0
988.0
994.0
994.0
992.0
990.0
996.0
999.0
1001.0
1002.0
1002.0
1002.0
1002.0
1006.0
1006.0
1005.0
1007.0
1006.0
1004.0
1006.0
1008.0
1007.0
1007.0
1002.0
1002.0
1003.0
1002.0
1001.0
998.0
993.0
995.0
994.0
996.0
993.0
993.0
989.0
988.0
989.0
990.0
990.0
989.0
987.0
989.0
992.0
994.0
994.0
994.0
990.0
989.0
994.0
998.0
999.0
1000.0
1000.0
1003.0
1006.0
1009.0
1008.0
1009.0
1007.0
1003.0
1003.0
1005.0
1005.0
1005.0
1003.0
1004.0
1007.0
1009.0
1008.0
1009.0
1004.0
1002.0
1000.0
995.0
990.0
980.0
976.0
972.0
969.0
967.0
963.0
959.0
954.0
958.0
958.0
959.0
960.0
955.0
956.0
956.0
960.0
959.0
959.0
962.0
959.0
958.0
962.0
965.0
965.0
962.0
960.0
960.0
963.0
964.0
965.0
964.0
961.0
962.0
963.0
965.0
966.0
965.0
960.0
964.0
965.0
964.0
966.0
964.0
962.0
963.0
964.0
966.0
968.0
967.0
965.0
966.0
972.0
970.0
970.0
969.0
966.0
968.0
969.0
967.0
966.0
959.0
954.0
959.0
962.0
975.0
991.0
1013.0
1037.0
1064.0
1090.0
1108.0
1126.0
1143.0
1168.0
1193.0
1224.0
1250.0
1271.0
1290.0
1297.0
1301.0
1305.0
1305.0
1299.0
1286.0
1262.0
1230.0
1202.0
1176.0
1149.0
1123.0
1097.0
1067.0
1033.0
995.0
961.0
933.0
907.0
884.0
867.0
858.0
846.0
842.0
838.0
840.0
843.0
846.0
848.0
846.0
849.0
856.0
865.0
874.0
878.0
882.0
885.0
889.0
893.0
901.0
903.0
905.0
907.0
912.0
915.0
917.0
918.0
917.0
917.0
916.0
919.0
918.0
914.0
917.0
914.0
916.0
916.0
918.0
914.0
915.0
911.0
913.0
913.0
914.0
913.0
910.0
907.0
907.0
909.0
909.0
909.0
906.0
904.0
904.0
907.0
907.0
907.0
905.0
902.0
903.0
905.0
905.0
906.0
904.0
903.0
905.0
905.0
909.0
911.0
911.0
913.0
915.0
917.0
923.0
924.0
925.0
928.0
929.0
937.0
939.0
942.0
945.0
945.0
950.0
952.0
957.0
959.0
960.0
961.0
966.0
971.0
975.0
978.0
979.0
980.0
984.0
987.0
992.0
993.0
993.0
991.0
994.0
1000.0
1001.0
1004.0
1002.0
1001.0
1003.0
1005.0
1009.0
1008.0
1005.0
1003.0
1007.0
1006.0
1006.0
1007.0
1007.0
1002.0
1002.0
1004.0
1005.0
1001.0
1002.0
998.0
996.0
999.0
998.0
997.0
994.0
992.0
990.0
994.0
995.0
995.0
993.0
993.0
993.0
998.0
999.0
998.0
996.0
996.0
997.0
1000.0
1006.0
1007.0
1007.0
1007.0
1009.0
1010.0
1011.0
1011.0
1011.0
1005.0
1002.0
1004.0
1009.0
1009.0
1010.0
1009.0
1008.0
1010.0
1009.0
1008.0
1004.0
994.0
989.0
986.0
980.0
976.0
970.0
962.0
961.0
960.0
961.0
961.0
958.0
956.0
956.0
959.0
960.0
960.0
958.0
956.0
957.0
960.0
963.0
963.0
961.0
960.0
961.0
963.0
965.0
963.0
964.0
961.0
963.0
963.0
967.0
966.0
965.0
962.0
962.0
965.0
967.0
963.0
963.0
960.0
963.0
964.0
966.0
966.0
966.0
964.0
966.0
968.0
970.0
969.0
969.0
967.0
969.0
970.0
970.0
966.0
961.0
959.0
956.0
961.0
966.0
975.0
993.0
1014.0
1041.0
1068.0
1092.0
1109.0
1124.0
1140.0
1168.0
1199.0
1225.0
1252.0
1280.0
1297.0
1310.0
1315.0
1320.0
1319.0
1310.0
1292.0
1261.0
1226.0
1198.0
1170.0
1139.0
1110.0
1082.0
1051.0
1012.0
977.0
947.0
920.0
896.0
877.0
863.0
851.0
845.0
839.0
841.0
843.0
843.0
845.0
844.0
841.0
846.0
855.0
866.0
870.0
875.0
878.0
883.0
888.0
896.0
899.0
900.0
903.0
908.0
911.0
915.0
916.0
915.0
912.0
915.0
917.0
918.0
915.0
914.0
909.0
912.0
915.0
915.0
915.0
913.0
910.0
909.0
911.0
910.0
909.0
910.0
908.0
906.0
907.0
907.0
907.0
903.0
903.0
904.0
904.0
905.0
902.0
900.0
899.0
901.0
903.0
905.0
902.0
901.0
900.0
901.0
905.0
906.0
904.0
903.0
903.0
909.0
912.0
916.0
917.0
918.0
919.0
922.0
928.0
933.0
934.0
936.0
937.0
940.0
948.0
949.0
952.0
953.0
954.0
958.0
965.0
968.0
973.0
974.0
973.0
976.0
984.0
987.0
987.0
989.0
991.0
993.0
997.0
999.0
1002.0
998.0
999.0
1003.0
1005.0
1008.0
1007.0
1008.0
1006.0
1007.0
1011.0
1012.0
1011.0
1009.0
1008.0
1009.0
1010.0
1012.0
1010.0
1005.0
1004.0
1003.0
1006.0
1006.0
1003.0
1000.0
999.0
1000.0
1000.0
999.0
1000.0
997.0
993.0
994.0
996.0
999.0
1000.0
998.0
997.0
995.0
998.0
998.0
997.0
995.0
997.0
999.0
1002.0
1007.0
1004.0
1007.0
1004.0
1008.0
1010.0
1014.0
1012.0
1007.0
1004.0
1005.0
1007.0
1009.0
1009.0
1010.0
1008.0
1008.0
1011.0
1010.0
1007.0
1001.0
993.0
988.0
984.0
983.0
976.0
972.0
965.0
961.0
961.0
965.0
963.0
959.0
956.0
955.0
956.0
959.0
959.0
957.0
957.0
959.0
962.0
963.0
963.0
962.0
960.0
961.0
965.0
965.0
966.0
966.0
963.0
965.0
967.0
969.0
969.0
964.0
965.0
967.0
969.0
971.0
969.0
967.0
967.0
968.0
971.0
969.0
970.0
969.0
966.0
966.0
970.0
972.0
971.0
971.0
968.0
970.0
970.0
972.0
971.0
969.0
962.0
959.0
963.0
964.0
972.0
986.0
1006.0
1035.0
1062.0
1086.0
1109.0
1122.0
1141.0
1169.0
1199.0
1227.0
1253.0
1280.0
1302.0
1317.0
1325.0
1331.0
1329.0
1322.0
1310.0
1285.0
1252.0
1218.0
1188.0
1158.0
1127.0
1096.0
1063.0
1020.0
978.0
943.0
914.0
893.0
873.0
857.0
848.0
840.0
840.0
840.0
843.0
847.0
847.0
847.0
851.0
857.0
868.0
877.0
882.0
886.0
889.0
891.0
897.0
904.0
907.0
911.0
910.0
913.0
916.0
919.0
919.0
919.0
916.0
916.0
920.0
921.0
919.0
916.0
915.0
914.0
916.0
918.0
916.0
915.0
911.0
911.0
912.0
914.0
913.0
911.0
908.0
906.0
908.0
910.0
908.0
907.0
905.0
906.0
905.0
908.0
908.0
906.0
905.0
905.0
907.0
909.0
908.0
908.0
908.0
908.0
911.0
914.0
916.0
917.0
917.0
920.0
925.0
927.0
929.0
930.0
931.0
936.0
938.0
944.0
945.0
949.0
950.0
955.0
960.0
963.0
964.0
965.0
969.0
973.0
977.0
982.0
984.0
985.0
985.0
988.0
994.0
996.0
1000.0
1002.0
1001.0
1005.0
1007.0
1008.0
1009.0
1009.0
1008.0
1008.0
1011.0
1013.0
1013.0
1012.0
1009.0
1008.0
1010.0
1013.0
1014.0
1011.0
1007.0
1008.0
1009.0
1009.0
1007.0
1005.0
1002.0
1002.0
1003.0
1003.0
1002.0
999.0
996.0
997.0
999.0
1002.0
1000.0
1000.0
1000.0
1001.0
1004.0
1005.0
1003.0
999.0
997.0
1001.0
1002.0
1009.0
1010.0
1009.0
1008.0
1010.0
1012.0
1016.0
1013.0
1013.0
1010.0
1009.0
1007.0
1010.0
1013.0
1010.0
1009.0
1012.0
1015.0
1014.0
1014.0
1010.0
1004.0
999.0
994.0
989.0
984.0
976.0
973.0
970.0
970.0
966.0
965.0
961.0
962.0
961.0
960.0
961.0
963.0
959.0
959.0
960.0
961.0
964.0
965.0
964.0
961.0
966.0
965.0
967.0
969.0
967.0
965.0
968.0
967.0
969.0
969.0
968.0
967.0
969.0
971.0
975.0
973.0
972.0
969.0
970.0
973.0
973.0
972.0
971.0
970.0
971.0
974.0
975.0
977.0
971.0
968.0
969.0
967.0
965.0
962.0
962.0
965.0
984.0
1011.0
1046.0
1076.0
1099.0
1118.0
1140.0
1167.0
1200.0
1236.0
1264.0
1292.0
1317.0
1334.0
1340.0
1337.0
1331.0
1314.0
1286.0
1249.0
1211.0
1178.0
1146.0
1112.0
1075.0
1035.0
992.0
953.0
921.0
891.0
867.0
852.0
845.0
839.0
839.0
837.0
839.0
843.0
845.0
850.0
857.0
863.0
873.0
882.0
887.0
890.0
894.0
896.0
901.0
908.0
915.0
918.0
916.0
917.0
916.0
917.0
918.0
920.0
916.0
915.0
914.0
915.0
913.0
914.0
911.0
910.0
910.0
911.0
910.0
911.0
909.0
904.0
906.0
905.0
908.0
906.0
906.0
900.0
900.0
903.0
904.0
905.0
902.0
899.0
903.0
903.0
905.0
903.0
904.0
904.0
904.0
906.0
911.0
910.0
912.0
912.0
914.0
918.0
923.0
923.0
926.0
927.0
929.0
935.0
939.0
942.0
947.0
948.0
952.0
955.0
960.0
963.0
965.0
966.0
972.0
975.0
980.0
983.0
985.0
984.0
987.0
993.0
998.0
997.0
999.0
999.0
1002.0
1004.0
1007.0
1005.0
1006.0
1004.0
1006.0
1009.0
1011.0
1011.0
1009.0
1007.0
1008.0
1009.0
1009.0
1011.0
1009.0
1004.0
1002.0
1003.0
1001.0
1003.0
1000.0
1000.0
998.0
998.0
999.0
998.0
996.0
993.0
993.0
994.0
996.0
994.0
994.0
994.0
996.0
1000.0
1001.0
998.0
995.0
993.0
996.0
1001.0
1004.0
1003.0
1003.0
1003.0
1005.0
1007.0
1006.0
1008.0
1004.0
1003.0
1002.0
1002.0
1005.0
1006.0
1004.0
1004.0
1006.0
1009.0
1009.0
1005.0
1002.0
996.0
986.0
984.0
982.0
976.0
970.0
967.0
962.0
962.0
963.0
961.0
958.0
958.0
955.0
958.0
958.0
956.0
956.0
954.0
956.0
957.0
958.0
960.0
958.0
956.0
958.0
961.0
963.0
960.0
962.0
957.0
959.0
962.0
964.0
965.0
963.0
962.0
963.0
963.0
967.0
966.0
966.0
964.0
965.0
966.0
968.0
969.0
966.0
966.0
965.0
967.0
971.0
967.0
967.0
964.0
964.0
964.0
964.0
959.0
956.0
955.0
962.0
976.0
1004.0
1033.0
1064.0
1091.0
1115.0
1137.0
1161.0
1194.0
1223.0
1253.0
1281.0
1310.0
1328.0
1337.0
1334.0
1329.0
1318.0
1292.0
1252.0
1213.0
1174.0
1138.0
1101.0
1066.0
1025.0
977.0
935.0
900.0
873.0
852.0
840.0
830.0
825.0
821.0
826.0
830.0
835.0
834.0
837.0
844.0
852.0
862.0
872.0
877.0
877.0
881.0
888.0
897.0
900.0
906.0
906.0
904.0
908.0
911.0
909.0
907.0
904.0
902.0
903.0
903.0
905.0
901.0
899.0
898.0
897.0
898.0
901.0
900.0
898.0
897.0
895.0
898.0
897.0
896.0
893.0
892.0
892.0
893.0
893.0
893.0
892.0
891.0
892.0
895.0
898.0
898.0
898.0
895.0
898.0
901.0
904.0
906.0
903.0
905.0
908.0
915.0
918.0
921.0
921.0
922.0
925.0
931.0
938.0
940.0
944.0
946.0
951.0
955.0
959.0
961.0
963.0
965.0
968.0
974.0
978.0
979.0
983.0
982.0
985.0
992.0
996.0
998.0
997.0
994.0
998.0
998.0
999.0
1000.0
996.0
996.0
994.0
996.0
997.0
996.0
994.0
989.0
991.0
993.0
994.0
993.0
991.0
988.0
989.0
989.0
988.0
986.0
985.0
981.0
982.0
983.0
985.0
986.0
984.0
985.0
987.0
988.0
990.0
989.0
986.0
988.0
991.0
992.0
994.0
994.0
995.0
994.0
994.0
998.0
999.0
1001.0
998.0
995.0
994.0
995.0
998.0
998.0
998.0
995.0
994.0
1000.0
999.0
995.0
990.0
984.0
977.0
973.0
969.0
967.0
959.0
954.0
952.0
947.0
951.0
949.0
948.0
945.0
942.0
948.0
949.0
949.0
947.0
946.0
945.0
947.0
948.0
950.0
948.0
943.0
947.0
949.0
953.0
952.0
952.0
951.0
950.0
953.0
956.0
953.0
953.0
953.0
953.0
955.0
956.0
958.0
957.0
956.0
957.0
960.0
961.0
959.0
961.0
960.0
960.0
960.0
961.0
962.0
960.0
958.0
957.0
958.0
957.0
956.0
951.0
948.0
953.0
966.0
991.0
1019.0
1049.0
1073.0
1099.0
1120.0
1139.0
1162.0
1191.0
1216.0
1246.0
1275.0
1298.0
1308.0
1306.0
1304.0
1297.0
1288.0
1268.0
1231.0
1193.0
1157.0
1127.0
1096.0
1066.0
1026.0
981.0
940.0
905.0
881.0
860.0
843.0
829.0
822.0
824.0
824.0
831.0
832.0
832.0
832.0
837.0
847.0
858.0
866.0
870.0
872.0
875.0
882.0
888.0
892.0
896.0
897.0
900.0
903.0
908.0
910.0
905.0
905.0
903.0
904.0
904.0
902.0
901.0
896.0
897.0
898.0
898.0
898.0
895.0
890.0
892.0
893.0
896.0
895.0
893.0
888.0
891.0
893.0
893.0
894.0
893.0
889.0
890.0
890.0
892.0
891.0
891.0
889.0
890.0
893.0
897.0
896.0
896.0
894.0
898.0
899.0
903.0
903.0
905.0
904.0
908.0
912.0
915.0
918.0
919.0
922.0
925.0
929.0
935.0
936.0
939.0
938.0
945.0
951.0
952.0
956.0
960.0
961.0
967.0
972.0
974.0
978.0
976.0
978.0
980.0
985.0
986.0
989.0
990.0
988.0
992.0
993.0
994.0
995.0
996.0
991.0
993.0
994.0
996.0
993.0
992.0
988.0
991.0
991.0
993.0
990.0
990.0
985.0
986.0
985.0
987.0
986.0
983.0
982.0
981.0
982.0
983.0
986.0
982.0
980.0
983.0
985.0
987.0
990.0
990.0
986.0
984.0
988.0
991.0
992.0
991.0
990.0
993.0
996.0
999.0
999.0
999.0
996.0
995.0
997.0
997.0
995.0
995.0
990.0
991.0
993.0
995.0
996.0
996.0
995.0
995.0
996.0
994.0
990.0
985.0
976.0
971.0
969.0
968.0
962.0
958.0
951.0
948.0
951.0
954.0
951.0
951.0
948.0
949.0
952.0
951.0
951.0
951.0
947.0
949.0
949.0
952.0
953.0
948.0
948.0
948.0
951.0
954.0
953.0
952.0
949.0
952.0
955.0
958.0
956.0
956.0
955.0
958.0
958.0
957.0
961.0
958.0
957.0
955.0
958.0
959.0
963.0
962.0
958.0
960.0
964.0
964.0
967.0
965.0
964.0
962.0
963.0
962.0
959.0
951.0
947.0
947.0
948.0
953.0
971.0
992.0
1013.0
1037.0
1063.0
1083.0
1099.0
1114.0
1132.0
1160.0
1190.0
1218.0
1244.0
1270.0
1286.0
1297.0
1304.0
1304.0
1305.0
1297.0
1277.0
1246.0
1211.0
1182.0
1152.0
1127.0
1095.0
1065.0
1028.0
991.0
959.0
930.0
902.0
876.0
859.0
848.0
838.0
834.0
832.0
833.0
836.0
838.0
839.0
843.0
848.0
857.0
866.0
876.0
881.0
884.0
884.0
888.0
895.0
903.0
907.0
908.0
910.0
912.0
917.0
917.0
918.0
916.0
913.0
911.0
913.0
913.0
912.0
913.0
911.0
909.0
909.0
911.0
908.0
905.0
904.0
901.0
903.0
903.0
902.0
900.0
896.0
896.0
898.0
900.0
900.0
899.0
898.0
899.0
899.0
901.0
902.0
900.0
898.0
900.0
902.0
906.0
908.0
907.0
904.0
908.0
911.0
916.0
918.0
918.0
922.0
923.0
927.0
931.0
934.0
937.0
935.0
938.0
944.0
949.0
951.0
954.0
956.0
958.0
963.0
968.0
972.0
975.0
974.0
980.0
984.0
989.0
991.0
990.0
991.0
995.0
997.0
1000.0
997.0
1001.0
1000.0
1003.0
1007.0
1007.0
1010.0
1008.0
1004.0
1004.0
1007.0
1006.0
1006.0
1001.0
1001.0
1000.0
1000.0
1001.0
999.0
997.0
991.0
993.0
994.0
995.0
994.0
992.0
989.0
991.0
992.0
998.0
997.0
996.0
997.0
997.0
1000.0
1000.0
999.0
999.0
998.0
1001.0
1004.0
1008.0
1007.0
1007.0
1006.0
1004.0
1008.0
1008.0
1005.0
1001.0
997.0
999.0
1000.0
1004.0
1004.0
1004.0
1000.0
999.0
1000.0
998.0
994.0
988.0
980.0
973.0
972.0
972.0
966.0
961.0
957.0
954.0
954.0
956.0
956.0
954.0
952.0
950.0
952.0
955.0
954.0
953.0
953.0
953.0
954.0
956.0
957.0
954.0
953.0
953.0
954.0
957.0
955.0
955.0
953.0
954.0
956.0
959.0
956.0
957.0
957.0
956.0
958.0
960.0
961.0
962.0
958.0
956.0
962.0
961.0
965.0
963.0
962.0
962.0
963.0
966.0
966.0
966.0
963.0
963.0
966.0
967.0
964.0
961.0
952.0
951.0
953.0
954.0
961.0
969.0
993.0
1020.0
1047.0
1072.0
1092.0
1109.0
1125.0
1151.0
1187.0
1217.0
1243.0
1270.0
1292.0
1307.0
1315.0
1317.0
1315.0
1309.0
1294.0
1264.0
1232.0
1199.0
1168.0
1137.0
1107.0
1076.0
1039.0
999.0
966.0
935.0
909.0
884.0
865.0
852.0
840.0
834.0
827.0
826.0
827.0
829.0
832.0
830.0
829.0
834.0
843.0
853.0
861.0
865.0
869.0
873.0
877.0
883.0
888.0
893.0
895.0
900.0
906.0
909.0
911.0
910.0
905.0
910.0
909.0
912.0
910.0
908.0
905.0
905.0
905.0
905.0
904.0
903.0
899.0
900.0
900.0
899.0
900.0
897.0
894.0
894.0
894.0
897.0
896.0
893.0
890.0
889.0
892.0
893.0
893.0
892.0
889.0
890.0
893.0
895.0
896.0
893.0
893.0
896.0
900.0
903.0
903.0
904.0
905.0
906.0
909.0
914.0
915.0
916.0
916.0
919.0
925.0
930.0
930.0
932.0
932.0
937.0
942.0
944.0
951.0
950.0
951.0
954.0
960.0
962.0
966.0
967.0
969.0
973.0
975.0
982.0
984.0
986.0
988.0
990.0
991.0
998.0
997.0
998.0
998.0
999.0
1002.0
1004.0
1004.0
1003.0
1001.0
1000.0
1003.0
1004.0
1004.0
1003.0
999.0
998.0
1002.0
1001.0
999.0
995.0
993.0
991.0
991.0
992.0
990.0
988.0
985.0
984.0
986.0
990.0
993.0
992.0
992.0
993.0
995.0
997.0
995.0
993.0
993.0
995.0
996.0
999.0
1001.0
1000.0
999.0
1000.0
1003.0
1004.0
1002.0
1003.0
999.0
998.0
999.0
1000.0
1000.0
998.0
996.0
998.0
1000.0
999.0
997.0
993.0
986.0
979.0
975.0
971.0
966.0
960.0
956.0
953.0
953.0
954.0
954.0
952.0
949.0
952.0
950.0
952.0
952.0
950.0
950.0
951.0
952.0
955.0
953.0
953.0
952.0
952.0
956.0
957.0
956.0
954.0
952.0
953.0
954.0
956.0
955.0
953.0
951.0
954.0
954.0
959.0
957.0
956.0
955.0
957.0
959.0
962.0
962.0
961.0
960.0
960.0
964.0
967.0
966.0
963.0
961.0
961.0
961.0
957.0
955.0
952.0
948.0
955.0
974.0
1001.0
1029.0
1054.0
1079.0
1099.0
1118.0
1140.0
1166.0
1193.0
1221.0
1252.0
1279.0
1302.0
1314.0
1320.0
1315.0
1317.0
1313.0
1305.0
1279.0
1242.0
1207.0
1176.0
1150.0
1119.0
1085.0
1044.0
1000.0
958.0
928.0
906.0
877.0
855.0
839.0
831.0
824.0
827.0
828.0
830.0
827.0
828.0
833.0
840.0
845.0
854.0
858.0
865.0
868.0
875.0
879.0
882.0
885.0
891.0
897.0
901.0
904.0
906.0
906.0
905.0
909.0
911.0
911.0
908.0
907.0
906.0
907.0
907.0
905.0
904.0
901.0
902.0
902.0
903.0
902.0
898.0
896.0
895.0
898.0
899.0
897.0
894.0
892.0
890.0
890.0
892.0
892.0
890.0
888.0
888.0
890.0
892.0
892.0
889.0
889.0
888.0
891.0
897.0
896.0
896.0
895.0
898.0
902.0
906.0
907.0
908.0
909.0
911.0
914.0
918.0
921.0
922.0
923.0
925.0
930.0
935.0
939.0
940.0
942.0
944.0
947.0
950.0
954.0
956.0
957.0
958.0
965.0
969.0
973.0
973.0
973.0
976.0
980.0
985.0
985.0
985.0
987.0
989.0
995.0
994.0
995.0
996.0
998.0
1000.0
1002.0
1005.0
1003.0
1000.0
1000.0
1000.0
1000.0
1002.0
1002.0
999.0
997.0
995.0
995.0
995.0
994.0
992.0
990.0
988.0
988.0
988.0
988.0
984.0
985.0
984.0
988.0
992.0
991.0
990.0
989.0
989.0
993.0
995.0
996.0
994.0
995.0
998.0
1000.0
1002.0
1004.0
1002.0
1001.0
998.0
1000.0
1000.0
999.0
996.0
997.0
997.0
1000.0
1002.0
1003.0
1001.0
998.0
993.0
992.0
987.0
980.0
972.0
967.0
961.0
961.0
960.0
954.0
953.0
948.0
948.0
949.0
951.0
949.0
948.0
948.0
947.0
950.0
953.0
952.0
951.0
950.0
947.0
953.0
953.0
953.0
954.0
952.0
952.0
952.0
955.0
952.0
951.0
950.0
953.0
953.0
955.0
956.0
953.0
951.0
954.0
955.0
957.0
956.0
957.0
954.0
956.0
960.0
961.0
963.0
961.0
959.0
959.0
961.0
965.0
963.0
963.0
959.0
958.0
955.0
954.0
950.0
947.0
949.0
959.0
975.0
1001.0
1026.0
1054.0
1079.0
1098.0
1117.0
1141.0
1169.0
1199.0
1227.0
1254.0
1283.0
1306.0
1318.0
1323.0
1325.0
1327.0
1318.0
1304.0
1271.0
1232.0
1197.0
1165.0
1137.0
1108.0
1069.0
1029.0
986.0
946.0
913.0
890.0
865.0
844.0
831.0
823.0
823.0
822.0
823.0
825.0
824.0
824.0
828.0
837.0
842.0
850.0
854.0
860.0
866.0
872.0
876.0
877.0
880.0
888.0
893.0
896.0
898.0
901.0
901.0
901.0
906.0
907.0
907.0
903.0
903.0
901.0
905.0
906.0
903.0
900.0
899.0
897.0
898.0
902.0
899.0
896.0
893.0
894.0
894.0
897.0
895.0
893.0
890.0
889.0
892.0
892.0
892.0
890.0
886.0
885.0
886.0
887.0
890.0
888.0
888.0
888.0
891.0
893.0
892.0
894.0
893.0
894.0
898.0
903.0
902.0
907.0
906.0
910.0
914.0
918.0
918.0
921.0
922.0
924.0
929.0
934.0
937.0
937.0
939.0
942.0
946.0
949.0
955.0
955.0
955.0
957.0
963.0
967.0
970.0
970.0
971.0
973.0
978.0
983.0
982.0
984.0
983.0
987.0
991.0
996.0
999.0
997.0
995.0
998.0
999.0
1001.0
999.0
998.0
1000.0
999.0
996.0
1001.0
998.0
998.0
994.0
995.0
996.0
994.0
993.0
991.0
990.0
985.0
987.0
990.0
988.0
984.0
982.0
982.0
987.0
987.0
988.0
986.0
987.0
988.0
986.0
988.0
986.0
988.0
988.0
988.0
993.0
997.0
998.0
997.0
997.0
997.0
999.0
1000.0
1002.0
997.0
993.0
992.0
994.0
996.0
999.0
999.0
997.0
997.0
998.0
997.0
992.0
982.0
972.0
964.0
961.0
959.0
954.0
948.0
945.0
943.0
944.0
946.0
946.0
944.0
942.0
943.0
946.0
950.0
949.0
947.0
944.0
945.0
947.0
946.0
948.0
946.0
944.0
946.0
946.0
949.0
951.0
947.0
947.0
949.0
948.0
953.0
951.0
950.0
947.0
947.0
950.0
953.0
953.0
952.0
947.0
951.0
952.0
956.0
956.0
954.0
955.0
955.0
956.0
958.0
958.0
954.0
951.0
950.0
946.0
948.0
949.0
955.0
974.0
1002.0
1031.0
1062.0
1087.0
1103.0
1119.0
1142.0
1175.0
1206.0
1235.0
1262.0
1288.0
1310.0
1325.0
1330.0
1329.0
1324.0
1313.0
1292.0
1254.0
1214.0
1177.0
1143.0
1109.0
1071.0
1034.0
992.0
950.0
914.0
885.0
858.0
837.0
826.0
817.0
812.0
806.0
808.0
812.0
818.0
816.0
818.0
820.0
828.0
840.0
850.0
857.0
859.0
860.0
863.0
870.0
878.0
881.0
883.0
886.0
887.0
891.0
895.0
896.0
894.0
892.0
892.0
894.0
896.0
895.0
892.0
890.0
888.0
888.0
892.0
887.0
887.0
884.0
882.0
884.0
886.0
886.0
884.0
880.0
879.0
880.0
884.0
883.0
882.0
880.0
878.0
877.0
879.0
878.0
878.0
875.0
874.0
877.0
878.0
880.0
879.0
880.0
880.0
884.0
887.0
888.0
889.0
892.0
895.0
896.0
901.0
900.0
902.0
899.0
905.0
911.0
917.0
919.0
919.0
921.0
923.0
928.0
932.0
935.0
938.0
937.0
942.0
946.0
952.0
953.0
954.0
955.0
959.0
963.0
967.0
970.0
970.0
971.0
973.0
975.0
980.0
981.0
980.0
980.0
978.0
984.0
987.0
988.0
987.0
986.0
986.0
988.0
990.0
992.0
987.0
985.0
984.0
986.0
986.0
985.0
983.0
980.0
979.0
981.0
982.0
979.0
978.0
974.0
973.0
974.0
977.0
976.0
975.0
973.0
973.0
976.0
978.0
978.0
977.0
974.0
972.0
975.0
977.0
977.0
976.0
976.0
979.0
988.0
990.0
990.0
989.0
989.0
988.0
988.0
987.0
988.0
985.0
986.0
985.0
987.0
987.0
988.0
986.0
985.0
981.0
981.0
982.0
973.0
966.0
959.0
953.0
952.0
948.0
942.0
939.0
935.0
936.0
938.0
936.0
936.0
936.0
934.0
935.0
938.0
940.0
939.0
940.0
936.0
937.0
941.0
942.0
943.0
943.0
938.0
940.0
941.0
945.0
943.0
942.0
942.0
942.0
944.0
948.0
946.0
942.0
940.0
942.0
944.0
946.0
947.0
943.0
941.0
943.0
947.0
948.0
948.0
946.0
948.0
949.0
952.0
953.0
951.0
949.0
944.0
941.0
940.0
946.0
947.0
957.0
980.0
1008.0
1037.0
1067.0
1091.0
1111.0
1125.0
1147.0
1175.0
1203.0
1229.0
1254.0
1280.0
1296.0
1308.0
1313.0
1308.0
1301.0
1286.0
1257.0
1220.0
1185.0
1150.0
1117.0
1086.0
1051.0
1015.0
971.0
933.0
900.0
872.0
851.0
836.0
828.0
820.0
817.0
815.0
816.0
821.0
826.0
824.0
826.0
829.0
842.0
851.0
862.0
864.0
866.0
868.0
871.0
880.0
886.0
889.0
891.0
893.0
894.0
897.0
900.0
901.0
899.0
897.0
896.0
896.0
900.0
897.0
895.0
894.0
891.0
894.0
894.0
893.0
892.0
892.0
889.0
891.0
893.0
891.0
890.0
889.0
887.0
888.0
888.0
889.0
887.0
885.0
885.0
888.0
888.0
886.0
886.0
883.0
881.0
884.0
887.0
887.0
886.0
885.0
889.0
894.0
896.0
897.0
900.0
902.0
904.0
907.0
912.0
913.0
914.0
917.0
918.0
923.0
928.0
930.0
932.0
934.0
938.0
941.0
946.0
949.0
951.0
952.0
955.0
959.0
964.0
968.0
969.0
969.0
971.0
972.0
980.0
979.0
980.0
982.0
982.0
984.0
985.0
990.0
988.0
988.0
986.0
989.0
993.0
994.0
990.0
990.0
988.0
992.0
994.0
990.0
991.0
990.0
985.0
986.0
988.0
987.0
987.0
984.0
981.0
983.0
984.0
983.0
984.0
985.0
985.0
989.0
989.0
990.0
986.0
984.0
984.0
985.0
990.0
989.0
990.0
991.0
990.0
994.0
997.0
997.0
997.0
999.0
996.0
996.0
999.0
995.0
993.0
995.0
994.0
995.0
999.0
997.0
996.0
995.0
991.0
993.0
990.0
981.0
973.0
965.0
960.0
958.0
956.0
951.0
947.0
944.0
941.0
943.0
945.0
944.0
942.0
940.0
941.0
942.0
945.0
944.0
945.0
944.0
943.0
945.0
949.0
948.0
947.0
948.0
945.0
947.0
952.0
951.0
952.0
948.0
949.0
952.0
954.0
952.0
950.0
949.0
950.0
952.0
955.0
955.0
953.0
951.0
953.0
952.0
954.0
954.0
953.0
950.0
952.0
955.0
956.0
955.0
954.0
953.0
947.0
945.0
943.0
941.0
944.0
954.0
976.0
1006.0
1035.0
1061.0
1085.0
1102.0
1125.0
1157.0
1192.0
1226.0
1254.0
1281.0
1298.0
1312.0
1315.0
1314.0
1309.0
1286.0
1248.0
1207.0
1170.0
1137.0
1103.0
1066.0
