# Simple Text Format
# Sampling Rate (Hz):= 360.00
# Resolution:= 12
# Labels:= ECG
1020.0
1020.0
1019.0
1026.0
1028.0
1031.0
1028.0
1029.0
1029.0
1032.0
1033.0
1033.0
1034.0
1027.0
1030.0
1031.0
1033.0
1033.0
1029.0
1028.0
1026.0
1026.0
1029.0
1026.0
1026.0
1021.0
1020.0
1022.0
1022.0
1023.0
1021.0
1019.0
1019.0
1025.0
1025.0
1027.0
1025.0
1024.0
1023.0
1026.0
1027.0
1026.0
1023.0
1019.0
1019.0
1022.0
1021.0
1025.0
1026.0
1025.0
1026.0
1029.0
1030.0
1029.0
1027.0
1024.0
1026.0
1027.0
1026.0
1025.0
1024.0
1022.0
1024.0
1025.0
1028.0
1028.0
1030.0
1026.0
1026.0
1023.0
1018.0
1013.0
1005.0
1001.0
998.0
999.0
994.0
988.0
986.0
981.0
982.0
981.0
982.0
979.0
978.0
975.0
976.0
976.0
978.0
979.0
976.0
974.0
975.0
976.0
976.0
981.0
977.0
975.0
977.0
980.0
981.0
982.0
981.0
977.0
978.0
980.0
983.0
983.0
983.0
979.0
980.0
983.0
987.0
988.0
985.0
984.0
985.0
988.0
989.0
992.0
989.0
984.0
986.0
989.0
991.0
990.0
988.0
986.0
985.0
987.0
987.0
982.0
978.0
973.0
971.0
973.0
981.0
993.0
1015.0
1038.0
1066.0
1094.0
1118.0
1134.0
1149.0
1171.0
1199.0
1230.0
1258.0
1283.0
1305.0
1323.0
1335.0
1343.0
1345.0
1342.0
1331.0
1313.0
1278.0
1241.0
1212.0
1183.0
1154.0
1122.0
1085.0
1048.0
1007.0
969.0
937.0
907.0
881.0
866.0
856.0
851.0
848.0
846.0
847.0
851.0
851.0
851.0
856.0
862.0
874.0
884.0
894.0
898.0
901.0
901.0
907.0
916.0
923.0
927.0
929.0
930.0
929.0
933.0
936.0
935.0
932.0
931.0
929.0
932.0
930.0
927.0
927.0
923.0
926.0
927.0
924.0
925.0
922.0
918.0
920.0
921.0
922.0
920.0
917.0
914.0
916.0
917.0
919.0
917.0
917.0
917.0
915.0
915.0
920.0
920.0
918.0
917.0
916.0
919.0
921.0
924.0
923.0
920.0
923.0
927.0
931.0
934.0
934.0
933.0
937.0
940.0
944.0
950.0
951.0
952.0
955.0
959.0
964.0
966.0
967.0
968.0
974.0
979.0
984.0
986.0
988.0
988.0
993.0
999.0
1003.0
1007.0
1008.0
1007.0
1009.0
1014.0
1017.0
1017.0
1019.0
1018.0
1021.0
1024.0
1026.0
1026.0
1022.0
1019.0
1025.0
1025.0
1029.0
1028.0
1024.0
1022.0
1023.0
1022.0
1023.0
1020.0
1017.0
1013.0
1014.0
1018.0
1017.0
1015.0
1015.0
1011.0
1013.0
1016.0
1017.0
1019.0
1016.0
1017.0
1015.0
1017.0
1018.0
1017.0
1015.0
1013.0
1012.0
1013.0
1010.0
1011.0
1009.0
1010.0
1013.0
1018.0
1021.0
1020.0
1018.0
1017.0
1018.0
1019.0
1020.0
1018.0
1015.0
1014.0
1016.0
1018.0
1019.0
1020.0
1019.0
1020.0
1020.0
1019.0
1017.0
1012.0
1005.0
999.0
993.0
991.0
988.0
983.0
977.0
974.0
971.0
974.0
973.0
971.0
969.0
966.0
967.0
969.0
970.0
968.0
968.0
966.0
970.0
969.0
970.0
972.0
971.0
969.0
968.0
971.0
975.0
975.0
976.0
972.0
973.0
975.0
978.0
978.0
978.0
978.0
977.0
980.0
984.0
984.0
981.0
979.0
980.0
982.0
984.0
984.0
984.0
980.0
980.0
982.0
983.0
984.0
983.0
980.0
983.0
982.0
984.0
980.0
975.0
972.0
973.0
977.0
992.0
1013.0
1039.0
1066.0
1098.0
1123.0
1145.0
1162.0
1182.0
1209.0
1238.0
1267.0
1295.0
1318.0
1331.0
1335.0
1335.0
1334.0
1331.0
1318.0
1297.0
1258.0
1224.0
1190.0
1164.0
1137.0
1107.0
1072.0
1031.0
993.0
962.0
928.0
900.0
877.0
862.0
850.0
846.0
843.0
842.0
841.0
847.0
849.0
852.0
855.0
861.0
870.0
877.0
885.0
890.0
897.0
897.0
901.0
904.0
913.0
920.0
922.0
924.0
923.0
925.0
927.0
928.0
926.0
926.0
924.0
923.0
925.0
925.0
925.0
921.0
919.0
919.0
919.0
922.0
921.0
920.0
915.0
918.0
916.0
917.0
918.0
916.0
914.0
915.0
919.0
919.0
918.0
917.0
914.0
915.0
918.0
920.0
921.0
920.0
918.0
919.0
921.0
925.0
925.0
927.0
927.0
929.0
933.0
938.0
938.0
939.0
940.0
944.0
951.0
953.0
957.0
958.0
960.0
967.0
970.0
976.0
980.0
981.0
981.0
986.0
991.0
996.0
999.0
1000.0
1001.0
1006.0
1012.0
1013.0
1016.0
1017.0
1014.0
1015.0
1019.0
1022.0
1021.0
1021.0
1021.0
1018.0
1023.0
1023.0
1023.0
1019.0
1016.0
1015.0
1017.0
1019.0
1020.0
1015.0
1012.0
1010.0
1014.0
1013.0
1012.0
1015.0
1009.0
1010.0
1014.0
1017.0
1016.0
1017.0
1011.0
1013.0
1013.0
1013.0
1011.0
1008.0
1005.0
1006.0
1008.0
1011.0
1013.0
1015.0
1015.0
1018.0
1020.0
1020.0
1019.0
1018.0
1017.0
1015.0
1014.0
1014.0
1015.0
1015.0
1015.0
1020.0
1022.0
1023.0
1022.0
1017.0
1007.0
1004.0
998.0
994.0
991.0
984.0
977.0
971.0
969.0
973.0
971.0
969.0
966.0
967.0
967.0
969.0
970.0
968.0
967.0
966.0
971.0
972.0
972.0
970.0
970.0
971.0
974.0
975.0
974.0
974.0
973.0
975.0
976.0
977.0
977.0
976.0
976.0
977.0
980.0
980.0
981.0
981.0
978.0
979.0
980.0
981.0
982.0
983.0
981.0
982.0
984.0
985.0
987.0
984.0
980.0
982.0
976.0
974.0
973.0
976.0
983.0
1003.0
1037.0
1067.0
1095.0
1116.0
1133.0
1147.0
1172.0
1199.0
1223.0
1248.0
1266.0
1279.0
1291.0
1290.0
1286.0
1280.0
1268.0
1249.0
1219.0
1189.0
1162.0
1140.0
1114.0
1089.0
1057.0
1023.0
990.0
956.0
929.0
903.0
886.0
872.0
863.0
856.0
855.0
857.0
861.0
864.0
863.0
867.0
871.0
881.0
889.0
898.0
901.0
905.0
905.0
910.0
918.0
925.0
928.0
929.0
928.0
932.0
933.0
936.0
935.0
934.0
931.0
932.0
934.0
936.0
936.0
933.0
928.0
932.0
932.0
933.0
932.0
929.0
926.0
927.0
930.0
931.0
931.0
927.0
926.0
929.0
928.0
929.0
930.0
930.0
925.0
928.0
928.0
927.0
931.0
930.0
926.0
929.0
932.0
935.0
937.0
936.0
936.0
939.0
944.0
949.0
951.0
952.0
950.0
955.0
960.0
963.0
967.0
970.0
969.0
975.0
981.0
983.0
991.0
992.0
993.0
996.0
1002.0
1006.0
1007.0
1009.0
1008.0
1011.0
1016.0
1020.0
1022.0
1021.0
1021.0
1021.0
1026.0
1029.0
1029.0
1028.0
1030.0
1030.0
1031.0
1035.0
1033.0
1031.0
1026.0
1028.0
1031.0
1031.0
1031.0
1029.0
1025.0
1026.0
1027.0
1027.0
1026.0
1023.0
1022.0
1021.0
1023.0
1023.0
1024.0
1023.0
1024.0
1023.0
1026.0
1026.0
1027.0
1024.0
1022.0
1023.0
1027.0
1029.0
1029.0
1031.0
1031.0
1034.0
1036.0
1037.0
1039.0
1035.0
1034.0
1034.0
1033.0
1035.0
1036.0
1035.0
1034.0
1036.0
1038.0
1040.0
1038.0
1034.0
1024.0
1018.0
1012.0
1009.0
1003.0
997.0
990.0
984.0
984.0
987.0
986.0
986.0
980.0
978.0
983.0
984.0
985.0
986.0
981.0
985.0
985.0
988.0
987.0
987.0
985.0
986.0
989.0
992.0
994.0
989.0
991.0
992.0
993.0
996.0
994.0
991.0
990.0
989.0
992.0
994.0
995.0
993.0
991.0
992.0
995.0
997.0
999.0
997.0
995.0
997.0
998.0
998.0
1000.0
996.0
992.0
988.0
984.0
984.0
988.0
999.0
1020.0
1051.0
1081.0
1108.0
1128.0
1142.0
1163.0
1194.0
1227.0
1258.0
1284.0
1302.0
1315.0
1317.0
1321.0
1316.0
1308.0
1287.0
1250.0
1214.0
1186.0
1166.0
1138.0
1105.0
1064.0
1024.0
990.0
961.0
935.0
910.0
889.0
877.0
874.0
873.0
874.0
871.0
871.0
873.0
876.0
882.0
891.0
896.0
902.0
909.0
912.0
917.0
921.0
927.0
929.0
934.0
940.0
943.0
946.0
944.0
942.0
944.0
944.0
947.0
948.0
945.0
941.0
941.0
943.0
944.0
943.0
940.0
938.0
939.0
940.0
941.0
939.0
938.0
936.0
934.0
936.0
936.0
935.0
933.0
928.0
930.0
932.0
935.0
935.0
932.0
932.0
929.0
933.0
934.0
936.0
936.0
935.0
936.0
940.0
944.0
947.0
946.0
947.0
950.0
956.0
961.0
963.0
965.0
964.0
968.0
975.0
981.0
984.0
984.0
985.0
989.0
992.0
997.0
1002.0
1000.0
999.0
1003.0
1007.0
1012.0
1014.0
1016.0
1017.0
1020.0
1025.0
1027.0
1030.0
1030.0
1028.0
1031.0
1034.0
1034.0
1037.0
1036.0
1034.0
1034.0
1036.0
1037.0
1038.0
1036.0
1037.0
1036.0
1036.0
1038.0
1038.0
1034.0
1031.0
1031.0
1031.0
1031.0
1030.0
1027.0
1023.0
1019.0
1022.0
1025.0
1024.0
1023.0
1022.0
1025.0
1027.0
1027.0
1028.0
1027.0
1026.0
1026.0
1026.0
1030.0
1029.0
1028.0
1030.0
1031.0
1035.0
1039.0
1040.0
1037.0
1038.0
1039.0
1037.0
1037.0
1036.0
1033.0
1031.0
1034.0
1036.0
1036.0
1037.0
1037.0
1034.0
1030.0
1028.0
1025.0
1022.0
1014.0
1004.0
1002.0
999.0
997.0
992.0
987.0
985.0
984.0
985.0
986.0
986.0
984.0
983.0
983.0
985.0
986.0
988.0
987.0
987.0
988.0
990.0
993.0
992.0
992.0
987.0
991.0
991.0
994.0
992.0
991.0
988.0
988.0
989.0
992.0
992.0
990.0
990.0
989.0
992.0
992.0
993.0
992.0
991.0
992.0
994.0
994.0
995.0
996.0
995.0
996.0
998.0
1002.0
1001.0
999.0
995.0
995.0
993.0
990.0
989.0
988.0
987.0
1000.0
1018.0
1049.0
1072.0
1098.0
1117.0
1136.0
1153.0
1178.0
1209.0
1236.0
1262.0
1291.0
1313.0
1331.0
1339.0
1337.0
1334.0
1325.0
1308.0
1281.0
1242.0
1209.0
1180.0
1154.0
1131.0
1103.0
1066.0
1028.0
993.0
963.0
941.0
917.0
894.0
877.0
867.0
866.0
867.0
865.0
866.0
867.0
864.0
870.0
878.0
887.0
896.0
902.0
904.0
909.0
912.0
919.0
926.0
929.0
931.0
935.0
939.0
946.0
946.0
944.0
939.0
941.0
946.0
945.0
946.0
941.0
941.0
939.0
943.0
944.0
942.0
940.0
936.0
937.0
937.0
940.0
938.0
936.0
932.0
934.0
932.0
933.0
929.0
930.0
928.0
929.0
930.0
931.0
930.0
931.0
929.0
929.0
932.0
933.0
937.0
933.0
933.0
936.0
939.0
942.0
944.0
944.0
944.0
947.0
950.0
957.0
957.0
959.0
958.0
962.0
965.0
970.0
973.0
973.0
975.0
980.0
981.0
984.0
987.0
989.0
989.0
992.0
998.0
1001.0
1004.0
1007.0
1006.0
1011.0
1013.0
1017.0
1017.0
1018.0
1020.0
1020.0
1025.0
1029.0
1031.0
1032.0
1030.0
1033.0
1035.0
1040.0
1038.0
1039.0
1037.0
1039.0
1040.0
1040.0
1042.0
1040.0
1038.0
1037.0
1036.0
1038.0
1038.0
1034.0
1027.0
1029.0
1027.0
1029.0
1029.0
1025.0
1021.0
1023.0
1022.0
1021.0
1023.0
1022.0
1019.0
1021.0
1027.0
1031.0
1029.0
1030.0
1026.0
1026.0
1027.0
1028.0
1029.0
1027.0
1028.0
1027.0
1032.0
1035.0
1038.0
1038.0
1038.0
1037.0
1038.0
1039.0
1037.0
1034.0
1030.0
1028.0
1031.0
1031.0
1034.0
1032.0
1032.0
1036.0
1034.0
1035.0
1032.0
1029.0
1021.0
1016.0
1013.0
1006.0
1004.0
995.0
991.0
990.0
987.0
987.0
988.0
986.0
984.0
985.0
986.0
989.0
988.0
987.0
985.0
985.0
987.0
988.0
988.0
986.0
984.0
986.0
988.0
990.0
987.0
987.0
985.0
987.0
990.0
991.0
991.0
988.0
988.0
989.0
991.0
994.0
993.0
992.0
988.0
988.0
993.0
995.0
995.0
995.0
995.0
995.0
998.0
998.0
1002.0
999.0
999.0
995.0
997.0
995.0
993.0
985.0
978.0
978.0
984.0
997.0
1022.0
1051.0
1078.0
1106.0
1129.0
1147.0
1171.0
1197.0
1225.0
1257.0
1285.0
1313.0
1335.0
1343.0
1344.0
1342.0
1337.0
1325.0
1296.0
1260.0
1223.0
1196.0
1171.0
1147.0
1114.0
1074.0
1031.0
990.0
964.0
937.0
912.0
885.0
868.0
860.0
860.0
858.0
860.0
861.0
859.0
861.0
866.0
874.0
883.0
892.0
898.0
901.0
904.0
913.0
916.0
922.0
925.0
928.0
934.0
939.0
941.0
940.0
941.0
942.0
942.0
944.0
942.0
941.0
937.0
938.0
937.0
938.0
937.0
933.0
932.0
932.0
930.0
931.0
930.0
925.0
924.0
924.0
924.0
924.0
923.0
922.0
921.0
922.0
921.0
926.0
927.0
923.0
921.0
923.0
922.0
927.0
930.0
931.0
929.0
930.0
936.0
940.0
939.0
940.0
940.0
942.0
943.0
951.0
951.0
953.0
953.0
957.0
957.0
963.0
966.0
966.0
969.0
971.0
977.0
981.0
984.0
985.0
985.0
989.0
992.0
997.0
999.0
1001.0
1002.0
1004.0
1007.0
1011.0
1017.0
1018.0
1018.0
1021.0
1025.0
1030.0
1029.0
1030.0
1029.0
1030.0
1033.0
1035.0
1035.0
1034.0
1031.0
1029.0
1030.0
1031.0
1031.0
1029.0
1025.0
1024.0
1024.0
1025.0
1024.0
1021.0
1019.0
1020.0
1019.0
1019.0
1016.0
1013.0
1010.0
1012.0
1012.0
1012.0
1015.0
1014.0
1015.0
1017.0
1019.0
1022.0
1022.0
1021.0
1020.0
1018.0
1021.0
1022.0
1025.0
1020.0
1021.0
1023.0
1024.0
1026.0
1026.0
1027.0
1024.0
1022.0
1027.0
1029.0
1027.0
1024.0
1021.0
1023.0
1027.0
1029.0
1026.0
1027.0
1024.0
1026.0
1025.0
1026.0
1022.0
1016.0
1009.0
1002.0
1002.0
999.0
996.0
990.0
984.0
983.0
981.0
983.0
981.0
977.0
976.0
976.0
977.0
979.0
977.0
977.0
974.0
975.0
975.0
979.0
979.0
977.0
976.0
978.0
978.0
980.0
981.0
979.0
976.0
975.0
979.0
982.0
980.0
979.0
978.0
979.0
981.0
984.0
984.0
983.0
982.0
984.0
986.0
988.0
986.0
988.0
987.0
986.0
988.0
990.0
991.0
990.0
988.0
987.0
989.0
989.0
989.0
987.0
982.0
977.0
976.0
978.0
978.0
987.0
1003.0
1031.0
1063.0
1091.0
1114.0
1136.0
1151.0
1169.0
1192.0
1224.0
1250.0
1277.0
1302.0
1321.0
1337.0
1341.0
1338.0
1335.0
1323.0
1298.0
1262.0
1223.0
1188.0
1155.0
1123.0
1089.0
1048.0
1006.0
967.0
936.0
907.0
880.0
862.0
855.0
851.0
846.0
844.0
845.0
849.0
852.0
855.0
858.0
865.0
874.0
886.0
894.0
897.0
901.0
904.0
909.0
916.0
921.0
925.0
925.0
925.0
928.0
931.0
935.0
932.0
927.0
926.0
925.0
927.0
925.0
925.0
925.0
921.0
919.0
921.0
922.0
921.0
920.0
917.0
915.0
915.0
919.0
917.0
917.0
915.0
912.0
917.0
916.0
919.0
916.0
917.0
917.0
919.0
919.0
923.0
921.0
922.0
922.0
924.0
928.0
927.0
927.0
927.0
928.0
933.0
938.0
939.0
942.0
943.0
943.0
949.0
955.0
959.0
958.0
959.0
961.0
970.0
975.0
977.0
979.0
980.0
984.0
989.0
997.0
998.0
999.0
1001.0
1005.0
1009.0
1013.0
1013.0
1018.0
1016.0
1018.0
1020.0
1022.0
1022.0
1017.0
1018.0
1020.0
1020.0
1024.0
1023.0
1021.0
1019.0
1017.0
1019.0
1021.0
1019.0
1016.0
1014.0
1013.0
1013.0
1016.0
1012.0
1012.0
1009.0
1007.0
1011.0
1010.0
1010.0
1010.0
1007.0
1007.0
1005.0
1009.0
1009.0
1009.0
1009.0
1007.0
1013.0
1013.0
1012.0
1010.0
1005.0
1008.0
1007.0
1010.0
1010.0
1009.0
1010.0
1011.0
1016.0
1021.0
1020.0
1020.0
1019.0
1019.0
1022.0
1023.0
1020.0
1018.0
1014.0
1016.0
1020.0
1021.0
1021.0
1021.0
1020.0
1022.0
1023.0
1023.0
1018.0
1014.0
1006.0
1001.0
998.0
997.0
992.0
985.0
979.0
975.0
974.0
975.0
975.0
974.0
971.0
966.0
968.0
972.0
972.0
972.0
970.0
968.0
972.0
973.0
972.0
971.0
973.0
973.0
974.0
976.0
975.0
974.0
973.0
972.0
976.0
978.0
977.0
978.0
977.0
977.0
982.0
980.0
983.0
981.0
979.0
981.0
980.0
983.0
982.0
981.0
980.0
981.0
984.0
984.0
983.0
984.0
982.0
982.0
985.0
987.0
986.0
982.0
980.0
975.0
974.0
977.0
980.0
986.0
1002.0
1027.0
1057.0
1087.0
1109.0
1132.0
1142.0
1160.0
1183.0
1209.0
1230.0
1253.0
1271.0
1285.0
1296.0
1296.0
1290.0
1284.0
1273.0
1252.0
1222.0
1193.0
1164.0
1138.0
1116.0
1089.0
1058.0
1022.0
983.0
950.0
923.0
901.0
882.0
873.0
864.0
860.0
855.0
858.0
860.0
865.0
865.0
866.0
873.0
880.0
891.0
900.0
902.0
905.0
905.0
907.0
917.0
922.0
926.0
929.0
929.0
932.0
933.0
936.0
936.0
936.0
932.0
935.0
937.0
937.0
935.0
935.0
931.0
928.0
930.0
932.0
929.0
930.0
927.0
928.0
930.0
931.0
931.0
928.0
926.0
927.0
928.0
930.0
928.0
925.0
923.0
923.0
925.0
926.0
926.0
927.0
927.0
927.0
928.0
934.0
934.0
932.0
933.0
936.0
941.0
944.0
946.0
949.0
947.0
951.0
955.0
960.0
965.0
965.0
967.0
971.0
978.0
980.0
983.0
987.0
988.0
989.0
996.0
998.0
1000.0
1002.0
1003.0
1004.0
1011.0
1012.0
1015.0
1016.0
1015.0
1017.0
1021.0
1023.0
1026.0
1025.0
1026.0
1025.0
1026.0
1029.0
1028.0
1027.0
1026.0
1028.0
1029.0
1031.0
1031.0
1028.0
1027.0
1027.0
1028.0
1029.0
1028.0
1027.0
1025.0
1022.0
1023.0
1026.0
1023.0
1021.0
1017.0
1018.0
1020.0
1017.0
1017.0
1014.0
1013.0
1010.0
1013.0
1017.0
1018.0
1018.0
1017.0
1018.0
1019.0
1024.0
1022.0
1022.0
1020.0
1022.0
1024.0
1029.0
1031.0
1032.0
1029.0
1030.0
1033.0
1037.0
1037.0
1037.0
1035.0
1032.0
1032.0
1034.0
1033.0
1035.0
1034.0
1035.0
1037.0
1039.0
1036.0
1034.0
1031.0
1028.0
1024.0
1020.0
1015.0
1007.0
1003.0
998.0
996.0
993.0
991.0
987.0
987.0
985.0
986.0
987.0
986.0
982.0
982.0
981.0
984.0
984.0
984.0
985.0
984.0
984.0
988.0
989.0
986.0
989.0
988.0
987.0
990.0
992.0
991.0
990.0
989.0
988.0
991.0
990.0
990.0
988.0
988.0
987.0
990.0
992.0
995.0
990.0
989.0
988.0
990.0
993.0
996.0
991.0
992.0
992.0
995.0
997.0
995.0
995.0
997.0
997.0
997.0
1001.0
999.0
996.0
994.0
988.0
987.0
987.0
990.0
993.0
1008.0
1029.0
1061.0
1090.0
1110.0
1128.0
1142.0
1164.0
1194.0
1223.0
1248.0
1271.0
1291.0
1306.0
1313.0
1315.0
1315.0
1306.0
1294.0
1270.0
1236.0
1209.0
1182.0
1157.0
1133.0
1105.0
1070.0
1038.0
1001.0
972.0
945.0
922.0
902.0
891.0
884.0
879.0
875.0
874.0
878.0
879.0
879.0
879.0
882.0
890.0
901.0
907.0
915.0
917.0
918.0
923.0
931.0
939.0
942.0
942.0
944.0
945.0
947.0
951.0
950.0
948.0
946.0
947.0
950.0
948.0
948.0
947.0
945.0
944.0
945.0
947.0
945.0
943.0
940.0
939.0
941.0
941.0
940.0
938.0
934.0
932.0
937.0
937.0
937.0
935.0
936.0
933.0
938.0
939.0
939.0
939.0
938.0
937.0
944.0
948.0
949.0
950.0
950.0
952.0
957.0
962.0
965.0
963.0
967.0
969.0
975.0
979.0
983.0
980.0
982.0
986.0
989.0
995.0
995.0
997.0
998.0
1001.0
1008.0
1009.0
1014.0
1016.0
1020.0
1019.0
1023.0
1028.0
1030.0
1031.0
1030.0
1034.0
1036.0
1039.0
1040.0
1037.0
1041.0
1039.0
1046.0
1048.0
1049.0
1045.0
1042.0
1042.0
1042.0
1045.0
1044.0
1043.0
1038.0
1038.0
1038.0
1039.0
1037.0
1035.0
1034.0
1030.0
1033.0
1029.0
1031.0
1029.0
1025.0
1024.0
1022.0
1026.0
1025.0
1023.0
1021.0
1022.0
1025.0
1030.0
1031.0
1032.0
1030.0
1028.0
1033.0
1033.0
1036.0
1033.0
1035.0
1037.0
1041.0
1043.0
1043.0
1044.0
1042.0
1040.0
1041.0
1044.0
1043.0
1039.0
1035.0
1033.0
1036.0
1040.0
1041.0
1039.0
1041.0
1038.0
1040.0
1042.0
1038.0
1034.0
1027.0
1020.0
1018.0
1015.0
1011.0
1005.0
1001.0
997.0
996.0
996.0
996.0
995.0
993.0
991.0
993.0
994.0
996.0
994.0
992.0
992.0
995.0
997.0
994.0
996.0
993.0
992.0
992.0
996.0
994.0
993.0
991.0
992.0
994.0
994.0
998.0
996.0
994.0
995.0
996.0
999.0
999.0
998.0
997.0
997.0
998.0
1000.0
1001.0
999.0
1001.0
999.0
1001.0
1006.0
1006.0
1007.0
1004.0
1005.0
1007.0
1009.0
1007.0
1005.0
1004.0
999.0
995.0
992.0
989.0
987.0
990.0
1003.0
1024.0
1052.0
1077.0
1102.0
1124.0
1139.0
1157.0
1176.0
1201.0
1225.0
1251.0
1272.0
1301.0
1322.0
1333.0
1336.0
1336.0
1333.0
1327.0
1316.0
1287.0
1254.0
1221.0
1194.0
1170.0
1143.0
1116.0
1077.0
1034.0
996.0
965.0
942.0
914.0
892.0
880.0
871.0
869.0
869.0
868.0
870.0
871.0
869.0
877.0
883.0
891.0
899.0
905.0
910.0
917.0
921.0
924.0
928.0
934.0
938.0
941.0
947.0
951.0
951.0
953.0
952.0
953.0
956.0
955.0
949.0
951.0
950.0
950.0
951.0
948.0
947.0
942.0
940.0
943.0
945.0
943.0
941.0
938.0
936.0
937.0
941.0
939.0
938.0
933.0
935.0
937.0
937.0
938.0
938.0
937.0
937.0
940.0
944.0
944.0
944.0
944.0
945.0
947.0
951.0
952.0
952.0
954.0
954.0
959.0
962.0
963.0
966.0
968.0
969.0
975.0
978.0
983.0
985.0
987.0
989.0
992.0
998.0
1001.0
1001.0
1006.0
1007.0
1010.0
1020.0
1021.0
1021.0
1021.0
1025.0
1028.0
1033.0
1035.0
1037.0
1036.0
1041.0
1042.0
1044.0
1045.0
1045.0
1044.0
1042.0
1042.0
1045.0
1044.0
1043.0
1043.0
1037.0
1041.0
1041.0
1041.0
1037.0
1034.0
1032.0
1032.0
1034.0
1033.0
1029.0
1029.0
1028.0
1028.0
1029.0
1027.0
1024.0
1023.0
1024.0
1024.0
1029.0
1028.0
1030.0
1029.0
1029.0
1033.0
1035.0
1031.0
1030.0
1028.0
1028.0
1033.0
1035.0
1035.0
1034.0
1036.0
1037.0
1041.0
1042.0
1043.0
1043.0
1039.0
1036.0
1034.0
1036.0
1039.0
1038.0
1035.0
1040.0
1039.0
1043.0
1043.0
1041.0
1036.0
1033.0
1031.0
1027.0
1023.0
1018.0
1011.0
1003.0
1004.0
1004.0
995.0
996.0
993.0
990.0
992.0
991.0
990.0
988.0
987.0
990.0
991.0
990.0
990.0
990.0
987.0
988.0
990.0
993.0
993.0
992.0
993.0
990.0
993.0
993.0
994.0
993.0
990.0
992.0
997.0
999.0
999.0
998.0
995.0
997.0
999.0
1000.0
1002.0
1000.0
1000.0
1000.0
999.0
999.0
1001.0
1002.0
999.0
999.0
1002.0
1004.0
1004.0
999.0
994.0
994.0
991.0
990.0
988.0
986.0
990.0
1004.0
1030.0
1057.0
1085.0
1112.0
1131.0
1148.0
1171.0
1202.0
1230.0
1260.0
1285.0
1310.0
1331.0
1342.0
1345.0
1346.0
1343.0
1332.0
1319.0
1292.0
1255.0
1220.0
1188.0
1157.0
1129.0
1096.0
1050.0
1007.0
971.0
940.0
916.0
894.0
878.0
866.0
862.0
861.0
865.0
868.0
871.0
870.0
870.0
873.0
882.0
894.0
904.0
907.0
911.0
914.0
921.0
926.0
931.0
934.0
938.0
943.0
945.0
949.0
949.0
947.0
947.0
945.0
946.0
947.0
944.0
943.0
940.0
938.0
940.0
941.0
941.0
939.0
937.0
936.0
939.0
938.0
937.0
935.0
932.0
933.0
934.0
934.0
936.0
935.0
932.0
931.0
935.0
936.0
935.0
934.0
934.0
931.0
934.0
937.0
938.0
938.0
939.0
942.0
944.0
948.0
950.0
950.0
952.0
955.0
960.0
965.0
969.0
971.0
971.0
974.0
979.0
986.0
987.0
992.0
993.0
994.0
1001.0
1006.0
1010.0
1012.0
1012.0
1015.0
1018.0
1023.0
1026.0
1027.0
1026.0
1025.0
1030.0
1035.0
1037.0
1033.0
1034.0
1033.0
1036.0
1037.0
1038.0
1037.0
1034.0
1032.0
1033.0
1032.0
1031.0
1030.0
1026.0
1026.0
1028.0
1028.0
1030.0
1028.0
1024.0
1022.0
1023.0
1024.0
1023.0
1023.0
1019.0
1018.0
1020.0
1022.0
1023.0
1023.0
1020.0
1019.0
1019.0
1021.0
1025.0
1025.0
1025.0
1025.0
1029.0
1028.0
1033.0
1033.0
1034.0
1033.0
1032.0
1035.0
1030.0
1032.0
1029.0
1028.0
1032.0
1035.0
1038.0
1036.0
1031.0
1029.0
1027.0
1024.0
1018.0
1009.0
1002.0
998.0
993.0
991.0
987.0
983.0
979.0
980.0
980.0
982.0
981.0
981.0
980.0
978.0
981.0
984.0
984.0
982.0
981.0
983.0
984.0
987.0
988.0
990.0
987.0
988.0
989.0
991.0
993.0
990.0
991.0
989.0
990.0
990.0
990.0
990.0
988.0
987.0
992.0
992.0
990.0
990.0
991.0
989.0
993.0
996.0
996.0
993.0
992.0
990.0
994.0
994.0
992.0
989.0
985.0
983.0
986.0
996.0
1015.0
1041.0
1070.0
1101.0
1129.0
1151.0
1169.0
1188.0
1217.0
1244.0
1273.0
1302.0
1323.0
1335.0
1337.0
1339.0
1336.0
1330.0
1306.0
1271.0
1230.0
1195.0
1166.0
1138.0
1111.0
1074.0
1029.0
990.0
955.0
929.0
905.0
883.0
868.0
862.0
860.0
863.0
865.0
865.0
867.0
867.0
871.0
880.0
889.0
896.0
898.0
903.0
910.0
913.0
916.0
923.0
924.0
930.0
934.0
937.0
939.0
935.0
936.0
937.0
938.0
938.0
940.0
939.0
936.0
935.0
934.0
937.0
937.0
935.0
934.0
932.0
932.0
933.0
931.0
931.0
930.0
926.0
928.0
929.0
929.0
927.0
924.0
923.0
924.0
926.0
924.0
922.0
923.0
921.0
925.0
929.0
930.0
929.0
929.0
928.0
932.0
936.0
937.0
938.0
939.0
942.0
942.0
948.0
952.0
954.0
955.0
956.0
965.0
967.0
973.0
974.0
976.0
978.0
984.0
990.0
992.0
994.0
995.0
994.0
999.0
1003.0
1006.0
1007.0
1008.0
1008.0
1013.0
1021.0
1021.0
1022.0
1019.0
1016.0
1023.0
1027.0
1027.0
1026.0
1024.0
1024.0
1023.0
1028.0
1025.0
1023.0
1023.0
1023.0
1023.0
1024.0
1022.0
1021.0
1016.0
1014.0
1014.0
1015.0
1015.0
1011.0
1009.0
1007.0
1008.0
1008.0
1007.0
1004.0
1003.0
1005.0
1008.0
1013.0
1013.0
1012.0
1011.0
1009.0
1012.0
1012.0
1010.0
1012.0
1014.0
1013.0
1017.0
1023.0
1024.0
1023.0
1025.0
1023.0
1024.0
1025.0
1023.0
1023.0
1021.0
1020.0
1022.0
1024.0
1022.0
1020.0
1020.0
1017.0
1013.0
1010.0
1004.0
997.0
990.0
985.0
983.0
982.0
978.0
976.0
975.0
973.0
973.0
976.0
976.0
974.0
974.0
975.0
978.0
979.0
981.0
980.0
978.0
976.0
978.0
980.0
980.0
978.0
975.0
975.0
980.0
980.0
982.0
980.0
975.0
977.0
980.0
981.0
983.0
983.0
981.0
979.0
981.0
985.0
985.0
985.0
986.0
984.0
984.0
989.0
992.0
991.0
991.0
987.0
989.0
986.0
984.0
980.0
979.0
984.0
1003.0
1033.0
1062.0
1088.0
1112.0
1130.0
1146.0
1165.0
1191.0
1217.0
1239.0
1262.0
1284.0
1294.0
1297.0
1292.0
1287.0
1272.0
1252.0
1222.0
1188.0
1159.0
1134.0
1108.0
1086.0
1055.0
1016.0
983.0
952.0
926.0
905.0
888.0
876.0
869.0
863.0
861.0
865.0
870.0
872.0
873.0
877.0
883.0
893.0
902.0
907.0
910.0
908.0
916.0
924.0
928.0
933.0
935.0
936.0
937.0
943.0
945.0
945.0
946.0
943.0
941.0
943.0
943.0
943.0
944.0
940.0
940.0
940.0
940.0
939.0
936.0
934.0
932.0
933.0
933.0
933.0
929.0
931.0
928.0
929.0
932.0
932.0
931.0
932.0
931.0
931.0
933.0
934.0
937.0
935.0
934.0
938.0
942.0
944.0
944.0
946.0
947.0
952.0
954.0
957.0
959.0
959.0
960.0
964.0
970.0
972.0
973.0
974.0
973.0
981.0
985.0
988.0
990.0
992.0
995.0
996.0
1002.0
1003.0
1005.0
1008.0
1011.0
1014.0
1020.0
1019.0
1021.0
1020.0
1024.0
1027.0
1032.0
1031.0
1034.0
1033.0
1035.0
1035.0
1040.0
1042.0
1037.0
1036.0
1039.0
1038.0
1040.0
1036.0
1035.0
1032.0
1032.0
1031.0
1031.0
1031.0
1026.0
1024.0
1023.0
1028.0
1026.0
1027.0
1025.0
1022.0
1020.0
1020.0
1022.0
1023.0
1023.0
1019.0
1020.0
1025.0
1028.0
1030.0
1030.0
1028.0
1026.0
1029.0
1033.0
1034.0
1036.0
1036.0
1037.0
1040.0
1044.0
1042.0
1041.0
1040.0
1039.0
1040.0
1039.0
1040.0
1036.0
1035.0
1036.0
1039.0
1040.0
1041.0
1040.0
1039.0
1037.0
1035.0
1032.0
1027.0
1020.0
1013.0
1007.0
1008.0
1003.0
1001.0
999.0
996.0
994.0
996.0
999.0
998.0
995.0
993.0
992.0
995.0
995.0
995.0
994.0
992.0
992.0
993.0
994.0
995.0
991.0
989.0
992.0
993.0
996.0
996.0
995.0
995.0
993.0
993.0
996.0
997.0
995.0
994.0
995.0
997.0
998.0
1001.0
999.0
1000.0
1002.0
1004.0
1005.0
1004.0
1004.0
1004.0
1003.0
1007.0
1005.0
1007.0
1002.0
1003.0
1001.0
999.0
999.0
994.0
990.0
987.0
988.0
996.0
1013.0
1037.0
1060.0
1083.0
1105.0
1123.0
1142.0
1160.0
1183.0
1207.0
1233.0
1260.0
1285.0
1302.0
1313.0
1315.0
1319.0
1318.0
1312.0
1302.0
1272.0
1236.0
1201.0
1175.0
1155.0
1130.0
1102.0
1063.0
1022.0
990.0
962.0
938.0
914.0
896.0
882.0
879.0
876.0
878.0
876.0
877.0
877.0
879.0
884.0
891.0
899.0
904.0
910.0
917.0
922.0
925.0
928.0
933.0
937.0
941.0
946.0
951.0
951.0
950.0
951.0
956.0
957.0
957.0
956.0
952.0
951.0
949.0
949.0
949.0
949.0
946.0
943.0
944.0
945.0
944.0
943.0
940.0
940.0
939.0
941.0
941.0
939.0
938.0
936.0
938.0
939.0
939.0
937.0
937.0
936.0
939.0
940.0
942.0
942.0
940.0
940.0
942.0
945.0
944.0
