# Simple Text Format
# Sampling Rate (Hz):= 360.00
# Resolution:= 12
# Labels:= ECG
917.0
918.0
921.0
920.0
920.0
920.0
921.0
919.0
918.0
915.0
916.0
915.0
918.0
917.0
914.0
911.0
912.0
911.0
913.0
909.0
907.0
905.0
905.0
907.0
908.0
907.0
904.0
903.0
903.0
904.0
905.0
904.0
904.0
899.0
901.0
904.0
906.0
907.0
906.0
904.0
905.0
909.0
914.0
912.0
914.0
913.0
914.0
920.0
923.0
926.0
925.0
927.0
929.0
936.0
940.0
945.0
944.0
947.0
950.0
955.0
959.0
962.0
962.0
965.0
967.0
973.0
978.0
982.0
982.0
986.0
987.0
992.0
997.0
999.0
1002.0
997.0
1002.0
1007.0
1010.0
1013.0
1010.0
1010.0
1013.0
1017.0
1019.0
1019.0
1017.0
1014.0
1014.0
1017.0
1017.0
1017.0
1014.0
1010.0
1010.0
1010.0
1013.0
1010.0
1009.0
1005.0
1006.0
1005.0
1005.0
1003.0
1003.0
1003.0
1003.0
1004.0
1008.0
1008.0
1007.0
1005.0
1007.0
1009.0
1007.0
1007.0
1006.0
1007.0
1007.0
1013.0
1015.0
1016.0
1016.0
1013.0
1016.0
1015.0
1017.0
1013.0
1011.0
1008.0
1009.0
1010.0
1015.0
1012.0
1012.0
1011.0
1011.0
1010.0
1010.0
1002.0
996.0
987.0
984.0
982.0
979.0
974.0
968.0
963.0
966.0
965.0
967.0
966.0
966.0
961.0
963.0
965.0
969.0
970.0
968.0
965.0
965.0
969.0
972.0
969.0
968.0
964.0
964.0
967.0
969.0
969.0
967.0
968.0
972.0
971.0
973.0
973.0
972.0
969.0
972.0
972.0
975.0
975.0
972.0
971.0
973.0
976.0
979.0
978.0
977.0
976.0
976.0
976.0
977.0
974.0
969.0
963.0
965.0
970.0
981.0
1003.0
1030.0
1055.0
1086.0
1111.0
1132.0
1147.0
1170.0
1197.0
1229.0
1264.0
1292.0
1319.0
1338.0
1349.0
1354.0
1355.0
1355.0
1345.0
1325.0
1285.0
1239.0
1206.0
1174.0
1142.0
1106.0
1068.0
1025.0
986.0
951.0
921.0
892.0
867.0
848.0
837.0
837.0
834.0
834.0
832.0
837.0
840.0
843.0
844.0
851.0
857.0
865.0
873.0
883.0
887.0
890.0
889.0
895.0
899.0
908.0
910.0
914.0
912.0
917.0
920.0
921.0
922.0
922.0
918.0
920.0
920.0
920.0
918.0
916.0
916.0
914.0
914.0
914.0
914.0
911.0
909.0
909.0
909.0
911.0
908.0
905.0
903.0
905.0
906.0
907.0
904.0
903.0
902.0
900.0
900.0
902.0
905.0
903.0
901.0
900.0
902.0
904.0
906.0
908.0
904.0
908.0
911.0
915.0
916.0
916.0
917.0
921.0
923.0
929.0
934.0
934.0
935.0
937.0
945.0
947.0
948.0
952.0
952.0
956.0
961.0
968.0
969.0
972.0
973.0
977.0
982.0
986.0
988.0
990.0
990.0
993.0
999.0
1001.0
1005.0
1005.0
1002.0
1005.0
1010.0
1015.0
1016.0
1014.0
1015.0
1014.0
1016.0
1020.0
1021.0
1021.0
1015.0
1017.0
1018.0
1019.0
1018.0
1015.0
1013.0
1014.0
1014.0
1016.0
1013.0
1010.0
1007.0
1005.0
1006.0
1007.0
1005.0
1001.0
999.0
1000.0
1002.0
1004.0
1006.0
1006.0
1006.0
1006.0
1008.0
1010.0
1010.0
1006.0
1004.0
1008.0
1011.0
1013.0
1013.0
1014.0
1012.0
1015.0
1017.0
1019.0
1019.0
1019.0
1016.0
1015.0
1014.0
1016.0
1016.0
1016.0
1015.0
1019.0
1020.0
1021.0
1020.0
1016.0
1011.0
1007.0
1002.0
997.0
992.0
987.0
980.0
974.0
974.0
973.0
971.0
970.0
968.0
965.0
967.0
969.0
968.0
969.0
966.0
967.0
968.0
970.0
974.0
970.0
968.0
968.0
973.0
974.0
975.0
973.0
971.0
970.0
971.0
975.0
975.0
975.0
974.0
973.0
976.0
978.0
979.0
976.0
973.0
976.0
979.0
982.0
982.0
980.0
978.0
978.0
979.0
981.0
984.0
983.0
978.0
981.0
985.0
982.0
983.0
982.0
979.0
978.0
976.0
975.0
975.0
973.0
975.0
989.0
1014.0
1042.0
1071.0
1097.0
1116.0
1138.0
1156.0
1178.0
1204.0
1234.0
1262.0
1291.0
1322.0
1346.0
1363.0
1368.0
1367.0
1367.0
1362.0
1351.0
1324.0
1286.0
1246.0
1209.0
1182.0
1153.0
1121.0
1085.0
1038.0
995.0
961.0
932.0
907.0
880.0
860.0
848.0
840.0
841.0
839.0
838.0
840.0
841.0
847.0
848.0
851.0
854.0
864.0
872.0
882.0
888.0
893.0
895.0
894.0
899.0
907.0
915.0
918.0
922.0
921.0
922.0
926.0
929.0
929.0
927.0
925.0
926.0
928.0
928.0
927.0
923.0
921.0
922.0
922.0
923.0
921.0
918.0
916.0
915.0
915.0
917.0
917.0
916.0
911.0
912.0
915.0
916.0
914.0
913.0
910.0
912.0
914.0
913.0
915.0
912.0
908.0
909.0
913.0
914.0
916.0
915.0
912.0
915.0
917.0
919.0
921.0
922.0
919.0
924.0
928.0
930.0
933.0
933.0
935.0
937.0
940.0
948.0
949.0
950.0
951.0
957.0
961.0
964.0
969.0
969.0
973.0
975.0
979.0
985.0
988.0
989.0
993.0
995.0
1000.0
1004.0
1008.0
1008.0
1009.0
1010.0
1015.0
1018.0
1021.0
1023.0
1021.0
1022.0
1025.0
1027.0
1027.0
1026.0
1025.0
1022.0
1026.0
1026.0
1026.0
1024.0
1021.0
1019.0
1021.0
1020.0
1020.0
1017.0
1014.0
1012.0
1014.0
1013.0
1014.0
1009.0
1006.0
1009.0
1012.0
1015.0
1014.0
1015.0
1015.0
1015.0
1019.0
1017.0
1016.0
1014.0
1013.0
1012.0
1018.0
1022.0
1022.0
1022.0
1020.0
1023.0
1026.0
1027.0
1027.0
1025.0
1019.0
1016.0
1016.0
1022.0
1022.0
1021.0
1018.0
1019.0
1022.0
1024.0
1019.0
1015.0
1007.0
998.0
995.0
992.0
985.0
985.0
976.0
974.0
975.0
976.0
975.0
974.0
969.0
970.0
972.0
974.0
975.0
973.0
972.0
972.0
974.0
974.0
976.0
974.0
972.0
972.0
974.0
976.0
977.0
974.0
974.0
974.0
974.0
977.0
977.0
976.0
973.0
976.0
976.0
980.0
976.0
975.0
976.0
975.0
979.0
981.0
982.0
980.0
982.0
983.0
983.0
986.0
985.0
986.0
984.0
981.0
982.0
980.0
978.0
970.0
968.0
969.0
983.0
1004.0
1034.0
1062.0
1089.0
1113.0
1135.0
1158.0
1178.0
1205.0
1234.0
1266.0
1301.0
1328.0
1350.0
1361.0
1364.0
1364.0
1362.0
1353.0
1331.0
1293.0
1251.0
1216.0
1187.0
1157.0
1123.0
1081.0
1039.0
995.0
960.0
933.0
906.0
882.0
861.0
847.0
839.0
839.0
837.0
839.0
840.0
841.0
843.0
848.0
851.0
859.0
868.0
876.0
883.0
889.0
892.0
893.0
896.0
902.0
906.0
914.0
917.0
919.0
918.0
921.0
924.0
925.0
925.0
924.0
923.0
921.0
924.0
923.0
922.0
921.0
917.0
917.0
918.0
920.0
919.0
915.0
912.0
911.0
914.0
915.0
915.0
910.0
909.0
910.0
909.0
911.0
911.0
909.0
907.0
906.0
908.0
909.0
909.0
910.0
903.0
904.0
907.0
909.0
907.0
907.0
910.0
909.0
915.0
917.0
919.0
921.0
918.0
921.0
926.0
931.0
934.0
935.0
934.0
939.0
942.0
948.0
950.0
953.0
955.0
957.0
961.0
966.0
970.0
972.0
974.0
978.0
982.0
986.0
987.0
988.0
989.0
994.0
995.0
1003.0
1003.0
1005.0
1005.0
1007.0
1012.0
1017.0
1018.0
1019.0
1019.0
1020.0
1021.0
1023.0
1023.0
1024.0
1020.0
1019.0
1022.0
1023.0
1021.0
1022.0
1019.0
1017.0
1018.0
1019.0
1020.0
1018.0
1016.0
1015.0
1013.0
1016.0
1012.0
1010.0
1008.0
1006.0
1008.0
1010.0
1009.0
1007.0
1008.0
1008.0
1013.0
1013.0
1013.0
1013.0
1008.0
1007.0
1009.0
1012.0
1015.0
1015.0
1014.0
1014.0
1019.0
1024.0
1021.0
1023.0
1021.0
1020.0
1022.0
1022.0
1021.0
1019.0
1018.0
1019.0
1021.0
1021.0
1023.0
1023.0
1022.0
1022.0
1020.0
1018.0
1012.0
1003.0
997.0
993.0
990.0
987.0
983.0
976.0
971.0
972.0
973.0
975.0
973.0
970.0
969.0
968.0
970.0
971.0
972.0
972.0
971.0
969.0
974.0
974.0
975.0
974.0
973.0
973.0
975.0
975.0
977.0
976.0
974.0
974.0
977.0
979.0
979.0
975.0
976.0
975.0
979.0
981.0
980.0
981.0
978.0
978.0
980.0
984.0
983.0
982.0
982.0
982.0
985.0
987.0
985.0
985.0
979.0
978.0
977.0
976.0
974.0
973.0
977.0
988.0
1011.0
1044.0
1075.0
1105.0
1131.0
1155.0
1176.0
1199.0
1230.0
1257.0
1283.0
1313.0
1344.0
1372.0
1382.0
1384.0
1382.0
1376.0
1363.0
1338.0
1295.0
1249.0
1209.0
1171.0
1135.0
1100.0
1059.0
1012.0
969.0
932.0
904.0
881.0
858.0
840.0
832.0
822.0
826.0
830.0
832.0
832.0
832.0
835.0
838.0
848.0
858.0
865.0
872.0
878.0
886.0
892.0
899.0
899.0
903.0
908.0
915.0
922.0
923.0
922.0
923.0
922.0
924.0
926.0
927.0
922.0
920.0
918.0
919.0
918.0
919.0
917.0
914.0
913.0
913.0
914.0
917.0
914.0
910.0
910.0
912.0
913.0
911.0
910.0
905.0
905.0
909.0
909.0
907.0
905.0
903.0
904.0
907.0
909.0
910.0
906.0
907.0
907.0
909.0
913.0
915.0
914.0
914.0
917.0
921.0
924.0
927.0
927.0
929.0
931.0
934.0
938.0
941.0
943.0
943.0
948.0
955.0
961.0
960.0
961.0
962.0
967.0
973.0
980.0
982.0
982.0
984.0
989.0
993.0
996.0
1000.0
1003.0
1002.0
1005.0
1009.0
1011.0
1016.0
1016.0
1015.0
1016.0
1020.0
1024.0
1024.0
1023.0
1023.0
1023.0
1025.0
1025.0
1026.0
1023.0
1019.0
1018.0
1018.0
1020.0
1019.0
1016.0
1014.0
1013.0
1014.0
1016.0
1013.0
1009.0
1007.0
1006.0
1008.0
1008.0
1006.0
1002.0
1001.0
1000.0
1003.0
1005.0
1006.0
1005.0
1004.0
1004.0
1008.0
1010.0
1009.0
1005.0
1007.0
1004.0
1007.0
1010.0
1010.0
1011.0
1010.0
1014.0
1018.0
1021.0
1022.0
1022.0
1023.0
1019.0
1021.0
1021.0
1017.0
1016.0
1015.0
1016.0
1018.0
1019.0
1020.0
1017.0
1017.0
1015.0
1015.0
1011.0
1003.0
996.0
993.0
987.0
986.0
983.0
980.0
977.0
972.0
973.0
973.0
974.0
972.0
970.0
969.0
968.0
972.0
971.0
972.0
970.0
971.0
971.0
973.0
975.0
975.0
974.0
969.0
969.0
971.0
974.0
974.0
972.0
972.0
969.0
973.0
978.0
974.0
975.0
974.0
976.0
978.0
982.0
981.0
979.0
980.0
979.0
983.0
985.0
982.0
982.0
981.0
979.0
981.0
982.0
977.0
974.0
974.0
978.0
995.0
1024.0
1060.0
1096.0
1129.0
1157.0
1182.0
1212.0
1244.0
1275.0
1308.0
1336.0
1364.0
1380.0
1382.0
1376.0
1365.0
1344.0
1309.0
1262.0
1221.0
1175.0
1134.0
1093.0
1053.0
1009.0
965.0
925.0
893.0
867.0
846.0
830.0
824.0
819.0
818.0
822.0
825.0
831.0
831.0
834.0
843.0
852.0
866.0
876.0
881.0
884.0
886.0
890.0
897.0
907.0
913.0
914.0
916.0
917.0
918.0
921.0
919.0
921.0
918.0
916.0
916.0
918.0
917.0
914.0
913.0
911.0
913.0
913.0
913.0
909.0
907.0
906.0
906.0
906.0
902.0
899.0
899.0
895.0
900.0
904.0
900.0
901.0
898.0
898.0
900.0
902.0
904.0
901.0
902.0
902.0
906.0
909.0
910.0
913.0
912.0
915.0
920.0
925.0
925.0
926.0
926.0
934.0
939.0
941.0
946.0
945.0
949.0
952.0
959.0
964.0
967.0
968.0
971.0
976.0
977.0
985.0
987.0
988.0
989.0
992.0
996.0
999.0
1001.0
1004.0
1006.0
1006.0
1009.0
1013.0
1015.0
1013.0
1012.0
1012.0
1014.0
1018.0
1017.0
1015.0
1012.0
1014.0
1016.0
1015.0
1013.0
1010.0
1010.0
1007.0
1007.0
1008.0
1006.0
1003.0
1002.0
999.0
999.0
1002.0
1000.0
996.0
995.0
994.0
997.0
999.0
998.0
997.0
996.0
997.0
998.0
1000.0
1000.0
1000.0
999.0
999.0
1001.0
1007.0
1007.0
1008.0
1006.0
1008.0
1013.0
1014.0
1012.0
1013.0
1009.0
1005.0
1007.0
1012.0
1010.0
1008.0
1009.0
1012.0
1012.0
1013.0
1011.0
1008.0
1002.0
993.0
988.0
986.0
980.0
973.0
967.0
963.0
961.0
966.0
962.0
960.0
960.0
960.0
960.0
962.0
963.0
960.0
958.0
958.0
963.0
964.0
962.0
962.0
960.0
960.0
965.0
966.0
965.0
963.0
962.0
963.0
965.0
968.0
969.0
967.0
964.0
965.0
967.0
968.0
967.0
967.0
966.0
967.0
967.0
971.0
972.0
971.0
971.0
969.0
971.0
975.0
973.0
969.0
967.0
963.0
960.0
959.0
959.0
965.0
981.0
1005.0
1040.0
1073.0
1103.0
1127.0
1148.0
1174.0
1211.0
1244.0
1279.0
1312.0
1342.0
1357.0
1366.0
1366.0
1359.0
1344.0
1309.0
1261.0
1215.0
1176.0
1133.0
1094.0
1047.0
998.0
952.0
918.0
885.0
857.0
839.0
826.0
821.0
825.0
827.0
829.0
828.0
828.0
837.0
848.0
858.0
862.0
868.0
875.0
880.0
887.0
893.0
897.0
901.0
904.0
909.0
912.0
911.0
911.0
910.0
908.0
909.0
912.0
907.0
904.0
902.0
900.0
902.0
901.0
902.0
900.0
896.0
896.0
897.0
899.0
897.0
892.0
889.0
890.0
893.0
894.0
891.0
889.0
888.0
888.0
891.0
893.0
893.0
893.0
891.0
891.0
892.0
899.0
899.0
897.0
898.0
902.0
906.0
913.0
914.0
914.0
916.0
918.0
925.0
930.0
931.0
935.0
939.0
944.0
948.0
954.0
958.0
961.0
960.0
965.0
972.0
975.0
978.0
978.0
981.0
984.0
989.0
995.0
994.0
996.0
997.0
999.0
1004.0
1006.0
1005.0
1006.0
1006.0
1003.0
1005.0
1008.0
1007.0
1003.0
1001.0
1003.0
1005.0
1005.0
1004.0
1002.0
997.0
998.0
998.0
999.0
1000.0
996.0
992.0
993.0
994.0
995.0
994.0
992.0
993.0
995.0
997.0
1003.0
999.0
997.0
997.0
996.0
1000.0
1002.0
1002.0
1002.0
1004.0
1003.0
1005.0
1006.0
1005.0
1005.0
1003.0
1000.0
1001.0
1003.0
1001.0
1002.0
1002.0
1002.0
1003.0
1006.0
1004.0
1000.0
994.0
984.0
984.0
979.0
973.0
968.0
962.0
957.0
956.0
958.0
957.0
953.0
952.0
950.0
950.0
954.0
955.0
953.0
951.0
953.0
952.0
956.0
955.0
954.0
953.0
952.0
953.0
955.0
957.0
954.0
953.0
953.0
957.0
958.0
957.0
958.0
955.0
956.0
960.0
963.0
962.0
963.0
960.0
959.0
963.0
963.0
962.0
964.0
963.0
962.0
966.0
967.0
968.0
968.0
966.0
963.0
965.0
966.0
960.0
955.0
951.0
956.0
968.0
994.0
1021.0
1050.0
1077.0
1104.0
1126.0
1146.0
1170.0
1202.0
1234.0
1267.0
1300.0
1329.0
1347.0
1356.0
1357.0
1353.0
1348.0
1333.0
1292.0
1249.0
1210.0
1171.0
1141.0
1106.0
1060.0
1013.0
966.0
925.0
895.0
873.0
847.0
830.0
820.0
816.0
815.0
817.0
820.0
820.0
821.0
825.0
834.0
844.0
853.0
857.0
863.0
864.0
871.0
879.0
884.0
890.0
892.0
897.0
900.0
904.0
906.0
907.0
904.0
903.0
905.0
904.0
904.0
902.0
900.0
897.0
899.0
900.0
898.0
897.0
895.0
892.0
895.0
896.0
894.0
891.0
888.0
887.0
887.0
891.0
888.0
884.0
883.0
883.0
885.0
885.0
884.0
883.0
884.0
882.0
883.0
888.0
888.0
887.0
888.0
889.0
890.0
896.0
898.0
898.0
899.0
902.0
906.0
911.0
912.0
914.0
916.0
920.0
921.0
930.0
932.0
933.0
934.0
935.0
942.0
947.0
951.0
953.0
955.0
957.0
963.0
968.0
970.0
971.0
973.0
975.0
980.0
986.0
986.0
987.0
984.0
989.0
994.0
998.0
998.0
999.0
999.0
1001.0
1002.0
1007.0
1005.0
1004.0
1004.0
1000.0
1004.0
1004.0
1004.0
1002.0
1000.0
999.0
1002.0
1001.0
1000.0
998.0
995.0
991.0
996.0
996.0
993.0
991.0
988.0
986.0
988.0
990.0
989.0
988.0
990.0
989.0
992.0
995.0
991.0
992.0
990.0
991.0
993.0
996.0
995.0
995.0
993.0
997.0
999.0
1003.0
1004.0
1005.0
1003.0
1001.0
1004.0
1006.0
1002.0
997.0
996.0
997.0
1002.0
1002.0
1003.0
1002.0
1003.0
1002.0
1000.0
1003.0
998.0
991.0
982.0
974.0
971.0
970.0
964.0
960.0
955.0
952.0
952.0
954.0
954.0
951.0
947.0
948.0
950.0
953.0
952.0
951.0
950.0
950.0
953.0
954.0
954.0
954.0
951.0
951.0
953.0
955.0
955.0
955.0
954.0
954.0
955.0
957.0
956.0
956.0
953.0
954.0
955.0
959.0
959.0
957.0
956.0
955.0
960.0
959.0
959.0
958.0
957.0
956.0
960.0
962.0
959.0
959.0
962.0
960.0
962.0
963.0
961.0
959.0
952.0
947.0
949.0
953.0
961.0
977.0
1003.0
1034.0
1065.0
1098.0
1121.0
1135.0
1154.0
1185.0
1218.0
1248.0
1277.0
1302.0
1325.0
1342.0
1354.0
1359.0
1353.0
1350.0
1335.0
1306.0
1263.0
1224.0
1189.0
1154.0
1117.0
1081.0
1043.0
1001.0
953.0
917.0
886.0
856.0
838.0
825.0
817.0
809.0
805.0
807.0
811.0
815.0
816.0
817.0
817.0
825.0
837.0
847.0
855.0
859.0
862.0
866.0
872.0
878.0
884.0
888.0
889.0
893.0
895.0
901.0
901.0
900.0
899.0
897.0
897.0
898.0
898.0
894.0
892.0
892.0
891.0
889.0
892.0
888.0
885.0
885.0
884.0
887.0
887.0
884.0
883.0
883.0
882.0
884.0
883.0
880.0
881.0
876.0
881.0
883.0
882.0
881.0
879.0
880.0
883.0
886.0
886.0
888.0
883.0
886.0
891.0
894.0
895.0
894.0
895.0
899.0
903.0
910.0
912.0
914.0
915.0
916.0
923.0
924.0
928.0
932.0
934.0
937.0
946.0
952.0
952.0
955.0
957.0
960.0
967.0
970.0
972.0
975.0
975.0
980.0
985.0
990.0
989.0
991.0
991.0
992.0
996.0
999.0
1000.0
999.0
999.0
997.0
997.0
1002.0
1000.0
998.0
994.0
995.0
997.0
999.0
997.0
993.0
994.0
991.0
991.0
991.0
991.0
987.0
985.0
983.0
986.0
986.0
984.0
985.0
985.0
982.0
987.0
989.0
990.0
988.0
987.0
986.0
985.0
991.0
988.0
987.0
988.0
986.0
994.0
996.0
998.0
998.0
995.0
993.0
996.0
995.0
997.0
993.0
991.0
991.0
994.0
993.0
995.0
993.0
994.0
995.0
996.0
995.0
986.0
981.0
972.0
966.0
964.0
962.0
958.0
953.0
948.0
945.0
947.0
948.0
947.0
944.0
941.0
942.0
945.0
948.0
949.0
945.0
943.0
942.0
947.0
946.0
945.0
943.0
944.0
943.0
945.0
950.0
948.0
948.0
946.0
947.0
951.0
951.0
951.0
951.0
951.0
949.0
951.0
955.0
953.0
954.0
952.0
952.0
952.0
955.0
952.0
956.0
952.0
954.0
956.0
959.0
957.0
959.0
956.0
954.0
953.0
952.0
949.0
948.0
954.0
960.0
984.0
1017.0
1050.0
1082.0
1111.0
1135.0
1155.0
1181.0
1206.0
1236.0
1264.0
1294.0
1323.0
1345.0
1355.0
1355.0
1353.0
1348.0
1335.0
1316.0
1278.0
1236.0
1197.0
1163.0
1130.0
1097.0
1061.0
1016.0
970.0
929.0
892.0
867.0
842.0
820.0
804.0
794.0
795.0
797.0
801.0
802.0
803.0
806.0
808.0
815.0
825.0
833.0
839.0
846.0
856.0
861.0
862.0
867.0
871.0
876.0
885.0
889.0
890.0
892.0
892.0
896.0
896.0
897.0
896.0
893.0
893.0
890.0
890.0
894.0
893.0
889.0
888.0
887.0
889.0
890.0
887.0
885.0
881.0
881.0
881.0
881.0
879.0
881.0
876.0
876.0
878.0
879.0
880.0
878.0
879.0
877.0
880.0
880.0
881.0
880.0
878.0
879.0
880.0
884.0
884.0
885.0
885.0
887.0
891.0
896.0
897.0
899.0
900.0
903.0
908.0
913.0
916.0
917.0
918.0
922.0
927.0
931.0
935.0
934.0
937.0
940.0
946.0
952.0
954.0
958.0
958.0
962.0
966.0
972.0
975.0
974.0
975.0
978.0
985.0
987.0
990.0
992.0
992.0
994.0
994.0
1000.0
999.0
998.0
997.0
997.0
996.0
999.0
996.0
994.0
993.0
992.0
994.0
995.0
992.0
991.0
988.0
987.0
987.0
990.0
985.0
981.0
979.0
976.0
978.0
981.0
982.0
980.0
979.0
980.0
984.0
987.0
986.0
982.0
981.0
982.0
986.0
985.0
986.0
983.0
983.0
986.0
990.0
995.0
997.0
999.0
997.0
997.0
997.0
1001.0
1001.0
997.0
995.0
994.0
995.0
999.0
996.0
999.0
998.0
996.0
995.0
994.0
986.0
979.0
971.0
964.0
964.0
960.0
956.0
951.0
948.0
947.0
950.0
952.0
949.0
946.0
946.0
945.0
948.0
951.0
950.0
952.0
949.0
947.0
952.0
953.0
951.0
952.0
948.0
949.0
953.0
955.0
953.0
952.0
952.0
951.0
951.0
954.0
954.0
955.0
954.0
952.0
954.0
958.0
960.0
957.0
957.0
958.0
959.0
963.0
963.0
962.0
960.0
957.0
959.0
959.0
955.0
953.0
949.0
950.0
956.0
971.0
993.0
1020.0
1048.0
1079.0
1109.0
1135.0
1153.0
1176.0
1204.0
1232.0
1259.0
1290.0
1313.0
1334.0
1343.0
1345.0
1344.0
1341.0
1325.0
1295.0
1254.0
1212.0
1178.0
1145.0
1115.0
1084.0
1046.0
998.0
957.0
921.0
890.0
864.0
841.0
824.0
814.0
811.0
810.0
806.0
809.0
808.0
816.0
818.0
820.0
824.0
833.0
839.0
849.0
860.0
864.0
867.0
868.0
872.0
879.0
885.0
890.0
893.0
893.0
894.0
898.0
902.0
902.0
900.0
898.0
899.0
899.0
901.0
900.0
898.0
898.0
894.0
896.0
898.0
896.0
894.0
890.0
890.0
890.0
891.0
889.0
889.0
887.0
885.0
887.0
888.0
887.0
886.0
884.0
882.0
885.0
889.0
887.0
883.0
882.0
883.0
886.0
888.0
889.0
888.0
885.0
889.0
891.0
895.0
894.0
896.0
896.0
901.0
906.0
910.0
912.0
913.0
917.0
917.0
923.0
928.0
931.0
931.0
933.0
935.0
942.0
947.0
951.0
954.0
955.0
958.0
964.0
968.0
973.0
974.0
974.0
978.0
982.0
985.0
987.0
989.0
991.0
992.0
997.0
999.0
1000.0
998.0
997.0
998.0
1002.0
1004.0
1005.0
1004.0
1001.0
1001.0
1003.0
1004.0
1003.0
1001.0
999.0
998.0
999.0
1000.0
997.0
995.0
993.0
991.0
993.0
993.0
991.0
990.0
989.0
988.0
991.0
994.0
993.0
993.0
995.0
995.0
995.0
995.0
995.0
994.0
997.0
997.0
998.0
1004.0
1001.0
1003.0
1004.0
1004.0
1006.0
1009.0
1009.0
1009.0
1003.0
1000.0
1004.0
1006.0
1007.0
1006.0
1007.0
1009.0
1008.0
1009.0
1005.0
998.0
994.0
988.0
984.0
983.0
975.0
969.0
963.0
958.0
958.0
958.0
954.0
953.0
949.0
949.0
950.0
951.0
951.0
950.0
950.0
950.0
952.0
955.0
956.0
954.0
951.0
952.0
954.0
957.0
955.0
954.0
954.0
955.0
958.0
960.0
957.0
959.0
957.0
954.0
959.0
959.0
960.0
960.0
956.0
957.0
960.0
961.0
963.0
964.0
961.0
959.0
963.0
964.0
962.0
963.0
959.0
961.0
962.0
963.0
960.0
955.0
951.0
950.0
953.0
958.0
973.0
994.0
1019.0
1048.0
1078.0
1107.0
1126.0
1142.0
1163.0
1194.0
1226.0
1256.0
1281.0
1310.0
1331.0
1343.0
1352.0
1354.0
1353.0
1345.0
1329.0
1300.0
1263.0
1223.0
1191.0
1158.0
1124.0
1089.0
1056.0
1018.0
974.0
935.0
901.0
869.0
845.0
830.0
819.0
811.0
808.0
808.0
812.0
816.0
817.0
816.0
816.0
823.0
835.0
844.0
853.0
857.0
859.0
861.0
870.0
873.0
878.0
882.0
884.0
889.0
893.0
897.0
903.0
902.0
901.0
897.0
900.0
904.0
899.0
897.0
894.0
894.0
897.0
897.0
897.0
894.0
893.0
889.0
891.0
892.0
890.0
889.0
884.0
883.0
884.0
887.0
884.0
884.0
883.0
879.0
881.0
885.0
882.0
881.0
880.0
878.0
884.0
885.0
884.0
885.0
883.0
882.0
887.0
889.0
891.0
889.0
890.0
891.0
895.0
901.0
902.0
902.0
904.0
906.0
912.0
916.0
918.0
921.0
922.0
923.0
927.0
934.0
939.0
940.0
941.0
944.0
947.0
954.0
953.0
958.0
960.0
960.0
965.0
972.0
977.0
977.0
981.0
980.0
986.0
989.0
991.0
991.0
994.0
994.0
997.0
997.0
1001.0
998.0
998.0
998.0
999.0
998.0
998.0
996.0
994.0
994.0
994.0
996.0
993.0
988.0
986.0
985.0
988.0
987.0
985.0
982.0
978.0
976.0
980.0
982.0
979.0
978.0
978.0
975.0
981.0
985.0
982.0
983.0
983.0
981.0
983.0
985.0
981.0
980.0
980.0
980.0
984.0
990.0
995.0
992.0
990.0
991.0
991.0
990.0
987.0
987.0
985.0
984.0
985.0
988.0
991.0
990.0
988.0
982.0
983.0
978.0
970.0
964.0
957.0
955.0
955.0
954.0
949.0
942.0
939.0
937.0
938.0
940.0
937.0
939.0
937.0
938.0
939.0
943.0
941.0
940.0
940.0
939.0
942.0
944.0
945.0
942.0
942.0
941.0
943.0
944.0
944.0
942.0
942.0
940.0
945.0
945.0
945.0
946.0
944.0
947.0
946.0
946.0
947.0
946.0
944.0
947.0
950.0
951.0
953.0
952.0
950.0
947.0
949.0
952.0
953.0
948.0
946.0
946.0
952.0
965.0
986.0
1017.0
1047.0
1072.0
1098.0
1119.0
1129.0
1143.0
1161.0
1183.0
1205.0
1229.0
1246.0
1257.0
1258.0
1251.0
1249.0
1243.0
1228.0
1203.0
1168.0
1138.0
1115.0
1095.0
1073.0
1046.0
1018.0
977.0
944.0
917.0
893.0
867.0
846.0
830.0
820.0
818.0
819.0
818.0
820.0
821.0
825.0
829.0
833.0
837.0
845.0
852.0
859.0
866.0
870.0
870.0
873.0
878.0
886.0
892.0
895.0
897.0
896.0
896.0
899.0
903.0
902.0
902.0
901.0
897.0
899.0
903.0
901.0
901.0
898.0
897.0
899.0
902.0
897.0
896.0
894.0
893.0
897.0
899.0
898.0
898.0
894.0
892.0
896.0
895.0
896.0
900.0
900.0
896.0
897.0
896.0
896.0
896.0
895.0
897.0
898.0
902.0
902.0
901.0
901.0
903.0
906.0
911.0
914.0
913.0
913.0
914.0
919.0
925.0
927.0
928.0
929.0
932.0
937.0
941.0
944.0
947.0
949.0
953.0
957.0
958.0
960.0
961.0
961.0
961.0
967.0
973.0
975.0
977.0
977.0
982.0
982.0
988.0
984.0
983.0
985.0
989.0
992.0
994.0
993.0
991.0
991.0
993.0
993.0
995.0
996.0
993.0
990.0
988.0
988.0
991.0
990.0
987.0
985.0
983.0
987.0
988.0
987.0
985.0
982.0
977.0
978.0
979.0
979.0
978.0
979.0
981.0
981.0
982.0
983.0
984.0
983.0
983.0
986.0
984.0
981.0
984.0
987.0
991.0
994.0
997.0
995.0
994.0
995.0
997.0
999.0
994.0
985.0
984.0
984.0
988.0
989.0
991.0
988.0
987.0
986.0
992.0
995.0
998.0
992.0
984.0
970.0
958.0
951.0
954.0
956.0
956.0
951.0
942.0
943.0
946.0
943.0
941.0
937.0
934.0
938.0
944.0
946.0
948.0
948.0
947.0
949.0
951.0
949.0
949.0
949.0
948.0
946.0
951.0
948.0
940.0
937.0
939.0
947.0
950.0
951.0
952.0
948.0
946.0
953.0
959.0
960.0
957.0
955.0
948.0
942.0
941.0
947.0
954.0
959.0
958.0
958.0
956.0
949.0
949.0
952.0
961.0
959.0
958.0
969.0
996.0
1022.0
1043.0
1067.0
1084.0
1091.0
1093.0
1106.0
1118.0
1133.0
1145.0
1146.0
1139.0
1126.0
1118.0
1124.0
1130.0
1124.0
1106.0
1082.0
1068.0
1067.0
1063.0
1052.0
1036.0
1018.0
994.0
968.0
939.0
909.0
881.0
860.0
855.0
855.0
852.0
845.0
839.0
840.0
848.0
854.0
858.0
857.0
865.0
868.0
871.0
871.0
878.0
885.0
888.0
889.0
895.0
904.0
916.0
919.0
916.0
916.0
922.0
926.0
928.0
925.0
915.0
901.0
888.0
894.0
901.0
908.0
909.0
905.0
901.0
901.0
907.0
907.0
902.0
902.0
901.0
907.0
911.0
914.0
913.0
909.0
906.0
905.0
906.0
911.0
913.0
915.0
912.0
912.0
911.0
909.0
915.0
918.0
924.0
925.0
923.0
919.0
919.0
922.0
922.0
927.0
934.0
938.0
939.0
938.0
941.0
941.0
941.0
943.0
942.0
942.0
944.0
952.0
962.0
971.0
971.0
970.0
968.0
971.0
977.0
981.0
983.0
985.0
984.0
981.0
983.0
981.0
985.0
988.0
992.0
991.0
993.0
996.0
1000.0
1002.0
999.0
1000.0
997.0
995.0
997.0
999.0
1002.0
998.0
990.0
985.0
991.0
998.0
1000.0
994.0
987.0
979.0
973.0
969.0
964.0
970.0
973.0
978.0
984.0
986.0
982.0
981.0
983.0
980.0
975.0
974.0
982.0
991.0
992.0
992.0
995.0
1002.0
1004.0
1004.0
1000.0
997.0
997.0
1004.0
1013.0
1019.0
1017.0
1000.0
975.0
958.0
955.0
966.0
980.0
990.0
991.0
981.0
973.0
980.0
985.0
986.0
977.0
963.0
955.0
952.0
945.0
937.0
927.0
926.0
934.0
946.0
952.0
950.0
946.0
940.0
942.0
946.0
951.0
952.0
947.0
940.0
939.0
948.0
952.0
948.0
938.0
941.0
955.0
967.0
957.0
938.0
926.0
931.0
944.0
954.0
951.0
944.0
935.0
931.0
937.0
947.0
958.0
960.0
959.0
949.0
942.0
947.0
952.0
954.0
947.0
941.0
948.0
958.0
958.0
951.0
947.0
948.0
951.0
973.0
1000.0
1026.0
1044.0
1058.0
1062.0
1068.0
1081.0
1101.0
1122.0
1141.0
1158.0
1165.0
1160.0
1149.0
1142.0
1142.0
1139.0
1127.0
