# Simple Text Format
# Sampling Rate (Hz):= 360.00
# Resolution:= 12
# Labels:= ECG
901.0
900.0
903.0
904.0
906.0
908.0
911.0
909.0
909.0
913.0
917.0
921.0
923.0
923.0
925.0
927.0
933.0
938.0
939.0
943.0
943.0
951.0
953.0
956.0
960.0
960.0
962.0
969.0
975.0
975.0
979.0
982.0
981.0
985.0
989.0
992.0
992.0
992.0
993.0
999.0
998.0
1004.0
1002.0
1005.0
1004.0
1008.0
1013.0
1017.0
1017.0
1016.0
1016.0
1019.0
1021.0
1022.0
1021.0
1015.0
1015.0
1013.0
1013.0
1018.0
1015.0
1016.0
1018.0
1019.0
1022.0
1019.0
1016.0
1014.0
1012.0
1011.0
1011.0
1010.0
1007.0
1003.0
1003.0
1005.0
1006.0
1005.0
1005.0
1000.0
995.0
994.0
987.0
981.0
972.0
965.0
961.0
956.0
953.0
951.0
948.0
942.0
940.0
940.0
944.0
942.0
940.0
938.0
938.0
939.0
940.0
943.0
941.0
939.0
937.0
937.0
940.0
941.0
940.0
938.0
938.0
939.0
940.0
942.0
943.0
940.0
940.0
943.0
944.0
944.0
945.0
942.0
945.0
942.0
946.0
947.0
947.0
946.0
946.0
948.0
950.0
950.0
949.0
946.0
942.0
939.0
937.0
935.0
934.0
937.0
948.0
969.0
996.0
1020.0
1043.0
1058.0
1068.0
1087.0
1112.0
1140.0
1165.0
1187.0
1206.0
1226.0
1241.0
1245.0
1249.0
1247.0
1240.0
1228.0
1213.0
1185.0
1158.0
1137.0
1117.0
1097.0
1074.0
1044.0
1011.0
977.0
940.0
911.0
890.0
870.0
855.0
842.0
832.0
827.0
825.0
826.0
826.0
828.0
826.0
827.0
830.0
837.0
844.0
850.0
857.0
862.0
866.0
871.0
873.0
877.0
883.0
888.0
894.0
898.0
895.0
898.0
898.0
902.0
905.0
907.0
903.0
904.0
899.0
901.0
902.0
902.0
901.0
899.0
900.0
900.0
899.0
900.0
900.0
894.0
895.0
897.0
899.0
899.0
898.0
897.0
896.0
898.0
899.0
901.0
899.0
899.0
899.0
902.0
905.0
904.0
906.0
908.0
909.0
912.0
915.0
918.0
919.0
920.0
921.0
925.0
931.0
933.0
934.0
937.0
939.0
945.0
949.0
952.0
958.0
957.0
959.0
965.0
969.0
971.0
973.0
975.0
978.0
983.0
987.0
989.0
993.0
991.0
994.0
999.0
1005.0
1005.0
1004.0
1004.0
1003.0
1009.0
1012.0
1012.0
1016.0
1017.0
1017.0
1021.0
1023.0
1022.0
1022.0
1020.0
1019.0
1020.0
1020.0
1016.0
1017.0
1016.0
1020.0
1023.0
1024.0
1024.0
1022.0
1020.0
1016.0
1014.0
1012.0
1011.0
1008.0
1006.0
1002.0
1005.0
1005.0
1003.0
1004.0
999.0
996.0
993.0
989.0
978.0
972.0
966.0
959.0
956.0
953.0
947.0
946.0
944.0
939.0
941.0
940.0
941.0
936.0
937.0
934.0
937.0
938.0
937.0
936.0
937.0
934.0
936.0
940.0
940.0
939.0
938.0
937.0
940.0
940.0
941.0
941.0
941.0
941.0
939.0
943.0
943.0
942.0
941.0
939.0
941.0
946.0
947.0
945.0
944.0
943.0
946.0
950.0
949.0
947.0
941.0
936.0
938.0
939.0
940.0
947.0
962.0
987.0
1016.0
1044.0
1065.0
1082.0
1094.0
1107.0
1131.0
1155.0
1179.0
1200.0
1219.0
1239.0
1255.0
1265.0
1267.0
1264.0
1255.0
1241.0
1228.0
1205.0
1174.0
1143.0
1118.0
1094.0
1073.0
1044.0
1012.0
975.0
941.0
909.0
883.0
862.0
844.0
832.0
819.0
814.0
816.0
817.0
820.0
821.0
821.0
819.0
825.0
832.0
839.0
848.0
853.0
855.0
859.0
869.0
868.0
871.0
874.0
882.0
885.0
889.0
891.0
896.0
894.0
894.0
897.0
898.0
896.0
896.0
895.0
896.0
898.0
897.0
897.0
897.0
894.0
891.0
889.0
891.0
893.0
890.0
888.0
887.0
887.0
892.0
890.0
888.0
888.0
887.0
890.0
890.0
890.0
892.0
890.0
890.0
894.0
896.0
896.0
899.0
897.0
899.0
901.0
904.0
909.0
909.0
912.0
913.0
918.0
918.0
921.0
925.0
929.0
925.0
931.0
934.0
938.0
941.0
941.0
945.0
950.0
954.0
957.0
956.0
959.0
961.0
967.0
971.0
974.0
975.0
976.0
978.0
982.0
986.0
988.0
988.0
990.0
990.0
993.0
998.0
997.0
997.0
996.0
998.0
999.0
1003.0
1004.0
1004.0
1005.0
1008.0
1008.0
1011.0
1014.0
1013.0
1008.0
1009.0
1010.0
1012.0
1012.0
1005.0
1004.0
1001.0
1002.0
1005.0
1008.0
1010.0
1010.0
1008.0
1010.0
1011.0
1011.0
1007.0
1002.0
999.0
997.0
1001.0
999.0
998.0
995.0
993.0
994.0
996.0
995.0
993.0
987.0
983.0
983.0
978.0
971.0
966.0
958.0
953.0
950.0
946.0
945.0
943.0
937.0
937.0
936.0
935.0
936.0
931.0
932.0
930.0
932.0
937.0
936.0
935.0
934.0
933.0
935.0
936.0
937.0
937.0
935.0
936.0
934.0
937.0
939.0
937.0
936.0
936.0
937.0
941.0
939.0
939.0
939.0
941.0
942.0
942.0
943.0
944.0
942.0
943.0
946.0
948.0
947.0
945.0
940.0
937.0
937.0
941.0
944.0
951.0
967.0
992.0
1023.0
1049.0
1072.0
1087.0
1095.0
1104.0
1127.0
1150.0
1169.0
1190.0
1209.0
1225.0
1236.0
1240.0
1237.0
1233.0
1224.0
1213.0
1196.0
1175.0
1148.0
1124.0
1103.0
1082.0
1060.0
1034.0
1000.0
965.0
933.0
905.0
880.0
859.0
846.0
835.0
824.0
823.0
820.0
824.0
825.0
828.0
824.0
826.0
833.0
840.0
849.0
856.0
859.0
860.0
868.0
871.0
876.0
879.0
884.0
887.0
892.0
897.0
896.0
899.0
898.0
901.0
901.0
903.0
902.0
901.0
900.0
899.0
898.0
902.0
900.0
900.0
894.0
892.0
896.0
896.0
894.0
895.0
894.0
893.0
893.0
896.0
895.0
896.0
894.0
893.0
897.0
898.0
899.0
895.0
895.0
894.0
898.0
901.0
904.0
904.0
903.0
905.0
908.0
911.0
914.0
915.0
917.0
918.0
921.0
924.0
929.0
932.0
932.0
936.0
940.0
944.0
949.0
950.0
952.0
954.0
957.0
964.0
967.0
969.0
968.0
971.0
977.0
982.0
983.0
983.0
984.0
986.0
991.0
994.0
997.0
997.0
995.0
998.0
999.0
1002.0
1001.0
1002.0
1001.0
1001.0
1003.0
1007.0
1007.0
1006.0
1007.0
1008.0
1010.0
1012.0
1013.0
1014.0
1010.0
1008.0
1012.0
1013.0
1014.0
1010.0
1006.0
1004.0
1005.0
1007.0
1009.0
1008.0
1008.0
1009.0
1011.0
1014.0
1011.0
1012.0
1008.0
1007.0
1006.0
1005.0
1003.0
1003.0
999.0
996.0
999.0
1001.0
1003.0
1000.0
1000.0
992.0
992.0
991.0
984.0
975.0
969.0
963.0
961.0
957.0
952.0
948.0
943.0
940.0
941.0
942.0
941.0
940.0
937.0
937.0
938.0
938.0
939.0
937.0
935.0
938.0
938.0
939.0
940.0
937.0
933.0
935.0
938.0
939.0
939.0
940.0
940.0
941.0
942.0
944.0
944.0
943.0
940.0
939.0
940.0
944.0
945.0
944.0
944.0
943.0
946.0
949.0
950.0
947.0
946.0
947.0
948.0
946.0
942.0
940.0
936.0
938.0
940.0
955.0
972.0
993.0
1014.0
1035.0
1055.0
1069.0
1077.0
1095.0
1120.0
1144.0
1172.0
1192.0
1208.0
1221.0
1226.0
1229.0
1226.0
1226.0
1215.0
1194.0
1164.0
1140.0
1122.0
1107.0
1082.0
1052.0
1023.0
989.0
955.0
927.0
899.0
874.0
860.0
849.0
843.0
841.0
836.0
839.0
839.0
837.0
839.0
839.0
847.0
851.0
856.0
861.0
869.0
876.0
879.0
883.0
882.0
889.0
894.0
900.0
905.0
904.0
903.0
905.0
907.0
908.0
912.0
908.0
906.0
905.0
906.0
909.0
906.0
904.0
901.0
902.0
902.0
905.0
904.0
901.0
900.0
898.0
900.0
901.0
900.0
900.0
898.0
899.0
902.0
904.0
905.0
905.0
905.0
905.0
909.0
913.0
912.0
917.0
914.0
919.0
921.0
925.0
927.0
928.0
929.0
932.0
937.0
942.0
945.0
947.0
945.0
952.0
956.0
962.0
965.0
968.0
968.0
971.0
977.0
982.0
985.0
985.0
985.0
988.0
994.0
996.0
998.0
998.0
999.0
999.0
1002.0
1008.0
1006.0
1007.0
1004.0
1005.0
1008.0
1011.0
1011.0
1009.0
1010.0
1009.0
1014.0
1017.0
1017.0
1019.0
1015.0
1015.0
1016.0
1018.0
1017.0
1016.0
1014.0
1014.0
1018.0
1022.0
1022.0
1020.0
1019.0
1018.0
1018.0
1020.0
1019.0
1010.0
1008.0
1007.0
1009.0
1012.0
1013.0
1010.0
1007.0
1005.0
1003.0
999.0
994.0
985.0
980.0
972.0
967.0
964.0
958.0
954.0
950.0
948.0
947.0
950.0
949.0
945.0
944.0
943.0
944.0
946.0
945.0
945.0
943.0
943.0
944.0
946.0
947.0
945.0
944.0
945.0
949.0
949.0
949.0
947.0
948.0
946.0
948.0
952.0
951.0
951.0
949.0
949.0
952.0
952.0
951.0
952.0
953.0
952.0
954.0
957.0
956.0
955.0
954.0
948.0
945.0
944.0
943.0
942.0
950.0
966.0
994.0
1021.0
1047.0
1063.0
1074.0
1088.0
1114.0
1144.0
1171.0
1192.0
1211.0
1230.0
1244.0
1255.0
1257.0
1255.0
1248.0
1236.0
1220.0
1193.0
1168.0
1146.0
1126.0
1104.0
1080.0
1050.0
1017.0
981.0
946.0
912.0
889.0
872.0
859.0
846.0
839.0
835.0
836.0
839.0
840.0
840.0
838.0
838.0
848.0
857.0
867.0
870.0
873.0
876.0
883.0
889.0
893.0
896.0
898.0
900.0
903.0
909.0
910.0
909.0
907.0
907.0
908.0
911.0
906.0
907.0
905.0
903.0
908.0
908.0
908.0
905.0
904.0
902.0
904.0
903.0
903.0
902.0
901.0
900.0
903.0
904.0
903.0
903.0
899.0
900.0
901.0
907.0
908.0
907.0
907.0
908.0
913.0
917.0
919.0
918.0
919.0
922.0
928.0
930.0
932.0
936.0
938.0
942.0
946.0
952.0
951.0
957.0
958.0
961.0
968.0
971.0
974.0
975.0
976.0
979.0
985.0
987.0
992.0
994.0
995.0
996.0
1001.0
1003.0
1000.0
1002.0
1003.0
1002.0
1009.0
1010.0
1010.0
1009.0
1011.0
1009.0
1010.0
1010.0
1011.0
1014.0
1014.0
1015.0
1018.0
1019.0
1018.0
1014.0
1012.0
1012.0
1015.0
1017.0
1016.0
1016.0
1016.0
1018.0
1019.0
1021.0
1019.0
1016.0
1013.0
1008.0
1007.0
1009.0
1008.0
1006.0
1003.0
1004.0
1005.0
1005.0
1001.0
996.0
986.0
978.0
974.0
969.0
963.0
958.0
952.0
946.0
945.0
947.0
948.0
945.0
943.0
941.0
943.0
943.0
945.0
945.0
942.0
941.0
943.0
945.0
947.0
945.0
944.0
944.0
943.0
946.0
945.0
946.0
943.0
943.0
948.0
950.0
948.0
947.0
948.0
946.0
951.0
952.0
954.0
951.0
951.0
953.0
955.0
958.0
956.0
955.0
949.0
947.0
945.0
945.0
948.0
955.0
973.0
999.0
1029.0
1057.0
1076.0
1091.0
1108.0
1136.0
1168.0
1196.0
1221.0
1238.0
1251.0
1259.0
1266.0
1265.0
1258.0
1244.0
1218.0
1185.0
1156.0
1134.0
1112.0
1082.0
1047.0
1008.0
972.0
941.0
908.0
880.0
862.0
849.0
843.0
836.0
834.0
833.0
833.0
833.0
835.0
837.0
841.0
851.0
857.0
863.0
869.0
878.0
880.0
884.0
890.0
893.0
902.0
906.0
909.0
907.0
908.0
909.0
911.0
914.0
913.0
909.0
907.0
906.0
907.0
911.0
909.0
906.0
905.0
902.0
903.0
904.0
905.0
903.0
900.0
899.0
901.0
904.0
901.0
901.0
898.0
899.0
903.0
907.0
908.0
906.0
902.0
905.0
911.0
914.0
913.0
914.0
916.0
919.0
921.0
926.0
932.0
931.0
936.0
940.0
944.0
950.0
953.0
952.0
956.0
960.0
963.0
968.0
969.0
972.0
976.0
976.0
983.0
986.0
989.0
990.0
989.0
994.0
998.0
1002.0
1003.0
1005.0
1004.0
1004.0
1007.0
1013.0
1013.0
1013.0
1011.0
1009.0
1012.0
1016.0
1015.0
1014.0
1013.0
1012.0
1016.0
1017.0
1022.0
1020.0
1019.0
1016.0
1020.0
1022.0
1020.0
1018.0
1018.0
1014.0
1019.0
1022.0
1020.0
1020.0
1021.0
1020.0
1020.0
1025.0
1017.0
1015.0
1012.0
1008.0
1010.0
1012.0
1011.0
1009.0
1007.0
1007.0
1007.0
1006.0
1001.0
993.0
987.0
978.0
975.0
973.0
967.0
961.0
957.0
952.0
954.0
953.0
953.0
949.0
948.0
946.0
948.0
951.0
950.0
949.0
948.0
948.0
951.0
952.0
950.0
952.0
949.0
948.0
951.0
955.0
953.0
952.0
951.0
951.0
953.0
954.0
955.0
955.0
954.0
953.0
957.0
959.0
959.0
958.0
959.0
957.0
960.0
963.0
963.0
961.0
959.0
960.0
959.0
959.0
955.0
951.0
949.0
952.0
966.0
990.0
1016.0
1040.0
1061.0
1080.0
1097.0
1117.0
1140.0
1168.0
1192.0
1217.0
1241.0
1263.0
1275.0
1280.0
1280.0
1275.0
1267.0
1252.0
1222.0
1189.0
1162.0
1138.0
1116.0
1092.0
1056.0
1019.0
981.0
946.0
917.0
894.0
871.0
858.0
844.0
837.0
836.0
838.0
840.0
839.0
836.0
839.0
845.0
856.0
864.0
869.0
871.0
878.0
881.0
888.0
892.0
895.0
901.0
902.0
910.0
911.0
912.0
915.0
917.0
915.0
915.0
916.0
914.0
912.0
910.0
911.0
911.0
915.0
915.0
914.0
912.0
907.0
909.0
911.0
910.0
909.0
907.0
906.0
908.0
910.0
910.0
909.0
906.0
905.0
908.0
913.0
912.0
912.0
913.0
910.0
918.0
923.0
922.0
925.0
924.0
925.0
930.0
936.0
937.0
937.0
940.0
941.0
948.0
953.0
955.0
957.0
959.0
963.0
966.0
972.0
974.0
979.0
980.0
981.0
988.0
991.0
993.0
995.0
995.0
999.0
1004.0
1005.0
1005.0
1008.0
1010.0
1011.0
1015.0
1018.0
1019.0
1018.0
1017.0
1017.0
1022.0
1021.0
1019.0
1021.0
1020.0
1020.0
1023.0
1025.0
1024.0
1024.0
1024.0
1024.0
1027.0
1028.0
1023.0
1024.0
1022.0
1020.0
1021.0
1023.0
1022.0
1021.0
1018.0
1020.0
1022.0
1026.0
1026.0
1024.0
1021.0
1019.0
1020.0
1020.0
1017.0
1015.0
1013.0
1011.0
1012.0
1016.0
1014.0
1013.0
1009.0
1007.0
1005.0
1004.0
999.0
990.0
984.0
980.0
979.0
977.0
971.0
965.0
961.0
960.0
959.0
960.0
959.0
957.0
955.0
956.0
954.0
959.0
958.0
955.0
956.0
956.0
956.0
957.0
958.0
955.0
955.0
955.0
958.0
960.0
959.0
960.0
959.0
957.0
961.0
964.0
963.0
966.0
962.0
963.0
965.0
967.0
965.0
966.0
964.0
965.0
969.0
969.0
970.0
969.0
970.0
966.0
968.0
967.0
963.0
961.0
963.0
969.0
992.0
1022.0
1052.0
1076.0
1098.0
1113.0
1128.0
1148.0
1171.0
1197.0
1220.0
1242.0
1267.0
1287.0
1297.0
1300.0
1293.0
1286.0
1272.0
1254.0
1220.0
1188.0
1161.0
1135.0
1111.0
1083.0
1044.0
1005.0
966.0
932.0
904.0
881.0
862.0
847.0
837.0
835.0
837.0
840.0
842.0
841.0
842.0
844.0
855.0
866.0
872.0
877.0
881.0
885.0
887.0
893.0
899.0
907.0
908.0
913.0
916.0
918.0
918.0
919.0
918.0
916.0
919.0
920.0
918.0
917.0
914.0
914.0
916.0
915.0
912.0
913.0
910.0
907.0
909.0
911.0
912.0
908.0
909.0
907.0
910.0
912.0
910.0
909.0
908.0
910.0
913.0
917.0
917.0
921.0
919.0
919.0
925.0
928.0
932.0
932.0
933.0
936.0
941.0
945.0
949.0
952.0
955.0
956.0
960.0
967.0
969.0
971.0
973.0
975.0
984.0
987.0
990.0
992.0
994.0
998.0
1001.0
1008.0
1011.0
1009.0
1010.0
1011.0
1013.0
1018.0
1019.0
1019.0
1017.0
1018.0
1021.0
1021.0
1020.0
1019.0
1016.0
1015.0
1018.0
1020.0
1019.0
1019.0
1021.0
1021.0
1022.0
1025.0
1023.0
1019.0
1019.0
1017.0
1016.0
1020.0
1017.0
1017.0
1018.0
1023.0
1023.0
1023.0
1023.0
1022.0
1019.0
1017.0
1014.0
1015.0
1014.0
1014.0
1012.0
1009.0
1014.0
1016.0
1014.0
1010.0
1007.0
1001.0
997.0
995.0
988.0
980.0
978.0
972.0
966.0
970.0
963.0
960.0
957.0
956.0
959.0
959.0
959.0
956.0
955.0
955.0
957.0
961.0
956.0
956.0
955.0
954.0
959.0
961.0
960.0
958.0
958.0
957.0
959.0
962.0
960.0
959.0
960.0
958.0
961.0
964.0
965.0
963.0
960.0
960.0
964.0
968.0
966.0
964.0
967.0
968.0
969.0
970.0
970.0
966.0
962.0
962.0
964.0
967.0
974.0
991.0
1015.0
1042.0
1069.0
1093.0
1107.0
1117.0
1131.0
1152.0
1179.0
1202.0
1221.0
1238.0
1253.0
1260.0
1266.0
1268.0
1268.0
1256.0
1247.0
1226.0
1200.0
1175.0
1151.0
1130.0
1108.0
1084.0
1056.0
1024.0
990.0
959.0
930.0
905.0
885.0
872.0
860.0
850.0
844.0
846.0
847.0
850.0
852.0
850.0
852.0
859.0
868.0
879.0
884.0
886.0
889.0
893.0
895.0
903.0
908.0
912.0
915.0
915.0
922.0
921.0
921.0
921.0
918.0
918.0
919.0
922.0
921.0
919.0
917.0
915.0
916.0
918.0
917.0
915.0
915.0
914.0
916.0
918.0
917.0
915.0
915.0
915.0
917.0
917.0
916.0
915.0
914.0
914.0
919.0
923.0
922.0
921.0
922.0
924.0
924.0
930.0
932.0
933.0
936.0
938.0
941.0
946.0
949.0
952.0
953.0
954.0
961.0
966.0
969.0
970.0
971.0
976.0
980.0
986.0
987.0
992.0
992.0
997.0
999.0
1003.0
1004.0
1006.0
1007.0
1009.0
1013.0
1017.0
1017.0
1017.0
1018.0
1016.0
1018.0
1022.0
1020.0
1021.0
1015.0
1016.0
1018.0
1022.0
1019.0
1021.0
1018.0
1019.0
1024.0
1025.0
1025.0
1023.0
1021.0
1021.0
1023.0
1022.0
1022.0
1022.0
1021.0
1023.0
1027.0
1028.0
1030.0
1025.0
1025.0
1023.0
1024.0
1024.0
1019.0
1017.0
1013.0
1012.0
1016.0
1017.0
1017.0
1016.0
1012.0
1009.0
1004.0
1003.0
996.0
987.0
981.0
976.0
975.0
971.0
965.0
963.0
960.0
957.0
957.0
960.0
958.0
956.0
954.0
953.0
957.0
958.0
959.0
958.0
955.0
958.0
961.0
961.0
959.0
957.0
958.0
957.0
958.0
960.0
959.0
959.0
957.0
956.0
961.0
962.0
962.0
963.0
960.0
961.0
963.0
968.0
967.0
966.0
965.0
966.0
968.0
968.0
965.0
960.0
954.0
954.0
955.0
959.0
970.0
989.0
1014.0
1042.0
1064.0
1080.0
1089.0
1107.0
1133.0
1161.0
1187.0
1212.0
1227.0
1239.0
1247.0
1251.0
1252.0
1252.0
1243.0
1222.0
1195.0
1167.0
1147.0
1133.0
1113.0
1085.0
1056.0
1024.0
994.0
967.0
939.0
910.0
890.0
874.0
867.0
860.0
855.0
850.0
850.0
851.0
853.0
856.0
855.0
860.0
865.0
874.0
881.0
886.0
890.0
892.0
895.0
899.0
906.0
913.0
918.0
919.0
919.0
920.0
923.0
926.0
927.0
924.0
921.0
921.0
920.0
922.0
923.0
919.0
917.0
917.0
918.0
918.0
919.0
917.0
913.0
911.0
913.0
915.0
918.0
914.0
914.0
913.0
912.0
918.0
916.0
915.0
913.0
915.0
918.0
922.0
922.0
921.0
922.0
925.0
928.0
929.0
933.0
932.0
933.0
936.0
936.0
945.0
947.0
949.0
951.0
951.0
957.0
963.0
965.0
965.0
968.0
968.0
973.0
979.0
985.0
985.0
986.0
985.0
990.0
997.0
1000.0
1000.0
1002.0
1003.0
1006.0
1008.0
1009.0
1009.0
1010.0
1012.0
1013.0
1014.0
1016.0
1015.0
1016.0
1015.0
1017.0
1017.0
1018.0
1016.0
1014.0
1013.0
1017.0
1018.0
1020.0
1019.0
1020.0
1020.0
1020.0
1022.0
1021.0
1019.0
1014.0
1015.0
1016.0
1018.0
1020.0
1018.0
1017.0
1019.0
1021.0
1023.0
1019.0
1016.0
1016.0
1014.0
1011.0
1010.0
1011.0
1011.0
1008.0
1007.0
1008.0
1012.0
1010.0
1005.0
1001.0
995.0
991.0
986.0
984.0
977.0
970.0
964.0
963.0
962.0
958.0
955.0
953.0
951.0
952.0
954.0
953.0
952.0
953.0
952.0
953.0
955.0
955.0
952.0
953.0
953.0
955.0
958.0
956.0
955.0
954.0
954.0
956.0
956.0
955.0
957.0
956.0
957.0
958.0
959.0
959.0
960.0
958.0
960.0
962.0
965.0
964.0
965.0
963.0
964.0
965.0
967.0
968.0
965.0
961.0
960.0
954.0
953.0
954.0
957.0
964.0
983.0
1011.0
1035.0
1058.0
1073.0
1083.0
1100.0
1126.0
1153.0
1179.0
1198.0
1216.0
1235.0
1249.0
1259.0
1264.0
1259.0
1257.0
1244.0
1230.0
1203.0
1175.0
1155.0
1134.0
1113.0
1090.0
1064.0
1032.0
995.0
961.0
930.0
908.0
890.0
876.0
865.0
857.0
850.0
851.0
851.0
853.0
851.0
849.0
851.0
856.0
862.0
872.0
877.0
880.0
884.0
890.0
895.0
898.0
899.0
906.0
910.0
916.0
920.0
923.0
921.0
923.0
921.0
924.0
925.0
924.0
922.0
921.0
918.0
920.0
922.0
923.0
919.0
917.0
916.0
919.0
918.0
918.0
914.0
913.0
914.0
916.0
916.0
915.0
914.0
913.0
913.0
913.0
916.0
914.0
915.0
914.0
917.0
922.0
923.0
925.0
922.0
924.0
926.0
928.0
933.0
934.0
932.0
934.0
938.0
941.0
945.0
946.0
947.0
950.0
954.0
958.0
964.0
967.0
966.0
967.0
972.0
975.0
980.0
983.0
985.0
986.0
987.0
992.0
995.0
1000.0
1000.0
1003.0
1002.0
1006.0
1010.0
1011.0
1012.0
1012.0
1012.0
1015.0
1019.0
1022.0
1019.0
1019.0
1018.0
1020.0
1021.0
1021.0
1019.0
1017.0
1017.0
1018.0
1020.0
1017.0
1018.0
1016.0
1017.0
1020.0
1023.0
1022.0
1020.0
1017.0
1019.0
1020.0
1020.0
1018.0
1017.0
1015.0
1017.0
1018.0
1022.0
1020.0
1024.0
1020.0
1018.0
1021.0
1023.0
1022.0
1017.0
1012.0
1011.0
1011.0
1012.0
1011.0
1011.0
1009.0
1010.0
1012.0
1014.0
1009.0
1006.0
998.0
991.0
987.0
982.0
980.0
974.0
966.0
963.0
959.0
958.0
955.0
954.0
953.0
952.0
954.0
954.0
954.0
952.0
951.0
951.0
952.0
955.0
957.0
955.0
955.0
953.0
957.0
960.0
959.0
958.0
954.0
954.0
957.0
960.0
959.0
958.0
955.0
957.0
958.0
962.0
961.0
960.0
958.0
959.0
962.0
964.0
965.0
962.0
962.0
961.0
964.0
966.0
965.0
960.0
952.0
950.0
954.0
961.0
978.0
998.0
1027.0
1056.0
1079.0
1094.0
1109.0
1134.0
1159.0
1190.0
1213.0
1239.0
1255.0
1263.0
1265.0
1268.0
1264.0
1258.0
1239.0
1211.0
1174.0
1152.0
1135.0
1111.0
1085.0
1052.0
1014.0
980.0
949.0
924.0
901.0
879.0
864.0
854.0
850.0
848.0
847.0
847.0
847.0
848.0
851.0
854.0
858.0
865.0
870.0
876.0
883.0
889.0
893.0
894.0
898.0
903.0
909.0
913.0
915.0
914.0
915.0
917.0
917.0
917.0
920.0
917.0
914.0
915.0
915.0
916.0
914.0
912.0
908.0
910.0
910.0
913.0
912.0
910.0
909.0
909.0
910.0
911.0
909.0
907.0
906.0
908.0
910.0
912.0
911.0
910.0
908.0
910.0
912.0
916.0
918.0
916.0
915.0
919.0
923.0
927.0
928.0
928.0
927.0
931.0
936.0
941.0
942.0
945.0
946.0
949.0
952.0
956.0
961.0
964.0
965.0
968.0
972.0
975.0
980.0
981.0
981.0
985.0
989.0
990.0
994.0
996.0
999.0
1000.0
1003.0
1005.0
1006.0
1006.0
1006.0
1009.0
1008.0
1010.0
1013.0
1011.0
1008.0
1010.0
1011.0
1013.0
1014.0
1013.0
1011.0
1009.0
1011.0
1014.0
1013.0
1012.0
1010.0
1013.0
1014.0
1014.0
1015.0
1015.0
1007.0
1009.0
1010.0
1011.0
1011.0
1009.0
1008.0
1009.0
1013.0
1016.0
1015.0
1011.0
1009.0
1010.0
1011.0
1011.0
1007.0
1002.0
1000.0
1002.0
1001.0
1003.0
1003.0
1001.0
996.0
997.0
997.0
997.0
994.0
989.0
983.0
976.0
972.0
969.0
963.0
958.0
951.0
950.0
950.0
949.0
949.0
946.0
945.0
939.0
943.0
946.0
945.0
942.0
943.0
945.0
945.0
947.0
947.0
944.0
942.0
942.0
945.0
946.0
946.0
945.0
942.0
944.0
949.0
949.0
948.0
944.0
946.0
945.0
947.0
949.0
950.0
949.0
946.0
947.0
951.0
953.0
952.0
951.0
950.0
951.0
953.0
957.0
955.0
956.0
952.0
950.0
949.0
948.0
944.0
942.0
941.0
949.0
966.0
991.0
1019.0
1041.0
1057.0
1073.0
1089.0
1105.0
1131.0
1156.0
1179.0
1204.0
1227.0
1248.0
1262.0
1269.0
1271.0
1267.0
1264.0
1253.0
1233.0
1201.0
1169.0
1143.0
1123.0
1103.0
1073.0
1040.0
1002.0
966.0
935.0
909.0
885.0
863.0
847.0
836.0
831.0
828.0
829.0
827.0
830.0
829.0
830.0
836.0
843.0
848.0
855.0
863.0
867.0
874.0
876.0
883.0
884.0
889.0
895.0
902.0
902.0
901.0
900.0
901.0
903.0
904.0
903.0
900.0
898.0
899.0
901.0
903.0
902.0
900.0
897.0
896.0
896.0
899.0
897.0
896.0
893.0
891.0
892.0
893.0
893.0
892.0
891.0
892.0
894.0
894.0
894.0
891.0
891.0
897.0
899.0
900.0
902.0
903.0
902.0
906.0
910.0
914.0
916.0
916.0
917.0
922.0
926.0
932.0
932.0
937.0
936.0
939.0
944.0
947.0
954.0
952.0
953.0
957.0
960.0
966.0
970.0
970.0
972.0
972.0
980.0
984.0
985.0
984.0
985.0
988.0
992.0
994.0
997.0
995.0
994.0
996.0
1000.0
1001.0
1002.0
1001.0
998.0
999.0
999.0
1000.0
1001.0
1000.0
999.0
998.0
1000.0
1001.0
1002.0
1001.0
999.0
1002.0
1003.0
1002.0
1001.0
1002.0
999.0
996.0
1001.0
1001.0
1002.0
1000.0
997.0
998.0
1002.0
1003.0
1003.0
1000.0
997.0
996.0
997.0
996.0
994.0
992.0
991.0
991.0
993.0
994.0
995.0
992.0
987.0
987.0
984.0
983.0
977.0
971.0
963.0
960.0
957.0
954.0
950.0
942.0
939.0
936.0
938.0
939.0
938.0
935.0
931.0
932.0
934.0
937.0
936.0
934.0
932.0
931.0
936.0
936.0
936.0
934.0
935.0
934.0
936.0
939.0
936.0
933.0
933.0
936.0
938.0
940.0
941.0
940.0
939.0
940.0
940.0
942.0
944.0
942.0
941.0
942.0
946.0
945.0
946.0
945.0
942.0
942.0
946.0
947.0
944.0
940.0
931.0
931.0
933.0
935.0
945.0
960.0
984.0
1010.0
1035.0
1056.0
1070.0
1084.0
1104.0
1130.0
1156.0
1181.0
1205.0
1223.0
1239.0
1256.0
1262.0
1267.0
1267.0
1260.0
1248.0
1230.0
1203.0
1173.0
1148.0
1125.0
1099.0
1074.0
1044.0
1012.0
975.0
936.0
903.0
878.0
856.0
843.0
832.0
822.0
819.0
816.0
819.0
822.0
823.0
820.0
821.0
825.0
835.0
846.0
854.0
858.0
859.0
864.0
869.0
876.0
881.0
882.0
884.0
888.0
891.0
894.0
897.0
895.0
895.0
891.0
893.0
891.0
892.0
889.0
888.0
887.0
890.0
889.0
888.0
887.0
883.0
884.0
885.0
888.0
885.0
885.0
881.0
882.0
884.0
881.0
884.0
882.0
879.0
880.0
885.0
885.0
888.0
887.0
887.0
890.0
894.0
898.0
899.0
900.0
899.0
902.0
908.0
910.0
913.0
916.0
915.0
920.0
923.0
929.0
933.0
934.0
936.0
941.0
946.0
950.0
951.0
955.0
955.0
961.0
966.0
969.0
972.0
974.0
976.0
979.0
983.0
985.0
987.0
987.0
986.0
990.0
992.0
992.0
993.0
991.0
990.0
992.0
992.0
992.0
992.0
990.0
986.0
987.0
990.0
991.0
991.0
993.0
991.0
993.0
993.0
992.0
993.0
989.0
986.0
988.0
990.0
994.0
993.0
992.0
990.0
992.0
992.0
994.0
993.0
988.0
981.0
980.0
983.0
982.0
983.0
981.0
982.0
982.0
981.0
979.0
975.0
970.0
958.0
955.0
949.0
947.0
942.0
934.0
929.0
928.0
930.0
932.0
932.0
927.0
926.0
925.0
928.0
930.0
930.0
927.0
927.0
926.0
928.0
932.0
930.0
927.0
927.0
927.0
931.0
930.0
928.0
931.0
929.0
929.0
932.0
934.0
935.0
935.0
932.0
934.0
935.0
938.0
938.0
939.0
938.0
937.0
938.0
942.0
943.0
940.0
935.0
937.0
935.0
933.0
932.0
931.0
934.0
949.0
974.0
998.0
1027.0
1052.0
1072.0
1087.0
1107.0
1133.0
1161.0
1190.0
1211.0
1235.0
1254.0
1267.0
1271.0
1270.0
1260.0
1249.0
1228.0
1199.0
1163.0
1132.0
1103.0
1078.0
1049.0
1017.0
979.0
942.0
909.0
885.0
860.0
839.0
824.0
813.0
807.0
805.0
809.0
812.0
814.0
812.0
811.0
818.0
828.0
838.0
845.0
848.0
852.0
855.0
862.0
866.0
870.0
874.0
877.0
880.0
884.0
886.0
890.0
887.0
887.0
887.0
886.0
889.0
887.0
886.0
882.0
884.0
882.0
885.0
886.0
881.0
878.0
881.0
881.0
882.0
882.0
880.0
875.0
878.0
878.0
879.0
879.0
878.0
878.0
880.0
883.0
884.0
883.0
882.0
883.0
885.0
889.0
893.0
893.0
894.0
894.0
897.0
901.0
906.0
909.0
912.0
911.0
913.0
920.0
926.0
928.0
932.0
933.0
937.0
943.0
948.0
950.0
953.0
953.0
956.0
961.0
967.0
968.0
971.0
970.0
973.0
975.0
980.0
982.0
982.0
982.0
983.0
986.0
990.0
989.0
987.0
986.0
987.0
990.0
989.0
989.0
987.0
985.0
986.0
988.0
989.0
987.0
987.0
987.0
987.0
989.0
990.0
989.0
989.0
985.0
984.0
986.0
987.0
988.0
988.0
988.0
990.0
990.0
991.0
986.0
988.0
984.0
982.0
981.0
985.0
985.0
984.0
980.0
979.0
979.0
983.0
980.0
975.0
965.0
960.0
955.0
951.0
947.0
940.0
936.0
935.0
937.0
938.0
937.0
933.0
929.0
929.0
932.0
936.0
935.0
932.0
930.0
933.0
933.0
935.0
935.0
