# Simple Text Format
# Sampling Rate (Hz):= 360.00
# Resolution:= 12
# Labels:= ECG
1003.0
1001.0
997.0
992.0
985.0
978.0
978.0
977.0
979.0
979.0
977.0
975.0
975.0
975.0
977.0
977.0
975.0
974.0
975.0
977.0
976.0
975.0
974.0
971.0
972.0
973.0
974.0
976.0
973.0
972.0
975.0
978.0
980.0
977.0
977.0
975.0
977.0
980.0
982.0
978.0
980.0
977.0
979.0
980.0
982.0
982.0
981.0
982.0
985.0
987.0
986.0
986.0
981.0
980.0
976.0
980.0
980.0
989.0
1004.0
1029.0
1060.0
1086.0
1111.0
1128.0
1137.0
1149.0
1174.0
1199.0
1226.0
1250.0
1264.0
1275.0
1278.0
1274.0
1269.0
1254.0
1230.0
1196.0
1165.0
1138.0
1117.0
1092.0
1059.0
1019.0
984.0
952.0
925.0
901.0
880.0
864.0
859.0
861.0
861.0
864.0
864.0
862.0
867.0
873.0
881.0
890.0
895.0
899.0
902.0
909.0
911.0
918.0
920.0
923.0
927.0
933.0
934.0
936.0
937.0
934.0
936.0
935.0
936.0
935.0
932.0
929.0
930.0
930.0
932.0
929.0
926.0
925.0
925.0
926.0
926.0
926.0
926.0
922.0
922.0
925.0
925.0
924.0
923.0
924.0
929.0
927.0
930.0
929.0
929.0
928.0
932.0
939.0
939.0
941.0
944.0
945.0
951.0
953.0
958.0
961.0
963.0
963.0
967.0
972.0
975.0
978.0
981.0
980.0
985.0
993.0
996.0
998.0
998.0
1001.0
1005.0
1009.0
1011.0
1014.0
1014.0
1014.0
1018.0
1022.0
1024.0
1026.0
1027.0
1024.0
1024.0
1027.0
1027.0
1027.0
1025.0
1023.0
1023.0
1025.0
1027.0
1023.0
1021.0
1020.0
1020.0
1020.0
1022.0
1021.0
1020.0
1021.0
1022.0
1024.0
1025.0
1023.0
1022.0
1022.0
1022.0
1022.0
1022.0
1020.0
1020.0
1017.0
1019.0
1025.0
1027.0
1028.0
1027.0
1024.0
1025.0
1029.0
1029.0
1029.0
1023.0
1019.0
1022.0
1024.0
1027.0
1027.0
1026.0
1026.0
1028.0
1025.0
1025.0
1018.0
1009.0
1002.0
998.0
994.0
994.0
988.0
984.0
980.0
980.0
984.0
981.0
982.0
979.0
977.0
979.0
980.0
981.0
980.0
979.0
976.0
978.0
983.0
984.0
981.0
981.0
979.0
980.0
983.0
983.0
983.0
984.0
982.0
981.0
984.0
986.0
987.0
984.0
982.0
983.0
987.0
989.0
986.0
986.0
985.0
990.0
991.0
991.0
991.0
990.0
989.0
990.0
991.0
991.0
989.0
987.0
981.0
979.0
980.0
984.0
992.0
1009.0
1033.0
1064.0
1089.0
1108.0
1120.0
1134.0
1155.0
1187.0
1213.0
1238.0
1258.0
1273.0
1282.0
1289.0
1290.0
1287.0
1279.0
1261.0
1230.0
1196.0
1173.0
1152.0
1132.0
1101.0
1065.0
1028.0
994.0
966.0
938.0
915.0
898.0
886.0
877.0
874.0
873.0
871.0
871.0
873.0
876.0
878.0
884.0
893.0
899.0
906.0
912.0
916.0
920.0
923.0
925.0
929.0
937.0
941.0
941.0
944.0
940.0
942.0
940.0
941.0
939.0
940.0
937.0
937.0
937.0
938.0
937.0
934.0
933.0
933.0
933.0
934.0
936.0
933.0
930.0
931.0
934.0
935.0
932.0
928.0
925.0
932.0
929.0
935.0
932.0
934.0
932.0
932.0
935.0
938.0
940.0
942.0
941.0
944.0
948.0
952.0
955.0
955.0
956.0
959.0
965.0
965.0
969.0
972.0
973.0
976.0
983.0
985.0
988.0
988.0
990.0
993.0
1000.0
1005.0
1007.0
1007.0
1009.0
1012.0
1018.0
1021.0
1022.0
1023.0
1025.0
1026.0
1028.0
1029.0
1031.0
1030.0
1028.0
1031.0
1032.0
1033.0
1031.0
1032.0
1031.0
1029.0
1030.0
1031.0
1030.0
1027.0
1027.0
1027.0
1028.0
1029.0
1029.0
1028.0
1028.0
1031.0
1031.0
1033.0
1032.0
1030.0
1027.0
1024.0
1026.0
1024.0
1024.0
1021.0
1023.0
1026.0
1029.0
1032.0
1033.0
1031.0
1027.0
1026.0
1028.0
1030.0
1029.0
1025.0
1024.0
1023.0
1025.0
1027.0
1030.0
1028.0
1028.0
1026.0
1024.0
1021.0
1014.0
1006.0
997.0
999.0
995.0
994.0
988.0
984.0
982.0
982.0
985.0
984.0
981.0
981.0
977.0
979.0
984.0
982.0
983.0
983.0
980.0
980.0
980.0
983.0
983.0
981.0
980.0
980.0
982.0
982.0
982.0
982.0
981.0
983.0
983.0
983.0
984.0
983.0
980.0
982.0
987.0
988.0
986.0
984.0
983.0
984.0
987.0
988.0
989.0
987.0
987.0
985.0
989.0
990.0
991.0
986.0
982.0
980.0
976.0
975.0
974.0
978.0
993.0
1016.0
1045.0
1072.0
1094.0
1110.0
1122.0
1138.0
1168.0
1195.0
1220.0
1241.0
1262.0
1284.0
1303.0
1311.0
1314.0
1310.0
1303.0
1292.0
1270.0
1237.0
1204.0
1177.0
1153.0
1127.0
1098.0
1064.0
1025.0
988.0
953.0
926.0
903.0
889.0
878.0
866.0
858.0
857.0
860.0
863.0
865.0
863.0
861.0
873.0
880.0
891.0
898.0
900.0
901.0
905.0
912.0
920.0
925.0
925.0
929.0
932.0
936.0
936.0
938.0
937.0
933.0
934.0
933.0
935.0
934.0
932.0
929.0
930.0
929.0
931.0
928.0
925.0
922.0
922.0
924.0
926.0
923.0
921.0
918.0
918.0
922.0
922.0
923.0
921.0
921.0
921.0
921.0
923.0
925.0
926.0
925.0
926.0
929.0
933.0
936.0
934.0
934.0
940.0
943.0
947.0
952.0
953.0
954.0
957.0
963.0
969.0
970.0
972.0
974.0
979.0
983.0
988.0
993.0
993.0
994.0
999.0
1004.0
1008.0
1011.0
1011.0
1009.0
1014.0
1021.0
1022.0
1023.0
1026.0
1023.0
1024.0
1027.0
1028.0
1028.0
1027.0
1026.0
1023.0
1024.0
1027.0
1028.0
1026.0
1023.0
1024.0
1024.0
1024.0
1023.0
1023.0
1020.0
1022.0
1024.0
1025.0
1027.0
1022.0
1023.0
1021.0
1023.0
1024.0
1020.0
1019.0
1014.0
1015.0
1016.0
1020.0
1023.0
1023.0
1025.0
1024.0
1025.0
1025.0
1024.0
1025.0
1022.0
1022.0
1022.0
1022.0
1022.0
1021.0
1020.0
1022.0
1026.0
1027.0
1026.0
1022.0
1015.0
1009.0
1004.0
1002.0
999.0
989.0
985.0
982.0
980.0
979.0
979.0
977.0
977.0
976.0
976.0
976.0
974.0
977.0
973.0
974.0
978.0
979.0
978.0
976.0
975.0
977.0
978.0
979.0
981.0
979.0
978.0
979.0
980.0
982.0
983.0
983.0
979.0
977.0
982.0
983.0
984.0
983.0
981.0
983.0
984.0
985.0
985.0
984.0
982.0
983.0
987.0
987.0
988.0
987.0
982.0
985.0
982.0
981.0
982.0
976.0
974.0
977.0
986.0
1007.0
1029.0
1053.0
1075.0
1098.0
1115.0
1130.0
1148.0
1171.0
1196.0
1222.0
1249.0
1276.0
1295.0
1307.0
1314.0
1317.0
1319.0
1312.0
1300.0
1278.0
1242.0
1211.0
1187.0
1167.0
1143.0
1115.0
1083.0
1049.0
1013.0
980.0
952.0
925.0
899.0
879.0
870.0
862.0
856.0
850.0
846.0
850.0
856.0
857.0
857.0
858.0
864.0
872.0
882.0
889.0
895.0
897.0
899.0
903.0
908.0
916.0
920.0
919.0
920.0
924.0
927.0
930.0
930.0
927.0
925.0
927.0
926.0
927.0
927.0
924.0
920.0
923.0
921.0
923.0
924.0
921.0
918.0
917.0
917.0
919.0
918.0
916.0
915.0
915.0
916.0
915.0
915.0
914.0
912.0
914.0
914.0
914.0
917.0
914.0
914.0
914.0
916.0
917.0
920.0
922.0
919.0
923.0
928.0
931.0
932.0
933.0
934.0
938.0
944.0
946.0
949.0
951.0
953.0
956.0
962.0
967.0
968.0
970.0
970.0
975.0
981.0
986.0
986.0
989.0
991.0
996.0
1000.0
1004.0
1007.0
1008.0
1007.0
1011.0
1018.0
1017.0
1022.0
1022.0
1021.0
1023.0
1023.0
1025.0
1026.0
1026.0
1024.0
1025.0
1028.0
1028.0
1027.0
1026.0
1022.0
1021.0
1023.0
1023.0
1023.0
1022.0
1019.0
1019.0
1024.0
1025.0
1026.0
1026.0
1023.0
1022.0
1024.0
1026.0
1025.0
1023.0
1017.0
1016.0
1017.0
1019.0
1019.0
1021.0
1020.0
1022.0
1024.0
1025.0
1023.0
1020.0
1020.0
1021.0
1024.0
1022.0
1019.0
1017.0
1019.0
1019.0
1023.0
1024.0
1027.0
1024.0
1020.0
1019.0
1015.0
1013.0
1007.0
999.0
991.0
990.0
988.0
984.0
982.0
980.0
974.0
978.0
977.0
977.0
977.0
974.0
971.0
974.0
977.0
977.0
977.0
975.0
973.0
975.0
976.0
977.0
978.0
978.0
975.0
975.0
977.0
977.0
980.0
977.0
977.0
978.0
980.0
981.0
978.0
980.0
978.0
977.0
981.0
982.0
982.0
980.0
979.0
984.0
985.0
986.0
985.0
984.0
984.0
983.0
987.0
989.0
987.0
986.0
981.0
978.0
977.0
977.0
976.0
977.0
987.0
1009.0
1035.0
1061.0
1087.0
1105.0
1120.0
1136.0
1153.0
1180.0
1207.0
1231.0
1256.0
1280.0
1303.0
1322.0
1333.0
1334.0
1332.0
1328.0
1318.0
1302.0
1272.0
1234.0
1202.0
1178.0
1155.0
1130.0
1101.0
1064.0
1025.0
986.0
956.0
929.0
903.0
882.0
868.0
856.0
851.0
849.0
849.0
849.0
846.0
849.0
853.0
853.0
862.0
870.0
876.0
883.0
889.0
895.0
898.0
899.0
899.0
905.0
910.0
918.0
922.0
923.0
923.0
926.0
931.0
933.0
931.0
930.0
929.0
926.0
929.0
926.0
927.0
923.0
923.0
924.0
926.0
925.0
925.0
923.0
920.0
917.0
922.0
920.0
919.0
917.0
916.0
918.0
919.0
918.0
919.0
915.0
912.0
914.0
915.0
917.0
917.0
911.0
912.0
915.0
918.0
920.0
922.0
923.0
921.0
923.0
926.0
930.0
933.0
934.0
934.0
937.0
940.0
947.0
947.0
946.0
947.0
950.0
959.0
963.0
962.0
966.0
965.0
970.0
973.0
979.0
981.0
984.0
985.0
988.0
992.0
997.0
997.0
997.0
998.0
1004.0
1006.0
1007.0
1011.0
1011.0
1009.0
1013.0
1018.0
1021.0
1023.0
1022.0
1019.0
1023.0
1024.0
1026.0
1025.0
1024.0
1022.0
1022.0
1024.0
1026.0
1024.0
1019.0
1018.0
1016.0
1017.0
1018.0
1017.0
1014.0
1010.0
1014.0
1018.0
1020.0
1018.0
1020.0
1016.0
1016.0
1017.0
1017.0
1014.0
1011.0
1007.0
1007.0
1010.0
1014.0
1014.0
1017.0
1016.0
1018.0
1020.0
1021.0
1020.0
1018.0
1017.0
1019.0
1019.0
1019.0
1017.0
1016.0
1015.0
1016.0
1020.0
1023.0
1022.0
1021.0
1015.0
1010.0
1006.0
1004.0
998.0
994.0
987.0
984.0
981.0
977.0
977.0
974.0
971.0
973.0
973.0
975.0
974.0
973.0
971.0
970.0
973.0
973.0
974.0
972.0
970.0
970.0
970.0
974.0
975.0
973.0
972.0
971.0
974.0
977.0
977.0
977.0
973.0
973.0
975.0
978.0
980.0
976.0
975.0
976.0
979.0
981.0
980.0
979.0
977.0
979.0
981.0
982.0
982.0
981.0
982.0
982.0
981.0
979.0
977.0
974.0
976.0
983.0
1002.0
1028.0
1060.0
1087.0
1110.0
1132.0
1144.0
1162.0
1186.0
1209.0
1229.0
1251.0
1275.0
1293.0
1301.0
1299.0
1294.0
1286.0
1274.0
1250.0
1219.0
1184.0
1156.0
1134.0
1109.0
1083.0
1051.0
1010.0
970.0
940.0
916.0
894.0
875.0
862.0
853.0
851.0
852.0
856.0
858.0
857.0
855.0
857.0
864.0
874.0
881.0
884.0
889.0
894.0
899.0
903.0
906.0
910.0
913.0
919.0
922.0
928.0
929.0
928.0
927.0
926.0
929.0
932.0
931.0
927.0
925.0
926.0
929.0
929.0
927.0
924.0
923.0
922.0
922.0
924.0
924.0
921.0
918.0
919.0
922.0
922.0
922.0
922.0
919.0
918.0
920.0
920.0
920.0
919.0
919.0
922.0
921.0
925.0
927.0
926.0
926.0
926.0
930.0
935.0
935.0
937.0
935.0
938.0
942.0
946.0
947.0
948.0
949.0
952.0
957.0
960.0
965.0
966.0
966.0
969.0
973.0
977.0
980.0
980.0
981.0
984.0
990.0
995.0
997.0
999.0
1000.0
1001.0
1007.0
1012.0
1014.0
1012.0
1014.0
1016.0
1018.0
1019.0
1020.0
1020.0
1018.0
1020.0
1021.0
1024.0
1021.0
1020.0
1019.0
1021.0
1023.0
1021.0
1020.0
1020.0
1018.0
1017.0
1019.0
1019.0
1017.0
1014.0
1010.0
1010.0
1015.0
1018.0
1018.0
1018.0
1017.0
1017.0
1017.0
1021.0
1019.0
1018.0
1014.0
1015.0
1011.0
1012.0
1011.0
1012.0
1012.0
1017.0
1020.0
1023.0
1023.0
1023.0
1021.0
1019.0
1022.0
1023.0
1022.0
1020.0
1017.0
1017.0
1019.0
1022.0
1020.0
1022.0
1018.0
1021.0
1020.0
1017.0
1013.0
1005.0
998.0
994.0
991.0
988.0
984.0
979.0
976.0
974.0
976.0
977.0
977.0
974.0
972.0
973.0
974.0
975.0
975.0
973.0
971.0
972.0
975.0
978.0
977.0
976.0
972.0
974.0
976.0
976.0
977.0
975.0
975.0
975.0
978.0
980.0
979.0
979.0
978.0
978.0
980.0
983.0
982.0
980.0
979.0
981.0
983.0
984.0
984.0
983.0
981.0
984.0
986.0
984.0
983.0
975.0
971.0
968.0
974.0
983.0
1002.0
1025.0
1051.0
1077.0
1100.0
1116.0
1130.0
1149.0
1172.0
1202.0
1230.0
1255.0
1271.0
1281.0
1285.0
1284.0
1282.0
1275.0
1256.0
1230.0
1195.0
1173.0
1157.0
1136.0
1110.0
1079.0
1047.0
1014.0
985.0
958.0
931.0
907.0
887.0
875.0
869.0
865.0
863.0
861.0
860.0
864.0
864.0
870.0
878.0
883.0
891.0
896.0
901.0
905.0
908.0
912.0
914.0
920.0
929.0
931.0
933.0
933.0
931.0
934.0
935.0
938.0
938.0
935.0
933.0
932.0
932.0
936.0
932.0
930.0
927.0
928.0
929.0
929.0
927.0
926.0
924.0
925.0
926.0
927.0
925.0
926.0
923.0
923.0
924.0
926.0
928.0
925.0
922.0
926.0
927.0
930.0
930.0
929.0
930.0
930.0
938.0
942.0
942.0
943.0
944.0
949.0
954.0
954.0
958.0
959.0
961.0
965.0
970.0
972.0
977.0
976.0
978.0
983.0
988.0
992.0
994.0
995.0
999.0
1001.0
1004.0
1008.0
1012.0
1013.0
1013.0
1017.0
1021.0
1024.0
1025.0
1025.0
1026.0
1024.0
1032.0
1033.0
1034.0
1031.0
1029.0
1029.0
1032.0
1035.0
1032.0
1030.0
1028.0
1026.0
1028.0
1028.0
1028.0
1026.0
1022.0
1022.0
1025.0
1027.0
1028.0
1028.0
1025.0
1028.0
1027.0
1028.0
1026.0
1027.0
1020.0
1021.0
1023.0
1027.0
1030.0
1029.0
1028.0
1030.0
1032.0
1035.0
1034.0
1034.0
1030.0
1028.0
1027.0
1027.0
1030.0
1026.0
1024.0
1024.0
1027.0
1030.0
1028.0
1025.0
1019.0
1018.0
1015.0
1010.0
1002.0
996.0
991.0
985.0
983.0
981.0
981.0
974.0
976.0
977.0
975.0
975.0
977.0
975.0
973.0
974.0
975.0
979.0
978.0
975.0
973.0
976.0
978.0
981.0
981.0
980.0
978.0
976.0
982.0
982.0
982.0
981.0
978.0
981.0
982.0
983.0
983.0
981.0
979.0
980.0
984.0
986.0
982.0
986.0
981.0
982.0
985.0
988.0
988.0
986.0
984.0
982.0
983.0
980.0
977.0
975.0
974.0
981.0
1001.0
1028.0
1058.0
1082.0
1098.0
1114.0
1133.0
1159.0
1187.0
1218.0
1241.0
1268.0
1289.0
1305.0
1312.0
1310.0
1306.0
1299.0
1285.0
1258.0
1223.0
1192.0
1170.0
1146.0
1124.0
1093.0
1058.0
1017.0
980.0
946.0
923.0
900.0
887.0
873.0
863.0
858.0
859.0
860.0
862.0
861.0
861.0
863.0
870.0
880.0
890.0
896.0
899.0
903.0
907.0
914.0
916.0
922.0
923.0
927.0
933.0
935.0
937.0
936.0
935.0
934.0
935.0
936.0
933.0
933.0
927.0
930.0
931.0
932.0
929.0
928.0
926.0
926.0
927.0
929.0
926.0
925.0
923.0
922.0
923.0
924.0
923.0
922.0
921.0
921.0
925.0
923.0
926.0
924.0
921.0
921.0
924.0
927.0
930.0
929.0
928.0
931.0
934.0
936.0
941.0
941.0
941.0
941.0
944.0
953.0
956.0
957.0
956.0
960.0
967.0
973.0
975.0
978.0
976.0
981.0
984.0
992.0
993.0
995.0
995.0
1000.0
1005.0
1008.0
1010.0
1013.0
1013.0
1017.0
1020.0
1024.0
1023.0
1025.0
1024.0
1027.0
1028.0
1030.0
1032.0
1030.0
1027.0
1030.0
1032.0
1031.0
1032.0
1030.0
1027.0
1027.0
1029.0
1026.0
1026.0
1023.0
1019.0
1022.0
1022.0
1023.0
1023.0
1019.0
1019.0
1020.0
1022.0
1026.0
1028.0
1027.0
1024.0
1023.0
1024.0
1026.0
1026.0
1022.0
1020.0
1021.0
1026.0
1029.0
1030.0
1030.0
1026.0
1027.0
1028.0
1031.0
1026.0
1025.0
1021.0
1023.0
1022.0
1026.0
1025.0
1019.0
1021.0
1022.0
1026.0
1025.0
1022.0
1015.0
1007.0
1003.0
999.0
997.0
993.0
987.0
980.0
978.0
979.0
979.0
979.0
977.0
974.0
974.0
974.0
977.0
975.0
976.0
974.0
976.0
976.0
977.0
977.0
978.0
973.0
973.0
975.0
979.0
979.0
975.0
976.0
976.0
978.0
979.0
979.0
977.0
976.0
978.0
979.0
981.0
981.0
981.0
980.0
981.0
983.0
984.0
984.0
984.0
983.0
986.0
984.0
989.0
988.0
986.0
983.0
982.0
981.0
979.0
975.0
973.0
973.0
984.0
1006.0
1034.0
1064.0
1088.0
1108.0
1125.0
1143.0
1169.0
1200.0
1226.0
1255.0
1282.0
1308.0
1323.0
1328.0
1329.0
1324.0
1315.0
1305.0
1277.0
1244.0
1210.0
1184.0
1159.0
1136.0
1114.0
1079.0
1039.0
999.0
963.0
934.0
911.0
889.0
872.0
860.0
854.0
855.0
855.0
859.0
858.0
855.0
857.0
867.0
876.0
884.0
890.0
894.0
901.0
906.0
911.0
916.0
920.0
921.0
927.0
932.0
935.0
934.0
935.0
933.0
932.0
935.0
935.0
936.0
934.0
930.0
930.0
930.0
932.0
933.0
930.0
927.0
925.0
926.0
925.0
925.0
924.0
921.0
918.0
921.0
923.0
921.0
919.0
919.0
920.0
920.0
921.0
921.0
922.0
919.0
919.0
922.0
925.0
928.0
928.0
928.0
930.0
933.0
938.0
941.0
944.0
943.0
946.0
951.0
956.0
959.0
960.0
963.0
967.0
970.0
977.0
978.0
979.0
979.0
986.0
992.0
997.0
999.0
1002.0
1002.0
1008.0
1010.0
1013.0
1018.0
1017.0
1018.0
1020.0
1026.0
1029.0
1030.0
1028.0
1029.0
1026.0
1032.0
1033.0
1036.0
1033.0
1031.0
1029.0
1031.0
1032.0
1033.0
1029.0
1026.0
1026.0
1026.0
1026.0
1026.0
1023.0
1021.0
1018.0
1023.0
1026.0
1027.0
1027.0
1025.0
1023.0
1024.0
1026.0
1025.0
1022.0
1023.0
1023.0
1029.0
1031.0
1033.0
1032.0
1030.0
1030.0
1030.0
1031.0
1029.0
1026.0
1024.0
1026.0
1026.0
1029.0
1031.0
1028.0
1028.0
1029.0
1029.0
1029.0
1022.0
1014.0
1005.0
1000.0
996.0
993.0
988.0
984.0
977.0
976.0
977.0
980.0
979.0
975.0
973.0
971.0
977.0
977.0
977.0
975.0
973.0
975.0
976.0
975.0
974.0
972.0
973.0
974.0
978.0
977.0
979.0
980.0
977.0
977.0
980.0
982.0
981.0
979.0
979.0
979.0
977.0
982.0
983.0
982.0
982.0
983.0
985.0
987.0
986.0
986.0
984.0
983.0
983.0
982.0
980.0
973.0
978.0
988.0
1012.0
1046.0
1078.0
1103.0
1119.0
1138.0
1161.0
1189.0
1217.0
1245.0
1269.0
1292.0
1312.0
1329.0
1338.0
1336.0
1330.0
1321.0
1307.0
1283.0
1243.0
1209.0
1176.0
1147.0
1118.0
1090.0
1051.0
1009.0
967.0
936.0
910.0
888.0
871.0
859.0
849.0
847.0
849.0
851.0
855.0
856.0
854.0
858.0
866.0
876.0
881.0
888.0
893.0
896.0
900.0
906.0
910.0
914.0
916.0
921.0
926.0
926.0
928.0
930.0
926.0
928.0
928.0
927.0
928.0
926.0
923.0
924.0
926.0
925.0
921.0
922.0
918.0
919.0
919.0
920.0
918.0
919.0
915.0
914.0
914.0
917.0
917.0
913.0
911.0
914.0
918.0
917.0
914.0
913.0
913.0
915.0
915.0
919.0
918.0
920.0
917.0
922.0
926.0
928.0
928.0
932.0
931.0
938.0
941.0
946.0
951.0
948.0
950.0
956.0
963.0
966.0
967.0
971.0
973.0
978.0
981.0
988.0
991.0
993.0
993.0
997.0
1001.0
1005.0
1009.0
1008.0
1010.0
1012.0
1016.0
1019.0
1020.0
1020.0
1016.0
1021.0
1023.0
1024.0
1024.0
1020.0
1018.0
1018.0
1019.0
1023.0
1019.0
1019.0
1014.0
1012.0
1015.0
1015.0
1013.0
1008.0
1007.0
1008.0
1010.0
1013.0
1014.0
1013.0
1012.0
1011.0
1011.0
1012.0
1012.0
1011.0
1005.0
1008.0
1010.0
1014.0
1017.0
1017.0
1016.0
1015.0
1018.0
1020.0
1017.0
1015.0
1008.0
1011.0
1013.0
1015.0
1016.0
1015.0
1013.0
1012.0
1013.0
1011.0
1006.0
998.0
990.0
987.0
984.0
982.0
977.0
971.0
966.0
966.0
969.0
969.0
967.0
964.0
961.0
963.0
963.0
965.0
967.0
963.0
960.0
959.0
966.0
966.0
965.0
964.0
964.0
966.0
966.0
968.0
968.0
969.0
965.0
966.0
968.0
971.0
968.0
967.0
965.0
966.0
972.0
972.0
975.0
972.0
970.0
970.0
973.0
974.0
972.0
971.0
964.0
963.0
964.0
971.0
987.0
1013.0
1043.0
1072.0
1103.0
1123.0
1139.0
1154.0
1179.0
1206.0
1233.0
1259.0
1277.0
1286.0
1287.0
1283.0
1281.0
1271.0
1253.0
1220.0
1182.0
1154.0
1131.0
1110.0
1084.0
1053.0
1015.0
979.0
949.0
922.0
896.0
872.0
855.0
843.0
839.0
839.0
839.0
842.0
840.0
843.0
844.0
853.0
863.0
870.0
875.0
879.0
886.0
890.0
895.0
896.0
902.0
907.0
911.0
915.0
918.0
917.0
915.0
915.0
914.0
916.0
918.0
916.0
913.0
912.0
913.0
915.0
915.0
911.0
911.0
908.0
911.0
911.0
910.0
907.0
902.0
906.0
908.0
908.0
908.0
905.0
903.0
905.0
904.0
908.0
907.0
909.0
906.0
906.0
911.0
912.0
911.0
914.0
910.0
914.0
918.0
923.0
924.0
924.0
926.0
930.0
935.0
940.0
943.0
943.0
944.0
948.0
953.0
959.0
962.0
963.0
965.0
967.0
973.0
976.0
980.0
982.0
982.0
986.0
992.0
995.0
996.0
1000.0
1000.0
1001.0
1006.0
1010.0
1013.0
1007.0
1008.0
1009.0
1013.0
1015.0
1016.0
1014.0
1010.0
1012.0
1014.0
1014.0
1013.0
1011.0
1008.0
1005.0
1009.0
1009.0
1008.0
1005.0
1002.0
1003.0
1002.0
1000.0
1005.0
1003.0
1000.0
1005.0
1008.0
1009.0
1008.0
1008.0
1005.0
1003.0
1007.0
1008.0
1008.0
1009.0
1010.0
1014.0
1017.0
1017.0
1017.0
1015.0
1015.0
1012.0
1012.0
1012.0
1011.0
1012.0
1009.0
1011.0
1014.0
1016.0
1012.0
1010.0
1004.0
999.0
995.0
990.0
985.0
978.0
974.0
970.0
967.0
965.0
964.0
962.0
962.0
960.0
961.0
962.0
964.0
963.0
961.0
960.0
963.0
964.0
964.0
962.0
962.0
960.0
963.0
964.0
967.0
965.0
962.0
965.0
966.0
968.0
967.0
967.0
967.0
966.0
969.0
969.0
970.0
969.0
968.0
969.0
971.0
972.0
972.0
972.0
972.0
973.0
976.0
974.0
970.0
966.0
959.0
958.0
959.0
969.0
988.0
1014.0
1038.0
1069.0
1089.0
1103.0
1115.0
1128.0
1151.0
1182.0
1210.0
1235.0
1259.0
1276.0
1283.0
1288.0
1288.0
1282.0
1272.0
1246.0
1213.0
1181.0
1162.0
1140.0
1118.0
1089.0
1054.0
1016.0
982.0
952.0
924.0
899.0
879.0
865.0
857.0
851.0
849.0
850.0
851.0
851.0
855.0
859.0
865.0
871.0
876.0
884.0
890.0
895.0
896.0
900.0
901.0
910.0
916.0
919.0
922.0
923.0
922.0
922.0
924.0
924.0
927.0
924.0
921.0
920.0
922.0
924.0
923.0
921.0
917.0
917.0
918.0
921.0
917.0
916.0
914.0
912.0
912.0
915.0
915.0
913.0
910.0
913.0
914.0
915.0
912.0
913.0
912.0
911.0
915.0
917.0
918.0
916.0
915.0
916.0
919.0
922.0
922.0
925.0
925.0
926.0
930.0
934.0
936.0
939.0
939.0
942.0
947.0
950.0
952.0
955.0
955.0
960.0
965.0
970.0
973.0
974.0
975.0
981.0
982.0
986.0
992.0
992.0
995.0
998.0
1000.0
1007.0
1007.0
1006.0
1006.0
1009.0
1013.0
1017.0
1017.0
1018.0
1016.0
1018.0
1017.0
1022.0
1021.0
1021.0
1019.0
1018.0
1019.0
1021.0
1023.0
1019.0
1018.0
1016.0
1018.0
1019.0
1018.0
1016.0
1011.0
1013.0
1011.0
1011.0
1011.0
1012.0
1012.0
1012.0
1015.0
1018.0
1018.0
1017.0
1014.0
1014.0
1015.0
1016.0
1017.0
1016.0
1016.0
1017.0
1018.0
1024.0
1024.0
1021.0
1020.0
1021.0
1021.0
1022.0
1021.0
1016.0
1014.0
1016.0
1015.0
1018.0
1018.0
1017.0
1015.0
1016.0
1015.0
1011.0
1004.0
996.0
988.0
986.0
984.0
979.0
975.0
970.0
967.0
965.0
969.0
970.0
971.0
968.0
964.0
965.0
967.0
970.0
966.0
965.0
966.0
965.0
967.0
970.0
968.0
969.0
967.0
967.0
970.0
972.0
970.0
970.0
970.0
969.0
970.0
971.0
973.0
972.0
971.0
972.0
973.0
977.0
977.0
976.0
975.0
976.0
977.0
978.0
980.0
978.0
975.0
970.0
967.0
966.0
966.0
969.0
984.0
1007.0
1037.0
1065.0
1087.0
1103.0
1117.0
1137.0
1166.0
1199.0
1224.0
1250.0
1274.0
1294.0
1305.0
1310.0
1307.0
1304.0
1295.0
1278.0
1249.0
1219.0
1189.0
1162.0
1136.0
1111.0
1082.0
1047.0
1008.0
972.0
940.0
910.0
892.0
875.0
861.0
850.0
845.0
843.0
847.0
852.0
852.0
851.0
855.0
862.0
872.0
880.0
886.0
889.0
891.0
895.0
902.0
906.0
909.0
912.0
914.0
918.0
922.0
924.0
924.0
924.0
922.0
923.0
925.0
924.0
922.0
921.0
917.0
917.0
920.0
920.0
919.0
920.0
915.0
914.0
914.0
916.0
915.0
911.0
910.0
910.0
910.0
912.0
912.0
910.0
909.0
905.0
908.0
912.0
913.0
911.0
910.0
913.0
913.0
915.0
916.0
917.0
917.0
916.0
919.0
923.0
926.0
926.0
927.0
929.0
934.0
938.0
939.0
942.0
942.0
945.0
948.0
955.0
957.0
958.0
958.0
962.0
966.0
972.0
973.0
975.0
980.0
980.0
984.0
989.0
991.0
993.0
994.0
995.0
1002.0
1007.0
1006.0
1008.0
1009.0
1010.0
1014.0
1018.0
1016.0
1018.0
1017.0
1016.0
1019.0
1022.0
1023.0
1019.0
1018.0
1019.0
1019.0
1021.0
1021.0
1018.0
1015.0
1014.0
1018.0
1019.0
1016.0
1013.0
1009.0
1008.0
1009.0
1010.0
1008.0
1007.0
1006.0
1007.0
1009.0
1011.0
1012.0
1011.0
1010.0
1008.0
1009.0
1013.0
1013.0
1011.0
1010.0
1007.0
1006.0
1013.0
1012.0
1013.0
1012.0
1015.0
1016.0
1018.0
1017.0
1018.0
1015.0
1013.0
1013.0
1016.0
1012.0
1011.0
1011.0
1010.0
1013.0
1014.0
1016.0
1013.0
1010.0
1008.0
1007.0
1003.0
998.0
989.0
984.0
980.0
977.0
973.0
971.0
966.0
962.0
961.0
962.0
963.0
965.0
961.0
961.0
960.0
960.0
961.0
965.0
964.0
960.0
961.0
963.0
965.0
966.0
965.0
963.0
962.0
965.0
968.0
966.0
967.0
965.0
963.0
966.0
968.0
968.0
967.0
967.0
966.0
969.0
973.0
969.0
968.0
969.0
967.0
971.0
973.0
973.0
974.0
973.0
970.0
969.0
974.0
970.0
967.0
959.0
957.0
959.0
964.0
975.0
997.0
1024.0
1055.0
1080.0
1099.0
1115.0
1132.0
1158.0
1187.0
1221.0
1247.0
1271.0
1292.0
1306.0
1312.0
1316.0
1312.0
1302.0
1284.0
1249.0
1210.0
1182.0
1159.0
1135.0
1100.0
1063.0
1026.0
988.0
955.0
925.0
897.0
872.0
857.0
848.0
842.0
837.0
833.0
835.0
837.0
840.0
846.0
845.0
846.0
853.0
862.0
871.0
878.0
883.0
882.0
886.0
890.0
899.0
905.0
906.0
910.0
909.0
912.0
915.0
918.0
918.0
915.0
915.0
912.0
915.0
916.0
916.0
913.0
911.0
912.0
913.0
911.0
912.0
908.0
906.0
906.0
906.0
907.0
906.0
902.0
902.0
901.0
903.0
904.0
904.0
901.0
901.0
900.0
902.0
904.0
902.0
901.0
900.0
901.0
905.0
906.0
906.0
906.0
908.0
909.0
911.0
917.0
918.0
919.0
920.0
920.0
925.0
930.0
931.0
931.0
935.0
936.0
943.0
948.0
950.0
952.0
953.0
958.0
961.0
967.0
970.0
971.0
973.0
975.0
981.0
985.0
985.0
989.0
991.0
992.0
995.0
999.0
1001.0
1004.0
1003.0
1005.0
1010.0
1015.0
1013.0
1013.0
1011.0
1011.0
1014.0
1017.0
1016.0
1014.0
1013.0
1014.0
1015.0
1015.0
1014.0
1010.0
1010.0
1009.0
1011.0
1013.0
1011.0
1009.0
1006.0
1005.0
1004.0
1006.0
1006.0
1003.0
1000.0
1002.0
1004.0
1008.0
1009.0
1008.0
1006.0
1007.0
1008.0
1010.0
1009.0
1006.0
1007.0
1005.0
1004.0
1008.0
1010.0
1009.0
1008.0
1009.0
1014.0
1018.0
1016.0
1014.0
1013.0
1011.0
1010.0
1011.0
1010.0
1009.0
1006.0
1005.0
1009.0
1010.0
1010.0
1009.0
1006.0
1006.0
1003.0
1003.0
993.0
988.0
982.0
978.0
977.0
973.0
968.0
963.0
960.0
961.0
962.0
965.0
961.0
960.0
959.0
958.0
960.0
961.0
958.0
960.0
956.0
957.0
960.0
964.0
961.0
962.0
959.0
960.0
964.0
965.0
965.0
963.0
960.0
961.0
964.0
967.0
963.0
964.0
964.0
963.0
965.0
967.0
966.0
968.0
964.0
965.0
968.0
970.0
972.0
969.0
969.0
968.0
969.0
970.0
970.0
965.0
967.0
960.0
959.0
959.0
959.0
960.0
972.0
994.0
1024.0
1055.0
1077.0
1096.0
1110.0
1125.0
1153.0
1187.0
1217.0
1242.0
1265.0
1289.0
1306.0
1317.0
1320.0
1319.0
1313.0
1301.0
1279.0
1246.0
1205.0
1174.0
1142.0
1112.0
1081.0
1047.0
1000.0
958.0
924.0
892.0
871.0
855.0
845.0
836.0
830.0
829.0
833.0
835.0
837.0
833.0
837.0
844.0
853.0
866.0
872.0
877.0
878.0
884.0
893.0
898.0
904.0
908.0
913.0
911.0
916.0
920.0
917.0
916.0
915.0
914.0
914.0
914.0
914.0
911.0
908.0
