# Simple Text Format
# Sampling Rate (Hz):= 360.00
# Resolution:= 12
# Labels:= ECG
1113.0
1098.0
1083.0
1061.0
1034.0
1016.0
994.0
967.0
932.0
902.0
882.0
872.0
864.0
857.0
851.0
850.0
852.0
860.0
870.0
867.0
864.0
867.0
877.0
888.0
896.0
900.0
906.0
909.0
910.0
914.0
920.0
924.0
923.0
922.0
919.0
925.0
932.0
936.0
935.0
930.0
922.0
916.0
917.0
921.0
921.0
922.0
921.0
922.0
916.0
918.0
920.0
926.0
924.0
924.0
922.0
917.0
910.0
906.0
907.0
919.0
932.0
945.0
953.0
949.0
935.0
918.0
905.0
907.0
919.0
939.0
947.0
940.0
929.0
931.0
936.0
943.0
940.0
933.0
928.0
925.0
926.0
937.0
947.0
955.0
962.0
967.0
965.0
963.0
967.0
973.0
989.0
1002.0
1014.0
1010.0
990.0
975.0
976.0
983.0
991.0
994.0
992.0
985.0
980.0
984.0
997.0
1009.0
1011.0
1012.0
1006.0
1002.0
1005.0
1008.0
1005.0
999.0
999.0
1003.0
1007.0
1007.0
995.0
991.0
997.0
1012.0
1019.0
1002.0
973.0
962.0
979.0
998.0
1011.0
1014.0
1013.0
1010.0
1007.0
998.0
997.0
1000.0
1002.0
1002.0
999.0
993.0
991.0
998.0
1011.0
1021.0
1021.0
1012.0
1004.0
1010.0
1019.0
1020.0
1004.0
989.0
986.0
996.0
1002.0
1003.0
1000.0
1002.0
999.0
993.0
986.0
984.0
986.0
984.0
986.0
980.0
971.0
962.0
968.0
969.0
961.0
943.0
928.0
929.0
945.0
957.0
955.0
956.0
961.0
967.0
962.0
947.0
939.0
942.0
946.0
942.0
939.0
947.0
957.0
957.0
953.0
956.0
958.0
957.0
951.0
944.0
943.0
949.0
954.0
951.0
953.0
962.0
970.0
974.0
967.0
959.0
952.0
955.0
962.0
962.0
959.0
952.0
957.0
962.0
967.0
974.0
972.0
956.0
940.0
938.0
951.0
971.0
997.0
1024.0
1039.0
1046.0
1049.0
1068.0
1099.0
1123.0
1127.0
1126.0
1126.0
1137.0
1153.0
1160.0
1157.0
1153.0
1141.0
1126.0
1112.0
1104.0
1101.0
1090.0
1067.0
1038.0
1002.0
954.0
912.0
894.0
891.0
888.0
880.0
863.0
852.0
851.0
858.0
872.0
880.0
884.0
881.0
878.0
883.0
902.0
920.0
929.0
923.0
910.0
894.0
897.0
926.0
951.0
951.0
929.0
899.0
876.0
877.0
895.0
916.0
925.0
918.0
912.0
914.0
926.0
939.0
940.0
935.0
931.0
930.0
921.0
910.0
912.0
927.0
940.0
941.0
931.0
925.0
918.0
911.0
916.0
915.0
907.0
898.0
906.0
930.0
952.0
959.0
945.0
927.0
918.0
920.0
932.0
938.0
926.0
919.0
922.0
927.0
932.0
942.0
964.0
975.0
970.0
957.0
952.0
955.0
952.0
945.0
949.0
968.0
984.0
993.0
993.0
990.0
986.0
985.0
987.0
996.0
1006.0
1008.0
1005.0
1007.0
1019.0
1025.0
1025.0
1019.0
1019.0
1014.0
1008.0
996.0
975.0
970.0
987.0
1006.0
1019.0
1019.0
1011.0
1001.0
992.0
998.0
1002.0
993.0
982.0
977.0
984.0
986.0
983.0
966.0
964.0
989.0
1014.0
1016.0
1005.0
989.0
984.0
988.0
987.0
991.0
999.0
1007.0
1006.0
1007.0
1005.0
1004.0
1008.0
1014.0
1007.0
988.0
980.0
982.0
985.0
983.0
983.0
989.0
1004.0
1018.0
1026.0
1020.0
993.0
966.0
960.0
970.0
982.0
980.0
969.0
956.0
947.0
945.0
956.0
968.0
977.0
966.0
944.0
926.0
933.0
953.0
973.0
970.0
961.0
952.0
948.0
948.0
955.0
962.0
961.0
938.0
921.0
916.0
929.0
947.0
963.0
964.0
957.0
949.0
949.0
949.0
952.0
960.0
963.0
960.0
952.0
946.0
950.0
956.0
967.0
974.0
971.0
963.0
950.0
945.0
946.0
947.0
953.0
965.0
979.0
981.0
977.0
978.0
973.0
960.0
951.0
962.0
995.0
1031.0
1047.0
1035.0
1027.0
1041.0
1074.0
1107.0
1131.0
1136.0
1137.0
1137.0
1136.0
1138.0
1139.0
1128.0
1107.0
1081.0
1063.0
1063.0
1062.0
1063.0
1055.0
1039.0
1024.0
1006.0
978.0
944.0
914.0
888.0
876.0
874.0
878.0
875.0
862.0
853.0
862.0
882.0
895.0
894.0
881.0
870.0
867.0
878.0
891.0
898.0
900.0
900.0
897.0
899.0
909.0
922.0
934.0
930.0
925.0
930.0
935.0
940.0
936.0
930.0
924.0
916.0
915.0
923.0
934.0
933.0
918.0
905.0
909.0
922.0
930.0
931.0
926.0
912.0
911.0
916.0
916.0
921.0
930.0
939.0
938.0
927.0
915.0
919.0
924.0
929.0
933.0
932.0
928.0
926.0
927.0
930.0
932.0
929.0
930.0
933.0
937.0
939.0
944.0
952.0
962.0
971.0
980.0
981.0
976.0
964.0
948.0
933.0
935.0
957.0
977.0
992.0
992.0
990.0
992.0
992.0
994.0
999.0
1001.0
990.0
978.0
980.0
994.0
1005.0
1005.0
1002.0
1000.0
1004.0
1011.0
1007.0
997.0
994.0
1002.0
1009.0
1010.0
1009.0
1007.0
1004.0
1003.0
1003.0
1005.0
1008.0
1001.0
991.0
995.0
1011.0
1019.0
1012.0
993.0
981.0
980.0
990.0
1003.0
1014.0
1014.0
1003.0
996.0
989.0
988.0
988.0
994.0
1003.0
1009.0
1013.0
1002.0
991.0
983.0
988.0
999.0
1008.0
1008.0
1007.0
1010.0
1014.0
1021.0
1019.0
1009.0
998.0
991.0
996.0
1010.0
1016.0
1009.0
997.0
994.0
999.0
1000.0
999.0
990.0
985.0
978.0
970.0
968.0
970.0
968.0
973.0
975.0
976.0
974.0
968.0
962.0
952.0
942.0
942.0
948.0
952.0
952.0
949.0
948.0
953.0
964.0
968.0
964.0
962.0
960.0
955.0
950.0
951.0
952.0
953.0
961.0
966.0
965.0
963.0
958.0
958.0
961.0
960.0
954.0
941.0
937.0
945.0
961.0
971.0
968.0
957.0
947.0
943.0
948.0
953.0
961.0
970.0
976.0
974.0
965.0
955.0
949.0
947.0
948.0
952.0
947.0
953.0
966.0
985.0
1001.0
1013.0
1026.0
1041.0
1055.0
1065.0
1079.0
1088.0
1100.0
1111.0
1113.0
1112.0
1114.0
1123.0
1132.0
1141.0
1143.0
1136.0
1125.0
1109.0
1090.0
1072.0
1066.0
1054.0
1035.0
1017.0
1007.0
999.0
984.0
956.0
923.0
898.0
881.0
878.0
875.0
872.0
865.0
856.0
861.0
867.0
874.0
874.0
871.0
874.0
879.0
885.0
890.0
892.0
894.0
898.0
895.0
894.0
899.0
908.0
919.0
927.0
930.0
932.0
936.0
938.0
936.0
932.0
920.0
909.0
906.0
913.0
922.0
923.0
921.0
923.0
932.0
939.0
943.0
937.0
925.0
917.0
917.0
923.0
928.0
926.0
923.0
917.0
913.0
915.0
923.0
929.0
934.0
934.0
932.0
932.0
929.0
929.0
933.0
937.0
944.0
947.0
942.0
931.0
918.0
910.0
918.0
933.0
948.0
959.0
958.0
953.0
951.0
948.0
944.0
947.0
960.0
972.0
978.0
973.0
966.0
955.0
949.0
960.0
981.0
1002.0
1003.0
995.0
989.0
985.0
986.0
991.0
994.0
997.0
998.0
1000.0
1003.0
1008.0
1015.0
1010.0
1002.0
995.0
991.0
995.0
1004.0
1014.0
1020.0
1026.0
1025.0
1018.0
1007.0
999.0
1000.0
1007.0
1015.0
1015.0
1006.0
998.0
985.0
981.0
988.0
999.0
1008.0
1010.0
1012.0
1008.0
1006.0
1010.0
1014.0
1015.0
1014.0
1000.0
992.0
994.0
999.0
1003.0
998.0
995.0
999.0
1010.0
1020.0
1022.0
1016.0
1007.0
1008.0
1009.0
1012.0
1010.0
1001.0
1000.0
1008.0
1012.0
1010.0
1001.0
992.0
990.0
995.0
1001.0
1000.0
997.0
997.0
1000.0
998.0
986.0
976.0
971.0
969.0
963.0
959.0
957.0
959.0
960.0
960.0
958.0
963.0
963.0
957.0
947.0
945.0
948.0
960.0
969.0
969.0
965.0
961.0
957.0
952.0
942.0
939.0
944.0
950.0
961.0
963.0
965.0
962.0
957.0
952.0
953.0
959.0
964.0
966.0
963.0
957.0
954.0
956.0
957.0
956.0
963.0
966.0
968.0
966.0
967.0
966.0
961.0
955.0
958.0
958.0
960.0
959.0
958.0
964.0
977.0
1006.0
1032.0
1046.0
1046.0
1039.0
1040.0
1057.0
1078.0
1101.0
1116.0
1117.0
1114.0
1112.0
1119.0
1123.0
1126.0
1123.0
1115.0
1107.0
1096.0
1079.0
1068.0
1065.0
1066.0
1059.0
1042.0
1017.0
986.0
947.0
923.0
912.0
909.0
907.0
897.0
882.0
878.0
874.0
875.0
872.0
868.0
860.0
856.0
852.0
855.0
865.0
882.0
893.0
897.0
895.0
894.0
890.0
892.0
900.0
914.0
924.0
922.0
916.0
917.0
923.0
930.0
928.0
917.0
912.0
921.0
930.0
936.0
935.0
930.0
929.0
926.0
924.0
922.0
919.0
917.0
916.0
922.0
928.0
934.0
939.0
936.0
929.0
916.0
908.0
901.0
911.0
925.0
933.0
931.0
919.0
914.0
915.0
918.0
924.0
929.0
927.0
924.0
928.0
937.0
944.0
942.0
938.0
934.0
935.0
938.0
944.0
947.0
951.0
947.0
944.0
939.0
941.0
951.0
963.0
972.0
974.0
970.0
970.0
964.0
963.0
963.0
968.0
972.0
975.0
975.0
984.0
991.0
995.0
991.0
984.0
982.0
988.0
1004.0
1017.0
1018.0
1008.0
990.0
983.0
986.0
994.0
999.0
1004.0
1002.0
997.0
992.0
997.0
1009.0
1020.0
1023.0
1008.0
995.0
995.0
1000.0
1004.0
1002.0
995.0
995.0
992.0
994.0
990.0
981.0
964.0
951.0
949.0
966.0
987.0
1005.0
1008.0
999.0
994.0
988.0
980.0
975.0
970.0
976.0
986.0
990.0
983.0
982.0
995.0
1011.0
1015.0
1005.0
984.0
970.0
966.0
969.0
979.0
990.0
997.0
999.0
996.0
994.0
1001.0
1000.0
993.0
984.0
981.0
979.0
972.0
964.0
957.0
953.0
954.0
956.0
960.0
960.0
951.0
938.0
919.0
908.0
915.0
937.0
954.0
955.0
947.0
941.0
938.0
938.0
936.0
938.0
936.0
933.0
937.0
943.0
945.0
946.0
947.0
950.0
953.0
953.0
944.0
935.0
933.0
939.0
949.0
943.0
933.0
928.0
932.0
944.0
957.0
957.0
943.0
932.0
926.0
926.0
934.0
948.0
949.0
947.0
941.0
935.0
930.0
930.0
936.0
933.0
943.0
973.0
1017.0
1047.0
1056.0
1046.0
1041.0
1051.0
1074.0
1099.0
1125.0
1155.0
1168.0
1147.0
1123.0
1111.0
1119.0
1124.0
1114.0
1096.0
1092.0
1094.0
1085.0
1059.0
1019.0
984.0
959.0
940.0
919.0
897.0
878.0
863.0
853.0
843.0
831.0
829.0
831.0
835.0
851.0
867.0
869.0
862.0
858.0
860.0
869.0
870.0
869.0
878.0
897.0
911.0
920.0
920.0
907.0
895.0
887.0
898.0
913.0
927.0
934.0
932.0
921.0
906.0
902.0
904.0
905.0
909.0
916.0
914.0
912.0
915.0
922.0
929.0
923.0
910.0
901.0
899.0
910.0
917.0
919.0
910.0
895.0
885.0
893.0
907.0
922.0
927.0
925.0
918.0
908.0
900.0
900.0
906.0
918.0
930.0
932.0
930.0
930.0
936.0
938.0
932.0
924.0
927.0
938.0
948.0
955.0
961.0
961.0
961.0
961.0
958.0
954.0
942.0
931.0
938.0
954.0
972.0
987.0
990.0
981.0
972.0
965.0
956.0
951.0
955.0
975.0
995.0
1006.0
999.0
990.0
987.0
995.0
1008.0
1013.0
1007.0
997.0
991.0
985.0
990.0
997.0
1006.0
1012.0
1016.0
1015.0
1016.0
1019.0
1014.0
1002.0
985.0
970.0
968.0
980.0
1002.0
1013.0
1009.0
998.0
989.0
993.0
1000.0
1006.0
1009.0
1011.0
1012.0
1008.0
1000.0
999.0
996.0
992.0
989.0
994.0
1001.0
1003.0
1001.0
1002.0
1004.0
998.0
994.0
997.0
1006.0
1009.0
1008.0
1010.0
1000.0
989.0
978.0
978.0
994.0
1012.0
1028.0
1025.0
1007.0
991.0
985.0
984.0
989.0
992.0
986.0
963.0
938.0
923.0
926.0
937.0
947.0
964.0
972.0
976.0
972.0
966.0
959.0
955.0
952.0
948.0
944.0
944.0
946.0
944.0
949.0
954.0
956.0
960.0
958.0
956.0
947.0
938.0
938.0
949.0
969.0
982.0
991.0
989.0
977.0
957.0
936.0
931.0
929.0
928.0
936.0
953.0
960.0
962.0
956.0
954.0
954.0
954.0
958.0
970.0
975.0
967.0
945.0
937.0
950.0
976.0
1009.0
1034.0
1055.0
1073.0
1090.0
1109.0
1133.0
1152.0
1163.0
1180.0
1201.0
1215.0
1216.0
1206.0
1204.0
1210.0
1205.0
1166.0
1110.0
1074.0
1069.0
1088.0
1095.0
1067.0
1018.0
967.0
931.0
910.0
893.0
873.0
851.0
834.0
819.0
816.0
829.0
838.0
835.0
821.0
813.0
815.0
831.0
849.0
866.0
870.0
862.0
845.0
833.0
833.0
849.0
873.0
895.0
906.0
902.0
885.0
874.0
874.0
886.0
904.0
912.0
912.0
903.0
900.0
896.0
893.0
890.0
885.0
886.0
896.0
902.0
901.0
897.0
896.0
887.0
872.0
856.0
855.0
868.0
892.0
898.0
885.0
867.0
865.0
871.0
879.0
883.0
888.0
899.0
906.0
897.0
876.0
868.0
872.0
886.0
903.0
909.0
907.0
906.0
907.0
905.0
901.0
897.0
893.0
891.0
894.0
900.0
908.0
919.0
932.0
935.0
928.0
917.0
910.0
907.0
912.0
927.0
943.0
952.0
962.0
968.0
963.0
951.0
948.0
948.0
948.0
946.0
946.0
954.0
969.0
988.0
990.0
978.0
967.0
967.0
966.0
969.0
977.0
986.0
990.0
993.0
986.0
971.0
960.0
956.0
955.0
965.0
972.0
979.0
986.0
992.0
986.0
971.0
951.0
943.0
956.0
983.0
1000.0
996.0
975.0
960.0
960.0
974.0
991.0
997.0
991.0
974.0
950.0
931.0
930.0
941.0
962.0
981.0
995.0
994.0
985.0
973.0
959.0
950.0
953.0
960.0
963.0
960.0
960.0
970.0
980.0
979.0
970.0
963.0
957.0
960.0
966.0
960.0
948.0
934.0
927.0
926.0
929.0
931.0
930.0
925.0
920.0
926.0
946.0
966.0
962.0
940.0
920.0
908.0
900.0
901.0
912.0
923.0
926.0
921.0
919.0
922.0
930.0
936.0
943.0
948.0
945.0
946.0
951.0
957.0
953.0
934.0
909.0
895.0
899.0
915.0
926.0
933.0
940.0
944.0
938.0
928.0
919.0
925.0
937.0
937.0
928.0
921.0
926.0
933.0
946.0
949.0
951.0
968.0
1000.0
1036.0
1065.0
1078.0
1076.0
1077.0
1095.0
1123.0
1147.0
1168.0
1184.0
1185.0
1169.0
1150.0
1141.0
1131.0
1115.0
1092.0
1075.0
1057.0
1046.0
1039.0
1027.0
1002.0
959.0
915.0
892.0
882.0
869.0
850.0
835.0
816.0
805.0
807.0
816.0
824.0
826.0
826.0
823.0
837.0
849.0
856.0
860.0
867.0
878.0
890.0
893.0
884.0
862.0
847.0
852.0
872.0
885.0
892.0
892.0
893.0
899.0
900.0
898.0
890.0
878.0
873.0
871.0
871.0
881.0
896.0
903.0
900.0
892.0
885.0
883.0
888.0
894.0
888.0
882.0
876.0
874.0
879.0
888.0
897.0
906.0
907.0
906.0
902.0
896.0
890.0
891.0
895.0
901.0
901.0
900.0
900.0
905.0
902.0
904.0
914.0
923.0
931.0
934.0
923.0
913.0
915.0
928.0
942.0
950.0
948.0
943.0
936.0
929.0
929.0
934.0
944.0
954.0
963.0
963.0
965.0
968.0
971.0
970.0
968.0
970.0
972.0
973.0
971.0
972.0
976.0
976.0
977.0
976.0
980.0
979.0
982.0
981.0
977.0
982.0
987.0
990.0
986.0
977.0
969.0
964.0
959.0
961.0
968.0
976.0
977.0
975.0
974.0
973.0
975.0
970.0
969.0
969.0
971.0
970.0
968.0
966.0
969.0
972.0
973.0
975.0
974.0
970.0
970.0
971.0
971.0
971.0
968.0
967.0
966.0
971.0
973.0
971.0
970.0
971.0
973.0
976.0
978.0
973.0
967.0
957.0
953.0
950.0
949.0
945.0
940.0
932.0
932.0
929.0
931.0
932.0
932.0
933.0
930.0
929.0
931.0
932.0
930.0
927.0
928.0
931.0
931.0
930.0
927.0
929.0
932.0
934.0
932.0
926.0
919.0
915.0
921.0
926.0
929.0
930.0
927.0
926.0
924.0
927.0
930.0
931.0
931.0
934.0
932.0
934.0
937.0
936.0
936.0
937.0
938.0
941.0
944.0
945.0
940.0
935.0
929.0
924.0
922.0
923.0
928.0
936.0
956.0
985.0
1013.0
1034.0
1046.0
1054.0
1056.0
1071.0
1095.0
1119.0
1139.0
1148.0
1152.0
1153.0
1151.0
1149.0
1143.0
1141.0
1128.0
1104.0
1078.0
1058.0
1046.0
1039.0
1023.0
1001.0
971.0
943.0
913.0
889.0
865.0
850.0
836.0
825.0
823.0
827.0
837.0
841.0
842.0
839.0
836.0
833.0
835.0
844.0
855.0
864.0
866.0
872.0
877.0
887.0
888.0
886.0
889.0
894.0
902.0
903.0
903.0
902.0
898.0
894.0
897.0
901.0
903.0
901.0
895.0
892.0
895.0
902.0
907.0
901.0
892.0
887.0
884.0
888.0
896.0
899.0
899.0
892.0
890.0
893.0
897.0
906.0
908.0
907.0
904.0
902.0
900.0
902.0
904.0
903.0
902.0
900.0
903.0
907.0
910.0
910.0
913.0
920.0
928.0
931.0
934.0
934.0
937.0
941.0
937.0
935.0
932.0
937.0
947.0
956.0
964.0
964.0
968.0
971.0
974.0
974.0
973.0
971.0
977.0
985.0
984.0
980.0
982.0
984.0
989.0
992.0
988.0
986.0
985.0
991.0
996.0
999.0
995.0
989.0
985.0
985.0
985.0
983.0
980.0
986.0
994.0
999.0
1000.0
996.0
992.0
990.0
996.0
1000.0
996.0
990.0
988.0
994.0
998.0
997.0
997.0
992.0
996.0
999.0
1000.0
1003.0
1004.0
1002.0
1003.0
1000.0
996.0
991.0
984.0
980.0
981.0
993.0
1000.0
1000.0
996.0
989.0
982.0
975.0
969.0
965.0
959.0
953.0
950.0
948.0
950.0
950.0
951.0
951.0
952.0
956.0
956.0
953.0
949.0
946.0
945.0
947.0
954.0
960.0
957.0
954.0
952.0
951.0
957.0
959.0
957.0
952.0
940.0
934.0
928.0
930.0
939.0
951.0
962.0
964.0
958.0
955.0
954.0
953.0
952.0
953.0
961.0
971.0
973.0
966.0
958.0
957.0
966.0
972.0
964.0
952.0
942.0
933.0
931.0
935.0
939.0
954.0
972.0
995.0
1019.0
1038.0
1049.0
1051.0
1059.0
1074.0
1096.0
1113.0
1127.0
1140.0
1148.0
1153.0
1151.0
1153.0
1153.0
1146.0
1132.0
1122.0
1111.0
1100.0
1091.0
1081.0
1073.0
1067.0
1053.0
1027.0
995.0
962.0
932.0
913.0
903.0
898.0
891.0
878.0
865.0
859.0
861.0
863.0
866.0
867.0
873.0
882.0
887.0
889.0
885.0
884.0
887.0
894.0
903.0
910.0
912.0
914.0
914.0
918.0
919.0
918.0
916.0
921.0
930.0
937.0
936.0
926.0
917.0
911.0
910.0
914.0
920.0
924.0
921.0
919.0
915.0
918.0
917.0
916.0
917.0
918.0
918.0
918.0
920.0
921.0
928.0
929.0
925.0
920.0
918.0
920.0
923.0
927.0
930.0
928.0
927.0
930.0
937.0
943.0
948.0
954.0
957.0
951.0
941.0
935.0
936.0
948.0
962.0
970.0
970.0
972.0
971.0
972.0
972.0
970.0
976.0
985.0
999.0
1011.0
1016.0
1011.0
1003.0
992.0
990.0
1002.0
1013.0
1016.0
1012.0
1004.0
999.0
997.0
999.0
1004.0
1006.0
1007.0
1006.0
1007.0
1012.0
1017.0
1017.0
1012.0
1012.0
1009.0
1005.0
1005.0
1010.0
1009.0
1007.0
1009.0
1018.0
1025.0
1023.0
1013.0
1004.0
1003.0
1009.0
1013.0
1016.0
1019.0
1021.0
1019.0
1012.0
1004.0
996.0
995.0
994.0
990.0
988.0
990.0
993.0
998.0
1004.0
1004.0
1000.0
992.0
982.0
971.0
967.0
969.0
973.0
972.0
967.0
958.0
955.0
957.0
963.0
968.0
965.0
963.0
959.0
958.0
956.0
956.0
954.0
955.0
954.0
953.0
955.0
957.0
955.0
949.0
946.0
951.0
957.0
966.0
961.0
961.0
961.0
962.0
961.0
952.0
941.0
938.0
943.0
956.0
970.0
974.0
967.0
962.0
963.0
971.0
974.0
973.0
965.0
958.0
952.0
950.0
951.0
958.0
964.0
981.0
1002.0
1024.0
1045.0
1059.0
1063.0
1065.0
1075.0
1099.0
1122.0
1138.0
1140.0
1128.0
1117.0
1112.0
1116.0
1131.0
1142.0
1131.0
1109.0
1088.0
1073.0
1067.0
1062.0
1053.0
1037.0
1020.0
997.0
976.0
950.0
918.0
891.0
875.0
871.0
878.0
886.0
888.0
884.0
875.0
858.0
845.0
845.0
861.0
885.0
904.0
906.0
901.0
901.0
903.0
901.0
900.0
903.0
905.0
914.0
916.0
918.0
920.0
918.0
920.0
922.0
921.0
919.0
922.0
923.0
924.0
924.0
917.0
908.0
903.0
906.0
921.0
930.0
927.0
915.0
908.0
910.0
920.0
927.0
923.0
917.0
917.0
921.0
925.0
921.0
915.0
916.0
920.0
920.0
918.0
914.0
915.0
917.0
921.0
930.0
938.0
940.0
934.0
933.0
936.0
935.0
935.0
934.0
933.0
937.0
942.0
955.0
963.0
963.0
958.0
956.0
970.0
983.0
984.0
972.0
964.0
970.0
986.0
996.0
997.0
998.0
1000.0
998.0
996.0
988.0
984.0
980.0
985.0
999.0
1014.0
1022.0
1019.0
1014.0
1009.0
999.0
990.0
991.0
1002.0
1014.0
1011.0
1001.0
997.0
1003.0
1004.0
1005.0
999.0
1003.0
1007.0
1006.0
1006.0
1006.0
1004.0
997.0
987.0
986.0
999.0
1013.0
1018.0
1010.0
1011.0
1011.0
1011.0
1006.0
996.0
991.0
993.0
997.0
999.0
995.0
996.0
997.0
1002.0
1000.0
991.0
981.0
974.0
976.0
974.0
963.0
952.0
947.0
952.0
959.0
964.0
960.0
951.0
948.0
950.0
958.0
960.0
959.0
950.0
943.0
936.0
931.0
937.0
950.0
961.0
962.0
954.0
950.0
945.0
951.0
957.0
962.0
956.0
949.0
944.0
947.0
961.0
974.0
975.0
969.0
958.0
947.0
940.0
938.0
944.0
953.0
960.0
966.0
969.0
964.0
958.0
952.0
947.0
946.0
949.0
962.0
979.0
1003.0
1022.0
1041.0
1050.0
1051.0
1060.0
1078.0
1106.0
1128.0
1137.0
1131.0
1122.0
1119.0
1125.0
1129.0
1129.0
1126.0
1108.0
1095.0
1087.0
1081.0
1072.0
1058.0
1032.0
1004.0
988.0
973.0
956.0
921.0
891.0
876.0
877.0
876.0
873.0
868.0
870.0
874.0
877.0
882.0
881.0
877.0
872.0
879.0
890.0
893.0
896.0
902.0
912.0
919.0
918.0
907.0
905.0
907.0
917.0
928.0
933.0
927.0
920.0
920.0
923.0
926.0
926.0
924.0
923.0
922.0
925.0
926.0
926.0
925.0
928.0
929.0
928.0
926.0
932.0
932.0
925.0
913.0
908.0
914.0
919.0
923.0
921.0
918.0
916.0
922.0
931.0
935.0
936.0
935.0
930.0
920.0
916.0
923.0
940.0
959.0
966.0
964.0
961.0
957.0
952.0
947.0
948.0
961.0
976.0
982.0
984.0
985.0
986.0
987.0
984.0
988.0
992.0
989.0
987.0
990.0
993.0
999.0
1004.0
1011.0
1016.0
1016.0
1012.0
1012.0
1011.0
1009.0
1000.0
994.0
996.0
1000.0
1003.0
1008.0
1011.0
1011.0
1017.0
1016.0
1020.0
1017.0
1012.0
1011.0
1016.0
1019.0
1013.0
1010.0
1014.0
1020.0
1024.0
1019.0
1010.0
1002.0
1002.0
1007.0
1018.0
1020.0
1015.0
1009.0
1007.0
1009.0
1012.0
1017.0
1019.0
1014.0
1006.0
1002.0
1006.0
1012.0
1008.0
994.0
987.0
992.0
997.0
991.0
983.0
981.0
979.0
973.0
966.0
963.0
957.0
957.0
955.0
950.0
947.0
953.0
961.0
969.0
972.0
967.0
959.0
945.0
936.0
940.0
954.0
966.0
963.0
961.0
958.0
963.0
962.0
963.0
960.0
965.0
963.0
962.0
956.0
949.0
949.0
959.0
966.0
960.0
954.0
949.0
951.0
961.0
968.0
965.0
958.0
957.0
958.0
963.0
962.0
958.0
956.0
961.0
967.0
968.0
962.0
953.0
955.0
973.0
999.0
1019.0
1030.0
1043.0
1054.0
1065.0
1080.0
1091.0
1102.0
1114.0
1118.0
1123.0
1131.0
1142.0
1144.0
1133.0
1120.0
1112.0
1113.0
1107.0
1093.0
1083.0
1080.0
1081.0
1077.0
1061.0
1032.0
1005.0
978.0
957.0
938.0
919.0
909.0
902.0
895.0
886.0
874.0
870.0
872.0
875.0
867.0
859.0
861.0
870.0
878.0
885.0
891.0
898.0
901.0
901.0
900.0
904.0
908.0
906.0
909.0
916.0
923.0
927.0
925.0
927.0
929.0
930.0
931.0
932.0
932.0
931.0
934.0
935.0
932.0
929.0
925.0
927.0
930.0
930.0
929.0
927.0
927.0
924.0
922.0
920.0
918.0
916.0
920.0
927.0
929.0
926.0
927.0
931.0
937.0
937.0
939.0
937.0
932.0
926.0
922.0
926.0
933.0
934.0
937.0
937.0
943.0
947.0
948.0
955.0
961.0
964.0
964.0
962.0
963.0
957.0
948.0
947.0
955.0
966.0
973.0
976.0
979.0
981.0
980.0
978.0
981.0
990.0
999.0
1004.0
998.0
995.0
993.0
1002.0
1010.0
1012.0
1011.0
1004.0
1000.0
1000.0
1006.0
1012.0
1017.0
1018.0
1016.0
1015.0
1012.0
1012.0
1010.0
1006.0
1005.0
1010.0
1012.0
1014.0
1014.0
1010.0
1003.0
1000.0
1008.0
1013.0
1017.0
1019.0
1022.0
1023.0
1017.0
1009.0
1005.0
1011.0
1021.0
1022.0
1004.0
989.0
991.0
1004.0
1018.0
1019.0
1011.0
1010.0
1009.0
1014.0
1019.0
1019.0
1011.0
1001.0
1001.0
1000.0
999.0
996.0
992.0
986.0
989.0
994.0
1008.0
1011.0
1009.0
1003.0
998.0
993.0
994.0
989.0
982.0
972.0
964.0
960.0
964.0
965.0
969.0
973.0
969.0
963.0
962.0
961.0
961.0
962.0
967.0
968.0
975.0
974.0
967.0
949.0
941.0
939.0
951.0
962.0
964.0
967.0
966.0
970.0
968.0
960.0
947.0
944.0
952.0
967.0
972.0
969.0
961.0
954.0
948.0
946.0
956.0
969.0
974.0
974.0
971.0
970.0
976.0
980.0
978.0
971.0
959.0
952.0
949.0
949.0
949.0
949.0
954.0
972.0
999.0
1023.0
1042.0
1053.0
1059.0
1059.0
1057.0
1069.0
1083.0
1098.0
1106.0
1113.0
1123.0
1128.0
1124.0
1124.0
1128.0
1124.0
1122.0
1115.0
1102.0
1087.0
1076.0
1068.0
1059.0
1043.0
1029.0
1016.0
1003.0
986.0
964.0
936.0
912.0
897.0
885.0
877.0
873.0
875.0
875.0
879.0
878.0
868.0
867.0
869.0
871.0
876.0
877.0
873.0
872.0
875.0
885.0
894.0
906.0
911.0
911.0
913.0
917.0
923.0
923.0
921.0
922.0
922.0
923.0
925.0
927.0
925.0
922.0
917.0
919.0
923.0
932.0
930.0
927.0
929.0
932.0
931.0
924.0
921.0
916.0
916.0
922.0
924.0
922.0
921.0
919.0
920.0
923.0
928.0
929.0
928.0
928.0
930.0
929.0
924.0
924.0
924.0
926.0
930.0
932.0
931.0
933.0
935.0
940.0
942.0
950.0
953.0
953.0
953.0
958.0
963.0
963.0
963.0
968.0
969.0
967.0
968.0
970.0
976.0
982.0
987.0
993.0
999.0
1000.0
997.0
993.0
995.0
1000.0
1009.0
1011.0
1002.0
987.0
979.0
988.0
1002.0
1013.0
1010.0
1002.0
1001.0
1014.0
1019.0
1014.0
1006.0
1003.0
1003.0
1007.0
1008.0
1011.0
1011.0
1007.0
1005.0
1009.0
1011.0
1014.0
1010.0
1001.0
993.0
993.0
1004.0
1013.0
1014.0
1016.0
1019.0
1020.0
1017.0
1007.0
998.0
986.0
984.0
995.0
1005.0
1011.0
1010.0
1013.0
1012.0
1014.0
1011.0
1006.0
995.0
988.0
979.0
965.0
948.0
944.0
943.0
945.0
946.0
945.0
943.0
943.0
943.0
944.0
941.0
942.0
946.0
951.0
952.0
949.0
945.0
946.0
955.0
965.0
968.0
964.0
958.0
956.0
958.0
960.0
961.0
964.0
961.0
953.0
945.0
938.0
939.0
950.0
962.0
964.0
961.0
955.0
949.0
946.0
946.0
946.0
948.0
947.0
950.0
949.0
950.0
951.0
959.0
962.0
962.0
956.0
954.0
954.0
956.0
960.0
972.0
993.0
1013.0
1028.0
1039.0
1041.0
1042.0
1044.0
1057.0
1078.0
1098.0
1113.0
1123.0
1128.0
1129.0
1128.0
1124.0
1122.0
1117.0
1113.0
1107.0
1103.0
1098.0
1089.0
1075.0
1064.0
1051.0
1045.0
1036.0
1026.0
1004.0
979.0
953.0
928.0
907.0
889.0
878.0
869.0
864.0
865.0
863.0
862.0
859.0
860.0
862.0
872.0
876.0
876.0
879.0
881.0
885.0
888.0
888.0
885.0
884.0
890.0
898.0
909.0
915.0
914.0
913.0
916.0
913.0
914.0
915.0
914.0
916.0
909.0
909.0
909.0
917.0
924.0
920.0
913.0
906.0
908.0
909.0
907.0
904.0
907.0
910.0
915.0
918.0
919.0
918.0
916.0
912.0
908.0
910.0
909.0
913.0
919.0
917.0
917.0
920.0
923.0
923.0
916.0
915.0
920.0
926.0
928.0
930.0
932.0
932.0
935.0
944.0
948.0
946.0
933.0
931.0
938.0
941.0
949.0
955.0
956.0
958.0
959.0
957.0
959.0
963.0
969.0
973.0
977.0
974.0
973.0
974.0
983.0
990.0
993.0
991.0
987.0
985.0
985.0
986.0
988.0
990.0
994.0
995.0
998.0
998.0
994.0
999.0
1005.0
1004.0
1000.0
994.0
995.0
998.0
1000.0
998.0
996.0
995.0
999.0
1006.0
1011.0
1005.0
1002.0
999.0
996.0
992.0
991.0
990.0
990.0
996.0
997.0
998.0
997.0
996.0
999.0
996.0
995.0
996.0
997.0
992.0
996.0
995.0
997.0
999.0
999.0
1003.0
1002.0
999.0
997.0
991.0
982.0
974.0
967.0
962.0
957.0
952.0
950.0
949.0
949.0
951.0
948.0
951.0
953.0
949.0
946.0
944.0
945.0
949.0
955.0
953.0
952.0
952.0
956.0
955.0
950.0
949.0
946.0
944.0
946.0
947.0
951.0
952.0
953.0
952.0
953.0
954.0
954.0
953.0
951.0
948.0
950.0
