# Simple Text Format
# Sampling Rate (Hz):= 360.00
# Resolution:= 12
# Labels:= ECG
908.0
911.0
909.0
906.0
908.0
904.0
902.0
905.0
905.0
902.0
901.0
898.0
897.0
898.0
900.0
900.0
899.0
896.0
899.0
901.0
904.0
902.0
900.0
901.0
903.0
906.0
910.0
913.0
910.0
910.0
913.0
916.0
923.0
923.0
926.0
925.0
927.0
932.0
936.0
943.0
942.0
944.0
947.0
950.0
956.0
960.0
961.0
965.0
970.0
974.0
980.0
979.0
983.0
988.0
990.0
992.0
999.0
1000.0
1001.0
1003.0
1003.0
1008.0
1011.0
1011.0
1014.0
1011.0
1013.0
1014.0
1016.0
1017.0
1015.0
1015.0
1013.0
1015.0
1018.0
1017.0
1011.0
1011.0
1009.0
1009.0
1010.0
1008.0
1008.0
1005.0
1005.0
1005.0
1006.0
1003.0
1002.0
999.0
1001.0
1002.0
1005.0
1008.0
1008.0
1006.0
1007.0
1009.0
1010.0
1008.0
1005.0
1006.0
1004.0
1009.0
1011.0
1012.0
1013.0
1012.0
1012.0
1015.0
1018.0
1017.0
1014.0
1012.0
1006.0
1009.0
1012.0
1014.0
1010.0
1007.0
1008.0
1009.0
1009.0
1010.0
1006.0
998.0
988.0
987.0
986.0
979.0
975.0
970.0
964.0
963.0
964.0
965.0
963.0
959.0
957.0
957.0
960.0
960.0
958.0
959.0
958.0
960.0
963.0
960.0
960.0
957.0
958.0
960.0
963.0
963.0
961.0
960.0
962.0
962.0
964.0
965.0
962.0
961.0
961.0
965.0
965.0
966.0
966.0
964.0
963.0
966.0
968.0
970.0
967.0
966.0
967.0
969.0
972.0
970.0
969.0
969.0
965.0
966.0
967.0
963.0
960.0
962.0
969.0
992.0
1022.0
1047.0
1074.0
1095.0
1115.0
1134.0
1153.0
1180.0
1208.0
1237.0
1264.0
1290.0
1316.0
1328.0
1334.0
1328.0
1320.0
1313.0
1294.0
1259.0
1216.0
1184.0
1153.0
1126.0
1098.0
1064.0
1024.0
981.0
943.0
913.0
888.0
861.0
845.0
830.0
826.0
824.0
826.0
829.0
832.0
833.0
833.0
838.0
845.0
854.0
858.0
867.0
871.0
874.0
882.0
884.0
890.0
892.0
895.0
902.0
908.0
909.0
909.0
909.0
909.0
909.0
910.0
909.0
909.0
909.0
906.0
908.0
909.0
907.0
904.0
902.0
901.0
904.0
902.0
903.0
901.0
900.0
898.0
899.0
902.0
897.0
896.0
896.0
896.0
896.0
899.0
900.0
900.0
896.0
895.0
897.0
899.0
903.0
902.0
903.0
904.0
907.0
913.0
915.0
916.0
919.0
923.0
928.0
932.0
933.0
934.0
937.0
940.0
946.0
950.0
953.0
956.0
958.0
962.0
968.0
973.0
974.0
977.0
978.0
982.0
988.0
993.0
995.0
996.0
997.0
999.0
1001.0
1007.0
1006.0
1009.0
1007.0
1005.0
1006.0
1012.0
1011.0
1011.0
1010.0
1007.0
1010.0
1010.0
1010.0
1009.0
1005.0
1003.0
1005.0
1004.0
1005.0
1002.0
998.0
997.0
999.0
997.0
995.0
994.0
992.0
992.0
997.0
999.0
1001.0
999.0
998.0
997.0
997.0
998.0
997.0
997.0
996.0
998.0
1002.0
1006.0
1008.0
1008.0
1006.0
1003.0
1007.0
1007.0
1005.0
1002.0
1000.0
1001.0
1003.0
1004.0
1003.0
1004.0
1003.0
1001.0
1000.0
1001.0
994.0
987.0
978.0
973.0
972.0
971.0
964.0
960.0
955.0
953.0
956.0
955.0
954.0
950.0
951.0
948.0
950.0
953.0
954.0
952.0
951.0
951.0
952.0
955.0
955.0
952.0
951.0
950.0
955.0
957.0
956.0
958.0
957.0
955.0
958.0
961.0
960.0
959.0
957.0
956.0
960.0
963.0
961.0
962.0
959.0
962.0
963.0
967.0
965.0
962.0
960.0
960.0
960.0
959.0
954.0
955.0
955.0
962.0
983.0
1014.0
1043.0
1071.0
1096.0
1113.0
1130.0
1152.0
1178.0
1203.0
1227.0
1251.0
1274.0
1288.0
1293.0
1292.0
1287.0
1279.0
1266.0
1242.0
1206.0
1173.0
1145.0
1121.0
1096.0
1068.0
1028.0
985.0
947.0
917.0
888.0
869.0
853.0
841.0
831.0
828.0
830.0
834.0
837.0
838.0
838.0
844.0
854.0
859.0
867.0
873.0
876.0
879.0
885.0
893.0
897.0
901.0
906.0
908.0
910.0
915.0
918.0
915.0
914.0
914.0
912.0
913.0
913.0
913.0
910.0
905.0
906.0
906.0
908.0
909.0
905.0
903.0
905.0
906.0
906.0
903.0
899.0
900.0
902.0
905.0
903.0
900.0
900.0
901.0
903.0
906.0
906.0
907.0
905.0
904.0
908.0
909.0
912.0
913.0
914.0
913.0
917.0
921.0
925.0
926.0
928.0
930.0
935.0
938.0
941.0
946.0
948.0
949.0
954.0
958.0
961.0
963.0
967.0
968.0
975.0
980.0
983.0
984.0
987.0
989.0
993.0
997.0
997.0
999.0
998.0
1001.0
1005.0
1008.0
1012.0
1010.0
1010.0
1009.0
1013.0
1015.0
1015.0
1014.0
1011.0
1010.0
1011.0
1012.0
1011.0
1010.0
1008.0
1006.0
1006.0
1008.0
1007.0
1003.0
1003.0
1000.0
999.0
1002.0
1000.0
998.0
998.0
996.0
999.0
1003.0
1004.0
1003.0
1003.0
1001.0
1004.0
1006.0
1004.0
1004.0
1006.0
1004.0
1005.0
1010.0
1013.0
1011.0
1011.0
1011.0
1015.0
1016.0
1015.0
1011.0
1008.0
1010.0
1008.0
1012.0
1011.0
1009.0
1009.0
1010.0
1009.0
1008.0
1007.0
1000.0
994.0
988.0
982.0
982.0
978.0
971.0
965.0
962.0
961.0
959.0
960.0
957.0
956.0
953.0
953.0
957.0
958.0
957.0
958.0
955.0
958.0
959.0
959.0
958.0
959.0
957.0
960.0
960.0
960.0
960.0
959.0
961.0
962.0
964.0
964.0
961.0
960.0
961.0
963.0
967.0
965.0
966.0
963.0
965.0
966.0
968.0
969.0
967.0
965.0
968.0
971.0
971.0
969.0
968.0
964.0
957.0
955.0
957.0
958.0
966.0
984.0
1012.0
1041.0
1068.0
1090.0
1104.0
1118.0
1140.0
1171.0
1201.0
1231.0
1256.0
1275.0
1289.0
1298.0
1301.0
1301.0
1292.0
1281.0
1255.0
1223.0
1193.0
1161.0
1135.0
1104.0
1068.0
1031.0
991.0
955.0
921.0
894.0
871.0
857.0
847.0
841.0
834.0
834.0
837.0
842.0
844.0
842.0
846.0
851.0
858.0
869.0
877.0
882.0
882.0
885.0
890.0
896.0
903.0
906.0
910.0
912.0
913.0
914.0
918.0
920.0
915.0
916.0
912.0
914.0
916.0
916.0
914.0
911.0
911.0
911.0
913.0
911.0
908.0
908.0
904.0
908.0
909.0
909.0
903.0
904.0
903.0
902.0
903.0
903.0
903.0
900.0
899.0
903.0
906.0
904.0
904.0
901.0
903.0
906.0
910.0
910.0
910.0
910.0
911.0
915.0
921.0
922.0
922.0
924.0
926.0
934.0
936.0
938.0
941.0
943.0
945.0
949.0
957.0
960.0
961.0
964.0
967.0
972.0
977.0
979.0
981.0
983.0
985.0
990.0
992.0
997.0
997.0
998.0
999.0
1003.0
1007.0
1009.0
1010.0
1010.0
1011.0
1014.0
1015.0
1016.0
1017.0
1016.0
1014.0
1018.0
1017.0
1016.0
1015.0
1011.0
1012.0
1009.0
1011.0
1011.0
1007.0
1006.0
1004.0
1004.0
1004.0
1002.0
999.0
997.0
996.0
998.0
1000.0
999.0
1001.0
1001.0
1003.0
1005.0
1005.0
1005.0
1002.0
1002.0
1000.0
1006.0
1006.0
1008.0
1010.0
1010.0
1011.0
1011.0
1014.0
1014.0
1011.0
1007.0
1003.0
1005.0
1008.0
1009.0
1008.0
1009.0
1008.0
1010.0
1012.0
1008.0
1003.0
995.0
988.0
984.0
981.0
976.0
971.0
962.0
960.0
958.0
961.0
960.0
960.0
957.0
956.0
958.0
960.0
960.0
961.0
958.0
957.0
961.0
962.0
960.0
959.0
958.0
959.0
959.0
960.0
964.0
962.0
960.0
960.0
962.0
965.0
965.0
965.0
963.0
962.0
966.0
968.0
966.0
967.0
964.0
965.0
968.0
970.0
970.0
970.0
971.0
967.0
973.0
969.0
966.0
961.0
956.0
954.0
963.0
980.0
1010.0
1042.0
1070.0
1093.0
1111.0
1133.0
1163.0
1200.0
1231.0
1262.0
1292.0
1309.0
1318.0
1323.0
1319.0
1307.0
1290.0
1259.0
1221.0
1185.0
1157.0
1129.0
1099.0
1064.0
1022.0
973.0
938.0
906.0
884.0
864.0
850.0
841.0
831.0
831.0
835.0
840.0
840.0
840.0
842.0
849.0
859.0
871.0
879.0
882.0
882.0
885.0
892.0
899.0
904.0
907.0
910.0
911.0
916.0
920.0
919.0
917.0
915.0
913.0
916.0
915.0
914.0
913.0
911.0
908.0
911.0
911.0
907.0
908.0
906.0
905.0
905.0
907.0
905.0
903.0
901.0
898.0
899.0
899.0
902.0
901.0
900.0
899.0
902.0
904.0
903.0
903.0
903.0
905.0
908.0
910.0
913.0
915.0
913.0
915.0
919.0
925.0
927.0
926.0
929.0
931.0
936.0
940.0
943.0
944.0
947.0
949.0
952.0
961.0
964.0
966.0
969.0
971.0
975.0
981.0
985.0
987.0
987.0
986.0
995.0
995.0
997.0
1000.0
1000.0
1003.0
1006.0
1010.0
1010.0
1013.0
1011.0
1011.0
1014.0
1016.0
1014.0
1016.0
1015.0
1013.0
1013.0
1014.0
1014.0
1013.0
1008.0
1006.0
1007.0
1007.0
1008.0
1007.0
1001.0
1001.0
1000.0
1002.0
1001.0
998.0
996.0
994.0
995.0
997.0
1000.0
997.0
1001.0
1001.0
1002.0
1004.0
1003.0
1001.0
1001.0
1000.0
1003.0
1006.0
1006.0
1008.0
1008.0
1008.0
1010.0
1013.0
1013.0
1013.0
1011.0
1007.0
1008.0
1007.0
1008.0
1008.0
1002.0
1008.0
1007.0
1011.0
1012.0
1009.0
1005.0
997.0
996.0
990.0
984.0
977.0
974.0
968.0
963.0
967.0
965.0
962.0
961.0
961.0
959.0
960.0
961.0
961.0
961.0
961.0
962.0
962.0
963.0
960.0
959.0
960.0
963.0
963.0
963.0
963.0
962.0
964.0
965.0
968.0
966.0
964.0
965.0
966.0
968.0
969.0
970.0
969.0
967.0
966.0
970.0
972.0
973.0
972.0
970.0
970.0
972.0
971.0
971.0
965.0
958.0
954.0
963.0
973.0
991.0
1023.0
1051.0
1079.0
1103.0
1123.0
1143.0
1168.0
1201.0
1233.0
1270.0
1299.0
1317.0
1325.0
1326.0
1323.0
1312.0
1287.0
1247.0
1206.0
1169.0
1139.0
1109.0
1075.0
1029.0
982.0
943.0
905.0
879.0
859.0
845.0
836.0
829.0
830.0
833.0
836.0
839.0
839.0
842.0
851.0
862.0
873.0
881.0
885.0
888.0
890.0
896.0
906.0
910.0
913.0
912.0
913.0
917.0
919.0
917.0
916.0
913.0
909.0
911.0
913.0
910.0
908.0
905.0
904.0
906.0
907.0
903.0
901.0
898.0
898.0
899.0
901.0
899.0
898.0
897.0
896.0
899.0
898.0
900.0
897.0
897.0
898.0
901.0
907.0
905.0
903.0
903.0
904.0
908.0
915.0
916.0
918.0
919.0
921.0
928.0
932.0
931.0
936.0
938.0
941.0
946.0
950.0
954.0
956.0
959.0
961.0
967.0
971.0
972.0
974.0
976.0
981.0
986.0
992.0
995.0
995.0
996.0
998.0
1003.0
1006.0
1008.0
1008.0
1008.0
1009.0
1013.0
1015.0
1014.0
1016.0
1012.0
1012.0
1015.0
1016.0
1016.0
1014.0
1013.0
1011.0
1012.0
1012.0
1012.0
1008.0
1007.0
1006.0
1005.0
1005.0
1004.0
1002.0
996.0
998.0
999.0
998.0
999.0
997.0
998.0
1001.0
1001.0
1004.0
1007.0
1004.0
1002.0
1001.0
1003.0
1005.0
1008.0
1007.0
1007.0
1006.0
1011.0
1011.0
1015.0
1015.0
1011.0
1010.0
1011.0
1011.0
1010.0
1008.0
1008.0
1009.0
1011.0
1011.0
1012.0
1010.0
1008.0
1005.0
1003.0
998.0
992.0
985.0
977.0
974.0
971.0
968.0
964.0
961.0
957.0
955.0
957.0
958.0
956.0
958.0
956.0
956.0
959.0
960.0
960.0
959.0
959.0
957.0
961.0
961.0
960.0
959.0
956.0
959.0
958.0
961.0
962.0
963.0
961.0
961.0
963.0
963.0
963.0
964.0
961.0
961.0
962.0
966.0
966.0
967.0
965.0
965.0
966.0
969.0
969.0
968.0
963.0
965.0
961.0
958.0
956.0
957.0
962.0
982.0
1014.0
1045.0
1076.0
1099.0
1114.0
1132.0
1159.0
1193.0
1223.0
1252.0
1279.0
1304.0
1321.0
1330.0
1334.0
1326.0
1315.0
1290.0
1254.0
1216.0
1182.0
1151.0
1117.0
1082.0
1041.0
996.0
952.0
917.0
887.0
862.0
846.0
838.0
830.0
826.0
825.0
826.0
830.0
833.0
834.0
836.0
844.0
853.0
862.0
871.0
875.0
879.0
885.0
887.0
893.0
900.0
902.0
906.0
905.0
905.0
909.0
910.0
912.0
909.0
908.0
905.0
906.0
909.0
906.0
905.0
901.0
902.0
901.0
901.0
901.0
899.0
898.0
894.0
895.0
898.0
895.0
893.0
893.0
892.0
891.0
893.0
894.0
892.0
889.0
889.0
890.0
892.0
893.0
893.0
894.0
892.0
894.0
898.0
900.0
900.0
901.0
901.0
906.0
909.0
912.0
915.0
915.0
918.0
922.0
927.0
931.0
935.0
937.0
940.0
943.0
947.0
952.0
953.0
957.0
959.0
966.0
967.0
973.0
976.0
979.0
980.0
985.0
991.0
993.0
995.0
996.0
997.0
1001.0
1004.0
1004.0
1005.0
1005.0
1005.0
1008.0
1011.0
1011.0
1010.0
1009.0
1006.0
1005.0
1010.0
1010.0
1006.0
1006.0
1004.0
1005.0
1008.0
1005.0
1002.0
1001.0
999.0
999.0
998.0
997.0
993.0
993.0
990.0
992.0
995.0
996.0
995.0
996.0
996.0
998.0
999.0
999.0
998.0
995.0
995.0
995.0
995.0
999.0
998.0
998.0
998.0
1001.0
1003.0
1005.0
1003.0
1004.0
1002.0
1004.0
1006.0
1005.0
1001.0
999.0
998.0
1002.0
1003.0
1003.0
1002.0
1001.0
1000.0
999.0
1000.0
996.0
990.0
982.0
976.0
974.0
971.0
966.0
962.0
956.0
952.0
953.0
955.0
954.0
953.0
949.0
947.0
950.0
953.0
951.0
949.0
948.0
948.0
952.0
953.0
956.0
954.0
952.0
949.0
953.0
955.0
954.0
952.0
952.0
953.0
954.0
956.0
957.0
953.0
956.0
954.0
956.0
957.0
960.0
957.0
957.0
958.0
961.0
961.0
965.0
961.0
962.0
961.0
963.0
964.0
963.0
964.0
960.0
957.0
955.0
954.0
953.0
952.0
962.0
986.0
1016.0
1049.0
1079.0
1105.0
1123.0
1141.0
1169.0
1204.0
1233.0
1258.0
1283.0
1306.0
1326.0
1336.0
1336.0
1329.0
1318.0
1295.0
1264.0
1223.0
1186.0
1153.0
1117.0
1077.0
1036.0
992.0
948.0
911.0
879.0
854.0
839.0
828.0
823.0
816.0
815.0
816.0
820.0
826.0
828.0
831.0
836.0
845.0
855.0
864.0
868.0
872.0
876.0
881.0
889.0
894.0
900.0
901.0
903.0
902.0
903.0
904.0
904.0
902.0
902.0
898.0
901.0
900.0
901.0
897.0
896.0
894.0
893.0
893.0
893.0
892.0
892.0
888.0
888.0
889.0
889.0
888.0
885.0
884.0
886.0
889.0
887.0
888.0
883.0
881.0
884.0
889.0
890.0
890.0
889.0
887.0
890.0
893.0
898.0
897.0
897.0
899.0
903.0
906.0
910.0
908.0
912.0
915.0
919.0
926.0
929.0
930.0
933.0
935.0
941.0
948.0
950.0
953.0
956.0
954.0
959.0
965.0
970.0
972.0
972.0
975.0
979.0
981.0
985.0
988.0
988.0
991.0
994.0
995.0
1000.0
999.0
999.0
997.0
1001.0
1002.0
1004.0
1002.0
1000.0
1002.0
1001.0
1005.0
1002.0
1002.0
999.0
999.0
998.0
1000.0
998.0
995.0
993.0
990.0
992.0
992.0
989.0
989.0
984.0
984.0
984.0
985.0
986.0
982.0
983.0
982.0
983.0
988.0
990.0
989.0
988.0
985.0
988.0
989.0
989.0
989.0
987.0
988.0
989.0
993.0
996.0
999.0
998.0
997.0
1000.0
1000.0
1003.0
999.0
997.0
994.0
993.0
994.0
995.0
997.0
993.0
994.0
997.0
999.0
1000.0
995.0
995.0
990.0
985.0
983.0
978.0
972.0
966.0
959.0
957.0
959.0
954.0
950.0
948.0
946.0
948.0
948.0
947.0
946.0
945.0
944.0
947.0
948.0
948.0
947.0
947.0
946.0
948.0
949.0
949.0
950.0
949.0
948.0
948.0
950.0
951.0
952.0
950.0
948.0
950.0
953.0
953.0
952.0
952.0
949.0
953.0
953.0
956.0
953.0
954.0
954.0
956.0
958.0
958.0
957.0
956.0
956.0
959.0
961.0
961.0
961.0
958.0
957.0
955.0
955.0
954.0
954.0
954.0
965.0
985.0
1013.0
1042.0
1068.0
1095.0
1114.0
1130.0
1150.0
1175.0
1201.0
1224.0
1249.0
1275.0
1298.0
1311.0
1313.0
1311.0
1307.0
1298.0
1279.0
1246.0
1208.0
1172.0
1144.0
1118.0
1089.0
1056.0
1013.0
966.0
926.0
898.0
874.0
852.0
836.0
824.0
820.0
820.0
821.0
824.0
824.0
824.0
825.0
832.0
839.0
850.0
855.0
859.0
863.0
869.0
875.0
878.0
882.0
887.0
890.0
896.0
900.0
901.0
901.0
902.0
900.0
904.0
906.0
907.0
904.0
903.0
899.0
900.0
903.0
900.0
901.0
899.0
896.0
899.0
900.0
899.0
898.0
896.0
893.0
893.0
896.0
894.0
894.0
891.0
890.0
894.0
890.0
893.0
889.0
891.0
890.0
892.0
891.0
895.0
896.0
895.0
897.0
899.0
903.0
905.0
906.0
906.0
908.0
914.0
917.0
919.0
922.0
923.0
923.0
929.0
935.0
938.0
940.0
943.0
944.0
948.0
952.0
952.0
957.0
958.0
960.0
965.0
970.0
973.0
973.0
977.0
980.0
984.0
987.0
992.0
992.0
992.0
993.0
997.0
1000.0
1001.0
1003.0
1002.0
1002.0
1005.0
1007.0
1005.0
1005.0
1006.0
1002.0
1005.0
1006.0
1006.0
1006.0
1003.0
999.0
1000.0
1002.0
1001.0
998.0
997.0
994.0
995.0
997.0
995.0
993.0
990.0
987.0
988.0
990.0
991.0
992.0
991.0
991.0
995.0
994.0
995.0
994.0
994.0
993.0
994.0
995.0
999.0
999.0
999.0
1001.0
1003.0
1006.0
1006.0
1007.0
1005.0
1003.0
1006.0
1004.0
1005.0
1002.0
1001.0
999.0
1001.0
1004.0
1005.0
1005.0
1001.0
1003.0
1003.0
1004.0
999.0
996.0
991.0
982.0
978.0
975.0
974.0
967.0
961.0
955.0
953.0
956.0
954.0
954.0
950.0
948.0
951.0
953.0
950.0
952.0
949.0
950.0
951.0
952.0
953.0
951.0
951.0
950.0
952.0
954.0
955.0
953.0
953.0
953.0
953.0
955.0
957.0
955.0
955.0
954.0
956.0
959.0
959.0
959.0
957.0
956.0
958.0
959.0
957.0
960.0
959.0
956.0
960.0
961.0
962.0
961.0
961.0
957.0
959.0
960.0
961.0
957.0
953.0
947.0
949.0
950.0
953.0
963.0
982.0
1008.0
1037.0
1062.0
1086.0
1102.0
1119.0
1138.0
1170.0
1199.0
1228.0
1252.0
1274.0
1294.0
1305.0
1312.0
1312.0
1309.0
1297.0
1276.0
1248.0
1213.0
1182.0
1155.0
1129.0
1102.0
1072.0
1038.0
1001.0
961.0
930.0
902.0
875.0
858.0
844.0
833.0
828.0
824.0
825.0
832.0
834.0
833.0
829.0
837.0
846.0
857.0
865.0
870.0
876.0
877.0
882.0
888.0
894.0
897.0
900.0
900.0
903.0
909.0
909.0
908.0
903.0
903.0
903.0
906.0
909.0
905.0
900.0
900.0
902.0
901.0
900.0
900.0
894.0
894.0
893.0
895.0
897.0
894.0
894.0
893.0
894.0
894.0
896.0
892.0
891.0
893.0
892.0
895.0
895.0
895.0
895.0
895.0
899.0
901.0
904.0
904.0
904.0
904.0
909.0
912.0
916.0
918.0
919.0
920.0
925.0
930.0
933.0
938.0
937.0
940.0
944.0
953.0
955.0
959.0
958.0
965.0
970.0
974.0
977.0
980.0
981.0
984.0
987.0
991.0
996.0
996.0
998.0
999.0
997.0
1004.0
1005.0
1005.0
1004.0
1006.0
1005.0
1006.0
1009.0
1009.0
1006.0
1004.0
1005.0
1007.0
1006.0
1004.0
1002.0
999.0
1000.0
999.0
998.0
998.0
994.0
992.0
994.0
994.0
993.0
991.0
989.0
985.0
990.0
992.0
994.0
995.0
993.0
994.0
996.0
998.0
998.0
995.0
996.0
998.0
999.0
1003.0
1004.0
1005.0
1004.0
1003.0
1007.0
1004.0
1005.0
1005.0
1001.0
997.0
999.0
999.0
1003.0
1003.0
1002.0
1002.0
1004.0
1004.0
1002.0
999.0
992.0
986.0
980.0
978.0
971.0
967.0
960.0
955.0
954.0
954.0
954.0
953.0
949.0
946.0
948.0
951.0
950.0
950.0
948.0
949.0
949.0
951.0
951.0
952.0
950.0
951.0
953.0
954.0
954.0
952.0
953.0
951.0
955.0
955.0
958.0
956.0
955.0
955.0
956.0
956.0
960.0
958.0
957.0
955.0
959.0
962.0
963.0
961.0
959.0
961.0
963.0
963.0
964.0
963.0
964.0
959.0
959.0
956.0
951.0
952.0
950.0
956.0
977.0
1003.0
1032.0
1060.0
1081.0
1098.0
1120.0
1140.0
1171.0
1201.0
1229.0
1257.0
1283.0
1305.0
1317.0
1321.0
1319.0
1314.0
1307.0
1284.0
1255.0
1216.0
1180.0
1150.0
1121.0
1092.0
1054.0
1010.0
966.0
930.0
902.0
878.0
856.0
841.0
830.0
820.0
821.0
823.0
826.0
828.0
827.0
826.0
832.0
843.0
850.0
859.0
863.0
867.0
872.0
880.0
884.0
890.0
893.0
897.0
900.0
903.0
908.0
906.0
907.0
906.0
906.0
906.0
905.0
903.0
901.0
900.0
900.0
899.0
900.0
896.0
894.0
891.0
894.0
892.0
893.0
892.0
889.0
887.0
888.0
887.0
888.0
887.0
886.0
885.0
885.0
890.0
889.0
890.0
885.0
885.0
889.0
892.0
893.0
894.0
895.0
896.0
898.0
904.0
907.0
910.0
910.0
912.0
915.0
923.0
927.0
931.0
933.0
933.0
938.0
943.0
946.0
947.0
953.0
954.0
959.0
964.0
968.0
972.0
971.0
975.0
981.0
985.0
985.0
989.0
989.0
992.0
995.0
997.0
1002.0
1002.0
1000.0
999.0
1003.0
1006.0
1006.0
1005.0
1002.0
1003.0
1004.0
1004.0
1004.0
1001.0
1000.0
995.0
998.0
998.0
997.0
996.0
993.0
988.0
988.0
989.0
990.0
986.0
985.0
986.0
987.0
990.0
991.0
992.0
989.0
988.0
991.0
994.0
993.0
992.0
993.0
994.0
995.0
997.0
1000.0
1000.0
999.0
1002.0
1002.0
1004.0
1002.0
998.0
995.0
994.0
997.0
998.0
1000.0
1002.0
1002.0
997.0
999.0
996.0
994.0
987.0
979.0
974.0
969.0
965.0
961.0
959.0
952.0
952.0
953.0
956.0
955.0
953.0
951.0
949.0
952.0
954.0
953.0
954.0
952.0
952.0
953.0
955.0
954.0
952.0
950.0
952.0
953.0
955.0
957.0
955.0
953.0
952.0
955.0
954.0
955.0
956.0
955.0
955.0
958.0
960.0
957.0
958.0
958.0
955.0
961.0
963.0
964.0
961.0
962.0
957.0
957.0
956.0
951.0
949.0
949.0
955.0
976.0
1003.0
1031.0
1058.0
1085.0
1104.0
1123.0
1149.0
1177.0
1206.0
1235.0
1264.0
1291.0
1314.0
1327.0
1330.0
1326.0
1315.0
1297.0
1266.0
1224.0
1186.0
1152.0
1120.0
1088.0
1046.0
996.0
952.0
915.0
886.0
863.0
846.0
834.0
824.0
818.0
818.0
821.0
823.0
825.0
827.0
828.0
835.0
845.0
857.0
863.0
865.0
870.0
871.0
880.0
887.0
892.0
895.0
898.0
895.0
900.0
903.0
903.0
902.0
902.0
898.0
900.0
900.0
901.0
898.0
896.0
894.0
897.0
895.0
895.0
894.0
892.0
889.0
890.0
892.0
891.0
888.0
887.0
886.0
888.0
889.0
887.0
887.0
886.0
886.0
886.0
888.0
888.0
889.0
889.0
889.0
892.0
895.0
898.0
899.0
898.0
900.0
904.0
911.0
912.0
914.0
916.0
920.0
926.0
931.0
932.0
937.0
937.0
941.0
943.0
950.0
953.0
956.0
957.0
960.0
965.0
970.0
974.0
978.0
979.0
980.0
983.0
990.0
992.0
992.0
991.0
993.0
997.0
1000.0
1002.0
1001.0
1001.0
1001.0
1001.0
1004.0
1003.0
1004.0
1003.0
1001.0
1002.0
1001.0
1000.0
999.0
996.0
996.0
995.0
996.0
994.0
994.0
992.0
990.0
989.0
990.0
991.0
988.0
986.0
985.0
986.0
989.0
992.0
991.0
991.0
992.0
992.0
992.0
993.0
992.0
991.0
991.0
993.0
996.0
998.0
999.0
998.0
999.0
1000.0
1001.0
1000.0
998.0
995.0
990.0
996.0
998.0
998.0
1001.0
998.0
998.0
1000.0
999.0
997.0
992.0
986.0
978.0
975.0
972.0
967.0
963.0
959.0
950.0
950.0
949.0
950.0
951.0
949.0
946.0
947.0
951.0
952.0
950.0
947.0
945.0
946.0
948.0
950.0
949.0
949.0
948.0
950.0
950.0
951.0
953.0
951.0
949.0
950.0
954.0
954.0
953.0
954.0
952.0
953.0
955.0
957.0
955.0
954.0
953.0
955.0
959.0
959.0
959.0
957.0
958.0
959.0
962.0
962.0
961.0
956.0
953.0
953.0
949.0
947.0
948.0
951.0
964.0
985.0
1015.0
1042.0
1070.0
1093.0
1107.0
1128.0
1153.0
1184.0
1220.0
1248.0
1276.0
1303.0
1320.0
1328.0
1329.0
1326.0
1319.0
1304.0
1271.0
1231.0
1192.0
1157.0
1128.0
1091.0
1054.0
1011.0
963.0
927.0
896.0
872.0
850.0
836.0
823.0
817.0
814.0
817.0
824.0
825.0
826.0
828.0
834.0
842.0
854.0
861.0
865.0
869.0
873.0
879.0
885.0
891.0
894.0
897.0
899.0
902.0
904.0
905.0
906.0
903.0
901.0
902.0
904.0
903.0
903.0
899.0
897.0
898.0
898.0
896.0
896.0
894.0
892.0
892.0
891.0
892.0
892.0
892.0
886.0
887.0
888.0
889.0
888.0
887.0
886.0
886.0
890.0
891.0
891.0
890.0
889.0
892.0
890.0
896.0
894.0
895.0
895.0
899.0
902.0
907.0
907.0
910.0
912.0
914.0
921.0
922.0
926.0
926.0
927.0
932.0
938.0
941.0
945.0
946.0
948.0
953.0
957.0
960.0
963.0
964.0
967.0
970.0
974.0
977.0
982.0
981.0
983.0
986.0
991.0
992.0
995.0
995.0
996.0
998.0
1002.0
1003.0
1003.0
1002.0
1000.0
1000.0
1003.0
1005.0
1003.0
1002.0
999.0
1001.0
1000.0
1000.0
997.0
994.0
992.0
993.0
994.0
991.0
992.0
988.0
984.0
984.0
985.0
987.0
984.0
983.0
981.0
983.0
989.0
992.0
992.0
990.0
988.0
989.0
991.0
991.0
992.0
989.0
991.0
990.0
993.0
996.0
997.0
997.0
997.0
1000.0
1001.0
1003.0
999.0
996.0
993.0
997.0
999.0
997.0
1000.0
1000.0
999.0
1000.0
1000.0
999.0
995.0
986.0
978.0
974.0
970.0
969.0
963.0
955.0
953.0
952.0
952.0
953.0
954.0
950.0
946.0
950.0
950.0
953.0
950.0
950.0
949.0
949.0
952.0
953.0
951.0
950.0
949.0
950.0
955.0
953.0
954.0
954.0
952.0
955.0
956.0
955.0
955.0
955.0
952.0
956.0
958.0
960.0
959.0
957.0
956.0
958.0
963.0
962.0
961.0
960.0
958.0
959.0
957.0
955.0
951.0
947.0
945.0
952.0
967.0
995.0
1026.0
1057.0
1086.0
1109.0
1130.0
1156.0
1187.0
1219.0
1247.0
1282.0
1310.0
1331.0
1339.0
1340.0
1334.0
1326.0
1305.0
1268.0
1223.0
1180.0
1144.0
1107.0
1072.0
1022.0
973.0
928.0
891.0
864.0
845.0
829.0
819.0
813.0
814.0
815.0
819.0
823.0
823.0
827.0
833.0
843.0
855.0
862.0
866.0
868.0
872.0
877.0
885.0
890.0
894.0
897.0
895.0
899.0
901.0
899.0
899.0
900.0
897.0
898.0
897.0
895.0
896.0
892.0
891.0
892.0
892.0
893.0
891.0
886.0
887.0
886.0
886.0
887.0
883.0
885.0
879.0
882.0
882.0
886.0
884.0
881.0
879.0
883.0
884.0
889.0
887.0
885.0
887.0
890.0
894.0
897.0
896.0
895.0
898.0
903.0
907.0
909.0
911.0
914.0
915.0
920.0
924.0
928.0
931.0
933.0
935.0
940.0
945.0
949.0
952.0
954.0
953.0
961.0
965.0
970.0
970.0
973.0
975.0
979.0
985.0
987.0
989.0
989.0
989.0
994.0
998.0
999.0
999.0
999.0
999.0
999.0
1002.0
1004.0
1003.0
1002.0
997.0
999.0
999.0
996.0
997.0
995.0
994.0
996.0
995.0
994.0
991.0
990.0
984.0
983.0
985.0
985.0
984.0
983.0
985.0
984.0
986.0
990.0
989.0
990.0
988.0
984.0
987.0
987.0
987.0
985.0
985.0
986.0
991.0
995.0
995.0
994.0
996.0
997.0
1000.0
1000.0
998.0
994.0
992.0
993.0
996.0
998.0
997.0
997.0
993.0
998.0
997.0
996.0
993.0
986.0
978.0
971.0
967.0
970.0
964.0
959.0
956.0
951.0
951.0
952.0
952.0
950.0
946.0
945.0
947.0
951.0
951.0
947.0
946.0
947.0
950.0
951.0
952.0
949.0
948.0
951.0
953.0
955.0
953.0
951.0
951.0
952.0
953.0
953.0
956.0
952.0
952.0
954.0
956.0
958.0
956.0
954.0
954.0
954.0
957.0
960.0
960.0
959.0
957.0
957.0
960.0
961.0
961.0
959.0
954.0
953.0
950.0
957.0
969.0
988.0
1023.0
1058.0
1091.0
1118.0
1137.0
1153.0
1179.0
1214.0
1249.0
1279.0
1307.0
1325.0
1336.0
1340.0
1338.0
1329.0
1308.0
1271.0
1222.0
1178.0
1146.0
1112.0
1074.0
1030.0
980.0
938.0
901.0
871.0
848.0
830.0
816.0
815.0
816.0
819.0
823.0
823.0
820.0
826.0
834.0
844.0
852.0
858.0
863.0
868.0
873.0
881.0
886.0
892.0
894.0
898.0
900.0
902.0
903.0
902.0
898.0
900.0
901.0
901.0
897.0
896.0
895.0
896.0
896.0
895.0
893.0
889.0
888.0
886.0
887.0
890.0
888.0
885.0
883.0
882.0
884.0
886.0
886.0
884.0
883.0
882.0
884.0
888.0
890.0
887.0
886.0
889.0
892.0
894.0
898.0
896.0
898.0
902.0
907.0
911.0
913.0
915.0
918.0
920.0
927.0
928.0
932.0
935.0
938.0
943.0
951.0
953.0
957.0
959.0
961.0
963.0
969.0
972.0
975.0
976.0
979.0
981.0
987.0
987.0
989.0
992.0
992.0
994.0
996.0
1000.0
999.0
998.0
996.0
999.0
1002.0
1001.0
1002.0
999.0
