# Simple Text Format
# Sampling Rate (Hz):= 360.00
# Resolution:= 12
# Labels:= ECG
970.0
969.0
967.0
963.0
966.0
969.0
970.0
968.0
966.0
968.0
971.0
970.0
968.0
970.0
969.0
968.0
971.0
971.0
969.0
966.0
967.0
968.0
969.0
971.0
971.0
970.0
968.0
968.0
971.0
973.0
972.0
972.0
972.0
971.0
975.0
976.0
978.0
976.0
974.0
976.0
976.0
979.0
980.0
980.0
978.0
977.0
978.0
982.0
979.0
971.0
967.0
964.0
967.0
974.0
983.0
1006.0
1028.0
1054.0
1083.0
1102.0
1116.0
1129.0
1154.0
1178.0
1208.0
1234.0
1255.0
1273.0
1283.0
1287.0
1290.0
1291.0
1286.0
1277.0
1259.0
1231.0
1197.0
1169.0
1146.0
1122.0
1095.0
1066.0
1036.0
1002.0
970.0
936.0
910.0
886.0
873.0
864.0
855.0
848.0
847.0
847.0
851.0
856.0
855.0
857.0
862.0
869.0
878.0
886.0
894.0
896.0
897.0
899.0
906.0
911.0
917.0
920.0
922.0
925.0
928.0
931.0
930.0
932.0
927.0
927.0
927.0
927.0
926.0
925.0
925.0
922.0
926.0
926.0
925.0
920.0
921.0
918.0
921.0
923.0
922.0
919.0
916.0
917.0
917.0
920.0
920.0
920.0
916.0
916.0
920.0
919.0
921.0
921.0
920.0
920.0
921.0
924.0
926.0
926.0
928.0
929.0
932.0
936.0
941.0
940.0
942.0
945.0
950.0
955.0
960.0
960.0
964.0
967.0
970.0
975.0
978.0
983.0
984.0
986.0
990.0
998.0
1001.0
1001.0
1000.0
1000.0
1006.0
1011.0
1012.0
1012.0
1013.0
1013.0
1018.0
1020.0
1019.0
1021.0
1020.0
1018.0
1020.0
1023.0
1025.0
1022.0
1022.0
1020.0
1020.0
1022.0
1021.0
1019.0
1015.0
1013.0
1014.0
1015.0
1014.0
1013.0
1011.0
1009.0
1009.0
1009.0
1008.0
1006.0
1005.0
1001.0
1001.0
1004.0
1001.0
1001.0
999.0
999.0
1003.0
1003.0
1006.0
1006.0
1003.0
999.0
1000.0
1006.0
1008.0
1007.0
1008.0
1007.0
1010.0
1014.0
1013.0
1015.0
1011.0
1012.0
1015.0
1017.0
1016.0
1013.0
1012.0
1012.0
1016.0
1016.0
1017.0
1016.0
1014.0
1013.0
1011.0
1010.0
1008.0
999.0
989.0
985.0
983.0
979.0
976.0
972.0
967.0
964.0
963.0
967.0
965.0
962.0
960.0
960.0
964.0
966.0
967.0
965.0
965.0
966.0
966.0
969.0
970.0
967.0
967.0
968.0
968.0
971.0
971.0
971.0
970.0
968.0
972.0
972.0
972.0
974.0
970.0
969.0
972.0
972.0
975.0
971.0
969.0
969.0
972.0
975.0
973.0
975.0
972.0
972.0
975.0
978.0
977.0
977.0
974.0
971.0
969.0
966.0
965.0
963.0
964.0
971.0
995.0
1023.0
1050.0
1073.0
1094.0
1112.0
1128.0
1149.0
1172.0
1197.0
1217.0
1241.0
1266.0
1285.0
1300.0
1306.0
1304.0
1298.0
1295.0
1285.0
1262.0
1224.0
1186.0
1158.0
1133.0
1109.0
1079.0
1042.0
1004.0
968.0
942.0
916.0
892.0
872.0
859.0
849.0
846.0
845.0
846.0
846.0
848.0
849.0
851.0
861.0
867.0
877.0
883.0
889.0
892.0
898.0
901.0
904.0
906.0
909.0
915.0
919.0
924.0
923.0
921.0
922.0
925.0
926.0
927.0
922.0
922.0
916.0
918.0
921.0
922.0
920.0
916.0
915.0
918.0
920.0
919.0
916.0
914.0
912.0
913.0
915.0
915.0
914.0
912.0
912.0
911.0
915.0
915.0
912.0
911.0
911.0
913.0
916.0
915.0
916.0
916.0
915.0
919.0
923.0
923.0
924.0
926.0
925.0
930.0
934.0
937.0
938.0
941.0
941.0
947.0
952.0
953.0
956.0
958.0
963.0
967.0
971.0
975.0
979.0
980.0
980.0
987.0
993.0
993.0
996.0
996.0
1000.0
1003.0
1006.0
1010.0
1013.0
1013.0
1014.0
1017.0
1021.0
1020.0
1019.0
1019.0
1019.0
1019.0
1021.0
1020.0
1019.0
1016.0
1013.0
1016.0
1016.0
1013.0
1013.0
1009.0
1009.0
1010.0
1011.0
1008.0
1007.0
1006.0
1002.0
1004.0
1003.0
1002.0
998.0
997.0
996.0
998.0
1000.0
1002.0
1005.0
1004.0
1003.0
1007.0
1006.0
1006.0
1003.0
1003.0
1005.0
1009.0
1012.0
1012.0
1011.0
1010.0
1009.0
1012.0
1015.0
1014.0
1011.0
1009.0
1005.0
1008.0
1010.0
1011.0
1010.0
1010.0
1010.0
1010.0
1011.0
1008.0
1005.0
998.0
991.0
986.0
984.0
981.0
979.0
969.0
967.0
966.0
967.0
967.0
967.0
963.0
960.0
965.0
965.0
966.0
965.0
961.0
962.0
963.0
966.0
967.0
963.0
963.0
964.0
964.0
966.0
967.0
967.0
965.0
965.0
967.0
970.0
972.0
970.0
968.0
968.0
968.0
972.0
972.0
970.0
974.0
972.0
974.0
975.0
978.0
975.0
976.0
977.0
977.0
976.0
978.0
978.0
974.0
966.0
965.0
963.0
962.0
963.0
970.0
985.0
1010.0
1037.0
1064.0
1088.0
1106.0
1117.0
1136.0
1163.0
1190.0
1216.0
1238.0
1258.0
1285.0
1303.0
1315.0
1313.0
1309.0
1304.0
1293.0
1277.0
1247.0
1209.0
1179.0
1149.0
1126.0
1101.0
1070.0
1034.0
996.0
961.0
935.0
910.0
884.0
864.0
850.0
844.0
841.0
840.0
844.0
845.0
844.0
846.0
849.0
854.0
859.0
866.0
872.0
877.0
885.0
891.0
894.0
897.0
901.0
905.0
913.0
919.0
918.0
921.0
920.0
923.0
925.0
927.0
927.0
926.0
923.0
920.0
924.0
925.0
925.0
922.0
919.0
918.0
919.0
921.0
917.0
915.0
910.0
909.0
911.0
913.0
912.0
912.0
910.0
907.0
908.0
911.0
912.0
912.0
910.0
907.0
912.0
914.0
914.0
914.0
911.0
912.0
916.0
919.0
923.0
921.0
924.0
927.0
930.0
934.0
936.0
936.0
938.0
942.0
947.0
951.0
956.0
957.0
958.0
961.0
965.0
968.0
972.0
973.0
974.0
979.0
984.0
987.0
993.0
992.0
995.0
998.0
1003.0
1006.0
1009.0
1010.0
1008.0
1011.0
1015.0
1017.0
1021.0
1020.0
1020.0
1019.0
1023.0
1025.0
1023.0
1024.0
1020.0
1019.0
1021.0
1021.0
1023.0
1019.0
1017.0
1016.0
1015.0
1014.0
1011.0
1009.0
1007.0
1005.0
1005.0
1006.0
1005.0
1002.0
1000.0
998.0
1000.0
998.0
1001.0
996.0
997.0
1000.0
1001.0
1004.0
1006.0
1006.0
1005.0
1003.0
1005.0
1006.0
1008.0
1008.0
1010.0
1011.0
1014.0
1015.0
1017.0
1018.0
1016.0
1017.0
1016.0
1018.0
1018.0
1013.0
1011.0
1009.0
1012.0
1014.0
1016.0
1015.0
1013.0
1010.0
1013.0
1013.0
1008.0
1004.0
996.0
988.0
983.0
983.0
979.0
973.0
969.0
965.0
965.0
965.0
967.0
966.0
963.0
962.0
965.0
967.0
967.0
966.0
966.0
964.0
966.0
969.0
970.0
969.0
968.0
964.0
966.0
969.0
968.0
967.0
965.0
964.0
966.0
967.0
970.0
969.0
967.0
966.0
967.0
971.0
970.0
971.0
969.0
970.0
972.0
974.0
972.0
974.0
972.0
973.0
974.0
977.0
977.0
976.0
972.0
971.0
972.0
970.0
967.0
965.0
964.0
969.0
988.0
1012.0
1041.0
1069.0
1091.0
1110.0
1128.0
1146.0
1171.0
1198.0
1221.0
1244.0
1271.0
1292.0
1308.0
1313.0
1313.0
1311.0
1306.0
1298.0
1278.0
1244.0
1207.0
1177.0
1152.0
1127.0
1100.0
1070.0
1032.0
990.0
956.0
928.0
906.0
879.0
862.0
848.0
842.0
843.0
841.0
838.0
839.0
841.0
842.0
845.0
847.0
855.0
860.0
865.0
874.0
882.0
887.0
888.0
891.0
894.0
902.0
907.0
910.0
911.0
911.0
912.0
914.0
918.0
916.0
918.0
917.0
914.0
914.0
914.0
916.0
912.0
911.0
907.0
911.0
912.0
911.0
909.0
907.0
907.0
908.0
909.0
908.0
907.0
903.0
902.0
903.0
904.0
901.0
902.0
897.0
899.0
902.0
902.0
902.0
902.0
902.0
899.0
903.0
906.0
910.0
908.0
908.0
909.0
917.0
918.0
922.0
922.0
925.0
926.0
931.0
935.0
940.0
942.0
943.0
947.0
951.0
957.0
963.0
963.0
965.0
969.0
975.0
980.0
983.0
986.0
987.0
988.0
996.0
997.0
1001.0
1001.0
1004.0
1003.0
1008.0
1009.0
1013.0
1011.0
1012.0
1015.0
1015.0
1019.0
1018.0
1020.0
1020.0
1015.0
1016.0
1018.0
1018.0
1015.0
1014.0
1012.0
1012.0
1013.0
1013.0
1011.0
1010.0
1007.0
1006.0
1008.0
1005.0
1003.0
1000.0
999.0
997.0
997.0
996.0
994.0
994.0
991.0
996.0
1000.0
1000.0
999.0
999.0
998.0
1001.0
1003.0
1003.0
1004.0
1008.0
1008.0
1010.0
1015.0
1015.0
1013.0
1012.0
1014.0
1011.0
1014.0
1012.0
1011.0
1012.0
1011.0
1013.0
1016.0
1017.0
1014.0
1011.0
1011.0
1006.0
1002.0
996.0
988.0
982.0
977.0
973.0
972.0
969.0
965.0
964.0
963.0
962.0
964.0
964.0
963.0
963.0
959.0
961.0
965.0
965.0
965.0
963.0
963.0
966.0
966.0
969.0
969.0
968.0
967.0
967.0
969.0
970.0
970.0
968.0
968.0
968.0
971.0
970.0
969.0
968.0
966.0
968.0
970.0
972.0
972.0
970.0
970.0
971.0
974.0
976.0
973.0
970.0
970.0
970.0
965.0
963.0
961.0
961.0
966.0
984.0
1005.0
1032.0
1057.0
1078.0
1101.0
1120.0
1138.0
1162.0
1189.0
1214.0
1242.0
1270.0
1293.0
1311.0
1318.0
1316.0
1312.0
1306.0
1292.0
1266.0
1227.0
1188.0
1154.0
1131.0
1105.0
1077.0
1041.0
1003.0
967.0
937.0
915.0
890.0
869.0
853.0
843.0
838.0
839.0
840.0
842.0
844.0
841.0
847.0
854.0
862.0
868.0
876.0
881.0
887.0
894.0
896.0
897.0
900.0
905.0
911.0
913.0
917.0
918.0
919.0
917.0
920.0
920.0
919.0
917.0
914.0
913.0
915.0
915.0
914.0
914.0
910.0
909.0
908.0
910.0
910.0
909.0
907.0
906.0
905.0
908.0
908.0
906.0
903.0
902.0
903.0
905.0
909.0
904.0
901.0
902.0
906.0
908.0
907.0
908.0
907.0
904.0
908.0
913.0
913.0
913.0
914.0
913.0
919.0
923.0
926.0
931.0
931.0
932.0
939.0
944.0
948.0
948.0
948.0
951.0
958.0
963.0
967.0
969.0
971.0
975.0
978.0
986.0
987.0
988.0
991.0
991.0
995.0
1000.0
1004.0
1006.0
1007.0
1007.0
1012.0
1011.0
1011.0
1014.0
1012.0
1011.0
1014.0
1015.0
1015.0
1014.0
1012.0
1011.0
1012.0
1013.0
1013.0
1012.0
1008.0
1007.0
1008.0
1008.0
1006.0
1003.0
999.0
1000.0
1000.0
1001.0
999.0
996.0
996.0
993.0
994.0
994.0
995.0
995.0
995.0
993.0
996.0
1000.0
1002.0
1001.0
997.0
998.0
998.0
1000.0
1003.0
1003.0
1003.0
1001.0
1004.0
1008.0
1008.0
1007.0
1008.0
1006.0
1006.0
1005.0
1004.0
1005.0
1005.0
1003.0
1007.0
1008.0
1009.0
1008.0
1004.0
1000.0
997.0
994.0
988.0
983.0
976.0
973.0
968.0
966.0
963.0
962.0
959.0
958.0
958.0
957.0
959.0
957.0
956.0
956.0
958.0
961.0
963.0
959.0
960.0
959.0
962.0
965.0
964.0
963.0
961.0
963.0
964.0
965.0
966.0
966.0
966.0
965.0
967.0
968.0
968.0
969.0
969.0
968.0
968.0
971.0
972.0
969.0
966.0
966.0
968.0
969.0
971.0
969.0
967.0
966.0
964.0
961.0
958.0
956.0
956.0
963.0
981.0
1007.0
1036.0
1062.0
1086.0
1107.0
1127.0
1149.0
1178.0
1207.0
1237.0
1262.0
1292.0
1313.0
1320.0
1319.0
1317.0
1310.0
1296.0
1273.0
1234.0
1195.0
1162.0
1131.0
1104.0
1076.0
1035.0
987.0
947.0
910.0
887.0
866.0
849.0
838.0
830.0
825.0
826.0
830.0
831.0
833.0
834.0
838.0
847.0
856.0
862.0
868.0
873.0
875.0
880.0
886.0
893.0
898.0
901.0
904.0
910.0
912.0
914.0
914.0
914.0
913.0
913.0
913.0
913.0
910.0
906.0
905.0
908.0
910.0
906.0
906.0
903.0
900.0
901.0
902.0
902.0
901.0
900.0
896.0
898.0
900.0
899.0
898.0
898.0
897.0
899.0
900.0
899.0
899.0
900.0
899.0
902.0
906.0
906.0
908.0
906.0
909.0
911.0
916.0
917.0
918.0
915.0
920.0
922.0
929.0
932.0
934.0
934.0
932.0
941.0
946.0
949.0
954.0
951.0
954.0
957.0
962.0
968.0
971.0
972.0
974.0
979.0
984.0
987.0
990.0
990.0
995.0
996.0
1001.0
1002.0
1003.0
1005.0
1006.0
1007.0
1011.0
1012.0
1010.0
1009.0
1008.0
1012.0
1014.0
1012.0
1009.0
1008.0
1006.0
1005.0
1006.0
1006.0
1004.0
1002.0
1000.0
1002.0
1000.0
1001.0
1000.0
994.0
995.0
994.0
996.0
995.0
992.0
988.0
988.0
988.0
990.0
992.0
990.0
989.0
991.0
993.0
996.0
1000.0
998.0
997.0
995.0
997.0
999.0
1002.0
1001.0
1002.0
1000.0
1003.0
1006.0
1006.0
1007.0
1006.0
1004.0
1004.0
1004.0
1002.0
1000.0
999.0
1001.0
1006.0
1006.0
1006.0
1002.0
1003.0
997.0
991.0
987.0
980.0
977.0
969.0
965.0
961.0
958.0
957.0
960.0
957.0
955.0
956.0
955.0
957.0
957.0
955.0
952.0
954.0
955.0
957.0
955.0
953.0
954.0
957.0
957.0
958.0
957.0
956.0
957.0
960.0
962.0
961.0
961.0
958.0
959.0
960.0
964.0
965.0
961.0
962.0
962.0
965.0
967.0
967.0
967.0
966.0
964.0
966.0
967.0
962.0
956.0
952.0
950.0
954.0
968.0
992.0
1020.0
1050.0
1077.0
1099.0
1121.0
1143.0
1171.0
1200.0
1231.0
1261.0
1288.0
1310.0
1317.0
1317.0
1313.0
1307.0
1293.0
1264.0
1223.0
1181.0
1146.0
1118.0
1090.0
1051.0
1003.0
959.0
924.0
900.0
877.0
854.0
839.0
830.0
825.0
826.0
828.0
829.0
833.0
832.0
834.0
842.0
855.0
862.0
865.0
871.0
875.0
881.0
888.0
893.0
896.0
901.0
902.0
905.0
910.0
909.0
911.0
910.0
910.0
911.0
911.0
913.0
909.0
907.0
904.0
905.0
908.0
907.0
904.0
899.0
899.0
900.0
899.0
897.0
899.0
894.0
893.0
895.0
897.0
897.0
896.0
895.0
895.0
896.0
896.0
897.0
898.0
896.0
895.0
898.0
901.0
904.0
904.0
905.0
906.0
910.0
912.0
917.0
919.0
920.0
922.0
926.0
930.0
934.0
937.0
938.0
941.0
945.0
950.0
953.0
958.0
959.0
961.0
967.0
969.0
974.0
978.0
977.0
979.0
983.0
989.0
993.0
992.0
994.0
994.0
996.0
999.0
1004.0
1003.0
1002.0
1003.0
1006.0
1009.0
1011.0
1009.0
1009.0
1008.0
1010.0
1006.0
1010.0
1006.0
1006.0
1003.0
1001.0
1003.0
1000.0
999.0
992.0
990.0
991.0
993.0
992.0
988.0
986.0
984.0
984.0
985.0
986.0
982.0
981.0
979.0
981.0
983.0
984.0
984.0
987.0
986.0
989.0
989.0
989.0
989.0
989.0
991.0
996.0
997.0
999.0
1001.0
998.0
998.0
1001.0
1002.0
1003.0
999.0
994.0
992.0
992.0
996.0
997.0
998.0
997.0
997.0
997.0
996.0
994.0
988.0
981.0
973.0
970.0
967.0
964.0
958.0
955.0
952.0
952.0
954.0
955.0
952.0
951.0
950.0
952.0
954.0
954.0
954.0
952.0
951.0
954.0
955.0
958.0
954.0
954.0
949.0
955.0
955.0
957.0
955.0
953.0
952.0
954.0
955.0
956.0
957.0
956.0
956.0
959.0
959.0
960.0
960.0
959.0
957.0
961.0
960.0
963.0
961.0
962.0
962.0
965.0
963.0
959.0
955.0
951.0
948.0
955.0
976.0
1001.0
1032.0
1061.0
1090.0
1114.0
1136.0
1161.0
1192.0
1221.0
1252.0
1280.0
1306.0
1318.0
1320.0
1316.0
1310.0
1297.0
1271.0
1230.0
1189.0
1153.0
1123.0
1095.0
1065.0
1028.0
982.0
941.0
908.0
879.0
856.0
838.0
827.0
819.0
819.0
821.0
824.0
827.0
823.0
828.0
833.0
846.0
854.0
862.0
868.0
865.0
870.0
878.0
885.0
892.0
895.0
897.0
899.0
903.0
906.0
905.0
904.0
902.0
900.0
901.0
899.0
900.0
900.0
896.0
896.0
895.0
897.0
896.0
893.0
893.0
892.0
891.0
892.0
890.0
888.0
885.0
883.0
883.0
888.0
887.0
885.0
885.0
884.0
884.0
888.0
889.0
888.0
888.0
887.0
891.0
895.0
898.0
900.0
903.0
905.0
908.0
913.0
914.0
919.0
917.0
921.0
928.0
930.0
936.0
941.0
942.0
945.0
952.0
956.0
960.0
963.0
964.0
965.0
970.0
974.0
977.0
979.0
980.0
981.0
984.0
990.0
992.0
994.0
993.0
992.0
996.0
1002.0
1002.0
1002.0
1001.0
999.0
1002.0
1003.0
1003.0
1002.0
1003.0
1002.0
1003.0
1002.0
1004.0
999.0
997.0
997.0
996.0
994.0
996.0
991.0
990.0
987.0
986.0
987.0
982.0
982.0
978.0
977.0
978.0
981.0
981.0
982.0
981.0
982.0
983.0
986.0
987.0
984.0
984.0
984.0
987.0
992.0
993.0
994.0
994.0
995.0
997.0
998.0
999.0
1000.0
997.0
993.0
995.0
998.0
997.0
998.0
995.0
995.0
996.0
994.0
998.0
989.0
985.0
976.0
973.0
970.0
967.0
962.0
956.0
951.0
950.0
948.0
952.0
949.0
944.0
944.0
945.0
946.0
947.0
949.0
948.0
947.0
948.0
948.0
950.0
949.0
947.0
948.0
950.0
952.0
951.0
952.0
949.0
949.0
953.0
955.0
951.0
952.0
951.0
950.0
952.0
953.0
954.0
953.0
953.0
951.0
953.0
956.0
954.0
954.0
953.0
953.0
955.0
958.0
959.0
957.0
956.0
950.0
950.0
948.0
945.0
947.0
950.0
960.0
981.0
1015.0
1041.0
1068.0
1090.0
1107.0
1127.0
1153.0
1180.0
1210.0
1236.0
1265.0
1289.0
1307.0
1318.0
1319.0
1314.0
1306.0
1294.0
1273.0
1236.0
1197.0
1161.0
1130.0
1099.0
1070.0
1033.0
988.0
947.0
914.0
887.0
863.0
843.0
826.0
816.0
812.0
815.0
818.0
819.0
822.0
823.0
822.0
826.0
835.0
845.0
854.0
860.0
864.0
870.0
871.0
876.0
879.0
883.0
885.0
892.0
895.0
898.0
899.0
899.0
900.0
899.0
900.0
900.0
899.0
898.0
897.0
896.0
898.0
895.0
894.0
894.0
891.0
892.0
892.0
891.0
891.0
891.0
887.0
890.0
892.0
890.0
888.0
886.0
885.0
888.0
888.0
888.0
888.0
885.0
886.0
886.0
887.0
889.0
886.0
884.0
887.0
889.0
890.0
892.0
893.0
893.0
893.0
900.0
905.0
906.0
907.0
907.0
911.0
917.0
921.0
923.0
926.0
926.0
930.0
936.0
940.0
943.0
944.0
950.0
952.0
958.0
963.0
965.0
966.0
969.0
971.0
976.0
980.0
985.0
984.0
986.0
986.0
987.0
991.0
993.0
994.0
994.0
993.0
997.0
1000.0
999.0
1002.0
998.0
997.0
994.0
999.0
998.0
998.0
997.0
995.0
996.0
998.0
997.0
995.0
991.0
988.0
991.0
992.0
991.0
991.0
987.0
985.0
986.0
986.0
983.0
982.0
979.0
976.0
978.0
977.0
978.0
976.0
973.0
974.0
978.0
978.0
981.0
980.0
980.0
979.0
982.0
982.0
980.0
983.0
982.0
985.0
986.0
991.0
991.0
993.0
991.0
990.0
995.0
996.0
996.0
995.0
991.0
990.0
992.0
992.0
994.0
996.0
995.0
994.0
996.0
998.0
996.0
995.0
990.0
982.0
978.0
972.0
971.0
962.0
960.0
953.0
951.0
951.0
948.0
946.0
943.0
944.0
946.0
945.0
945.0
945.0
943.0
946.0
947.0
948.0
948.0
949.0
947.0
946.0
949.0
952.0
950.0
948.0
947.0
948.0
951.0
952.0
954.0
954.0
951.0
953.0
954.0
957.0
957.0
955.0
952.0
950.0
952.0
956.0
956.0
953.0
951.0
949.0
954.0
957.0
957.0
956.0
957.0
957.0
957.0
957.0
959.0
955.0
957.0
953.0
951.0
948.0
947.0
944.0
947.0
952.0
968.0
992.0
1019.0
1043.0
1068.0
1091.0
1110.0
1128.0
1150.0
1174.0
1202.0
1227.0
1257.0
1285.0
1308.0
1321.0
1327.0
1326.0
1324.0
1321.0
1308.0
1281.0
1244.0
1207.0
1175.0
1148.0
1120.0
1090.0
1058.0
1014.0
972.0
939.0
914.0
888.0
860.0
838.0
827.0
820.0
817.0
816.0
815.0
816.0
820.0
821.0
824.0
829.0
836.0
843.0
851.0
862.0
868.0
871.0
873.0
877.0
884.0
892.0
896.0
897.0
899.0
899.0
904.0
905.0
904.0
903.0
902.0
897.0
897.0
900.0
900.0
897.0
896.0
894.0
894.0
893.0
895.0
894.0
891.0
889.0
890.0
891.0
891.0
888.0
887.0
884.0
885.0
888.0
888.0
889.0
888.0
887.0
888.0
891.0
892.0
890.0
891.0
889.0
890.0
892.0
896.0
898.0
897.0
898.0
898.0
901.0
905.0
906.0
907.0
908.0
912.0
917.0
920.0
921.0
924.0
927.0
931.0
938.0
940.0
944.0
946.0
949.0
954.0
959.0
961.0
965.0
968.0
967.0
973.0
980.0
984.0
985.0
985.0
990.0
992.0
996.0
1000.0
999.0
998.0
999.0
1003.0
1005.0
1005.0
1003.0
1001.0
999.0
1002.0
1003.0
1004.0
1003.0
1001.0
998.0
998.0
998.0
998.0
994.0
993.0
991.0
994.0
993.0
992.0
990.0
989.0
985.0
986.0
987.0
986.0
985.0
983.0
982.0
983.0
982.0
981.0
981.0
980.0
981.0
984.0
988.0
988.0
987.0
987.0
984.0
985.0
985.0
985.0
986.0
988.0
990.0
991.0
992.0
994.0
995.0
995.0
995.0
996.0
1000.0
1000.0
994.0
990.0
988.0
993.0
997.0
1000.0
1000.0
997.0
998.0
999.0
998.0
997.0
995.0
985.0
978.0
975.0
974.0
971.0
966.0
960.0
956.0
953.0
955.0
956.0
954.0
950.0
944.0
948.0
951.0
951.0
952.0
949.0
947.0
950.0
954.0
953.0
952.0
952.0
952.0
954.0
955.0
955.0
953.0
953.0
953.0
953.0
955.0
956.0
957.0
956.0
956.0
957.0
960.0
960.0
960.0
957.0
957.0
958.0
960.0
961.0
963.0
960.0
958.0
962.0
962.0
962.0
960.0
959.0
958.0
958.0
961.0
958.0
954.0
949.0
947.0
948.0
953.0
964.0
984.0
1006.0
1033.0
1065.0
1090.0
1109.0
1122.0
1139.0
1164.0
1191.0
1222.0
1249.0
1277.0
1301.0
1319.0
1329.0
1330.0
1330.0
1322.0
1311.0
1290.0
1255.0
1219.0
1184.0
1150.0
1118.0
1089.0
1058.0
1018.0
977.0
939.0
912.0
885.0
861.0
841.0
828.0
821.0
819.0
816.0
817.0
825.0
829.0
828.0
827.0
832.0
842.0
850.0
857.0
863.0
866.0
870.0
874.0
880.0
887.0
891.0
895.0
899.0
902.0
908.0
909.0
909.0
909.0
907.0
907.0
910.0
910.0
906.0
904.0
902.0
900.0
904.0
901.0
900.0
897.0
895.0
894.0
896.0
895.0
895.0
892.0
893.0
893.0
896.0
895.0
891.0
889.0
887.0
888.0
890.0
892.0
892.0
889.0
890.0
891.0
893.0
898.0
897.0
897.0
899.0
900.0
904.0
907.0
909.0
909.0
912.0
911.0
917.0
920.0
923.0
923.0
924.0
931.0
933.0
938.0
941.0
943.0
945.0
951.0
958.0
960.0
962.0
964.0
967.0
971.0
974.0
977.0
980.0
982.0
982.0
989.0
994.0
996.0
998.0
998.0
998.0
1002.0
1005.0
1008.0
1007.0
1007.0
1008.0
1008.0
1011.0
1011.0
1009.0
1005.0
1004.0
1003.0
1003.0
1004.0
1002.0
1000.0
997.0
997.0
997.0
996.0
993.0
991.0
988.0
991.0
991.0
990.0
986.0
986.0
982.0
983.0
985.0
985.0
983.0
985.0
985.0
990.0
994.0
993.0
994.0
991.0
992.0
993.0
996.0
998.0
998.0
998.0
998.0
1001.0
1004.0
1003.0
1001.0
1000.0
1001.0
1001.0
1003.0
1000.0
1000.0
998.0
999.0
1000.0
1003.0
1003.0
1004.0
1001.0
996.0
995.0
991.0
984.0
978.0
972.0
966.0
966.0
963.0
962.0
958.0
957.0
955.0
957.0
958.0
958.0
959.0
955.0
954.0
954.0
953.0
955.0
955.0
955.0
950.0
954.0
953.0
955.0
955.0
954.0
954.0
954.0
956.0
959.0
959.0
957.0
956.0
956.0
958.0
960.0
958.0
958.0
959.0
962.0
962.0
966.0
964.0
965.0
962.0
965.0
966.0
966.0
966.0
967.0
965.0
966.0
965.0
963.0
960.0
954.0
949.0
950.0
958.0
968.0
987.0
1013.0
1038.0
1066.0
1090.0
1114.0
1124.0
1141.0
1168.0
1198.0
1230.0
1259.0
1289.0
1309.0
1325.0
1332.0
1335.0
1335.0
1326.0
1310.0
1275.0
1241.0
1205.0
1173.0
1141.0
1112.0
1077.0
1042.0
1001.0
964.0
933.0
906.0
880.0
855.0
837.0
825.0
823.0
817.0
816.0
819.0
824.0
825.0
825.0
827.0
831.0
840.0
851.0
858.0
865.0
865.0
870.0
873.0
881.0
888.0
893.0
894.0
898.0
903.0
905.0
906.0
906.0
907.0
904.0
904.0
905.0
907.0
904.0
904.0
903.0
903.0
904.0
904.0
902.0
897.0
896.0
892.0
895.0
896.0
893.0
890.0
888.0
890.0
889.0
889.0
889.0
888.0
885.0
887.0
889.0
889.0
889.0
889.0
889.0
889.0
891.0
893.0
893.0
893.0
893.0
898.0
903.0
903.0
907.0
908.0
909.0
913.0
917.0
922.0
923.0
926.0
927.0
931.0
937.0
941.0
942.0
946.0
946.0
950.0
955.0
960.0
962.0
964.0
967.0
972.0
977.0
980.0
984.0
984.0
986.0
990.0
993.0
995.0
998.0
997.0
996.0
999.0
1002.0
1004.0
1005.0
1004.0
1002.0
1004.0
1007.0
1004.0
1004.0
1003.0
999.0
1001.0
1000.0
1002.0
997.0
996.0
993.0
992.0
991.0
991.0
989.0
985.0
985.0
984.0
984.0
986.0
983.0
981.0
978.0
979.0
982.0
982.0
984.0
986.0
985.0
987.0
991.0
989.0
987.0
987.0
987.0
989.0
992.0
994.0
996.0
995.0
996.0
998.0
1001.0
1001.0
1004.0
999.0
998.0
996.0
1000.0
999.0
998.0
997.0
993.0
997.0
1000.0
1004.0
999.0
995.0
991.0
988.0
981.0
977.0
972.0
970.0
961.0
959.0
956.0
953.0
952.0
950.0
949.0
949.0
949.0
951.0
952.0
950.0
948.0
949.0
951.0
952.0
954.0
952.0
950.0
952.0
954.0
955.0
955.0
950.0
950.0
950.0
953.0
954.0
953.0
954.0
949.0
953.0
955.0
958.0
956.0
955.0
951.0
953.0
954.0
956.0
958.0
956.0
956.0
959.0
959.0
960.0
962.0
961.0
959.0
961.0
963.0
964.0
962.0
958.0
955.0
954.0
952.0
956.0
963.0
979.0
1002.0
1035.0
1064.0
1088.0
1107.0
1126.0
1144.0
1171.0
1203.0
1232.0
1256.0
1284.0
1306.0
1327.0
1337.0
1339.0
1335.0
1329.0
1316.0
1292.0
1257.0
1216.0
1183.0
1149.0
1116.0
1085.0
1052.0
1010.0
968.0
935.0
906.0
877.0
856.0
840.0
824.0
819.0
813.0
814.0
820.0
823.0
824.0
822.0
826.0
834.0
844.0
854.0
860.0
864.0
867.0
872.0
876.0
880.0
889.0
891.0
897.0
900.0
901.0
904.0
903.0
904.0
901.0
903.0
904.0
904.0
903.0
900.0
897.0
897.0
896.0
898.0
898.0
895.0
894.0
894.0
894.0
894.0
892.0
890.0
888.0
888.0
890.0
888.0
886.0
883.0
881.0
882.0
883.0
886.0
885.0
883.0
882.0
883.0
885.0
888.0
889.0
890.0
890.0
893.0
894.0
899.0
899.0
902.0
903.0
906.0
913.0
916.0
920.0
920.0
925.0
929.0
934.0
938.0
940.0
943.0
947.0
952.0
957.0
961.0
963.0
965.0
968.0
970.0
974.0
977.0
981.0
984.0
982.0
989.0
992.0
994.0
997.0
997.0
998.0
998.0
1001.0
1004.0
1004.0
1002.0
999.0
1000.0
1002.0
1002.0
1000.0
1000.0
998.0
998.0
1001.0
1000.0
995.0
994.0
990.0
989.0
991.0
991.0
988.0
984.0
979.0
980.0
983.0
981.0
981.0
977.0
976.0
976.0
978.0
981.0
984.0
983.0
983.0
983.0
985.0
987.0
987.0
986.0
987.0
992.0
995.0
996.0
999.0
1000.0
998.0
999.0
1003.0
1003.0
1001.0
997.0
997.0
1000.0
1000.0
1003.0
1003.0
1001.0
998.0
999.0
997.0
994.0
990.0
982.0
973.0
969.0
967.0
965.0
958.0
955.0
949.0
952.0
954.0
950.0
952.0
948.0
947.0
950.0
954.0
955.0
955.0
954.0
954.0
953.0
956.0
953.0
956.0
954.0
953.0
954.0
957.0
957.0
956.0
955.0
953.0
955.0
956.0
956.0
954.0
955.0
954.0
954.0
957.0
957.0
958.0
956.0
957.0
960.0
961.0
960.0
961.0
962.0
958.0
960.0
963.0
961.0
959.0
955.0
949.0
950.0
952.0
957.0
968.0
992.0
1016.0
1048.0
1077.0
1104.0
1122.0
1138.0
1162.0
1195.0
1229.0
1259.0
1290.0
1314.0
1330.0
1338.0
1343.0
1341.0
1331.0
1314.0
1282.0
1241.0
1201.0
1167.0
1135.0
1103.0
1065.0
1022.0
977.0
939.0
909.0
880.0
852.0
836.0
825.0
821.0
818.0
813.0
816.0
820.0
824.0
827.0
830.0
835.0
843.0
853.0
864.0
868.0
873.0
874.0
873.0
882.0
889.0
895.0
896.0
899.0
900.0
900.0
903.0
902.0
905.0
904.0
901.0
900.0
901.0
902.0
901.0
898.0
896.0
898.0
899.0
898.0
895.0
893.0
891.0
891.0
894.0
897.0
894.0
892.0
891.0
890.0
892.0
889.0
892.0
890.0
889.0
890.0
893.0
892.0
891.0
890.0
888.0
890.0
892.0
894.0
895.0
896.0
895.0
900.0
903.0
906.0
910.0
911.0
912.0
919.0
921.0
926.0
930.0
930.0
933.0
937.0
941.0
948.0
950.0
952.0
955.0
961.0
965.0
970.0
971.0
973.0
973.0
979.0
986.0
987.0
990.0
991.0
990.0
992.0
998.0
999.0
1001.0
998.0
999.0
1002.0
1003.0
1003.0
1003.0
1002.0
1001.0
1001.0
1002.0
1003.0
1003.0
1002.0
999.0
998.0
999.0
999.0
998.0
995.0
993.0
992.0
994.0
