# Simple Text Format
# Sampling Rate (Hz):= 360.00
# Resolution:= 12
# Labels:= ECG
993.0
997.0
997.0
997.0
997.0
997.0
998.0
1001.0
1002.0
1000.0
1000.0
998.0
998.0
999.0
1000.0
997.0
995.0
992.0
993.0
994.0
992.0
990.0
988.0
986.0
986.0
988.0
987.0
986.0
984.0
985.0
986.0
990.0
991.0
990.0
990.0
989.0
990.0
991.0
991.0
990.0
988.0
988.0
988.0
995.0
994.0
995.0
996.0
999.0
1001.0
1006.0
1004.0
1001.0
1003.0
998.0
999.0
999.0
997.0
999.0
994.0
996.0
997.0
1001.0
999.0
998.0
996.0
993.0
992.0
987.0
980.0
975.0
968.0
965.0
965.0
963.0
959.0
953.0
951.0
952.0
953.0
954.0
955.0
952.0
951.0
951.0
952.0
956.0
956.0
955.0
952.0
955.0
956.0
960.0
961.0
959.0
960.0
958.0
962.0
965.0
963.0
962.0
961.0
958.0
963.0
964.0
963.0
963.0
963.0
962.0
961.0
965.0
965.0
963.0
963.0
963.0
965.0
965.0
965.0
966.0
966.0
964.0
969.0
970.0
971.0
969.0
968.0
966.0
967.0
965.0
962.0
958.0
955.0
957.0
963.0
972.0
992.0
1013.0
1040.0
1062.0
1086.0
1104.0
1119.0
1133.0
1153.0
1180.0
1206.0
1230.0
1256.0
1277.0
1292.0
1303.0
1308.0
1306.0
1304.0
1294.0
1276.0
1247.0
1218.0
1193.0
1167.0
1144.0
1117.0
1092.0
1058.0
1026.0
985.0
954.0
927.0
900.0
881.0
864.0
853.0
847.0
842.0
842.0
844.0
850.0
850.0
852.0
850.0
854.0
862.0
872.0
879.0
884.0
887.0
890.0
896.0
900.0
904.0
908.0
908.0
912.0
917.0
920.0
921.0
924.0
923.0
923.0
926.0
928.0
928.0
924.0
920.0
920.0
922.0
923.0
922.0
921.0
918.0
917.0
918.0
921.0
919.0
916.0
916.0
914.0
917.0
919.0
916.0
918.0
916.0
913.0
917.0
918.0
917.0
915.0
915.0
915.0
915.0
918.0
918.0
917.0
917.0
917.0
918.0
922.0
920.0
920.0
921.0
921.0
924.0
928.0
932.0
930.0
934.0
930.0
938.0
942.0
946.0
949.0
948.0
950.0
954.0
958.0
964.0
964.0
966.0
964.0
971.0
972.0
978.0
980.0
982.0
984.0
990.0
995.0
999.0
998.0
999.0
1002.0
1005.0
1011.0
1010.0
1012.0
1011.0
1012.0
1014.0
1016.0
1020.0
1019.0
1016.0
1017.0
1018.0
1021.0
1021.0
1018.0
1017.0
1017.0
1016.0
1020.0
1017.0
1015.0
1016.0
1012.0
1013.0
1014.0
1013.0
1011.0
1009.0
1004.0
1007.0
1008.0
1010.0
1008.0
1007.0
1008.0
1009.0
1013.0
1015.0
1016.0
1012.0
1012.0
1013.0
1017.0
1016.0
1018.0
1014.0
1016.0
1019.0
1021.0
1020.0
1020.0
1018.0
1017.0
1020.0
1022.0
1019.0
1016.0
1014.0
1013.0
1017.0
1018.0
1017.0
1015.0
1012.0
1012.0
1014.0
1015.0
1013.0
1010.0
1005.0
997.0
994.0
988.0
985.0
982.0
979.0
972.0
972.0
972.0
971.0
971.0
969.0
967.0
969.0
971.0
969.0
972.0
968.0
969.0
970.0
973.0
970.0
968.0
970.0
968.0
969.0
970.0
972.0
970.0
970.0
969.0
972.0
973.0
973.0
973.0
971.0
970.0
973.0
974.0
973.0
972.0
971.0
972.0
975.0
975.0
977.0
977.0
976.0
976.0
979.0
981.0
981.0
981.0
981.0
980.0
981.0
979.0
979.0
974.0
966.0
962.0
963.0
968.0
982.0
1001.0
1026.0
1051.0
1078.0
1099.0
1116.0
1130.0
1150.0
1179.0
1208.0
1236.0
1259.0
1283.0
1298.0
1309.0
1313.0
1317.0
1312.0
1304.0
1286.0
1253.0
1220.0
1194.0
1165.0
1136.0
1109.0
1077.0
1044.0
1002.0
966.0
937.0
910.0
885.0
872.0
861.0
855.0
850.0
846.0
848.0
852.0
851.0
854.0
855.0
859.0
866.0
876.0
883.0
887.0
892.0
892.0
894.0
899.0
905.0
910.0
913.0
914.0
918.0
921.0
923.0
924.0
926.0
923.0
924.0
926.0
927.0
925.0
924.0
923.0
919.0
920.0
919.0
920.0
920.0
917.0
915.0
917.0
916.0
914.0
915.0
911.0
909.0
909.0
911.0
910.0
908.0
908.0
906.0
908.0
907.0
909.0
908.0
907.0
906.0
908.0
911.0
908.0
909.0
909.0
909.0
914.0
915.0
917.0
919.0
920.0
920.0
926.0
929.0
932.0
934.0
934.0
938.0
943.0
949.0
951.0
950.0
953.0
956.0
959.0
963.0
966.0
967.0
968.0
969.0
974.0
978.0
981.0
982.0
983.0
985.0
987.0
991.0
993.0
993.0
995.0
996.0
1000.0
1005.0
1005.0
1006.0
1004.0
1005.0
1008.0
1012.0
1012.0
1010.0
1008.0
1007.0
1009.0
1011.0
1011.0
1009.0
1009.0
1005.0
1009.0
1010.0
1010.0
1006.0
1004.0
1003.0
1003.0
1003.0
1001.0
1000.0
998.0
994.0
997.0
1000.0
1001.0
1000.0
1001.0
1000.0
1002.0
1002.0
1003.0
1000.0
998.0
997.0
1000.0
1003.0
1002.0
1003.0
1005.0
1006.0
1008.0
1008.0
1011.0
1009.0
1006.0
1003.0
1004.0
1006.0
1006.0
1006.0
1004.0
1003.0
1006.0
1008.0
1006.0
1005.0
1001.0
998.0
996.0
990.0
982.0
979.0
973.0
967.0
966.0
961.0
959.0
955.0
956.0
954.0
956.0
955.0
957.0
954.0
951.0
953.0
954.0
958.0
957.0
957.0
956.0
953.0
957.0
960.0
959.0
958.0
960.0
958.0
962.0
964.0
964.0
961.0
962.0
960.0
962.0
964.0
965.0
963.0
964.0
963.0
963.0
966.0
965.0
965.0
965.0
962.0
964.0
967.0
967.0
967.0
966.0
964.0
964.0
962.0
962.0
957.0
950.0
951.0
953.0
964.0
982.0
1007.0
1029.0
1052.0
1079.0
1098.0
1115.0
1138.0
1165.0
1196.0
1231.0
1265.0
1291.0
1306.0
1312.0
1309.0
1307.0
1290.0
1257.0
1213.0
1174.0
1139.0
1108.0
1076.0
1036.0
989.0
947.0
914.0
890.0
869.0
850.0
837.0
832.0
828.0
828.0
834.0
833.0
832.0
832.0
841.0
850.0
861.0
869.0
872.0
876.0
879.0
885.0
894.0
895.0
902.0
904.0
903.0
905.0
907.0
911.0
911.0
909.0
907.0
906.0
907.0
905.0
904.0
902.0
900.0
903.0
902.0
902.0
902.0
894.0
894.0
896.0
898.0
899.0
895.0
893.0
892.0
893.0
894.0
894.0
891.0
891.0
890.0
895.0
896.0
895.0
893.0
893.0
894.0
897.0
900.0
901.0
900.0
901.0
901.0
904.0
908.0
907.0
909.0
910.0
912.0
918.0
923.0
925.0
926.0
926.0
929.0
934.0
940.0
942.0
944.0
944.0
947.0
952.0
957.0
960.0
962.0
963.0
966.0
970.0
973.0
976.0
978.0
979.0
981.0
983.0
990.0
991.0
993.0
992.0
993.0
999.0
999.0
1000.0
1000.0
999.0
998.0
1000.0
999.0
1000.0
998.0
997.0
995.0
996.0
996.0
996.0
994.0
992.0
991.0
991.0
991.0
991.0
991.0
986.0
985.0
986.0
988.0
988.0
988.0
989.0
988.0
991.0
993.0
993.0
992.0
990.0
988.0
990.0
994.0
997.0
995.0
993.0
994.0
998.0
1001.0
1001.0
999.0
998.0
995.0
997.0
996.0
995.0
990.0
990.0
990.0
993.0
995.0
995.0
993.0
991.0
989.0
989.0
985.0
979.0
973.0
967.0
960.0
959.0
957.0
954.0
949.0
945.0
945.0
946.0
949.0
948.0
946.0
944.0
941.0
947.0
946.0
947.0
947.0
946.0
944.0
948.0
949.0
948.0
947.0
946.0
946.0
947.0
948.0
950.0
948.0
946.0
945.0
948.0
950.0
948.0
948.0
950.0
946.0
948.0
951.0
950.0
952.0
949.0
949.0
951.0
954.0
954.0
954.0
954.0
954.0
956.0
959.0
956.0
953.0
948.0
943.0
944.0
944.0
949.0
960.0
981.0
1007.0
1038.0
1065.0
1084.0
1097.0
1115.0
1140.0
1173.0
1201.0
1230.0
1255.0
1275.0
1291.0
1299.0
1305.0
1305.0
1296.0
1279.0
1246.0
1207.0
1174.0
1141.0
1110.0
1076.0
1040.0
998.0
957.0
926.0
896.0
869.0
847.0
833.0
827.0
823.0
820.0
820.0
822.0
823.0
826.0
828.0
828.0
838.0
842.0
856.0
861.0
869.0
868.0
870.0
872.0
882.0
885.0
889.0
892.0
889.0
894.0
895.0
901.0
899.0
899.0
899.0
896.0
898.0
900.0
899.0
897.0
895.0
893.0
896.0
894.0
896.0
895.0
893.0
891.0
890.0
894.0
892.0
887.0
886.0
886.0
887.0
888.0
886.0
884.0
885.0
883.0
884.0
887.0
885.0
883.0
882.0
882.0
884.0
886.0
887.0
887.0
887.0
888.0
892.0
895.0
897.0
899.0
898.0
901.0
906.0
911.0
914.0
914.0
915.0
918.0
922.0
927.0
930.0
931.0
933.0
939.0
943.0
948.0
951.0
950.0
952.0
957.0
960.0
963.0
966.0
968.0
966.0
968.0
974.0
975.0
981.0
981.0
978.0
982.0
982.0
985.0
986.0
986.0
986.0
985.0
987.0
988.0
987.0
987.0
985.0
983.0
986.0
988.0
986.0
988.0
984.0
981.0
982.0
980.0
984.0
980.0
980.0
975.0
977.0
980.0
976.0
979.0
978.0
979.0
981.0
981.0
980.0
979.0
978.0
977.0
978.0
980.0
982.0
979.0
977.0
981.0
984.0
987.0
986.0
985.0
984.0
982.0
987.0
985.0
986.0
984.0
983.0
980.0
983.0
985.0
987.0
987.0
986.0
986.0
987.0
987.0
984.0
976.0
968.0
961.0
960.0
957.0
954.0
949.0
943.0
938.0
938.0
940.0
940.0
935.0
934.0
934.0
937.0
939.0
941.0
938.0
937.0
934.0
937.0
940.0
939.0
940.0
937.0
935.0
939.0
941.0
941.0
939.0
939.0
936.0
941.0
942.0
943.0
943.0
941.0
942.0
944.0
946.0
945.0
944.0
945.0
945.0
946.0
947.0
949.0
947.0
947.0
945.0
944.0
945.0
948.0
945.0
941.0
934.0
935.0
938.0
948.0
963.0
991.0
1020.0
1054.0
1079.0
1103.0
1123.0
1153.0
1184.0
1218.0
1250.0
1276.0
1298.0
1306.0
1306.0
1304.0
1293.0
1266.0
1221.0
1177.0
1137.0
1103.0
1072.0
1032.0
984.0
942.0
905.0
878.0
856.0
836.0
820.0
809.0
808.0
807.0
811.0
817.0
817.0
817.0
817.0
828.0
839.0
848.0
851.0
857.0
859.0
864.0
871.0
878.0
881.0
886.0
886.0
892.0
895.0
898.0
896.0
895.0
893.0
893.0
895.0
893.0
890.0
889.0
888.0
887.0
888.0
886.0
887.0
884.0
882.0
882.0
881.0
882.0
880.0
880.0
878.0
880.0
880.0
882.0
880.0
878.0
876.0
877.0
882.0
880.0
882.0
882.0
881.0
886.0
886.0
890.0
890.0
889.0
892.0
892.0
897.0
900.0
903.0
905.0
906.0
909.0
911.0
914.0
917.0
917.0
922.0
927.0
932.0
934.0
936.0
937.0
939.0
946.0
952.0
954.0
956.0
958.0
958.0
965.0
969.0
971.0
972.0
972.0
973.0
978.0
982.0
985.0
985.0
985.0
986.0
990.0
993.0
991.0
989.0
990.0
989.0
991.0
992.0
992.0
990.0
986.0
985.0
984.0
984.0
983.0
982.0
981.0
977.0
978.0
979.0
978.0
976.0
976.0
974.0
976.0
979.0
983.0
980.0
979.0
978.0
978.0
980.0
979.0
978.0
977.0
977.0
979.0
982.0
983.0
986.0
986.0
986.0
989.0
992.0
991.0
991.0
988.0
986.0
986.0
989.0
989.0
988.0
985.0
986.0
988.0
988.0
990.0
986.0
984.0
979.0
975.0
971.0
967.0
961.0
957.0
951.0
949.0
949.0
947.0
943.0
941.0
939.0
942.0
942.0
943.0
943.0
942.0
940.0
942.0
945.0
946.0
945.0
944.0
943.0
945.0
946.0
947.0
947.0
945.0
945.0
946.0
947.0
949.0
949.0
943.0
943.0
946.0
949.0
949.0
948.0
947.0
945.0
948.0
951.0
950.0
951.0
949.0
949.0
952.0
953.0
956.0
952.0
953.0
953.0
953.0
955.0
953.0
948.0
945.0
943.0
946.0
955.0
971.0
999.0
1024.0
1056.0
1084.0
1107.0
1124.0
1147.0
1174.0
1205.0
1234.0
1264.0
1285.0
1300.0
1303.0
1304.0
1300.0
1295.0
1277.0
1243.0
1203.0
1166.0
1139.0
1108.0
1078.0
1040.0
993.0
951.0
918.0
892.0
867.0
847.0
833.0
826.0
826.0
830.0
833.0
835.0
834.0
833.0
839.0
851.0
859.0
867.0
870.0
874.0
877.0
882.0
887.0
893.0
895.0
896.0
901.0
904.0
909.0
908.0
908.0
907.0
910.0
907.0
906.0
907.0
903.0
901.0
903.0
904.0
901.0
900.0
897.0
895.0
898.0
899.0
897.0
897.0
896.0
893.0
896.0
898.0
897.0
895.0
894.0
896.0
894.0
894.0
899.0
894.0
893.0
895.0
894.0
897.0
900.0
900.0
900.0
900.0
904.0
909.0
908.0
911.0
911.0
913.0
919.0
924.0
926.0
927.0
930.0
930.0
937.0
941.0
944.0
948.0
948.0
952.0
957.0
962.0
964.0
968.0
970.0
973.0
975.0
983.0
983.0
984.0
987.0
986.0
991.0
994.0
998.0
999.0
994.0
993.0
995.0
999.0
1000.0
1000.0
999.0
996.0
1000.0
999.0
998.0
995.0
993.0
991.0
994.0
994.0
996.0
993.0
990.0
988.0
987.0
988.0
991.0
990.0
990.0
991.0
992.0
996.0
999.0
998.0
996.0
995.0
995.0
1000.0
997.0
998.0
997.0
996.0
999.0
1000.0
1003.0
1004.0
1002.0
1000.0
1002.0
1003.0
1002.0
999.0
995.0
993.0
997.0
997.0
999.0
997.0
998.0
997.0
994.0
996.0
994.0
985.0
979.0
971.0
969.0
966.0
966.0
960.0
957.0
955.0
955.0
955.0
956.0
954.0
952.0
951.0
951.0
954.0
954.0
952.0
950.0
949.0
951.0
952.0
952.0
953.0
949.0
950.0
951.0
955.0
957.0
956.0
953.0
952.0
954.0
958.0
955.0
955.0
953.0
952.0
953.0
958.0
959.0
958.0
955.0
954.0
957.0
961.0
961.0
962.0
960.0
961.0
962.0
964.0
966.0
965.0
965.0
962.0
963.0
962.0
956.0
952.0
947.0
948.0
951.0
965.0
987.0
1014.0
1036.0
1063.0
1087.0
1101.0
1118.0
1138.0
1171.0
1199.0
1230.0
1258.0
1283.0
1299.0
1305.0
1308.0
1311.0
1308.0
1293.0
1266.0
1230.0
1194.0
1165.0
1138.0
1112.0
1077.0
1035.0
991.0
953.0
920.0
892.0
866.0
847.0
837.0
836.0
834.0
836.0
836.0
836.0
835.0
841.0
848.0
858.0
865.0
870.0
873.0
877.0
885.0
889.0
892.0
898.0
899.0
904.0
908.0
910.0
909.0
910.0
910.0
913.0
914.0
914.0
910.0
908.0
908.0
908.0
908.0
906.0
906.0
904.0
900.0
901.0
902.0
901.0
897.0
892.0
891.0
894.0
895.0
895.0
893.0
894.0
893.0
894.0
897.0
896.0
898.0
897.0
895.0
897.0
901.0
903.0
904.0
905.0
906.0
911.0
916.0
920.0
924.0
923.0
927.0
932.0
936.0
940.0
941.0
945.0
945.0
952.0
955.0
961.0
961.0
962.0
964.0
970.0
976.0
977.0
979.0
980.0
983.0
987.0
990.0
992.0
994.0
994.0
995.0
996.0
998.0
1000.0
1000.0
1000.0
997.0
998.0
999.0
1000.0
1000.0
999.0
999.0
1001.0
999.0
999.0
996.0
996.0
991.0
995.0
996.0
994.0
991.0
989.0
989.0
991.0
994.0
995.0
995.0
993.0
991.0
992.0
992.0
994.0
993.0
990.0
990.0
994.0
996.0
997.0
999.0
999.0
997.0
1000.0
1001.0
998.0
995.0
992.0
993.0
996.0
999.0
999.0
999.0
998.0
997.0
997.0
997.0
994.0
986.0
976.0
972.0
969.0
968.0
964.0
957.0
951.0
949.0
950.0
952.0
952.0
949.0
946.0
947.0
948.0
951.0
950.0
950.0
949.0
950.0
950.0
954.0
952.0
951.0
951.0
952.0
953.0
953.0
953.0
955.0
954.0
954.0
955.0
957.0
960.0
958.0
957.0
956.0
958.0
960.0
962.0
960.0
958.0
957.0
956.0
960.0
962.0
960.0
960.0
960.0
961.0
963.0
963.0
961.0
957.0
956.0
951.0
951.0
949.0
951.0
958.0
974.0
1001.0
1031.0
1057.0
1080.0
1099.0
1118.0
1144.0
1176.0
1206.0
1234.0
1260.0
1283.0
1302.0
1312.0
1318.0
1315.0
1304.0
1293.0
1266.0
1230.0
1192.0
1158.0
1129.0
1094.0
1062.0
1023.0
982.0
945.0
917.0
889.0
868.0
853.0
842.0
833.0
831.0
829.0
830.0
834.0
836.0
835.0
836.0
841.0
852.0
861.0
870.0
875.0
878.0
881.0
885.0
896.0
900.0
904.0
905.0
905.0
910.0
911.0
912.0
909.0
908.0
907.0
906.0
908.0
907.0
906.0
903.0
900.0
902.0
903.0
900.0
899.0
896.0
895.0
896.0
897.0
896.0
893.0
893.0
892.0
891.0
894.0
893.0
893.0
892.0
890.0
891.0
896.0
896.0
895.0
896.0
895.0
897.0
898.0
904.0
904.0
904.0
906.0
910.0
914.0
913.0
916.0
920.0
921.0
925.0
929.0
934.0
935.0
936.0
938.0
944.0
948.0
951.0
955.0
956.0
958.0
964.0
969.0
971.0
974.0
977.0
979.0
982.0
985.0
990.0
992.0
992.0
993.0
998.0
999.0
1001.0
1001.0
1000.0
999.0
1001.0
1004.0
1003.0
1001.0
997.0
997.0
997.0
997.0
998.0
997.0
994.0
991.0
990.0
993.0
992.0
990.0
989.0
988.0
991.0
994.0
993.0
996.0
994.0
991.0
993.0
992.0
994.0
991.0
993.0
993.0
994.0
1001.0
1003.0
1003.0
1003.0
1000.0
1001.0
1001.0
999.0
997.0
995.0
994.0
996.0
996.0
997.0
997.0
997.0
998.0
998.0
996.0
994.0
983.0
976.0
971.0
967.0
965.0
958.0
957.0
951.0
951.0
951.0
953.0
954.0
951.0
949.0
949.0
950.0
954.0
953.0
954.0
954.0
954.0
954.0
957.0
959.0
957.0
954.0
954.0
958.0
956.0
957.0
957.0
954.0
954.0
958.0
956.0
960.0
958.0
955.0
959.0
960.0
962.0
961.0
958.0
958.0
958.0
958.0
961.0
964.0
964.0
963.0
963.0
964.0
966.0
966.0
964.0
963.0
957.0
956.0
955.0
955.0
956.0
971.0
991.0
1018.0
1047.0
1071.0
1092.0
1108.0
1124.0
1150.0
1176.0
1207.0
1233.0
1260.0
1286.0
1307.0
1317.0
1319.0
1318.0
1308.0
1293.0
1267.0
1230.0
1193.0
1158.0
1127.0
1095.0
1061.0
1021.0
978.0
943.0
913.0
888.0
869.0
855.0
842.0
834.0
834.0
830.0
832.0
837.0
842.0
839.0
837.0
845.0
854.0
865.0
873.0
875.0
878.0
880.0
887.0
893.0
898.0
900.0
902.0
903.0
907.0
912.0
911.0
912.0
910.0
907.0
908.0
909.0
911.0
909.0
905.0
903.0
905.0
906.0
905.0
903.0
900.0
900.0
901.0
902.0
904.0
901.0
902.0
899.0
900.0
901.0
901.0
901.0
900.0
897.0
898.0
900.0
900.0
895.0
897.0
894.0
895.0
899.0
901.0
900.0
900.0
900.0
904.0
907.0
908.0
909.0
911.0
911.0
916.0
921.0
925.0
925.0
925.0
929.0
933.0
939.0
941.0
946.0
947.0
950.0
955.0
960.0
965.0
966.0
968.0
969.0
973.0
976.0
979.0
982.0
983.0
982.0
987.0
991.0
992.0
994.0
991.0
994.0
998.0
1001.0
1003.0
1003.0
1001.0
1002.0
1003.0
1006.0
1004.0
1003.0
1002.0
1000.0
1001.0
1004.0
1003.0
998.0
997.0
994.0
996.0
996.0
996.0
996.0
994.0
994.0
994.0
999.0
997.0
1000.0
997.0
997.0
999.0
998.0
1002.0
999.0
998.0
995.0
996.0
996.0
994.0
996.0
994.0
998.0
1001.0
1004.0
1004.0
1005.0
1003.0
1002.0
1004.0
1000.0
1004.0
1001.0
997.0
997.0
1001.0
999.0
1000.0
998.0
997.0
1001.0
999.0
1001.0
1000.0
995.0
988.0
983.0
979.0
976.0
974.0
970.0
965.0
960.0
959.0
961.0
962.0
959.0
957.0
955.0
957.0
957.0
955.0
954.0
957.0
952.0
954.0
958.0
960.0
958.0
955.0
958.0
957.0
960.0
959.0
959.0
957.0
955.0
958.0
961.0
962.0
960.0
960.0
960.0
964.0
964.0
965.0
966.0
964.0
964.0
965.0
967.0
969.0
967.0
967.0
968.0
970.0
972.0
972.0
972.0
969.0
971.0
973.0
973.0
975.0
972.0
973.0
968.0
966.0
966.0
963.0
962.0
963.0
967.0
980.0
1003.0
1029.0
1052.0
1077.0
1099.0
1119.0
1139.0
1161.0
1185.0
1212.0
1234.0
1266.0
1292.0
1311.0
1322.0
1327.0
1327.0
1327.0
1322.0
1306.0
1273.0
1232.0
1194.0
1164.0
1139.0
1111.0
1077.0
1041.0
1001.0
966.0
940.0
917.0
893.0
872.0
854.0
847.0
840.0
837.0
835.0
833.0
835.0
840.0
843.0
844.0
847.0
852.0
859.0
869.0
877.0
883.0
885.0
887.0
889.0
895.0
901.0
906.0
909.0
911.0
912.0
916.0
919.0
921.0
921.0
920.0
918.0
920.0
922.0
919.0
917.0
920.0
916.0
916.0
916.0
917.0
914.0
912.0
907.0
910.0
910.0
907.0
904.0
906.0
905.0
906.0
904.0
904.0
903.0
903.0
900.0
902.0
903.0
903.0
901.0
902.0
902.0
904.0
906.0
905.0
907.0
905.0
906.0
909.0
911.0
913.0
915.0
915.0
916.0
921.0
923.0
928.0
927.0
927.0
930.0
934.0
936.0
939.0
940.0
942.0
944.0
949.0
952.0
957.0
958.0
959.0
961.0
965.0
970.0
971.0
974.0
976.0
978.0
982.0
987.0
990.0
991.0
990.0
992.0
996.0
998.0
1000.0
1001.0
1002.0
1000.0
1005.0
1009.0
1012.0
1010.0
1010.0
1010.0
1012.0
1013.0
1015.0
1014.0
1011.0
1007.0
1011.0
1014.0
1013.0
1010.0
1009.0
1007.0
1008.0
1007.0
1008.0
1003.0
1002.0
998.0
1000.0
1002.0
1003.0
1004.0
1003.0
1002.0
1004.0
1006.0
1006.0
1004.0
1002.0
1003.0
1002.0
1003.0
1000.0
998.0
998.0
1000.0
1002.0
1006.0
1008.0
1011.0
1010.0
1009.0
1011.0
1012.0
1014.0
1011.0
1008.0
1008.0
1007.0
1011.0
1012.0
1012.0
1011.0
1011.0
1012.0
1014.0
1013.0
1011.0
1002.0
994.0
991.0
988.0
984.0
978.0
973.0
970.0
966.0
966.0
964.0
964.0
962.0
961.0
962.0
964.0
965.0
964.0
965.0
961.0
965.0
966.0
964.0
964.0
965.0
966.0
967.0
969.0
969.0
969.0
970.0
968.0
971.0
973.0
972.0
972.0
972.0
969.0
972.0
972.0
974.0
972.0
970.0
971.0
973.0
972.0
975.0
973.0
974.0
974.0
977.0
976.0
978.0
977.0
976.0
976.0
978.0
976.0
977.0
974.0
966.0
963.0
967.0
973.0
987.0
1009.0
1035.0
1060.0
1090.0
1115.0
1132.0
1150.0
1173.0
1202.0
1228.0
1254.0
1278.0
1301.0
1318.0
1323.0
1325.0
1326.0
1322.0
1311.0
1290.0
1253.0
1218.0
1187.0
1160.0
1133.0
1104.0
1069.0
1033.0
993.0
959.0
930.0
902.0
880.0
867.0
860.0
855.0
851.0
851.0
851.0
857.0
860.0
861.0
864.0
872.0
878.0
890.0
896.0
899.0
902.0
902.0
905.0
915.0
920.0
924.0
927.0
928.0
928.0
928.0
932.0
934.0
930.0
929.0
929.0
930.0
931.0
930.0
928.0
929.0
924.0
925.0
927.0
923.0
921.0
920.0
918.0
921.0
922.0
921.0
919.0
919.0
917.0
917.0
922.0
921.0
920.0
919.0
918.0
920.0
921.0
920.0
919.0
919.0
919.0
923.0
925.0
925.0
923.0
921.0
923.0
926.0
930.0
933.0
932.0
933.0
937.0
941.0
946.0
949.0
950.0
953.0
951.0
959.0
961.0
964.0
965.0
967.0
968.0
974.0
978.0
982.0
984.0
985.0
988.0
993.0
999.0
1001.0
1002.0
1004.0
1006.0
1010.0
1013.0
1011.0
1016.0
1013.0
1015.0
1018.0
1021.0
1021.0
1020.0
1018.0
1020.0
1020.0
1023.0
1023.0
1021.0
1019.0
1017.0
1019.0
1022.0
1021.0
1019.0
1017.0
1017.0
1018.0
1017.0
1016.0
1013.0
1010.0
1010.0
1010.0
1013.0
1014.0
1013.0
1013.0
1013.0
1019.0
1019.0
1020.0
1018.0
1018.0
1017.0
1018.0
1018.0
1018.0
1018.0
1017.0
1017.0
1020.0
1023.0
1025.0
1026.0
1023.0
1022.0
1023.0
1025.0
1023.0
1020.0
1017.0
1016.0
1017.0
1019.0
1021.0
1019.0
1018.0
1018.0
1021.0
1022.0
1019.0
1016.0
1009.0
1003.0
997.0
996.0
993.0
986.0
982.0
976.0
976.0
977.0
976.0
977.0
974.0
973.0
974.0
977.0
977.0
977.0
975.0
973.0
973.0
978.0
977.0
976.0
976.0
975.0
975.0
978.0
977.0
976.0
975.0
975.0
977.0
978.0
980.0
977.0
978.0
974.0
979.0
980.0
981.0
980.0
980.0
981.0
982.0
983.0
984.0
984.0
985.0
983.0
986.0
988.0
989.0
990.0
988.0
986.0
985.0
988.0
983.0
980.0
974.0
973.0
974.0
981.0
998.0
1021.0
1047.0
1073.0
1097.0
1117.0
1135.0
1153.0
1179.0
1211.0
1244.0
1275.0
1300.0
1318.0
1328.0
1327.0
1330.0
1324.0
1307.0
1269.0
1229.0
1189.0
1161.0
1133.0
1098.0
1056.0
1009.0
965.0
939.0
913.0
892.0
875.0
864.0
857.0
859.0
861.0
863.0
863.0
861.0
864.0
870.0
882.0
891.0
897.0
899.0
901.0
906.0
913.0
919.0
924.0
928.0
928.0
933.0
937.0
936.0
936.0
935.0
933.0
934.0
937.0
937.0
933.0
933.0
932.0
933.0
934.0
931.0
933.0
928.0
928.0
926.0
926.0
926.0
922.0
922.0
920.0
922.0
923.0
921.0
922.0
921.0
919.0
921.0
923.0
925.0
922.0
923.0
923.0
928.0
929.0
930.0
932.0
933.0
935.0
939.0
944.0
946.0
950.0
948.0
953.0
957.0
963.0
966.0
969.0
968.0
971.0
975.0
981.0
985.0
985.0
984.0
986.0
990.0
998.0
998.0
1000.0
1002.0
1004.0
1006.0
1010.0
1012.0
1014.0
1011.0
1014.0
1016.0
1022.0
1023.0
1022.0
1021.0
1020.0
1021.0
1022.0
1024.0
1022.0
1021.0
1018.0
1021.0
1024.0
1023.0
1025.0
1023.0
1020.0
1021.0
1022.0
1019.0
1018.0
1015.0
1011.0
1015.0
1017.0
1016.0
1015.0
1016.0
1015.0
1018.0
1018.0
1016.0
1017.0
1016.0
1012.0
1015.0
1016.0
1015.0
1012.0
1008.0
1011.0
1014.0
1019.0
1023.0
1021.0
1018.0
1020.0
1021.0
1021.0
1021.0
1019.0
1016.0
1015.0
1017.0
1018.0
1019.0
1019.0
1018.0
1018.0
1019.0
1025.0
1022.0
1019.0
1015.0
1007.0
1003.0
999.0
995.0
991.0
984.0
979.0
976.0
976.0
975.0
976.0
972.0
969.0
969.0
973.0
970.0
973.0
969.0
969.0
972.0
973.0
974.0
974.0
974.0
972.0
974.0
976.0
977.0
975.0
977.0
977.0
981.0
981.0
980.0
979.0
980.0
978.0
979.0
982.0
981.0
981.0
980.0
980.0
980.0
983.0
983.0
982.0
981.0
980.0
983.0
984.0
985.0
984.0
983.0
980.0
980.0
979.0
975.0
970.0
969.0
976.0
995.0
1022.0
1052.0
1084.0
1105.0
1123.0
1146.0
1174.0
1205.0
1237.0
1266.0
1295.0
1318.0
1335.0
1340.0
1337.0
1331.0
1314.0
1286.0
1245.0
1208.0
1172.0
1138.0
1105.0
1068.0
1022.0
981.0
946.0
916.0
893.0
872.0
862.0
858.0
855.0
854.0
854.0
859.0
859.0
861.0
865.0
871.0
879.0
890.0
899.0
902.0
905.0
908.0
911.0
919.0
926.0
929.0
931.0
933.0
932.0
934.0
936.0
936.0
931.0
929.0
930.0
929.0
931.0
929.0
927.0
926.0
924.0
922.0
924.0
923.0
921.0
918.0
917.0
917.0
921.0
917.0
918.0
915.0
916.0
916.0
918.0
919.0
919.0
919.0
916.0
923.0
923.0
923.0
922.0
924.0
925.0
926.0
929.0
930.0
931.0
930.0
930.0
935.0
939.0
940.0
943.0
944.0
945.0
949.0
956.0
958.0
959.0
963.0
964.0
967.0
972.0
973.0
977.0
979.0
979.0
986.0
991.0
992.0
994.0
996.0
997.0
1002.0
1007.0
1009.0
1013.0
1014.0
1013.0
1016.0
1020.0
1022.0
1022.0
1020.0
1019.0
1021.0
1025.0
1025.0
1023.0
1021.0
1020.0
1020.0
1022.0
1020.0
1017.0
1017.0
1012.0
1017.0
1017.0
1017.0
1014.0
1011.0
1006.0
1007.0
1010.0
1011.0
1010.0
1011.0
1010.0
1012.0
1013.0
1017.0
1012.0
1011.0
1010.0
1012.0
1013.0
1015.0
1012.0
1012.0
1013.0
1019.0
1022.0
1023.0
1024.0
1023.0
1021.0
1022.0
1023.0
1020.0
1018.0
1014.0
1015.0
1016.0
1018.0
1016.0
1015.0
1016.0
1014.0
1014.0
1015.0
1012.0
1008.0
999.0
990.0
990.0
988.0
982.0
978.0
975.0
969.0
972.0
973.0
973.0
972.0
970.0
969.0
973.0
973.0
975.0
975.0
971.0
971.0
973.0
976.0
977.0
976.0
974.0
972.0
975.0
977.0
978.0
976.0
977.0
976.0
976.0
977.0
976.0
977.0
976.0
974.0
975.0
978.0
979.0
979.0
979.0
977.0
979.0
981.0
982.0
980.0
980.0
981.0
984.0
982.0
985.0
985.0
983.0
983.0
982.0
979.0
975.0
970.0
974.0
980.0
999.0
1026.0
1052.0
1077.0
1100.0
1118.0
1137.0
1166.0
1197.0
1231.0
1262.0
1292.0
1317.0
1335.0
1338.0
1337.0
1331.0
1319.0
1292.0
1257.0
1219.0
1187.0
1154.0
1120.0
1087.0
1049.0
1002.0
963.0
930.0
903.0
880.0
865.0
856.0
851.0
850.0
851.0
854.0
859.0
861.0
862.0
870.0
878.0
889.0
896.0
901.0
905.0
906.0
912.0
918.0
924.0
925.0
929.0
928.0
926.0
927.0
928.0
929.0
927.0
925.0
923.0
922.0
924.0
923.0
922.0
920.0
918.0
920.0
922.0
920.0
918.0
917.0
915.0
915.0
918.0
916.0
915.0
914.0
912.0
914.0
914.0
914.0
915.0
914.0
914.0
916.0
917.0
921.0
920.0
920.0
920.0
924.0
926.0
929.0
931.0
932.0
933.0
937.0
942.0
946.0
947.0
948.0
952.0
959.0
964.0
967.0
970.0
973.0
975.0
981.0
984.0
986.0
989.0
993.0
994.0
998.0
1001.0
1005.0
1006.0
1004.0
1007.0
1013.0
1012.0
1016.0
1017.0
1015.0
1013.0
