# Simple Text Format
# Sampling Rate (Hz):= 360.00
# Resolution:= 12
# Labels:= ECG
1030.0
1015.0
993.0
980.0
963.0
936.0
901.0
864.0
833.0
812.0
803.0
802.0
804.0
803.0
810.0
822.0
835.0
851.0
865.0
877.0
890.0
904.0
915.0
927.0
936.0
945.0
954.0
964.0
971.0
979.0
986.0
991.0
999.0
1003.0
1011.0
1014.0
1021.0
1026.0
1029.0
1037.0
1045.0
1050.0
1057.0
1060.0
1063.0
1068.0
1073.0
1077.0
1079.0
1078.0
1079.0
1082.0
1085.0
1086.0
1085.0
1081.0
1081.0
1086.0
1089.0
1087.0
1087.0
1086.0
1086.0
1089.0
1089.0
1088.0
1091.0
1087.0
1088.0
1092.0
1094.0
1094.0
1095.0
1092.0
1093.0
1096.0
1099.0
1099.0
1099.0
1096.0
1099.0
1100.0
1103.0
1101.0
1103.0
1100.0
1101.0
1100.0
1103.0
1104.0
1104.0
1102.0
1100.0
1100.0
1102.0
1102.0
1099.0
1098.0
1099.0
1094.0
1098.0
1098.0
1097.0
1093.0
1093.0
1092.0
1093.0
1094.0
1094.0
1089.0
1085.0
1086.0
1087.0
1086.0
1084.0
1079.0
1078.0
1078.0
1078.0
1076.0
1075.0
1072.0
1068.0
1070.0
1070.0
1068.0
1067.0
1065.0
1058.0
1062.0
1063.0
1062.0
1058.0
1055.0
1054.0
1054.0
1056.0
1057.0
1055.0
1050.0
1049.0
1051.0
1054.0
1053.0
1053.0
1051.0
1051.0
1051.0
1052.0
1050.0
1050.0
1052.0
1049.0
1052.0
1052.0
1054.0
1051.0
1051.0
1052.0
1055.0
1057.0
1057.0
1061.0
1059.0
1058.0
1061.0
1063.0
1062.0
1058.0
1056.0
1057.0
1055.0
1058.0
1057.0
1057.0
1055.0
1052.0
1055.0
1058.0
1057.0
1058.0
1059.0
1054.0
1056.0
1056.0
1055.0
1055.0
1054.0
1053.0
1054.0
1057.0
1055.0
1057.0
1055.0
1054.0
1055.0
1057.0
1059.0
1059.0
1057.0
1057.0
1059.0
1059.0
1059.0
1059.0
1056.0
1055.0
1056.0
1056.0
1056.0
1055.0
1053.0
1054.0
1054.0
1057.0
1055.0
1055.0
1052.0
1053.0
1054.0
1056.0
1055.0
1054.0
1055.0
1051.0
1054.0
1053.0
1053.0
1053.0
1053.0
1050.0
1051.0
1055.0
1054.0
1055.0
1052.0
1051.0
1054.0
1055.0
1052.0
1054.0
1050.0
1052.0
1052.0
1054.0
1053.0
1053.0
1054.0
1051.0
1055.0
1057.0
1059.0
1066.0
1066.0
1071.0
1074.0
1078.0
1077.0
1070.0
1060.0
1045.0
1032.0
1018.0
1003.0
987.0
972.0
951.0
926.0
899.0
873.0
846.0
825.0
812.0
810.0
815.0
817.0
823.0
831.0
841.0
859.0
872.0
886.0
902.0
910.0
920.0
932.0
946.0
960.0
966.0
971.0
977.0
986.0
997.0
1001.0
1006.0
1009.0
1013.0
1018.0
1027.0
1033.0
1039.0
1043.0
1048.0
1055.0
1061.0
1065.0
1068.0
1070.0
1074.0
1077.0
1083.0
1085.0
1085.0
1085.0
1084.0
1088.0
1089.0
1088.0
1089.0
1088.0
1086.0
1088.0
1090.0
1092.0
1092.0
1089.0
1090.0
1091.0
1095.0
1095.0
1096.0
1093.0
1093.0
1096.0
1100.0
1100.0
1101.0
1097.0
1099.0
1100.0
1103.0
1102.0
1103.0
1103.0
1102.0
1103.0
1107.0
1107.0
1106.0
1104.0
1102.0
1104.0
1108.0
1107.0
1107.0
1104.0
1105.0
1106.0
1105.0
1106.0
1103.0
1103.0
1100.0
1102.0
1104.0
1103.0
1099.0
1096.0
1095.0
1097.0
1097.0
1096.0
1094.0
1092.0
1090.0
1091.0
1093.0
1090.0
1086.0
1085.0
1083.0
1083.0
1084.0
1082.0
1079.0
1076.0
1075.0
1075.0
1077.0
1073.0
1072.0
1068.0
1065.0
1065.0
1067.0
1066.0
1061.0
1060.0
1055.0
1060.0
1057.0
1057.0
1056.0
1054.0
1052.0
1053.0
1057.0
1053.0
1054.0
1051.0
1050.0
1055.0
1053.0
1056.0
1056.0
1054.0
1053.0
1052.0
1057.0
1057.0
1058.0
1057.0
1055.0
1058.0
1062.0
1064.0
1064.0
1061.0
1060.0
1061.0
1061.0
1059.0
1060.0
1058.0
1055.0
1055.0
1058.0
1059.0
1059.0
1058.0
1059.0
1059.0
1060.0
1059.0
1058.0
1058.0
1052.0
1056.0
1059.0
1060.0
1061.0
1057.0
1056.0
1059.0
1061.0
1061.0
1061.0
1059.0
1058.0
1060.0
1063.0
1062.0
1060.0
1059.0
1055.0
1062.0
1061.0
1060.0
1059.0
1056.0
1055.0
1055.0
1056.0
1059.0
1059.0
1055.0
1053.0
1054.0
1058.0
1057.0
1055.0
1054.0
1052.0
1058.0
1057.0
1059.0
1055.0
1054.0
1054.0
1054.0
1060.0
1055.0
1057.0
1052.0
1051.0
1053.0
1054.0
1056.0
1058.0
1056.0
1053.0
1054.0
1056.0
1055.0
1059.0
1054.0
1054.0
1057.0
1062.0
1063.0
1066.0
1071.0
1072.0
1077.0
1079.0
1078.0
1067.0
1054.0
1039.0
1023.0
1008.0
992.0
973.0
946.0
914.0
881.0
852.0
826.0
812.0
804.0
808.0
811.0
820.0
831.0
842.0
855.0
868.0
884.0
897.0
908.0
921.0
932.0
940.0
955.0
966.0
972.0
980.0
986.0
994.0
1002.0
1009.0
1016.0
1018.0
1019.0
1024.0
1034.0
1041.0
1047.0
1051.0
1056.0
1059.0
1066.0
1070.0
1075.0
1079.0
1080.0
1080.0
1085.0
1088.0
1092.0
1093.0
1090.0
1090.0
1093.0
1092.0
1094.0
1094.0
1092.0
1091.0
1093.0
1095.0
1098.0
1095.0
1094.0
1093.0
1096.0
1099.0
1099.0
1100.0
1098.0
1098.0
1102.0
1103.0
1106.0
1103.0
1100.0
1102.0
1105.0
1109.0
1107.0
1109.0
1106.0
1105.0
1108.0
1109.0
1109.0
1110.0
1108.0
1109.0
1107.0
1109.0
1110.0
1110.0
1109.0
1107.0
1108.0
1111.0
1107.0
1105.0
1106.0
1102.0
1102.0
1104.0
1104.0
1102.0
1101.0
1098.0
1100.0
1103.0
1098.0
1099.0
1095.0
1090.0
1095.0
1092.0
1093.0
1091.0
1089.0
1087.0
1083.0
1086.0
1082.0
1082.0
1079.0
1074.0
1076.0
1075.0
1073.0
1075.0
1071.0
1066.0
1068.0
1067.0
1067.0
1063.0
1062.0
1061.0
1060.0
1062.0
1060.0
1060.0
1057.0
1059.0
1058.0
1063.0
1059.0
1061.0
1058.0
1058.0
1059.0
1060.0
1061.0
1062.0
1057.0
1058.0
1059.0
1060.0
1066.0
1062.0
1064.0
1062.0
1067.0
1069.0
1071.0
1072.0
1068.0
1066.0
1066.0
1067.0
1069.0
1068.0
1065.0
1064.0
1064.0
1067.0
1069.0
1069.0
1065.0
1064.0
1064.0
1070.0
1069.0
1067.0
1065.0
1064.0
1066.0
1069.0
1071.0
1070.0
1067.0
1065.0
1067.0
1069.0
1073.0
1071.0
1070.0
1068.0
1072.0
1074.0
1071.0
1070.0
1070.0
1066.0
1069.0
1072.0
1071.0
1072.0
1070.0
1069.0
1066.0
1068.0
1069.0
1070.0
1067.0
1067.0
1068.0
1068.0
1070.0
1068.0
1067.0
1065.0
1067.0
1066.0
1068.0
1070.0
1066.0
1066.0
1067.0
1068.0
1068.0
1068.0
1064.0
1064.0
1067.0
1067.0
1068.0
1068.0
1065.0
1065.0
1066.0
1070.0
1068.0
1069.0
1068.0
1067.0
1073.0
1076.0
1083.0
1087.0
1089.0
1088.0
1088.0
1081.0
1070.0
1055.0
1039.0
1019.0
1004.0
989.0
966.0
936.0
899.0
864.0
836.0
825.0
820.0
820.0
822.0
829.0
841.0
856.0
871.0
887.0
899.0
911.0
923.0
938.0
950.0
961.0
971.0
978.0
988.0
996.0
1001.0
1011.0
1014.0
1018.0
1023.0
1030.0
1035.0
1039.0
1046.0
1050.0
1058.0
1066.0
1070.0
1076.0
1078.0
1079.0
1086.0
1091.0
1095.0
1096.0
1098.0
1097.0
1099.0
1103.0
1104.0
1103.0
1101.0
1099.0
1102.0
1105.0
1105.0
1104.0
1100.0
1102.0
1104.0
1107.0
1107.0
1109.0
1109.0
1106.0
1108.0
1111.0
1112.0
1110.0
1111.0
1108.0
1112.0
1113.0
1115.0
1114.0
1113.0
1114.0
1116.0
1119.0
1119.0
1116.0
1117.0
1117.0
1118.0
1120.0
1121.0
1121.0
1117.0
1119.0
1117.0
1117.0
1120.0
1120.0
1115.0
1114.0
1113.0
1117.0
1115.0
1114.0
1110.0
1110.0
1111.0
1113.0
1112.0
1110.0
1106.0
1103.0
1104.0
1106.0
1105.0
1103.0
1101.0
1098.0
1097.0
1097.0
1097.0
1094.0
1091.0
1089.0
1089.0
1089.0
1087.0
1087.0
1080.0
1079.0
1080.0
1082.0
1081.0
1075.0
1074.0
1072.0
1071.0
1073.0
1071.0
1070.0
1067.0
1064.0
1064.0
1065.0
1065.0
1065.0
1059.0
1059.0
1060.0
1062.0
1062.0
1060.0
1058.0
1058.0
1059.0
1062.0
1060.0
1062.0
1059.0
1059.0
1059.0
1062.0
1062.0
1061.0
1062.0
1059.0
1064.0
1065.0
1068.0
1066.0
1066.0
1068.0
1069.0
1072.0
1071.0
1068.0
1066.0
1064.0
1066.0
1067.0
1066.0
1065.0
1062.0
1061.0
1061.0
1064.0
1067.0
1067.0
1065.0
1066.0
1066.0
1067.0
1065.0
1066.0
1060.0
1059.0
1061.0
1068.0
1065.0
1066.0
1061.0
1063.0
1066.0
1066.0
1067.0
1067.0
1066.0
1063.0
1065.0
1071.0
1070.0
1070.0
1063.0
1063.0
1064.0
1066.0
1065.0
1066.0
1064.0
1063.0
1063.0
1067.0
1068.0
1064.0
1062.0
1062.0
1063.0
1063.0
1064.0
1065.0
1062.0
1062.0
1064.0
1062.0
1065.0
1062.0
1060.0
1060.0
1060.0
1064.0
1063.0
1063.0
1062.0
1059.0
1063.0
1063.0
1064.0
1062.0
1059.0
1061.0
1060.0
1061.0
1065.0
1062.0
1060.0
1060.0
1059.0
1062.0
1061.0
1061.0
1059.0
1058.0
1061.0
1064.0
1068.0
1074.0
1074.0
1076.0
1084.0
1084.0
1081.0
1072.0
1060.0
1049.0
1033.0
1018.0
1003.0
989.0
971.0
941.0
915.0
884.0
854.0
830.0
813.0
807.0
810.0
809.0
815.0
824.0
832.0
846.0
862.0
876.0
890.0
902.0
912.0
921.0
933.0
946.0
959.0
966.0
971.0
976.0
986.0
998.0
1002.0
1008.0
1012.0
1014.0
1021.0
1029.0
1034.0
1037.0
1041.0
1046.0
1055.0
1061.0
1068.0
1072.0
1074.0
1076.0
1082.0
1087.0
1089.0
1094.0
1091.0
1094.0
1095.0
1098.0
1099.0
1097.0
1096.0
1094.0
1096.0
1098.0
1098.0
1098.0
1096.0
1097.0
1100.0
1102.0
1103.0
1102.0
1100.0
1099.0
1103.0
1105.0
1107.0
1108.0
1106.0
1104.0
1105.0
1107.0
1110.0
1110.0
1111.0
1111.0
1110.0
1113.0
1113.0
1113.0
1112.0
1111.0
1112.0
1116.0
1118.0
1113.0
1114.0
1112.0
1114.0
1115.0
1116.0
1116.0
1115.0
1114.0
1114.0
1116.0
1116.0
1114.0
1112.0
1110.0
1110.0
1110.0
1110.0
1108.0
1107.0
1107.0
1108.0
1108.0
1107.0
1107.0
1102.0
1098.0
1102.0
1103.0
1101.0
1100.0
1099.0
1094.0
1094.0
1095.0
1094.0
1093.0
1092.0
1089.0
1088.0
1087.0
1088.0
1085.0
1083.0
1079.0
1079.0
1079.0
1079.0
1076.0
1071.0
1068.0
1072.0
1072.0
1069.0
1070.0
1063.0
1063.0
1063.0
1064.0
1064.0
1063.0
1060.0
1058.0
1058.0
1059.0
1061.0
1059.0
1057.0
1057.0
1056.0
1060.0
1060.0
1059.0
1055.0
1055.0
1058.0
1059.0
1058.0
1059.0
1057.0
1057.0
1058.0
1060.0
1062.0
1063.0
1061.0
1059.0
1064.0
1067.0
1067.0
1067.0
1067.0
1067.0
1066.0
1069.0
1069.0
1065.0
1064.0
1061.0
1063.0
1065.0
1065.0
1065.0
1062.0
1060.0
1062.0
1065.0
1065.0
1064.0
1064.0
1064.0
1062.0
1064.0
1062.0
1064.0
1062.0
1061.0
1060.0
1064.0
1064.0
1065.0
1061.0
1061.0
1062.0
1064.0
1063.0
1064.0
1063.0
1062.0
1064.0
1065.0
1067.0
1067.0
1063.0
1059.0
1061.0
1062.0
1062.0
1061.0
1061.0
1059.0
1058.0
1063.0
1061.0
1061.0
1059.0
1058.0
1058.0
1057.0
1060.0
1059.0
1058.0
1058.0
1058.0
1057.0
1061.0
1060.0
1058.0
1057.0
1058.0
1060.0
1059.0
1059.0
1056.0
1055.0
1057.0
1059.0
1059.0
1059.0
1057.0
1054.0
1056.0
1059.0
1058.0
1059.0
1057.0
1057.0
1056.0
1060.0
1063.0
1064.0
1065.0
1069.0
1076.0
1078.0
1083.0
1082.0
1071.0
1063.0
1051.0
1039.0
1019.0
1004.0
986.0
968.0
944.0
915.0
883.0
850.0
825.0
806.0
802.0
802.0
806.0
810.0
817.0
827.0
843.0
862.0
877.0
888.0
901.0
911.0
924.0
940.0
950.0
963.0
969.0
973.0
983.0
992.0
1002.0
1008.0
1010.0
1013.0
1020.0
1027.0
1034.0
1039.0
1044.0
1048.0
1055.0
1062.0
1070.0
1073.0
1075.0
1078.0
1083.0
1087.0
1092.0
1094.0
1094.0
1094.0
1095.0
1097.0
1100.0
1098.0
1095.0
1095.0
1097.0
1098.0
1102.0
1100.0
1099.0
1097.0
1100.0
1103.0
1105.0
1103.0
1103.0
1101.0
1104.0
1104.0
1109.0
1106.0
1106.0
1103.0
1107.0
1110.0
1110.0
1109.0
1110.0
1108.0
1108.0
1112.0
1114.0
1113.0
1112.0
1110.0
1112.0
1114.0
1116.0
1114.0
1112.0
1112.0
1111.0
1115.0
1113.0
1113.0
1110.0
1106.0
1109.0
1110.0
1110.0
1106.0
1106.0
1103.0
1103.0
1103.0
1103.0
1102.0
1098.0
1098.0
1098.0
1100.0
1098.0
1097.0
1095.0
1091.0
1090.0
1090.0
1089.0
1087.0
1086.0
1081.0
1082.0
1082.0
1082.0
1080.0
1075.0
1072.0
1071.0
1072.0
1071.0
1071.0
1066.0
1063.0
1063.0
1063.0
1066.0
1063.0
1059.0
1057.0
1058.0
1057.0
1058.0
1058.0
1057.0
1053.0
1055.0
1055.0
1057.0
1058.0
1051.0
1053.0
1052.0
1056.0
1057.0
1055.0
1054.0
1052.0
1054.0
1057.0
1057.0
1059.0
1055.0
1055.0
1057.0
1058.0
1063.0
1062.0
1062.0
1061.0
1062.0
1066.0
1064.0
1063.0
1060.0
1057.0
1061.0
1063.0
1062.0
1059.0
1057.0
1059.0
1059.0
1060.0
1064.0
1063.0
1059.0
1061.0
1061.0
1062.0
1063.0
1058.0
1057.0
1058.0
1059.0
1060.0
1060.0
1064.0
1058.0
1057.0
1058.0
1060.0
1061.0
1060.0
1061.0
1060.0
1059.0
1062.0
1063.0
1064.0
1061.0
1059.0
1060.0
1060.0
1065.0
1062.0
1060.0
1058.0
1059.0
1061.0
1059.0
1060.0
1057.0
1056.0
1057.0
1059.0
1059.0
1058.0
1058.0
1058.0
1058.0
1059.0
1060.0
1060.0
1060.0
1057.0
1059.0
1059.0
1061.0
1059.0
1057.0
1055.0
1057.0
1058.0
1060.0
1060.0
1058.0
1057.0
1056.0
1060.0
1060.0
1058.0
1057.0
1056.0
1058.0
1060.0
1062.0
1061.0
1063.0
1063.0
1067.0
1075.0
1079.0
1082.0
1080.0
1073.0
1063.0
1053.0
1040.0
1021.0
999.0
983.0
960.0
935.0
899.0
859.0
832.0
814.0
807.0
810.0
812.0
819.0
826.0
842.0
860.0
879.0
891.0
908.0
915.0
926.0
939.0
955.0
963.0
973.0
978.0
984.0
993.0
1002.0
1010.0
1012.0
1015.0
1021.0
1027.0
1034.0
1041.0
1047.0
1052.0
1055.0
1062.0
1068.0
1074.0
1078.0
1081.0
1082.0
1088.0
1091.0
1095.0
1095.0
1096.0
1091.0
1093.0
1097.0
1097.0
1098.0
1097.0
1095.0
1097.0
1098.0
1100.0
1101.0
1100.0
1098.0
1101.0
1101.0
1102.0
1105.0
1103.0
1103.0
1105.0
1107.0
1109.0
1109.0
1105.0
1105.0
1108.0
1110.0
1112.0
1110.0
1110.0
1111.0
1112.0
1112.0
1112.0
1115.0
1112.0
1112.0
1110.0
1113.0
1116.0
1111.0
1110.0
1107.0
1108.0
1111.0
1113.0
1111.0
1108.0
1104.0
1105.0
1106.0
1106.0
1103.0
1100.0
1099.0
1097.0
1100.0
1099.0
1096.0
1097.0
1090.0
1092.0
1092.0
1093.0
1089.0
1087.0
1082.0
1081.0
1080.0
1082.0
1078.0
1075.0
1071.0
1070.0
1070.0
1072.0
1069.0
1064.0
1063.0
1063.0
1063.0
1064.0
1062.0
1059.0
1055.0
1058.0
1060.0
1059.0
1057.0
1056.0
1057.0
1055.0
1060.0
1059.0
1057.0
1056.0
1053.0
1055.0
1058.0
1059.0
1057.0
1057.0
1055.0
1057.0
1059.0
1061.0
1062.0
1062.0
1062.0
1061.0
1067.0
1065.0
1066.0
1063.0
1060.0
1064.0
1064.0
1064.0
1063.0
1063.0
1060.0
1060.0
1063.0
1061.0
1062.0
1062.0
1061.0
1063.0
1066.0
1066.0
1063.0
1061.0
1060.0
1061.0
1062.0
1061.0
1063.0
1062.0
1061.0
1062.0
1064.0
1062.0
1063.0
1062.0
1059.0
1062.0
1063.0
1065.0
1069.0
1062.0
1060.0
1063.0
1064.0
1063.0
1065.0
1061.0
1058.0
1061.0
1063.0
1063.0
1063.0
1059.0
1060.0
1058.0
1061.0
1063.0
1062.0
1060.0
1058.0
1059.0
1061.0
1063.0
1061.0
1060.0
1056.0
1057.0
1059.0
1059.0
1060.0
1058.0
1057.0
1056.0
1059.0
1059.0
1060.0
1057.0
1056.0
1056.0
1058.0
1059.0
1059.0
1057.0
1055.0
1057.0
1061.0
1062.0
1062.0
1063.0
1064.0
1073.0
1080.0
1082.0
1083.0
1076.0
1065.0
1052.0
1039.0
1021.0
999.0
980.0
955.0
926.0
893.0
858.0
830.0
810.0
804.0
807.0
812.0
819.0
831.0
843.0
856.0
872.0
886.0
904.0
915.0
923.0
932.0
945.0
960.0
970.0
977.0
982.0
988.0
997.0
1005.0
1011.0
1016.0
1020.0
1023.0
1032.0
1041.0
1049.0
1054.0
1056.0
1061.0
1068.0
1073.0
1078.0
1080.0
1082.0
1084.0
1087.0
1092.0
1093.0
1095.0
1094.0
1091.0
1092.0
1094.0
1096.0
1096.0
1095.0
1094.0
1096.0
1098.0
1098.0
1100.0
1096.0
1096.0
1101.0
1102.0
1105.0
1105.0
1102.0
1103.0
1102.0
1108.0
1107.0
1107.0
1108.0
1106.0
1108.0
1109.0
1113.0
1113.0
1110.0
1110.0
1108.0
1111.0
1113.0
1113.0
1112.0
1108.0
1111.0
1114.0
1113.0
1111.0
1107.0
1107.0
1108.0
1109.0
1109.0
1110.0
1105.0
1103.0
1105.0
1106.0
1104.0
1103.0
1102.0
1097.0
1098.0
1098.0
1099.0
1098.0
1093.0
1091.0
1089.0
1092.0
1091.0
1088.0
1086.0
1083.0
1081.0
1080.0
1080.0
1080.0
1076.0
1072.0
1071.0
1073.0
1072.0
1071.0
1067.0
1063.0
1063.0
1067.0
1066.0
1063.0
1060.0
1058.0
1057.0
1059.0
1059.0
1059.0
1057.0
1054.0
1054.0
1056.0
1057.0
1058.0
1055.0
1052.0
1053.0
1058.0
1059.0
1058.0
1057.0
1055.0
1054.0
1059.0
1061.0
1060.0
1058.0
1059.0
1061.0
1064.0
1067.0
1067.0
1065.0
1063.0
1063.0
1063.0
1066.0
1066.0
1061.0
1060.0
1060.0
1060.0
1062.0
1061.0
1058.0
1059.0
1059.0
1064.0
1065.0
1063.0
1061.0
1056.0
1059.0
1063.0
1061.0
1062.0
1059.0
1056.0
1060.0
1061.0
1060.0
1061.0
1057.0
1058.0
1059.0
1061.0
1063.0
1064.0
1063.0
1059.0
1061.0
1061.0
1062.0
1063.0
1059.0
1058.0
1057.0
1060.0
1060.0
1062.0
1057.0
1057.0
1058.0
1059.0
1060.0
1058.0
1056.0
1056.0
1055.0
1057.0
1058.0
1057.0
1056.0
1053.0
1055.0
1057.0
1057.0
1058.0
1056.0
1053.0
1056.0
1056.0
1060.0
1058.0
1056.0
1054.0
1055.0
1056.0
1056.0
1056.0
1054.0
1053.0
1055.0
1058.0
1056.0
1057.0
1059.0
1059.0
1062.0
1068.0
1074.0
1080.0
1079.0
1076.0
1070.0
1063.0
1050.0
1037.0
1013.0
994.0
977.0
960.0
932.0
897.0
858.0
825.0
811.0
804.0
807.0
810.0
815.0
824.0
839.0
857.0
872.0
886.0
899.0
907.0
922.0
935.0
950.0
959.0
968.0
975.0
981.0
992.0
1001.0
1007.0
1011.0
1016.0
1021.0
1030.0
1037.0
1042.0
1049.0
1054.0
1058.0
1067.0
1073.0
1076.0
1079.0
1079.0
1086.0
1088.0
1092.0
1092.0
1091.0
1088.0
1091.0
1093.0
1095.0
1094.0
1094.0
1091.0
1093.0
1095.0
1097.0
1099.0
1096.0
1097.0
1098.0
1102.0
1101.0
1104.0
1102.0
1101.0
1104.0
1106.0
1106.0
1107.0
1104.0
1104.0
1106.0
1109.0
1112.0
1112.0
1110.0
1106.0
1109.0
1112.0
1114.0
1114.0
1113.0
1108.0
1110.0
1114.0
1113.0
1110.0
1106.0
1105.0
1105.0
1109.0
1107.0
1107.0
1105.0
1100.0
1101.0
1102.0
1101.0
1102.0
1098.0
1096.0
1093.0
1096.0
1093.0
1094.0
1091.0
1088.0
1088.0
1087.0
1088.0
1084.0
1081.0
1078.0
1076.0
1077.0
1078.0
1075.0
1072.0
1069.0
1070.0
1070.0
1070.0
1068.0
1064.0
1061.0
1059.0
1061.0
1061.0
1060.0
1059.0
1056.0
1057.0
1056.0
1058.0
1056.0
1052.0
1049.0
1054.0
1053.0
1057.0
1056.0
1053.0
1051.0
1052.0
1056.0
1058.0
1059.0
1056.0
1055.0
1055.0
1061.0
1061.0
1063.0
1063.0
1062.0
1063.0
1063.0
1065.0
1061.0
1060.0
1059.0
1060.0
1060.0
1060.0
1059.0
1054.0
1055.0
1058.0
1059.0
1061.0
1061.0
1059.0
1058.0
1055.0
1057.0
1057.0
1058.0
1058.0
1054.0
1056.0
1059.0
1060.0
1060.0
1059.0
1056.0
1056.0
1059.0
1060.0
1062.0
1060.0
1058.0
1058.0
1059.0
1060.0
1062.0
1059.0
1056.0
1059.0
1058.0
1060.0
1062.0
1059.0
1056.0
1058.0
1056.0
1057.0
1056.0
1056.0
1056.0
1056.0
1059.0
1060.0
1057.0
1053.0
1051.0
1054.0
1054.0
1055.0
1057.0
1055.0
1053.0
1055.0
1055.0
1055.0
1058.0
1054.0
1052.0
1052.0
1053.0
1055.0
1055.0
1053.0
1054.0
1050.0
1054.0
1054.0
1055.0
1052.0
1052.0
1056.0
1060.0
1063.0
1069.0
1071.0
1074.0
1076.0
1076.0
1071.0
1056.0
1047.0
1032.0
1010.0
994.0
981.0
963.0
937.0
903.0
869.0
840.0
818.0
808.0
803.0
802.0
809.0
818.0
831.0
843.0
856.0
871.0
886.0
901.0
914.0
924.0
935.0
947.0
957.0
970.0
977.0
984.0
990.0
994.0
1001.0
1010.0
1016.0
1020.0
1026.0
1030.0
1036.0
1044.0
1050.0
1056.0
1059.0
1061.0
1068.0
1072.0
1078.0
1080.0
1082.0
1081.0
1083.0
1086.0
1089.0
1089.0
1088.0
1086.0
1086.0
1087.0
1089.0
1091.0
1088.0
1086.0
1089.0
1093.0
1092.0
1095.0
1094.0
1091.0
1095.0
1096.0
1097.0
1098.0
1097.0
1097.0
1099.0
1099.0
1102.0
1102.0
1100.0
1098.0
1101.0
1104.0
1106.0
1106.0
1103.0
1102.0
1104.0
1106.0
1107.0
1105.0
1103.0
1102.0
1102.0
1104.0
1107.0
1105.0
1101.0
1098.0
1099.0
1101.0
1101.0
1102.0
1097.0
1093.0
1093.0
1097.0
1096.0
1096.0
1095.0
1090.0
1088.0
1088.0
1090.0
1086.0
1083.0
1083.0
1083.0
1083.0
1082.0
1081.0
1077.0
1074.0
1074.0
1072.0
1073.0
1069.0
1063.0
1063.0
1062.0
1062.0
1063.0
1059.0
1058.0
1058.0
1056.0
1057.0
1055.0
1055.0
1053.0
1051.0
1050.0
1051.0
1054.0
1052.0
1049.0
1048.0
1051.0
1051.0
1052.0
1053.0
1050.0
1049.0
1048.0
1051.0
1053.0
1053.0
1051.0
1053.0
1054.0
1059.0
1061.0
1060.0
1058.0
1056.0
1055.0
1057.0
1059.0
1057.0
1056.0
1053.0
1054.0
1057.0
1057.0
1057.0
1053.0
1054.0
1055.0
1056.0
1060.0
1059.0
1057.0
1055.0
1054.0
1052.0
1055.0
1058.0
1054.0
1052.0
1053.0
1056.0
1057.0
1056.0
1054.0
1051.0
1054.0
1056.0
1059.0
1057.0
1056.0
1055.0
1056.0
1057.0
1058.0
1057.0
1055.0
1053.0
1055.0
1055.0
1056.0
1057.0
1054.0
1052.0
1053.0
1054.0
1054.0
1056.0
1053.0
1051.0
1051.0
1052.0
1054.0
1054.0
1052.0
1050.0
1050.0
1052.0
1054.0
1053.0
1051.0
1052.0
1050.0
1052.0
1053.0
1051.0
1050.0
1049.0
1052.0
1050.0
1055.0
1053.0
1053.0
1051.0
1050.0
1053.0
1055.0
1055.0
1054.0
1052.0
1057.0
1056.0
1065.0
1067.0
1069.0
1074.0
1074.0
1074.0
1071.0
1059.0
1046.0
1032.0
1013.0
997.0
986.0
971.0
946.0
915.0
878.0
850.0
830.0
814.0
806.0
805.0
809.0
817.0
829.0
842.0
854.0
868.0
881.0
896.0
908.0
921.0
926.0
937.0
946.0
962.0
969.0
974.0
980.0
985.0
992.0
1002.0
1005.0
1009.0
1016.0
1016.0
1024.0
1031.0
1041.0
1043.0
1049.0
1052.0
1057.0
1062.0
1069.0
1074.0
1074.0
1077.0
1081.0
1084.0
1088.0
1089.0
1089.0
1087.0
1085.0
1089.0
1091.0
1088.0
1088.0
1088.0
1088.0
1092.0
1094.0
1094.0
1093.0
1092.0
1093.0
1096.0
1098.0
1098.0
1097.0
1097.0
1099.0
1099.0
1102.0
1102.0
1100.0
1097.0
1100.0
1102.0
1105.0
1105.0
1103.0
1103.0
1103.0
1107.0
1108.0
1107.0
1106.0
1106.0
1106.0
1107.0
1108.0
1107.0
1106.0
1103.0
1104.0
1103.0
1102.0
1105.0
1101.0
1099.0
1098.0
1103.0
1102.0
1100.0
1099.0
1095.0
1095.0
1094.0
1096.0
1096.0
1090.0
1090.0
1090.0
1088.0
1088.0
1084.0
1083.0
1079.0
1081.0
1078.0
1077.0
1076.0
1073.0
1069.0
1069.0
1069.0
1069.0
1066.0
1063.0
1060.0
1058.0
1057.0
1061.0
1058.0
1056.0
1054.0
1052.0
1054.0
1055.0
1051.0
1051.0
1048.0
1049.0
1050.0
1052.0
1052.0
1049.0
1049.0
1050.0
1053.0
1055.0
1054.0
1050.0
1053.0
1051.0
1055.0
1057.0
1059.0
1057.0
1057.0
1058.0
1059.0
1062.0
1059.0
1057.0
1055.0
1055.0
1056.0
1057.0
1058.0
1055.0
1051.0
1053.0
1057.0
1059.0
1060.0
1058.0
1056.0
1056.0
1055.0
1057.0
1056.0
1055.0
1056.0
1055.0
1056.0
1058.0
1057.0
1058.0
1055.0
1054.0
1058.0
1060.0
1061.0
1059.0
1056.0
1059.0
1059.0
1061.0
1059.0
1057.0
1056.0
1054.0
1055.0
1057.0
1058.0
1055.0
1055.0
1054.0
1059.0
1058.0
1056.0
1055.0
1052.0
1053.0
1055.0
1058.0
1055.0
1054.0
1050.0
1052.0
1053.0
1055.0
1053.0
1053.0
1051.0
1051.0
1053.0
1056.0
1053.0
1051.0
1050.0
1053.0
1054.0
1054.0
1053.0
1053.0
1050.0
1051.0
1053.0
1054.0
1053.0
1055.0
1054.0
1055.0
1061.0
1065.0
1068.0
1074.0
1076.0
1076.0
1074.0
1068.0
1057.0
1043.0
1024.0
1006.0
993.0
978.0
956.0
925.0
892.0
860.0
833.0
819.0
809.0
806.0
806.0
807.0
817.0
828.0
838.0
852.0
866.0
879.0
893.0
910.0
916.0
927.0
935.0
945.0
958.0
969.0
975.0
978.0
986.0
994.0
1000.0
1007.0
1011.0
1016.0
1020.0
1026.0
1031.0
1038.0
1043.0
1049.0
1053.0
1058.0
1065.0
1071.0
1073.0
1073.0
1077.0
1083.0
1085.0
1090.0
1089.0
1089.0
1089.0
1090.0
1093.0
1093.0
1093.0
1092.0
1090.0
1091.0
1094.0
1098.0
1096.0
1093.0
1094.0
1095.0
1099.0
1100.0
1099.0
1100.0
1100.0
1100.0
1103.0
1106.0
1103.0
1103.0
1103.0
1102.0
1102.0
1106.0
1106.0
1106.0
1107.0
1106.0
1110.0
1111.0
1111.0
1110.0
1110.0
1111.0
1110.0
1114.0
1114.0
1110.0
1110.0
1109.0
1109.0
1112.0
1113.0
1111.0
1107.0
1109.0
1108.0
1107.0
1109.0
1106.0
1103.0
1101.0
1102.0
1105.0
1102.0
1101.0
1099.0
1096.0
1100.0
1099.0
1098.0
1094.0
1093.0
1090.0
1092.0
1091.0
1089.0
1088.0
1082.0
1083.0
1084.0
1082.0
1082.0
1077.0
1075.0
1075.0
1075.0
1073.0
1073.0
1068.0
1066.0
1065.0
1064.0
1066.0
1065.0
1064.0
1059.0
1060.0
1060.0
1061.0
1059.0
1055.0
1055.0
1057.0
1058.0
1058.0
1056.0
1056.0
1056.0
1056.0
1059.0
1059.0
1060.0
1057.0
1059.0
1059.0
1064.0
1068.0
1068.0
1065.0
1065.0
1065.0
1064.0
1065.0
1064.0
1061.0
1062.0
1060.0
1061.0
1064.0
1061.0
1059.0
1062.0
1060.0
1063.0
1064.0
1063.0
1063.0
1059.0
1059.0
1061.0
1065.0
1061.0
1060.0
1059.0
1061.0
1062.0
1065.0
1063.0
1063.0
1063.0
1060.0
1064.0
1065.0
1066.0
1066.0
1064.0
1063.0
1065.0
1066.0
1064.0
1061.0
1061.0
1061.0
1063.0
1062.0
1061.0
1059.0
1059.0
1056.0
1061.0
1064.0
1061.0
1059.0
1059.0
1057.0
1059.0
1061.0
1059.0
1059.0
1059.0
1056.0
1060.0
1060.0
1059.0
1057.0
1057.0
1057.0
1061.0
1060.0
1059.0
1057.0
1057.0
1058.0
1057.0
1063.0
1057.0
1056.0
1056.0
1057.0
1058.0
1061.0
1061.0
1062.0
1062.0
1062.0
1072.0
1075.0
1079.0
1080.0
1080.0
1077.0
1070.0
1063.0
1049.0
1034.0
1015.0
999.0
985.0
968.0
940.0
904.0
867.0
837.0
819.0
816.0
813.0
812.0
811.0
823.0
834.0
851.0
863.0
877.0
888.0
900.0
914.0
928.0
938.0
947.0
956.0
965.0
977.0
983.0
991.0
997.0
1002.0
1009.0
1015.0
1020.0
1025.0
1030.0
1034.0
1040.0
1050.0
1055.0
1058.0
1062.0
1068.0
1067.0
1076.0
1082.0
1084.0
1085.0
1085.0
1087.0
1092.0
1094.0
1095.0
1094.0
1092.0
1092.0
1095.0
1098.0
1095.0
1096.0
1094.0
1096.0
1098.0
1101.0
1099.0
1097.0
1098.0
1099.0
1099.0
1103.0
1103.0
1104.0
1101.0
1102.0
1105.0
1108.0
1106.0
1104.0
1106.0
1105.0
1107.0
1112.0
1109.0
1110.0
1109.0
1111.0
1111.0
1113.0
1113.0
1113.0
1109.0
1111.0
1113.0
1115.0
1116.0
1114.0
1110.0
1110.0
1112.0
1113.0
1111.0
1111.0
1109.0
1107.0
1109.0
1109.0
1108.0
1105.0
1103.0
1102.0
1104.0
1105.0
1101.0
1101.0
1096.0
1097.0
1099.0
1099.0
1097.0
1095.0
1092.0
1091.0
1089.0
1092.0
1089.0
1088.0
1084.0
1083.0
1082.0
1083.0
1078.0
1079.0
1075.0
1073.0
1074.0
1075.0
1072.0
1069.0
1067.0
1065.0
1067.0
1068.0
1066.0
1062.0
1062.0
1061.0
1063.0
1061.0
1063.0
1059.0
1058.0
1058.0
1059.0
1063.0
1060.0
1059.0
1058.0
1057.0
1058.0
1062.0
1060.0
1060.0
1059.0
1059.0
1062.0
1065.0
1066.0
1066.0
1064.0
1067.0
1068.0
1071.0
1068.0
1065.0
1064.0
1063.0
1066.0
1065.0
1062.0
1061.0
1061.0
1059.0
1064.0
1067.0
1065.0
1067.0
1063.0
1065.0
1067.0
1068.0
1065.0
1064.0
1060.0
1062.0
1065.0
1066.0
1066.0
1064.0
1062.0
1061.0
1067.0
1065.0
1065.0
1065.0
1064.0
1065.0
1066.0
1068.0
1067.0
1064.0
1063.0
1062.0
1064.0
1066.0
1063.0
1063.0
1062.0
1062.0
1064.0
1065.0
1064.0
1064.0
1059.0
1058.0
1063.0
1064.0
1062.0
1062.0
1058.0
1057.0
1060.0
1064.0
1061.0
1060.0
1058.0
1058.0
1058.0
1063.0
1059.0
1059.0
1058.0
1059.0
1060.0
1061.0
1060.0
1057.0
1058.0
1058.0
1060.0
1062.0
1060.0
1059.0
1057.0
1057.0
1059.0
1061.0
1061.0
1059.0
1059.0
1059.0
1063.0
1069.0
1068.0
1070.0
1075.0
1078.0
1084.0
1085.0
1076.0
1065.0
1051.0
1039.0
1021.0
1005.0
989.0
973.0
947.0
916.0
883.0
855.0
827.0
809.0
802.0
803.0
804.0
813.0
819.0
827.0
839.0
853.0
871.0
886.0
899.0
911.0
922.0
931.0
944.0
955.0
961.0
966.0
973.0
981.0
989.0
999.0
1004.0
1007.0
1008.0
1015.0
1022.0
1028.0
1031.0
1037.0
1042.0
1048.0
1056.0
1061.0
1064.0
1068.0
1071.0
1076.0
1081.0
1088.0
1089.0
1090.0
1090.0
1092.0
1096.0
1098.0
1094.0
1095.0
1093.0
1094.0
1097.0
1098.0
1097.0
1099.0
1096.0
1097.0
1098.0
1101.0
1102.0
1100.0
1099.0
1100.0
1102.0
1105.0
1104.0
1102.0
1103.0
1103.0
1106.0
1110.0
1110.0
1110.0
1106.0
1107.0
1109.0
1110.0
1110.0
1110.0
1111.0
1109.0
1111.0
1114.0
1113.0
1112.0
1110.0
1111.0
1111.0
1113.0
1111.0
1113.0
1109.0
1108.0
1111.0
1111.0
1112.0
1108.0
1106.0
1104.0
1107.0
1110.0
1105.0
1107.0
1104.0
1100.0
1101.0
1102.0
1103.0
1097.0
1096.0
1095.0
1098.0
1096.0
1095.0
1092.0
1091.0
1091.0
1091.0
1090.0
1089.0
1084.0
1084.0
1082.0
1083.0
1083.0
1078.0
1078.0
1075.0
1073.0
1075.0
1076.0
1073.0
1071.0
1066.0
1065.0
1065.0
1066.0
1065.0
1062.0
1059.0
1060.0
1058.0
1062.0
1059.0
1056.0
1056.0
1054.0
1055.0
1057.0
1055.0
1055.0
1051.0
1055.0
1055.0
1057.0
1058.0
1056.0
1055.0
1054.0
1057.0
1058.0
1058.0
1055.0
1056.0
1056.0
1059.0
1062.0
