# Simple Text Format
# Sampling Rate (Hz):= 360.00
# Resolution:= 12
# Labels:= ECG
985.0
985.0
982.0
981.0
980.0
986.0
986.0
984.0
984.0
982.0
983.0
982.0
986.0
988.0
988.0
984.0
986.0
994.0
999.0
996.0
994.0
993.0
997.0
1000.0
1004.0
1002.0
998.0
999.0
1001.0
1005.0
1008.0
1006.0
1001.0
995.0
997.0
999.0
1003.0
1004.0
1001.0
1001.0
1000.0
997.0
1000.0
998.0
996.0
993.0
991.0
991.0
988.0
988.0
983.0
982.0
986.0
990.0
994.0
991.0
988.0
982.0
985.0
987.0
990.0
991.0
988.0
984.0
986.0
987.0
992.0
987.0
988.0
990.0
988.0
988.0
992.0
989.0
990.0
989.0
992.0
1000.0
1020.0
1036.0
1057.0
1075.0
1092.0
1118.0
1141.0
1166.0
1195.0
1232.0
1271.0
1307.0
1342.0
1370.0
1393.0
1409.0
1424.0
1430.0
1427.0
1408.0
1365.0
1300.0
1235.0
1185.0
1157.0
1137.0
1125.0
1114.0
1112.0
1108.0
1102.0
1092.0
1079.0
1068.0
1062.0
1060.0
1057.0
1052.0
1041.0
1030.0
1024.0
1018.0
1013.0
1004.0
996.0
991.0
981.0
980.0
974.0
969.0
962.0
957.0
952.0
955.0
958.0
955.0
951.0
947.0
943.0
948.0
950.0
949.0
942.0
940.0
938.0
941.0
943.0
942.0
941.0
939.0
939.0
939.0
939.0
935.0
934.0
929.0
934.0
936.0
935.0
931.0
931.0
928.0
928.0
929.0
931.0
925.0
923.0
919.0
920.0
920.0
924.0
919.0
913.0
911.0
911.0
910.0
912.0
910.0
907.0
904.0
902.0
900.0
902.0
897.0
895.0
895.0
894.0
892.0
894.0
891.0
883.0
889.0
890.0
894.0
899.0
900.0
897.0
898.0
904.0
910.0
915.0
919.0
921.0
924.0
930.0
940.0
947.0
953.0
952.0
957.0
961.0
969.0
974.0
978.0
979.0
981.0
983.0
990.0
994.0
996.0
996.0
994.0
995.0
997.0
996.0
999.0
998.0
1002.0
997.0
1001.0
1000.0
997.0
995.0
992.0
993.0
997.0
997.0
998.0
993.0
991.0
990.0
994.0
995.0
992.0
988.0
987.0
988.0
991.0
995.0
990.0
991.0
985.0
986.0
989.0
993.0
992.0
992.0
990.0
987.0
988.0
992.0
992.0
992.0
993.0
995.0
992.0
991.0
990.0
990.0
988.0
991.0
990.0
993.0
992.0
990.0
986.0
992.0
994.0
994.0
990.0
991.0
988.0
988.0
989.0
995.0
992.0
988.0
986.0
985.0
989.0
993.0
995.0
992.0
990.0
993.0
994.0
996.0
996.0
997.0
998.0
998.0
1000.0
1001.0
1002.0
1000.0
1000.0
1001.0
1003.0
1005.0
1005.0
1005.0
1008.0
1008.0
1010.0
1009.0
1006.0
1003.0
998.0
1001.0
1005.0
1010.0
1007.0
998.0
993.0
995.0
998.0
1001.0
1000.0
995.0
986.0
982.0
983.0
988.0
991.0
986.0
984.0
986.0
988.0
988.0
987.0
979.0
980.0
980.0
982.0
984.0
984.0
986.0
984.0
985.0
983.0
986.0
988.0
984.0
985.0
985.0
987.0
991.0
988.0
987.0
991.0
1014.0
1041.0
1066.0
1084.0
1099.0
1115.0
1137.0
1160.0
1193.0
1228.0
1266.0
1308.0
1347.0
1380.0
1400.0
1398.0
1376.0
1337.0
1280.0
1218.0
1163.0
1123.0
1101.0
1085.0
1079.0
1079.0
1087.0
1083.0
1074.0
1065.0
1058.0
1050.0
1048.0
1039.0
1028.0
1022.0
1016.0
1014.0
1010.0
1002.0
993.0
984.0
982.0
977.0
973.0
967.0
958.0
951.0
951.0
949.0
952.0
950.0
946.0
943.0
941.0
942.0
949.0
945.0
938.0
936.0
937.0
939.0
942.0
940.0
938.0
934.0
934.0
938.0
940.0
940.0
936.0
933.0
929.0
933.0
933.0
932.0
929.0
925.0
927.0
927.0
927.0
925.0
920.0
921.0
919.0
918.0
917.0
915.0
911.0
909.0
908.0
908.0
909.0
906.0
902.0
896.0
898.0
902.0
901.0
900.0
896.0
890.0
892.0
896.0
901.0
898.0
898.0
894.0
897.0
899.0
904.0
907.0
908.0
911.0
915.0
917.0
922.0
924.0
926.0
929.0
939.0
944.0
955.0
960.0
962.0
961.0
964.0
968.0
970.0
973.0
973.0
974.0
978.0
979.0
982.0
981.0
977.0
972.0
976.0
982.0
983.0
984.0
979.0
976.0
980.0
982.0
985.0
982.0
980.0
976.0
974.0
979.0
979.0
979.0
975.0
973.0
974.0
979.0
982.0
982.0
976.0
972.0
973.0
978.0
986.0
984.0
979.0
977.0
975.0
981.0
982.0
984.0
982.0
979.0
978.0
981.0
983.0
982.0
980.0
975.0
976.0
977.0
982.0
983.0
982.0
981.0
978.0
979.0
981.0
984.0
983.0
979.0
979.0
981.0
981.0
983.0
982.0
982.0
984.0
982.0
984.0
985.0
986.0
990.0
992.0
995.0
995.0
998.0
993.0
993.0
996.0
998.0
1000.0
998.0
995.0
997.0
997.0
1004.0
1005.0
1001.0
1000.0
997.0
999.0
1001.0
1003.0
998.0
994.0
989.0
987.0
989.0
992.0
988.0
983.0
980.0
980.0
981.0
984.0
985.0
983.0
981.0
980.0
980.0
983.0
982.0
983.0
980.0
979.0
979.0
982.0
982.0
979.0
977.0
981.0
983.0
986.0
986.0
983.0
986.0
989.0
1007.0
1032.0
1054.0
1075.0
1093.0
1110.0
1130.0
1153.0
1176.0
1212.0
1253.0
1299.0
1348.0
1392.0
1414.0
1418.0
1409.0
1380.0
1330.0
1259.0
1186.0
1127.0
1093.0
1076.0
1072.0
1073.0
1074.0
1073.0
1065.0
1063.0
1058.0
1051.0
1041.0
1033.0
1027.0
1021.0
1020.0
1013.0
1003.0
993.0
984.0
978.0
978.0
975.0
969.0
959.0
952.0
949.0
948.0
948.0
947.0
944.0
939.0
938.0
939.0
943.0
942.0
937.0
933.0
931.0
934.0
935.0
933.0
932.0
933.0
933.0
932.0
934.0
930.0
928.0
928.0
928.0
928.0
932.0
926.0
922.0
919.0
920.0
922.0
925.0
921.0
918.0
912.0
915.0
915.0
916.0
912.0
904.0
899.0
902.0
903.0
902.0
900.0
899.0
894.0
893.0
892.0
894.0
893.0
889.0
885.0
886.0
887.0
892.0
892.0
895.0
893.0
896.0
897.0
904.0
905.0
905.0
908.0
913.0
919.0
925.0
931.0
930.0
936.0
944.0
952.0
958.0
957.0
963.0
963.0
968.0
975.0
981.0
978.0
977.0
974.0
974.0
979.0
985.0
986.0
981.0
977.0
978.0
982.0
984.0
985.0
982.0
977.0
978.0
981.0
985.0
984.0
983.0
980.0
980.0
980.0
978.0
979.0
979.0
977.0
976.0
976.0
977.0
977.0
978.0
977.0
973.0
978.0
978.0
981.0
977.0
977.0
978.0
980.0
982.0
976.0
974.0
972.0
974.0
980.0
983.0
981.0
976.0
974.0
977.0
982.0
984.0
981.0
980.0
973.0
974.0
977.0
979.0
981.0
977.0
974.0
976.0
975.0
982.0
980.0
978.0
977.0
974.0
976.0
979.0
981.0
979.0
976.0
978.0
983.0
986.0
989.0
988.0
990.0
993.0
996.0
997.0
998.0
994.0
993.0
995.0
997.0
1002.0
999.0
997.0
991.0
995.0
998.0
999.0
996.0
994.0
989.0
988.0
989.0
992.0
989.0
986.0
980.0
975.0
979.0
982.0
982.0
978.0
972.0
972.0
977.0
981.0
982.0
976.0
970.0
969.0
975.0
978.0
978.0
977.0
973.0
974.0
977.0
981.0
975.0
976.0
979.0
980.0
982.0
981.0
979.0
977.0
986.0
1008.0
1032.0
1058.0
1078.0
1094.0
1112.0
1133.0
1155.0
1182.0
1211.0
1253.0
1294.0
1341.0
1382.0
1410.0
1416.0
1404.0
1370.0
1317.0
1249.0
1192.0
1150.0
1121.0
1105.0
1099.0
1098.0
1096.0
1087.0
1079.0
1069.0
1060.0
1053.0
1043.0
1036.0
1027.0
1018.0
1005.0
1000.0
994.0
984.0
974.0
963.0
962.0
961.0
959.0
953.0
946.0
933.0
937.0
940.0
939.0
936.0
932.0
930.0
927.0
931.0
934.0
931.0
926.0
923.0
923.0
925.0
927.0
928.0
924.0
921.0
923.0
921.0
922.0
922.0
919.0
915.0
915.0
915.0
917.0
914.0
911.0
907.0
902.0
906.0
908.0
909.0
903.0
897.0
897.0
900.0
900.0
898.0
892.0
888.0
883.0
883.0
886.0
884.0
879.0
874.0
873.0
872.0
876.0
876.0
876.0
872.0
871.0
875.0
875.0
875.0
873.0
875.0
880.0
883.0
886.0
890.0
891.0
896.0
901.0
907.0
910.0
913.0
913.0
915.0
921.0
927.0
935.0
941.0
940.0
944.0
949.0
955.0
960.0
961.0
962.0
962.0
966.0
968.0
970.0
970.0
967.0
962.0
964.0
969.0
976.0
975.0
972.0
969.0
970.0
972.0
975.0
975.0
974.0
972.0
967.0
972.0
972.0
972.0
971.0
968.0
968.0
968.0
974.0
973.0
968.0
968.0
970.0
970.0
971.0
970.0
965.0
964.0
966.0
972.0
973.0
970.0
968.0
961.0
962.0
967.0
972.0
969.0
965.0
963.0
960.0
964.0
968.0
969.0
967.0
967.0
966.0
965.0
966.0
967.0
966.0
967.0
967.0
965.0
969.0
966.0
966.0
965.0
966.0
970.0
969.0
969.0
969.0
964.0
967.0
970.0
971.0
971.0
970.0
966.0
968.0
968.0
975.0
976.0
979.0
976.0
976.0
979.0
980.0
980.0
977.0
981.0
981.0
984.0
985.0
987.0
987.0
987.0
989.0
991.0
991.0
990.0
987.0
987.0
988.0
991.0
992.0
989.0
984.0
980.0
981.0
986.0
986.0
981.0
974.0
971.0
967.0
970.0
973.0
974.0
975.0
974.0
977.0
976.0
976.0
973.0
970.0
968.0
970.0
974.0
976.0
974.0
974.0
971.0
971.0
971.0
975.0
977.0
974.0
975.0
977.0
977.0
981.0
992.0
1011.0
1036.0
1066.0
1087.0
1113.0
1136.0
1163.0
1202.0
1244.0
1280.0
1312.0
1336.0
1362.0
1389.0
1409.0
1414.0
1399.0
1357.0
1291.0
1212.0
1142.0
1099.0
1087.0
1082.0
1078.0
1070.0
1061.0
1054.0
1049.0
1043.0
1036.0
1027.0
1020.0
1016.0
1015.0
1006.0
995.0
987.0
973.0
970.0
966.0
957.0
952.0
944.0
939.0
938.0
938.0
935.0
931.0
933.0
930.0
936.0
939.0
935.0
932.0
927.0
927.0
929.0
933.0
933.0
928.0
923.0
922.0
922.0
928.0
927.0
924.0
922.0
922.0
924.0
923.0
920.0
917.0
914.0
917.0
914.0
915.0
913.0
907.0
902.0
906.0
907.0
905.0
904.0
898.0
892.0
893.0
897.0
899.0
898.0
891.0
886.0
887.0
886.0
887.0
889.0
885.0
880.0
878.0
881.0
885.0
883.0
882.0
880.0
881.0
883.0
890.0
892.0
892.0
893.0
899.0
903.0
909.0
913.0
914.0
920.0
928.0
936.0
942.0
944.0
943.0
948.0
951.0
961.0
965.0
966.0
965.0
964.0
965.0
969.0
975.0
975.0
973.0
970.0
970.0
974.0
977.0
977.0
974.0
973.0
973.0
970.0
975.0
976.0
974.0
972.0
975.0
975.0
979.0
976.0
972.0
970.0
968.0
976.0
977.0
975.0
970.0
968.0
971.0
971.0
975.0
975.0
972.0
970.0
969.0
970.0
973.0
972.0
970.0
968.0
967.0
970.0
971.0
968.0
966.0
968.0
971.0
969.0
970.0
969.0
968.0
969.0
971.0
973.0
975.0
975.0
970.0
969.0
969.0
971.0
975.0
977.0
976.0
971.0
972.0
974.0
978.0
978.0
978.0
974.0
976.0
978.0
978.0
977.0
973.0
973.0
975.0
978.0
979.0
979.0
975.0
976.0
979.0
986.0
989.0
987.0
986.0
983.0
984.0
986.0
989.0
991.0
986.0
985.0
984.0
988.0
990.0
990.0
990.0
987.0
987.0
989.0
989.0
986.0
987.0
984.0
984.0
985.0
986.0
986.0
982.0
975.0
974.0
976.0
976.0
975.0
971.0
965.0
966.0
970.0
974.0
976.0
971.0
966.0
965.0
967.0
969.0
969.0
970.0
970.0
967.0
970.0
973.0
971.0
969.0
969.0
969.0
974.0
975.0
976.0
971.0
971.0
978.0
995.0
1017.0
1033.0
1048.0
1058.0
1071.0
1091.0
1119.0
1148.0
1179.0
1212.0
1258.0
1306.0
1353.0
1391.0
1410.0
1413.0
1400.0
1365.0
1303.0
1233.0
1169.0
1129.0
1107.0
1091.0
1083.0
1072.0
1065.0
1063.0
1057.0
1054.0
1045.0
1036.0
1025.0
1016.0
1009.0
1006.0
1000.0
992.0
981.0
971.0
966.0
963.0
964.0
957.0
949.0
943.0
936.0
938.0
938.0
934.0
931.0
927.0
927.0
928.0
933.0
932.0
926.0
922.0
924.0
926.0
926.0
927.0
924.0
921.0
921.0
921.0
922.0
917.0
916.0
911.0
915.0
915.0
917.0
914.0
912.0
906.0
908.0
912.0
913.0
911.0
906.0
901.0
900.0
899.0
901.0
899.0
897.0
893.0
890.0
892.0
896.0
891.0
888.0
884.0
882.0
884.0
887.0
884.0
883.0
882.0
883.0
882.0
888.0
883.0
882.0
881.0
886.0
892.0
897.0
899.0
898.0
899.0
903.0
911.0
917.0
920.0
921.0
924.0
932.0
939.0
947.0
949.0
952.0
951.0
953.0
960.0
967.0
967.0
966.0
964.0
966.0
967.0
970.0
968.0
968.0
968.0
967.0
970.0
972.0
971.0
971.0
968.0
969.0
970.0
971.0
969.0
968.0
967.0
969.0
971.0
973.0
968.0
964.0
963.0
962.0
965.0
969.0
970.0
965.0
962.0
959.0
963.0
966.0
965.0
961.0
959.0
959.0
962.0
963.0
964.0
963.0
961.0
964.0
965.0
966.0
963.0
957.0
959.0
961.0
963.0
966.0
965.0
962.0
961.0
962.0
965.0
971.0
971.0
969.0
963.0
961.0
962.0
967.0
968.0
968.0
964.0
964.0
967.0
969.0
969.0
967.0
962.0
964.0
965.0
968.0
969.0
968.0
966.0
968.0
971.0
974.0
972.0
968.0
971.0
973.0
977.0
980.0
984.0
982.0
980.0
981.0
982.0
983.0
981.0
981.0
980.0
981.0
984.0
985.0
985.0
983.0
979.0
978.0
981.0
982.0
982.0
980.0
977.0
976.0
977.0
976.0
973.0
970.0
963.0
965.0
968.0
971.0
971.0
965.0
959.0
959.0
960.0
965.0
966.0
967.0
964.0
962.0
960.0
962.0
963.0
960.0
958.0
960.0
962.0
964.0
962.0
961.0
959.0
964.0
965.0
969.0
970.0
968.0
964.0
965.0
970.0
979.0
994.0
1014.0
1034.0
1056.0
1078.0
1098.0
1121.0
1135.0
1151.0
1170.0
1196.0
1221.0
1250.0
1292.0
1330.0
1365.0
1392.0
1401.0
1394.0
1371.0
1329.0
1268.0
1213.0
1164.0
1129.0
1104.0
1087.0
1080.0
1074.0
1075.0
1069.0
1061.0
1055.0
1049.0
1041.0
1034.0
1025.0
1015.0
1007.0
1004.0
1000.0
997.0
985.0
973.0
962.0
957.0
954.0
952.0
947.0
940.0
931.0
931.0
931.0
932.0
930.0
923.0
919.0
919.0
922.0
925.0
923.0
920.0
920.0
916.0
920.0
921.0
919.0
912.0
914.0
914.0
914.0
918.0
916.0
911.0
910.0
905.0
909.0
913.0
913.0
910.0
902.0
901.0
901.0
901.0
903.0
901.0
900.0
898.0
895.0
894.0
891.0
887.0
882.0
886.0
887.0
888.0
885.0
881.0
878.0
874.0
876.0
880.0
878.0
872.0
870.0
867.0
864.0
865.0
866.0
868.0
867.0
868.0
866.0
866.0
866.0
865.0
868.0
867.0
872.0
877.0
880.0
882.0
881.0
885.0
889.0
897.0
901.0
907.0
911.0
915.0
915.0
926.0
930.0
929.0
931.0
937.0
942.0
948.0
946.0
946.0
945.0
950.0
955.0
960.0
962.0
963.0
957.0
956.0
961.0
965.0
966.0
967.0
963.0
961.0
965.0
967.0
969.0
964.0
965.0
964.0
966.0
968.0
969.0
964.0
959.0
960.0
963.0
966.0
967.0
966.0
962.0
960.0
964.0
964.0
963.0
963.0
961.0
961.0
967.0
969.0
964.0
959.0
959.0
959.0
963.0
964.0
964.0
962.0
960.0
954.0
957.0
960.0
961.0
960.0
955.0
956.0
956.0
958.0
958.0
955.0
954.0
959.0
962.0
963.0
960.0
958.0
955.0
957.0
960.0
966.0
966.0
963.0
958.0
952.0
958.0
961.0
964.0
963.0
962.0
962.0
965.0
969.0
968.0
962.0
958.0
959.0
963.0
968.0
968.0
966.0
961.0
962.0
963.0
965.0
967.0
964.0
965.0
967.0
973.0
977.0
979.0
979.0
976.0
978.0
982.0
981.0
980.0
973.0
973.0
974.0
977.0
980.0
981.0
983.0
983.0
980.0
981.0
984.0
982.0
981.0
977.0
980.0
982.0
985.0
984.0
982.0
981.0
975.0
980.0
979.0
978.0
974.0
969.0
972.0
969.0
970.0
970.0
969.0
966.0
960.0
963.0
966.0
966.0
969.0
967.0
969.0
971.0
970.0
968.0
966.0
963.0
964.0
968.0
970.0
969.0
969.0
966.0
967.0
968.0
969.0
971.0
971.0
967.0
970.0
975.0
975.0
975.0
972.0
967.0
965.0
965.0
968.0
972.0
981.0
994.0
1017.0
1037.0
1057.0
1074.0
1088.0
1104.0
1123.0
1149.0
1177.0
1204.0
1235.0
1266.0
1299.0
1334.0
1368.0
1393.0
1409.0
1420.0
1422.0
1425.0
1422.0
1411.0
1391.0
1352.0
1298.0
1235.0
1174.0
1133.0
1103.0
1082.0
1070.0
1066.0
1063.0
1055.0
1051.0
1043.0
1038.0
1035.0
1032.0
1024.0
1016.0
1008.0
1002.0
1004.0
1004.0
1003.0
999.0
995.0
988.0
987.0
983.0
976.0
966.0
958.0
953.0
954.0
950.0
946.0
941.0
933.0
929.0
928.0
933.0
932.0
929.0
929.0
928.0
932.0
936.0
934.0
928.0
925.0
924.0
925.0
925.0
925.0
922.0
918.0
922.0
923.0
927.0
925.0
921.0
916.0
917.0
920.0
923.0
923.0
918.0
915.0
915.0
917.0
919.0
917.0
915.0
912.0
910.0
913.0
917.0
916.0
913.0
909.0
906.0
908.0
910.0
910.0
909.0
903.0
903.0
901.0
904.0
900.0
898.0
895.0
892.0
897.0
897.0
895.0
895.0
893.0
892.0
893.0
893.0
889.0
882.0
881.0
884.0
884.0
885.0
884.0
881.0
879.0
878.0
879.0
883.0
882.0
881.0
878.0
878.0
882.0
884.0
885.0
883.0
882.0
886.0
887.0
895.0
895.0
895.0
897.0
902.0
907.0
913.0
914.0
918.0
919.0
921.0
928.0
932.0
933.0
938.0
939.0
946.0
953.0
957.0
958.0
957.0
958.0
956.0
959.0
963.0
961.0
965.0
963.0
965.0
967.0
973.0
971.0
968.0
968.0
967.0
972.0
973.0
973.0
967.0
965.0
967.0
967.0
972.0
973.0
970.0
967.0
964.0
967.0
970.0
971.0
967.0
966.0
965.0
967.0
967.0
966.0
965.0
966.0
968.0
969.0
970.0
974.0
967.0
964.0
960.0
963.0
970.0
968.0
968.0
962.0
960.0
968.0
971.0
971.0
968.0
963.0
963.0
966.0
970.0
969.0
968.0
965.0
966.0
969.0
971.0
969.0
965.0
964.0
967.0
967.0
972.0
971.0
966.0
963.0
961.0
969.0
975.0
973.0
972.0
967.0
967.0
967.0
970.0
967.0
966.0
962.0
967.0
966.0
969.0
970.0
969.0
967.0
969.0
976.0
977.0
977.0
979.0
977.0
977.0
984.0
982.0
984.0
983.0
980.0
978.0
982.0
986.0
991.0
987.0
985.0
981.0
981.0
985.0
986.0
983.0
982.0
982.0
980.0
982.0
978.0
975.0
975.0
975.0
977.0
979.0
972.0
967.0
962.0
959.0
963.0
970.0
969.0
967.0
961.0
961.0
967.0
967.0
965.0
964.0
962.0
962.0
964.0
965.0
965.0
963.0
963.0
962.0
968.0
968.0
967.0
966.0
964.0
964.0
966.0
969.0
966.0
963.0
961.0
970.0
985.0
1010.0
1033.0
1049.0
1064.0
1084.0
1107.0
1136.0
1171.0
1206.0
1244.0
1284.0
1333.0
1375.0
1406.0
1418.0
1424.0
1418.0
1402.0
1373.0
1311.0
1230.0
1155.0
1109.0
1089.0
1077.0
1072.0
1062.0
1054.0
1048.0
1043.0
1040.0
1031.0
1021.0
1011.0
1007.0
1002.0
1002.0
996.0
988.0
980.0
975.0
971.0
966.0
959.0
951.0
944.0
941.0
941.0
940.0
937.0
933.0
925.0
925.0
928.0
932.0
931.0
929.0
928.0
926.0
927.0
927.0
928.0
927.0
923.0
922.0
924.0
925.0
921.0
921.0
918.0
918.0
921.0
920.0
914.0
907.0
906.0
907.0
910.0
915.0
915.0
909.0
903.0
906.0
905.0
907.0
907.0
903.0
903.0
899.0
897.0
897.0
892.0
890.0
891.0
895.0
897.0
896.0
889.0
880.0
881.0
880.0
879.0
881.0
879.0
876.0
876.0
875.0
875.0
878.0
882.0
880.0
878.0
879.0
883.0
894.0
898.0
896.0
899.0
900.0
905.0
914.0
918.0
920.0
924.0
925.0
933.0
943.0
946.0
948.0
947.0
951.0
953.0
957.0
959.0
957.0
957.0
959.0
962.0
965.0
961.0
959.0
955.0
958.0
964.0
966.0
965.0
958.0
959.0
958.0
960.0
965.0
963.0
960.0
957.0
956.0
961.0
963.0
961.0
957.0
955.0
951.0
955.0
958.0
960.0
957.0
955.0
953.0
954.0
957.0
954.0
952.0
950.0
947.0
950.0
954.0
958.0
954.0
954.0
953.0
954.0
957.0
954.0
954.0
956.0
952.0
955.0
956.0
955.0
957.0
955.0
958.0
958.0
961.0
959.0
956.0
955.0
954.0
958.0
962.0
960.0
957.0
955.0
957.0
961.0
963.0
964.0
961.0
957.0
957.0
957.0
962.0
963.0
961.0
960.0
960.0
965.0
970.0
974.0
972.0
969.0
967.0
969.0
974.0
974.0
975.0
971.0
971.0
974.0
973.0
978.0
973.0
970.0
971.0
974.0
977.0
976.0
973.0
970.0
968.0
967.0
971.0
967.0
959.0
956.0
953.0
955.0
957.0
959.0
957.0
959.0
956.0
955.0
955.0
955.0
956.0
956.0
959.0
960.0
961.0
959.0
956.0
956.0
956.0
961.0
964.0
963.0
959.0
957.0
961.0
976.0
1001.0
1021.0
1034.0
1045.0
1058.0
1080.0
1110.0
1141.0
1174.0
1215.0
1257.0
1306.0
1351.0
1380.0
1392.0
1380.0
1349.0
1291.0
1220.0
1162.0
1120.0
1096.0
1076.0
1063.0
1056.0
1052.0
1046.0
1037.0
1025.0
1016.0
1011.0
1004.0
995.0
990.0
982.0
974.0
971.0
962.0
956.0
950.0
940.0
938.0
936.0
931.0
922.0
921.0
920.0
922.0
925.0
919.0
915.0
915.0
913.0
917.0
918.0
914.0
912.0
910.0
907.0
911.0
914.0
911.0
907.0
906.0
904.0
904.0
908.0
906.0
905.0
900.0
899.0
898.0
901.0
898.0
896.0
895.0
893.0
893.0
895.0
894.0
889.0
888.0
887.0
887.0
885.0
882.0
878.0
873.0
874.0
876.0
879.0
876.0
870.0
864.0
867.0
869.0
871.0
873.0
868.0
866.0
866.0
873.0
878.0
880.0
879.0
877.0
881.0
887.0
894.0
900.0
899.0
903.0
905.0
915.0
919.0
927.0
932.0
935.0
937.0
939.0
944.0
948.0
948.0
948.0
950.0
949.0
952.0
952.0
952.0
953.0
954.0
957.0
959.0
957.0
955.0
952.0
952.0
955.0
959.0
955.0
951.0
950.0
953.0
955.0
960.0
958.0
954.0
949.0
948.0
948.0
956.0
954.0
950.0
948.0
944.0
951.0
955.0
952.0
950.0
946.0
945.0
952.0
955.0
950.0
948.0
947.0
945.0
948.0
953.0
951.0
950.0
949.0
948.0
950.0
953.0
952.0
955.0
954.0
953.0
953.0
954.0
953.0
954.0
953.0
949.0
947.0
952.0
955.0
953.0
953.0
952.0
953.0
955.0
953.0
950.0
951.0
949.0
953.0
959.0
959.0
957.0
958.0
961.0
965.0
968.0
969.0
966.0
966.0
967.0
970.0
975.0
972.0
971.0
970.0
973.0
976.0
978.0
975.0
971.0
968.0
968.0
971.0
973.0
973.0
969.0
963.0
962.0
963.0
963.0
966.0
964.0
960.0
954.0
954.0
953.0
955.0
960.0
957.0
954.0
954.0
952.0
954.0
954.0
954.0
953.0
954.0
957.0
954.0
952.0
951.0
951.0
954.0
960.0
959.0
956.0
955.0
956.0
962.0
976.0
997.0
1018.0
1038.0
1056.0
1078.0
1094.0
1116.0
1134.0
1163.0
1199.0
1247.0
1297.0
1340.0
1369.0
1386.0
1386.0
1372.0
1335.0
1271.0
1192.0
1129.0
1092.0
1073.0
1060.0
1054.0
1052.0
1046.0
1049.0
1043.0
1042.0
1029.0
1020.0
1011.0
1005.0
1005.0
1001.0
992.0
981.0
972.0
968.0
962.0
960.0
955.0
949.0
938.0
933.0
931.0
929.0
928.0
927.0
924.0
922.0
924.0
926.0
923.0
922.0
919.0
918.0
918.0
920.0
920.0
917.0
915.0
914.0
918.0
918.0
918.0
913.0
908.0
911.0
911.0
914.0
912.0
906.0
904.0
902.0
905.0
906.0
908.0
903.0
899.0
895.0
896.0
898.0
898.0
896.0
891.0
888.0
888.0
888.0
885.0
885.0
880.0
877.0
880.0
878.0
880.0
876.0
873.0
871.0
875.0
875.0
875.0
874.0
874.0
872.0
877.0
882.0
885.0
884.0
885.0
887.0
891.0
901.0
904.0
909.0
908.0
912.0
921.0
932.0
933.0
939.0
939.0
941.0
947.0
954.0
960.0
960.0
958.0
957.0
960.0
962.0
962.0
962.0
960.0
962.0
961.0
964.0
965.0
965.0
962.0
961.0
962.0
963.0
963.0
959.0
957.0
959.0
962.0
963.0
961.0
959.0
956.0
956.0
957.0
963.0
961.0
953.0
954.0
953.0
956.0
960.0
961.0
958.0
953.0
952.0
954.0
959.0
960.0
959.0
955.0
954.0
956.0
958.0
961.0
959.0
958.0
954.0
956.0
958.0
960.0
960.0
961.0
958.0
959.0
963.0
962.0
958.0
958.0
956.0
959.0
962.0
962.0
958.0
959.0
961.0
963.0
965.0
962.0
958.0
961.0
959.0
965.0
966.0
965.0
964.0
965.0
972.0
978.0
980.0
978.0
977.0
973.0
976.0
976.0
980.0
981.0
979.0
977.0
979.0
980.0
984.0
978.0
973.0
974.0
974.0
975.0
980.0
978.0
972.0
968.0
965.0
967.0
968.0
967.0
962.0
957.0
955.0
956.0
964.0
965.0
963.0
959.0
956.0
954.0
956.0
960.0
961.0
959.0
957.0
959.0
962.0
963.0
961.0
958.0
958.0
958.0
962.0
960.0
957.0
957.0
962.0
975.0
997.0
1021.0
1043.0
1062.0
1084.0
1107.0
1138.0
1180.0
1222.0
1268.0
1315.0
1360.0
1392.0
1405.0
1402.0
1388.0
1359.0
1303.0
1230.0
1164.0
1116.0
1089.0
1077.0
1076.0
1075.0
1071.0
1061.0
1047.0
1039.0
1033.0
1029.0
1024.0
1017.0
1008.0
999.0
992.0
985.0
976.0
966.0
960.0
954.0
947.0
943.0
940.0
934.0
927.0
924.0
925.0
930.0
927.0
925.0
920.0
919.0
918.0
920.0
921.0
918.0
915.0
912.0
911.0
912.0
913.0
910.0
908.0
907.0
906.0
909.0
907.0
904.0
903.0
902.0
905.0
907.0
905.0
899.0
898.0
899.0
897.0
898.0
898.0
890.0
889.0
888.0
887.0
891.0
888.0
883.0
879.0
877.0
876.0
878.0
877.0
874.0
872.0
870.0
871.0
870.0
866.0
865.0
864.0
864.0
866.0
866.0
864.0
862.0
860.0
862.0
866.0
874.0
879.0
877.0
874.0
878.0
880.0
890.0
896.0
897.0
902.0
904.0
909.0
918.0
922.0
929.0
932.0
933.0
935.0
940.0
939.0
942.0
942.0
947.0
950.0
956.0
954.0
954.0
955.0
955.0
956.0
960.0
961.0
957.0
957.0
955.0
958.0
963.0
964.0
962.0
960.0
956.0
958.0
961.0
958.0
958.0
955.0
955.0
955.0
957.0
955.0
953.0
953.0
955.0
959.0
961.0
960.0
957.0
953.0
949.0
955.0
958.0
954.0
950.0
945.0
945.0
950.0
953.0
951.0
949.0
946.0
945.0
949.0
951.0
955.0
950.0
949.0
948.0
950.0
951.0
952.0
952.0
950.0
950.0
949.0
952.0
953.0
951.0
950.0
952.0
957.0
957.0
954.0
950.0
949.0
949.0
951.0
952.0
955.0
952.0
949.0
950.0
952.0
953.0
958.0
956.0
953.0
952.0
956.0
962.0
963.0
963.0
963.0
961.0
961.0
968.0
966.0
968.0
965.0
965.0
966.0
969.0
969.0
971.0
971.0
970.0
973.0
972.0
973.0
970.0
973.0
975.0
974.0
972.0
966.0
964.0
958.0
959.0
964.0
968.0
963.0
957.0
952.0
950.0
955.0
961.0
959.0
958.0
955.0
953.0
952.0
955.0
957.0
956.0
954.0
954.0
955.0
957.0
959.0
957.0
955.0
953.0
954.0
954.0
955.0
958.0
956.0
959.0
961.0
963.0
962.0
966.0
976.0
998.0
1025.0
1049.0
1073.0
1090.0
1110.0
1136.0
1174.0
1212.0
1248.0
1282.0
1315.0
1347.0
1372.0
1389.0
1396.0
1399.0
1392.0
1376.0
1336.0
1278.0
1206.0
1139.0
1092.0
1073.0
1066.0
1061.0
1058.0
1050.0
1037.0
1031.0
1024.0
1022.0
1015.0
1008.0
998.0
991.0
989.0
987.0
982.0
977.0
966.0
959.0
950.0
946.0
939.0
935.0
928.0
921.0
919.0
921.0
921.0
916.0
911.0
908.0
911.0
913.0
916.0
915.0
913.0
910.0
910.0
909.0
909.0
910.0
906.0
907.0
909.0
907.0
906.0
902.0
897.0
901.0
904.0
908.0
904.0
901.0
895.0
895.0
897.0
900.0
897.0
891.0
890.0
891.0
894.0
893.0
891.0
888.0
885.0
878.0
879.0
884.0
884.0
881.0
877.0
876.0
875.0
877.0
875.0
872.0
869.0
867.0
867.0
871.0
869.0
866.0
864.0
866.0
870.0
875.0
877.0
872.0
869.0
873.0
877.0
883.0
889.0
889.0
889.0
892.0
896.0
903.0
909.0
913.0
917.0
919.0
924.0
929.0
932.0
930.0
931.0
937.0
942.0
949.0
953.0
948.0
950.0
951.0
955.0
957.0
957.0
959.0
954.0
953.0
956.0
958.0
957.0
958.0
955.0
957.0
956.0
959.0
960.0
955.0
950.0
951.0
952.0
955.0
956.0
951.0
950.0
949.0
954.0
955.0
956.0
955.0
950.0
949.0
951.0
953.0
953.0
951.0
950.0
951.0
953.0
955.0
955.0
950.0
947.0
946.0
950.0
