# Simple Text Format
# Sampling Rate (Hz):= 360.00
# Resolution:= 12
# Labels:= ECG
970.0
969.0
973.0
975.0
974.0
969.0
968.0
970.0
975.0
980.0
980.0
976.0
974.0
978.0
978.0
978.0
977.0
977.0
973.0
976.0
980.0
980.0
973.0
975.0
975.0
978.0
980.0
978.0
976.0
973.0
976.0
976.0
981.0
983.0
979.0
978.0
976.0
974.0
979.0
980.0
982.0
981.0
982.0
985.0
990.0
991.0
989.0
988.0
985.0
985.0
988.0
987.0
985.0
982.0
986.0
987.0
994.0
998.0
997.0
995.0
991.0
992.0
992.0
993.0
995.0
992.0
988.0
989.0
987.0
984.0
983.0
984.0
985.0
987.0
987.0
987.0
983.0
975.0
971.0
972.0
979.0
979.0
979.0
976.0
972.0
973.0
975.0
975.0
975.0
975.0
973.0
970.0
974.0
975.0
975.0
974.0
975.0
977.0
977.0
983.0
978.0
978.0
973.0
978.0
979.0
981.0
984.0
989.0
1001.0
1026.0
1048.0
1064.0
1077.0
1089.0
1102.0
1126.0
1156.0
1187.0
1221.0
1256.0
1294.0
1336.0
1378.0
1411.0
1422.0
1420.0
1401.0
1371.0
1324.0
1266.0
1206.0
1156.0
1118.0
1098.0
1086.0
1080.0
1079.0
1078.0
1080.0
1079.0
1078.0
1072.0
1064.0
1049.0
1039.0
1033.0
1031.0
1029.0
1020.0
1010.0
999.0
992.0
989.0
986.0
981.0
976.0
967.0
964.0
961.0
959.0
949.0
945.0
943.0
942.0
944.0
947.0
944.0
937.0
931.0
933.0
934.0
940.0
940.0
937.0
933.0
933.0
930.0
935.0
931.0
931.0
926.0
929.0
934.0
937.0
929.0
925.0
925.0
923.0
928.0
932.0
929.0
925.0
921.0
919.0
921.0
923.0
922.0
921.0
917.0
917.0
917.0
919.0
914.0
910.0
910.0
910.0
912.0
915.0
910.0
906.0
900.0
897.0
898.0
901.0
901.0
900.0
896.0
895.0
897.0
897.0
893.0
891.0
889.0
893.0
896.0
898.0
899.0
898.0
896.0
899.0
905.0
912.0
914.0
915.0
915.0
920.0
927.0
935.0
938.0
938.0
942.0
945.0
951.0
954.0
959.0
959.0
963.0
967.0
972.0
975.0
975.0
976.0
974.0
979.0
984.0
987.0
986.0
982.0
980.0
980.0
983.0
988.0
986.0
986.0
986.0
984.0
986.0
987.0
987.0
983.0
980.0
982.0
986.0
986.0
985.0
980.0
979.0
981.0
984.0
985.0
984.0
983.0
979.0
977.0
979.0
981.0
982.0
983.0
982.0
981.0
981.0
981.0
981.0
979.0
979.0
981.0
985.0
983.0
981.0
978.0
976.0
982.0
984.0
987.0
983.0
981.0
978.0
979.0
983.0
984.0
984.0
981.0
979.0
980.0
982.0
985.0
984.0
982.0
980.0
980.0
981.0
985.0
981.0
982.0
982.0
985.0
986.0
985.0
985.0
982.0
979.0
983.0
987.0
989.0
985.0
984.0
981.0
984.0
984.0
990.0
991.0
988.0
988.0
988.0
994.0
997.0
998.0
997.0
997.0
998.0
997.0
998.0
999.0
1001.0
1000.0
1004.0
1004.0
1007.0
1004.0
1000.0
1001.0
1000.0
1003.0
1008.0
1008.0
1006.0
1000.0
997.0
997.0
1001.0
994.0
993.0
988.0
986.0
985.0
987.0
987.0
985.0
982.0
984.0
989.0
990.0
987.0
987.0
983.0
986.0
987.0
989.0
985.0
985.0
983.0
987.0
989.0
990.0
989.0
986.0
982.0
984.0
989.0
991.0
988.0
981.0
975.0
981.0
988.0
1006.0
1025.0
1048.0
1071.0
1090.0
1116.0
1140.0
1164.0
1198.0
1235.0
1277.0
1320.0
1368.0
1407.0
1434.0
1449.0
1453.0
1453.0
1439.0
1414.0
1374.0
1322.0
1260.0
1191.0
1149.0
1120.0
1104.0
1100.0
1098.0
1098.0
1092.0
1081.0
1069.0
1058.0
1046.0
1044.0
1038.0
1031.0
1023.0
1015.0
1011.0
1009.0
1002.0
996.0
987.0
978.0
971.0
970.0
965.0
960.0
956.0
951.0
951.0
951.0
951.0
950.0
941.0
944.0
944.0
948.0
949.0
947.0
945.0
941.0
941.0
941.0
944.0
944.0
941.0
937.0
939.0
937.0
942.0
939.0
938.0
937.0
937.0
938.0
938.0
934.0
934.0
931.0
932.0
933.0
937.0
936.0
928.0
923.0
920.0
923.0
925.0
924.0
920.0
918.0
914.0
914.0
917.0
914.0
911.0
909.0
909.0
910.0
909.0
905.0
902.0
902.0
902.0
905.0
907.0
906.0
902.0
900.0
900.0
904.0
909.0
908.0
908.0
905.0
911.0
917.0
922.0
926.0
926.0
930.0
934.0
940.0
945.0
948.0
952.0
953.0
961.0
967.0
975.0
975.0
975.0
978.0
983.0
989.0
993.0
991.0
987.0
988.0
987.0
990.0
992.0
990.0
991.0
989.0
989.0
990.0
992.0
992.0
987.0
987.0
990.0
992.0
990.0
991.0
987.0
985.0
988.0
992.0
991.0
991.0
986.0
985.0
985.0
987.0
987.0
986.0
988.0
983.0
983.0
984.0
987.0
987.0
985.0
984.0
984.0
986.0
987.0
984.0
980.0
981.0
984.0
988.0
990.0
988.0
981.0
981.0
980.0
985.0
986.0
988.0
985.0
983.0
983.0
987.0
987.0
987.0
988.0
986.0
987.0
986.0
987.0
987.0
983.0
985.0
986.0
987.0
993.0
988.0
986.0
982.0
984.0
988.0
989.0
990.0
985.0
984.0
983.0
987.0
987.0
989.0
989.0
989.0
990.0
989.0
991.0
991.0
991.0
992.0
995.0
999.0
1000.0
1000.0
998.0
997.0
997.0
1001.0
1006.0
1003.0
1000.0
997.0
998.0
1003.0
1005.0
1007.0
1004.0
1001.0
999.0
999.0
1004.0
1001.0
1002.0
999.0
997.0
999.0
998.0
996.0
993.0
989.0
989.0
987.0
993.0
987.0
983.0
980.0
982.0
985.0
989.0
990.0
986.0
981.0
980.0
980.0
983.0
983.0
983.0
981.0
980.0
982.0
983.0
980.0
980.0
979.0
984.0
987.0
991.0
986.0
984.0
982.0
980.0
986.0
998.0
1015.0
1035.0
1054.0
1074.0
1093.0
1114.0
1132.0
1150.0
1173.0
1201.0
1237.0
1268.0
1297.0
1327.0
1362.0
1400.0
1427.0
1436.0
1428.0
1396.0
1339.0
1270.0
1202.0
1156.0
1124.0
1106.0
1099.0
1098.0
1102.0
1101.0
1097.0
1089.0
1074.0
1068.0
1056.0
1048.0
1035.0
1026.0
1018.0
1004.0
998.0
991.0
983.0
975.0
965.0
961.0
958.0
957.0
948.0
945.0
943.0
945.0
946.0
946.0
947.0
940.0
937.0
937.0
939.0
941.0
942.0
938.0
935.0
935.0
935.0
937.0
936.0
933.0
931.0
933.0
936.0
937.0
935.0
931.0
926.0
927.0
929.0
929.0
928.0
922.0
916.0
916.0
920.0
920.0
917.0
910.0
910.0
907.0
907.0
910.0
908.0
904.0
900.0
901.0
901.0
902.0
900.0
898.0
894.0
895.0
892.0
898.0
896.0
890.0
886.0
887.0
893.0
896.0
896.0
889.0
887.0
890.0
896.0
903.0
906.0
911.0
911.0
916.0
920.0
928.0
932.0
937.0
941.0
947.0
950.0
955.0
961.0
964.0
965.0
971.0
978.0
981.0
980.0
978.0
978.0
979.0
981.0
989.0
990.0
986.0
986.0
982.0
985.0
989.0
990.0
987.0
984.0
982.0
984.0
984.0
987.0
983.0
983.0
982.0
985.0
986.0
987.0
982.0
977.0
979.0
983.0
986.0
985.0
981.0
978.0
978.0
980.0
981.0
982.0
981.0
978.0
976.0
976.0
978.0
974.0
974.0
973.0
974.0
976.0
981.0
979.0
974.0
971.0
971.0
973.0
980.0
978.0
976.0
974.0
976.0
977.0
977.0
979.0
979.0
974.0
973.0
978.0
978.0
977.0
977.0
976.0
976.0
978.0
980.0
977.0
977.0
975.0
975.0
980.0
981.0
979.0
978.0
977.0
974.0
977.0
982.0
980.0
977.0
977.0
975.0
979.0
977.0
979.0
981.0
980.0
981.0
981.0
983.0
985.0
984.0
986.0
988.0
992.0
996.0
996.0
992.0
989.0
991.0
991.0
994.0
993.0
993.0
991.0
994.0
995.0
999.0
998.0
993.0
995.0
995.0
997.0
1000.0
1000.0
997.0
991.0
992.0
993.0
996.0
995.0
991.0
985.0
984.0
984.0
983.0
982.0
978.0
977.0
976.0
980.0
983.0
984.0
981.0
980.0
977.0
977.0
979.0
978.0
974.0
974.0
978.0
979.0
984.0
981.0
977.0
973.0
975.0
977.0
982.0
986.0
982.0
977.0
975.0
975.0
977.0
980.0
987.0
1002.0
1025.0
1053.0
1078.0
1098.0
1118.0
1141.0
1171.0
1206.0
1246.0
1289.0
1324.0
1363.0
1403.0
1432.0
1449.0
1455.0
1451.0
1441.0
1423.0
1392.0
1337.0
1257.0
1180.0
1132.0
1108.0
1103.0
1100.0
1096.0
1087.0
1074.0
1065.0
1056.0
1049.0
1033.0
1026.0
1016.0
1014.0
1012.0
1011.0
1003.0
994.0
980.0
973.0
969.0
965.0
962.0
952.0
947.0
938.0
939.0
941.0
938.0
938.0
934.0
935.0
937.0
935.0
933.0
932.0
929.0
929.0
930.0
933.0
934.0
931.0
924.0
923.0
929.0
929.0
927.0
926.0
920.0
919.0
921.0
922.0
921.0
917.0
916.0
917.0
916.0
919.0
914.0
910.0
905.0
905.0
909.0
907.0
905.0
900.0
895.0
894.0
894.0
896.0
893.0
887.0
882.0
883.0
881.0
883.0
881.0
878.0
877.0
877.0
879.0
881.0
882.0
878.0
875.0
880.0
886.0
889.0
891.0
891.0
893.0
895.0
901.0
907.0
912.0
911.0
915.0
920.0
930.0
939.0
943.0
948.0
951.0
955.0
959.0
969.0
971.0
976.0
974.0
975.0
980.0
981.0
978.0
980.0
980.0
981.0
986.0
987.0
983.0
981.0
982.0
982.0
987.0
990.0
986.0
982.0
980.0
977.0
982.0
986.0
986.0
986.0
982.0
980.0
983.0
983.0
983.0
979.0
979.0
978.0
982.0
985.0
980.0
979.0
978.0
979.0
983.0
982.0
983.0
976.0
972.0
975.0
977.0
980.0
981.0
980.0
975.0
973.0
974.0
979.0
982.0
979.0
977.0
978.0
977.0
982.0
980.0
977.0
980.0
980.0
981.0
984.0
982.0
980.0
975.0
977.0
980.0
986.0
985.0
983.0
979.0
978.0
979.0
984.0
984.0
982.0
979.0
976.0
977.0
982.0
981.0
980.0
977.0
979.0
980.0
983.0
982.0
978.0
975.0
977.0
980.0
984.0
984.0
979.0
978.0
979.0
979.0
989.0
990.0
989.0
986.0
988.0
991.0
994.0
993.0
988.0
987.0
988.0
993.0
996.0
995.0
997.0
996.0
998.0
1000.0
998.0
996.0
994.0
992.0
996.0
1000.0
1004.0
1001.0
994.0
989.0
985.0
987.0
986.0
986.0
981.0
973.0
973.0
975.0
980.0
982.0
982.0
980.0
977.0
974.0
976.0
977.0
976.0
975.0
976.0
978.0
980.0
977.0
973.0
977.0
976.0
979.0
980.0
978.0
975.0
970.0
970.0
977.0
989.0
1001.0
1019.0
1038.0
1067.0
1093.0
1121.0
1147.0
1177.0
1215.0
1260.0
1310.0
1365.0
1403.0
1433.0
1448.0
1448.0
1441.0
1424.0
1383.0
1318.0
1234.0
1163.0
1119.0
1105.0
1099.0
1098.0
1093.0
1084.0
1075.0
1065.0
1052.0
1038.0
1031.0
1025.0
1023.0
1019.0
1004.0
994.0
983.0
974.0
967.0
965.0
956.0
947.0
942.0
940.0
941.0
946.0
944.0
937.0
934.0
934.0
935.0
937.0
936.0
931.0
931.0
927.0
929.0
932.0
932.0
931.0
926.0
925.0
928.0
924.0
925.0
924.0
922.0
921.0
924.0
925.0
920.0
916.0
914.0
913.0
914.0
919.0
911.0
904.0
902.0
902.0
903.0
903.0
902.0
895.0
891.0
891.0
893.0
893.0
893.0
889.0
885.0
883.0
884.0
888.0
890.0
890.0
886.0
886.0
884.0
894.0
901.0
901.0
902.0
904.0
910.0
916.0
922.0
925.0
928.0
936.0
944.0
951.0
956.0
958.0
963.0
968.0
974.0
979.0
978.0
974.0
975.0
980.0
983.0
990.0
987.0
984.0
981.0
982.0
985.0
989.0
992.0
986.0
981.0
982.0
981.0
986.0
987.0
987.0
984.0
981.0
981.0
985.0
982.0
982.0
981.0
979.0
982.0
981.0
978.0
978.0
978.0
977.0
982.0
983.0
979.0
976.0
976.0
974.0
978.0
983.0
983.0
978.0
975.0
974.0
976.0
980.0
980.0
979.0
974.0
974.0
975.0
981.0
979.0
977.0
975.0
976.0
979.0
980.0
980.0
980.0
979.0
981.0
985.0
985.0
983.0
980.0
977.0
979.0
984.0
986.0
981.0
978.0
975.0
979.0
982.0
984.0
985.0
981.0
979.0
977.0
980.0
985.0
985.0
980.0
978.0
976.0
981.0
984.0
982.0
982.0
980.0
981.0
981.0
983.0
984.0
982.0
981.0
983.0
986.0
989.0
989.0
987.0
991.0
994.0
994.0
998.0
998.0
994.0
993.0
994.0
997.0
999.0
1004.0
1002.0
997.0
999.0
1000.0
1003.0
999.0
999.0
997.0
996.0
998.0
999.0
996.0
993.0
989.0
988.0
988.0
991.0
987.0
981.0
980.0
979.0
979.0
980.0
984.0
984.0
984.0
981.0
986.0
984.0
984.0
980.0
980.0
981.0
985.0
988.0
988.0
988.0
982.0
983.0
984.0
987.0
988.0
987.0
983.0
981.0
987.0
1003.0
1025.0
1049.0
1072.0
1090.0
1110.0
1127.0
1145.0
1162.0
1185.0
1221.0
1264.0
1315.0
1362.0
1402.0
1427.0
1435.0
1422.0
1383.0
1315.0
1229.0
1161.0
1123.0
1113.0
1114.0
1116.0
1112.0
1106.0
1100.0
1097.0
1089.0
1082.0
1072.0
1058.0
1045.0
1036.0
1026.0
1020.0
1009.0
998.0
991.0
984.0
974.0
969.0
962.0
955.0
955.0
953.0
952.0
950.0
949.0
940.0
943.0
946.0
945.0
943.0
939.0
937.0
938.0
939.0
941.0
939.0
936.0
932.0
930.0
935.0
936.0
935.0
932.0
926.0
925.0
925.0
929.0
928.0
925.0
916.0
915.0
918.0
922.0
918.0
918.0
913.0
909.0
911.0
911.0
907.0
906.0
901.0
898.0
899.0
899.0
898.0
896.0
895.0
894.0
894.0
896.0
896.0
893.0
895.0
897.0
901.0
902.0
906.0
911.0
913.0
918.0
925.0
931.0
940.0
944.0
949.0
955.0
964.0
970.0
973.0
972.0
971.0
977.0
983.0
986.0
988.0
985.0
986.0
987.0
990.0
993.0
996.0
989.0
987.0
986.0
991.0
993.0
995.0
994.0
987.0
986.0
986.0
990.0
989.0
988.0
986.0
982.0
984.0
988.0
987.0
987.0
984.0
981.0
981.0
980.0
984.0
981.0
979.0
983.0
985.0
985.0
981.0
980.0
980.0
978.0
983.0
983.0
982.0
979.0
977.0
978.0
980.0
985.0
985.0
981.0
978.0
977.0
978.0
983.0
986.0
985.0
979.0
979.0
980.0
982.0
983.0
984.0
984.0
981.0
981.0
984.0
985.0
985.0
984.0
984.0
985.0
988.0
989.0
984.0
980.0
980.0
979.0
983.0
985.0
982.0
980.0
975.0
979.0
984.0
987.0
986.0
981.0
978.0
980.0
984.0
984.0
980.0
980.0
978.0
981.0
983.0
984.0
979.0
977.0
977.0
983.0
986.0
986.0
983.0
979.0
975.0
982.0
986.0
988.0
988.0
984.0
985.0
988.0
991.0
992.0
993.0
993.0
993.0
991.0
994.0
993.0
993.0
995.0
999.0
1003.0
1005.0
1005.0
1001.0
996.0
993.0
997.0
998.0
997.0
998.0
990.0
987.0
986.0
989.0
989.0
988.0
982.0
982.0
981.0
982.0
982.0
979.0
978.0
978.0
982.0
982.0
982.0
982.0
980.0
977.0
980.0
985.0
985.0
983.0
983.0
985.0
986.0
989.0
989.0
989.0
985.0
985.0
987.0
992.0
992.0
989.0
988.0
997.0
1023.0
1054.0
1082.0
1100.0
1122.0
1144.0
1172.0
1199.0
1231.0
1270.0
1312.0
1356.0
1402.0
1434.0
1444.0
1432.0
1400.0
1346.0
1268.0
1198.0
1147.0
1117.0
1104.0
1106.0
1112.0
1116.0
1116.0
1106.0
1095.0
1081.0
1071.0
1062.0
1054.0
1044.0
1035.0
1024.0
1017.0
1009.0
1003.0
993.0
983.0
975.0
969.0
964.0
960.0
954.0
951.0
950.0
948.0
946.0
947.0
945.0
945.0
943.0
945.0
944.0
943.0
940.0
937.0
937.0
939.0
944.0
941.0
936.0
934.0
930.0
932.0
934.0
934.0
931.0
927.0
922.0
924.0
924.0
921.0
921.0
917.0
913.0
913.0
915.0
913.0
909.0
909.0
908.0
906.0
903.0
903.0
899.0
895.0
895.0
892.0
892.0
889.0
888.0
886.0
886.0
885.0
889.0
889.0
886.0
885.0
883.0
884.0
894.0
897.0
898.0
899.0
899.0
906.0
914.0
919.0
927.0
927.0
931.0
939.0
949.0
957.0
961.0
963.0
965.0
971.0
974.0
980.0
983.0
982.0
986.0
987.0
990.0
992.0
989.0
989.0
990.0
995.0
996.0
996.0
993.0
990.0
988.0
991.0
995.0
996.0
996.0
989.0
988.0
988.0
993.0
994.0
992.0
990.0
987.0
987.0
990.0
992.0
989.0
987.0
987.0
992.0
991.0
991.0
987.0
983.0
985.0
985.0
991.0
989.0
989.0
982.0
984.0
987.0
988.0
989.0
986.0
983.0
980.0
979.0
982.0
987.0
984.0
984.0
987.0
985.0
989.0
990.0
986.0
985.0
984.0
987.0
991.0
991.0
989.0
986.0
984.0
986.0
992.0
993.0
992.0
983.0
982.0
986.0
989.0
990.0
988.0
988.0
986.0
990.0
988.0
990.0
987.0
987.0
988.0
989.0
993.0
988.0
988.0
982.0
984.0
988.0
993.0
990.0
988.0
986.0
986.0
988.0
990.0
991.0
990.0
989.0
990.0
988.0
991.0
988.0
988.0
987.0
987.0
992.0
995.0
992.0
994.0
990.0
990.0
992.0
997.0
999.0
999.0
995.0
992.0
995.0
998.0
1003.0
1002.0
1000.0
999.0
1001.0
1002.0
1002.0
998.0
998.0
998.0
997.0
999.0
998.0
990.0
984.0
987.0
989.0
995.0
996.0
993.0
986.0
984.0
980.0
984.0
983.0
985.0
980.0
977.0
977.0
980.0
981.0
982.0
982.0
983.0
983.0
985.0
986.0
981.0
980.0
983.0
986.0
993.0
994.0
989.0
985.0
985.0
989.0
995.0
995.0
993.0
991.0
991.0
993.0
994.0
989.0
998.0
1009.0
1031.0
1061.0
1086.0
1105.0
1126.0
1153.0
1182.0
1223.0
1270.0
1313.0
1356.0
1398.0
1430.0
1451.0
1463.0
1463.0
1444.0
1396.0
1319.0
1235.0
1171.0
1134.0
1122.0
1120.0
1117.0
1113.0
1107.0
1097.0
1083.0
1068.0
1060.0
1052.0
1050.0
1042.0
1033.0
1022.0
1008.0
1000.0
992.0
985.0
978.0
967.0
961.0
957.0
957.0
957.0
956.0
953.0
952.0
950.0
951.0
945.0
942.0
946.0
944.0
946.0
948.0
946.0
944.0
938.0
939.0
940.0
943.0
942.0
939.0
934.0
933.0
935.0
940.0
938.0
937.0
932.0
928.0
926.0
929.0
929.0
928.0
924.0
919.0
918.0
918.0
918.0
916.0
912.0
908.0
908.0
907.0
905.0
901.0
899.0
899.0
897.0
899.0
899.0
895.0
891.0
890.0
892.0
897.0
897.0
895.0
895.0
894.0
897.0
901.0
904.0
908.0
910.0
913.0
918.0
925.0
931.0
936.0
939.0
945.0
951.0
958.0
964.0
965.0
967.0
970.0
978.0
984.0
986.0
984.0
982.0
981.0
984.0
991.0
995.0
992.0
989.0
986.0
988.0
992.0
994.0
991.0
989.0
986.0
988.0
991.0
991.0
991.0
988.0
986.0
990.0
994.0
994.0
993.0
987.0
986.0
986.0
990.0
994.0
991.0
986.0
984.0
983.0
985.0
988.0
988.0
986.0
984.0
984.0
987.0
991.0
986.0
984.0
981.0
983.0
986.0
986.0
984.0
982.0
980.0
980.0
982.0
986.0
985.0
982.0
979.0
981.0
981.0
981.0
983.0
981.0
979.0
983.0
987.0
984.0
985.0
979.0
979.0
984.0
989.0
992.0
988.0
984.0
982.0
980.0
986.0
988.0
988.0
986.0
986.0
986.0
987.0
986.0
984.0
984.0
980.0
984.0
988.0
989.0
986.0
985.0
983.0
983.0
984.0
987.0
986.0
984.0
985.0
985.0
984.0
985.0
983.0
982.0
981.0
983.0
984.0
987.0
986.0
980.0
979.0
982.0
987.0
987.0
986.0
981.0
982.0
984.0
984.0
990.0
988.0
989.0
989.0
988.0
994.0
993.0
989.0
985.0
983.0
987.0
992.0
995.0
994.0
992.0
991.0
993.0
998.0
1001.0
999.0
997.0
993.0
994.0
994.0
994.0
994.0
988.0
989.0
991.0
994.0
990.0
987.0
985.0
985.0
990.0
990.0
993.0
988.0
981.0
976.0
977.0
978.0
982.0
982.0
980.0
976.0
977.0
982.0
981.0
977.0
979.0
977.0
977.0
983.0
986.0
983.0
979.0
978.0
986.0
991.0
993.0
988.0
986.0
983.0
982.0
984.0
988.0
990.0
989.0
989.0
988.0
986.0
990.0
999.0
1018.0
1043.0
1072.0
1098.0
1119.0
1146.0
1166.0
1202.0
1242.0
1287.0
1321.0
1355.0
1387.0
1418.0
1437.0
1450.0
1456.0
1445.0
1411.0
1349.0
1276.0
1205.0
1160.0
1131.0
1119.0
1117.0
1117.0
1118.0
1112.0
1101.0
1091.0
1079.0
1075.0
1068.0
1059.0
1050.0
1039.0
1030.0
1022.0
1018.0
1011.0
1002.0
990.0
984.0
977.0
973.0
971.0
964.0
960.0
955.0
954.0
954.0
957.0
952.0
947.0
943.0
945.0
945.0
948.0
947.0
942.0
937.0
937.0
942.0
944.0
942.0
939.0
937.0
936.0
938.0
938.0
935.0
933.0
931.0
932.0
933.0
935.0
931.0
923.0
923.0
923.0
923.0
927.0
924.0
917.0
912.0
911.0
910.0
913.0
911.0
911.0
907.0
909.0
909.0
906.0
900.0
896.0
893.0
893.0
897.0
897.0
890.0
887.0
880.0
880.0
885.0
887.0
885.0
881.0
879.0
878.0
880.0
879.0
880.0
881.0
884.0
887.0
893.0
896.0
896.0
897.0
899.0
903.0
911.0
921.0
922.0
921.0
925.0
932.0
937.0
944.0
950.0
951.0
955.0
958.0
965.0
970.0
969.0
968.0
972.0
976.0
981.0
986.0
988.0
983.0
983.0
986.0
990.0
994.0
992.0
990.0
987.0
988.0
992.0
989.0
989.0
986.0
989.0
988.0
991.0
992.0
987.0
984.0
985.0
987.0
989.0
990.0
991.0
983.0
984.0
983.0
982.0
988.0
988.0
987.0
988.0
988.0
989.0
991.0
986.0
984.0
984.0
984.0
989.0
989.0
985.0
984.0
979.0
980.0
983.0
983.0
985.0
980.0
978.0
981.0
982.0
982.0
983.0
981.0
977.0
980.0
985.0
987.0
985.0
980.0
974.0
979.0
981.0
985.0
983.0
982.0
980.0
982.0
985.0
988.0
982.0
983.0
982.0
985.0
988.0
990.0
988.0
986.0
984.0
984.0
985.0
990.0
990.0
987.0
985.0
986.0
988.0
991.0
988.0
986.0
988.0
987.0
989.0
987.0
985.0
982.0
980.0
985.0
989.0
994.0
992.0
986.0
984.0
983.0
987.0
988.0
987.0
985.0
985.0
988.0
990.0
989.0
989.0
986.0
988.0
989.0
991.0
993.0
993.0
987.0
986.0
988.0
991.0
994.0
994.0
991.0
990.0
990.0
993.0
996.0
996.0
996.0
997.0
1001.0
1004.0
1004.0
1001.0
994.0
997.0
997.0
1000.0
1006.0
1005.0
1001.0
1001.0
996.0
1000.0
999.0
996.0
990.0
993.0
994.0
996.0
1000.0
998.0
991.0
989.0
990.0
991.0
991.0
988.0
982.0
980.0
983.0
984.0
989.0
991.0
985.0
983.0
985.0
985.0
987.0
987.0
985.0
987.0
989.0
992.0
994.0
994.0
991.0
990.0
992.0
998.0
1001.0
998.0
993.0
988.0
994.0
996.0
998.0
995.0
997.0
1008.0
1030.0
1054.0
1074.0
1091.0
1103.0
1119.0
1142.0
1169.0
1204.0
1237.0
1280.0
1316.0
1363.0
1410.0
1444.0
1462.0
1462.0
1449.0
1420.0
1369.0
1305.0
1235.0
1182.0
1146.0
1124.0
1112.0
1109.0
1112.0
1111.0
1111.0
1107.0
1099.0
1089.0
1076.0
1063.0
1051.0
1044.0
1039.0
1032.0
1020.0
1008.0
997.0
993.0
991.0
990.0
984.0
975.0
966.0
964.0
960.0
960.0
958.0
955.0
953.0
950.0
954.0
953.0
951.0
948.0
948.0
949.0
950.0
950.0
944.0
943.0
943.0
943.0
947.0
949.0
946.0
941.0
939.0
938.0
940.0
939.0
941.0
935.0
934.0
932.0
931.0
934.0
933.0
930.0
929.0
930.0
932.0
929.0
923.0
919.0
913.0
914.0
915.0
918.0
913.0
912.0
908.0
907.0
908.0
908.0
906.0
902.0
897.0
895.0
897.0
898.0
897.0
896.0
893.0
893.0
894.0
900.0
901.0
899.0
899.0
904.0
911.0
913.0
917.0
919.0
920.0
926.0
936.0
943.0
950.0
950.0
952.0
959.0
968.0
976.0
981.0
981.0
981.0
984.0
987.0
993.0
991.0
995.0
992.0
998.0
995.0
1001.0
999.0
995.0
995.0
996.0
998.0
1002.0
998.0
996.0
993.0
994.0
996.0
1001.0
998.0
997.0
994.0
991.0
994.0
998.0
995.0
992.0
992.0
992.0
997.0
997.0
996.0
993.0
991.0
993.0
994.0
997.0
993.0
989.0
985.0
988.0
992.0
997.0
995.0
992.0
986.0
989.0
990.0
993.0
993.0
990.0
986.0
987.0
989.0
989.0
991.0
990.0
987.0
990.0
992.0
995.0
990.0
990.0
989.0
990.0
993.0
998.0
998.0
995.0
988.0
990.0
994.0
994.0
996.0
995.0
993.0
994.0
994.0
997.0
999.0
996.0
995.0
996.0
997.0
1000.0
998.0
993.0
990.0
993.0
996.0
999.0
997.0
994.0
992.0
989.0
994.0
995.0
995.0
992.0
993.0
992.0
996.0
996.0
995.0
992.0
990.0
993.0
995.0
1002.0
999.0
996.0
991.0
993.0
997.0
998.0
999.0
995.0
990.0
991.0
994.0
996.0
998.0
995.0
995.0
995.0
997.0
997.0
998.0
996.0
995.0
998.0
1003.0
1007.0
1006.0
1006.0
1003.0
1002.0
1006.0
1010.0
1012.0
1007.0
1003.0
1003.0
1003.0
1005.0
1002.0
1003.0
1000.0
1002.0
1001.0
1001.0
997.0
996.0
994.0
998.0
1000.0
1001.0
997.0
990.0
987.0
990.0
990.0
994.0
999.0
993.0
991.0
988.0
990.0
990.0
990.0
989.0
990.0
991.0
990.0
994.0
991.0
993.0
991.0
996.0
1000.0
1005.0
1003.0
1000.0
995.0
997.0
1003.0
1005.0
1008.0
1007.0
999.0
997.0
1009.0
1033.0
1060.0
1088.0
1108.0
1130.0
1158.0
1194.0
1233.0
1278.0
1318.0
1361.0
1401.0
1432.0
1451.0
1462.0
1463.0
1451.0
1416.0
1348.0
1265.0
1190.0
1148.0
1136.0
1134.0
1138.0
1133.0
1121.0
1108.0
1098.0
1093.0
1090.0
1080.0
1069.0
1059.0
1049.0
1041.0
1035.0
1024.0
1012.0
1001.0
991.0
984.0
976.0
976.0
971.0
962.0
962.0
961.0
960.0
960.0
956.0
956.0
957.0
957.0
958.0
958.0
952.0
948.0
951.0
952.0
956.0
953.0
949.0
944.0
945.0
945.0
948.0
949.0
943.0
943.0
940.0
940.0
944.0
940.0
935.0
934.0
932.0
928.0
932.0
930.0
928.0
922.0
920.0
915.0
919.0
914.0
910.0
910.0
911.0
911.0
911.0
905.0
901.0
899.0
898.0
902.0
904.0
900.0
897.0
895.0
895.0
900.0
905.0
906.0
904.0
905.0
905.0
914.0
922.0
927.0
929.0
933.0
939.0
946.0
957.0
963.0
965.0
969.0
971.0
978.0
984.0
986.0
990.0
992.0
994.0
999.0
1002.0
1002.0
1000.0
1000.0
1002.0
1005.0
1008.0
1004.0
1002.0
996.0
999.0
1004.0
1006.0
1005.0
1004.0
999.0
999.0
997.0
1001.0
1001.0
999.0
999.0
996.0
996.0
999.0
999.0
997.0
996.0
992.0
995.0
996.0
994.0
994.0
992.0
994.0
996.0
997.0
995.0
989.0
988.0
988.0
994.0
997.0
994.0
992.0
988.0
990.0
992.0
993.0
994.0
992.0
989.0
989.0
990.0
992.0
995.0
994.0
990.0
991.0
991.0
993.0
995.0
991.0
989.0
994.0
994.0
996.0
994.0
992.0
991.0
994.0
996.0
998.0
997.0
993.0
990.0
992.0
995.0
999.0
998.0
993.0
991.0
992.0
997.0
998.0
994.0
991.0
987.0
990.0
993.0
996.0
994.0
994.0
990.0
992.0
991.0
994.0
997.0
995.0
993.0
992.0
993.0
997.0
997.0
992.0
991.0
993.0
997.0
1000.0
996.0
993.0
989.0
994.0
997.0
999.0
998.0
991.0
993.0
992.0
996.0
1005.0
1005.0
1003.0
1001.0
1002.0
1002.0
1008.0
1008.0
1008.0
1003.0
1001.0
1002.0
1004.0
1000.0
999.0
993.0
995.0
995.0
998.0
997.0
993.0
993.0
993.0
995.0
997.0
994.0
989.0
983.0
985.0
989.0
993.0
989.0
986.0
986.0
985.0
986.0
992.0
992.0
989.0
988.0
989.0
989.0
995.0
997.0
996.0
996.0
993.0
998.0
999.0
999.0
1001.0
996.0
996.0
997.0
1013.0
1033.0
1058.0
1080.0
1098.0
1119.0
1139.0
1151.0
1169.0
1195.0
1238.0
1288.0
1337.0
1379.0
1416.0
1438.0
1451.0
1452.0
1432.0
1381.0
1308.0
1235.0
1179.0
1148.0
1130.0
1122.0
1119.0
1120.0
1125.0
1123.0
1115.0
1105.0
1093.0
1082.0
1072.0
1066.0
1058.0
1047.0
1033.0
1023.0
1015.0
1013.0
1009.0
1004.0
995.0
986.0
977.0
973.0
969.0
967.0
963.0
959.0
959.0
959.0
958.0
958.0
957.0
956.0
953.0
953.0
952.0
949.0
946.0
945.0
946.0
949.0
953.0
948.0
946.0
941.0
941.0
944.0
948.0
944.0
939.0
936.0
934.0
934.0
939.0
937.0
932.0
931.0
929.0
930.0
930.0
929.0
925.0
923.0
921.0
919.0
918.0
915.0
911.0
909.0
908.0
909.0
908.0
905.0
900.0
898.0
897.0
900.0
903.0
903.0
896.0
894.0
891.0
898.0
901.0
903.0
902.0
905.0
907.0
911.0
917.0
921.0
925.0
927.0
932.0
938.0
944.0
950.0
951.0
960.0
967.0
974.0
981.0
979.0
984.0
985.0
990.0
996.0
1002.0
1000.0
997.0
994.0
994.0
1002.0
1004.0
1003.0
1003.0
1000.0
1000.0
1002.0
1004.0
1006.0
1004.0
1001.0
999.0
999.0
1003.0
1004.0
