# Simple Text Format
# Sampling Rate (Hz):= 360.00
# Resolution:= 12
# Labels:= ECG
962.0
968.0
969.0
970.0
968.0
967.0
970.0
971.0
971.0
968.0
971.0
982.0
1001.0
1030.0
1051.0
1064.0
1074.0
1088.0
1109.0
1132.0
1157.0
1188.0
1227.0
1268.0
1312.0
1350.0
1380.0
1393.0
1387.0
1367.0
1327.0
1271.0
1209.0
1155.0
1116.0
1093.0
1078.0
1074.0
1070.0
1071.0
1068.0
1061.0
1057.0
1050.0
1039.0
1030.0
1017.0
1013.0
1009.0
1006.0
1002.0
991.0
976.0
966.0
960.0
956.0
953.0
949.0
941.0
937.0
933.0
933.0
934.0
929.0
928.0
925.0
925.0
927.0
924.0
926.0
922.0
919.0
920.0
922.0
924.0
920.0
918.0
916.0
918.0
921.0
921.0
918.0
912.0
911.0
910.0
912.0
915.0
915.0
912.0
906.0
905.0
908.0
908.0
906.0
902.0
902.0
902.0
904.0
904.0
901.0
895.0
892.0
892.0
890.0
894.0
892.0
886.0
881.0
883.0
884.0
882.0
879.0
874.0
872.0
872.0
873.0
874.0
871.0
873.0
871.0
874.0
876.0
878.0
878.0
872.0
878.0
882.0
886.0
891.0
891.0
890.0
897.0
901.0
909.0
914.0
913.0
915.0
915.0
923.0
930.0
935.0
938.0
939.0
946.0
946.0
953.0
957.0
956.0
957.0
958.0
963.0
966.0
967.0
965.0
961.0
961.0
966.0
970.0
972.0
968.0
964.0
962.0
962.0
969.0
968.0
970.0
966.0
962.0
962.0
964.0
963.0
965.0
963.0
964.0
968.0
969.0
969.0
964.0
961.0
961.0
964.0
968.0
967.0
965.0
961.0
959.0
961.0
965.0
967.0
962.0
961.0
959.0
961.0
963.0
964.0
966.0
961.0
956.0
959.0
963.0
964.0
962.0
959.0
961.0
961.0
964.0
965.0
962.0
960.0
960.0
962.0
966.0
967.0
965.0
961.0
961.0
962.0
966.0
971.0
968.0
965.0
964.0
968.0
968.0
969.0
967.0
966.0
966.0
967.0
969.0
968.0
965.0
963.0
962.0
968.0
971.0
968.0
969.0
965.0
966.0
971.0
976.0
977.0
979.0
975.0
975.0
978.0
981.0
984.0
979.0
972.0
973.0
978.0
980.0
986.0
986.0
983.0
976.0
980.0
986.0
986.0
986.0
983.0
979.0
978.0
975.0
976.0
976.0
974.0
974.0
972.0
971.0
971.0
964.0
964.0
963.0
965.0
970.0
970.0
967.0
963.0
965.0
968.0
969.0
971.0
967.0
963.0
965.0
966.0
971.0
970.0
972.0
969.0
968.0
965.0
971.0
973.0
970.0
970.0
981.0
1003.0
1031.0
1055.0
1077.0
1092.0
1106.0
1125.0
1145.0
1168.0
1194.0
1226.0
1271.0
1319.0
1366.0
1392.0
1401.0
1388.0
1360.0
1306.0
1230.0
1162.0
1109.0
1077.0
1070.0
1070.0
1074.0
1073.0
1065.0
1056.0
1048.0
1037.0
1029.0
1022.0
1018.0
1009.0
998.0
991.0
987.0
981.0
974.0
964.0
956.0
951.0
947.0
945.0
940.0
934.0
932.0
933.0
933.0
934.0
930.0
927.0
923.0
922.0
925.0
925.0
922.0
914.0
916.0
917.0
921.0
924.0
920.0
915.0
912.0
914.0
914.0
915.0
917.0
914.0
912.0
911.0
911.0
912.0
909.0
903.0
902.0
901.0
901.0
900.0
898.0
895.0
895.0
898.0
898.0
897.0
896.0
887.0
884.0
885.0
889.0
886.0
882.0
877.0
873.0
876.0
878.0
877.0
875.0
872.0
869.0
871.0
875.0
875.0
875.0
875.0
875.0
877.0
880.0
883.0
887.0
889.0
894.0
898.0
906.0
911.0
911.0
915.0
920.0
926.0
933.0
936.0
937.0
936.0
937.0
942.0
948.0
953.0
953.0
950.0
947.0
952.0
956.0
960.0
958.0
955.0
951.0
955.0
954.0
959.0
956.0
956.0
954.0
956.0
957.0
956.0
955.0
952.0
952.0
954.0
954.0
952.0
954.0
952.0
952.0
952.0
954.0
954.0
951.0
949.0
949.0
949.0
949.0
955.0
955.0
952.0
946.0
949.0
953.0
957.0
955.0
952.0
948.0
949.0
953.0
958.0
956.0
955.0
952.0
955.0
956.0
954.0
955.0
954.0
955.0
955.0
957.0
958.0
960.0
953.0
953.0
956.0
958.0
962.0
959.0
954.0
955.0
958.0
962.0
965.0
960.0
958.0
957.0
958.0
960.0
961.0
963.0
961.0
958.0
958.0
960.0
962.0
962.0
958.0
959.0
958.0
962.0
962.0
963.0
964.0
965.0
971.0
976.0
978.0
972.0
973.0
970.0
974.0
977.0
978.0
978.0
975.0
976.0
978.0
980.0
982.0
982.0
976.0
973.0
975.0
978.0
978.0
979.0
974.0
970.0
968.0
969.0
968.0
966.0
962.0
958.0
959.0
957.0
961.0
962.0
961.0
961.0
965.0
967.0
966.0
963.0
956.0
958.0
961.0
963.0
962.0
962.0
960.0
960.0
965.0
971.0
969.0
968.0
965.0
962.0
966.0
968.0
979.0
994.0
1019.0
1039.0
1063.0
1087.0
1111.0
1137.0
1168.0
1207.0
1255.0
1303.0
1347.0
1383.0
1408.0
1422.0
1421.0
1411.0
1380.0
1320.0
1247.0
1182.0
1143.0
1121.0
1105.0
1095.0
1085.0
1079.0
1073.0
1061.0
1045.0
1033.0
1023.0
1019.0
1015.0
1008.0
1002.0
989.0
975.0
968.0
961.0
957.0
953.0
945.0
935.0
934.0
934.0
933.0
933.0
931.0
926.0
925.0
927.0
932.0
934.0
930.0
925.0
922.0
919.0
923.0
925.0
922.0
915.0
912.0
913.0
919.0
919.0
918.0
911.0
909.0
907.0
911.0
911.0
909.0
908.0
903.0
903.0
905.0
903.0
900.0
898.0
894.0
892.0
890.0
891.0
889.0
888.0
886.0
889.0
888.0
888.0
882.0
878.0
877.0
880.0
880.0
880.0
880.0
879.0
880.0
882.0
891.0
890.0
890.0
888.0
889.0
894.0
900.0
911.0
915.0
918.0
923.0
928.0
939.0
944.0
947.0
948.0
950.0
954.0
961.0
967.0
967.0
967.0
965.0
966.0
967.0
969.0
968.0
968.0
969.0
968.0
969.0
969.0
968.0
968.0
969.0
968.0
967.0
970.0
968.0
967.0
966.0
965.0
969.0
969.0
968.0
967.0
966.0
967.0
967.0
972.0
968.0
964.0
962.0
965.0
968.0
970.0
966.0
960.0
959.0
961.0
962.0
966.0
964.0
964.0
961.0
960.0
961.0
963.0
960.0
964.0
961.0
963.0
962.0
964.0
963.0
963.0
965.0
966.0
964.0
968.0
967.0
964.0
963.0
965.0
967.0
968.0
966.0
966.0
967.0
968.0
971.0
972.0
968.0
966.0
963.0
967.0
969.0
972.0
971.0
969.0
967.0
968.0
967.0
973.0
973.0
971.0
966.0
970.0
969.0
975.0
980.0
979.0
979.0
983.0
984.0
983.0
978.0
978.0
977.0
981.0
985.0
985.0
986.0
987.0
988.0
992.0
992.0
994.0
992.0
988.0
988.0
991.0
994.0
993.0
989.0
983.0
980.0
980.0
983.0
987.0
983.0
976.0
971.0
972.0
973.0
976.0
980.0
976.0
976.0
975.0
978.0
978.0
977.0
974.0
976.0
977.0
975.0
978.0
975.0
977.0
974.0
976.0
981.0
985.0
985.0
983.0
982.0
978.0
980.0
984.0
991.0
1006.0
1033.0
1064.0
1094.0
1122.0
1146.0
1176.0
1215.0
1262.0
1310.0
1358.0
1390.0
1411.0
1422.0
1418.0
1408.0
1384.0
1341.0
1280.0
1212.0
1153.0
1118.0
1104.0
1097.0
1092.0
1086.0
1079.0
1072.0
1065.0
1054.0
1044.0
1036.0
1035.0
1029.0
1025.0
1018.0
1005.0
998.0
990.0
984.0
976.0
965.0
959.0
954.0
952.0
951.0
950.0
944.0
941.0
941.0
943.0
948.0
947.0
946.0
939.0
938.0
939.0
941.0
941.0
937.0
930.0
929.0
930.0
933.0
934.0
928.0
923.0
919.0
923.0
926.0
927.0
924.0
919.0
915.0
911.0
914.0
917.0
913.0
907.0
905.0
904.0
906.0
904.0
901.0
896.0
891.0
887.0
886.0
890.0
893.0
890.0
888.0
887.0
885.0
888.0
889.0
889.0
888.0
892.0
899.0
903.0
904.0
907.0
908.0
913.0
919.0
926.0
929.0
929.0
937.0
942.0
952.0
959.0
964.0
966.0
969.0
974.0
975.0
978.0
976.0
975.0
976.0
981.0
986.0
988.0
985.0
979.0
980.0
983.0
986.0
989.0
984.0
982.0
982.0
985.0
987.0
986.0
985.0
980.0
979.0
979.0
982.0
986.0
985.0
979.0
976.0
979.0
982.0
982.0
980.0
978.0
978.0
978.0
980.0
983.0
982.0
981.0
982.0
982.0
981.0
981.0
981.0
978.0
978.0
978.0
980.0
979.0
979.0
977.0
977.0
979.0
981.0
979.0
981.0
975.0
976.0
980.0
984.0
984.0
981.0
981.0
980.0
983.0
982.0
985.0
986.0
982.0
977.0
979.0
982.0
987.0
988.0
984.0
982.0
980.0
985.0
987.0
984.0
983.0
983.0
985.0
988.0
988.0
989.0
992.0
993.0
994.0
996.0
994.0
992.0
993.0
992.0
995.0
998.0
999.0
997.0
998.0
996.0
998.0
1002.0
1001.0
1001.0
999.0
997.0
1000.0
1001.0
1000.0
995.0
990.0
987.0
989.0
991.0
990.0
988.0
986.0
984.0
982.0
986.0
985.0
987.0
985.0
987.0
987.0
988.0
987.0
985.0
982.0
985.0
989.0
988.0
990.0
988.0
984.0
983.0
985.0
988.0
992.0
990.0
987.0
986.0
987.0
989.0
999.0
1011.0
1026.0
1046.0
1067.0
1090.0
1110.0
1122.0
1136.0
1154.0
1184.0
1220.0
1263.0
1308.0
1350.0
1382.0
1407.0
1411.0
1395.0
1348.0
1280.0
1204.0
1147.0
1114.0
1098.0
1092.0
1089.0
1084.0
1082.0
1084.0
1078.0
1067.0
1054.0
1044.0
1039.0
1035.0
1032.0
1025.0
1011.0
1001.0
993.0
990.0
982.0
977.0
973.0
967.0
962.0
959.0
955.0
954.0
950.0
946.0
945.0
948.0
947.0
945.0
942.0
943.0
944.0
940.0
944.0
939.0
937.0
935.0
936.0
937.0
939.0
936.0
932.0
927.0
929.0
931.0
934.0
932.0
924.0
926.0
924.0
925.0
929.0
925.0
922.0
917.0
916.0
917.0
918.0
916.0
910.0
913.0
914.0
911.0
911.0
905.0
901.0
898.0
898.0
902.0
901.0
899.0
894.0
894.0
894.0
896.0
892.0
891.0
889.0
892.0
891.0
896.0
901.0
901.0
902.0
901.0
906.0
912.0
919.0
925.0
925.0
931.0
937.0
943.0
950.0
952.0
957.0
959.0
963.0
967.0
970.0
971.0
971.0
973.0
978.0
983.0
987.0
979.0
978.0
974.0
979.0
984.0
985.0
981.0
980.0
975.0
981.0
983.0
989.0
987.0
983.0
982.0
981.0
984.0
983.0
979.0
979.0
979.0
982.0
982.0
981.0
980.0
977.0
977.0
980.0
979.0
980.0
978.0
975.0
973.0
976.0
980.0
983.0
983.0
978.0
973.0
976.0
978.0
981.0
980.0
976.0
973.0
975.0
980.0
977.0
977.0
978.0
974.0
973.0
977.0
976.0
977.0
975.0
973.0
975.0
982.0
983.0
980.0
978.0
979.0
981.0
984.0
984.0
982.0
979.0
975.0
979.0
983.0
984.0
985.0
981.0
980.0
978.0
979.0
979.0
981.0
978.0
975.0
978.0
980.0
981.0
980.0
976.0
976.0
978.0
981.0
982.0
981.0
981.0
978.0
986.0
989.0
992.0
995.0
992.0
990.0
991.0
993.0
993.0
992.0
995.0
994.0
991.0
995.0
995.0
995.0
994.0
995.0
995.0
995.0
996.0
993.0
990.0
993.0
996.0
998.0
996.0
990.0
985.0
980.0
983.0
983.0
988.0
986.0
977.0
975.0
974.0
977.0
980.0
981.0
980.0
976.0
977.0
978.0
976.0
975.0
972.0
973.0
975.0
981.0
983.0
982.0
977.0
975.0
976.0
981.0
985.0
982.0
976.0
979.0
980.0
985.0
985.0
982.0
981.0
983.0
991.0
1004.0
1019.0
1033.0
1047.0
1060.0
1080.0
1099.0
1117.0
1138.0
1164.0
1190.0
1228.0
1269.0
1312.0
1347.0
1382.0
1406.0
1425.0
1426.0
1415.0
1386.0
1338.0
1282.0
1232.0
1192.0
1166.0
1142.0
1122.0
1112.0
1104.0
1104.0
1103.0
1097.0
1084.0
1073.0
1063.0
1056.0
1053.0
1046.0
1035.0
1029.0
1024.0
1020.0
1016.0
1008.0
1000.0
992.0
985.0
982.0
977.0
966.0
958.0
953.0
950.0
950.0
948.0
949.0
943.0
940.0
941.0
940.0
942.0
941.0
941.0
940.0
940.0
939.0
941.0
939.0
935.0
934.0
937.0
939.0
940.0
937.0
931.0
927.0
930.0
931.0
934.0
931.0
926.0
925.0
921.0
926.0
925.0
925.0
923.0
921.0
921.0
925.0
922.0
918.0
914.0
913.0
912.0
914.0
914.0
910.0
903.0
903.0
902.0
902.0
906.0
903.0
896.0
893.0
893.0
893.0
891.0
890.0
888.0
887.0
889.0
890.0
891.0
891.0
889.0
891.0
895.0
898.0
900.0
901.0
903.0
907.0
911.0
916.0
920.0
926.0
925.0
927.0
933.0
940.0
949.0
953.0
954.0
957.0
962.0
965.0
970.0
972.0
974.0
974.0
978.0
981.0
984.0
980.0
978.0
976.0
983.0
987.0
991.0
986.0
984.0
979.0
982.0
984.0
988.0
988.0
985.0
985.0
984.0
988.0
987.0
987.0
985.0
984.0
985.0
985.0
987.0
985.0
980.0
978.0
980.0
986.0
985.0
986.0
982.0
979.0
981.0
985.0
986.0
985.0
978.0
975.0
977.0
981.0
986.0
987.0
982.0
976.0
975.0
977.0
978.0
975.0
977.0
981.0
982.0
983.0
984.0
981.0
976.0
975.0
977.0
979.0
981.0
982.0
979.0
975.0
976.0
982.0
986.0
985.0
979.0
978.0
978.0
980.0
984.0
982.0
981.0
979.0
978.0
982.0
983.0
979.0
979.0
977.0
979.0
980.0
981.0
982.0
980.0
978.0
981.0
985.0
987.0
986.0
982.0
979.0
977.0
982.0
984.0
985.0
984.0
984.0
984.0
988.0
992.0
993.0
993.0
992.0
991.0
993.0
994.0
992.0
990.0
989.0
993.0
999.0
1000.0
998.0
995.0
993.0
994.0
997.0
997.0
996.0
988.0
984.0
984.0
985.0
988.0
988.0
984.0
983.0
983.0
983.0
980.0
981.0
977.0
975.0
976.0
975.0
982.0
981.0
977.0
976.0
978.0
978.0
978.0
978.0
976.0
976.0
977.0
980.0
984.0
985.0
983.0
980.0
978.0
978.0
984.0
986.0
985.0
984.0
980.0
981.0
981.0
991.0
1008.0
1031.0
1054.0
1072.0
1086.0
1100.0
1112.0
1130.0
1155.0
1188.0
1224.0
1256.0
1292.0
1330.0
1367.0
1397.0
1418.0
1422.0
1413.0
1388.0
1349.0
1290.0
1227.0
1175.0
1136.0
1112.0
1098.0
1094.0
1092.0
1091.0
1088.0
1082.0
1079.0
1078.0
1071.0
1057.0
1043.0
1035.0
1029.0
1023.0
1023.0
1016.0
1007.0
999.0
991.0
986.0
982.0
975.0
965.0
961.0
960.0
959.0
956.0
945.0
940.0
936.0
935.0
939.0
941.0
937.0
933.0
930.0
931.0
929.0
934.0
931.0
932.0
931.0
930.0
934.0
939.0
936.0
930.0
921.0
923.0
923.0
929.0
927.0
921.0
920.0
920.0
919.0
921.0
919.0
916.0
914.0
913.0
912.0
915.0
915.0
910.0
906.0
906.0
912.0
912.0
908.0
905.0
898.0
898.0
898.0
898.0
896.0
892.0
890.0
886.0
885.0
884.0
885.0
882.0
881.0
881.0
882.0
883.0
879.0
878.0
875.0
876.0
880.0
883.0
883.0
877.0
875.0
873.0
878.0
884.0
886.0
886.0
889.0
890.0
894.0
896.0
901.0
899.0
904.0
910.0
918.0
926.0
928.0
930.0
931.0
937.0
946.0
956.0
960.0
959.0
957.0
962.0
968.0
970.0
972.0
973.0
975.0
975.0
978.0
981.0
979.0
978.0
976.0
977.0
980.0
984.0
982.0
976.0
976.0
978.0
984.0
985.0
985.0
980.0
972.0
972.0
976.0
979.0
979.0
977.0
974.0
974.0
976.0
978.0
975.0
973.0
974.0
970.0
974.0
974.0
973.0
973.0
972.0
974.0
976.0
977.0
975.0
971.0
969.0
973.0
975.0
977.0
975.0
969.0
970.0
972.0
974.0
981.0
977.0
976.0
970.0
972.0
973.0
977.0
976.0
975.0
976.0
976.0
980.0
979.0
978.0
975.0
973.0
976.0
977.0
977.0
974.0
974.0
973.0
976.0
978.0
982.0
977.0
976.0
974.0
978.0
981.0
982.0
980.0
973.0
972.0
974.0
978.0
981.0
979.0
977.0
975.0
978.0
980.0
988.0
986.0
984.0
984.0
985.0
988.0
990.0
988.0
985.0
985.0
987.0
990.0
993.0
991.0
991.0
987.0
987.0
985.0
989.0
984.0
980.0
980.0
981.0
984.0
984.0
982.0
976.0
974.0
974.0
980.0
981.0
980.0
973.0
969.0
970.0
974.0
975.0
975.0
975.0
972.0
975.0
974.0
975.0
975.0
971.0
972.0
974.0
979.0
980.0
981.0
976.0
978.0
979.0
984.0
985.0
983.0
977.0
974.0
972.0
975.0
985.0
1000.0
1019.0
1042.0
1069.0
1098.0
1126.0
1151.0
1178.0
1215.0
1258.0
1305.0
1351.0
1391.0
1419.0
1435.0
1444.0
1441.0
1434.0
1416.0
1376.0
1314.0
1240.0
1174.0
1133.0
1111.0
1102.0
1098.0
1095.0
1091.0
1083.0
1074.0
1060.0
1049.0
1041.0
1041.0
1041.0
1034.0
1025.0
1017.0
1012.0
1008.0
1002.0
992.0
982.0
977.0
970.0
967.0
961.0
956.0
949.0
943.0
941.0
945.0
946.0
944.0
939.0
933.0
939.0
942.0
943.0
943.0
939.0
936.0
935.0
934.0
937.0
933.0
934.0
930.0
931.0
932.0
932.0
932.0
929.0
927.0
927.0
927.0
927.0
925.0
921.0
916.0
922.0
921.0
924.0
919.0
914.0
913.0
910.0
911.0
914.0
911.0
907.0
905.0
902.0
904.0
903.0
901.0
897.0
893.0
891.0
894.0
893.0
888.0
884.0
883.0
884.0
889.0
888.0
887.0
883.0
878.0
882.0
886.0
888.0
891.0
892.0
890.0
893.0
896.0
902.0
908.0
907.0
911.0
913.0
920.0
924.0
926.0
928.0
933.0
940.0
948.0
954.0
954.0
957.0
959.0
962.0
971.0
976.0
976.0
975.0
972.0
973.0
978.0
982.0
984.0
981.0
975.0
979.0
980.0
982.0
980.0
978.0
976.0
978.0
977.0
980.0
979.0
976.0
977.0
976.0
977.0
979.0
975.0
971.0
970.0
974.0
976.0
979.0
977.0
975.0
971.0
971.0
976.0
977.0
977.0
973.0
967.0
970.0
972.0
975.0
977.0
972.0
972.0
972.0
971.0
972.0
973.0
972.0
972.0
972.0
976.0
978.0
976.0
974.0
971.0
972.0
976.0
978.0
977.0
973.0
973.0
973.0
976.0
980.0
978.0
974.0
971.0
974.0
978.0
980.0
979.0
974.0
974.0
972.0
974.0
977.0
978.0
975.0
971.0
974.0
974.0
976.0
975.0
972.0
974.0
975.0
978.0
978.0
978.0
974.0
973.0
975.0
980.0
985.0
984.0
985.0
982.0
985.0
988.0
990.0
988.0
986.0
983.0
986.0
989.0
992.0
990.0
988.0
989.0
988.0
993.0
989.0
984.0
979.0
976.0
978.0
983.0
982.0
979.0
976.0
974.0
974.0
978.0
980.0
977.0
973.0
970.0
971.0
972.0
973.0
974.0
970.0
967.0
969.0
974.0
971.0
971.0
970.0
965.0
967.0
969.0
971.0
975.0
975.0
973.0
975.0
976.0
977.0
977.0
976.0
976.0
978.0
983.0
983.0
977.0
976.0
986.0
1010.0
1039.0
1062.0
1078.0
1091.0
1104.0
1119.0
1140.0
1160.0
1188.0
1219.0
1258.0
1302.0
1345.0
1388.0
1416.0
1423.0
1415.0
1385.0
1335.0
1262.0
1196.0
1150.0
1123.0
1111.0
1106.0
1103.0
1098.0
1093.0
1086.0
1078.0
1073.0
1063.0
1055.0
1041.0
1032.0
1027.0
1021.0
1015.0
1007.0
998.0
985.0
980.0
977.0
971.0
964.0
958.0
951.0
949.0
949.0
949.0
945.0
937.0
937.0
936.0
937.0
940.0
935.0
930.0
930.0
930.0
933.0
933.0
931.0
927.0
926.0
923.0
927.0
929.0
929.0
925.0
922.0
919.0
920.0
923.0
919.0
919.0
915.0
911.0
916.0
914.0
911.0
910.0
906.0
907.0
906.0
907.0
903.0
899.0
898.0
896.0
899.0
900.0
894.0
891.0
884.0
886.0
889.0
889.0
884.0
881.0
877.0
875.0
876.0
882.0
878.0
876.0
877.0
877.0
881.0
885.0
886.0
885.0
888.0
894.0
899.0
903.0
906.0
908.0
909.0
914.0
922.0
931.0
933.0
937.0
937.0
942.0
950.0
959.0
960.0
961.0
964.0
961.0
965.0
973.0
974.0
973.0
973.0
970.0
975.0
977.0
976.0
973.0
971.0
971.0
972.0
972.0
973.0
970.0
971.0
972.0
972.0
972.0
972.0
967.0
966.0
970.0
970.0
974.0
972.0
966.0
964.0
965.0
967.0
969.0
966.0
964.0
963.0
962.0
966.0
970.0
969.0
969.0
964.0
963.0
965.0
965.0
966.0
962.0
959.0
959.0
961.0
964.0
965.0
966.0
965.0
962.0
965.0
964.0
968.0
963.0
963.0
969.0
969.0
971.0
969.0
969.0
970.0
971.0
970.0
968.0
962.0
959.0
959.0
959.0
967.0
969.0
965.0
964.0
965.0
966.0
967.0
972.0
969.0
963.0
962.0
965.0
969.0
974.0
980.0
971.0
974.0
974.0
978.0
982.0
981.0
979.0
973.0
975.0
978.0
982.0
986.0
984.0
981.0
976.0
976.0
976.0
977.0
976.0
974.0
975.0
975.0
975.0
972.0
969.0
967.0
970.0
971.0
969.0
966.0
963.0
962.0
964.0
967.0
967.0
969.0
967.0
966.0
964.0
967.0
970.0
965.0
965.0
963.0
963.0
967.0
973.0
973.0
971.0
967.0
967.0
970.0
974.0
976.0
971.0
969.0
973.0
976.0
983.0
1000.0
1021.0
1050.0
1073.0
1103.0
1126.0
1154.0
1187.0
1228.0
1273.0
1319.0
1362.0
1393.0
1413.0
1425.0
1423.0
1413.0
1379.0
1314.0
1234.0
1161.0
1115.0
1099.0
1096.0
1093.0
1087.0
1077.0
1068.0
1065.0
1057.0
1047.0
1037.0
1029.0
1025.0
1021.0
1019.0
1011.0
1004.0
992.0
984.0
972.0
967.0
962.0
954.0
950.0
948.0
944.0
943.0
942.0
938.0
934.0
937.0
940.0
944.0
939.0
936.0
932.0
932.0
933.0
937.0
932.0
927.0
926.0
925.0
931.0
934.0
931.0
926.0
919.0
921.0
921.0
923.0
920.0
920.0
917.0
915.0
917.0
918.0
914.0
909.0
906.0
902.0
903.0
907.0
904.0
904.0
898.0
897.0
895.0
895.0
893.0
888.0
886.0
888.0
892.0
893.0
892.0
884.0
881.0
881.0
886.0
888.0
889.0
889.0
885.0
889.0
895.0
899.0
900.0
904.0
906.0
907.0
914.0
921.0
925.0
928.0
930.0
936.0
942.0
951.0
957.0
955.0
961.0
968.0
972.0
974.0
978.0
975.0
975.0
975.0
977.0
981.0
983.0
982.0
976.0
976.0
979.0
982.0
981.0
981.0
976.0
974.0
976.0
981.0
979.0
976.0
973.0
975.0
977.0
977.0
977.0
975.0
973.0
973.0
974.0
974.0
971.0
969.0
970.0
971.0
974.0
976.0
972.0
967.0
967.0
965.0
970.0
976.0
974.0
970.0
966.0
967.0
971.0
976.0
976.0
973.0
970.0
971.0
972.0
973.0
976.0
973.0
971.0
971.0
971.0
975.0
972.0
973.0
973.0
974.0
973.0
976.0
974.0
972.0
972.0
973.0
973.0
976.0
974.0
970.0
971.0
971.0
976.0
976.0
976.0
975.0
974.0
973.0
976.0
980.0
978.0
977.0
976.0
977.0
987.0
991.0
992.0
989.0
982.0
984.0
985.0
993.0
993.0
993.0
989.0
990.0
992.0
991.0
991.0
991.0
985.0
987.0
986.0
986.0
982.0
979.0
975.0
972.0
975.0
974.0
977.0
976.0
971.0
972.0
974.0
975.0
973.0
974.0
971.0
973.0
972.0
973.0
974.0
970.0
972.0
970.0
974.0
977.0
974.0
972.0
971.0
974.0
977.0
981.0
982.0
978.0
976.0
976.0
984.0
999.0
1028.0
1050.0
1068.0
1084.0
1103.0
1125.0
1145.0
1171.0
1200.0
1234.0
1271.0
1308.0
1351.0
1388.0
1409.0
1415.0
1396.0
1346.0
1265.0
1187.0
1136.0
1110.0
1103.0
1098.0
1092.0
1088.0
1084.0
1080.0
1074.0
1066.0
1057.0
1043.0
1035.0
1028.0
1022.0
1016.0
1007.0
993.0
982.0
975.0
972.0
967.0
963.0
957.0
951.0
948.0
946.0
946.0
946.0
942.0
939.0
938.0
938.0
937.0
940.0
935.0
931.0
932.0
931.0
932.0
932.0
929.0
925.0
925.0
931.0
931.0
926.0
926.0
922.0
924.0
923.0
925.0
924.0
917.0
914.0
915.0
920.0
919.0
916.0
911.0
904.0
904.0
908.0
906.0
905.0
902.0
900.0
896.0
896.0
896.0
896.0
890.0
889.0
886.0
888.0
886.0
885.0
885.0
884.0
883.0
889.0
890.0
890.0
888.0
887.0
889.0
897.0
903.0
908.0
911.0
913.0
921.0
925.0
934.0
937.0
938.0
940.0
944.0
954.0
965.0
967.0
966.0
965.0
968.0
972.0
976.0
975.0
974.0
973.0
974.0
977.0
980.0
980.0
980.0
978.0
975.0
978.0
978.0
977.0
978.0
974.0
974.0
976.0
978.0
979.0
974.0
971.0
971.0
974.0
976.0
975.0
969.0
966.0
966.0
971.0
976.0
977.0
974.0
975.0
974.0
975.0
976.0
972.0
970.0
969.0
966.0
968.0
971.0
972.0
971.0
969.0
967.0
968.0
969.0
969.0
971.0
967.0
972.0
972.0
976.0
971.0
972.0
969.0
969.0
971.0
974.0
974.0
971.0
968.0
969.0
973.0
978.0
973.0
969.0
964.0
967.0
967.0
971.0
975.0
972.0
970.0
971.0
974.0
971.0
975.0
976.0
973.0
978.0
982.0
986.0
985.0
985.0
985.0
986.0
987.0
989.0
988.0
981.0
981.0
984.0
989.0
993.0
993.0
987.0
983.0
988.0
994.0
996.0
993.0
986.0
980.0
980.0
985.0
982.0
982.0
981.0
975.0
973.0
972.0
976.0
975.0
974.0
969.0
972.0
974.0
977.0
974.0
969.0
963.0
965.0
971.0
973.0
974.0
974.0
973.0
974.0
972.0
977.0
977.0
976.0
971.0
971.0
981.0
1004.0
1029.0
1049.0
1068.0
1086.0
1114.0
1147.0
1180.0
1219.0
1260.0
1312.0
1360.0
1401.0
1417.0
1414.0
1389.0
1342.0
1275.0
1212.0
1160.0
1125.0
1105.0
1094.0
1094.0
1092.0
1084.0
1070.0
1060.0
1051.0
1042.0
1036.0
1029.0
1019.0
1012.0
1004.0
1002.0
994.0
989.0
982.0
970.0
965.0
959.0
957.0
950.0
944.0
937.0
937.0
938.0
942.0
938.0
937.0
930.0
928.0
934.0
935.0
934.0
936.0
935.0
934.0
933.0
930.0
930.0
928.0
926.0
927.0
927.0
924.0
921.0
921.0
918.0
917.0
922.0
920.0
917.0
915.0
910.0
909.0
911.0
912.0
908.0
904.0
899.0
894.0
901.0
898.0
896.0
894.0
890.0
888.0
889.0
889.0
890.0
888.0
883.0
884.0
882.0
883.0
883.0
885.0
884.0
887.0
889.0
889.0
891.0
893.0
897.0
902.0
908.0
913.0
917.0
917.0
919.0
919.0
929.0
939.0
946.0
949.0
951.0
953.0
961.0
968.0
970.0
971.0
973.0
974.0
976.0
981.0
985.0
984.0
982.0
982.0
981.0
985.0
984.0
981.0
982.0
983.0
985.0
986.0
985.0
983.0
979.0
982.0
982.0
984.0
983.0
976.0
973.0
976.0
979.0
984.0
981.0
982.0
977.0
975.0
979.0
981.0
982.0
979.0
979.0
977.0
978.0
979.0
980.0
980.0
980.0
981.0
983.0
987.0
983.0
981.0
975.0
977.0
981.0
984.0
982.0
980.0
979.0
979.0
983.0
988.0
986.0
983.0
980.0
978.0
981.0
983.0
984.0
983.0
982.0
986.0
986.0
987.0
984.0
981.0
981.0
983.0
984.0
988.0
986.0
983.0
981.0
984.0
988.0
988.0
986.0
983.0
984.0
988.0
990.0
997.0
998.0
999.0
993.0
992.0
994.0
997.0
998.0
997.0
994.0
997.0
1001.0
1004.0
1002.0
1002.0
999.0
1000.0
1000.0
1003.0
1003.0
999.0
997.0
996.0
1000.0
1001.0
995.0
992.0
986.0
984.0
986.0
987.0
988.0
982.0
980.0
982.0
983.0
982.0
987.0
984.0
985.0
983.0
983.0
986.0
984.0
984.0
981.0
981.0
984.0
986.0
987.0
985.0
986.0
987.0
990.0
990.0
990.0
984.0
989.0
996.0
1019.0
1047.0
1075.0
1096.0
1116.0
1142.0
1176.0
1216.0
1259.0
1299.0
1339.0
1386.0
1423.0
1446.0
1452.0
1447.0
1426.0
1383.0
1315.0
1230.0
1156.0
1112.0
1089.0
1086.0
1086.0
1086.0
1079.0
1066.0
1055.0
1046.0
1039.0
1035.0
1029.0
1024.0
1021.0
1016.0
1009.0
1003.0
992.0
980.0
972.0
968.0
966.0
963.0
954.0
950.0
948.0
949.0
953.0
957.0
952.0
949.0
944.0
942.0
943.0
947.0
943.0
939.0
935.0
936.0
940.0
941.0
941.0
935.0
929.0
931.0
929.0
936.0
935.0
933.0
930.0
928.0
927.0
928.0
927.0
923.0
922.0
918.0
919.0
918.0
915.0
912.0
909.0
910.0
906.0
908.0
905.0
904.0
898.0
899.0
899.0
900.0
896.0
892.0
890.0
891.0
891.0
895.0
892.0
893.0
891.0
891.0
896.0
905.0
907.0
907.0
909.0
909.0
916.0
924.0
930.0
935.0
938.0
943.0
950.0
958.0
959.0
963.0
963.0
968.0
970.0
974.0
973.0
973.0
975.0
974.0
981.0
985.0
984.0
981.0
981.0
983.0
984.0
988.0
985.0
980.0
978.0
981.0
984.0
986.0
983.0
980.0
976.0
977.0
977.0
982.0
983.0
979.0
977.0
974.0
976.0
974.0
977.0
975.0
973.0
971.0
975.0
978.0
978.0
973.0
974.0
975.0
978.0
977.0
978.0
974.0
972.0
973.0
975.0
979.0
977.0
974.0
971.0
972.0
975.0
982.0
980.0
976.0
974.0
975.0
975.0
977.0
978.0
977.0
974.0
975.0
978.0
977.0
976.0
976.0
976.0
976.0
979.0
980.0
977.0
973.0
971.0
974.0
980.0
986.0
984.0
979.0
975.0
